time (ms),signal 0,signal 1,signal 2,signal3,time (sec)
1331523.0,399.0,312.0,34.0,109.0,1331.523
1331533.0,403.0,317.0,34.0,137.0,1331.533
1331543.0,403.0,319.0,40.0,126.0,1331.543
1331553.0,404.0,321.0,39.0,127.0,1331.553
1331563.0,406.0,324.0,37.0,126.0,1331.563
1331573.0,405.0,326.0,35.0,132.0,1331.573
1331584.0,405.0,330.0,44.0,127.0,1331.584
1331594.0,405.0,334.0,43.0,126.0,1331.594
1331604.0,404.0,336.0,41.0,118.0,1331.604
1331614.0,403.0,340.0,44.0,130.0,1331.614
1331624.0,401.0,342.0,45.0,126.0,1331.624
1331634.0,401.0,345.0,42.0,125.0,1331.634
1331644.0,400.0,348.0,39.0,116.0,1331.644
1331654.0,399.0,350.0,37.0,112.0,1331.654
1331664.0,398.0,351.0,36.0,126.0,1331.664
1331674.0,396.0,354.0,38.0,120.0,1331.674
1331684.0,396.0,356.0,37.0,119.0,1331.684
1331694.0,392.0,356.0,38.0,124.0,1331.694
1331704.0,391.0,358.0,36.0,113.0,1331.704
1331714.0,388.0,357.0,36.0,110.0,1331.714
1331724.0,387.0,358.0,33.0,117.0,1331.724
1331734.0,384.0,355.0,32.0,115.0,1331.734
1331744.0,385.0,356.0,34.0,111.0,1331.744
1331755.0,381.0,354.0,33.0,119.0,1331.755
1331765.0,379.0,352.0,36.0,115.0,1331.765
1331775.0,375.0,350.0,31.0,106.0,1331.775
1331785.0,374.0,349.0,33.0,104.0,1331.785
1331795.0,372.0,346.0,32.0,100.0,1331.795
1331805.0,369.0,344.0,35.0,98.0,1331.805
1331815.0,367.0,339.0,35.0,98.0,1331.815
1331825.0,365.0,336.0,33.0,96.0,1331.825
1331835.0,365.0,333.0,37.0,99.0,1331.835
1331845.0,363.0,329.0,35.0,97.0,1331.845
1331855.0,361.0,325.0,32.0,109.0,1331.855
1331865.0,359.0,320.0,31.0,106.0,1331.865
1331875.0,355.0,317.0,27.0,104.0,1331.875
1331885.0,354.0,311.0,29.0,102.0,1331.885
1331895.0,351.0,306.0,29.0,101.0,1331.895
1331905.0,352.0,302.0,28.0,110.0,1331.905
1331915.0,349.0,297.0,25.0,105.0,1331.915
1331926.0,345.0,292.0,22.0,105.0,1331.926
1331936.0,343.0,287.0,26.0,97.0,1331.936
1331946.0,341.0,282.0,23.0,96.0,1331.946
1331956.0,339.0,276.0,24.0,114.0,1331.956
1331966.0,336.0,271.0,21.0,108.0,1331.966
1331976.0,334.0,267.0,21.0,101.0,1331.976
1331986.0,331.0,261.0,20.0,102.0,1331.986
1331996.0,326.0,257.0,22.0,102.0,1331.996
1332006.0,324.0,253.0,20.0,114.0,1332.006
1332016.0,322.0,249.0,21.0,117.0,1332.016
1332026.0,320.0,243.0,23.0,108.0,1332.026
1332036.0,317.0,238.0,20.0,106.0,1332.036
1332046.0,313.0,233.0,21.0,103.0,1332.046
1332056.0,310.0,230.0,19.0,106.0,1332.056
1332066.0,307.0,225.0,20.0,109.0,1332.066
1332076.0,303.0,221.0,22.0,104.0,1332.076
1332086.0,301.0,217.0,23.0,100.0,1332.086
1332096.0,296.0,212.0,28.0,110.0,1332.096
1332106.0,294.0,208.0,28.0,115.0,1332.106
1332116.0,293.0,205.0,25.0,119.0,1332.116
1332126.0,289.0,201.0,24.0,107.0,1332.126
1332136.0,284.0,197.0,21.0,107.0,1332.136
1332146.0,282.0,193.0,25.0,105.0,1332.146
1332156.0,281.0,191.0,27.0,99.0,1332.156
1332166.0,278.0,186.0,31.0,102.0,1332.166
1332176.0,276.0,182.0,29.0,95.0,1332.176
1332186.0,276.0,180.0,29.0,99.0,1332.186
1332196.0,276.0,177.0,26.0,94.0,1332.196
1332206.0,274.0,173.0,22.0,108.0,1332.206
1332216.0,272.0,169.0,22.0,104.0,1332.216
1332226.0,270.0,168.0,25.0,101.0,1332.226
1332236.0,268.0,165.0,25.0,100.0,1332.236
1332246.0,266.0,161.0,22.0,99.0,1332.246
1332256.0,266.0,159.0,23.0,124.0,1332.256
1332267.0,266.0,156.0,24.0,122.0,1332.267
1332277.0,264.0,153.0,26.0,119.0,1332.277
1332287.0,264.0,149.0,23.0,115.0,1332.287
1332297.0,264.0,148.0,21.0,117.0,1332.297
1332307.0,262.0,145.0,22.0,118.0,1332.307
1332317.0,262.0,143.0,23.0,115.0,1332.317
1332327.0,264.0,140.0,23.0,115.0,1332.327
1332337.0,265.0,138.0,22.0,113.0,1332.337
1332347.0,266.0,136.0,20.0,120.0,1332.347
1332357.0,267.0,133.0,19.0,127.0,1332.357
1332367.0,268.0,131.0,21.0,119.0,1332.367
1332377.0,269.0,128.0,21.0,116.0,1332.377
1332387.0,270.0,126.0,21.0,116.0,1332.387
1332397.0,273.0,125.0,20.0,117.0,1332.397
1332407.0,275.0,123.0,20.0,118.0,1332.407
1332417.0,276.0,121.0,18.0,111.0,1332.417
1332427.0,278.0,119.0,17.0,103.0,1332.427
1332438.0,279.0,118.0,16.0,104.0,1332.438
1332448.0,279.0,115.0,15.0,101.0,1332.448
1332458.0,278.0,114.0,18.0,96.0,1332.458
1332468.0,279.0,112.0,18.0,95.0,1332.468
1332478.0,281.0,110.0,17.0,95.0,1332.478
1332488.0,282.0,109.0,18.0,114.0,1332.488
1332498.0,282.0,107.0,18.0,116.0,1332.498
1332508.0,282.0,107.0,16.0,117.0,1332.508
1332518.0,282.0,104.0,16.0,110.0,1332.518
1332528.0,282.0,102.0,15.0,102.0,1332.528
1332538.0,279.0,102.0,15.0,103.0,1332.538
1332548.0,277.0,99.0,18.0,97.0,1332.548
1332558.0,274.0,99.0,16.0,92.0,1332.558
1332568.0,270.0,97.0,17.0,96.0,1332.568
1332578.0,266.0,97.0,17.0,108.0,1332.578
1332588.0,263.0,95.0,17.0,120.0,1332.588
1332598.0,259.0,93.0,16.0,114.0,1332.598
1332608.0,255.0,93.0,14.0,107.0,1332.608
1332618.0,252.0,91.0,14.0,104.0,1332.618
1332628.0,246.0,90.0,12.0,103.0,1332.628
1332638.0,241.0,89.0,12.0,105.0,1332.638
1332648.0,236.0,89.0,10.0,113.0,1332.648
1332658.0,233.0,88.0,10.0,106.0,1332.658
1332668.0,228.0,86.0,9.0,102.0,1332.668
1332678.0,223.0,85.0,9.0,127.0,1332.678
1332688.0,218.0,83.0,8.0,120.0,1332.688
1332698.0,213.0,83.0,8.0,118.0,1332.698
1332708.0,208.0,81.0,11.0,110.0,1332.708
1332718.0,203.0,82.0,10.0,107.0,1332.718
1332728.0,197.0,80.0,9.0,110.0,1332.728
1332738.0,192.0,79.0,10.0,111.0,1332.738
1332748.0,189.0,79.0,10.0,113.0,1332.748
1332758.0,185.0,77.0,9.0,109.0,1332.758
1332768.0,179.0,77.0,7.0,102.0,1332.768
1332779.0,174.0,76.0,8.0,98.0,1332.779
1332789.0,168.0,75.0,7.0,96.0,1332.789
1332799.0,164.0,74.0,7.0,94.0,1332.799
1332809.0,160.0,74.0,7.0,117.0,1332.809
1332819.0,155.0,72.0,7.0,111.0,1332.819
1332829.0,148.0,71.0,7.0,112.0,1332.829
1332839.0,140.0,71.0,6.0,108.0,1332.839
1332849.0,132.0,70.0,6.0,111.0,1332.849
1332859.0,124.0,70.0,8.0,107.0,1332.859
1332869.0,118.0,69.0,8.0,105.0,1332.869
1332879.0,111.0,67.0,7.0,109.0,1332.879
1332889.0,105.0,67.0,7.0,107.0,1332.889
1332899.0,100.0,67.0,10.0,113.0,1332.899
1332909.0,95.0,66.0,7.0,117.0,1332.909
1332919.0,92.0,65.0,10.0,119.0,1332.919
1332929.0,86.0,65.0,8.0,114.0,1332.929
1332939.0,81.0,64.0,7.0,111.0,1332.939
1332950.0,77.0,65.0,7.0,104.0,1332.95
1332960.0,73.0,64.0,7.0,113.0,1332.96
1332970.0,70.0,63.0,9.0,108.0,1332.97
1332980.0,66.0,63.0,8.0,110.0,1332.98
1332990.0,64.0,62.0,9.0,110.0,1332.99
1333000.0,62.0,63.0,9.0,113.0,1333.0
1333010.0,59.0,62.0,9.0,110.0,1333.01
1333020.0,57.0,60.0,8.0,106.0,1333.02
1333030.0,55.0,62.0,8.0,104.0,1333.03
1333040.0,56.0,61.0,9.0,101.0,1333.04
1333050.0,52.0,60.0,7.0,112.0,1333.05
1333060.0,53.0,60.0,7.0,108.0,1333.06
1333070.0,52.0,60.0,6.0,107.0,1333.07
1333080.0,51.0,60.0,6.0,104.0,1333.08
1333090.0,50.0,59.0,6.0,109.0,1333.09
1333100.0,51.0,58.0,5.0,106.0,1333.1
1333110.0,52.0,58.0,6.0,104.0,1333.11
1333120.0,50.0,58.0,6.0,101.0,1333.12
1333130.0,54.0,57.0,6.0,109.0,1333.13
1333140.0,53.0,57.0,5.0,110.0,1333.14
1333150.0,55.0,57.0,5.0,112.0,1333.15
1333160.0,57.0,56.0,5.0,105.0,1333.16
1333170.0,58.0,56.0,4.0,98.0,1333.17
1333180.0,63.0,55.0,5.0,103.0,1333.18
1333190.0,64.0,55.0,4.0,97.0,1333.19
1333200.0,67.0,55.0,5.0,100.0,1333.2
1333210.0,68.0,55.0,4.0,104.0,1333.21
1333220.0,70.0,54.0,4.0,103.0,1333.22
1333230.0,72.0,53.0,4.0,121.0,1333.23
1333240.0,72.0,53.0,4.0,117.0,1333.24
1333250.0,75.0,53.0,6.0,120.0,1333.25
1333260.0,76.0,52.0,5.0,118.0,1333.26
1333270.0,78.0,52.0,6.0,117.0,1333.27
1333280.0,78.0,52.0,5.0,117.0,1333.28
1333291.0,80.0,52.0,6.0,115.0,1333.291
1333301.0,81.0,51.0,6.0,111.0,1333.301
1333311.0,84.0,50.0,5.0,114.0,1333.311
1333321.0,86.0,49.0,7.0,125.0,1333.321
1333331.0,87.0,49.0,5.0,135.0,1333.331
1333341.0,89.0,48.0,6.0,124.0,1333.341
1333351.0,91.0,49.0,6.0,126.0,1333.351
1333361.0,93.0,48.0,10.0,145.0,1333.361
1333371.0,94.0,46.0,9.0,141.0,1333.371
1333381.0,96.0,47.0,9.0,143.0,1333.381
1333391.0,100.0,47.0,10.0,131.0,1333.391
1333401.0,101.0,46.0,8.0,128.0,1333.401
1333411.0,103.0,45.0,8.0,125.0,1333.411
1333421.0,105.0,43.0,8.0,121.0,1333.421
1333431.0,107.0,44.0,8.0,121.0,1333.431
1333441.0,109.0,40.0,7.0,118.0,1333.441
1333451.0,112.0,39.0,7.0,112.0,1333.451
1333462.0,114.0,40.0,9.0,107.0,1333.462
1333472.0,114.0,43.0,8.0,102.0,1333.472
1333482.0,116.0,44.0,7.0,95.0,1333.482
1333492.0,118.0,46.0,7.0,91.0,1333.492
1333502.0,118.0,47.0,6.0,102.0,1333.502
1333512.0,120.0,48.0,8.0,99.0,1333.512
1333522.0,121.0,52.0,8.0,102.0,1333.522
1333532.0,123.0,53.0,9.0,101.0,1333.532
1333542.0,122.0,55.0,7.0,98.0,1333.542
1333552.0,123.0,57.0,7.0,99.0,1333.552
1333562.0,126.0,60.0,8.0,102.0,1333.562
1333572.0,125.0,62.0,7.0,100.0,1333.572
1333582.0,126.0,62.0,8.0,101.0,1333.582
1333592.0,128.0,64.0,8.0,99.0,1333.592
1333602.0,129.0,64.0,9.0,97.0,1333.602
1333612.0,132.0,65.0,7.0,105.0,1333.612
1333622.0,133.0,65.0,7.0,101.0,1333.622
1333632.0,136.0,66.0,8.0,95.0,1333.632
1333642.0,137.0,68.0,7.0,98.0,1333.642
1333652.0,140.0,68.0,8.0,104.0,1333.652
1333662.0,142.0,69.0,7.0,107.0,1333.662
1333672.0,144.0,70.0,7.0,106.0,1333.672
1333682.0,144.0,70.0,8.0,107.0,1333.682
1333692.0,145.0,71.0,9.0,103.0,1333.692
1333702.0,146.0,72.0,8.0,99.0,1333.702
1333712.0,146.0,74.0,8.0,101.0,1333.712
1333722.0,144.0,73.0,9.0,98.0,1333.722
1333732.0,142.0,71.0,9.0,93.0,1333.732
1333742.0,142.0,72.0,9.0,94.0,1333.742
1333752.0,142.0,72.0,8.0,91.0,1333.752
1333762.0,142.0,72.0,10.0,108.0,1333.762
1333772.0,142.0,73.0,9.0,115.0,1333.772
1333782.0,142.0,73.0,9.0,109.0,1333.782
1333792.0,143.0,72.0,8.0,100.0,1333.792
1333803.0,143.0,75.0,9.0,95.0,1333.803
1333813.0,143.0,75.0,8.0,94.0,1333.813
1333823.0,144.0,77.0,8.0,111.0,1333.823
1333833.0,142.0,77.0,7.0,109.0,1333.833
1333843.0,142.0,77.0,7.0,103.0,1333.843
1333853.0,142.0,77.0,7.0,110.0,1333.853
1333863.0,141.0,76.0,8.0,111.0,1333.863
1333873.0,140.0,76.0,7.0,111.0,1333.873
1333883.0,139.0,75.0,8.0,109.0,1333.883
1333893.0,137.0,75.0,6.0,102.0,1333.893
1333903.0,136.0,75.0,6.0,104.0,1333.903
1333913.0,137.0,75.0,6.0,109.0,1333.913
1333923.0,134.0,73.0,6.0,106.0,1333.923
1333933.0,135.0,72.0,7.0,108.0,1333.933
1333943.0,134.0,72.0,5.0,111.0,1333.943
1333953.0,135.0,72.0,8.0,118.0,1333.953
1333963.0,133.0,71.0,12.0,117.0,1333.963
1333974.0,132.0,70.0,12.0,112.0,1333.974
1333984.0,132.0,71.0,11.0,109.0,1333.984
1333994.0,129.0,69.0,10.0,110.0,1333.994
1334004.0,129.0,67.0,9.0,108.0,1334.004
1334014.0,128.0,66.0,9.0,112.0,1334.014
1334024.0,128.0,64.0,8.0,110.0,1334.024
1334034.0,128.0,65.0,10.0,114.0,1334.034
1334044.0,128.0,65.0,10.0,114.0,1334.044
1334054.0,126.0,64.0,8.0,111.0,1334.054
1334064.0,125.0,63.0,8.0,105.0,1334.064
1334074.0,124.0,62.0,10.0,100.0,1334.074
1334084.0,123.0,61.0,9.0,92.0,1334.084
1334094.0,123.0,61.0,11.0,126.0,1334.094
1334104.0,124.0,61.0,14.0,128.0,1334.104
1334114.0,123.0,60.0,16.0,125.0,1334.114
1334124.0,123.0,59.0,15.0,121.0,1334.124
1334134.0,122.0,62.0,15.0,130.0,1334.134
1334144.0,121.0,58.0,15.0,119.0,1334.144
1334154.0,119.0,58.0,13.0,116.0,1334.154
1334164.0,121.0,58.0,13.0,113.0,1334.164
1334174.0,120.0,58.0,12.0,109.0,1334.174
1334184.0,122.0,57.0,11.0,110.0,1334.184
1334194.0,123.0,57.0,10.0,110.0,1334.194
1334204.0,122.0,57.0,10.0,107.0,1334.204
1334214.0,123.0,58.0,9.0,102.0,1334.214
1334224.0,125.0,60.0,8.0,99.0,1334.224
1334234.0,126.0,59.0,12.0,102.0,1334.234
1334244.0,125.0,58.0,11.0,106.0,1334.244
1334254.0,124.0,57.0,10.0,100.0,1334.254
1334264.0,124.0,57.0,9.0,93.0,1334.264
1334274.0,124.0,59.0,9.0,98.0,1334.274
1334284.0,123.0,57.0,10.0,100.0,1334.284
1334294.0,123.0,58.0,11.0,101.0,1334.294
1334304.0,124.0,58.0,11.0,99.0,1334.304
1334315.0,124.0,57.0,9.0,99.0,1334.315
1334325.0,124.0,58.0,10.0,100.0,1334.325
1334335.0,123.0,55.0,8.0,103.0,1334.335
1334345.0,122.0,55.0,8.0,99.0,1334.345
1334355.0,122.0,52.0,7.0,93.0,1334.355
1334365.0,121.0,51.0,7.0,101.0,1334.365
1334375.0,120.0,50.0,7.0,95.0,1334.375
1334385.0,119.0,49.0,8.0,115.0,1334.385
1334395.0,118.0,49.0,9.0,118.0,1334.395
1334405.0,119.0,49.0,9.0,115.0,1334.405
1334415.0,119.0,50.0,8.0,110.0,1334.415
1334425.0,120.0,50.0,11.0,102.0,1334.425
1334435.0,118.0,49.0,12.0,105.0,1334.435
1334445.0,119.0,49.0,12.0,129.0,1334.445
1334455.0,117.0,49.0,10.0,124.0,1334.455
1334465.0,117.0,48.0,9.0,123.0,1334.465
1334475.0,117.0,49.0,9.0,119.0,1334.475
1334486.0,115.0,51.0,11.0,119.0,1334.486
1334496.0,115.0,50.0,11.0,126.0,1334.496
1334506.0,115.0,51.0,10.0,124.0,1334.506
1334516.0,114.0,50.0,9.0,117.0,1334.516
1334526.0,114.0,50.0,8.0,115.0,1334.526
1334536.0,114.0,50.0,8.0,115.0,1334.536
1334546.0,113.0,49.0,7.0,140.0,1334.546
1334556.0,113.0,51.0,6.0,128.0,1334.556
1334566.0,112.0,50.0,8.0,131.0,1334.566
1334576.0,111.0,52.0,10.0,138.0,1334.576
1334586.0,110.0,51.0,10.0,133.0,1334.586
1334596.0,108.0,51.0,8.0,126.0,1334.596
1334606.0,107.0,51.0,8.0,125.0,1334.606
1334616.0,108.0,51.0,8.0,117.0,1334.616
1334626.0,107.0,52.0,9.0,116.0,1334.626
1334636.0,107.0,52.0,9.0,134.0,1334.636
1334646.0,105.0,51.0,8.0,143.0,1334.646
1334656.0,105.0,50.0,8.0,146.0,1334.656
1334666.0,104.0,50.0,8.0,136.0,1334.666
1334676.0,101.0,49.0,8.0,129.0,1334.676
1334686.0,99.0,47.0,9.0,129.0,1334.686
1334696.0,98.0,47.0,11.0,127.0,1334.696
1334706.0,95.0,44.0,10.0,135.0,1334.706
1334716.0,96.0,46.0,9.0,125.0,1334.716
1334726.0,95.0,44.0,8.0,142.0,1334.726
1334736.0,96.0,43.0,8.0,157.0,1334.736
1334746.0,94.0,44.0,7.0,145.0,1334.746
1334756.0,94.0,45.0,7.0,143.0,1334.756
1334766.0,92.0,45.0,8.0,134.0,1334.766
1334776.0,92.0,45.0,7.0,129.0,1334.776
1334786.0,93.0,46.0,6.0,142.0,1334.786
1334796.0,92.0,46.0,10.0,138.0,1334.796
1334806.0,91.0,47.0,8.0,131.0,1334.806
1334816.0,90.0,48.0,7.0,122.0,1334.816
1334827.0,90.0,49.0,6.0,118.0,1334.827
1334837.0,91.0,51.0,8.0,117.0,1334.837
1334847.0,91.0,50.0,7.0,112.0,1334.847
1334857.0,91.0,53.0,8.0,109.0,1334.857
1334867.0,91.0,51.0,8.0,99.0,1334.867
1334877.0,90.0,51.0,7.0,107.0,1334.877
1334887.0,90.0,51.0,7.0,104.0,1334.887
1334897.0,90.0,52.0,7.0,102.0,1334.897
1334907.0,90.0,53.0,8.0,99.0,1334.907
1334917.0,89.0,52.0,10.0,107.0,1334.917
1334927.0,88.0,54.0,9.0,109.0,1334.927
1334937.0,88.0,55.0,9.0,105.0,1334.937
1334947.0,87.0,53.0,7.0,111.0,1334.947
1334957.0,87.0,52.0,6.0,109.0,1334.957
1334967.0,88.0,52.0,6.0,101.0,1334.967
1334977.0,87.0,53.0,7.0,94.0,1334.977
1334987.0,87.0,51.0,9.0,104.0,1334.987
1334998.0,85.0,50.0,10.0,113.0,1334.998
1335008.0,84.0,49.0,9.0,106.0,1335.008
1335018.0,83.0,47.0,10.0,110.0,1335.018
1335028.0,80.0,45.0,9.0,112.0,1335.028
1335038.0,79.0,44.0,9.0,110.0,1335.038
1335048.0,78.0,45.0,8.0,113.0,1335.048
1335058.0,78.0,44.0,8.0,113.0,1335.058
1335068.0,75.0,43.0,7.0,112.0,1335.068
1335078.0,75.0,44.0,8.0,128.0,1335.078
1335088.0,75.0,45.0,7.0,129.0,1335.088
1335098.0,72.0,44.0,7.0,124.0,1335.098
1335108.0,72.0,44.0,6.0,119.0,1335.108
1335118.0,72.0,44.0,7.0,112.0,1335.118
1335128.0,71.0,44.0,8.0,112.0,1335.128
1335138.0,70.0,42.0,7.0,115.0,1335.138
1335148.0,71.0,41.0,8.0,110.0,1335.148
1335158.0,73.0,43.0,7.0,107.0,1335.158
1335168.0,71.0,42.0,6.0,101.0,1335.168
1335178.0,73.0,42.0,6.0,93.0,1335.178
1335188.0,73.0,44.0,7.0,122.0,1335.188
1335198.0,74.0,44.0,6.0,116.0,1335.198
1335208.0,75.0,45.0,5.0,108.0,1335.208
1335218.0,76.0,46.0,6.0,103.0,1335.218
1335228.0,76.0,46.0,8.0,99.0,1335.228
1335238.0,75.0,46.0,7.0,106.0,1335.238
1335248.0,76.0,45.0,7.0,115.0,1335.248
1335258.0,75.0,48.0,8.0,120.0,1335.258
1335268.0,73.0,44.0,7.0,118.0,1335.268
1335278.0,71.0,44.0,8.0,123.0,1335.278
1335288.0,71.0,43.0,8.0,126.0,1335.288
1335298.0,70.0,43.0,6.0,122.0,1335.298
1335308.0,68.0,42.0,6.0,120.0,1335.308
1335318.0,69.0,41.0,6.0,111.0,1335.318
1335328.0,69.0,45.0,6.0,120.0,1335.328
1335339.0,69.0,44.0,7.0,114.0,1335.339
1335349.0,69.0,42.0,5.0,113.0,1335.349
1335359.0,71.0,43.0,7.0,109.0,1335.359
1335369.0,71.0,43.0,6.0,104.0,1335.369
1335379.0,71.0,45.0,6.0,99.0,1335.379
1335389.0,70.0,45.0,5.0,104.0,1335.389
1335399.0,70.0,48.0,5.0,113.0,1335.399
1335409.0,69.0,48.0,6.0,115.0,1335.409
1335419.0,66.0,49.0,5.0,112.0,1335.419
1335429.0,65.0,49.0,6.0,106.0,1335.429
1335439.0,64.0,51.0,5.0,99.0,1335.439
1335449.0,64.0,53.0,4.0,95.0,1335.449
1335459.0,63.0,53.0,5.0,93.0,1335.459
1335469.0,62.0,55.0,4.0,100.0,1335.469
1335479.0,62.0,56.0,6.0,96.0,1335.479
1335489.0,60.0,54.0,7.0,94.0,1335.489
1335499.0,60.0,55.0,9.0,103.0,1335.499
1335510.0,58.0,54.0,7.0,106.0,1335.51
1335520.0,57.0,54.0,6.0,114.0,1335.52
1335530.0,57.0,55.0,7.0,121.0,1335.53
1335540.0,57.0,55.0,6.0,113.0,1335.54
1335550.0,58.0,54.0,10.0,126.0,1335.55
1335560.0,57.0,53.0,9.0,118.0,1335.56
1335570.0,57.0,52.0,10.0,115.0,1335.57
1335580.0,57.0,51.0,8.0,111.0,1335.58
1335590.0,55.0,52.0,7.0,112.0,1335.59
1335600.0,55.0,49.0,7.0,107.0,1335.6
1335610.0,54.0,51.0,7.0,105.0,1335.61
1335620.0,54.0,48.0,6.0,102.0,1335.62
1335630.0,53.0,50.0,5.0,94.0,1335.63
1335640.0,55.0,52.0,6.0,90.0,1335.64
1335650.0,55.0,52.0,6.0,88.0,1335.65
1335660.0,54.0,53.0,6.0,85.0,1335.66
1335670.0,52.0,51.0,6.0,91.0,1335.67
1335680.0,52.0,50.0,6.0,88.0,1335.68
1335690.0,52.0,52.0,8.0,104.0,1335.69
1335700.0,52.0,52.0,7.0,98.0,1335.7
1335710.0,51.0,53.0,7.0,99.0,1335.71
1335720.0,51.0,51.0,6.0,91.0,1335.72
1335730.0,49.0,50.0,7.0,97.0,1335.73
1335740.0,52.0,49.0,6.0,96.0,1335.74
1335750.0,51.0,49.0,7.0,96.0,1335.75
1335760.0,52.0,47.0,7.0,104.0,1335.76
1335770.0,52.0,47.0,7.0,103.0,1335.77
1335780.0,53.0,47.0,8.0,111.0,1335.78
1335790.0,54.0,46.0,8.0,110.0,1335.79
1335800.0,54.0,46.0,6.0,102.0,1335.8
1335810.0,56.0,45.0,6.0,101.0,1335.81
1335820.0,56.0,47.0,6.0,108.0,1335.82
1335830.0,56.0,44.0,6.0,107.0,1335.83
1335840.0,57.0,45.0,5.0,109.0,1335.84
1335851.0,56.0,45.0,5.0,104.0,1335.851
1335861.0,57.0,43.0,5.0,95.0,1335.861
1335871.0,58.0,45.0,4.0,108.0,1335.871
1335881.0,58.0,44.0,7.0,116.0,1335.881
1335891.0,57.0,46.0,6.0,124.0,1335.891
1335901.0,57.0,44.0,6.0,116.0,1335.901
1335911.0,57.0,44.0,5.0,112.0,1335.911
1335921.0,57.0,44.0,5.0,107.0,1335.921
1335931.0,56.0,43.0,10.0,111.0,1335.931
1335941.0,55.0,43.0,10.0,117.0,1335.941
1335951.0,54.0,41.0,10.0,121.0,1335.951
1335961.0,55.0,41.0,10.0,115.0,1335.961
1335971.0,54.0,39.0,10.0,108.0,1335.971
1335981.0,54.0,39.0,9.0,108.0,1335.981
1335991.0,56.0,39.0,9.0,113.0,1335.991
1336001.0,54.0,38.0,10.0,115.0,1336.001
1336011.0,52.0,38.0,7.0,115.0,1336.011
1336022.0,52.0,37.0,8.0,109.0,1336.022
1336032.0,50.0,38.0,6.0,108.0,1336.032
1336042.0,51.0,36.0,7.0,114.0,1336.042
1336052.0,52.0,35.0,11.0,108.0,1336.052
1336062.0,51.0,35.0,11.0,103.0,1336.062
1336072.0,50.0,35.0,11.0,103.0,1336.072
1336082.0,48.0,34.0,10.0,102.0,1336.082
1336092.0,48.0,33.0,9.0,96.0,1336.092
1336102.0,49.0,35.0,8.0,97.0,1336.102
1336112.0,50.0,35.0,8.0,91.0,1336.112
1336122.0,50.0,34.0,8.0,95.0,1336.122
1336132.0,51.0,34.0,8.0,89.0,1336.132
1336142.0,53.0,35.0,9.0,91.0,1336.142
1336152.0,51.0,36.0,8.0,86.0,1336.152
1336162.0,51.0,35.0,7.0,87.0,1336.162
1336172.0,50.0,36.0,7.0,94.0,1336.172
1336182.0,50.0,34.0,6.0,90.0,1336.182
1336192.0,49.0,35.0,6.0,89.0,1336.192
1336202.0,49.0,35.0,5.0,85.0,1336.202
1336212.0,49.0,35.0,6.0,84.0,1336.212
1336222.0,50.0,36.0,6.0,81.0,1336.222
1336232.0,51.0,35.0,6.0,81.0,1336.232
1336242.0,50.0,35.0,6.0,93.0,1336.242
1336252.0,50.0,34.0,6.0,102.0,1336.252
1336262.0,49.0,33.0,5.0,97.0,1336.262
1336272.0,49.0,34.0,6.0,95.0,1336.272
1336282.0,50.0,33.0,7.0,98.0,1336.282
1336292.0,48.0,33.0,6.0,97.0,1336.292
1336302.0,48.0,33.0,6.0,95.0,1336.302
1336312.0,47.0,34.0,6.0,93.0,1336.312
1336322.0,48.0,33.0,6.0,94.0,1336.322
1336332.0,47.0,32.0,5.0,87.0,1336.332
1336342.0,47.0,33.0,5.0,99.0,1336.342
1336352.0,49.0,35.0,8.0,101.0,1336.352
1336363.0,47.0,34.0,7.0,102.0,1336.363
1336373.0,48.0,35.0,10.0,109.0,1336.373
1336383.0,46.0,35.0,9.0,114.0,1336.383
1336393.0,47.0,36.0,9.0,128.0,1336.393
1336403.0,46.0,35.0,8.0,124.0,1336.403
1336413.0,47.0,35.0,9.0,114.0,1336.413
1336423.0,47.0,35.0,9.0,108.0,1336.423
1336433.0,46.0,37.0,14.0,106.0,1336.433
1336443.0,46.0,36.0,13.0,112.0,1336.443
1336453.0,46.0,37.0,12.0,115.0,1336.453
1336463.0,45.0,37.0,11.0,112.0,1336.463
1336473.0,44.0,38.0,10.0,103.0,1336.473
1336483.0,43.0,39.0,9.0,99.0,1336.483
1336493.0,43.0,39.0,9.0,98.0,1336.493
1336503.0,44.0,39.0,7.0,104.0,1336.503
1336513.0,45.0,39.0,15.0,101.0,1336.513
1336523.0,44.0,38.0,12.0,103.0,1336.523
1336534.0,45.0,37.0,12.0,103.0,1336.534
1336544.0,44.0,37.0,11.0,96.0,1336.544
1336554.0,43.0,36.0,9.0,91.0,1336.554
1336564.0,44.0,35.0,12.0,99.0,1336.564
1336574.0,44.0,37.0,14.0,97.0,1336.574
1336584.0,46.0,37.0,14.0,98.0,1336.584
1336594.0,46.0,36.0,12.0,93.0,1336.594
1336604.0,46.0,35.0,11.0,90.0,1336.604
1336614.0,46.0,35.0,10.0,94.0,1336.614
1336624.0,45.0,34.0,10.0,90.0,1336.624
1336634.0,46.0,33.0,10.0,94.0,1336.634
1336644.0,46.0,33.0,9.0,106.0,1336.644
1336654.0,47.0,33.0,12.0,107.0,1336.654
1336664.0,45.0,33.0,13.0,119.0,1336.664
1336674.0,45.0,34.0,14.0,118.0,1336.674
1336684.0,46.0,33.0,12.0,114.0,1336.684
1336694.0,45.0,34.0,12.0,112.0,1336.694
1336704.0,47.0,34.0,12.0,114.0,1336.704
1336714.0,45.0,33.0,10.0,109.0,1336.714
1336724.0,44.0,33.0,8.0,109.0,1336.724
1336734.0,44.0,33.0,8.0,111.0,1336.734
1336744.0,44.0,32.0,8.0,104.0,1336.744
1336754.0,45.0,32.0,10.0,105.0,1336.754
1336764.0,45.0,33.0,9.0,111.0,1336.764
1336774.0,45.0,32.0,9.0,116.0,1336.774
1336784.0,44.0,31.0,7.0,121.0,1336.784
1336794.0,44.0,32.0,8.0,110.0,1336.794
1336804.0,44.0,33.0,7.0,108.0,1336.804
1336814.0,43.0,32.0,7.0,106.0,1336.814
1336824.0,44.0,32.0,6.0,106.0,1336.824
1336834.0,44.0,32.0,7.0,128.0,1336.834
1336844.0,43.0,32.0,6.0,115.0,1336.844
1336854.0,42.0,33.0,6.0,113.0,1336.854
1336864.0,44.0,33.0,6.0,108.0,1336.864
1336875.0,42.0,33.0,5.0,103.0,1336.875
1336885.0,42.0,33.0,6.0,104.0,1336.885
1336895.0,42.0,32.0,5.0,101.0,1336.895
1336905.0,42.0,35.0,6.0,105.0,1336.905
1336915.0,43.0,35.0,7.0,95.0,1336.915
1336925.0,42.0,37.0,7.0,91.0,1336.925
1336935.0,42.0,38.0,7.0,99.0,1336.935
1336945.0,43.0,39.0,6.0,98.0,1336.945
1336955.0,42.0,38.0,6.0,94.0,1336.955
1336965.0,44.0,38.0,6.0,89.0,1336.965
1336975.0,44.0,39.0,5.0,91.0,1336.975
1336985.0,44.0,37.0,6.0,98.0,1336.985
1336995.0,42.0,37.0,6.0,100.0,1336.995
1337005.0,43.0,36.0,5.0,94.0,1337.005
1337015.0,43.0,38.0,7.0,105.0,1337.015
1337025.0,44.0,37.0,7.0,101.0,1337.025
1337035.0,43.0,36.0,6.0,102.0,1337.035
1337046.0,43.0,37.0,6.0,104.0,1337.046
1337056.0,44.0,38.0,8.0,95.0,1337.056
1337066.0,44.0,40.0,8.0,87.0,1337.066
1337076.0,44.0,39.0,9.0,81.0,1337.076
1337086.0,44.0,40.0,8.0,100.0,1337.086
1337096.0,43.0,38.0,8.0,108.0,1337.096
1337106.0,44.0,40.0,7.0,109.0,1337.106
1337116.0,44.0,39.0,7.0,99.0,1337.116
1337126.0,45.0,40.0,7.0,95.0,1337.126
1337136.0,43.0,41.0,6.0,99.0,1337.136
1337146.0,42.0,42.0,10.0,101.0,1337.146
1337156.0,42.0,44.0,11.0,105.0,1337.156
1337166.0,42.0,43.0,10.0,106.0,1337.166
1337176.0,42.0,43.0,9.0,105.0,1337.176
1337186.0,42.0,43.0,9.0,105.0,1337.186
1337196.0,44.0,41.0,10.0,103.0,1337.196
1337206.0,42.0,42.0,9.0,102.0,1337.206
1337216.0,43.0,40.0,10.0,99.0,1337.216
1337226.0,42.0,40.0,9.0,97.0,1337.226
1337236.0,42.0,41.0,9.0,100.0,1337.236
1337246.0,42.0,40.0,9.0,96.0,1337.246
1337256.0,41.0,42.0,8.0,100.0,1337.256
1337266.0,43.0,42.0,8.0,95.0,1337.266
1337276.0,42.0,42.0,7.0,92.0,1337.276
1337286.0,41.0,44.0,7.0,84.0,1337.286
1337296.0,41.0,45.0,7.0,81.0,1337.296
1337306.0,42.0,45.0,6.0,80.0,1337.306
1337316.0,42.0,46.0,9.0,84.0,1337.316
1337326.0,41.0,47.0,8.0,85.0,1337.326
1337336.0,42.0,47.0,9.0,85.0,1337.336
1337346.0,41.0,47.0,7.0,97.0,1337.346
1337356.0,43.0,47.0,7.0,91.0,1337.356
1337366.0,44.0,47.0,7.0,94.0,1337.366
1337376.0,45.0,48.0,7.0,91.0,1337.376
1337387.0,44.0,48.0,6.0,84.0,1337.387
1337397.0,44.0,49.0,6.0,96.0,1337.397
1337407.0,45.0,48.0,7.0,99.0,1337.407
1337417.0,45.0,45.0,6.0,103.0,1337.417
1337427.0,44.0,46.0,6.0,102.0,1337.427
1337437.0,44.0,46.0,6.0,100.0,1337.437
1337447.0,43.0,47.0,6.0,100.0,1337.447
1337457.0,44.0,47.0,6.0,101.0,1337.457
1337467.0,45.0,47.0,5.0,97.0,1337.467
1337477.0,46.0,48.0,7.0,98.0,1337.477
1337487.0,46.0,49.0,8.0,95.0,1337.487
1337497.0,45.0,50.0,7.0,97.0,1337.497
1337507.0,44.0,52.0,11.0,109.0,1337.507
1337517.0,45.0,51.0,10.0,106.0,1337.517
1337527.0,46.0,51.0,10.0,114.0,1337.527
1337537.0,45.0,53.0,8.0,111.0,1337.537
1337547.0,45.0,53.0,9.0,105.0,1337.547
1337558.0,44.0,55.0,7.0,112.0,1337.558
1337568.0,44.0,55.0,10.0,107.0,1337.568
1337578.0,45.0,54.0,11.0,100.0,1337.578
1337588.0,43.0,51.0,10.0,111.0,1337.588
1337598.0,44.0,48.0,9.0,106.0,1337.598
1337608.0,43.0,47.0,9.0,102.0,1337.608
1337618.0,44.0,46.0,8.0,102.0,1337.618
1337628.0,43.0,45.0,6.0,113.0,1337.628
1337638.0,44.0,44.0,8.0,115.0,1337.638
1337648.0,43.0,43.0,6.0,108.0,1337.648
1337658.0,43.0,44.0,7.0,107.0,1337.658
1337668.0,42.0,43.0,7.0,109.0,1337.668
1337678.0,43.0,43.0,7.0,111.0,1337.678
1337688.0,43.0,41.0,8.0,117.0,1337.688
1337698.0,41.0,41.0,5.0,111.0,1337.698
1337708.0,41.0,41.0,6.0,105.0,1337.708
1337718.0,41.0,41.0,8.0,103.0,1337.718
1337728.0,40.0,41.0,7.0,99.0,1337.728
1337738.0,43.0,39.0,8.0,113.0,1337.738
1337748.0,45.0,39.0,8.0,121.0,1337.748
1337758.0,47.0,38.0,8.0,116.0,1337.758
1337768.0,47.0,38.0,8.0,108.0,1337.768
1337778.0,47.0,40.0,7.0,107.0,1337.778
1337788.0,47.0,40.0,7.0,107.0,1337.788
1337798.0,46.0,41.0,6.0,102.0,1337.798
1337808.0,46.0,41.0,6.0,104.0,1337.808
1337818.0,45.0,44.0,6.0,101.0,1337.818
1337828.0,45.0,43.0,8.0,102.0,1337.828
1337838.0,44.0,45.0,7.0,98.0,1337.838
1337848.0,46.0,43.0,7.0,101.0,1337.848
1337858.0,46.0,43.0,6.0,99.0,1337.858
1337868.0,45.0,43.0,7.0,103.0,1337.868
1337878.0,44.0,41.0,6.0,101.0,1337.878
1337888.0,44.0,43.0,5.0,99.0,1337.888
1337899.0,44.0,43.0,6.0,99.0,1337.899
1337909.0,44.0,45.0,6.0,90.0,1337.909
1337919.0,44.0,44.0,6.0,99.0,1337.919
1337929.0,45.0,45.0,5.0,98.0,1337.929
1337939.0,45.0,44.0,5.0,96.0,1337.939
1337949.0,44.0,45.0,6.0,102.0,1337.949
1337959.0,45.0,45.0,5.0,101.0,1337.959
1337969.0,45.0,44.0,7.0,97.0,1337.969
1337979.0,44.0,44.0,6.0,95.0,1337.979
1337989.0,44.0,44.0,7.0,99.0,1337.989
1337999.0,44.0,44.0,6.0,99.0,1337.999
1338009.0,43.0,45.0,6.0,97.0,1338.009
1338019.0,42.0,44.0,6.0,106.0,1338.019
1338029.0,43.0,44.0,5.0,113.0,1338.029
1338039.0,44.0,43.0,8.0,104.0,1338.039
1338049.0,44.0,45.0,8.0,100.0,1338.049
1338059.0,44.0,45.0,7.0,117.0,1338.059
1338070.0,45.0,46.0,7.0,115.0,1338.07
1338080.0,45.0,48.0,8.0,116.0,1338.08
1338090.0,46.0,45.0,7.0,121.0,1338.09
1338100.0,45.0,46.0,6.0,112.0,1338.1
1338110.0,47.0,47.0,6.0,104.0,1338.11
1338120.0,45.0,48.0,6.0,100.0,1338.12
1338130.0,44.0,49.0,6.0,105.0,1338.13
1338140.0,44.0,49.0,6.0,106.0,1338.14
1338150.0,44.0,50.0,12.0,101.0,1338.15
1338160.0,46.0,48.0,12.0,102.0,1338.16
1338170.0,46.0,47.0,9.0,97.0,1338.17
1338180.0,47.0,48.0,12.0,105.0,1338.18
1338190.0,45.0,47.0,10.0,107.0,1338.19
1338200.0,45.0,47.0,9.0,108.0,1338.2
1338210.0,44.0,48.0,8.0,97.0,1338.21
1338220.0,43.0,48.0,8.0,97.0,1338.22
1338230.0,44.0,48.0,8.0,94.0,1338.23
1338240.0,43.0,51.0,11.0,102.0,1338.24
1338250.0,43.0,48.0,11.0,96.0,1338.25
1338260.0,45.0,55.0,10.0,94.0,1338.26
1338270.0,49.0,96.0,18.0,93.0,1338.27
1338280.0,55.0,96.0,17.0,86.0,1338.28
1338290.0,59.0,153.0,31.0,98.0,1338.29
1338300.0,73.0,160.0,32.0,96.0,1338.3
1338310.0,88.0,170.0,33.0,102.0,1338.31
1338320.0,93.0,172.0,36.0,110.0,1338.32
1338330.0,99.0,171.0,34.0,109.0,1338.33
1338340.0,91.0,169.0,38.0,111.0,1338.34
1338350.0,89.0,169.0,41.0,110.0,1338.35
1338360.0,86.0,167.0,35.0,101.0,1338.36
1338370.0,82.0,152.0,31.0,91.0,1338.37
1338380.0,79.0,142.0,28.0,86.0,1338.38
1338390.0,75.0,135.0,28.0,81.0,1338.39
1338400.0,72.0,130.0,28.0,78.0,1338.4
1338411.0,70.0,131.0,36.0,77.0,1338.411
1338421.0,75.0,132.0,43.0,77.0,1338.421
1338431.0,81.0,129.0,37.0,73.0,1338.431
1338441.0,85.0,118.0,33.0,68.0,1338.441
1338451.0,85.0,107.0,28.0,63.0,1338.451
1338461.0,102.0,105.0,26.0,61.0,1338.461
1338471.0,100.0,98.0,22.0,60.0,1338.471
1338481.0,96.0,101.0,26.0,57.0,1338.481
1338491.0,97.0,96.0,26.0,55.0,1338.491
1338501.0,93.0,99.0,23.0,52.0,1338.501
1338511.0,97.0,93.0,21.0,50.0,1338.511
1338521.0,101.0,102.0,23.0,49.0,1338.521
1338531.0,101.0,107.0,22.0,49.0,1338.531
1338541.0,103.0,101.0,22.0,48.0,1338.541
1338551.0,128.0,106.0,23.0,46.0,1338.551
1338561.0,140.0,124.0,29.0,55.0,1338.561
1338571.0,143.0,131.0,25.0,62.0,1338.571
1338582.0,140.0,126.0,22.0,59.0,1338.582
1338592.0,135.0,122.0,20.0,58.0,1338.592
1338602.0,125.0,125.0,20.0,55.0,1338.602
1338612.0,120.0,130.0,17.0,51.0,1338.612
1338622.0,111.0,138.0,15.0,48.0,1338.622
1338632.0,124.0,152.0,18.0,46.0,1338.632
1338642.0,120.0,151.0,17.0,48.0,1338.642
1338652.0,119.0,156.0,16.0,46.0,1338.652
1338662.0,132.0,159.0,19.0,50.0,1338.662
1338672.0,123.0,160.0,18.0,50.0,1338.672
1338682.0,112.0,161.0,16.0,48.0,1338.682
1338692.0,102.0,162.0,16.0,44.0,1338.692
1338702.0,96.0,164.0,18.0,41.0,1338.702
1338712.0,91.0,161.0,19.0,40.0,1338.712
1338722.0,87.0,159.0,21.0,39.0,1338.722
1338732.0,87.0,160.0,22.0,38.0,1338.732
1338742.0,85.0,159.0,23.0,37.0,1338.742
1338752.0,91.0,158.0,21.0,37.0,1338.752
1338762.0,96.0,156.0,22.0,37.0,1338.762
1338772.0,90.0,151.0,20.0,35.0,1338.772
1338782.0,86.0,148.0,19.0,34.0,1338.782
1338792.0,81.0,147.0,19.0,32.0,1338.792
1338802.0,80.0,144.0,18.0,34.0,1338.802
1338812.0,78.0,140.0,18.0,35.0,1338.812
1338822.0,76.0,137.0,19.0,37.0,1338.822
1338832.0,76.0,133.0,18.0,38.0,1338.832
1338842.0,76.0,129.0,18.0,36.0,1338.842
1338852.0,74.0,128.0,16.0,34.0,1338.852
1338862.0,71.0,124.0,16.0,32.0,1338.862
1338872.0,71.0,122.0,15.0,33.0,1338.872
1338882.0,68.0,118.0,14.0,32.0,1338.882
1338892.0,68.0,115.0,12.0,31.0,1338.892
1338902.0,63.0,114.0,12.0,31.0,1338.902
1338912.0,65.0,117.0,12.0,32.0,1338.912
1338923.0,63.0,111.0,11.0,33.0,1338.923
1338933.0,63.0,106.0,10.0,31.0,1338.933
1338943.0,66.0,105.0,9.0,32.0,1338.943
1338953.0,65.0,102.0,9.0,30.0,1338.953
1338963.0,62.0,99.0,8.0,31.0,1338.963
1338973.0,60.0,99.0,8.0,30.0,1338.973
1338983.0,57.0,97.0,7.0,29.0,1338.983
1338993.0,59.0,100.0,7.0,31.0,1338.993
1339003.0,58.0,98.0,6.0,30.0,1339.003
1339013.0,57.0,99.0,6.0,33.0,1339.013
1339023.0,57.0,97.0,7.0,31.0,1339.023
1339033.0,56.0,98.0,5.0,32.0,1339.033
1339043.0,56.0,101.0,4.0,33.0,1339.043
1339053.0,57.0,100.0,5.0,33.0,1339.053
1339063.0,56.0,99.0,4.0,33.0,1339.063
1339073.0,57.0,99.0,5.0,33.0,1339.073
1339083.0,57.0,98.0,4.0,32.0,1339.083
1339094.0,57.0,99.0,5.0,32.0,1339.094
1339104.0,57.0,103.0,5.0,38.0,1339.104
1339114.0,65.0,114.0,16.0,60.0,1339.114
1339124.0,76.0,125.0,45.0,99.0,1339.124
1339134.0,88.0,135.0,71.0,147.0,1339.134
1339144.0,89.0,143.0,93.0,159.0,1339.144
1339154.0,95.0,136.0,93.0,189.0,1339.154
1339164.0,95.0,125.0,108.0,230.0,1339.164
1339174.0,94.0,126.0,130.0,256.0,1339.174
1339184.0,92.0,117.0,135.0,281.0,1339.184
1339194.0,90.0,125.0,203.0,363.0,1339.194
1339204.0,99.0,125.0,218.0,397.0,1339.204
1339214.0,97.0,116.0,205.0,401.0,1339.214
1339224.0,95.0,115.0,227.0,369.0,1339.224
1339234.0,104.0,113.0,263.0,396.0,1339.234
1339244.0,102.0,107.0,265.0,429.0,1339.244
1339254.0,109.0,112.0,272.0,454.0,1339.254
1339264.0,113.0,110.0,279.0,481.0,1339.264
1339274.0,109.0,107.0,260.0,536.0,1339.274
1339284.0,107.0,102.0,238.0,539.0,1339.284
1339294.0,103.0,96.0,212.0,514.0,1339.294
1339304.0,101.0,94.0,228.0,519.0,1339.304
1339314.0,99.0,93.0,246.0,512.0,1339.314
1339324.0,98.0,92.0,224.0,464.0,1339.324
1339334.0,93.0,87.0,208.0,457.0,1339.334
1339344.0,91.0,88.0,210.0,463.0,1339.344
1339354.0,88.0,85.0,193.0,453.0,1339.354
1339364.0,86.0,83.0,205.0,470.0,1339.364
1339374.0,83.0,82.0,196.0,478.0,1339.374
1339384.0,81.0,83.0,186.0,441.0,1339.384
1339394.0,78.0,81.0,169.0,425.0,1339.394
1339404.0,76.0,79.0,160.0,410.0,1339.404
1339414.0,71.0,76.0,142.0,393.0,1339.414
1339424.0,69.0,75.0,125.0,365.0,1339.424
1339435.0,67.0,73.0,113.0,349.0,1339.435
1339445.0,65.0,71.0,109.0,361.0,1339.445
1339455.0,63.0,69.0,106.0,344.0,1339.455
1339465.0,60.0,66.0,111.0,333.0,1339.465
1339475.0,59.0,64.0,102.0,321.0,1339.475
1339485.0,59.0,64.0,93.0,331.0,1339.485
1339495.0,59.0,60.0,87.0,304.0,1339.495
1339505.0,59.0,58.0,77.0,284.0,1339.505
1339515.0,59.0,56.0,71.0,265.0,1339.515
1339525.0,59.0,57.0,68.0,257.0,1339.525
1339535.0,59.0,53.0,61.0,265.0,1339.535
1339545.0,58.0,53.0,57.0,269.0,1339.545
1339555.0,60.0,54.0,61.0,272.0,1339.555
1339565.0,62.0,54.0,81.0,260.0,1339.565
1339575.0,61.0,55.0,73.0,249.0,1339.575
1339585.0,63.0,54.0,68.0,232.0,1339.585
1339595.0,67.0,53.0,65.0,243.0,1339.595
1339606.0,63.0,55.0,62.0,252.0,1339.606
1339616.0,63.0,57.0,58.0,252.0,1339.616
1339626.0,65.0,55.0,53.0,251.0,1339.626
1339636.0,64.0,55.0,48.0,234.0,1339.636
1339646.0,64.0,54.0,49.0,218.0,1339.646
1339656.0,65.0,53.0,48.0,212.0,1339.656
1339666.0,66.0,51.0,46.0,205.0,1339.666
1339676.0,64.0,50.0,56.0,203.0,1339.676
1339686.0,62.0,49.0,56.0,201.0,1339.686
1339696.0,63.0,50.0,53.0,195.0,1339.696
1339706.0,63.0,46.0,50.0,183.0,1339.706
1339716.0,63.0,45.0,45.0,186.0,1339.716
1339726.0,65.0,44.0,42.0,196.0,1339.726
1339736.0,67.0,43.0,44.0,191.0,1339.736
1339746.0,66.0,43.0,38.0,178.0,1339.746
1339756.0,66.0,42.0,38.0,168.0,1339.756
1339766.0,66.0,43.0,35.0,172.0,1339.766
1339776.0,66.0,44.0,35.0,190.0,1339.776
1339786.0,67.0,44.0,32.0,177.0,1339.786
1339796.0,69.0,45.0,57.0,178.0,1339.796
1339806.0,71.0,48.0,55.0,189.0,1339.806
1339816.0,70.0,49.0,52.0,178.0,1339.816
1339826.0,70.0,49.0,47.0,179.0,1339.826
1339836.0,69.0,51.0,44.0,179.0,1339.836
1339846.0,67.0,49.0,39.0,164.0,1339.846
1339856.0,69.0,48.0,37.0,158.0,1339.856
1339866.0,68.0,48.0,33.0,159.0,1339.866
1339876.0,69.0,48.0,36.0,189.0,1339.876
1339886.0,66.0,49.0,30.0,184.0,1339.886
1339896.0,65.0,49.0,30.0,175.0,1339.896
1339906.0,68.0,49.0,29.0,173.0,1339.906
1339916.0,67.0,46.0,26.0,160.0,1339.916
1339926.0,68.0,46.0,33.0,154.0,1339.926
1339936.0,65.0,47.0,31.0,186.0,1339.936
1339947.0,65.0,47.0,31.0,182.0,1339.947
1339957.0,64.0,45.0,26.0,171.0,1339.957
1339967.0,66.0,44.0,27.0,164.0,1339.967
1339977.0,68.0,44.0,25.0,156.0,1339.977
1339987.0,69.0,43.0,25.0,161.0,1339.987
1339997.0,69.0,43.0,27.0,158.0,1339.997
1340007.0,70.0,41.0,25.0,153.0,1340.007
1340017.0,71.0,41.0,23.0,155.0,1340.017
1340027.0,68.0,41.0,22.0,151.0,1340.027
1340037.0,70.0,39.0,20.0,142.0,1340.037
1340047.0,72.0,39.0,17.0,147.0,1340.047
1340057.0,73.0,39.0,16.0,150.0,1340.057
1340067.0,73.0,38.0,15.0,154.0,1340.067
1340077.0,73.0,38.0,13.0,156.0,1340.077
1340087.0,74.0,37.0,13.0,150.0,1340.087
1340097.0,73.0,37.0,12.0,144.0,1340.097
1340107.0,74.0,37.0,12.0,133.0,1340.107
1340118.0,73.0,37.0,12.0,142.0,1340.118
1340128.0,70.0,36.0,10.0,147.0,1340.128
1340138.0,68.0,35.0,10.0,150.0,1340.138
1340148.0,67.0,35.0,9.0,145.0,1340.148
1340158.0,67.0,35.0,10.0,150.0,1340.158
1340168.0,66.0,36.0,7.0,141.0,1340.168
1340178.0,65.0,35.0,8.0,143.0,1340.178
1340188.0,65.0,35.0,7.0,142.0,1340.188
1340198.0,65.0,36.0,10.0,135.0,1340.198
1340208.0,63.0,36.0,10.0,138.0,1340.208
1340218.0,63.0,37.0,13.0,137.0,1340.218
1340228.0,63.0,36.0,12.0,141.0,1340.228
1340238.0,62.0,38.0,16.0,166.0,1340.238
1340248.0,60.0,38.0,16.0,171.0,1340.248
1340258.0,59.0,38.0,14.0,174.0,1340.258
1340268.0,62.0,42.0,22.0,242.0,1340.268
1340278.0,61.0,42.0,26.0,263.0,1340.278
1340288.0,60.0,41.0,25.0,273.0,1340.288
1340298.0,59.0,41.0,32.0,268.0,1340.298
1340308.0,58.0,40.0,28.0,263.0,1340.308
1340318.0,58.0,39.0,28.0,256.0,1340.318
1340328.0,59.0,39.0,26.0,280.0,1340.328
1340338.0,59.0,40.0,26.0,289.0,1340.338
1340348.0,59.0,39.0,24.0,275.0,1340.348
1340358.0,59.0,39.0,22.0,262.0,1340.358
1340368.0,59.0,39.0,22.0,243.0,1340.368
1340378.0,60.0,40.0,20.0,239.0,1340.378
1340388.0,61.0,39.0,21.0,245.0,1340.388
1340398.0,60.0,38.0,21.0,229.0,1340.398
1340408.0,62.0,39.0,19.0,223.0,1340.408
1340418.0,62.0,38.0,17.0,224.0,1340.418
1340428.0,62.0,40.0,15.0,218.0,1340.428
1340438.0,64.0,41.0,15.0,204.0,1340.438
1340448.0,64.0,41.0,12.0,192.0,1340.448
1340459.0,65.0,40.0,12.0,187.0,1340.459
1340469.0,65.0,40.0,11.0,180.0,1340.469
1340479.0,65.0,41.0,10.0,187.0,1340.479
1340489.0,66.0,42.0,9.0,176.0,1340.489
1340499.0,63.0,41.0,8.0,166.0,1340.499
1340509.0,63.0,40.0,9.0,159.0,1340.509
1340519.0,61.0,38.0,7.0,145.0,1340.519
1340529.0,62.0,39.0,8.0,148.0,1340.529
1340539.0,61.0,39.0,9.0,143.0,1340.539
1340549.0,59.0,39.0,9.0,141.0,1340.549
1340559.0,59.0,39.0,9.0,132.0,1340.559
1340569.0,60.0,42.0,8.0,125.0,1340.569
1340579.0,61.0,42.0,9.0,130.0,1340.579
1340589.0,60.0,42.0,9.0,131.0,1340.589
1340599.0,60.0,42.0,8.0,141.0,1340.599
1340609.0,62.0,43.0,8.0,134.0,1340.609
1340619.0,62.0,41.0,8.0,136.0,1340.619
1340630.0,62.0,39.0,8.0,140.0,1340.63
1340640.0,63.0,39.0,7.0,147.0,1340.64
1340650.0,64.0,39.0,8.0,144.0,1340.65
1340660.0,66.0,40.0,10.0,144.0,1340.66
1340670.0,66.0,39.0,13.0,139.0,1340.67
1340680.0,66.0,38.0,12.0,136.0,1340.68
1340690.0,67.0,38.0,12.0,170.0,1340.69
1340700.0,66.0,38.0,13.0,163.0,1340.7
1340710.0,66.0,37.0,12.0,159.0,1340.71
1340720.0,66.0,37.0,13.0,154.0,1340.72
1340730.0,64.0,36.0,12.0,159.0,1340.73
1340740.0,63.0,37.0,11.0,149.0,1340.74
1340750.0,61.0,36.0,9.0,146.0,1340.75
1340760.0,61.0,37.0,9.0,140.0,1340.76
1340770.0,62.0,36.0,11.0,158.0,1340.77
1340780.0,59.0,37.0,9.0,164.0,1340.78
1340790.0,60.0,37.0,10.0,163.0,1340.79
1340800.0,59.0,37.0,8.0,153.0,1340.8
1340810.0,58.0,36.0,10.0,153.0,1340.81
1340820.0,59.0,37.0,10.0,179.0,1340.82
1340830.0,56.0,36.0,9.0,178.0,1340.83
1340840.0,57.0,35.0,9.0,172.0,1340.84
1340850.0,57.0,36.0,9.0,164.0,1340.85
1340860.0,59.0,35.0,11.0,151.0,1340.86
1340870.0,56.0,35.0,10.0,143.0,1340.87
1340880.0,55.0,35.0,10.0,141.0,1340.88
1340890.0,54.0,35.0,9.0,141.0,1340.89
1340900.0,53.0,37.0,13.0,149.0,1340.9
1340910.0,53.0,37.0,14.0,151.0,1340.91
1340920.0,52.0,37.0,13.0,159.0,1340.92
1340930.0,52.0,37.0,14.0,159.0,1340.93
1340940.0,52.0,38.0,14.0,172.0,1340.94
1340950.0,50.0,37.0,16.0,172.0,1340.95
1340960.0,51.0,37.0,16.0,171.0,1340.96
1340971.0,52.0,39.0,25.0,176.0,1340.971
1340981.0,51.0,38.0,22.0,182.0,1340.981
1340991.0,51.0,38.0,19.0,166.0,1340.991
1341001.0,53.0,39.0,21.0,166.0,1341.001
1341011.0,54.0,39.0,18.0,155.0,1341.011
1341021.0,54.0,40.0,16.0,153.0,1341.021
1341031.0,55.0,39.0,14.0,142.0,1341.031
1341041.0,57.0,42.0,15.0,140.0,1341.041
1341051.0,56.0,40.0,14.0,127.0,1341.051
1341061.0,57.0,41.0,12.0,127.0,1341.061
1341071.0,59.0,41.0,13.0,122.0,1341.071
1341081.0,58.0,39.0,11.0,116.0,1341.081
1341091.0,57.0,38.0,12.0,116.0,1341.091
1341101.0,57.0,37.0,12.0,117.0,1341.101
1341111.0,55.0,38.0,10.0,114.0,1341.111
1341121.0,56.0,38.0,10.0,116.0,1341.121
1341131.0,55.0,38.0,10.0,116.0,1341.131
1341142.0,56.0,38.0,15.0,112.0,1341.142
1341152.0,55.0,38.0,12.0,108.0,1341.152
1341162.0,54.0,40.0,11.0,110.0,1341.162
1341172.0,55.0,40.0,10.0,100.0,1341.172
1341182.0,54.0,41.0,11.0,105.0,1341.182
1341192.0,55.0,39.0,10.0,103.0,1341.192
1341202.0,54.0,39.0,9.0,111.0,1341.202
1341212.0,55.0,39.0,9.0,105.0,1341.212
1341222.0,54.0,38.0,7.0,109.0,1341.222
1341232.0,54.0,39.0,8.0,104.0,1341.232
1341242.0,54.0,37.0,8.0,108.0,1341.242
1341252.0,53.0,39.0,8.0,101.0,1341.252
1341262.0,52.0,38.0,7.0,96.0,1341.262
1341272.0,51.0,39.0,7.0,94.0,1341.272
1341282.0,51.0,38.0,7.0,98.0,1341.282
1341292.0,50.0,37.0,6.0,97.0,1341.292
1341302.0,50.0,37.0,6.0,100.0,1341.302
1341312.0,51.0,37.0,7.0,101.0,1341.312
1341322.0,50.0,39.0,7.0,99.0,1341.322
1341332.0,50.0,39.0,7.0,98.0,1341.332
1341342.0,50.0,39.0,6.0,99.0,1341.342
1341352.0,51.0,39.0,8.0,94.0,1341.352
1341362.0,51.0,39.0,7.0,103.0,1341.362
1341372.0,52.0,39.0,6.0,97.0,1341.372
1341382.0,53.0,40.0,6.0,103.0,1341.382
1341392.0,53.0,40.0,5.0,99.0,1341.392
1341402.0,53.0,41.0,6.0,99.0,1341.402
1341412.0,53.0,42.0,5.0,98.0,1341.412
1341422.0,54.0,43.0,6.0,101.0,1341.422
1341432.0,54.0,43.0,6.0,104.0,1341.432
1341442.0,52.0,41.0,5.0,100.0,1341.442
1341452.0,54.0,41.0,6.0,105.0,1341.452
1341462.0,51.0,42.0,6.0,101.0,1341.462
1341472.0,53.0,40.0,5.0,94.0,1341.472
1341483.0,53.0,40.0,8.0,101.0,1341.483
1341493.0,52.0,39.0,8.0,103.0,1341.493
1341503.0,52.0,38.0,8.0,107.0,1341.503
1341513.0,52.0,39.0,7.0,112.0,1341.513
1341523.0,51.0,37.0,8.0,107.0,1341.523
1341533.0,51.0,39.0,8.0,115.0,1341.533
1341543.0,49.0,38.0,8.0,112.0,1341.543
1341553.0,49.0,37.0,8.0,111.0,1341.553
