time (ms),signal 0,signal 1,signal 2,signal3,time (sec)
5586.0,46.0,42.0,19.0,73.0,5.586
5596.0,45.0,42.0,16.0,70.0,5.596
5606.0,45.0,42.0,14.0,68.0,5.606
5616.0,45.0,43.0,13.0,65.0,5.616
5626.0,45.0,43.0,13.0,64.0,5.626
5636.0,46.0,45.0,14.0,70.0,5.636
5646.0,46.0,45.0,22.0,77.0,5.646
5656.0,47.0,47.0,22.0,81.0,5.656
5666.0,47.0,49.0,19.0,78.0,5.666
5676.0,47.0,47.0,17.0,75.0,5.676
5686.0,47.0,47.0,17.0,75.0,5.686
5696.0,48.0,46.0,22.0,74.0,5.696
5706.0,48.0,45.0,30.0,72.0,5.706
5716.0,50.0,47.0,29.0,69.0,5.716
5726.0,50.0,45.0,26.0,70.0,5.726
5736.0,50.0,45.0,26.0,73.0,5.736
5746.0,50.0,42.0,23.0,80.0,5.746
5756.0,52.0,44.0,24.0,74.0,5.756
5766.0,51.0,42.0,31.0,72.0,5.766
5776.0,53.0,44.0,36.0,74.0,5.776
5786.0,54.0,47.0,36.0,69.0,5.786
5796.0,55.0,47.0,32.0,71.0,5.796
5806.0,55.0,48.0,28.0,69.0,5.806
5816.0,55.0,49.0,24.0,64.0,5.816
5826.0,55.0,49.0,21.0,64.0,5.826
5836.0,55.0,49.0,20.0,67.0,5.836
5846.0,53.0,48.0,17.0,67.0,5.846
5856.0,54.0,50.0,17.0,66.0,5.856
5866.0,53.0,50.0,18.0,61.0,5.866
5876.0,55.0,50.0,16.0,58.0,5.876
5886.0,55.0,48.0,27.0,59.0,5.886
5896.0,55.0,49.0,25.0,61.0,5.896
5906.0,56.0,49.0,24.0,64.0,5.906
5916.0,56.0,51.0,22.0,65.0,5.916
5926.0,56.0,51.0,18.0,61.0,5.926
5936.0,57.0,50.0,17.0,57.0,5.936
5946.0,55.0,51.0,29.0,57.0,5.946
5956.0,54.0,50.0,26.0,55.0,5.956
5966.0,53.0,50.0,23.0,60.0,5.966
5976.0,54.0,48.0,21.0,62.0,5.976
5986.0,55.0,50.0,26.0,63.0,5.986
5996.0,54.0,49.0,23.0,66.0,5.996
6006.0,54.0,49.0,22.0,71.0,6.006
6016.0,54.0,49.0,23.0,68.0,6.016
6026.0,56.0,50.0,23.0,62.0,6.026
6036.0,56.0,49.0,21.0,60.0,6.036
6046.0,55.0,48.0,21.0,62.0,6.046
6056.0,56.0,48.0,22.0,70.0,6.056
6066.0,55.0,48.0,20.0,72.0,6.066
6076.0,56.0,49.0,18.0,70.0,6.076
6086.0,55.0,50.0,21.0,70.0,6.086
6096.0,57.0,50.0,21.0,66.0,6.096
6106.0,57.0,52.0,19.0,72.0,6.106
6116.0,57.0,49.0,18.0,73.0,6.116
6126.0,58.0,49.0,16.0,69.0,6.126
6136.0,58.0,49.0,15.0,70.0,6.136
6146.0,61.0,49.0,16.0,78.0,6.146
6156.0,60.0,51.0,16.0,77.0,6.156
6166.0,60.0,50.0,15.0,82.0,6.166
6176.0,59.0,51.0,21.0,78.0,6.176
6187.0,61.0,52.0,25.0,77.0,6.187
6197.0,62.0,53.0,29.0,77.0,6.197
6207.0,62.0,53.0,26.0,72.0,6.207
6217.0,61.0,52.0,26.0,68.0,6.217
6227.0,61.0,53.0,26.0,68.0,6.227
6237.0,60.0,53.0,25.0,69.0,6.237
6247.0,59.0,52.0,28.0,79.0,6.247
6257.0,61.0,54.0,32.0,81.0,6.257
6267.0,61.0,54.0,30.0,81.0,6.267
6277.0,61.0,54.0,29.0,80.0,6.277
6287.0,61.0,53.0,29.0,77.0,6.287
6297.0,62.0,55.0,26.0,84.0,6.297
6307.0,61.0,54.0,35.0,76.0,6.307
6317.0,62.0,56.0,31.0,79.0,6.317
6327.0,61.0,55.0,29.0,79.0,6.327
6337.0,62.0,55.0,26.0,83.0,6.337
6347.0,62.0,55.0,23.0,77.0,6.347
6358.0,63.0,54.0,28.0,79.0,6.358
6368.0,65.0,56.0,37.0,80.0,6.368
6378.0,66.0,54.0,34.0,76.0,6.378
6388.0,65.0,54.0,30.0,74.0,6.388
6398.0,66.0,53.0,27.0,80.0,6.398
6408.0,66.0,52.0,24.0,78.0,6.408
6418.0,66.0,51.0,22.0,88.0,6.418
6428.0,64.0,48.0,26.0,87.0,6.428
6438.0,64.0,50.0,31.0,83.0,6.438
6448.0,65.0,49.0,29.0,83.0,6.448
6458.0,65.0,50.0,29.0,79.0,6.458
6468.0,65.0,50.0,28.0,86.0,6.468
6478.0,65.0,50.0,28.0,92.0,6.478
6488.0,65.0,50.0,24.0,88.0,6.488
6498.0,63.0,49.0,23.0,81.0,6.498
6508.0,64.0,50.0,31.0,86.0,6.508
6518.0,65.0,48.0,27.0,82.0,6.518
6528.0,65.0,49.0,25.0,80.0,6.528
6538.0,67.0,49.0,26.0,89.0,6.538
6548.0,67.0,48.0,24.0,91.0,6.548
6558.0,66.0,48.0,22.0,88.0,6.558
6568.0,68.0,47.0,21.0,81.0,6.568
6578.0,67.0,48.0,24.0,79.0,6.578
6588.0,70.0,50.0,31.0,78.0,6.588
6598.0,70.0,49.0,29.0,76.0,6.598
6608.0,70.0,48.0,28.0,74.0,6.608
6618.0,70.0,48.0,25.0,72.0,6.618
6628.0,70.0,48.0,23.0,67.0,6.628
6638.0,69.0,49.0,30.0,65.0,6.638
6648.0,69.0,50.0,30.0,78.0,6.648
6658.0,70.0,52.0,29.0,77.0,6.658
6668.0,69.0,51.0,25.0,83.0,6.668
6678.0,69.0,50.0,23.0,81.0,6.678
6688.0,70.0,48.0,20.0,78.0,6.688
6699.0,69.0,47.0,18.0,74.0,6.699
6709.0,69.0,45.0,19.0,71.0,6.709
6719.0,69.0,46.0,23.0,75.0,6.719
6729.0,70.0,45.0,23.0,72.0,6.729
6739.0,71.0,47.0,20.0,76.0,6.739
6749.0,72.0,47.0,19.0,73.0,6.749
6759.0,72.0,47.0,17.0,70.0,6.759
6769.0,70.0,48.0,15.0,71.0,6.769
6779.0,70.0,47.0,15.0,69.0,6.779
6789.0,70.0,47.0,14.0,69.0,6.789
6799.0,69.0,48.0,15.0,80.0,6.799
6809.0,71.0,50.0,22.0,81.0,6.809
6819.0,70.0,49.0,31.0,80.0,6.819
6829.0,71.0,48.0,27.0,81.0,6.829
6839.0,70.0,48.0,28.0,77.0,6.839
6849.0,69.0,47.0,33.0,84.0,6.849
6859.0,71.0,49.0,34.0,90.0,6.859
6870.0,70.0,48.0,30.0,84.0,6.87
6880.0,70.0,50.0,27.0,79.0,6.88
6890.0,69.0,49.0,25.0,73.0,6.89
6900.0,70.0,49.0,23.0,73.0,6.9
6910.0,66.0,48.0,32.0,80.0,6.91
6920.0,67.0,46.0,33.0,78.0,6.92
6930.0,65.0,47.0,35.0,81.0,6.93
6940.0,66.0,46.0,34.0,78.0,6.94
6950.0,67.0,44.0,32.0,74.0,6.95
6960.0,67.0,43.0,31.0,71.0,6.96
6970.0,71.0,42.0,30.0,72.0,6.97
6980.0,68.0,41.0,32.0,77.0,6.98
6990.0,70.0,41.0,33.0,73.0,6.99
7000.0,70.0,42.0,40.0,75.0,7.0
7010.0,70.0,42.0,40.0,70.0,7.01
7020.0,70.0,41.0,35.0,71.0,7.02
7030.0,69.0,39.0,32.0,70.0,7.03
7040.0,70.0,38.0,29.0,65.0,7.04
7050.0,68.0,39.0,34.0,70.0,7.05
7060.0,70.0,40.0,36.0,72.0,7.06
7070.0,70.0,41.0,31.0,72.0,7.07
7080.0,70.0,39.0,28.0,66.0,7.08
7090.0,69.0,40.0,29.0,69.0,7.09
7100.0,69.0,38.0,26.0,71.0,7.1
7110.0,69.0,38.0,23.0,72.0,7.11
7120.0,68.0,38.0,22.0,71.0,7.12
7130.0,69.0,38.0,25.0,71.0,7.13
7140.0,67.0,40.0,32.0,70.0,7.14
7150.0,64.0,39.0,36.0,74.0,7.15
7160.0,64.0,38.0,38.0,76.0,7.16
7170.0,64.0,38.0,34.0,74.0,7.17
7180.0,65.0,37.0,32.0,86.0,7.18
7190.0,63.0,37.0,28.0,86.0,7.19
7200.0,63.0,36.0,27.0,85.0,7.2
7211.0,63.0,38.0,31.0,81.0,7.211
7221.0,64.0,38.0,31.0,80.0,7.221
7231.0,64.0,38.0,29.0,81.0,7.231
7241.0,61.0,38.0,25.0,75.0,7.241
7251.0,64.0,39.0,24.0,74.0,7.251
7261.0,63.0,39.0,21.0,77.0,7.261
7271.0,64.0,40.0,20.0,74.0,7.271
7281.0,65.0,40.0,17.0,71.0,7.281
7291.0,64.0,42.0,30.0,74.0,7.291
7301.0,64.0,42.0,30.0,81.0,7.301
7311.0,65.0,42.0,28.0,78.0,7.311
7321.0,65.0,43.0,26.0,85.0,7.321
7331.0,64.0,42.0,23.0,82.0,7.331
7341.0,65.0,41.0,24.0,77.0,7.341
7351.0,63.0,41.0,23.0,71.0,7.351
7361.0,63.0,42.0,29.0,66.0,7.361
7371.0,63.0,43.0,31.0,71.0,7.371
7382.0,63.0,42.0,29.0,79.0,7.382
7392.0,65.0,47.0,26.0,82.0,7.392
7402.0,62.0,53.0,24.0,78.0,7.402
7412.0,63.0,54.0,24.0,72.0,7.412
7422.0,63.0,58.0,29.0,69.0,7.422
7432.0,66.0,59.0,25.0,69.0,7.432
7442.0,65.0,61.0,23.0,66.0,7.442
7452.0,69.0,63.0,20.0,67.0,7.452
7462.0,70.0,59.0,26.0,81.0,7.462
7472.0,72.0,58.0,25.0,80.0,7.472
7482.0,73.0,55.0,24.0,77.0,7.482
7492.0,75.0,54.0,22.0,90.0,7.492
7502.0,75.0,52.0,21.0,92.0,7.502
7512.0,74.0,53.0,24.0,89.0,7.512
7522.0,75.0,52.0,23.0,91.0,7.522
7532.0,78.0,51.0,23.0,87.0,7.532
7542.0,78.0,50.0,18.0,83.0,7.542
7552.0,79.0,48.0,19.0,82.0,7.552
7562.0,77.0,49.0,19.0,84.0,7.562
7572.0,79.0,50.0,23.0,83.0,7.572
7582.0,80.0,48.0,21.0,83.0,7.582
7592.0,80.0,48.0,21.0,80.0,7.592
7602.0,82.0,48.0,20.0,78.0,7.602
7612.0,82.0,49.0,16.0,75.0,7.612
7622.0,81.0,49.0,22.0,74.0,7.622
7632.0,84.0,52.0,21.0,75.0,7.632
7642.0,84.0,50.0,22.0,73.0,7.642
7652.0,84.0,51.0,21.0,70.0,7.652
7662.0,87.0,58.0,21.0,74.0,7.662
7672.0,89.0,70.0,23.0,72.0,7.672
7682.0,85.0,111.0,39.0,81.0,7.682
7692.0,88.0,116.0,36.0,77.0,7.692
7702.0,95.0,157.0,50.0,90.0,7.702
7712.0,153.0,300.0,98.0,132.0,7.712
7723.0,196.0,340.0,98.0,132.0,7.723
7733.0,216.0,340.0,92.0,132.0,7.733
7743.0,240.0,383.0,105.0,135.0,7.743
7753.0,257.0,449.0,112.0,143.0,7.753
7763.0,298.0,456.0,110.0,143.0,7.763
7773.0,288.0,455.0,110.0,144.0,7.773
7783.0,287.0,480.0,112.0,147.0,7.783
7793.0,271.0,481.0,107.0,142.0,7.793
7803.0,251.0,468.0,101.0,134.0,7.803
7813.0,227.0,436.0,99.0,129.0,7.813
7823.0,202.0,392.0,87.0,122.0,7.823
7833.0,188.0,371.0,78.0,113.0,7.833
7843.0,179.0,350.0,73.0,108.0,7.843
7853.0,171.0,331.0,70.0,102.0,7.853
7863.0,157.0,308.0,71.0,100.0,7.863
7873.0,141.0,285.0,72.0,100.0,7.873
7883.0,131.0,261.0,71.0,95.0,7.883
7894.0,126.0,246.0,70.0,98.0,7.894
7904.0,115.0,227.0,63.0,96.0,7.904
7914.0,108.0,225.0,57.0,93.0,7.914
7924.0,103.0,206.0,56.0,89.0,7.924
7934.0,95.0,202.0,53.0,85.0,7.934
7944.0,97.0,195.0,56.0,81.0,7.944
7954.0,96.0,187.0,50.0,79.0,7.954
7964.0,92.0,178.0,49.0,79.0,7.964
7974.0,87.0,165.0,49.0,79.0,7.974
7984.0,84.0,166.0,48.0,81.0,7.984
7994.0,80.0,161.0,43.0,77.0,7.994
8004.0,77.0,155.0,39.0,75.0,8.004
8014.0,75.0,147.0,38.0,75.0,8.014
8024.0,74.0,139.0,39.0,74.0,8.024
8034.0,74.0,137.0,35.0,71.0,8.034
8044.0,70.0,134.0,38.0,73.0,8.044
8054.0,70.0,131.0,33.0,73.0,8.054
8064.0,66.0,124.0,30.0,70.0,8.064
8074.0,66.0,125.0,30.0,69.0,8.074
8084.0,69.0,119.0,28.0,68.0,8.084
8094.0,74.0,116.0,25.0,66.0,8.094
8104.0,71.0,112.0,23.0,66.0,8.104
8114.0,69.0,107.0,23.0,65.0,8.114
8124.0,71.0,104.0,20.0,65.0,8.124
8134.0,69.0,102.0,18.0,61.0,8.134
8144.0,67.0,98.0,18.0,62.0,8.144
8154.0,64.0,100.0,17.0,62.0,8.154
8164.0,64.0,91.0,16.0,58.0,8.164
8174.0,64.0,92.0,18.0,55.0,8.174
8184.0,64.0,86.0,18.0,55.0,8.184
8194.0,62.0,82.0,17.0,53.0,8.194
8204.0,61.0,80.0,15.0,51.0,8.204
8214.0,61.0,80.0,13.0,48.0,8.214
8224.0,60.0,87.0,12.0,46.0,8.224
8235.0,61.0,88.0,13.0,47.0,8.235
8245.0,60.0,82.0,12.0,48.0,8.245
8255.0,60.0,77.0,12.0,48.0,8.255
8265.0,60.0,72.0,10.0,47.0,8.265
8275.0,62.0,67.0,9.0,48.0,8.275
8285.0,62.0,64.0,9.0,44.0,8.285
8295.0,63.0,68.0,8.0,44.0,8.295
8305.0,65.0,67.0,9.0,46.0,8.305
8315.0,64.0,67.0,6.0,45.0,8.315
8325.0,63.0,74.0,8.0,44.0,8.325
8335.0,65.0,73.0,8.0,45.0,8.335
8345.0,63.0,71.0,7.0,45.0,8.345
8355.0,63.0,70.0,7.0,46.0,8.355
8365.0,62.0,72.0,5.0,48.0,8.365
8375.0,61.0,69.0,7.0,49.0,8.375
8385.0,59.0,67.0,6.0,47.0,8.385
8395.0,61.0,64.0,6.0,45.0,8.395
8406.0,60.0,61.0,7.0,47.0,8.406
8416.0,59.0,61.0,8.0,48.0,8.416
8426.0,63.0,62.0,8.0,47.0,8.426
8436.0,64.0,62.0,7.0,46.0,8.436
8446.0,65.0,62.0,8.0,46.0,8.446
8456.0,66.0,67.0,6.0,43.0,8.456
8466.0,68.0,76.0,6.0,41.0,8.466
8476.0,68.0,73.0,6.0,41.0,8.476
8486.0,70.0,69.0,6.0,42.0,8.486
8496.0,70.0,64.0,6.0,42.0,8.496
8506.0,70.0,62.0,5.0,40.0,8.506
8516.0,72.0,59.0,6.0,41.0,8.516
8526.0,71.0,55.0,4.0,40.0,8.526
8536.0,70.0,54.0,4.0,41.0,8.536
8546.0,71.0,52.0,4.0,40.0,8.546
8556.0,70.0,51.0,4.0,42.0,8.556
8566.0,70.0,52.0,8.0,42.0,8.566
8576.0,67.0,51.0,7.0,39.0,8.576
8586.0,70.0,51.0,7.0,38.0,8.586
8596.0,66.0,55.0,7.0,39.0,8.596
8606.0,69.0,54.0,6.0,42.0,8.606
8616.0,69.0,59.0,6.0,42.0,8.616
8626.0,70.0,58.0,6.0,44.0,8.626
8636.0,70.0,54.0,7.0,42.0,8.636
8646.0,68.0,53.0,5.0,42.0,8.646
8656.0,67.0,53.0,6.0,42.0,8.656
8666.0,66.0,57.0,6.0,40.0,8.666
8676.0,67.0,66.0,5.0,40.0,8.676
8686.0,70.0,67.0,7.0,41.0,8.686
8696.0,70.0,70.0,6.0,42.0,8.696
8706.0,70.0,66.0,5.0,40.0,8.706
8716.0,68.0,62.0,5.0,39.0,8.716
8726.0,67.0,60.0,5.0,39.0,8.726
8736.0,66.0,58.0,5.0,37.0,8.736
8747.0,64.0,60.0,4.0,37.0,8.747
8757.0,65.0,60.0,6.0,39.0,8.757
8767.0,67.0,64.0,6.0,38.0,8.767
8777.0,66.0,60.0,6.0,38.0,8.777
8787.0,67.0,63.0,5.0,38.0,8.787
8797.0,65.0,64.0,6.0,39.0,8.797
8807.0,63.0,64.0,6.0,41.0,8.807
8817.0,66.0,68.0,6.0,39.0,8.817
8827.0,65.0,66.0,7.0,43.0,8.827
8837.0,63.0,63.0,7.0,43.0,8.837
8847.0,62.0,60.0,7.0,42.0,8.847
8857.0,61.0,58.0,5.0,43.0,8.857
8867.0,60.0,61.0,7.0,42.0,8.867
8877.0,61.0,59.0,6.0,41.0,8.877
8887.0,62.0,61.0,5.0,41.0,8.887
8897.0,61.0,58.0,5.0,38.0,8.897
8907.0,61.0,60.0,5.0,38.0,8.907
8918.0,59.0,56.0,5.0,37.0,8.918
8928.0,63.0,63.0,4.0,38.0,8.928
8938.0,64.0,61.0,5.0,37.0,8.938
8948.0,62.0,59.0,4.0,38.0,8.948
8958.0,62.0,59.0,5.0,38.0,8.958
8968.0,61.0,57.0,5.0,39.0,8.968
8978.0,59.0,58.0,5.0,39.0,8.978
8988.0,62.0,60.0,5.0,36.0,8.988
8998.0,62.0,59.0,4.0,36.0,8.998
9008.0,60.0,60.0,5.0,35.0,9.008
9018.0,59.0,59.0,5.0,34.0,9.018
9028.0,59.0,58.0,5.0,34.0,9.028
9038.0,60.0,59.0,5.0,33.0,9.038
9048.0,61.0,59.0,5.0,35.0,9.048
9058.0,61.0,57.0,6.0,34.0,9.058
9068.0,61.0,55.0,5.0,36.0,9.068
9078.0,62.0,55.0,6.0,35.0,9.078
9088.0,62.0,55.0,6.0,38.0,9.088
9098.0,62.0,56.0,4.0,37.0,9.098
9108.0,61.0,57.0,6.0,36.0,9.108
9118.0,62.0,59.0,7.0,37.0,9.118
9128.0,63.0,55.0,7.0,36.0,9.128
9138.0,63.0,55.0,7.0,38.0,9.138
9148.0,64.0,55.0,8.0,38.0,9.148
9158.0,63.0,55.0,7.0,37.0,9.158
9168.0,62.0,57.0,6.0,37.0,9.168
9178.0,62.0,57.0,6.0,36.0,9.178
9188.0,60.0,61.0,6.0,36.0,9.188
9198.0,62.0,60.0,6.0,36.0,9.198
9208.0,62.0,59.0,5.0,36.0,9.208
9218.0,62.0,59.0,6.0,36.0,9.218
9228.0,62.0,59.0,6.0,35.0,9.228
9238.0,61.0,59.0,4.0,36.0,9.238
9248.0,60.0,64.0,4.0,37.0,9.248
9259.0,61.0,65.0,5.0,37.0,9.259
9269.0,59.0,62.0,5.0,37.0,9.269
9279.0,57.0,62.0,8.0,40.0,9.279
9289.0,57.0,61.0,8.0,42.0,9.289
9299.0,55.0,62.0,7.0,40.0,9.299
9309.0,54.0,64.0,6.0,39.0,9.309
9319.0,55.0,63.0,6.0,41.0,9.319
9329.0,53.0,67.0,5.0,42.0,9.329
9339.0,52.0,66.0,6.0,47.0,9.339
9349.0,53.0,66.0,5.0,46.0,9.349
9359.0,52.0,67.0,6.0,44.0,9.359
9369.0,53.0,66.0,5.0,45.0,9.369
9379.0,50.0,68.0,5.0,49.0,9.379
9389.0,52.0,66.0,5.0,50.0,9.389
9399.0,51.0,65.0,5.0,50.0,9.399
9409.0,51.0,65.0,5.0,47.0,9.409
9419.0,51.0,66.0,5.0,46.0,9.419
9430.0,52.0,64.0,5.0,44.0,9.43
9440.0,51.0,65.0,4.0,42.0,9.44
9450.0,50.0,66.0,5.0,41.0,9.45
9460.0,52.0,68.0,7.0,42.0,9.46
9470.0,51.0,66.0,7.0,41.0,9.47
9480.0,52.0,62.0,6.0,38.0,9.48
9490.0,53.0,62.0,5.0,38.0,9.49
9500.0,52.0,61.0,6.0,37.0,9.5
9510.0,51.0,59.0,5.0,38.0,9.51
9520.0,52.0,60.0,6.0,39.0,9.52
9530.0,52.0,59.0,6.0,37.0,9.53
9540.0,51.0,60.0,6.0,38.0,9.54
9550.0,50.0,55.0,8.0,36.0,9.55
9560.0,52.0,59.0,7.0,37.0,9.56
9570.0,52.0,57.0,8.0,39.0,9.57
9580.0,52.0,56.0,8.0,37.0,9.58
9590.0,51.0,59.0,6.0,38.0,9.59
9600.0,53.0,60.0,6.0,37.0,9.6
9610.0,53.0,58.0,6.0,38.0,9.61
9620.0,52.0,58.0,6.0,38.0,9.62
9630.0,52.0,55.0,5.0,39.0,9.63
9640.0,51.0,53.0,7.0,38.0,9.64
9650.0,51.0,54.0,8.0,39.0,9.65
9660.0,48.0,55.0,6.0,39.0,9.66
9670.0,48.0,55.0,6.0,37.0,9.67
9680.0,49.0,55.0,6.0,37.0,9.68
9690.0,49.0,54.0,6.0,36.0,9.69
9700.0,49.0,54.0,6.0,36.0,9.7
9710.0,47.0,54.0,6.0,37.0,9.71
9720.0,48.0,55.0,6.0,35.0,9.72
9730.0,46.0,59.0,7.0,38.0,9.73
9740.0,47.0,56.0,7.0,37.0,9.74
9750.0,48.0,59.0,6.0,36.0,9.75
9760.0,49.0,56.0,6.0,35.0,9.76
9771.0,47.0,53.0,7.0,34.0,9.771
9781.0,49.0,56.0,8.0,38.0,9.781
9791.0,50.0,56.0,9.0,37.0,9.791
9801.0,50.0,55.0,9.0,37.0,9.801
9811.0,49.0,57.0,8.0,35.0,9.811
9821.0,49.0,60.0,7.0,35.0,9.821
9831.0,48.0,58.0,7.0,35.0,9.831
9841.0,49.0,61.0,5.0,35.0,9.841
9851.0,49.0,60.0,7.0,36.0,9.851
9861.0,49.0,58.0,7.0,37.0,9.861
9871.0,48.0,57.0,6.0,36.0,9.871
9881.0,47.0,57.0,6.0,36.0,9.881
9891.0,47.0,57.0,5.0,36.0,9.891
9901.0,47.0,55.0,6.0,34.0,9.901
9911.0,46.0,54.0,5.0,35.0,9.911
9921.0,46.0,55.0,5.0,33.0,9.921
9931.0,48.0,57.0,6.0,35.0,9.931
9942.0,48.0,59.0,6.0,33.0,9.942
9952.0,48.0,57.0,5.0,33.0,9.952
9962.0,49.0,60.0,11.0,39.0,9.962
9972.0,49.0,59.0,10.0,37.0,9.972
9982.0,48.0,57.0,9.0,36.0,9.982
9992.0,49.0,63.0,9.0,36.0,9.992
10002.0,50.0,61.0,10.0,34.0,10.002
10012.0,51.0,61.0,12.0,36.0,10.012
10022.0,52.0,59.0,11.0,37.0,10.022
10032.0,50.0,58.0,10.0,36.0,10.032
10042.0,50.0,56.0,9.0,33.0,10.042
10052.0,48.0,55.0,8.0,34.0,10.052
10062.0,48.0,54.0,9.0,34.0,10.062
10072.0,47.0,51.0,9.0,34.0,10.072
10082.0,46.0,52.0,7.0,33.0,10.082
10092.0,45.0,51.0,8.0,35.0,10.092
10102.0,45.0,49.0,8.0,36.0,10.102
10112.0,45.0,49.0,10.0,33.0,10.112
10122.0,45.0,49.0,9.0,34.0,10.122
10132.0,45.0,50.0,9.0,36.0,10.132
10142.0,47.0,50.0,10.0,38.0,10.142
10152.0,46.0,50.0,11.0,43.0,10.152
10162.0,47.0,51.0,12.0,43.0,10.162
10172.0,47.0,53.0,10.0,43.0,10.172
10182.0,48.0,52.0,10.0,44.0,10.182
10192.0,50.0,54.0,9.0,41.0,10.192
10202.0,49.0,52.0,9.0,42.0,10.202
10212.0,49.0,51.0,9.0,41.0,10.212
10222.0,48.0,51.0,10.0,42.0,10.222
10232.0,49.0,51.0,12.0,43.0,10.232
10242.0,48.0,52.0,10.0,42.0,10.242
10252.0,51.0,51.0,12.0,42.0,10.252
10262.0,50.0,51.0,11.0,39.0,10.262
10272.0,50.0,53.0,12.0,39.0,10.272
10283.0,50.0,54.0,12.0,41.0,10.283
10293.0,50.0,53.0,10.0,39.0,10.293
10303.0,51.0,55.0,9.0,37.0,10.303
10313.0,53.0,55.0,10.0,40.0,10.313
10323.0,51.0,51.0,10.0,37.0,10.323
10333.0,53.0,55.0,9.0,38.0,10.333
10343.0,52.0,55.0,10.0,36.0,10.343
10353.0,52.0,54.0,10.0,37.0,10.353
10363.0,50.0,51.0,10.0,38.0,10.363
10373.0,50.0,51.0,10.0,39.0,10.373
10383.0,50.0,52.0,11.0,39.0,10.383
10393.0,50.0,50.0,12.0,42.0,10.393
10403.0,49.0,50.0,12.0,42.0,10.403
10413.0,49.0,50.0,11.0,43.0,10.413
10423.0,49.0,50.0,11.0,43.0,10.423
10433.0,49.0,50.0,10.0,43.0,10.433
10443.0,49.0,53.0,9.0,41.0,10.443
10454.0,51.0,55.0,9.0,42.0,10.454
10464.0,51.0,52.0,8.0,39.0,10.464
10474.0,51.0,52.0,8.0,39.0,10.474
10484.0,50.0,51.0,9.0,41.0,10.484
10494.0,50.0,51.0,8.0,40.0,10.494
10504.0,49.0,51.0,9.0,39.0,10.504
10514.0,51.0,50.0,8.0,40.0,10.514
10524.0,51.0,51.0,7.0,42.0,10.524
10534.0,51.0,50.0,6.0,42.0,10.534
10544.0,52.0,51.0,7.0,44.0,10.544
10554.0,52.0,50.0,7.0,43.0,10.554
10564.0,53.0,51.0,8.0,45.0,10.564
10574.0,51.0,52.0,6.0,44.0,10.574
10584.0,54.0,53.0,8.0,43.0,10.584
10594.0,55.0,54.0,6.0,44.0,10.594
10604.0,54.0,51.0,6.0,46.0,10.604
10614.0,53.0,52.0,5.0,46.0,10.614
10624.0,54.0,51.0,5.0,46.0,10.624
10634.0,54.0,51.0,7.0,43.0,10.634
10644.0,54.0,50.0,6.0,44.0,10.644
10654.0,55.0,47.0,9.0,44.0,10.654
10664.0,57.0,53.0,15.0,51.0,10.664
10674.0,62.0,56.0,37.0,58.0,10.674
10684.0,64.0,54.0,42.0,76.0,10.684
10694.0,65.0,58.0,47.0,73.0,10.694
10704.0,70.0,58.0,48.0,76.0,10.704
10714.0,69.0,59.0,46.0,80.0,10.714
10724.0,69.0,61.0,45.0,77.0,10.724
10734.0,70.0,66.0,67.0,120.0,10.734
10744.0,73.0,73.0,83.0,123.0,10.744
10754.0,75.0,78.0,125.0,131.0,10.754
10764.0,81.0,76.0,139.0,146.0,10.764
10774.0,87.0,75.0,143.0,176.0,10.774
10784.0,92.0,75.0,134.0,199.0,10.784
10795.0,86.0,71.0,132.0,204.0,10.795
10805.0,86.0,69.0,144.0,201.0,10.805
10815.0,91.0,68.0,144.0,194.0,10.815
10825.0,97.0,67.0,127.0,192.0,10.825
10835.0,95.0,70.0,121.0,236.0,10.835
10845.0,96.0,73.0,121.0,254.0,10.845
10855.0,97.0,78.0,120.0,251.0,10.855
10865.0,104.0,86.0,108.0,272.0,10.865
10875.0,108.0,96.0,99.0,256.0,10.875
10885.0,111.0,104.0,89.0,243.0,10.885
10895.0,113.0,116.0,79.0,263.0,10.895
10905.0,117.0,125.0,74.0,257.0,10.905
10915.0,118.0,131.0,74.0,246.0,10.915
10925.0,120.0,140.0,70.0,238.0,10.925
10935.0,126.0,145.0,65.0,227.0,10.935
10945.0,126.0,155.0,63.0,238.0,10.945
10955.0,127.0,161.0,61.0,225.0,10.955
10966.0,128.0,164.0,62.0,211.0,10.966
10976.0,130.0,169.0,66.0,199.0,10.976
10986.0,131.0,171.0,61.0,182.0,10.986
10996.0,130.0,174.0,58.0,176.0,10.996
11006.0,129.0,173.0,52.0,180.0,11.006
11016.0,129.0,174.0,48.0,172.0,11.016
11026.0,129.0,174.0,50.0,178.0,11.026
11036.0,128.0,174.0,68.0,166.0,11.036
11046.0,129.0,177.0,61.0,160.0,11.046
11056.0,127.0,175.0,58.0,165.0,11.056
11066.0,128.0,177.0,50.0,161.0,11.066
11076.0,124.0,175.0,50.0,155.0,11.076
11086.0,127.0,177.0,51.0,150.0,11.086
11096.0,126.0,176.0,46.0,152.0,11.096
11106.0,123.0,172.0,47.0,148.0,11.106
11116.0,121.0,171.0,41.0,136.0,11.116
11126.0,121.0,168.0,41.0,133.0,11.126
11136.0,114.0,166.0,57.0,127.0,11.136
11146.0,119.0,163.0,55.0,117.0,11.146
11156.0,118.0,161.0,50.0,113.0,11.156
11166.0,119.0,159.0,50.0,116.0,11.166
11176.0,118.0,154.0,56.0,113.0,11.176
11186.0,118.0,155.0,53.0,112.0,11.186
11196.0,119.0,155.0,51.0,109.0,11.196
11206.0,118.0,155.0,44.0,104.0,11.206
11216.0,117.0,156.0,39.0,104.0,11.216
11226.0,115.0,155.0,37.0,123.0,11.226
11236.0,113.0,153.0,40.0,115.0,11.236
11246.0,113.0,153.0,42.0,110.0,11.246
11256.0,111.0,151.0,49.0,104.0,11.256
11266.0,113.0,152.0,44.0,99.0,11.266
11276.0,111.0,151.0,43.0,93.0,11.276
11286.0,109.0,151.0,46.0,95.0,11.286
11296.0,108.0,150.0,44.0,96.0,11.296
11307.0,107.0,149.0,47.0,93.0,11.307
11317.0,106.0,146.0,53.0,98.0,11.317
11327.0,106.0,146.0,51.0,103.0,11.327
11337.0,105.0,142.0,50.0,103.0,11.337
11347.0,104.0,144.0,50.0,109.0,11.347
11357.0,102.0,141.0,48.0,111.0,11.357
11367.0,101.0,141.0,54.0,110.0,11.367
11377.0,101.0,138.0,50.0,104.0,11.377
11387.0,100.0,136.0,46.0,98.0,11.387
11397.0,100.0,133.0,50.0,101.0,11.397
11407.0,101.0,130.0,47.0,103.0,11.407
11417.0,98.0,128.0,46.0,103.0,11.417
11427.0,96.0,123.0,49.0,99.0,11.427
11437.0,94.0,124.0,49.0,96.0,11.437
11447.0,93.0,122.0,46.0,92.0,11.447
11457.0,90.0,118.0,43.0,86.0,11.457
11467.0,89.0,118.0,39.0,86.0,11.467
11478.0,88.0,115.0,41.0,86.0,11.478
11488.0,87.0,116.0,42.0,88.0,11.488
11498.0,87.0,115.0,37.0,87.0,11.498
11508.0,86.0,114.0,37.0,83.0,11.508
11518.0,85.0,112.0,34.0,76.0,11.518
11528.0,86.0,110.0,38.0,76.0,11.528
11538.0,85.0,109.0,38.0,77.0,11.538
11548.0,87.0,107.0,39.0,79.0,11.548
11558.0,85.0,106.0,36.0,79.0,11.558
11568.0,86.0,106.0,36.0,105.0,11.568
11578.0,85.0,104.0,34.0,116.0,11.578
11588.0,86.0,103.0,36.0,115.0,11.588
11598.0,86.0,102.0,36.0,114.0,11.598
11608.0,85.0,102.0,37.0,114.0,11.608
11618.0,86.0,100.0,33.0,108.0,11.618
11628.0,84.0,99.0,30.0,104.0,11.628
11638.0,86.0,99.0,28.0,99.0,11.638
11648.0,87.0,97.0,39.0,126.0,11.648
11658.0,86.0,94.0,39.0,125.0,11.658
11668.0,86.0,92.0,51.0,120.0,11.668
11678.0,84.0,90.0,47.0,118.0,11.678
11688.0,86.0,88.0,49.0,114.0,11.688
11698.0,86.0,87.0,42.0,110.0,11.698
11708.0,86.0,84.0,42.0,103.0,11.708
11718.0,87.0,82.0,42.0,103.0,11.718
11728.0,87.0,79.0,40.0,99.0,11.728
11738.0,87.0,79.0,41.0,92.0,11.738
11748.0,87.0,81.0,37.0,100.0,11.748
11758.0,86.0,78.0,42.0,94.0,11.758
11768.0,85.0,79.0,42.0,93.0,11.768
11778.0,85.0,78.0,38.0,87.0,11.778
11788.0,82.0,75.0,39.0,84.0,11.788
11798.0,82.0,76.0,38.0,90.0,11.798
11808.0,80.0,74.0,36.0,87.0,11.808
11819.0,80.0,75.0,37.0,85.0,11.819
11829.0,79.0,73.0,40.0,79.0,11.829
11839.0,77.0,71.0,36.0,90.0,11.839
11849.0,76.0,69.0,34.0,93.0,11.849
11859.0,77.0,70.0,39.0,95.0,11.859
11869.0,76.0,70.0,39.0,97.0,11.869
11879.0,75.0,66.0,40.0,90.0,11.879
11889.0,75.0,67.0,37.0,94.0,11.889
11899.0,77.0,66.0,33.0,90.0,11.899
11909.0,74.0,64.0,31.0,97.0,11.909
11919.0,73.0,62.0,35.0,101.0,11.919
11929.0,72.0,61.0,44.0,103.0,11.929
11939.0,72.0,62.0,41.0,103.0,11.939
11949.0,73.0,60.0,36.0,102.0,11.949
11959.0,73.0,61.0,32.0,97.0,11.959
11969.0,73.0,58.0,30.0,100.0,11.969
11979.0,72.0,59.0,28.0,96.0,11.979
11990.0,71.0,57.0,32.0,94.0,11.99
12000.0,72.0,58.0,39.0,95.0,12.0
12010.0,71.0,57.0,38.0,113.0,12.01
12020.0,74.0,57.0,40.0,114.0,12.02
12030.0,75.0,59.0,45.0,112.0,12.03
12040.0,76.0,58.0,45.0,105.0,12.04
12050.0,75.0,57.0,47.0,98.0,12.05
12060.0,77.0,59.0,45.0,93.0,12.06
12070.0,76.0,58.0,41.0,89.0,12.07
12080.0,76.0,59.0,37.0,83.0,12.08
12090.0,78.0,57.0,32.0,86.0,12.09
12100.0,77.0,58.0,32.0,98.0,12.1
12110.0,78.0,60.0,37.0,94.0,12.11
12120.0,77.0,60.0,33.0,99.0,12.12
12130.0,76.0,61.0,34.0,98.0,12.13
12140.0,77.0,62.0,30.0,99.0,12.14
12150.0,75.0,61.0,26.0,103.0,12.15
12160.0,73.0,59.0,25.0,110.0,12.16
12170.0,73.0,59.0,36.0,117.0,12.17
12180.0,73.0,59.0,35.0,109.0,12.18
12190.0,70.0,55.0,34.0,106.0,12.19
12200.0,71.0,57.0,38.0,103.0,12.2
12210.0,71.0,57.0,35.0,105.0,12.21
12220.0,71.0,55.0,35.0,103.0,12.22
12230.0,71.0,54.0,40.0,118.0,12.23
12240.0,71.0,55.0,45.0,112.0,12.24
12250.0,74.0,57.0,47.0,113.0,12.25
12260.0,72.0,57.0,42.0,115.0,12.26
12270.0,71.0,59.0,38.0,120.0,12.27
12280.0,71.0,60.0,36.0,110.0,12.28
12290.0,70.0,61.0,33.0,104.0,12.29
12300.0,69.0,60.0,37.0,96.0,12.3
12310.0,67.0,61.0,40.0,90.0,12.31
12320.0,69.0,64.0,41.0,95.0,12.32
12331.0,68.0,63.0,39.0,102.0,12.331
12341.0,67.0,63.0,37.0,103.0,12.341
12351.0,67.0,63.0,32.0,105.0,12.351
12361.0,67.0,62.0,31.0,102.0,12.361
12371.0,67.0,62.0,29.0,111.0,12.371
12381.0,68.0,61.0,26.0,125.0,12.381
12391.0,66.0,58.0,25.0,119.0,12.391
12401.0,67.0,59.0,30.0,112.0,12.401
12411.0,68.0,59.0,28.0,133.0,12.411
12421.0,67.0,57.0,35.0,129.0,12.421
12431.0,68.0,57.0,31.0,125.0,12.431
12441.0,69.0,54.0,30.0,130.0,12.441
12451.0,69.0,54.0,38.0,131.0,12.451
12461.0,70.0,53.0,39.0,133.0,12.461
12471.0,69.0,52.0,39.0,125.0,12.471
12481.0,70.0,53.0,36.0,118.0,12.481
12491.0,69.0,51.0,34.0,111.0,12.491
12502.0,69.0,50.0,33.0,106.0,12.502
12512.0,68.0,48.0,33.0,110.0,12.512
12522.0,68.0,48.0,40.0,107.0,12.522
12532.0,69.0,46.0,42.0,109.0,12.532
12542.0,69.0,45.0,37.0,105.0,12.542
12552.0,68.0,46.0,41.0,108.0,12.552
12562.0,68.0,45.0,45.0,120.0,12.562
12572.0,67.0,46.0,48.0,110.0,12.572
12582.0,69.0,42.0,43.0,104.0,12.582
12592.0,69.0,42.0,38.0,100.0,12.592
12602.0,69.0,42.0,39.0,103.0,12.602
12612.0,69.0,41.0,36.0,96.0,12.612
12622.0,71.0,41.0,33.0,91.0,12.622
12632.0,72.0,41.0,33.0,85.0,12.632
12642.0,71.0,43.0,39.0,86.0,12.642
12652.0,72.0,42.0,40.0,104.0,12.652
12662.0,71.0,43.0,37.0,105.0,12.662
12672.0,71.0,44.0,36.0,107.0,12.672
12682.0,72.0,44.0,35.0,101.0,12.682
12692.0,71.0,43.0,38.0,97.0,12.692
12702.0,73.0,43.0,43.0,113.0,12.702
12712.0,72.0,45.0,40.0,109.0,12.712
12722.0,71.0,44.0,37.0,112.0,12.722
12732.0,70.0,44.0,41.0,107.0,12.732
12742.0,70.0,46.0,40.0,102.0,12.742
12752.0,70.0,46.0,36.0,98.0,12.752
12762.0,68.0,48.0,32.0,93.0,12.762
12772.0,69.0,50.0,39.0,92.0,12.772
12782.0,69.0,51.0,34.0,91.0,12.782
12792.0,68.0,49.0,35.0,92.0,12.792
12802.0,67.0,51.0,35.0,112.0,12.802
12812.0,66.0,50.0,32.0,104.0,12.812
12822.0,67.0,49.0,29.0,104.0,12.822
12832.0,68.0,50.0,32.0,106.0,12.832
12843.0,68.0,50.0,45.0,112.0,12.843
12853.0,66.0,50.0,44.0,106.0,12.853
12863.0,65.0,49.0,41.0,109.0,12.863
12873.0,64.0,47.0,35.0,103.0,12.873
12883.0,64.0,47.0,34.0,100.0,12.883
12893.0,65.0,47.0,30.0,94.0,12.893
12903.0,64.0,46.0,26.0,92.0,12.903
12913.0,65.0,47.0,32.0,92.0,12.913
12923.0,65.0,48.0,30.0,92.0,12.923
12933.0,66.0,46.0,27.0,92.0,12.933
12943.0,64.0,46.0,29.0,109.0,12.943
12953.0,65.0,46.0,29.0,113.0,12.953
12963.0,64.0,46.0,26.0,106.0,12.963
12973.0,64.0,45.0,23.0,99.0,12.973
12983.0,64.0,45.0,37.0,92.0,12.983
12993.0,64.0,46.0,37.0,98.0,12.993
13003.0,64.0,44.0,33.0,98.0,13.003
13014.0,66.0,45.0,29.0,91.0,13.014
13024.0,65.0,42.0,26.0,92.0,13.024
13034.0,65.0,41.0,23.0,91.0,13.034
13044.0,65.0,40.0,22.0,103.0,13.044
13054.0,65.0,41.0,30.0,96.0,13.054
13064.0,66.0,43.0,34.0,101.0,13.064
13074.0,67.0,40.0,30.0,94.0,13.074
13084.0,67.0,42.0,34.0,98.0,13.084
13094.0,67.0,40.0,31.0,92.0,13.094
13104.0,67.0,39.0,34.0,95.0,13.104
13114.0,67.0,40.0,33.0,94.0,13.114
13124.0,65.0,40.0,40.0,91.0,13.124
13134.0,64.0,40.0,36.0,89.0,13.134
13144.0,65.0,39.0,35.0,85.0,13.144
13154.0,65.0,39.0,32.0,85.0,13.154
13164.0,64.0,38.0,29.0,80.0,13.164
13174.0,66.0,38.0,29.0,81.0,13.174
13184.0,65.0,38.0,30.0,84.0,13.184
13194.0,66.0,39.0,36.0,91.0,13.194
13204.0,66.0,40.0,34.0,103.0,13.204
13214.0,67.0,39.0,30.0,96.0,13.214
13224.0,67.0,40.0,32.0,96.0,13.224
13234.0,67.0,38.0,29.0,92.0,13.234
13244.0,68.0,38.0,30.0,90.0,13.244
13254.0,68.0,39.0,29.0,97.0,13.254
13264.0,68.0,40.0,38.0,91.0,13.264
13274.0,68.0,41.0,34.0,88.0,13.274
13284.0,68.0,38.0,35.0,82.0,13.284
13294.0,68.0,38.0,35.0,91.0,13.294
13304.0,69.0,38.0,31.0,96.0,13.304
13314.0,69.0,37.0,35.0,98.0,13.314
13324.0,68.0,40.0,50.0,96.0,13.324
13334.0,70.0,41.0,50.0,96.0,13.334
13344.0,70.0,41.0,46.0,102.0,13.344
13355.0,71.0,40.0,40.0,96.0,13.355
13365.0,71.0,40.0,35.0,104.0,13.365
13375.0,72.0,39.0,32.0,98.0,13.375
13385.0,73.0,40.0,28.0,92.0,13.385
13395.0,71.0,43.0,33.0,102.0,13.395
13405.0,72.0,43.0,32.0,104.0,13.405
13415.0,71.0,47.0,35.0,105.0,13.415
13425.0,71.0,46.0,32.0,106.0,13.425
13435.0,71.0,47.0,29.0,123.0,13.435
13445.0,69.0,48.0,28.0,129.0,13.445
13455.0,72.0,47.0,26.0,125.0,13.455
13465.0,70.0,48.0,26.0,114.0,13.465
13475.0,69.0,48.0,25.0,111.0,13.475
13485.0,69.0,50.0,26.0,115.0,13.485
13495.0,67.0,50.0,36.0,106.0,13.495
13505.0,69.0,49.0,33.0,131.0,13.505
13515.0,69.0,51.0,31.0,125.0,13.515
13526.0,69.0,52.0,34.0,122.0,13.526
13536.0,68.0,52.0,39.0,119.0,13.536
13546.0,68.0,52.0,37.0,130.0,13.546
13556.0,69.0,52.0,31.0,127.0,13.556
13566.0,69.0,51.0,32.0,119.0,13.566
13576.0,69.0,50.0,29.0,112.0,13.576
13586.0,68.0,51.0,29.0,102.0,13.586
13596.0,66.0,51.0,35.0,101.0,13.596
13606.0,64.0,52.0,34.0,115.0,13.606
13616.0,65.0,51.0,32.0,121.0,13.616
13626.0,65.0,51.0,30.0,124.0,13.626
13636.0,64.0,50.0,31.0,115.0,13.636
13646.0,64.0,49.0,28.0,116.0,13.646
13656.0,66.0,52.0,40.0,115.0,13.656
13666.0,67.0,51.0,36.0,115.0,13.666
13676.0,67.0,50.0,39.0,111.0,13.676
13686.0,68.0,49.0,35.0,111.0,13.686
13696.0,69.0,49.0,31.0,110.0,13.696
13706.0,69.0,47.0,37.0,111.0,13.706
13716.0,69.0,46.0,36.0,106.0,13.716
13726.0,70.0,46.0,32.0,106.0,13.726
13736.0,70.0,47.0,32.0,101.0,13.736
13746.0,70.0,48.0,30.0,102.0,13.746
13756.0,69.0,48.0,29.0,108.0,13.756
13766.0,70.0,48.0,25.0,108.0,13.766
13776.0,70.0,48.0,25.0,104.0,13.776
13786.0,69.0,50.0,26.0,98.0,13.786
13796.0,69.0,50.0,24.0,94.0,13.796
13806.0,69.0,50.0,38.0,91.0,13.806
13816.0,68.0,49.0,35.0,89.0,13.816
13826.0,70.0,48.0,33.0,85.0,13.826
13836.0,67.0,48.0,28.0,89.0,13.836
13846.0,68.0,47.0,25.0,93.0,13.846
13856.0,66.0,48.0,27.0,89.0,13.856
13867.0,66.0,47.0,31.0,99.0,13.867
13877.0,65.0,48.0,28.0,94.0,13.877
13887.0,65.0,48.0,25.0,94.0,13.887
13897.0,65.0,46.0,24.0,96.0,13.897
13907.0,64.0,48.0,22.0,103.0,13.907
13917.0,65.0,47.0,21.0,102.0,13.917
13927.0,64.0,48.0,20.0,99.0,13.927
13937.0,64.0,48.0,18.0,91.0,13.937
13947.0,64.0,48.0,20.0,95.0,13.947
13957.0,62.0,49.0,24.0,94.0,13.957
13967.0,62.0,49.0,25.0,101.0,13.967
13977.0,62.0,49.0,27.0,109.0,13.977
13987.0,60.0,48.0,26.0,102.0,13.987
13997.0,59.0,48.0,31.0,97.0,13.997
14007.0,57.0,48.0,28.0,96.0,14.007
14017.0,57.0,48.0,27.0,93.0,14.017
14027.0,56.0,50.0,37.0,96.0,14.027
14038.0,56.0,49.0,34.0,95.0,14.038
14048.0,55.0,48.0,32.0,105.0,14.048
14058.0,56.0,47.0,29.0,104.0,14.058
14068.0,55.0,46.0,25.0,105.0,14.068
14078.0,57.0,46.0,22.0,101.0,14.078
14088.0,58.0,46.0,35.0,101.0,14.088
14098.0,58.0,44.0,30.0,99.0,14.098
14108.0,58.0,45.0,34.0,124.0,14.108
14118.0,59.0,46.0,31.0,118.0,14.118
14128.0,59.0,42.0,29.0,110.0,14.128
14138.0,60.0,42.0,25.0,107.0,14.138
14148.0,60.0,43.0,25.0,113.0,14.148
14158.0,61.0,42.0,27.0,115.0,14.158
14168.0,60.0,46.0,42.0,112.0,14.168
14178.0,61.0,44.0,38.0,111.0,14.178
14188.0,61.0,44.0,34.0,114.0,14.188
14198.0,63.0,41.0,31.0,115.0,14.198
14208.0,63.0,41.0,27.0,117.0,14.208
14218.0,62.0,42.0,37.0,110.0,14.218
14228.0,62.0,43.0,45.0,103.0,14.228
14238.0,60.0,45.0,49.0,104.0,14.238
14248.0,62.0,44.0,44.0,105.0,14.248
14258.0,62.0,43.0,40.0,110.0,14.258
14268.0,62.0,44.0,36.0,102.0,14.268
14278.0,61.0,45.0,38.0,102.0,14.278
14288.0,61.0,45.0,41.0,105.0,14.288
14298.0,63.0,43.0,36.0,103.0,14.298
14308.0,61.0,44.0,31.0,101.0,14.308
14318.0,61.0,44.0,36.0,97.0,14.318
14328.0,61.0,44.0,32.0,97.0,14.328
14338.0,60.0,44.0,30.0,97.0,14.338
14348.0,60.0,44.0,27.0,105.0,14.348
14358.0,58.0,45.0,32.0,104.0,14.358
14368.0,60.0,46.0,31.0,99.0,14.368
14379.0,58.0,48.0,28.0,93.0,14.379
14389.0,58.0,49.0,43.0,97.0,14.389
14399.0,60.0,48.0,40.0,99.0,14.399
14409.0,61.0,46.0,40.0,94.0,14.409
14419.0,61.0,47.0,38.0,103.0,14.419
14429.0,61.0,46.0,38.0,102.0,14.429
14439.0,63.0,45.0,34.0,97.0,14.439
14449.0,61.0,47.0,35.0,93.0,14.449
14459.0,63.0,44.0,31.0,98.0,14.459
14469.0,61.0,45.0,28.0,104.0,14.469
14479.0,63.0,43.0,25.0,97.0,14.479
14489.0,61.0,43.0,24.0,100.0,14.489
14499.0,61.0,42.0,21.0,102.0,14.499
14509.0,63.0,41.0,19.0,100.0,14.509
14519.0,62.0,42.0,23.0,97.0,14.519
14529.0,62.0,41.0,28.0,93.0,14.529
14539.0,62.0,42.0,29.0,97.0,14.539
14550.0,63.0,39.0,27.0,95.0,14.55
14560.0,62.0,38.0,24.0,96.0,14.56
14570.0,63.0,38.0,21.0,92.0,14.57
14580.0,63.0,39.0,24.0,90.0,14.58
14590.0,62.0,39.0,29.0,91.0,14.59
14600.0,63.0,39.0,30.0,89.0,14.6
14610.0,61.0,40.0,31.0,87.0,14.61
14620.0,62.0,39.0,28.0,83.0,14.62
14630.0,62.0,39.0,29.0,97.0,14.63
14640.0,63.0,38.0,25.0,99.0,14.64
14650.0,63.0,38.0,22.0,99.0,14.65
14660.0,62.0,37.0,22.0,94.0,14.66
14670.0,64.0,40.0,37.0,102.0,14.67
14680.0,64.0,39.0,33.0,112.0,14.68
14690.0,64.0,39.0,29.0,108.0,14.69
14700.0,63.0,39.0,28.0,102.0,14.7
14710.0,61.0,40.0,28.0,97.0,14.71
14720.0,62.0,40.0,25.0,96.0,14.72
14730.0,61.0,41.0,24.0,97.0,14.73
14740.0,62.0,41.0,32.0,97.0,14.74
14750.0,62.0,40.0,28.0,95.0,14.75
14760.0,63.0,40.0,24.0,86.0,14.76
14770.0,62.0,42.0,22.0,86.0,14.77
14780.0,62.0,41.0,23.0,88.0,14.78
14790.0,62.0,41.0,22.0,86.0,14.79
14800.0,59.0,43.0,22.0,95.0,14.8
14810.0,61.0,43.0,26.0,104.0,14.81
14820.0,58.0,42.0,23.0,98.0,14.82
14830.0,58.0,42.0,21.0,97.0,14.83
14840.0,56.0,42.0,18.0,96.0,14.84
14850.0,54.0,42.0,18.0,94.0,14.85
14860.0,54.0,40.0,26.0,99.0,14.86
14870.0,53.0,40.0,23.0,102.0,14.87
14880.0,52.0,41.0,31.0,95.0,14.88
14891.0,51.0,40.0,32.0,92.0,14.891
14901.0,51.0,40.0,41.0,92.0,14.901
14911.0,53.0,41.0,41.0,103.0,14.911
14921.0,52.0,39.0,43.0,108.0,14.921
14931.0,53.0,41.0,47.0,106.0,14.931
14941.0,52.0,40.0,40.0,98.0,14.941
14951.0,52.0,39.0,37.0,94.0,14.951
14961.0,51.0,41.0,39.0,99.0,14.961
14971.0,50.0,40.0,38.0,108.0,14.971
14981.0,52.0,39.0,36.0,112.0,14.981
14991.0,49.0,40.0,37.0,102.0,14.991
15001.0,50.0,40.0,41.0,95.0,15.001
15011.0,49.0,40.0,36.0,98.0,15.011
15021.0,49.0,40.0,32.0,94.0,15.021
15031.0,48.0,41.0,30.0,88.0,15.031
15041.0,48.0,41.0,27.0,88.0,15.041
15051.0,48.0,40.0,31.0,86.0,15.051
15062.0,47.0,41.0,30.0,86.0,15.062
15072.0,49.0,39.0,31.0,82.0,15.072
15082.0,48.0,39.0,27.0,84.0,15.082
15092.0,50.0,39.0,35.0,85.0,15.092
15102.0,50.0,39.0,32.0,86.0,15.102
15112.0,50.0,39.0,32.0,84.0,15.112
15122.0,50.0,38.0,34.0,81.0,15.122
15132.0,49.0,38.0,33.0,82.0,15.132
15142.0,52.0,39.0,31.0,81.0,15.142
15152.0,50.0,40.0,32.0,81.0,15.152
15162.0,52.0,40.0,30.0,78.0,15.162
15172.0,51.0,39.0,30.0,75.0,15.172
15182.0,52.0,40.0,33.0,84.0,15.182
15192.0,52.0,41.0,30.0,86.0,15.192
15202.0,51.0,40.0,29.0,83.0,15.202
15212.0,52.0,40.0,43.0,89.0,15.212
15222.0,50.0,40.0,40.0,90.0,15.222
15232.0,50.0,40.0,37.0,88.0,15.232
15242.0,50.0,39.0,34.0,84.0,15.242
15252.0,49.0,40.0,31.0,90.0,15.252
15262.0,50.0,39.0,27.0,91.0,15.262
15272.0,48.0,39.0,26.0,85.0,15.272
15282.0,49.0,37.0,26.0,83.0,15.282
15292.0,47.0,39.0,31.0,84.0,15.292
15302.0,48.0,38.0,33.0,89.0,15.302
15312.0,48.0,40.0,34.0,95.0,15.312
15322.0,48.0,39.0,37.0,90.0,15.322
15332.0,49.0,39.0,41.0,94.0,15.332
15342.0,50.0,41.0,42.0,94.0,15.342
15352.0,50.0,41.0,50.0,93.0,15.352
15362.0,50.0,40.0,44.0,104.0,15.362
15372.0,51.0,39.0,39.0,112.0,15.372
15382.0,51.0,39.0,35.0,103.0,15.382
15392.0,51.0,38.0,34.0,105.0,15.392
15403.0,51.0,37.0,30.0,109.0,15.403
15413.0,51.0,37.0,30.0,119.0,15.413
15423.0,53.0,37.0,32.0,115.0,15.423
15433.0,52.0,38.0,32.0,111.0,15.433
15443.0,55.0,37.0,30.0,101.0,15.443
15453.0,55.0,39.0,27.0,100.0,15.453
15463.0,58.0,38.0,25.0,96.0,15.463
15473.0,58.0,38.0,23.0,94.0,15.473
15483.0,59.0,38.0,26.0,93.0,15.483
15493.0,61.0,37.0,28.0,92.0,15.493
15503.0,60.0,39.0,31.0,90.0,15.503
15513.0,62.0,37.0,28.0,93.0,15.513
15523.0,62.0,37.0,26.0,89.0,15.523
15533.0,62.0,37.0,26.0,87.0,15.533
15543.0,63.0,37.0,24.0,83.0,15.543
15553.0,62.0,37.0,23.0,90.0,15.553
15563.0,63.0,36.0,25.0,93.0,15.563
15574.0,63.0,37.0,25.0,97.0,15.574
15584.0,62.0,39.0,36.0,93.0,15.584
15594.0,61.0,39.0,39.0,98.0,15.594
15604.0,59.0,38.0,35.0,96.0,15.604
15614.0,59.0,38.0,33.0,91.0,15.614
