time (ms),signal 0,signal 1,signal 2,signal3,time (sec)
251124.0,55.0,37.0,18.0,64.0,251.124
251134.0,55.0,40.0,28.0,61.0,251.134
251144.0,55.0,40.0,25.0,61.0,251.144
251154.0,55.0,40.0,22.0,58.0,251.154
251164.0,55.0,39.0,21.0,69.0,251.164
251174.0,55.0,40.0,20.0,67.0,251.174
251184.0,56.0,41.0,31.0,69.0,251.184
251194.0,56.0,41.0,26.0,73.0,251.194
251204.0,55.0,40.0,24.0,74.0,251.204
251214.0,55.0,41.0,23.0,73.0,251.214
251224.0,56.0,42.0,21.0,72.0,251.224
251234.0,55.0,40.0,19.0,70.0,251.234
251244.0,54.0,41.0,28.0,71.0,251.244
251254.0,54.0,42.0,29.0,66.0,251.254
251264.0,53.0,41.0,32.0,66.0,251.264
251274.0,52.0,40.0,32.0,64.0,251.274
251284.0,51.0,39.0,30.0,65.0,251.284
251294.0,51.0,39.0,29.0,68.0,251.294
251304.0,51.0,38.0,27.0,73.0,251.304
251314.0,49.0,38.0,25.0,75.0,251.314
251324.0,49.0,37.0,25.0,77.0,251.324
251334.0,49.0,40.0,34.0,84.0,251.334
251344.0,50.0,41.0,31.0,90.0,251.344
251354.0,50.0,40.0,29.0,87.0,251.354
251364.0,50.0,41.0,35.0,84.0,251.364
251374.0,51.0,39.0,33.0,78.0,251.374
251384.0,51.0,41.0,51.0,76.0,251.384
251394.0,53.0,42.0,47.0,75.0,251.394
251404.0,52.0,40.0,42.0,75.0,251.404
251414.0,53.0,40.0,37.0,81.0,251.414
251424.0,52.0,40.0,37.0,79.0,251.424
251435.0,54.0,40.0,33.0,80.0,251.435
251445.0,54.0,38.0,33.0,78.0,251.445
251455.0,53.0,41.0,40.0,75.0,251.455
251465.0,55.0,42.0,38.0,75.0,251.465
251475.0,55.0,40.0,34.0,69.0,251.475
251485.0,54.0,40.0,32.0,66.0,251.485
251495.0,55.0,40.0,32.0,70.0,251.495
251505.0,54.0,39.0,28.0,68.0,251.505
251515.0,53.0,37.0,24.0,66.0,251.515
251525.0,52.0,38.0,22.0,66.0,251.525
251535.0,53.0,37.0,21.0,72.0,251.535
251545.0,52.0,38.0,28.0,73.0,251.545
251555.0,53.0,40.0,31.0,71.0,251.555
251565.0,54.0,39.0,27.0,70.0,251.565
251575.0,53.0,40.0,24.0,64.0,251.575
251585.0,52.0,38.0,23.0,60.0,251.585
251595.0,53.0,39.0,21.0,61.0,251.595
251606.0,53.0,38.0,21.0,61.0,251.606
251616.0,52.0,40.0,20.0,60.0,251.616
251626.0,53.0,40.0,20.0,64.0,251.626
251636.0,52.0,39.0,19.0,63.0,251.636
251646.0,51.0,40.0,24.0,66.0,251.646
251656.0,52.0,39.0,25.0,68.0,251.656
251666.0,51.0,39.0,24.0,71.0,251.666
251676.0,53.0,39.0,31.0,70.0,251.676
251686.0,53.0,38.0,30.0,67.0,251.686
251696.0,53.0,38.0,27.0,62.0,251.696
251706.0,53.0,37.0,24.0,73.0,251.706
251716.0,51.0,37.0,23.0,75.0,251.716
251726.0,53.0,36.0,24.0,72.0,251.726
251736.0,51.0,39.0,27.0,71.0,251.736
251746.0,51.0,40.0,29.0,66.0,251.746
251756.0,50.0,38.0,24.0,65.0,251.756
251766.0,48.0,38.0,25.0,79.0,251.766
251776.0,49.0,38.0,23.0,77.0,251.776
251786.0,48.0,38.0,24.0,74.0,251.786
251796.0,49.0,36.0,22.0,76.0,251.796
251806.0,47.0,37.0,19.0,73.0,251.806
251816.0,49.0,39.0,23.0,77.0,251.816
251826.0,49.0,40.0,21.0,92.0,251.826
251836.0,48.0,40.0,25.0,89.0,251.836
251846.0,48.0,41.0,25.0,84.0,251.846
251856.0,48.0,41.0,21.0,79.0,251.856
251866.0,47.0,40.0,32.0,76.0,251.866
251876.0,47.0,41.0,29.0,77.0,251.876
251886.0,47.0,40.0,27.0,73.0,251.886
251896.0,47.0,40.0,25.0,75.0,251.896
251906.0,47.0,41.0,24.0,72.0,251.906
251916.0,47.0,40.0,22.0,69.0,251.916
251926.0,46.0,43.0,19.0,71.0,251.926
251936.0,46.0,44.0,30.0,69.0,251.936
251947.0,46.0,43.0,28.0,67.0,251.947
251957.0,46.0,43.0,27.0,66.0,251.957
251967.0,46.0,41.0,23.0,62.0,251.967
251977.0,46.0,41.0,21.0,68.0,251.977
251987.0,46.0,41.0,22.0,65.0,251.987
251997.0,46.0,41.0,19.0,66.0,251.997
252007.0,47.0,42.0,23.0,65.0,252.007
252017.0,46.0,42.0,24.0,74.0,252.017
252027.0,47.0,41.0,25.0,75.0,252.027
252037.0,48.0,40.0,22.0,76.0,252.037
252047.0,49.0,39.0,21.0,74.0,252.047
252057.0,49.0,39.0,18.0,76.0,252.057
252067.0,50.0,39.0,19.0,73.0,252.067
252077.0,51.0,37.0,18.0,76.0,252.077
252087.0,50.0,39.0,16.0,73.0,252.087
252097.0,53.0,39.0,25.0,70.0,252.097
252107.0,51.0,39.0,22.0,67.0,252.107
252118.0,50.0,40.0,22.0,62.0,252.118
252128.0,53.0,39.0,19.0,60.0,252.128
252138.0,54.0,39.0,17.0,59.0,252.138
252148.0,54.0,38.0,17.0,70.0,252.148
252158.0,53.0,39.0,16.0,71.0,252.158
252168.0,55.0,38.0,16.0,70.0,252.168
252178.0,56.0,39.0,20.0,71.0,252.178
252188.0,56.0,39.0,18.0,70.0,252.188
252198.0,57.0,38.0,17.0,75.0,252.198
252208.0,56.0,38.0,14.0,72.0,252.208
252218.0,57.0,38.0,27.0,80.0,252.218
252228.0,57.0,38.0,23.0,81.0,252.228
252238.0,58.0,39.0,26.0,85.0,252.238
252248.0,57.0,38.0,25.0,82.0,252.248
252258.0,57.0,40.0,31.0,83.0,252.258
252268.0,59.0,40.0,30.0,79.0,252.268
252278.0,58.0,40.0,27.0,73.0,252.278
252288.0,56.0,39.0,23.0,86.0,252.288
252298.0,55.0,38.0,21.0,97.0,252.298
252308.0,53.0,38.0,25.0,99.0,252.308
252318.0,56.0,39.0,26.0,108.0,252.318
252328.0,56.0,40.0,26.0,115.0,252.328
252338.0,57.0,42.0,35.0,126.0,252.338
252348.0,57.0,43.0,34.0,127.0,252.348
252358.0,58.0,43.0,33.0,121.0,252.358
252368.0,57.0,42.0,31.0,112.0,252.368
252378.0,57.0,42.0,30.0,117.0,252.378
252388.0,58.0,42.0,27.0,111.0,252.388
252398.0,57.0,43.0,27.0,105.0,252.398
252408.0,60.0,46.0,36.0,102.0,252.408
252418.0,58.0,46.0,32.0,118.0,252.418
252428.0,57.0,46.0,36.0,122.0,252.428
252438.0,57.0,47.0,31.0,118.0,252.438
252448.0,58.0,47.0,29.0,124.0,252.448
252459.0,59.0,48.0,27.0,133.0,252.459
252469.0,58.0,51.0,22.0,133.0,252.469
252479.0,58.0,51.0,27.0,140.0,252.479
252489.0,59.0,55.0,24.0,133.0,252.489
252499.0,58.0,53.0,25.0,120.0,252.499
252509.0,59.0,54.0,25.0,113.0,252.509
252519.0,59.0,53.0,24.0,110.0,252.519
252529.0,60.0,54.0,21.0,107.0,252.529
252539.0,60.0,56.0,21.0,109.0,252.539
252549.0,61.0,56.0,19.0,103.0,252.549
252559.0,61.0,56.0,18.0,118.0,252.559
252569.0,62.0,55.0,37.0,122.0,252.569
252579.0,63.0,58.0,35.0,122.0,252.579
252589.0,64.0,57.0,31.0,122.0,252.589
252599.0,63.0,56.0,30.0,115.0,252.599
252609.0,64.0,56.0,26.0,105.0,252.609
252619.0,63.0,55.0,24.0,111.0,252.619
252630.0,62.0,54.0,20.0,117.0,252.63
252640.0,62.0,54.0,30.0,109.0,252.64
252650.0,60.0,53.0,30.0,118.0,252.65
252660.0,61.0,55.0,32.0,117.0,252.66
252670.0,60.0,54.0,27.0,117.0,252.67
252680.0,58.0,55.0,24.0,119.0,252.68
252690.0,58.0,53.0,22.0,113.0,252.69
252700.0,56.0,53.0,20.0,104.0,252.7
252710.0,56.0,52.0,23.0,98.0,252.71
252720.0,54.0,51.0,24.0,107.0,252.72
252730.0,54.0,50.0,29.0,107.0,252.73
252740.0,53.0,50.0,25.0,103.0,252.74
252750.0,52.0,52.0,27.0,100.0,252.75
252760.0,53.0,49.0,24.0,93.0,252.76
252770.0,52.0,51.0,24.0,96.0,252.77
252780.0,53.0,50.0,29.0,102.0,252.78
252790.0,53.0,51.0,27.0,109.0,252.79
252800.0,54.0,51.0,38.0,110.0,252.8
252810.0,56.0,51.0,36.0,99.0,252.81
252820.0,54.0,52.0,39.0,94.0,252.82
252830.0,54.0,53.0,38.0,93.0,252.83
252840.0,53.0,56.0,34.0,90.0,252.84
252850.0,52.0,55.0,32.0,90.0,252.85
252860.0,52.0,58.0,28.0,86.0,252.86
252870.0,52.0,59.0,27.0,88.0,252.87
252880.0,52.0,59.0,24.0,84.0,252.88
252890.0,50.0,60.0,29.0,85.0,252.89
252900.0,51.0,61.0,26.0,86.0,252.9
252910.0,50.0,61.0,26.0,87.0,252.91
252920.0,51.0,62.0,26.0,86.0,252.92
252930.0,50.0,62.0,22.0,84.0,252.93
252940.0,51.0,61.0,20.0,89.0,252.94
252950.0,52.0,62.0,28.0,98.0,252.95
252960.0,50.0,62.0,24.0,99.0,252.96
252971.0,51.0,65.0,24.0,101.0,252.971
252981.0,52.0,63.0,30.0,96.0,252.981
252991.0,52.0,64.0,29.0,94.0,252.991
253001.0,53.0,64.0,25.0,92.0,253.001
253011.0,51.0,65.0,38.0,88.0,253.011
253021.0,50.0,66.0,34.0,90.0,253.021
253031.0,50.0,67.0,31.0,83.0,253.031
253041.0,49.0,67.0,30.0,79.0,253.041
253051.0,49.0,67.0,35.0,77.0,253.051
253061.0,48.0,66.0,34.0,76.0,253.061
253071.0,50.0,67.0,31.0,75.0,253.071
253081.0,49.0,65.0,37.0,84.0,253.081
253091.0,52.0,66.0,40.0,83.0,253.091
253101.0,51.0,67.0,34.0,82.0,253.101
253111.0,51.0,66.0,32.0,77.0,253.111
253121.0,51.0,68.0,30.0,77.0,253.121
253131.0,51.0,66.0,30.0,75.0,253.131
253142.0,50.0,66.0,34.0,74.0,253.142
253152.0,51.0,65.0,40.0,71.0,253.152
253162.0,51.0,65.0,39.0,73.0,253.162
253172.0,50.0,66.0,36.0,69.0,253.172
253182.0,52.0,64.0,32.0,65.0,253.182
253192.0,52.0,62.0,30.0,62.0,253.192
253202.0,51.0,59.0,27.0,56.0,253.202
253212.0,52.0,58.0,25.0,60.0,253.212
253222.0,52.0,56.0,32.0,64.0,253.222
253232.0,54.0,57.0,40.0,75.0,253.232
253242.0,52.0,56.0,36.0,70.0,253.242
253252.0,53.0,57.0,32.0,65.0,253.252
253262.0,53.0,57.0,29.0,81.0,253.262
253272.0,53.0,57.0,26.0,83.0,253.272
253282.0,52.0,54.0,29.0,80.0,253.282
253292.0,53.0,57.0,40.0,84.0,253.292
253302.0,56.0,56.0,37.0,86.0,253.302
253312.0,56.0,56.0,33.0,80.0,253.312
253322.0,57.0,55.0,29.0,76.0,253.322
253332.0,57.0,53.0,27.0,88.0,253.332
253342.0,57.0,50.0,25.0,82.0,253.342
253352.0,56.0,50.0,28.0,83.0,253.352
253362.0,57.0,50.0,39.0,80.0,253.362
253372.0,59.0,51.0,35.0,75.0,253.372
253382.0,58.0,52.0,30.0,72.0,253.382
253392.0,58.0,53.0,28.0,72.0,253.392
253402.0,59.0,52.0,26.0,72.0,253.402
253412.0,59.0,52.0,30.0,84.0,253.412
253422.0,57.0,51.0,43.0,87.0,253.422
253432.0,60.0,55.0,40.0,86.0,253.432
253442.0,59.0,54.0,36.0,87.0,253.442
253452.0,59.0,54.0,30.0,85.0,253.452
253462.0,58.0,51.0,28.0,85.0,253.462
253472.0,58.0,53.0,30.0,82.0,253.472
253483.0,56.0,50.0,27.0,87.0,253.483
253493.0,57.0,52.0,37.0,84.0,253.493
253503.0,57.0,52.0,33.0,81.0,253.503
253513.0,58.0,51.0,29.0,82.0,253.513
253523.0,58.0,49.0,28.0,86.0,253.523
253533.0,59.0,49.0,30.0,84.0,253.533
253543.0,61.0,51.0,29.0,82.0,253.543
253553.0,62.0,52.0,43.0,92.0,253.553
253563.0,62.0,52.0,37.0,97.0,253.563
253573.0,62.0,52.0,34.0,93.0,253.573
253583.0,61.0,50.0,36.0,95.0,253.583
253593.0,60.0,50.0,35.0,97.0,253.593
253603.0,60.0,49.0,31.0,93.0,253.603
253613.0,58.0,47.0,29.0,91.0,253.613
253623.0,56.0,47.0,35.0,87.0,253.623
253633.0,57.0,48.0,31.0,83.0,253.633
253643.0,56.0,48.0,28.0,84.0,253.643
253654.0,56.0,46.0,28.0,80.0,253.654
253664.0,55.0,46.0,24.0,79.0,253.664
253674.0,56.0,47.0,22.0,79.0,253.674
253684.0,55.0,45.0,19.0,85.0,253.684
253694.0,56.0,44.0,20.0,78.0,253.694
253704.0,56.0,44.0,19.0,75.0,253.704
253714.0,57.0,46.0,22.0,88.0,253.714
253724.0,61.0,48.0,21.0,91.0,253.724
253734.0,60.0,48.0,20.0,85.0,253.734
253744.0,61.0,48.0,18.0,79.0,253.744
253754.0,60.0,47.0,17.0,80.0,253.754
253764.0,59.0,45.0,17.0,76.0,253.764
253774.0,62.0,44.0,15.0,72.0,253.774
253784.0,61.0,44.0,17.0,81.0,253.784
253794.0,64.0,46.0,30.0,79.0,253.794
253804.0,62.0,45.0,28.0,80.0,253.804
253814.0,63.0,44.0,24.0,79.0,253.814
253824.0,65.0,44.0,22.0,81.0,253.824
253834.0,65.0,42.0,20.0,77.0,253.834
253844.0,66.0,42.0,18.0,73.0,253.844
253854.0,65.0,44.0,30.0,79.0,253.854
253864.0,65.0,45.0,27.0,78.0,253.864
253874.0,64.0,44.0,23.0,75.0,253.874
253884.0,63.0,43.0,20.0,76.0,253.884
253894.0,65.0,43.0,18.0,78.0,253.894
253904.0,66.0,41.0,19.0,77.0,253.904
253914.0,65.0,41.0,24.0,79.0,253.914
253924.0,65.0,41.0,29.0,79.0,253.924
253934.0,67.0,42.0,32.0,79.0,253.934
253944.0,66.0,41.0,30.0,73.0,253.944
253954.0,68.0,41.0,29.0,74.0,253.954
253964.0,67.0,40.0,25.0,80.0,253.964
253974.0,67.0,38.0,22.0,78.0,253.974
253984.0,66.0,38.0,22.0,77.0,253.984
253995.0,65.0,39.0,24.0,77.0,253.995
254005.0,67.0,40.0,26.0,78.0,254.005
254015.0,65.0,40.0,34.0,83.0,254.015
254025.0,66.0,41.0,33.0,85.0,254.025
254035.0,69.0,42.0,29.0,84.0,254.035
254045.0,68.0,41.0,31.0,82.0,254.045
254055.0,69.0,41.0,36.0,81.0,254.055
254065.0,69.0,42.0,41.0,76.0,254.065
254075.0,69.0,42.0,37.0,81.0,254.075
254085.0,69.0,42.0,33.0,78.0,254.085
254095.0,70.0,41.0,29.0,93.0,254.095
254105.0,70.0,43.0,25.0,95.0,254.105
254115.0,69.0,43.0,31.0,90.0,254.115
254125.0,70.0,46.0,39.0,92.0,254.125
254135.0,69.0,47.0,35.0,87.0,254.135
254145.0,71.0,47.0,32.0,91.0,254.145
254155.0,70.0,47.0,30.0,91.0,254.155
254166.0,70.0,47.0,27.0,88.0,254.166
254176.0,69.0,47.0,25.0,86.0,254.176
254186.0,67.0,47.0,22.0,82.0,254.186
254196.0,66.0,46.0,20.0,81.0,254.196
254206.0,64.0,46.0,23.0,83.0,254.206
254216.0,64.0,46.0,37.0,88.0,254.216
254226.0,63.0,47.0,32.0,85.0,254.226
254236.0,62.0,45.0,31.0,81.0,254.236
254246.0,63.0,47.0,27.0,81.0,254.246
254256.0,64.0,46.0,26.0,80.0,254.256
254266.0,64.0,44.0,23.0,83.0,254.266
254276.0,65.0,43.0,21.0,86.0,254.276
254286.0,68.0,42.0,22.0,87.0,254.286
254296.0,68.0,43.0,29.0,86.0,254.296
254306.0,68.0,43.0,29.0,88.0,254.306
254316.0,68.0,43.0,26.0,85.0,254.316
254326.0,66.0,42.0,25.0,81.0,254.326
254336.0,66.0,40.0,23.0,76.0,254.336
254346.0,65.0,40.0,20.0,79.0,254.346
254356.0,65.0,41.0,31.0,81.0,254.356
254366.0,65.0,42.0,26.0,87.0,254.366
254376.0,66.0,43.0,28.0,83.0,254.376
254386.0,66.0,44.0,30.0,79.0,254.386
254396.0,66.0,44.0,27.0,81.0,254.396
254406.0,66.0,42.0,26.0,83.0,254.406
254416.0,65.0,44.0,23.0,82.0,254.416
254426.0,67.0,43.0,22.0,81.0,254.426
254436.0,66.0,44.0,24.0,83.0,254.436
254446.0,65.0,44.0,32.0,78.0,254.446
254456.0,64.0,43.0,30.0,77.0,254.456
254466.0,64.0,43.0,29.0,75.0,254.466
254476.0,64.0,42.0,26.0,80.0,254.476
254486.0,64.0,43.0,23.0,81.0,254.486
254496.0,64.0,43.0,22.0,75.0,254.496
254507.0,64.0,44.0,18.0,76.0,254.507
254517.0,64.0,44.0,20.0,74.0,254.517
254527.0,64.0,46.0,39.0,76.0,254.527
254537.0,64.0,45.0,37.0,75.0,254.537
254547.0,63.0,44.0,40.0,87.0,254.547
254557.0,63.0,44.0,35.0,89.0,254.557
254567.0,63.0,43.0,33.0,85.0,254.567
254577.0,62.0,42.0,28.0,83.0,254.577
254587.0,63.0,43.0,26.0,81.0,254.587
254597.0,65.0,43.0,23.0,83.0,254.597
254607.0,65.0,43.0,29.0,84.0,254.607
254617.0,64.0,42.0,36.0,80.0,254.617
254627.0,64.0,44.0,32.0,83.0,254.627
254637.0,64.0,44.0,31.0,78.0,254.637
254647.0,64.0,43.0,28.0,79.0,254.647
254657.0,65.0,45.0,24.0,81.0,254.657
254667.0,65.0,45.0,21.0,84.0,254.667
254678.0,63.0,47.0,24.0,79.0,254.678
254688.0,63.0,48.0,21.0,77.0,254.688
254698.0,60.0,46.0,20.0,75.0,254.698
254708.0,59.0,46.0,21.0,85.0,254.708
254718.0,58.0,45.0,19.0,86.0,254.718
254728.0,56.0,44.0,19.0,87.0,254.728
254738.0,55.0,43.0,18.0,93.0,254.738
254748.0,56.0,44.0,29.0,86.0,254.748
254758.0,55.0,43.0,39.0,80.0,254.758
254768.0,53.0,43.0,35.0,80.0,254.768
254778.0,55.0,42.0,39.0,79.0,254.778
254788.0,54.0,43.0,52.0,74.0,254.788
254798.0,53.0,42.0,50.0,78.0,254.798
254808.0,53.0,43.0,44.0,75.0,254.808
254818.0,53.0,43.0,47.0,73.0,254.818
254828.0,52.0,42.0,42.0,76.0,254.828
254838.0,51.0,43.0,37.0,75.0,254.838
254848.0,52.0,44.0,46.0,80.0,254.848
254858.0,51.0,45.0,42.0,88.0,254.858
254868.0,52.0,46.0,36.0,88.0,254.868
254878.0,51.0,47.0,32.0,88.0,254.878
254888.0,51.0,46.0,29.0,85.0,254.888
254898.0,51.0,46.0,26.0,80.0,254.898
254908.0,49.0,46.0,24.0,75.0,254.908
254918.0,51.0,45.0,31.0,101.0,254.918
254928.0,49.0,45.0,32.0,102.0,254.928
254938.0,50.0,45.0,32.0,102.0,254.938
254948.0,52.0,45.0,30.0,96.0,254.948
254958.0,53.0,46.0,27.0,96.0,254.958
254968.0,52.0,44.0,24.0,98.0,254.968
254978.0,53.0,47.0,21.0,99.0,254.978
254988.0,53.0,45.0,22.0,93.0,254.988
254998.0,52.0,46.0,28.0,93.0,254.998
255008.0,52.0,45.0,29.0,88.0,255.008
255019.0,52.0,45.0,30.0,91.0,255.019
255029.0,50.0,44.0,27.0,92.0,255.029
255039.0,50.0,44.0,24.0,97.0,255.039
255049.0,49.0,45.0,21.0,92.0,255.049
255059.0,47.0,45.0,28.0,94.0,255.059
255069.0,47.0,47.0,37.0,93.0,255.069
255079.0,47.0,47.0,36.0,96.0,255.079
255089.0,48.0,47.0,37.0,99.0,255.089
255099.0,48.0,50.0,33.0,98.0,255.099
255109.0,47.0,49.0,29.0,96.0,255.109
255119.0,47.0,49.0,25.0,92.0,255.119
255129.0,47.0,49.0,37.0,91.0,255.129
255139.0,47.0,47.0,38.0,85.0,255.139
255149.0,47.0,47.0,37.0,81.0,255.149
255159.0,47.0,46.0,34.0,94.0,255.159
255169.0,47.0,47.0,30.0,92.0,255.169
255179.0,47.0,46.0,27.0,90.0,255.179
255190.0,47.0,45.0,24.0,84.0,255.19
255200.0,48.0,47.0,37.0,91.0,255.2
255210.0,48.0,47.0,43.0,89.0,255.21
255220.0,48.0,47.0,37.0,86.0,255.22
255230.0,47.0,46.0,34.0,85.0,255.23
255240.0,48.0,46.0,30.0,88.0,255.24
255250.0,48.0,44.0,27.0,85.0,255.25
255260.0,49.0,44.0,25.0,81.0,255.26
255270.0,52.0,43.0,26.0,77.0,255.27
255280.0,49.0,43.0,35.0,81.0,255.28
255290.0,49.0,43.0,32.0,77.0,255.29
255300.0,48.0,41.0,33.0,76.0,255.3
255310.0,49.0,44.0,30.0,79.0,255.31
255320.0,48.0,42.0,29.0,79.0,255.32
255330.0,49.0,44.0,33.0,85.0,255.33
255340.0,48.0,45.0,32.0,85.0,255.34
255350.0,47.0,45.0,34.0,81.0,255.35
255360.0,47.0,46.0,33.0,90.0,255.36
255370.0,47.0,47.0,32.0,88.0,255.37
255380.0,45.0,49.0,33.0,85.0,255.38
255390.0,46.0,48.0,30.0,90.0,255.39
255400.0,47.0,49.0,27.0,85.0,255.4
255410.0,46.0,48.0,25.0,83.0,255.41
255420.0,46.0,48.0,23.0,82.0,255.42
255430.0,45.0,46.0,25.0,88.0,255.43
255440.0,47.0,48.0,33.0,84.0,255.44
255450.0,46.0,48.0,30.0,93.0,255.45
255460.0,46.0,48.0,26.0,93.0,255.46
255470.0,46.0,45.0,26.0,93.0,255.47
255480.0,46.0,44.0,27.0,99.0,255.48
255490.0,46.0,43.0,23.0,95.0,255.49
255500.0,46.0,43.0,38.0,104.0,255.5
255510.0,46.0,42.0,34.0,109.0,255.51
255520.0,46.0,42.0,31.0,104.0,255.52
255531.0,46.0,41.0,35.0,99.0,255.531
255541.0,47.0,40.0,36.0,94.0,255.541
255551.0,49.0,40.0,36.0,95.0,255.551
255561.0,47.0,40.0,32.0,94.0,255.561
255571.0,48.0,40.0,34.0,93.0,255.571
255581.0,49.0,41.0,43.0,91.0,255.581
255591.0,51.0,41.0,39.0,89.0,255.591
255601.0,51.0,39.0,34.0,96.0,255.601
255611.0,49.0,39.0,29.0,101.0,255.611
255621.0,49.0,40.0,29.0,98.0,255.621
255631.0,48.0,39.0,27.0,93.0,255.631
255641.0,50.0,40.0,32.0,91.0,255.641
255651.0,50.0,40.0,29.0,90.0,255.651
255661.0,50.0,41.0,32.0,106.0,255.661
255671.0,52.0,40.0,30.0,110.0,255.671
255681.0,53.0,39.0,26.0,103.0,255.681
255691.0,51.0,38.0,23.0,99.0,255.691
255702.0,52.0,39.0,22.0,93.0,255.702
255712.0,51.0,39.0,26.0,95.0,255.712
255722.0,51.0,37.0,27.0,96.0,255.722
255732.0,50.0,39.0,31.0,94.0,255.732
255742.0,50.0,38.0,33.0,96.0,255.742
255752.0,50.0,39.0,30.0,93.0,255.752
255762.0,51.0,38.0,29.0,95.0,255.762
255772.0,50.0,38.0,28.0,95.0,255.772
255782.0,50.0,38.0,26.0,91.0,255.782
255792.0,49.0,37.0,27.0,93.0,255.792
255802.0,49.0,41.0,38.0,88.0,255.802
255812.0,47.0,39.0,34.0,91.0,255.812
255822.0,47.0,40.0,30.0,89.0,255.822
255832.0,46.0,38.0,28.0,88.0,255.832
255842.0,45.0,38.0,26.0,83.0,255.842
255852.0,44.0,38.0,23.0,86.0,255.852
255862.0,45.0,37.0,20.0,89.0,255.862
255872.0,44.0,38.0,18.0,96.0,255.872
255882.0,46.0,38.0,35.0,108.0,255.882
255892.0,45.0,40.0,32.0,110.0,255.892
255902.0,45.0,38.0,34.0,104.0,255.902
255912.0,45.0,38.0,40.0,141.0,255.912
255922.0,44.0,38.0,36.0,146.0,255.922
255932.0,45.0,38.0,31.0,150.0,255.932
255942.0,45.0,38.0,27.0,159.0,255.942
255952.0,44.0,37.0,33.0,155.0,255.952
255962.0,45.0,40.0,53.0,150.0,255.962
255972.0,47.0,40.0,53.0,151.0,255.972
255982.0,48.0,41.0,46.0,147.0,255.982
255992.0,47.0,42.0,44.0,158.0,255.992
256002.0,48.0,43.0,44.0,167.0,256.002
256012.0,49.0,43.0,50.0,164.0,256.012
256022.0,50.0,43.0,46.0,160.0,256.022
256032.0,49.0,43.0,40.0,161.0,256.032
256043.0,51.0,43.0,39.0,156.0,256.043
256053.0,49.0,43.0,37.0,168.0,256.053
256063.0,48.0,44.0,39.0,187.0,256.063
256073.0,49.0,43.0,44.0,181.0,256.073
256083.0,48.0,43.0,50.0,168.0,256.083
256093.0,48.0,42.0,46.0,159.0,256.093
256103.0,48.0,42.0,40.0,157.0,256.103
256113.0,47.0,43.0,45.0,153.0,256.113
256123.0,48.0,43.0,39.0,152.0,256.123
256133.0,48.0,43.0,39.0,147.0,256.133
256143.0,47.0,41.0,40.0,138.0,256.143
256153.0,48.0,43.0,37.0,128.0,256.153
256163.0,47.0,41.0,33.0,116.0,256.163
256173.0,46.0,42.0,35.0,115.0,256.173
256183.0,46.0,42.0,50.0,121.0,256.183
256193.0,48.0,43.0,44.0,128.0,256.193
256203.0,48.0,42.0,42.0,128.0,256.203
256214.0,48.0,41.0,40.0,135.0,256.214
256224.0,48.0,42.0,41.0,136.0,256.224
256234.0,48.0,42.0,38.0,141.0,256.234
256244.0,48.0,43.0,43.0,140.0,256.244
256254.0,49.0,42.0,40.0,132.0,256.254
256264.0,49.0,41.0,36.0,132.0,256.264
256274.0,47.0,40.0,34.0,123.0,256.274
256284.0,48.0,39.0,29.0,124.0,256.284
256294.0,48.0,41.0,28.0,137.0,256.294
256304.0,48.0,40.0,27.0,130.0,256.304
256314.0,48.0,41.0,27.0,121.0,256.314
256324.0,51.0,40.0,28.0,115.0,256.324
256334.0,52.0,40.0,26.0,130.0,256.334
256344.0,51.0,40.0,26.0,133.0,256.344
256354.0,53.0,39.0,27.0,128.0,256.354
256364.0,51.0,44.0,46.0,125.0,256.364
256374.0,53.0,42.0,42.0,124.0,256.374
256384.0,53.0,41.0,37.0,128.0,256.384
256394.0,53.0,41.0,33.0,130.0,256.394
256404.0,53.0,41.0,34.0,130.0,256.404
256414.0,53.0,42.0,41.0,125.0,256.414
256424.0,53.0,40.0,36.0,132.0,256.424
256434.0,51.0,44.0,34.0,137.0,256.434
256444.0,52.0,44.0,42.0,152.0,256.444
256454.0,51.0,43.0,37.0,153.0,256.454
256464.0,52.0,43.0,36.0,149.0,256.464
256474.0,51.0,43.0,44.0,147.0,256.474
256484.0,52.0,43.0,39.0,146.0,256.484
256494.0,50.0,44.0,45.0,149.0,256.494
256504.0,51.0,46.0,43.0,157.0,256.504
256514.0,51.0,44.0,42.0,164.0,256.514
256524.0,52.0,45.0,46.0,161.0,256.524
256534.0,52.0,44.0,44.0,156.0,256.534
256544.0,55.0,43.0,39.0,156.0,256.544
256555.0,54.0,43.0,34.0,151.0,256.555
256565.0,56.0,43.0,31.0,187.0,256.565
256575.0,54.0,45.0,37.0,198.0,256.575
256585.0,54.0,42.0,33.0,202.0,256.585
256595.0,54.0,41.0,37.0,206.0,256.595
256605.0,56.0,43.0,49.0,203.0,256.605
256615.0,54.0,43.0,43.0,199.0,256.615
256625.0,52.0,44.0,51.0,223.0,256.625
256635.0,52.0,44.0,73.0,228.0,256.635
256645.0,53.0,47.0,69.0,233.0,256.645
256655.0,54.0,47.0,69.0,278.0,256.655
256665.0,54.0,46.0,71.0,271.0,256.665
256675.0,54.0,47.0,74.0,252.0,256.675
256685.0,55.0,46.0,71.0,251.0,256.685
256695.0,54.0,47.0,80.0,265.0,256.695
256705.0,55.0,49.0,109.0,274.0,256.705
256715.0,57.0,54.0,119.0,275.0,256.715
256726.0,57.0,52.0,120.0,298.0,256.726
256736.0,57.0,55.0,123.0,320.0,256.736
256746.0,60.0,57.0,136.0,301.0,256.746
256756.0,60.0,55.0,128.0,295.0,256.756
256766.0,58.0,54.0,113.0,291.0,256.766
256776.0,57.0,54.0,121.0,305.0,256.776
256786.0,57.0,53.0,137.0,304.0,256.786
256796.0,56.0,52.0,158.0,302.0,256.796
256806.0,56.0,51.0,161.0,294.0,256.806
256816.0,56.0,52.0,184.0,288.0,256.816
256826.0,57.0,51.0,192.0,298.0,256.826
256836.0,55.0,51.0,181.0,272.0,256.836
256846.0,54.0,52.0,180.0,252.0,256.846
256856.0,53.0,52.0,186.0,276.0,256.856
256866.0,53.0,50.0,215.0,273.0,256.866
256876.0,52.0,51.0,220.0,255.0,256.876
256886.0,53.0,50.0,234.0,243.0,256.886
256896.0,56.0,51.0,226.0,246.0,256.896
256906.0,54.0,53.0,220.0,240.0,256.906
256916.0,52.0,53.0,234.0,229.0,256.916
256926.0,53.0,56.0,257.0,230.0,256.926
256936.0,54.0,58.0,261.0,228.0,256.936
256946.0,55.0,61.0,250.0,233.0,256.946
256956.0,55.0,63.0,256.0,232.0,256.956
256966.0,57.0,67.0,236.0,226.0,256.966
256976.0,54.0,71.0,230.0,229.0,256.976
256986.0,53.0,71.0,240.0,225.0,256.986
256996.0,54.0,77.0,242.0,239.0,256.996
257006.0,53.0,74.0,246.0,227.0,257.006
257016.0,53.0,78.0,239.0,226.0,257.016
257026.0,53.0,80.0,239.0,245.0,257.026
257036.0,55.0,80.0,243.0,272.0,257.036
257046.0,58.0,83.0,251.0,271.0,257.046
257056.0,58.0,81.0,245.0,253.0,257.056
257067.0,57.0,82.0,229.0,228.0,257.067
257077.0,56.0,82.0,232.0,208.0,257.077
257087.0,56.0,82.0,218.0,225.0,257.087
257097.0,57.0,84.0,228.0,224.0,257.097
257107.0,56.0,83.0,219.0,211.0,257.107
257117.0,54.0,84.0,220.0,200.0,257.117
257127.0,54.0,81.0,220.0,192.0,257.127
257137.0,56.0,84.0,235.0,185.0,257.137
257147.0,59.0,80.0,244.0,209.0,257.147
257157.0,58.0,77.0,236.0,194.0,257.157
257167.0,58.0,78.0,229.0,198.0,257.167
257177.0,58.0,75.0,220.0,184.0,257.177
257187.0,58.0,75.0,198.0,176.0,257.187
257197.0,58.0,73.0,190.0,177.0,257.197
257207.0,56.0,76.0,184.0,180.0,257.207
257217.0,57.0,76.0,191.0,174.0,257.217
257227.0,58.0,71.0,183.0,170.0,257.227
257238.0,59.0,72.0,181.0,172.0,257.238
257248.0,59.0,67.0,167.0,169.0,257.248
257258.0,58.0,68.0,164.0,172.0,257.258
257268.0,57.0,65.0,154.0,167.0,257.268
257278.0,56.0,62.0,151.0,156.0,257.278
257288.0,53.0,64.0,144.0,177.0,257.288
257298.0,53.0,64.0,137.0,179.0,257.298
257308.0,55.0,62.0,140.0,170.0,257.308
257318.0,57.0,61.0,132.0,161.0,257.318
257328.0,55.0,59.0,127.0,173.0,257.328
257338.0,54.0,58.0,121.0,185.0,257.338
257348.0,55.0,57.0,116.0,185.0,257.348
257358.0,55.0,54.0,117.0,170.0,257.358
257368.0,56.0,52.0,119.0,176.0,257.368
257378.0,53.0,51.0,115.0,195.0,257.378
257388.0,52.0,50.0,106.0,182.0,257.388
257398.0,51.0,50.0,112.0,173.0,257.398
257408.0,52.0,47.0,125.0,163.0,257.408
257418.0,53.0,47.0,115.0,160.0,257.418
257428.0,53.0,46.0,106.0,160.0,257.428
257438.0,54.0,46.0,113.0,154.0,257.438
257448.0,54.0,45.0,110.0,146.0,257.448
257458.0,54.0,46.0,110.0,143.0,257.458
257468.0,53.0,44.0,120.0,144.0,257.468
257478.0,53.0,45.0,112.0,153.0,257.478
257488.0,52.0,47.0,100.0,149.0,257.488
257498.0,52.0,46.0,95.0,144.0,257.498
257508.0,53.0,45.0,99.0,147.0,257.508
257518.0,52.0,46.0,91.0,143.0,257.518
257528.0,52.0,46.0,88.0,152.0,257.528
257538.0,50.0,45.0,90.0,161.0,257.538
257548.0,51.0,45.0,90.0,173.0,257.548
257558.0,51.0,45.0,87.0,173.0,257.558
257568.0,51.0,48.0,88.0,168.0,257.568
257579.0,50.0,47.0,86.0,154.0,257.579
257589.0,49.0,46.0,79.0,146.0,257.589
257599.0,49.0,45.0,77.0,133.0,257.599
257609.0,48.0,46.0,73.0,126.0,257.609
257619.0,47.0,44.0,67.0,124.0,257.619
257629.0,46.0,45.0,61.0,119.0,257.629
257639.0,46.0,43.0,57.0,111.0,257.639
257649.0,46.0,44.0,60.0,111.0,257.649
257659.0,47.0,44.0,61.0,106.0,257.659
257669.0,46.0,42.0,60.0,96.0,257.669
257679.0,45.0,43.0,53.0,98.0,257.679
257689.0,46.0,42.0,61.0,103.0,257.689
257699.0,45.0,45.0,59.0,126.0,257.699
257709.0,47.0,45.0,53.0,119.0,257.709
257719.0,47.0,44.0,48.0,113.0,257.719
257729.0,47.0,45.0,53.0,104.0,257.729
257739.0,50.0,46.0,64.0,99.0,257.739
257750.0,51.0,44.0,67.0,108.0,257.75
257760.0,52.0,45.0,68.0,113.0,257.76
257770.0,54.0,45.0,64.0,113.0,257.77
257780.0,54.0,43.0,59.0,116.0,257.78
257790.0,56.0,45.0,59.0,118.0,257.79
257800.0,56.0,44.0,54.0,114.0,257.8
257810.0,58.0,42.0,50.0,118.0,257.81
257820.0,57.0,42.0,57.0,117.0,257.82
257830.0,57.0,42.0,59.0,130.0,257.83
257840.0,56.0,45.0,55.0,147.0,257.84
257850.0,58.0,45.0,54.0,149.0,257.85
257860.0,56.0,45.0,51.0,138.0,257.86
257870.0,57.0,45.0,57.0,132.0,257.87
257880.0,59.0,44.0,53.0,171.0,257.88
257890.0,58.0,45.0,72.0,170.0,257.89
257900.0,60.0,44.0,69.0,172.0,257.9
257910.0,59.0,44.0,59.0,168.0,257.91
257920.0,59.0,43.0,62.0,171.0,257.92
257930.0,61.0,42.0,67.0,180.0,257.93
257940.0,59.0,43.0,79.0,173.0,257.94
257950.0,62.0,45.0,93.0,172.0,257.95
257960.0,59.0,44.0,83.0,165.0,257.96
257970.0,60.0,43.0,75.0,157.0,257.97
257980.0,59.0,43.0,67.0,177.0,257.98
257990.0,58.0,44.0,63.0,160.0,257.99
258000.0,59.0,45.0,61.0,148.0,258.0
258010.0,57.0,45.0,79.0,163.0,258.01
258020.0,57.0,44.0,74.0,164.0,258.02
258030.0,56.0,44.0,68.0,169.0,258.03
258040.0,55.0,45.0,66.0,159.0,258.04
258050.0,56.0,45.0,71.0,156.0,258.05
258060.0,55.0,43.0,63.0,153.0,258.06
258070.0,56.0,42.0,57.0,152.0,258.07
258080.0,56.0,43.0,54.0,145.0,258.08
258091.0,56.0,43.0,49.0,142.0,258.091
258101.0,55.0,44.0,53.0,153.0,258.101
258111.0,55.0,44.0,60.0,156.0,258.111
258121.0,55.0,45.0,58.0,179.0,258.121
258131.0,55.0,44.0,59.0,164.0,258.131
258141.0,56.0,44.0,57.0,151.0,258.141
258151.0,57.0,43.0,50.0,137.0,258.151
258161.0,58.0,45.0,63.0,141.0,258.161
258171.0,60.0,46.0,68.0,139.0,258.171
258181.0,61.0,45.0,62.0,134.0,258.181
258191.0,60.0,44.0,60.0,129.0,258.191
258201.0,58.0,44.0,54.0,126.0,258.201
258211.0,58.0,44.0,54.0,130.0,258.211
258221.0,59.0,45.0,76.0,159.0,258.221
258231.0,61.0,48.0,94.0,174.0,258.231
258241.0,62.0,48.0,102.0,172.0,258.241
258251.0,64.0,48.0,93.0,174.0,258.251
258262.0,65.0,50.0,108.0,199.0,258.262
258272.0,69.0,53.0,106.0,199.0,258.272
258282.0,69.0,52.0,113.0,206.0,258.282
258292.0,68.0,57.0,137.0,235.0,258.292
258302.0,71.0,59.0,168.0,255.0,258.302
258312.0,73.0,59.0,154.0,256.0,258.312
258322.0,76.0,60.0,148.0,269.0,258.322
258332.0,79.0,68.0,188.0,358.0,258.332
258342.0,80.0,65.0,175.0,340.0,258.342
258352.0,81.0,63.0,161.0,336.0,258.352
258362.0,81.0,67.0,157.0,336.0,258.362
258372.0,82.0,67.0,157.0,349.0,258.372
258382.0,81.0,69.0,142.0,314.0,258.382
258392.0,78.0,72.0,132.0,305.0,258.392
258402.0,78.0,69.0,121.0,293.0,258.402
258412.0,78.0,68.0,111.0,274.0,258.412
258422.0,74.0,62.0,103.0,278.0,258.422
258432.0,72.0,62.0,98.0,289.0,258.432
258442.0,74.0,66.0,101.0,288.0,258.442
258452.0,74.0,66.0,96.0,260.0,258.452
258462.0,73.0,63.0,93.0,259.0,258.462
258472.0,70.0,61.0,83.0,271.0,258.472
258482.0,69.0,62.0,83.0,278.0,258.482
258492.0,66.0,65.0,88.0,262.0,258.492
258502.0,65.0,64.0,92.0,260.0,258.502
258512.0,65.0,60.0,87.0,275.0,258.512
258522.0,63.0,59.0,83.0,280.0,258.522
258532.0,60.0,56.0,75.0,262.0,258.532
258542.0,59.0,55.0,74.0,254.0,258.542
258552.0,59.0,57.0,86.0,241.0,258.552
258562.0,58.0,54.0,79.0,221.0,258.562
258572.0,58.0,53.0,73.0,240.0,258.572
258582.0,57.0,52.0,73.0,223.0,258.582
258592.0,56.0,53.0,71.0,207.0,258.592
258603.0,57.0,51.0,68.0,198.0,258.603
258613.0,57.0,50.0,64.0,190.0,258.613
258623.0,56.0,50.0,62.0,188.0,258.623
258633.0,59.0,49.0,70.0,198.0,258.633
258643.0,58.0,50.0,68.0,210.0,258.643
258653.0,62.0,52.0,70.0,230.0,258.653
258663.0,62.0,50.0,63.0,218.0,258.663
258673.0,59.0,49.0,57.0,205.0,258.673
258683.0,59.0,48.0,56.0,195.0,258.683
258693.0,56.0,49.0,52.0,185.0,258.693
258703.0,57.0,48.0,56.0,189.0,258.703
258713.0,56.0,48.0,55.0,186.0,258.713
258723.0,57.0,48.0,57.0,179.0,258.723
258733.0,55.0,47.0,59.0,176.0,258.733
258743.0,56.0,47.0,54.0,166.0,258.743
258753.0,56.0,47.0,48.0,192.0,258.753
258763.0,56.0,45.0,43.0,188.0,258.763
258774.0,59.0,44.0,44.0,170.0,258.774
258784.0,57.0,45.0,41.0,162.0,258.784
258794.0,59.0,44.0,47.0,154.0,258.794
258804.0,57.0,45.0,45.0,156.0,258.804
258814.0,55.0,43.0,40.0,145.0,258.814
258824.0,57.0,44.0,38.0,147.0,258.824
258834.0,55.0,43.0,37.0,136.0,258.834
258844.0,54.0,43.0,35.0,125.0,258.844
258854.0,53.0,44.0,41.0,135.0,258.854
258864.0,52.0,44.0,42.0,142.0,258.864
258874.0,52.0,44.0,46.0,144.0,258.874
258884.0,52.0,43.0,46.0,134.0,258.884
258894.0,52.0,44.0,41.0,134.0,258.894
258904.0,51.0,45.0,38.0,128.0,258.904
258914.0,52.0,43.0,33.0,121.0,258.914
258924.0,50.0,45.0,29.0,128.0,258.924
258934.0,50.0,44.0,26.0,128.0,258.934
258944.0,49.0,46.0,29.0,128.0,258.944
258954.0,51.0,48.0,31.0,134.0,258.954
258964.0,52.0,49.0,41.0,139.0,258.964
258974.0,53.0,50.0,38.0,128.0,258.974
258984.0,53.0,47.0,35.0,124.0,258.984
258994.0,52.0,48.0,31.0,128.0,258.994
259004.0,54.0,45.0,28.0,122.0,259.004
259014.0,53.0,44.0,29.0,123.0,259.014
259024.0,52.0,43.0,26.0,119.0,259.024
259034.0,54.0,43.0,25.0,126.0,259.034
259044.0,54.0,43.0,24.0,127.0,259.044
259054.0,54.0,44.0,36.0,140.0,259.054
259064.0,56.0,47.0,37.0,149.0,259.064
259074.0,56.0,44.0,35.0,159.0,259.074
259084.0,57.0,45.0,32.0,150.0,259.084
259094.0,56.0,43.0,29.0,139.0,259.094
259104.0,56.0,43.0,29.0,147.0,259.104
259115.0,55.0,43.0,28.0,140.0,259.115
259125.0,54.0,41.0,25.0,135.0,259.125
259135.0,54.0,42.0,23.0,148.0,259.135
259145.0,54.0,42.0,52.0,153.0,259.145
259155.0,55.0,42.0,47.0,151.0,259.155
259165.0,55.0,42.0,43.0,154.0,259.165
259175.0,55.0,42.0,40.0,162.0,259.175
259185.0,54.0,42.0,37.0,157.0,259.185
259195.0,55.0,44.0,41.0,147.0,259.195
259205.0,55.0,42.0,38.0,134.0,259.205
259215.0,54.0,40.0,39.0,124.0,259.215
259225.0,55.0,41.0,39.0,136.0,259.225
259235.0,56.0,40.0,35.0,143.0,259.235
259245.0,56.0,39.0,33.0,151.0,259.245
259255.0,56.0,42.0,33.0,144.0,259.255
259265.0,56.0,41.0,29.0,129.0,259.265
259275.0,56.0,40.0,26.0,133.0,259.275
259286.0,57.0,38.0,25.0,126.0,259.286
259296.0,57.0,40.0,24.0,139.0,259.296
259306.0,57.0,39.0,23.0,139.0,259.306
259316.0,57.0,39.0,21.0,126.0,259.316
259326.0,55.0,37.0,18.0,114.0,259.326
259336.0,54.0,37.0,18.0,105.0,259.336
259346.0,53.0,36.0,15.0,99.0,259.346
259356.0,53.0,37.0,21.0,105.0,259.356
259366.0,53.0,37.0,21.0,110.0,259.366
259376.0,53.0,39.0,24.0,113.0,259.376
259386.0,55.0,45.0,22.0,137.0,259.386
259396.0,54.0,44.0,20.0,144.0,259.396
259406.0,55.0,45.0,25.0,142.0,259.406
259416.0,53.0,46.0,23.0,145.0,259.416
259426.0,54.0,44.0,21.0,142.0,259.426
259436.0,54.0,43.0,20.0,140.0,259.436
259446.0,53.0,43.0,23.0,137.0,259.446
259456.0,53.0,42.0,20.0,123.0,259.456
259466.0,51.0,42.0,18.0,113.0,259.466
259476.0,50.0,41.0,16.0,116.0,259.476
259486.0,48.0,41.0,15.0,112.0,259.486
259496.0,49.0,40.0,18.0,106.0,259.496
259506.0,49.0,41.0,22.0,127.0,259.506
259516.0,48.0,42.0,29.0,132.0,259.516
259526.0,48.0,41.0,26.0,121.0,259.526
259536.0,46.0,43.0,26.0,116.0,259.536
259546.0,47.0,40.0,24.0,112.0,259.546
259556.0,46.0,42.0,21.0,123.0,259.556
259566.0,46.0,42.0,21.0,118.0,259.566
259576.0,46.0,42.0,17.0,114.0,259.576
259586.0,45.0,41.0,23.0,121.0,259.586
259596.0,45.0,41.0,30.0,120.0,259.596
259606.0,46.0,41.0,36.0,123.0,259.606
259616.0,46.0,42.0,33.0,117.0,259.616
259627.0,47.0,41.0,33.0,127.0,259.627
259637.0,47.0,43.0,32.0,114.0,259.637
259647.0,46.0,42.0,28.0,126.0,259.647
259657.0,46.0,41.0,24.0,124.0,259.657
259667.0,47.0,41.0,22.0,118.0,259.667
259677.0,44.0,41.0,24.0,118.0,259.677
259687.0,46.0,40.0,32.0,118.0,259.687
259697.0,45.0,41.0,30.0,112.0,259.697
259707.0,46.0,41.0,38.0,114.0,259.707
259717.0,46.0,43.0,37.0,110.0,259.717
259727.0,45.0,42.0,37.0,110.0,259.727
259737.0,45.0,41.0,33.0,103.0,259.737
259747.0,46.0,41.0,28.0,112.0,259.747
259757.0,45.0,40.0,26.0,113.0,259.757
259767.0,45.0,39.0,23.0,112.0,259.767
259777.0,45.0,39.0,24.0,114.0,259.777
259787.0,45.0,39.0,21.0,107.0,259.787
259798.0,46.0,39.0,27.0,112.0,259.798
259808.0,46.0,40.0,33.0,111.0,259.808
259818.0,46.0,40.0,30.0,108.0,259.818
259828.0,45.0,39.0,27.0,103.0,259.828
259838.0,45.0,39.0,24.0,111.0,259.838
259848.0,44.0,38.0,22.0,114.0,259.848
259858.0,44.0,38.0,19.0,123.0,259.858
259868.0,44.0,38.0,18.0,125.0,259.868
259878.0,43.0,37.0,16.0,119.0,259.878
259888.0,43.0,38.0,16.0,118.0,259.888
259898.0,44.0,37.0,26.0,112.0,259.898
259908.0,44.0,39.0,35.0,106.0,259.908
259918.0,45.0,38.0,31.0,95.0,259.918
259928.0,45.0,39.0,30.0,98.0,259.928
259938.0,44.0,39.0,28.0,93.0,259.938
259948.0,43.0,41.0,24.0,89.0,259.948
259958.0,43.0,41.0,23.0,104.0,259.958
259968.0,44.0,40.0,22.0,106.0,259.968
259978.0,43.0,40.0,19.0,101.0,259.978
259988.0,44.0,39.0,18.0,94.0,259.988
259998.0,44.0,38.0,16.0,97.0,259.998
260008.0,42.0,37.0,18.0,93.0,260.008
260018.0,43.0,37.0,21.0,101.0,260.018
260028.0,43.0,38.0,20.0,97.0,260.028
260038.0,44.0,38.0,19.0,90.0,260.038
260048.0,44.0,38.0,17.0,88.0,260.048
260058.0,45.0,37.0,17.0,83.0,260.058
260068.0,45.0,37.0,16.0,92.0,260.068
260078.0,46.0,37.0,16.0,103.0,260.078
260088.0,47.0,38.0,15.0,95.0,260.088
260098.0,46.0,39.0,16.0,92.0,260.098
260108.0,46.0,38.0,21.0,103.0,260.108
260118.0,47.0,41.0,18.0,101.0,260.118
260128.0,47.0,39.0,19.0,112.0,260.128
260139.0,47.0,38.0,21.0,104.0,260.139
260149.0,46.0,40.0,26.0,100.0,260.149
260159.0,48.0,42.0,26.0,99.0,260.159
260169.0,48.0,41.0,23.0,96.0,260.169
260179.0,48.0,38.0,20.0,87.0,260.179
260189.0,47.0,39.0,18.0,81.0,260.189
260199.0,47.0,38.0,17.0,81.0,260.199
260209.0,47.0,39.0,16.0,83.0,260.209
260219.0,46.0,40.0,22.0,88.0,260.219
260229.0,47.0,41.0,20.0,83.0,260.229
260239.0,48.0,42.0,19.0,89.0,260.239
260249.0,49.0,43.0,23.0,95.0,260.249
260259.0,49.0,44.0,21.0,100.0,260.259
260269.0,47.0,43.0,20.0,102.0,260.269
260279.0,48.0,42.0,17.0,93.0,260.279
260289.0,48.0,43.0,15.0,102.0,260.289
260299.0,48.0,42.0,15.0,104.0,260.299
260310.0,48.0,44.0,14.0,105.0,260.31
260320.0,50.0,44.0,15.0,119.0,260.32
260330.0,50.0,45.0,13.0,116.0,260.33
260340.0,50.0,42.0,12.0,106.0,260.34
260350.0,50.0,42.0,13.0,123.0,260.35
260360.0,52.0,45.0,23.0,140.0,260.36
260370.0,52.0,43.0,23.0,133.0,260.37
260380.0,52.0,42.0,22.0,127.0,260.38
260390.0,53.0,42.0,20.0,118.0,260.39
260400.0,52.0,41.0,17.0,107.0,260.4
260410.0,51.0,40.0,15.0,104.0,260.41
260420.0,51.0,39.0,14.0,109.0,260.42
260430.0,49.0,39.0,14.0,121.0,260.43
260440.0,50.0,39.0,21.0,122.0,260.44
260450.0,50.0,39.0,19.0,123.0,260.45
260460.0,49.0,37.0,17.0,117.0,260.46
260470.0,49.0,39.0,19.0,118.0,260.47
260480.0,49.0,39.0,18.0,115.0,260.48
260490.0,49.0,39.0,16.0,112.0,260.49
260500.0,49.0,38.0,13.0,104.0,260.5
260510.0,47.0,37.0,14.0,114.0,260.51
260520.0,48.0,37.0,12.0,111.0,260.52
260530.0,47.0,37.0,12.0,106.0,260.53
260540.0,47.0,36.0,13.0,115.0,260.54
260550.0,47.0,36.0,13.0,110.0,260.55
260560.0,48.0,35.0,13.0,102.0,260.56
260570.0,48.0,38.0,18.0,107.0,260.57
260580.0,50.0,38.0,19.0,105.0,260.58
260590.0,49.0,41.0,19.0,104.0,260.59
260600.0,48.0,40.0,17.0,96.0,260.6
260610.0,47.0,40.0,19.0,109.0,260.61
260620.0,47.0,40.0,18.0,107.0,260.62
260630.0,48.0,41.0,16.0,112.0,260.63
260640.0,47.0,40.0,15.0,108.0,260.64
260651.0,47.0,41.0,16.0,106.0,260.651
260661.0,48.0,42.0,18.0,103.0,260.661
260671.0,48.0,42.0,22.0,92.0,260.671
260681.0,47.0,42.0,19.0,104.0,260.681
260691.0,46.0,43.0,22.0,106.0,260.691
260701.0,47.0,42.0,19.0,100.0,260.701
260711.0,46.0,42.0,18.0,105.0,260.711
260721.0,49.0,42.0,16.0,111.0,260.721
260731.0,48.0,43.0,16.0,118.0,260.731
260741.0,47.0,42.0,19.0,114.0,260.741
260751.0,48.0,43.0,17.0,112.0,260.751
260761.0,48.0,43.0,20.0,116.0,260.761
260771.0,49.0,42.0,17.0,112.0,260.771
260781.0,49.0,42.0,19.0,114.0,260.781
260791.0,50.0,41.0,17.0,110.0,260.791
260801.0,52.0,41.0,16.0,103.0,260.801
260811.0,53.0,40.0,16.0,102.0,260.811
260822.0,54.0,41.0,14.0,97.0,260.822
260832.0,54.0,40.0,13.0,112.0,260.832
260842.0,56.0,40.0,13.0,128.0,260.842
260852.0,55.0,41.0,14.0,121.0,260.852
260862.0,58.0,40.0,13.0,109.0,260.862
260872.0,55.0,41.0,14.0,114.0,260.872
260882.0,57.0,44.0,28.0,106.0,260.882
260892.0,58.0,44.0,25.0,101.0,260.892
260902.0,57.0,42.0,22.0,104.0,260.902
260912.0,59.0,41.0,24.0,105.0,260.912
260922.0,58.0,42.0,23.0,99.0,260.922
260932.0,58.0,41.0,20.0,96.0,260.932
260942.0,59.0,43.0,19.0,96.0,260.942
260952.0,59.0,42.0,17.0,90.0,260.952
260962.0,58.0,42.0,16.0,108.0,260.962
260972.0,59.0,41.0,14.0,98.0,260.972
260982.0,60.0,40.0,13.0,95.0,260.982
260992.0,58.0,40.0,11.0,88.0,260.992
261002.0,59.0,40.0,11.0,86.0,261.002
261012.0,59.0,40.0,10.0,86.0,261.012
261022.0,57.0,41.0,18.0,79.0,261.022
261032.0,58.0,42.0,17.0,91.0,261.032
261042.0,56.0,41.0,17.0,93.0,261.042
261052.0,58.0,41.0,16.0,91.0,261.052
261062.0,58.0,40.0,14.0,87.0,261.062
261072.0,58.0,40.0,13.0,87.0,261.072
261082.0,57.0,39.0,16.0,99.0,261.082
261092.0,57.0,39.0,14.0,96.0,261.092
261102.0,56.0,38.0,13.0,100.0,261.102
261112.0,56.0,38.0,11.0,95.0,261.112
261122.0,58.0,39.0,24.0,95.0,261.122
261132.0,56.0,40.0,20.0,97.0,261.132
261142.0,56.0,40.0,28.0,93.0,261.142
261152.0,57.0,41.0,29.0,100.0,261.152
