time (ms),signal 0,signal 1,signal 2,signal3,time (sec)
205628.0,41.0,73.0,6.0,86.0,205.628
205638.0,42.0,72.0,6.0,98.0,205.638
205648.0,41.0,73.0,7.0,97.0,205.648
205658.0,43.0,74.0,8.0,94.0,205.658
205668.0,43.0,75.0,7.0,95.0,205.668
205678.0,42.0,73.0,6.0,89.0,205.678
205688.0,43.0,73.0,6.0,115.0,205.688
205698.0,42.0,74.0,5.0,110.0,205.698
205708.0,43.0,74.0,6.0,106.0,205.708
205718.0,42.0,74.0,5.0,101.0,205.718
205728.0,44.0,75.0,8.0,99.0,205.728
205739.0,43.0,74.0,6.0,109.0,205.739
205749.0,42.0,74.0,6.0,105.0,205.749
205759.0,42.0,74.0,6.0,102.0,205.759
205769.0,42.0,75.0,6.0,94.0,205.769
205779.0,43.0,70.0,6.0,94.0,205.779
205789.0,42.0,71.0,5.0,91.0,205.789
205799.0,43.0,69.0,6.0,94.0,205.799
205809.0,42.0,67.0,5.0,104.0,205.809
205819.0,43.0,66.0,7.0,99.0,205.819
205829.0,43.0,65.0,7.0,98.0,205.829
205839.0,43.0,66.0,6.0,94.0,205.839
205849.0,43.0,64.0,6.0,100.0,205.849
205859.0,42.0,65.0,5.0,95.0,205.859
205869.0,43.0,64.0,7.0,90.0,205.869
205879.0,42.0,65.0,6.0,84.0,205.879
205889.0,42.0,64.0,7.0,83.0,205.889
205899.0,42.0,64.0,7.0,84.0,205.899
205910.0,42.0,65.0,6.0,89.0,205.91
205920.0,41.0,62.0,6.0,86.0,205.92
205930.0,41.0,63.0,5.0,80.0,205.93
205940.0,43.0,62.0,9.0,78.0,205.94
205950.0,42.0,62.0,6.0,94.0,205.95
205960.0,43.0,64.0,6.0,96.0,205.96
205970.0,43.0,63.0,7.0,105.0,205.97
205980.0,42.0,64.0,5.0,102.0,205.98
205990.0,43.0,64.0,6.0,98.0,205.99
206000.0,43.0,67.0,5.0,101.0,206.0
206010.0,44.0,67.0,6.0,108.0,206.01
206020.0,44.0,66.0,5.0,111.0,206.02
206030.0,44.0,66.0,7.0,107.0,206.03
206040.0,45.0,66.0,6.0,104.0,206.04
206050.0,45.0,66.0,6.0,100.0,206.05
206060.0,46.0,66.0,6.0,99.0,206.06
206070.0,47.0,68.0,5.0,102.0,206.07
206080.0,48.0,68.0,6.0,101.0,206.08
206090.0,48.0,69.0,6.0,98.0,206.09
206100.0,48.0,69.0,6.0,96.0,206.1
206110.0,49.0,69.0,5.0,93.0,206.11
206120.0,50.0,70.0,6.0,87.0,206.12
206130.0,50.0,70.0,6.0,99.0,206.13
206140.0,49.0,68.0,5.0,98.0,206.14
206150.0,52.0,67.0,5.0,96.0,206.15
206160.0,51.0,66.0,4.0,92.0,206.16
206170.0,50.0,65.0,5.0,93.0,206.17
206180.0,52.0,66.0,6.0,94.0,206.18
206190.0,51.0,68.0,5.0,102.0,206.19
206200.0,51.0,68.0,5.0,98.0,206.2
206210.0,50.0,68.0,5.0,96.0,206.21
206220.0,49.0,67.0,6.0,89.0,206.22
206230.0,50.0,67.0,8.0,94.0,206.23
206240.0,50.0,66.0,7.0,91.0,206.24
206251.0,51.0,65.0,8.0,103.0,206.251
206261.0,51.0,66.0,8.0,115.0,206.261
206271.0,51.0,64.0,7.0,110.0,206.271
206281.0,50.0,65.0,7.0,105.0,206.281
206291.0,50.0,63.0,8.0,106.0,206.291
206301.0,49.0,62.0,8.0,108.0,206.301
206311.0,49.0,61.0,7.0,101.0,206.311
206321.0,49.0,59.0,7.0,104.0,206.321
206331.0,49.0,60.0,9.0,110.0,206.331
206341.0,49.0,60.0,7.0,103.0,206.341
206351.0,49.0,62.0,8.0,110.0,206.351
206361.0,51.0,61.0,9.0,106.0,206.361
206371.0,50.0,62.0,6.0,101.0,206.371
206381.0,50.0,62.0,6.0,98.0,206.381
206391.0,49.0,61.0,6.0,93.0,206.391
206401.0,49.0,61.0,7.0,99.0,206.401
206411.0,50.0,60.0,8.0,101.0,206.411
206422.0,48.0,60.0,7.0,94.0,206.422
206432.0,47.0,59.0,8.0,97.0,206.432
206442.0,47.0,60.0,6.0,99.0,206.442
206452.0,46.0,60.0,7.0,110.0,206.452
206462.0,46.0,60.0,8.0,104.0,206.462
206472.0,46.0,60.0,6.0,110.0,206.472
206482.0,47.0,58.0,6.0,102.0,206.482
206492.0,47.0,58.0,5.0,106.0,206.492
206502.0,47.0,58.0,6.0,102.0,206.502
206512.0,45.0,60.0,6.0,103.0,206.512
206522.0,46.0,61.0,6.0,105.0,206.522
206532.0,44.0,60.0,6.0,108.0,206.532
206542.0,43.0,62.0,5.0,101.0,206.542
206552.0,44.0,61.0,7.0,105.0,206.552
206562.0,44.0,63.0,6.0,102.0,206.562
206572.0,47.0,64.0,7.0,101.0,206.572
206582.0,46.0,63.0,6.0,94.0,206.582
206592.0,47.0,63.0,6.0,100.0,206.592
206602.0,46.0,61.0,5.0,97.0,206.602
206612.0,46.0,63.0,5.0,94.0,206.612
206622.0,47.0,62.0,6.0,90.0,206.622
206632.0,46.0,62.0,5.0,99.0,206.632
206642.0,46.0,61.0,6.0,99.0,206.642
206652.0,46.0,61.0,4.0,95.0,206.652
206662.0,46.0,59.0,7.0,92.0,206.662
206672.0,47.0,59.0,6.0,101.0,206.672
206682.0,46.0,58.0,6.0,96.0,206.682
206692.0,47.0,57.0,6.0,100.0,206.692
206702.0,47.0,55.0,5.0,103.0,206.702
206712.0,49.0,55.0,5.0,102.0,206.712
206722.0,50.0,54.0,7.0,101.0,206.722
206732.0,48.0,53.0,6.0,95.0,206.732
206742.0,48.0,53.0,6.0,95.0,206.742
206752.0,49.0,56.0,6.0,92.0,206.752
206763.0,49.0,54.0,6.0,90.0,206.763
206773.0,49.0,54.0,5.0,92.0,206.773
206783.0,50.0,52.0,7.0,93.0,206.783
206793.0,50.0,54.0,6.0,104.0,206.793
206803.0,49.0,55.0,6.0,109.0,206.803
206813.0,51.0,56.0,6.0,102.0,206.813
206823.0,51.0,55.0,5.0,98.0,206.823
206833.0,50.0,54.0,6.0,98.0,206.833
206843.0,48.0,54.0,5.0,89.0,206.843
206853.0,48.0,53.0,5.0,82.0,206.853
206863.0,48.0,55.0,4.0,77.0,206.863
206873.0,46.0,57.0,5.0,73.0,206.873
206883.0,47.0,58.0,4.0,75.0,206.883
206893.0,46.0,60.0,3.0,80.0,206.893
206903.0,45.0,60.0,5.0,80.0,206.903
206913.0,45.0,62.0,5.0,77.0,206.913
206923.0,44.0,64.0,6.0,81.0,206.923
206934.0,44.0,65.0,6.0,83.0,206.934
206944.0,44.0,69.0,6.0,89.0,206.944
206954.0,43.0,69.0,7.0,89.0,206.954
206964.0,43.0,68.0,7.0,95.0,206.964
206974.0,44.0,68.0,8.0,110.0,206.974
206984.0,43.0,69.0,7.0,104.0,206.984
206994.0,44.0,70.0,7.0,101.0,206.994
207004.0,44.0,71.0,6.0,96.0,207.004
207014.0,44.0,72.0,6.0,102.0,207.014
207024.0,44.0,71.0,6.0,110.0,207.024
207034.0,43.0,73.0,5.0,103.0,207.034
207044.0,45.0,72.0,6.0,96.0,207.044
207054.0,45.0,71.0,6.0,101.0,207.054
207064.0,44.0,72.0,6.0,96.0,207.064
207074.0,45.0,70.0,5.0,96.0,207.074
207084.0,44.0,70.0,5.0,92.0,207.084
207094.0,44.0,67.0,6.0,91.0,207.094
207104.0,43.0,68.0,6.0,101.0,207.104
207114.0,43.0,66.0,5.0,99.0,207.114
207124.0,42.0,67.0,4.0,106.0,207.124
207134.0,43.0,68.0,6.0,102.0,207.134
207144.0,43.0,70.0,4.0,97.0,207.144
207154.0,42.0,70.0,4.0,90.0,207.154
207164.0,43.0,69.0,5.0,87.0,207.164
207174.0,43.0,68.0,7.0,99.0,207.174
207184.0,44.0,70.0,8.0,110.0,207.184
207194.0,45.0,71.0,7.0,108.0,207.194
207204.0,45.0,72.0,7.0,100.0,207.204
207214.0,47.0,71.0,6.0,93.0,207.214
207224.0,45.0,71.0,5.0,91.0,207.224
207234.0,46.0,69.0,6.0,100.0,207.234
207244.0,47.0,72.0,7.0,108.0,207.244
207254.0,48.0,72.0,7.0,108.0,207.254
207264.0,49.0,72.0,6.0,104.0,207.264
207275.0,51.0,72.0,7.0,98.0,207.275
207285.0,52.0,70.0,5.0,95.0,207.285
207295.0,52.0,71.0,5.0,90.0,207.295
207305.0,53.0,69.0,5.0,87.0,207.305
207315.0,54.0,71.0,5.0,86.0,207.315
207325.0,55.0,68.0,5.0,85.0,207.325
207335.0,56.0,68.0,5.0,85.0,207.335
207345.0,53.0,67.0,5.0,99.0,207.345
207355.0,54.0,65.0,4.0,99.0,207.355
207365.0,54.0,64.0,4.0,103.0,207.365
207375.0,53.0,63.0,4.0,108.0,207.375
207385.0,53.0,62.0,3.0,106.0,207.385
207395.0,53.0,61.0,4.0,110.0,207.395
207405.0,52.0,61.0,4.0,103.0,207.405
207415.0,53.0,61.0,5.0,101.0,207.415
207425.0,53.0,59.0,8.0,104.0,207.425
207435.0,54.0,59.0,7.0,98.0,207.435
207446.0,53.0,57.0,7.0,100.0,207.446
207456.0,53.0,57.0,6.0,106.0,207.456
207466.0,52.0,56.0,6.0,100.0,207.466
207476.0,52.0,56.0,5.0,102.0,207.476
207486.0,52.0,56.0,8.0,100.0,207.486
207496.0,53.0,56.0,7.0,100.0,207.496
207506.0,53.0,55.0,6.0,102.0,207.506
207516.0,55.0,56.0,6.0,95.0,207.516
207526.0,56.0,55.0,5.0,90.0,207.526
207536.0,56.0,55.0,5.0,90.0,207.536
207546.0,59.0,55.0,5.0,92.0,207.546
207556.0,59.0,53.0,6.0,91.0,207.556
207566.0,60.0,51.0,6.0,103.0,207.566
207576.0,60.0,53.0,6.0,100.0,207.576
207586.0,59.0,49.0,5.0,96.0,207.586
207596.0,60.0,51.0,5.0,100.0,207.596
207606.0,61.0,49.0,6.0,108.0,207.606
207616.0,62.0,50.0,5.0,106.0,207.616
207626.0,62.0,49.0,7.0,113.0,207.626
207636.0,65.0,49.0,8.0,109.0,207.636
207646.0,64.0,50.0,6.0,103.0,207.646
207656.0,65.0,49.0,6.0,115.0,207.656
207666.0,66.0,51.0,6.0,111.0,207.666
207676.0,66.0,52.0,7.0,100.0,207.676
207686.0,67.0,53.0,6.0,97.0,207.686
207696.0,66.0,54.0,6.0,96.0,207.696
207706.0,67.0,53.0,6.0,96.0,207.706
207716.0,66.0,55.0,6.0,96.0,207.716
207726.0,66.0,55.0,6.0,93.0,207.726
207736.0,65.0,57.0,5.0,95.0,207.736
207746.0,63.0,54.0,5.0,91.0,207.746
207756.0,62.0,54.0,5.0,92.0,207.756
207766.0,61.0,54.0,4.0,96.0,207.766
207776.0,61.0,54.0,4.0,94.0,207.776
207787.0,58.0,56.0,5.0,94.0,207.787
207797.0,57.0,54.0,4.0,95.0,207.797
207807.0,56.0,55.0,5.0,96.0,207.807
207817.0,55.0,54.0,4.0,102.0,207.817
207827.0,54.0,52.0,4.0,95.0,207.827
207837.0,53.0,52.0,4.0,104.0,207.837
207847.0,55.0,52.0,5.0,98.0,207.847
207857.0,52.0,53.0,6.0,99.0,207.857
207867.0,52.0,51.0,5.0,93.0,207.867
207877.0,51.0,52.0,5.0,92.0,207.877
207887.0,51.0,50.0,5.0,87.0,207.887
207897.0,51.0,50.0,6.0,87.0,207.897
207907.0,51.0,51.0,5.0,87.0,207.907
207917.0,52.0,51.0,6.0,89.0,207.917
207927.0,50.0,51.0,4.0,90.0,207.927
207937.0,50.0,49.0,6.0,85.0,207.937
207947.0,54.0,51.0,6.0,92.0,207.947
207958.0,53.0,49.0,6.0,88.0,207.958
207968.0,53.0,48.0,5.0,84.0,207.968
207978.0,53.0,47.0,5.0,94.0,207.978
207988.0,53.0,47.0,6.0,88.0,207.988
207998.0,52.0,47.0,4.0,89.0,207.998
208008.0,51.0,48.0,5.0,84.0,208.008
208018.0,50.0,48.0,4.0,83.0,208.018
208028.0,51.0,48.0,6.0,78.0,208.028
208038.0,53.0,49.0,5.0,78.0,208.038
208048.0,52.0,50.0,5.0,89.0,208.048
208058.0,54.0,50.0,5.0,88.0,208.058
208068.0,52.0,50.0,4.0,81.0,208.068
208078.0,52.0,49.0,5.0,81.0,208.078
208088.0,54.0,52.0,5.0,92.0,208.088
208098.0,54.0,51.0,7.0,98.0,208.098
208108.0,54.0,50.0,7.0,98.0,208.108
208118.0,53.0,51.0,7.0,95.0,208.118
208128.0,56.0,50.0,8.0,88.0,208.128
208138.0,54.0,49.0,6.0,86.0,208.138
208148.0,55.0,47.0,5.0,80.0,208.148
208158.0,56.0,46.0,5.0,81.0,208.158
208168.0,58.0,46.0,5.0,92.0,208.168
208178.0,58.0,47.0,5.0,93.0,208.178
208188.0,61.0,46.0,5.0,87.0,208.188
208198.0,60.0,46.0,5.0,87.0,208.198
208208.0,60.0,45.0,4.0,90.0,208.208
208218.0,62.0,45.0,5.0,95.0,208.218
208228.0,62.0,46.0,5.0,92.0,208.228
208238.0,60.0,46.0,4.0,88.0,208.238
208248.0,60.0,47.0,4.0,93.0,208.248
208258.0,59.0,46.0,5.0,89.0,208.258
208268.0,60.0,46.0,5.0,87.0,208.268
208278.0,59.0,46.0,4.0,87.0,208.278
208288.0,60.0,45.0,4.0,94.0,208.288
208299.0,60.0,47.0,4.0,90.0,208.299
208309.0,59.0,46.0,3.0,93.0,208.309
208319.0,59.0,46.0,5.0,101.0,208.319
208329.0,60.0,48.0,4.0,103.0,208.329
208339.0,61.0,47.0,5.0,99.0,208.339
208349.0,60.0,47.0,4.0,101.0,208.349
208359.0,62.0,46.0,5.0,105.0,208.359
208369.0,62.0,48.0,4.0,111.0,208.369
208379.0,63.0,47.0,3.0,112.0,208.379
208389.0,62.0,47.0,5.0,116.0,208.389
208399.0,62.0,46.0,5.0,110.0,208.399
208409.0,63.0,46.0,6.0,101.0,208.409
208419.0,62.0,46.0,4.0,97.0,208.419
208429.0,62.0,45.0,4.0,89.0,208.429
208439.0,62.0,45.0,4.0,85.0,208.439
208449.0,62.0,45.0,5.0,84.0,208.449
208459.0,64.0,44.0,4.0,85.0,208.459
208470.0,63.0,44.0,4.0,88.0,208.47
208480.0,65.0,44.0,6.0,90.0,208.48
208490.0,62.0,44.0,5.0,84.0,208.49
208500.0,63.0,44.0,5.0,80.0,208.5
208510.0,61.0,45.0,5.0,82.0,208.51
208520.0,62.0,44.0,6.0,80.0,208.52
208530.0,60.0,44.0,5.0,79.0,208.53
208540.0,59.0,44.0,5.0,76.0,208.54
208550.0,60.0,46.0,6.0,86.0,208.55
208560.0,59.0,46.0,4.0,81.0,208.56
208570.0,60.0,47.0,5.0,83.0,208.57
208580.0,59.0,49.0,5.0,79.0,208.58
208590.0,59.0,49.0,9.0,94.0,208.59
208600.0,60.0,50.0,10.0,102.0,208.6
208610.0,61.0,52.0,9.0,101.0,208.61
208620.0,62.0,51.0,10.0,102.0,208.62
208630.0,61.0,50.0,8.0,96.0,208.63
208640.0,62.0,49.0,7.0,95.0,208.64
208650.0,62.0,48.0,10.0,104.0,208.65
208660.0,63.0,49.0,11.0,112.0,208.66
208670.0,63.0,48.0,9.0,111.0,208.67
208680.0,64.0,48.0,9.0,111.0,208.68
208690.0,63.0,48.0,8.0,104.0,208.69
208700.0,64.0,49.0,7.0,105.0,208.7
208710.0,64.0,48.0,7.0,103.0,208.71
208720.0,64.0,49.0,7.0,107.0,208.72
208730.0,63.0,49.0,6.0,103.0,208.73
208740.0,64.0,48.0,6.0,96.0,208.74
208750.0,64.0,46.0,7.0,97.0,208.75
208760.0,65.0,47.0,8.0,98.0,208.76
208770.0,63.0,45.0,6.0,97.0,208.77
208780.0,63.0,45.0,6.0,96.0,208.78
208790.0,63.0,44.0,5.0,95.0,208.79
208800.0,62.0,43.0,6.0,91.0,208.8
208811.0,62.0,41.0,6.0,89.0,208.811
208821.0,61.0,42.0,5.0,87.0,208.821
208831.0,63.0,42.0,6.0,82.0,208.831
208841.0,62.0,43.0,10.0,95.0,208.841
208851.0,62.0,45.0,10.0,95.0,208.851
208861.0,62.0,46.0,9.0,92.0,208.861
208871.0,61.0,47.0,10.0,87.0,208.871
208881.0,61.0,47.0,9.0,94.0,208.881
208891.0,60.0,48.0,8.0,103.0,208.891
208901.0,61.0,48.0,9.0,98.0,208.901
208911.0,62.0,49.0,7.0,91.0,208.911
208921.0,62.0,47.0,8.0,90.0,208.921
208931.0,65.0,49.0,8.0,99.0,208.931
208941.0,64.0,50.0,6.0,103.0,208.941
208951.0,63.0,58.0,7.0,102.0,208.951
208961.0,65.0,61.0,5.0,119.0,208.961
208971.0,63.0,67.0,7.0,113.0,208.971
208982.0,63.0,71.0,6.0,108.0,208.982
208992.0,64.0,73.0,6.0,121.0,208.992
209002.0,63.0,76.0,6.0,118.0,209.002
209012.0,63.0,91.0,6.0,115.0,209.012
209022.0,62.0,96.0,7.0,112.0,209.022
209032.0,63.0,98.0,6.0,105.0,209.032
209042.0,63.0,102.0,7.0,99.0,209.042
209052.0,78.0,163.0,20.0,108.0,209.052
209062.0,82.0,179.0,19.0,112.0,209.062
209072.0,87.0,178.0,20.0,105.0,209.072
209082.0,102.0,179.0,21.0,99.0,209.082
209092.0,114.0,239.0,46.0,112.0,209.092
209102.0,159.0,277.0,51.0,124.0,209.102
209112.0,195.0,281.0,54.0,129.0,209.112
209122.0,199.0,373.0,76.0,143.0,209.122
209132.0,247.0,508.0,111.0,190.0,209.132
209142.0,238.0,535.0,115.0,210.0,209.142
209152.0,222.0,488.0,103.0,203.0,209.152
209162.0,206.0,483.0,98.0,192.0,209.162
209172.0,192.0,438.0,89.0,177.0,209.172
209182.0,174.0,401.0,90.0,226.0,209.182
209192.0,175.0,397.0,83.0,224.0,209.192
209202.0,177.0,377.0,81.0,207.0,209.202
209212.0,167.0,349.0,85.0,199.0,209.212
209222.0,168.0,371.0,93.0,187.0,209.222
209232.0,158.0,338.0,83.0,185.0,209.232
209242.0,155.0,307.0,83.0,182.0,209.242
209252.0,152.0,303.0,93.0,180.0,209.252
209262.0,146.0,286.0,86.0,172.0,209.262
209272.0,142.0,269.0,87.0,183.0,209.272
209282.0,142.0,247.0,88.0,179.0,209.282
209292.0,135.0,232.0,88.0,169.0,209.292
209302.0,126.0,219.0,86.0,160.0,209.302
209312.0,129.0,219.0,92.0,158.0,209.312
209323.0,132.0,236.0,93.0,180.0,209.323
209333.0,127.0,250.0,92.0,171.0,209.333
209343.0,120.0,226.0,85.0,179.0,209.343
209353.0,115.0,220.0,83.0,198.0,209.353
209363.0,116.0,206.0,72.0,209.0,209.363
209373.0,114.0,189.0,73.0,215.0,209.373
209383.0,117.0,207.0,80.0,216.0,209.383
209393.0,117.0,194.0,70.0,210.0,209.393
209403.0,114.0,182.0,72.0,191.0,209.403
209413.0,111.0,188.0,76.0,183.0,209.413
209423.0,111.0,185.0,72.0,225.0,209.423
209433.0,107.0,171.0,70.0,220.0,209.433
209443.0,102.0,164.0,74.0,225.0,209.443
209453.0,102.0,177.0,72.0,221.0,209.453
209463.0,101.0,176.0,71.0,226.0,209.463
209473.0,98.0,166.0,69.0,223.0,209.473
209483.0,98.0,164.0,68.0,214.0,209.483
209494.0,96.0,161.0,76.0,194.0,209.494
209504.0,96.0,165.0,73.0,183.0,209.504
209514.0,93.0,153.0,79.0,175.0,209.514
209524.0,92.0,142.0,73.0,170.0,209.524
209534.0,94.0,143.0,84.0,159.0,209.534
209544.0,99.0,141.0,78.0,166.0,209.544
209554.0,99.0,136.0,80.0,165.0,209.554
209564.0,99.0,136.0,83.0,165.0,209.564
209574.0,98.0,131.0,84.0,162.0,209.574
209584.0,97.0,130.0,82.0,146.0,209.584
209594.0,99.0,129.0,79.0,146.0,209.594
209604.0,97.0,123.0,79.0,153.0,209.604
209614.0,98.0,120.0,86.0,146.0,209.614
209624.0,96.0,124.0,83.0,145.0,209.624
209634.0,100.0,132.0,74.0,148.0,209.634
209644.0,98.0,126.0,71.0,140.0,209.644
209654.0,95.0,126.0,73.0,135.0,209.654
209664.0,96.0,125.0,67.0,138.0,209.664
209674.0,100.0,126.0,65.0,138.0,209.674
209684.0,96.0,118.0,69.0,141.0,209.684
209694.0,98.0,119.0,68.0,132.0,209.694
209704.0,96.0,119.0,69.0,129.0,209.704
209714.0,101.0,127.0,67.0,131.0,209.714
209724.0,99.0,126.0,68.0,129.0,209.724
209734.0,95.0,126.0,69.0,129.0,209.734
209744.0,97.0,127.0,70.0,144.0,209.744
209754.0,98.0,119.0,70.0,153.0,209.754
209764.0,96.0,116.0,64.0,146.0,209.764
209774.0,92.0,111.0,60.0,141.0,209.774
209784.0,91.0,110.0,59.0,132.0,209.784
209794.0,91.0,114.0,55.0,119.0,209.794
209804.0,88.0,108.0,52.0,112.0,209.804
209814.0,90.0,105.0,53.0,107.0,209.814
209824.0,89.0,99.0,49.0,120.0,209.824
209835.0,89.0,99.0,47.0,122.0,209.835
209845.0,88.0,100.0,45.0,113.0,209.845
209855.0,89.0,108.0,42.0,106.0,209.855
209865.0,90.0,100.0,40.0,112.0,209.865
209875.0,89.0,98.0,37.0,111.0,209.875
209885.0,87.0,92.0,35.0,101.0,209.885
209895.0,86.0,85.0,34.0,92.0,209.895
209905.0,84.0,82.0,35.0,87.0,209.905
209915.0,83.0,79.0,35.0,95.0,209.915
209925.0,80.0,74.0,36.0,87.0,209.925
209935.0,81.0,79.0,40.0,114.0,209.935
209945.0,80.0,85.0,37.0,118.0,209.945
209955.0,79.0,82.0,39.0,123.0,209.955
209965.0,87.0,95.0,40.0,115.0,209.965
209975.0,86.0,96.0,35.0,109.0,209.975
209985.0,85.0,96.0,37.0,104.0,209.985
209995.0,84.0,101.0,41.0,99.0,209.995
210006.0,85.0,98.0,43.0,117.0,210.006
210016.0,83.0,103.0,45.0,113.0,210.016
210026.0,83.0,110.0,45.0,110.0,210.026
210036.0,82.0,114.0,51.0,101.0,210.036
210046.0,82.0,117.0,54.0,97.0,210.046
210056.0,82.0,125.0,61.0,111.0,210.056
210066.0,82.0,126.0,59.0,113.0,210.066
210076.0,81.0,124.0,62.0,102.0,210.076
210086.0,80.0,134.0,67.0,97.0,210.086
210096.0,79.0,137.0,65.0,89.0,210.096
210106.0,82.0,140.0,67.0,89.0,210.106
210116.0,82.0,133.0,63.0,85.0,210.116
210126.0,78.0,131.0,65.0,98.0,210.126
210136.0,78.0,127.0,60.0,102.0,210.136
210146.0,78.0,124.0,57.0,97.0,210.146
210156.0,77.0,123.0,61.0,102.0,210.156
210166.0,76.0,119.0,59.0,103.0,210.166
210176.0,75.0,119.0,61.0,103.0,210.176
210186.0,74.0,121.0,58.0,104.0,210.186
210196.0,73.0,124.0,57.0,107.0,210.196
210206.0,73.0,129.0,55.0,105.0,210.206
210216.0,74.0,131.0,49.0,100.0,210.216
210226.0,73.0,124.0,49.0,107.0,210.226
210236.0,73.0,118.0,44.0,106.0,210.236
210246.0,74.0,112.0,43.0,126.0,210.246
210256.0,74.0,112.0,38.0,131.0,210.256
210266.0,73.0,109.0,35.0,125.0,210.266
210276.0,74.0,110.0,33.0,119.0,210.276
210286.0,73.0,107.0,31.0,111.0,210.286
210296.0,73.0,105.0,31.0,100.0,210.296
210306.0,72.0,107.0,31.0,93.0,210.306
210316.0,72.0,104.0,31.0,85.0,210.316
210326.0,68.0,107.0,32.0,81.0,210.326
210336.0,69.0,118.0,35.0,75.0,210.336
210347.0,68.0,114.0,33.0,79.0,210.347
210357.0,68.0,111.0,34.0,87.0,210.357
210367.0,66.0,108.0,32.0,87.0,210.367
210377.0,67.0,111.0,33.0,90.0,210.377
210387.0,67.0,106.0,29.0,100.0,210.387
210397.0,64.0,103.0,26.0,98.0,210.397
210407.0,64.0,104.0,24.0,93.0,210.407
210417.0,64.0,111.0,22.0,87.0,210.417
210427.0,66.0,105.0,21.0,79.0,210.427
210437.0,66.0,103.0,20.0,71.0,210.437
210447.0,68.0,110.0,21.0,78.0,210.447
210457.0,73.0,102.0,20.0,74.0,210.457
210467.0,70.0,100.0,18.0,73.0,210.467
210477.0,69.0,97.0,23.0,85.0,210.477
210487.0,70.0,97.0,25.0,81.0,210.487
210497.0,69.0,94.0,22.0,84.0,210.497
210507.0,72.0,97.0,21.0,91.0,210.507
210518.0,73.0,97.0,22.0,85.0,210.518
210528.0,74.0,99.0,22.0,78.0,210.528
210538.0,71.0,100.0,26.0,73.0,210.538
210548.0,71.0,94.0,26.0,72.0,210.548
210558.0,69.0,93.0,22.0,76.0,210.558
210568.0,69.0,87.0,23.0,71.0,210.568
210578.0,67.0,87.0,22.0,67.0,210.578
210588.0,65.0,85.0,23.0,62.0,210.588
210598.0,65.0,91.0,24.0,59.0,210.598
210608.0,62.0,87.0,22.0,58.0,210.608
210618.0,61.0,87.0,20.0,57.0,210.618
210628.0,61.0,80.0,18.0,58.0,210.628
210638.0,60.0,79.0,18.0,61.0,210.638
210648.0,59.0,83.0,18.0,60.0,210.648
210658.0,63.0,83.0,16.0,59.0,210.658
210668.0,63.0,78.0,17.0,85.0,210.668
210678.0,62.0,76.0,14.0,83.0,210.678
210688.0,62.0,73.0,14.0,81.0,210.688
210698.0,59.0,74.0,12.0,82.0,210.698
210708.0,59.0,79.0,11.0,76.0,210.708
210718.0,58.0,77.0,10.0,69.0,210.718
210728.0,57.0,78.0,9.0,68.0,210.728
210738.0,57.0,78.0,10.0,69.0,210.738
210748.0,57.0,77.0,8.0,66.0,210.748
210758.0,57.0,75.0,8.0,61.0,210.758
210768.0,54.0,76.0,7.0,58.0,210.768
210778.0,53.0,77.0,7.0,54.0,210.778
210788.0,51.0,79.0,7.0,50.0,210.788
210798.0,50.0,80.0,5.0,47.0,210.798
210808.0,51.0,79.0,6.0,48.0,210.808
210818.0,50.0,80.0,5.0,46.0,210.818
210828.0,50.0,82.0,5.0,51.0,210.828
210838.0,50.0,83.0,5.0,52.0,210.838
210848.0,51.0,86.0,5.0,47.0,210.848
210859.0,51.0,87.0,4.0,47.0,210.859
210869.0,49.0,85.0,4.0,54.0,210.869
210879.0,49.0,83.0,5.0,52.0,210.879
210889.0,48.0,82.0,4.0,56.0,210.889
210899.0,48.0,83.0,4.0,59.0,210.899
210909.0,49.0,82.0,4.0,71.0,210.909
210919.0,50.0,81.0,4.0,70.0,210.919
210929.0,49.0,82.0,4.0,75.0,210.929
210939.0,49.0,79.0,4.0,78.0,210.939
210949.0,50.0,85.0,4.0,91.0,210.949
210959.0,52.0,81.0,4.0,88.0,210.959
210969.0,50.0,79.0,4.0,81.0,210.969
210979.0,51.0,86.0,3.0,81.0,210.979
210989.0,51.0,83.0,4.0,82.0,210.989
210999.0,50.0,81.0,4.0,77.0,210.999
211009.0,49.0,82.0,4.0,73.0,211.009
211019.0,49.0,78.0,4.0,72.0,211.019
211030.0,47.0,77.0,4.0,82.0,211.03
211040.0,46.0,75.0,4.0,89.0,211.04
211050.0,47.0,75.0,3.0,83.0,211.05
211060.0,47.0,74.0,3.0,82.0,211.06
211070.0,48.0,75.0,3.0,76.0,211.07
211080.0,47.0,75.0,4.0,73.0,211.08
211090.0,49.0,73.0,4.0,66.0,211.09
211100.0,48.0,73.0,4.0,65.0,211.1
211110.0,49.0,73.0,3.0,59.0,211.11
211120.0,49.0,77.0,3.0,56.0,211.12
211130.0,48.0,74.0,4.0,57.0,211.13
211140.0,49.0,74.0,5.0,64.0,211.14
211150.0,49.0,76.0,4.0,60.0,211.15
211160.0,50.0,74.0,4.0,56.0,211.16
211170.0,48.0,75.0,4.0,53.0,211.17
211180.0,49.0,76.0,3.0,49.0,211.18
211190.0,47.0,75.0,3.0,49.0,211.19
211200.0,47.0,73.0,3.0,46.0,211.2
211210.0,47.0,71.0,3.0,43.0,211.21
211220.0,45.0,71.0,3.0,53.0,211.22
211230.0,48.0,73.0,4.0,51.0,211.23
211240.0,48.0,72.0,4.0,50.0,211.24
211250.0,48.0,71.0,3.0,49.0,211.25
211260.0,47.0,70.0,3.0,50.0,211.26
211270.0,49.0,68.0,3.0,48.0,211.27
211280.0,48.0,66.0,3.0,44.0,211.28
211290.0,47.0,64.0,4.0,53.0,211.29
211300.0,46.0,63.0,3.0,55.0,211.3
211310.0,46.0,62.0,3.0,53.0,211.31
211320.0,47.0,66.0,3.0,51.0,211.32
211330.0,48.0,67.0,3.0,53.0,211.33
211340.0,47.0,62.0,3.0,49.0,211.34
211350.0,48.0,63.0,4.0,50.0,211.35
211360.0,49.0,63.0,4.0,53.0,211.36
211371.0,50.0,62.0,4.0,50.0,211.371
211381.0,48.0,62.0,4.0,48.0,211.381
211391.0,49.0,64.0,4.0,46.0,211.391
211401.0,50.0,64.0,3.0,47.0,211.401
211411.0,49.0,62.0,4.0,52.0,211.411
211421.0,49.0,58.0,3.0,50.0,211.421
211431.0,49.0,56.0,4.0,51.0,211.431
211441.0,49.0,55.0,4.0,48.0,211.441
211451.0,46.0,59.0,2.0,46.0,211.451
211461.0,47.0,57.0,3.0,55.0,211.461
211471.0,46.0,57.0,3.0,59.0,211.471
211481.0,49.0,59.0,3.0,57.0,211.481
211491.0,50.0,60.0,4.0,53.0,211.491
211501.0,49.0,58.0,4.0,53.0,211.501
211511.0,50.0,57.0,4.0,51.0,211.511
211521.0,48.0,57.0,4.0,50.0,211.521
211531.0,47.0,59.0,4.0,46.0,211.531
211542.0,47.0,59.0,3.0,50.0,211.542
211552.0,48.0,63.0,3.0,50.0,211.552
211562.0,49.0,60.0,3.0,47.0,211.562
211572.0,49.0,60.0,4.0,47.0,211.572
211582.0,53.0,59.0,4.0,55.0,211.582
211592.0,52.0,59.0,2.0,60.0,211.592
211602.0,52.0,57.0,3.0,64.0,211.602
211612.0,53.0,55.0,4.0,68.0,211.612
211622.0,53.0,53.0,4.0,62.0,211.622
211632.0,53.0,52.0,3.0,58.0,211.632
211642.0,52.0,53.0,4.0,53.0,211.642
211652.0,54.0,58.0,3.0,49.0,211.652
211662.0,56.0,57.0,4.0,48.0,211.662
211672.0,57.0,56.0,4.0,45.0,211.672
211682.0,57.0,54.0,3.0,58.0,211.682
211692.0,58.0,52.0,3.0,56.0,211.692
211702.0,58.0,54.0,4.0,53.0,211.702
211712.0,57.0,53.0,4.0,50.0,211.712
211722.0,59.0,51.0,4.0,47.0,211.722
211732.0,57.0,50.0,2.0,44.0,211.732
211742.0,58.0,52.0,4.0,43.0,211.742
211752.0,58.0,52.0,3.0,43.0,211.752
211762.0,59.0,50.0,3.0,44.0,211.762
211772.0,59.0,48.0,3.0,48.0,211.772
211782.0,57.0,49.0,3.0,47.0,211.782
211792.0,58.0,50.0,5.0,43.0,211.792
211802.0,56.0,50.0,4.0,42.0,211.802
211812.0,57.0,49.0,3.0,40.0,211.812
211822.0,57.0,49.0,3.0,40.0,211.822
211832.0,57.0,50.0,3.0,39.0,211.832
211842.0,57.0,49.0,3.0,38.0,211.842
211852.0,57.0,50.0,4.0,37.0,211.852
211862.0,58.0,51.0,5.0,35.0,211.862
211872.0,58.0,52.0,4.0,35.0,211.872
211883.0,59.0,51.0,4.0,32.0,211.883
211893.0,59.0,53.0,3.0,36.0,211.893
211903.0,59.0,52.0,4.0,34.0,211.903
211913.0,59.0,56.0,3.0,34.0,211.913
211923.0,59.0,54.0,4.0,35.0,211.923
211933.0,59.0,54.0,4.0,35.0,211.933
211943.0,56.0,58.0,4.0,42.0,211.943
211953.0,56.0,55.0,4.0,45.0,211.953
211963.0,56.0,55.0,3.0,45.0,211.963
211973.0,54.0,56.0,3.0,44.0,211.973
211983.0,54.0,56.0,3.0,43.0,211.983
211993.0,55.0,55.0,3.0,43.0,211.993
212003.0,54.0,56.0,3.0,42.0,212.003
212013.0,56.0,55.0,4.0,41.0,212.013
212023.0,55.0,53.0,3.0,38.0,212.023
212033.0,57.0,53.0,3.0,39.0,212.033
212043.0,56.0,53.0,3.0,36.0,212.043
212054.0,56.0,52.0,3.0,34.0,212.054
212064.0,56.0,58.0,4.0,34.0,212.064
212074.0,58.0,55.0,4.0,34.0,212.074
212084.0,58.0,57.0,3.0,34.0,212.084
212094.0,57.0,57.0,4.0,33.0,212.094
212104.0,56.0,55.0,3.0,34.0,212.104
212114.0,56.0,52.0,3.0,33.0,212.114
212124.0,53.0,52.0,3.0,33.0,212.124
212134.0,53.0,51.0,4.0,33.0,212.134
212144.0,53.0,49.0,4.0,32.0,212.144
212154.0,51.0,51.0,4.0,32.0,212.154
212164.0,52.0,51.0,4.0,32.0,212.164
212174.0,51.0,54.0,3.0,32.0,212.174
212184.0,53.0,52.0,3.0,30.0,212.184
212194.0,51.0,51.0,3.0,30.0,212.194
212204.0,51.0,50.0,3.0,29.0,212.204
212214.0,51.0,47.0,4.0,30.0,212.214
212224.0,50.0,47.0,4.0,30.0,212.224
212234.0,50.0,47.0,3.0,29.0,212.234
212244.0,50.0,47.0,3.0,31.0,212.244
212254.0,49.0,48.0,3.0,30.0,212.254
212264.0,48.0,48.0,4.0,30.0,212.264
212274.0,47.0,50.0,4.0,30.0,212.274
212284.0,50.0,53.0,4.0,29.0,212.284
212294.0,48.0,55.0,4.0,30.0,212.294
212304.0,48.0,55.0,3.0,29.0,212.304
212314.0,48.0,55.0,3.0,30.0,212.314
212324.0,49.0,55.0,3.0,29.0,212.324
212334.0,48.0,55.0,4.0,30.0,212.334
212344.0,47.0,55.0,3.0,30.0,212.344
212354.0,48.0,55.0,4.0,30.0,212.354
212364.0,46.0,54.0,2.0,31.0,212.364
212374.0,47.0,54.0,3.0,29.0,212.374
212384.0,46.0,53.0,3.0,31.0,212.384
212395.0,48.0,53.0,3.0,30.0,212.395
212405.0,49.0,55.0,3.0,30.0,212.405
212415.0,46.0,53.0,3.0,30.0,212.415
212425.0,47.0,51.0,4.0,30.0,212.425
212435.0,48.0,53.0,3.0,30.0,212.435
212445.0,48.0,53.0,3.0,30.0,212.445
212455.0,48.0,54.0,3.0,31.0,212.455
212465.0,47.0,54.0,3.0,30.0,212.465
212475.0,46.0,54.0,3.0,30.0,212.475
212485.0,45.0,53.0,3.0,31.0,212.485
212495.0,47.0,54.0,4.0,33.0,212.495
212505.0,48.0,58.0,2.0,32.0,212.505
212515.0,49.0,57.0,3.0,34.0,212.515
212525.0,52.0,59.0,3.0,33.0,212.525
212535.0,53.0,62.0,3.0,36.0,212.535
212545.0,52.0,58.0,3.0,37.0,212.545
212555.0,52.0,62.0,4.0,37.0,212.555
212566.0,53.0,62.0,4.0,37.0,212.566
212576.0,51.0,59.0,4.0,38.0,212.576
212586.0,52.0,61.0,3.0,36.0,212.586
212596.0,52.0,63.0,3.0,37.0,212.596
212606.0,54.0,63.0,3.0,34.0,212.606
212616.0,53.0,60.0,3.0,34.0,212.616
212626.0,52.0,61.0,4.0,33.0,212.626
212636.0,52.0,59.0,4.0,31.0,212.636
212646.0,50.0,59.0,2.0,32.0,212.646
212656.0,51.0,61.0,3.0,32.0,212.656
212666.0,51.0,62.0,3.0,32.0,212.666
212676.0,51.0,59.0,3.0,33.0,212.676
212686.0,51.0,58.0,3.0,34.0,212.686
212696.0,49.0,57.0,4.0,34.0,212.696
212706.0,53.0,61.0,5.0,32.0,212.706
212716.0,52.0,61.0,4.0,35.0,212.716
212726.0,51.0,60.0,4.0,36.0,212.726
212736.0,50.0,59.0,3.0,37.0,212.736
212746.0,49.0,58.0,3.0,37.0,212.746
212756.0,49.0,58.0,3.0,36.0,212.756
212766.0,47.0,58.0,4.0,39.0,212.766
212776.0,49.0,59.0,4.0,40.0,212.776
212786.0,48.0,59.0,2.0,40.0,212.786
212796.0,50.0,62.0,3.0,40.0,212.796
212806.0,51.0,61.0,3.0,41.0,212.806
212816.0,50.0,60.0,3.0,38.0,212.816
212826.0,51.0,58.0,3.0,39.0,212.826
212836.0,48.0,57.0,4.0,39.0,212.836
212846.0,51.0,55.0,5.0,39.0,212.846
212856.0,50.0,56.0,4.0,38.0,212.856
212866.0,50.0,56.0,4.0,37.0,212.866
212876.0,51.0,59.0,3.0,37.0,212.876
212886.0,54.0,60.0,3.0,35.0,212.886
212896.0,54.0,59.0,3.0,37.0,212.896
212907.0,52.0,57.0,4.0,38.0,212.907
212917.0,53.0,59.0,4.0,38.0,212.917
212927.0,52.0,56.0,4.0,40.0,212.927
212937.0,55.0,60.0,3.0,41.0,212.937
212947.0,55.0,59.0,3.0,42.0,212.947
212957.0,54.0,58.0,3.0,43.0,212.957
212967.0,53.0,55.0,4.0,44.0,212.967
212977.0,52.0,53.0,3.0,44.0,212.977
212987.0,52.0,54.0,4.0,44.0,212.987
212997.0,51.0,53.0,3.0,42.0,212.997
213007.0,50.0,51.0,3.0,41.0,213.007
213017.0,53.0,53.0,3.0,41.0,213.017
213027.0,53.0,53.0,3.0,39.0,213.027
213037.0,55.0,52.0,3.0,38.0,213.037
213047.0,56.0,57.0,4.0,38.0,213.047
213057.0,56.0,55.0,4.0,37.0,213.057
213067.0,54.0,56.0,2.0,37.0,213.067
213078.0,52.0,55.0,3.0,36.0,213.078
213088.0,53.0,58.0,3.0,38.0,213.088
213098.0,54.0,54.0,3.0,38.0,213.098
213108.0,54.0,53.0,3.0,37.0,213.108
213118.0,53.0,52.0,4.0,38.0,213.118
213128.0,55.0,51.0,5.0,38.0,213.128
213138.0,52.0,52.0,2.0,38.0,213.138
213148.0,54.0,49.0,4.0,37.0,213.148
213158.0,53.0,49.0,3.0,37.0,213.158
213168.0,54.0,49.0,3.0,36.0,213.168
213178.0,54.0,52.0,3.0,35.0,213.178
213188.0,57.0,53.0,4.0,36.0,213.188
213198.0,58.0,54.0,5.0,35.0,213.198
213208.0,56.0,52.0,3.0,37.0,213.208
213218.0,55.0,50.0,4.0,37.0,213.218
213228.0,56.0,49.0,4.0,40.0,213.228
213238.0,55.0,50.0,3.0,38.0,213.238
213248.0,55.0,48.0,4.0,39.0,213.248
213258.0,54.0,48.0,3.0,39.0,213.258
213268.0,56.0,48.0,4.0,40.0,213.268
213278.0,54.0,46.0,2.0,38.0,213.278
213288.0,53.0,45.0,3.0,37.0,213.288
213298.0,55.0,47.0,4.0,39.0,213.298
213308.0,53.0,47.0,4.0,37.0,213.308
213318.0,54.0,46.0,3.0,38.0,213.318
213328.0,53.0,48.0,4.0,38.0,213.328
213338.0,53.0,48.0,5.0,42.0,213.338
213348.0,51.0,46.0,4.0,43.0,213.348
213358.0,50.0,47.0,3.0,44.0,213.358
213368.0,49.0,49.0,4.0,43.0,213.368
213378.0,48.0,49.0,3.0,42.0,213.378
213388.0,49.0,48.0,4.0,41.0,213.388
213398.0,48.0,50.0,4.0,39.0,213.398
213408.0,49.0,51.0,4.0,40.0,213.408
213419.0,48.0,51.0,2.0,39.0,213.419
213429.0,48.0,52.0,4.0,38.0,213.429
213439.0,48.0,56.0,4.0,38.0,213.439
213449.0,50.0,56.0,3.0,40.0,213.449
213459.0,49.0,52.0,4.0,40.0,213.459
213469.0,48.0,53.0,3.0,41.0,213.469
213479.0,50.0,52.0,4.0,43.0,213.479
213489.0,48.0,50.0,2.0,43.0,213.489
213499.0,50.0,53.0,3.0,41.0,213.499
213509.0,50.0,52.0,3.0,43.0,213.509
213519.0,51.0,58.0,3.0,42.0,213.519
213529.0,51.0,56.0,3.0,42.0,213.529
213539.0,53.0,58.0,3.0,44.0,213.539
213549.0,54.0,56.0,5.0,43.0,213.549
213559.0,52.0,56.0,4.0,44.0,213.559
213569.0,51.0,55.0,3.0,45.0,213.569
213579.0,52.0,54.0,3.0,47.0,213.579
213590.0,50.0,55.0,3.0,46.0,213.59
213600.0,51.0,55.0,3.0,48.0,213.6
213610.0,49.0,55.0,4.0,50.0,213.61
213620.0,48.0,56.0,4.0,51.0,213.62
213630.0,46.0,59.0,2.0,51.0,213.63
213640.0,47.0,58.0,4.0,53.0,213.64
213650.0,48.0,60.0,3.0,55.0,213.65
213660.0,49.0,60.0,3.0,54.0,213.66
213670.0,49.0,56.0,3.0,54.0,213.67
213680.0,47.0,57.0,4.0,53.0,213.68
213690.0,49.0,57.0,5.0,51.0,213.69
213700.0,48.0,56.0,4.0,50.0,213.7
213710.0,47.0,56.0,3.0,49.0,213.71
213720.0,47.0,56.0,3.0,47.0,213.72
213730.0,48.0,57.0,3.0,46.0,213.73
213740.0,49.0,58.0,4.0,46.0,213.74
213750.0,49.0,57.0,4.0,44.0,213.75
213760.0,52.0,57.0,5.0,43.0,213.76
213770.0,51.0,54.0,4.0,43.0,213.77
213780.0,50.0,55.0,4.0,43.0,213.78
213790.0,49.0,53.0,3.0,43.0,213.79
213800.0,49.0,52.0,3.0,42.0,213.8
213810.0,50.0,52.0,4.0,39.0,213.81
213820.0,49.0,51.0,3.0,39.0,213.82
213830.0,51.0,50.0,5.0,38.0,213.83
213840.0,50.0,51.0,4.0,37.0,213.84
213850.0,49.0,49.0,3.0,36.0,213.85
213860.0,49.0,50.0,3.0,35.0,213.86
213870.0,49.0,54.0,3.0,34.0,213.87
213880.0,49.0,52.0,3.0,34.0,213.88
213890.0,49.0,55.0,3.0,34.0,213.89
213900.0,51.0,54.0,4.0,33.0,213.9
213910.0,51.0,53.0,3.0,32.0,213.91
213920.0,52.0,55.0,4.0,31.0,213.92
213931.0,54.0,58.0,4.0,31.0,213.931
213941.0,53.0,57.0,3.0,30.0,213.941
213951.0,53.0,54.0,4.0,30.0,213.951
213961.0,53.0,56.0,4.0,29.0,213.961
213971.0,54.0,55.0,4.0,29.0,213.971
213981.0,54.0,56.0,4.0,30.0,213.981
213991.0,52.0,55.0,3.0,29.0,213.991
214001.0,51.0,55.0,3.0,30.0,214.001
214011.0,52.0,52.0,3.0,30.0,214.011
214021.0,52.0,52.0,3.0,30.0,214.021
214031.0,50.0,50.0,3.0,30.0,214.031
214041.0,53.0,52.0,5.0,31.0,214.041
214051.0,50.0,51.0,3.0,31.0,214.051
214061.0,51.0,53.0,3.0,31.0,214.061
214071.0,52.0,55.0,3.0,32.0,214.071
214081.0,50.0,54.0,3.0,32.0,214.081
214091.0,50.0,52.0,4.0,33.0,214.091
214102.0,47.0,50.0,4.0,33.0,214.102
214112.0,48.0,50.0,4.0,33.0,214.112
214122.0,46.0,47.0,3.0,33.0,214.122
214132.0,46.0,47.0,3.0,33.0,214.132
214142.0,46.0,47.0,3.0,34.0,214.142
214152.0,45.0,46.0,3.0,33.0,214.152
214162.0,45.0,46.0,3.0,32.0,214.162
214172.0,47.0,49.0,3.0,32.0,214.172
214182.0,51.0,51.0,5.0,31.0,214.182
214192.0,49.0,50.0,3.0,31.0,214.192
214202.0,48.0,50.0,4.0,31.0,214.202
214212.0,48.0,55.0,3.0,31.0,214.212
214222.0,47.0,54.0,3.0,33.0,214.222
214232.0,47.0,52.0,3.0,33.0,214.232
214242.0,47.0,51.0,4.0,34.0,214.242
214252.0,48.0,50.0,4.0,35.0,214.252
214262.0,47.0,50.0,4.0,38.0,214.262
214272.0,47.0,49.0,4.0,37.0,214.272
214282.0,50.0,49.0,3.0,40.0,214.282
214292.0,50.0,52.0,3.0,40.0,214.292
214302.0,50.0,50.0,3.0,40.0,214.302
214312.0,49.0,55.0,4.0,41.0,214.312
214322.0,50.0,55.0,5.0,41.0,214.322
214332.0,48.0,54.0,4.0,42.0,214.332
214342.0,49.0,53.0,4.0,42.0,214.342
214352.0,50.0,53.0,4.0,42.0,214.352
214362.0,50.0,60.0,3.0,42.0,214.362
214372.0,50.0,58.0,4.0,44.0,214.372
214382.0,49.0,57.0,3.0,44.0,214.382
214392.0,49.0,56.0,5.0,44.0,214.392
214402.0,48.0,54.0,3.0,45.0,214.402
214412.0,48.0,56.0,3.0,46.0,214.412
214422.0,50.0,55.0,3.0,47.0,214.422
214432.0,49.0,53.0,3.0,48.0,214.432
214443.0,50.0,56.0,3.0,46.0,214.443
214453.0,49.0,54.0,4.0,49.0,214.453
214463.0,49.0,51.0,5.0,49.0,214.463
214473.0,47.0,51.0,4.0,47.0,214.473
214483.0,46.0,49.0,4.0,47.0,214.483
214493.0,46.0,48.0,4.0,49.0,214.493
214503.0,47.0,48.0,3.0,47.0,214.503
214513.0,46.0,46.0,3.0,47.0,214.513
214523.0,45.0,47.0,3.0,47.0,214.523
214533.0,48.0,48.0,5.0,47.0,214.533
214543.0,50.0,51.0,3.0,48.0,214.543
214553.0,49.0,57.0,3.0,45.0,214.553
214563.0,49.0,59.0,3.0,46.0,214.563
214573.0,48.0,56.0,3.0,46.0,214.573
214583.0,47.0,52.0,4.0,43.0,214.583
214593.0,48.0,52.0,4.0,42.0,214.593
214603.0,49.0,51.0,4.0,41.0,214.603
214614.0,48.0,51.0,2.0,40.0,214.614
214624.0,50.0,54.0,3.0,39.0,214.624
214634.0,50.0,57.0,3.0,40.0,214.634
214644.0,50.0,57.0,3.0,39.0,214.644
214654.0,49.0,55.0,4.0,40.0,214.654
214664.0,47.0,56.0,4.0,42.0,214.664
214674.0,47.0,55.0,5.0,41.0,214.674
214684.0,49.0,59.0,2.0,40.0,214.684
214694.0,50.0,59.0,3.0,39.0,214.694
214704.0,50.0,59.0,4.0,40.0,214.704
214714.0,50.0,57.0,3.0,39.0,214.714
214724.0,49.0,56.0,3.0,38.0,214.724
214734.0,47.0,55.0,3.0,38.0,214.734
214744.0,47.0,55.0,5.0,35.0,214.744
214754.0,49.0,57.0,4.0,40.0,214.754
214764.0,51.0,60.0,6.0,49.0,214.764
214774.0,52.0,59.0,7.0,66.0,214.774
214784.0,53.0,56.0,7.0,70.0,214.784
214794.0,52.0,52.0,7.0,68.0,214.794
214804.0,49.0,53.0,8.0,77.0,214.804
214814.0,61.0,66.0,36.0,104.0,214.814
214824.0,73.0,82.0,89.0,136.0,214.824
214834.0,83.0,87.0,147.0,251.0,214.834
214844.0,87.0,99.0,142.0,244.0,214.844
214854.0,94.0,99.0,165.0,258.0,214.854
214864.0,95.0,99.0,174.0,265.0,214.864
214874.0,94.0,97.0,183.0,292.0,214.874
214884.0,97.0,95.0,187.0,343.0,214.884
214894.0,94.0,99.0,172.0,329.0,214.894
214904.0,91.0,99.0,159.0,325.0,214.904
214914.0,87.0,94.0,148.0,328.0,214.914
214924.0,91.0,95.0,138.0,330.0,214.924
214934.0,93.0,103.0,135.0,314.0,214.934
214944.0,97.0,113.0,119.0,310.0,214.944
214955.0,100.0,118.0,108.0,299.0,214.955
214965.0,102.0,121.0,95.0,276.0,214.965
214975.0,104.0,120.0,107.0,255.0,214.975
214985.0,106.0,121.0,94.0,281.0,214.985
214995.0,110.0,127.0,86.0,292.0,214.995
215005.0,112.0,127.0,90.0,268.0,215.005
215015.0,117.0,128.0,95.0,263.0,215.015
215025.0,122.0,129.0,101.0,264.0,215.025
215035.0,123.0,131.0,92.0,246.0,215.035
215045.0,126.0,132.0,87.0,249.0,215.045
215055.0,130.0,136.0,83.0,240.0,215.055
215065.0,130.0,135.0,78.0,232.0,215.065
215075.0,134.0,135.0,71.0,255.0,215.075
215085.0,134.0,137.0,66.0,253.0,215.085
215095.0,138.0,139.0,69.0,252.0,215.095
215105.0,139.0,142.0,69.0,234.0,215.105
215115.0,139.0,142.0,65.0,226.0,215.115
215126.0,140.0,143.0,62.0,207.0,215.126
215136.0,140.0,145.0,55.0,201.0,215.136
215146.0,139.0,144.0,56.0,186.0,215.146
215156.0,140.0,147.0,51.0,178.0,215.156
215166.0,139.0,148.0,49.0,165.0,215.166
215176.0,138.0,148.0,53.0,171.0,215.176
215186.0,135.0,147.0,70.0,206.0,215.186
215196.0,137.0,150.0,64.0,199.0,215.196
215206.0,136.0,152.0,58.0,193.0,215.206
215216.0,134.0,152.0,65.0,188.0,215.216
215226.0,136.0,157.0,58.0,181.0,215.226
215236.0,134.0,153.0,55.0,172.0,215.236
215246.0,130.0,151.0,52.0,167.0,215.246
215256.0,129.0,153.0,48.0,166.0,215.256
215266.0,127.0,152.0,47.0,149.0,215.266
215276.0,124.0,149.0,55.0,145.0,215.276
215286.0,124.0,146.0,55.0,155.0,215.286
215296.0,122.0,145.0,64.0,166.0,215.296
215306.0,122.0,144.0,60.0,163.0,215.306
215316.0,122.0,143.0,56.0,212.0,215.316
215326.0,120.0,141.0,57.0,207.0,215.326
215336.0,119.0,140.0,51.0,197.0,215.336
215346.0,118.0,139.0,51.0,227.0,215.346
215356.0,116.0,136.0,50.0,223.0,215.356
215366.0,114.0,134.0,49.0,206.0,215.366
215376.0,112.0,132.0,51.0,189.0,215.376
215386.0,110.0,132.0,52.0,175.0,215.386
215396.0,108.0,130.0,54.0,161.0,215.396
215406.0,105.0,129.0,50.0,150.0,215.406
215416.0,103.0,129.0,50.0,138.0,215.416
215426.0,101.0,127.0,49.0,138.0,215.426
215436.0,99.0,126.0,56.0,132.0,215.436
215446.0,99.0,126.0,59.0,139.0,215.446
215456.0,98.0,125.0,58.0,143.0,215.456
215467.0,94.0,123.0,55.0,149.0,215.467
215477.0,94.0,121.0,58.0,147.0,215.477
215487.0,92.0,121.0,61.0,161.0,215.487
215497.0,91.0,118.0,60.0,157.0,215.497
215507.0,88.0,118.0,60.0,155.0,215.507
215517.0,85.0,117.0,57.0,144.0,215.517
215527.0,83.0,117.0,51.0,139.0,215.527
215537.0,80.0,117.0,48.0,139.0,215.537
215547.0,80.0,116.0,49.0,130.0,215.547
215557.0,80.0,116.0,45.0,146.0,215.557
215567.0,79.0,114.0,43.0,151.0,215.567
215577.0,79.0,116.0,44.0,144.0,215.577
215587.0,79.0,115.0,41.0,137.0,215.587
215597.0,80.0,111.0,39.0,133.0,215.597
215607.0,80.0,111.0,46.0,145.0,215.607
215617.0,81.0,109.0,46.0,153.0,215.617
215627.0,79.0,107.0,42.0,143.0,215.627
215638.0,79.0,105.0,42.0,137.0,215.638
215648.0,76.0,102.0,41.0,141.0,215.648
215658.0,76.0,100.0,41.0,131.0,215.658
