time (ms),signal 0,signal 1,signal 2,signal3,time (sec)
264023.0,63.0,40.0,18.0,86.0,264.023
264033.0,63.0,41.0,17.0,91.0,264.033
264043.0,62.0,40.0,17.0,87.0,264.043
264053.0,61.0,41.0,16.0,89.0,264.053
264064.0,61.0,42.0,26.0,88.0,264.064
264074.0,61.0,41.0,24.0,90.0,264.074
264084.0,61.0,41.0,22.0,89.0,264.084
264094.0,61.0,41.0,19.0,85.0,264.094
264104.0,61.0,42.0,17.0,82.0,264.104
264114.0,61.0,40.0,15.0,84.0,264.114
264124.0,61.0,43.0,17.0,84.0,264.124
264134.0,63.0,43.0,20.0,88.0,264.134
264144.0,64.0,42.0,17.0,89.0,264.144
264154.0,62.0,42.0,17.0,92.0,264.154
264164.0,63.0,41.0,15.0,89.0,264.164
264174.0,62.0,42.0,14.0,86.0,264.174
264184.0,62.0,40.0,13.0,90.0,264.184
264194.0,60.0,40.0,11.0,88.0,264.194
264204.0,58.0,41.0,13.0,95.0,264.204
264214.0,57.0,39.0,10.0,95.0,264.214
264224.0,54.0,40.0,10.0,93.0,264.224
264235.0,55.0,40.0,11.0,91.0,264.235
264245.0,56.0,41.0,10.0,89.0,264.245
264255.0,56.0,40.0,12.0,92.0,264.255
264265.0,56.0,40.0,11.0,86.0,264.265
264275.0,58.0,39.0,12.0,86.0,264.275
264285.0,57.0,39.0,10.0,91.0,264.285
264295.0,58.0,39.0,10.0,88.0,264.295
264305.0,58.0,39.0,10.0,91.0,264.305
264315.0,59.0,39.0,11.0,88.0,264.315
264325.0,59.0,38.0,11.0,86.0,264.325
264335.0,61.0,38.0,15.0,90.0,264.335
264345.0,61.0,40.0,19.0,87.0,264.345
264355.0,61.0,40.0,18.0,83.0,264.355
264365.0,60.0,40.0,17.0,81.0,264.365
264375.0,60.0,40.0,25.0,77.0,264.375
264385.0,61.0,41.0,24.0,77.0,264.385
264395.0,63.0,38.0,21.0,87.0,264.395
264406.0,63.0,40.0,20.0,82.0,264.406
264416.0,64.0,39.0,23.0,83.0,264.416
264426.0,63.0,39.0,24.0,82.0,264.426
264436.0,64.0,38.0,24.0,85.0,264.436
264446.0,65.0,38.0,22.0,86.0,264.446
264456.0,66.0,38.0,22.0,88.0,264.456
264466.0,67.0,37.0,19.0,82.0,264.466
264476.0,65.0,37.0,28.0,81.0,264.476
264486.0,66.0,37.0,25.0,83.0,264.486
264496.0,65.0,37.0,25.0,79.0,264.496
264506.0,64.0,36.0,28.0,84.0,264.506
264516.0,65.0,37.0,28.0,97.0,264.516
264526.0,64.0,38.0,31.0,95.0,264.526
264536.0,65.0,37.0,28.0,92.0,264.536
264546.0,64.0,37.0,24.0,95.0,264.546
264556.0,64.0,37.0,22.0,93.0,264.556
264566.0,64.0,39.0,30.0,102.0,264.566
264576.0,62.0,38.0,32.0,102.0,264.576
264586.0,65.0,40.0,32.0,105.0,264.586
264596.0,65.0,41.0,30.0,106.0,264.596
264606.0,65.0,41.0,28.0,100.0,264.606
264616.0,64.0,41.0,25.0,96.0,264.616
264626.0,63.0,41.0,23.0,96.0,264.626
264636.0,61.0,41.0,20.0,94.0,264.636
264646.0,61.0,44.0,18.0,92.0,264.646
264656.0,60.0,44.0,21.0,98.0,264.656
264666.0,59.0,46.0,29.0,103.0,264.666
264676.0,61.0,45.0,28.0,97.0,264.676
264686.0,63.0,47.0,25.0,102.0,264.686
264696.0,63.0,47.0,22.0,94.0,264.696
264706.0,64.0,47.0,21.0,91.0,264.706
264716.0,63.0,46.0,24.0,88.0,264.716
264726.0,64.0,45.0,43.0,89.0,264.726
264736.0,64.0,47.0,48.0,95.0,264.736
264747.0,63.0,46.0,45.0,89.0,264.747
264757.0,64.0,45.0,39.0,92.0,264.757
264767.0,64.0,43.0,38.0,93.0,264.767
264777.0,64.0,43.0,45.0,95.0,264.777
264787.0,64.0,42.0,40.0,106.0,264.787
264797.0,65.0,41.0,37.0,109.0,264.797
264807.0,62.0,41.0,36.0,106.0,264.807
264817.0,62.0,40.0,34.0,102.0,264.817
264827.0,62.0,40.0,30.0,100.0,264.827
264837.0,59.0,38.0,27.0,94.0,264.837
264847.0,59.0,38.0,24.0,93.0,264.847
264857.0,55.0,38.0,23.0,93.0,264.857
264867.0,57.0,41.0,35.0,92.0,264.867
264877.0,54.0,41.0,31.0,90.0,264.877
264887.0,53.0,38.0,28.0,86.0,264.887
264897.0,51.0,38.0,28.0,80.0,264.897
264907.0,51.0,39.0,31.0,88.0,264.907
264918.0,49.0,39.0,28.0,89.0,264.918
264928.0,48.0,38.0,30.0,95.0,264.928
264938.0,48.0,39.0,35.0,104.0,264.938
264948.0,48.0,38.0,32.0,98.0,264.948
264958.0,48.0,38.0,29.0,106.0,264.958
264968.0,48.0,40.0,26.0,105.0,264.968
264978.0,48.0,41.0,30.0,106.0,264.978
264988.0,47.0,41.0,25.0,108.0,264.988
264998.0,46.0,41.0,26.0,114.0,264.998
265008.0,47.0,44.0,33.0,121.0,265.008
265018.0,49.0,44.0,35.0,124.0,265.018
265028.0,49.0,43.0,33.0,118.0,265.028
265038.0,49.0,43.0,30.0,115.0,265.038
265048.0,50.0,42.0,27.0,106.0,265.048
265058.0,50.0,40.0,27.0,100.0,265.058
265068.0,49.0,40.0,25.0,97.0,265.068
265078.0,49.0,39.0,24.0,108.0,265.078
265088.0,48.0,43.0,34.0,103.0,265.088
265098.0,49.0,41.0,31.0,109.0,265.098
265108.0,49.0,40.0,27.0,108.0,265.108
265118.0,49.0,39.0,24.0,107.0,265.118
265128.0,49.0,38.0,20.0,97.0,265.128
265138.0,48.0,38.0,18.0,94.0,265.138
265148.0,49.0,38.0,26.0,93.0,265.148
265158.0,49.0,40.0,35.0,95.0,265.158
265168.0,50.0,38.0,32.0,92.0,265.168
265178.0,51.0,39.0,43.0,92.0,265.178
265188.0,52.0,40.0,38.0,102.0,265.188
265198.0,50.0,40.0,34.0,106.0,265.198
265208.0,49.0,41.0,31.0,98.0,265.208
265218.0,48.0,42.0,28.0,98.0,265.218
265228.0,48.0,43.0,25.0,90.0,265.228
265238.0,47.0,44.0,26.0,84.0,265.238
265248.0,49.0,45.0,21.0,90.0,265.248
265259.0,51.0,47.0,23.0,101.0,265.259
265269.0,51.0,48.0,36.0,97.0,265.269
265279.0,50.0,48.0,30.0,95.0,265.279
265289.0,51.0,49.0,28.0,89.0,265.289
265299.0,51.0,51.0,25.0,81.0,265.299
265309.0,51.0,50.0,23.0,78.0,265.309
265319.0,52.0,51.0,25.0,96.0,265.319
265329.0,52.0,52.0,23.0,95.0,265.329
265339.0,52.0,51.0,20.0,90.0,265.339
265349.0,48.0,52.0,18.0,83.0,265.349
265359.0,48.0,55.0,28.0,85.0,265.359
265369.0,47.0,55.0,30.0,83.0,265.369
265379.0,47.0,54.0,31.0,86.0,265.379
265389.0,46.0,56.0,28.0,91.0,265.389
265399.0,45.0,57.0,25.0,88.0,265.399
265409.0,46.0,57.0,23.0,83.0,265.409
265419.0,45.0,58.0,20.0,86.0,265.419
265430.0,47.0,57.0,22.0,104.0,265.43
265440.0,46.0,59.0,22.0,97.0,265.44
265450.0,46.0,60.0,29.0,100.0,265.45
265460.0,46.0,59.0,31.0,95.0,265.46
265470.0,46.0,58.0,29.0,88.0,265.47
265480.0,45.0,59.0,26.0,86.0,265.48
265490.0,45.0,59.0,23.0,101.0,265.49
265500.0,46.0,58.0,22.0,97.0,265.5
265510.0,45.0,60.0,19.0,91.0,265.51
265520.0,46.0,60.0,20.0,90.0,265.52
265530.0,46.0,60.0,21.0,96.0,265.53
265540.0,47.0,61.0,21.0,90.0,265.54
265550.0,47.0,61.0,30.0,99.0,265.55
265560.0,47.0,60.0,25.0,99.0,265.56
265570.0,47.0,61.0,23.0,98.0,265.57
265580.0,47.0,63.0,21.0,98.0,265.58
265590.0,47.0,61.0,20.0,94.0,265.59
265600.0,45.0,63.0,19.0,94.0,265.6
265610.0,47.0,62.0,18.0,94.0,265.61
265620.0,48.0,62.0,16.0,90.0,265.62
265630.0,46.0,62.0,26.0,92.0,265.63
265640.0,46.0,61.0,23.0,86.0,265.64
265650.0,46.0,61.0,21.0,85.0,265.65
265660.0,47.0,60.0,21.0,88.0,265.66
265670.0,47.0,60.0,24.0,92.0,265.67
265680.0,46.0,61.0,21.0,87.0,265.68
265690.0,47.0,59.0,19.0,86.0,265.69
265700.0,46.0,59.0,16.0,86.0,265.7
265710.0,45.0,57.0,15.0,81.0,265.71
265720.0,45.0,60.0,26.0,83.0,265.72
265730.0,47.0,56.0,26.0,82.0,265.73
265740.0,48.0,55.0,22.0,81.0,265.74
265750.0,49.0,55.0,23.0,77.0,265.75
265760.0,50.0,54.0,24.0,77.0,265.76
265771.0,49.0,55.0,20.0,77.0,265.771
265781.0,50.0,53.0,18.0,73.0,265.781
265791.0,52.0,53.0,16.0,87.0,265.791
265801.0,52.0,52.0,14.0,80.0,265.801
265811.0,52.0,54.0,28.0,84.0,265.811
265821.0,52.0,53.0,29.0,87.0,265.821
265831.0,53.0,51.0,26.0,95.0,265.831
265841.0,52.0,50.0,22.0,87.0,265.841
265851.0,50.0,49.0,22.0,85.0,265.851
265861.0,51.0,50.0,19.0,88.0,265.861
265871.0,50.0,50.0,21.0,86.0,265.871
265881.0,49.0,52.0,19.0,85.0,265.881
265891.0,51.0,52.0,29.0,83.0,265.891
265901.0,52.0,53.0,27.0,85.0,265.901
265911.0,52.0,54.0,23.0,84.0,265.911
265921.0,52.0,53.0,21.0,81.0,265.921
265931.0,51.0,58.0,22.0,90.0,265.931
265942.0,51.0,60.0,19.0,95.0,265.942
265952.0,53.0,59.0,17.0,89.0,265.952
265962.0,53.0,61.0,21.0,84.0,265.962
265972.0,56.0,60.0,30.0,93.0,265.972
265982.0,55.0,60.0,26.0,92.0,265.982
265992.0,55.0,59.0,24.0,88.0,265.992
266002.0,54.0,60.0,21.0,81.0,266.002
266012.0,53.0,60.0,19.0,80.0,266.012
266022.0,53.0,60.0,19.0,82.0,266.022
266032.0,52.0,62.0,21.0,88.0,266.032
266042.0,52.0,63.0,19.0,94.0,266.042
266052.0,50.0,65.0,26.0,99.0,266.052
266062.0,51.0,64.0,24.0,101.0,266.062
266072.0,50.0,67.0,21.0,95.0,266.072
266082.0,49.0,68.0,19.0,88.0,266.082
266092.0,50.0,68.0,22.0,82.0,266.092
266102.0,49.0,70.0,20.0,84.0,266.102
266112.0,50.0,71.0,20.0,85.0,266.112
266122.0,48.0,70.0,16.0,85.0,266.122
266132.0,48.0,69.0,16.0,81.0,266.132
266142.0,47.0,70.0,14.0,80.0,266.142
266152.0,47.0,67.0,24.0,76.0,266.152
266162.0,47.0,68.0,25.0,83.0,266.162
266172.0,45.0,69.0,24.0,80.0,266.172
266182.0,47.0,66.0,21.0,81.0,266.182
266192.0,45.0,66.0,18.0,94.0,266.192
266202.0,45.0,65.0,16.0,88.0,266.202
266212.0,45.0,65.0,16.0,84.0,266.212
266222.0,46.0,63.0,14.0,82.0,266.222
266232.0,46.0,63.0,13.0,82.0,266.232
266242.0,47.0,61.0,13.0,77.0,266.242
266252.0,47.0,61.0,29.0,82.0,266.252
266262.0,46.0,59.0,27.0,82.0,266.262
266272.0,47.0,57.0,23.0,77.0,266.272
266283.0,46.0,55.0,21.0,72.0,266.283
266293.0,45.0,52.0,19.0,64.0,266.293
266303.0,44.0,50.0,17.0,72.0,266.303
266313.0,45.0,48.0,16.0,69.0,266.313
266323.0,45.0,47.0,15.0,72.0,266.323
266333.0,46.0,46.0,12.0,75.0,266.333
266343.0,46.0,45.0,13.0,73.0,266.343
266353.0,45.0,49.0,24.0,72.0,266.353
266363.0,46.0,46.0,21.0,78.0,266.363
266373.0,46.0,46.0,19.0,77.0,266.373
266383.0,47.0,46.0,18.0,79.0,266.383
266393.0,47.0,46.0,17.0,87.0,266.393
266403.0,46.0,45.0,14.0,94.0,266.403
266413.0,45.0,46.0,15.0,92.0,266.413
266423.0,45.0,47.0,19.0,91.0,266.423
266433.0,44.0,47.0,17.0,83.0,266.433
266443.0,44.0,48.0,15.0,79.0,266.443
266454.0,44.0,50.0,28.0,86.0,266.454
266464.0,45.0,50.0,25.0,86.0,266.464
266474.0,44.0,50.0,26.0,87.0,266.474
266484.0,44.0,49.0,23.0,81.0,266.484
266494.0,43.0,49.0,22.0,80.0,266.494
266504.0,43.0,48.0,22.0,82.0,266.504
266514.0,43.0,48.0,21.0,78.0,266.514
266524.0,44.0,47.0,21.0,84.0,266.524
266534.0,45.0,49.0,28.0,80.0,266.534
266544.0,46.0,48.0,26.0,76.0,266.544
266554.0,47.0,47.0,26.0,71.0,266.554
266564.0,48.0,49.0,24.0,68.0,266.564
266574.0,48.0,48.0,22.0,66.0,266.574
266584.0,47.0,48.0,19.0,77.0,266.584
266594.0,48.0,48.0,18.0,87.0,266.594
266604.0,49.0,48.0,20.0,84.0,266.604
266614.0,48.0,49.0,21.0,81.0,266.614
266624.0,50.0,47.0,19.0,75.0,266.624
266634.0,49.0,49.0,18.0,80.0,266.634
266644.0,51.0,47.0,16.0,72.0,266.644
266654.0,51.0,49.0,18.0,86.0,266.654
266664.0,52.0,49.0,24.0,83.0,266.664
266674.0,54.0,48.0,24.0,83.0,266.674
266684.0,52.0,47.0,20.0,87.0,266.684
266694.0,53.0,45.0,20.0,79.0,266.694
266704.0,53.0,44.0,19.0,78.0,266.704
266714.0,51.0,43.0,21.0,87.0,266.714
266724.0,52.0,43.0,27.0,90.0,266.724
266734.0,49.0,42.0,25.0,99.0,266.734
266744.0,51.0,41.0,24.0,98.0,266.744
266754.0,50.0,42.0,31.0,93.0,266.754
266764.0,49.0,41.0,33.0,101.0,266.764
266774.0,49.0,42.0,28.0,100.0,266.774
266784.0,48.0,42.0,27.0,92.0,266.784
266795.0,48.0,40.0,27.0,91.0,266.795
266805.0,47.0,40.0,24.0,97.0,266.805
266815.0,49.0,40.0,25.0,99.0,266.815
266825.0,48.0,40.0,22.0,96.0,266.825
266835.0,49.0,40.0,22.0,89.0,266.835
266845.0,49.0,40.0,19.0,85.0,266.845
266855.0,49.0,40.0,22.0,84.0,266.855
266865.0,51.0,41.0,30.0,96.0,266.865
266875.0,49.0,40.0,27.0,94.0,266.875
266885.0,51.0,39.0,25.0,87.0,266.885
266895.0,50.0,38.0,20.0,88.0,266.895
266905.0,50.0,37.0,18.0,85.0,266.905
266915.0,51.0,38.0,19.0,81.0,266.915
266925.0,53.0,39.0,24.0,98.0,266.925
266935.0,53.0,38.0,24.0,94.0,266.935
266945.0,53.0,40.0,30.0,89.0,266.945
266955.0,55.0,39.0,27.0,87.0,266.955
266966.0,54.0,39.0,23.0,85.0,266.966
266976.0,55.0,37.0,22.0,87.0,266.976
266986.0,55.0,37.0,21.0,86.0,266.986
266996.0,56.0,37.0,19.0,78.0,266.996
267006.0,56.0,36.0,17.0,82.0,267.006
267016.0,55.0,37.0,15.0,81.0,267.016
267026.0,57.0,36.0,16.0,80.0,267.026
267036.0,56.0,39.0,18.0,82.0,267.036
267046.0,58.0,39.0,29.0,77.0,267.046
267056.0,59.0,40.0,27.0,80.0,267.056
267066.0,59.0,39.0,24.0,82.0,267.066
267076.0,59.0,39.0,22.0,86.0,267.076
267086.0,59.0,39.0,20.0,86.0,267.086
267096.0,60.0,39.0,18.0,89.0,267.096
267106.0,57.0,38.0,16.0,87.0,267.106
267116.0,55.0,37.0,16.0,85.0,267.116
267126.0,54.0,38.0,16.0,83.0,267.126
267136.0,51.0,37.0,19.0,78.0,267.136
267146.0,52.0,38.0,27.0,84.0,267.146
267156.0,51.0,38.0,25.0,88.0,267.156
267166.0,51.0,37.0,25.0,84.0,267.166
267176.0,50.0,38.0,22.0,88.0,267.176
267186.0,50.0,37.0,21.0,81.0,267.186
267196.0,49.0,36.0,24.0,79.0,267.196
267206.0,50.0,37.0,24.0,88.0,267.206
267216.0,51.0,36.0,21.0,86.0,267.216
267226.0,51.0,36.0,22.0,85.0,267.226
267236.0,54.0,37.0,24.0,80.0,267.236
267246.0,53.0,38.0,20.0,78.0,267.246
267256.0,53.0,39.0,19.0,77.0,267.256
267266.0,52.0,41.0,17.0,77.0,267.266
267276.0,51.0,42.0,17.0,83.0,267.276
267286.0,53.0,40.0,15.0,90.0,267.286
267296.0,51.0,42.0,20.0,86.0,267.296
267307.0,54.0,43.0,22.0,81.0,267.307
267317.0,53.0,43.0,18.0,94.0,267.317
267327.0,55.0,43.0,17.0,94.0,267.327
267337.0,55.0,44.0,19.0,94.0,267.337
267347.0,55.0,44.0,21.0,93.0,267.347
267357.0,53.0,44.0,19.0,87.0,267.357
267367.0,53.0,43.0,15.0,84.0,267.367
267377.0,54.0,42.0,15.0,86.0,267.377
267387.0,53.0,41.0,13.0,85.0,267.387
267397.0,53.0,42.0,12.0,88.0,267.397
267407.0,53.0,43.0,19.0,93.0,267.407
267417.0,54.0,44.0,25.0,94.0,267.417
267427.0,55.0,42.0,28.0,90.0,267.427
267437.0,53.0,42.0,29.0,90.0,267.437
267447.0,54.0,41.0,29.0,96.0,267.447
267457.0,53.0,41.0,25.0,97.0,267.457
267467.0,52.0,41.0,23.0,94.0,267.467
267478.0,53.0,40.0,21.0,91.0,267.478
267488.0,51.0,40.0,18.0,88.0,267.488
267498.0,51.0,38.0,16.0,86.0,267.498
267508.0,52.0,39.0,14.0,83.0,267.508
267518.0,51.0,39.0,17.0,95.0,267.518
267528.0,52.0,41.0,18.0,97.0,267.528
267538.0,49.0,40.0,16.0,99.0,267.538
267548.0,49.0,41.0,15.0,98.0,267.548
267558.0,50.0,40.0,14.0,104.0,267.558
267568.0,49.0,40.0,21.0,106.0,267.568
267578.0,50.0,40.0,18.0,104.0,267.578
267588.0,50.0,40.0,18.0,98.0,267.588
267598.0,50.0,40.0,20.0,106.0,267.598
267608.0,52.0,38.0,18.0,103.0,267.608
267618.0,54.0,37.0,16.0,107.0,267.618
267628.0,53.0,40.0,17.0,111.0,267.628
267638.0,54.0,40.0,25.0,110.0,267.638
267648.0,54.0,40.0,23.0,116.0,267.648
267658.0,55.0,38.0,21.0,108.0,267.658
267668.0,54.0,38.0,19.0,103.0,267.668
267678.0,55.0,38.0,19.0,102.0,267.678
267688.0,54.0,37.0,16.0,95.0,267.688
267698.0,54.0,37.0,15.0,97.0,267.698
267708.0,53.0,38.0,18.0,87.0,267.708
267718.0,52.0,38.0,17.0,89.0,267.718
267728.0,52.0,38.0,16.0,85.0,267.728
267738.0,52.0,39.0,14.0,98.0,267.738
267748.0,52.0,41.0,26.0,101.0,267.748
267758.0,53.0,41.0,27.0,95.0,267.758
267768.0,51.0,42.0,25.0,92.0,267.768
267778.0,53.0,40.0,23.0,96.0,267.778
267788.0,52.0,41.0,19.0,99.0,267.788
267798.0,52.0,40.0,18.0,122.0,267.798
267808.0,51.0,39.0,16.0,116.0,267.808
267819.0,50.0,40.0,14.0,113.0,267.819
267829.0,50.0,41.0,18.0,110.0,267.829
267839.0,50.0,40.0,16.0,108.0,267.839
267849.0,50.0,39.0,15.0,104.0,267.849
267859.0,49.0,40.0,22.0,99.0,267.859
267869.0,48.0,40.0,22.0,106.0,267.869
267879.0,48.0,39.0,19.0,111.0,267.879
267889.0,47.0,40.0,18.0,111.0,267.889
267899.0,47.0,40.0,16.0,132.0,267.899
267909.0,46.0,41.0,14.0,125.0,267.909
267919.0,46.0,40.0,14.0,121.0,267.919
267929.0,46.0,43.0,17.0,128.0,267.929
267939.0,47.0,43.0,23.0,124.0,267.939
267949.0,49.0,44.0,30.0,120.0,267.949
267959.0,51.0,45.0,40.0,126.0,267.959
267969.0,50.0,44.0,35.0,116.0,267.969
267979.0,50.0,43.0,30.0,110.0,267.979
267990.0,50.0,42.0,27.0,98.0,267.99
268000.0,51.0,42.0,23.0,99.0,268.0
268010.0,51.0,41.0,21.0,95.0,268.01
268020.0,53.0,41.0,19.0,100.0,268.02
268030.0,53.0,41.0,18.0,100.0,268.03
268040.0,53.0,42.0,27.0,108.0,268.04
268050.0,53.0,43.0,26.0,107.0,268.05
268060.0,53.0,43.0,27.0,123.0,268.06
268070.0,56.0,45.0,37.0,124.0,268.07
268080.0,58.0,44.0,35.0,119.0,268.08
268090.0,57.0,44.0,29.0,117.0,268.09
268100.0,56.0,44.0,26.0,114.0,268.1
268110.0,56.0,42.0,24.0,119.0,268.11
268120.0,54.0,42.0,22.0,124.0,268.12
268130.0,55.0,40.0,21.0,113.0,268.13
268140.0,53.0,43.0,24.0,112.0,268.14
268150.0,55.0,41.0,24.0,117.0,268.15
268160.0,54.0,41.0,20.0,110.0,268.16
268170.0,53.0,43.0,31.0,128.0,268.17
268180.0,53.0,41.0,32.0,131.0,268.18
268190.0,53.0,41.0,28.0,122.0,268.19
268200.0,53.0,40.0,26.0,114.0,268.2
268210.0,55.0,41.0,23.0,111.0,268.21
268220.0,55.0,42.0,24.0,114.0,268.22
268230.0,57.0,41.0,20.0,117.0,268.23
268240.0,56.0,41.0,22.0,111.0,268.24
268250.0,58.0,42.0,23.0,121.0,268.25
268260.0,58.0,42.0,22.0,118.0,268.26
268270.0,56.0,43.0,31.0,119.0,268.27
268280.0,56.0,42.0,29.0,131.0,268.28
268290.0,56.0,42.0,28.0,150.0,268.29
268300.0,53.0,44.0,24.0,155.0,268.3
268310.0,54.0,42.0,23.0,156.0,268.31
268320.0,54.0,43.0,22.0,165.0,268.32
268331.0,53.0,44.0,24.0,168.0,268.331
268341.0,53.0,45.0,36.0,173.0,268.341
268351.0,53.0,46.0,41.0,168.0,268.351
268361.0,56.0,46.0,47.0,188.0,268.361
268371.0,55.0,49.0,52.0,198.0,268.371
268381.0,56.0,50.0,55.0,204.0,268.381
268391.0,60.0,49.0,52.0,193.0,268.391
268401.0,60.0,49.0,53.0,198.0,268.401
268411.0,61.0,47.0,53.0,179.0,268.411
268421.0,61.0,47.0,59.0,170.0,268.421
268431.0,60.0,49.0,56.0,163.0,268.431
268441.0,58.0,52.0,53.0,181.0,268.441
268451.0,60.0,51.0,78.0,194.0,268.451
268461.0,61.0,49.0,75.0,199.0,268.461
268471.0,59.0,48.0,70.0,203.0,268.471
268481.0,58.0,47.0,84.0,194.0,268.481
268491.0,56.0,47.0,78.0,192.0,268.491
268502.0,56.0,47.0,77.0,186.0,268.502
268512.0,54.0,46.0,81.0,178.0,268.512
268522.0,53.0,44.0,86.0,187.0,268.522
268532.0,54.0,46.0,92.0,204.0,268.532
268542.0,53.0,47.0,95.0,190.0,268.542
268552.0,53.0,46.0,86.0,180.0,268.552
268562.0,51.0,45.0,88.0,177.0,268.562
268572.0,52.0,44.0,82.0,200.0,268.572
268582.0,50.0,46.0,78.0,182.0,268.582
268592.0,49.0,49.0,76.0,174.0,268.592
268602.0,48.0,47.0,69.0,168.0,268.602
268612.0,48.0,48.0,60.0,173.0,268.612
268622.0,47.0,48.0,56.0,169.0,268.622
268632.0,48.0,50.0,59.0,174.0,268.632
268642.0,50.0,52.0,62.0,171.0,268.642
268652.0,49.0,50.0,61.0,157.0,268.652
268662.0,51.0,51.0,59.0,150.0,268.662
268672.0,52.0,51.0,67.0,150.0,268.672
268682.0,51.0,53.0,64.0,159.0,268.682
268692.0,53.0,52.0,62.0,154.0,268.692
268702.0,53.0,52.0,63.0,150.0,268.702
268712.0,54.0,52.0,57.0,141.0,268.712
268722.0,54.0,50.0,53.0,134.0,268.722
268732.0,54.0,49.0,49.0,139.0,268.732
268742.0,56.0,49.0,49.0,141.0,268.742
268752.0,56.0,50.0,48.0,135.0,268.752
268762.0,57.0,50.0,57.0,130.0,268.762
268772.0,59.0,52.0,73.0,134.0,268.772
268782.0,58.0,51.0,64.0,130.0,268.782
268792.0,60.0,51.0,64.0,129.0,268.792
268802.0,58.0,53.0,60.0,125.0,268.802
268812.0,57.0,53.0,54.0,132.0,268.812
268822.0,57.0,55.0,61.0,143.0,268.822
268832.0,57.0,54.0,73.0,138.0,268.832
268843.0,57.0,54.0,69.0,132.0,268.843
268853.0,58.0,54.0,62.0,127.0,268.853
268863.0,57.0,53.0,56.0,151.0,268.863
268873.0,56.0,53.0,52.0,146.0,268.873
268883.0,56.0,53.0,51.0,150.0,268.883
268893.0,56.0,54.0,47.0,149.0,268.893
268903.0,55.0,51.0,41.0,146.0,268.903
268913.0,54.0,51.0,38.0,158.0,268.913
268923.0,56.0,51.0,43.0,167.0,268.923
268933.0,58.0,51.0,42.0,173.0,268.933
268943.0,57.0,52.0,53.0,181.0,268.943
268953.0,60.0,51.0,58.0,189.0,268.953
268963.0,62.0,52.0,74.0,198.0,268.963
268973.0,61.0,51.0,80.0,200.0,268.973
268983.0,63.0,53.0,99.0,202.0,268.983
268993.0,62.0,56.0,119.0,241.0,268.993
269003.0,68.0,64.0,160.0,336.0,269.003
269014.0,80.0,81.0,271.0,431.0,269.014
269024.0,87.0,87.0,317.0,501.0,269.024
269034.0,87.0,91.0,330.0,497.0,269.034
269044.0,102.0,88.0,310.0,491.0,269.044
269054.0,105.0,89.0,297.0,501.0,269.054
269064.0,105.0,89.0,309.0,524.0,269.064
269074.0,104.0,87.0,296.0,508.0,269.074
269084.0,99.0,83.0,271.0,460.0,269.084
269094.0,93.0,76.0,239.0,414.0,269.094
269104.0,90.0,74.0,215.0,382.0,269.104
269114.0,88.0,71.0,198.0,363.0,269.114
269124.0,84.0,70.0,179.0,348.0,269.124
269134.0,81.0,66.0,170.0,314.0,269.134
269144.0,81.0,63.0,153.0,308.0,269.144
269154.0,77.0,59.0,135.0,286.0,269.154
269164.0,78.0,57.0,128.0,278.0,269.164
269174.0,77.0,60.0,116.0,262.0,269.174
269184.0,77.0,58.0,108.0,251.0,269.184
269194.0,74.0,56.0,94.0,234.0,269.194
269204.0,73.0,56.0,91.0,220.0,269.204
269214.0,74.0,54.0,84.0,207.0,269.214
269224.0,69.0,53.0,73.0,192.0,269.224
269234.0,70.0,53.0,65.0,181.0,269.234
269244.0,69.0,51.0,56.0,172.0,269.244
269254.0,68.0,48.0,51.0,158.0,269.254
269264.0,65.0,47.0,49.0,152.0,269.264
269274.0,64.0,46.0,50.0,145.0,269.274
269284.0,63.0,44.0,44.0,145.0,269.284
269294.0,60.0,44.0,38.0,140.0,269.294
269304.0,61.0,41.0,38.0,139.0,269.304
269314.0,58.0,43.0,42.0,142.0,269.314
269324.0,58.0,43.0,40.0,138.0,269.324
269334.0,57.0,43.0,35.0,137.0,269.334
269344.0,58.0,41.0,31.0,134.0,269.344
269355.0,57.0,44.0,31.0,138.0,269.355
269365.0,56.0,43.0,26.0,133.0,269.365
269375.0,56.0,43.0,27.0,126.0,269.375
269385.0,53.0,43.0,25.0,121.0,269.385
269395.0,54.0,41.0,23.0,123.0,269.395
269405.0,55.0,42.0,20.0,125.0,269.405
269415.0,53.0,41.0,17.0,124.0,269.415
269425.0,53.0,39.0,17.0,123.0,269.425
269435.0,52.0,40.0,14.0,122.0,269.435
269445.0,51.0,39.0,13.0,111.0,269.445
269455.0,50.0,40.0,19.0,115.0,269.455
269465.0,50.0,38.0,17.0,111.0,269.465
269475.0,50.0,39.0,16.0,119.0,269.475
269485.0,49.0,40.0,31.0,124.0,269.485
269495.0,49.0,40.0,29.0,128.0,269.495
269505.0,47.0,39.0,24.0,125.0,269.505
269515.0,46.0,37.0,24.0,123.0,269.515
269526.0,46.0,38.0,23.0,125.0,269.526
269536.0,45.0,37.0,21.0,119.0,269.536
269546.0,45.0,37.0,21.0,116.0,269.546
269556.0,44.0,35.0,20.0,110.0,269.556
269566.0,44.0,35.0,22.0,116.0,269.566
269576.0,47.0,36.0,20.0,115.0,269.576
269586.0,47.0,36.0,18.0,108.0,269.586
269596.0,47.0,37.0,16.0,109.0,269.596
269606.0,47.0,36.0,16.0,114.0,269.606
269616.0,47.0,37.0,14.0,120.0,269.616
269626.0,48.0,36.0,13.0,118.0,269.626
269636.0,48.0,38.0,12.0,107.0,269.636
269646.0,47.0,38.0,12.0,111.0,269.646
269656.0,49.0,39.0,16.0,117.0,269.656
269666.0,47.0,39.0,15.0,114.0,269.666
269676.0,46.0,39.0,18.0,108.0,269.676
269686.0,47.0,38.0,17.0,101.0,269.686
269696.0,47.0,40.0,22.0,99.0,269.696
269706.0,47.0,41.0,20.0,98.0,269.706
269716.0,46.0,42.0,22.0,95.0,269.716
269726.0,46.0,40.0,20.0,91.0,269.726
269736.0,46.0,40.0,17.0,92.0,269.736
269746.0,46.0,38.0,15.0,88.0,269.746
269756.0,46.0,38.0,14.0,100.0,269.756
269766.0,46.0,39.0,13.0,102.0,269.766
269776.0,47.0,41.0,14.0,101.0,269.776
269786.0,44.0,41.0,20.0,108.0,269.786
269796.0,47.0,42.0,19.0,106.0,269.796
269806.0,48.0,45.0,17.0,105.0,269.806
269816.0,47.0,44.0,16.0,104.0,269.816
269826.0,48.0,44.0,14.0,103.0,269.826
269836.0,48.0,43.0,13.0,99.0,269.836
269846.0,48.0,42.0,13.0,104.0,269.846
269856.0,47.0,43.0,11.0,102.0,269.856
269867.0,46.0,42.0,11.0,100.0,269.867
269877.0,48.0,42.0,14.0,109.0,269.877
269887.0,48.0,42.0,16.0,109.0,269.887
269897.0,48.0,41.0,16.0,111.0,269.897
269907.0,47.0,41.0,19.0,107.0,269.907
269917.0,48.0,40.0,20.0,121.0,269.917
269927.0,47.0,42.0,16.0,114.0,269.927
269937.0,46.0,42.0,15.0,105.0,269.937
269947.0,45.0,43.0,12.0,100.0,269.947
269957.0,45.0,44.0,12.0,105.0,269.957
269967.0,45.0,44.0,11.0,104.0,269.967
269977.0,43.0,46.0,10.0,100.0,269.977
269987.0,45.0,48.0,10.0,93.0,269.987
269997.0,43.0,49.0,8.0,93.0,269.997
270007.0,44.0,49.0,10.0,90.0,270.007
270017.0,44.0,50.0,11.0,89.0,270.017
270027.0,43.0,50.0,10.0,82.0,270.027
270038.0,43.0,50.0,10.0,79.0,270.038
270048.0,44.0,49.0,8.0,90.0,270.048
270058.0,43.0,48.0,8.0,83.0,270.058
270068.0,42.0,46.0,6.0,87.0,270.068
270078.0,42.0,44.0,9.0,96.0,270.078
270088.0,42.0,43.0,8.0,104.0,270.088
270098.0,41.0,42.0,7.0,98.0,270.098
270108.0,42.0,42.0,7.0,97.0,270.108
270118.0,41.0,41.0,5.0,95.0,270.118
270128.0,44.0,40.0,8.0,96.0,270.128
270138.0,42.0,40.0,8.0,108.0,270.138
270148.0,42.0,39.0,9.0,101.0,270.148
270158.0,42.0,41.0,8.0,117.0,270.158
270168.0,41.0,40.0,7.0,110.0,270.168
270178.0,42.0,39.0,7.0,98.0,270.178
270188.0,41.0,38.0,5.0,89.0,270.188
270198.0,42.0,37.0,6.0,83.0,270.198
270208.0,41.0,37.0,6.0,83.0,270.208
270218.0,40.0,37.0,6.0,77.0,270.218
270228.0,41.0,37.0,6.0,90.0,270.228
270238.0,41.0,37.0,5.0,90.0,270.238
270248.0,42.0,36.0,7.0,89.0,270.248
270258.0,41.0,38.0,7.0,87.0,270.258
270268.0,43.0,38.0,7.0,89.0,270.268
270278.0,41.0,39.0,6.0,86.0,270.278
270288.0,42.0,39.0,8.0,81.0,270.288
270298.0,42.0,38.0,7.0,85.0,270.298
270308.0,43.0,37.0,6.0,80.0,270.308
270318.0,44.0,36.0,6.0,79.0,270.318
270328.0,44.0,36.0,5.0,81.0,270.328
270338.0,47.0,37.0,7.0,81.0,270.338
270348.0,46.0,38.0,7.0,88.0,270.348
270358.0,46.0,37.0,7.0,93.0,270.358
270368.0,46.0,38.0,8.0,102.0,270.368
270379.0,46.0,38.0,7.0,102.0,270.379
270389.0,45.0,38.0,7.0,98.0,270.389
270399.0,45.0,38.0,7.0,113.0,270.399
270409.0,48.0,38.0,9.0,133.0,270.409
270419.0,46.0,39.0,7.0,124.0,270.419
270429.0,47.0,41.0,12.0,120.0,270.429
270439.0,48.0,41.0,12.0,113.0,270.439
270449.0,49.0,44.0,11.0,108.0,270.449
270459.0,52.0,43.0,10.0,115.0,270.459
270469.0,51.0,43.0,9.0,107.0,270.469
270479.0,53.0,41.0,10.0,103.0,270.479
270489.0,52.0,41.0,9.0,97.0,270.489
270499.0,53.0,40.0,9.0,91.0,270.499
270509.0,53.0,40.0,8.0,91.0,270.509
270519.0,53.0,40.0,8.0,94.0,270.519
270529.0,54.0,38.0,10.0,96.0,270.529
270539.0,53.0,38.0,9.0,94.0,270.539
270550.0,54.0,38.0,10.0,88.0,270.55
270560.0,54.0,38.0,8.0,80.0,270.56
270570.0,54.0,37.0,11.0,81.0,270.57
270580.0,55.0,37.0,10.0,79.0,270.58
270590.0,55.0,36.0,10.0,91.0,270.59
270600.0,54.0,36.0,12.0,86.0,270.6
270610.0,53.0,37.0,10.0,81.0,270.61
270620.0,54.0,38.0,11.0,80.0,270.62
270630.0,53.0,37.0,8.0,80.0,270.63
270640.0,52.0,37.0,8.0,76.0,270.64
270650.0,51.0,38.0,10.0,86.0,270.65
270660.0,50.0,38.0,10.0,88.0,270.66
270670.0,49.0,38.0,9.0,87.0,270.67
270680.0,47.0,38.0,8.0,97.0,270.68
270690.0,51.0,39.0,9.0,99.0,270.69
270700.0,48.0,39.0,7.0,92.0,270.7
270710.0,48.0,37.0,7.0,93.0,270.71
270720.0,48.0,38.0,7.0,87.0,270.72
270730.0,48.0,39.0,7.0,95.0,270.73
270740.0,49.0,38.0,6.0,90.0,270.74
270750.0,49.0,40.0,5.0,85.0,270.75
270760.0,50.0,40.0,6.0,79.0,270.76
270770.0,50.0,41.0,6.0,79.0,270.77
270780.0,51.0,42.0,7.0,81.0,270.78
270790.0,53.0,41.0,8.0,85.0,270.79
270800.0,53.0,44.0,8.0,96.0,270.8
270810.0,54.0,44.0,8.0,96.0,270.81
270820.0,53.0,45.0,7.0,96.0,270.82
270830.0,55.0,46.0,7.0,105.0,270.83
270840.0,54.0,45.0,6.0,106.0,270.84
270850.0,53.0,46.0,7.0,107.0,270.85
270860.0,54.0,45.0,6.0,107.0,270.86
270870.0,54.0,45.0,5.0,112.0,270.87
270880.0,54.0,44.0,8.0,152.0,270.88
270891.0,53.0,44.0,6.0,153.0,270.891
270901.0,53.0,45.0,7.0,153.0,270.901
270911.0,51.0,43.0,6.0,143.0,270.911
270921.0,50.0,42.0,6.0,143.0,270.921
270931.0,49.0,44.0,6.0,135.0,270.931
270941.0,48.0,43.0,5.0,127.0,270.941
270951.0,47.0,42.0,5.0,113.0,270.951
270961.0,45.0,41.0,8.0,117.0,270.961
270971.0,47.0,42.0,8.0,111.0,270.971
270981.0,46.0,42.0,8.0,119.0,270.981
270991.0,46.0,41.0,8.0,123.0,270.991
271001.0,46.0,41.0,10.0,115.0,271.001
271011.0,48.0,41.0,11.0,111.0,271.011
271021.0,48.0,41.0,10.0,107.0,271.021
271031.0,47.0,41.0,13.0,113.0,271.031
271041.0,48.0,39.0,13.0,112.0,271.041
271051.0,47.0,39.0,10.0,113.0,271.051
271062.0,46.0,38.0,11.0,107.0,271.062
271072.0,46.0,38.0,11.0,108.0,271.072
271082.0,46.0,39.0,9.0,98.0,271.082
271092.0,46.0,38.0,10.0,118.0,271.092
271102.0,45.0,38.0,10.0,118.0,271.102
271112.0,46.0,39.0,10.0,123.0,271.112
271122.0,47.0,42.0,11.0,123.0,271.122
271132.0,46.0,42.0,10.0,117.0,271.132
271142.0,47.0,41.0,10.0,116.0,271.142
271152.0,46.0,40.0,8.0,128.0,271.152
271162.0,46.0,38.0,9.0,146.0,271.162
271172.0,47.0,39.0,8.0,138.0,271.172
271182.0,49.0,38.0,10.0,136.0,271.182
271192.0,49.0,40.0,8.0,129.0,271.192
271202.0,50.0,40.0,7.0,129.0,271.202
271212.0,50.0,39.0,7.0,123.0,271.212
271222.0,51.0,39.0,8.0,126.0,271.222
271232.0,51.0,37.0,7.0,122.0,271.232
271242.0,51.0,38.0,7.0,117.0,271.242
271252.0,51.0,38.0,10.0,129.0,271.252
271262.0,50.0,38.0,11.0,124.0,271.262
271272.0,50.0,38.0,11.0,129.0,271.272
271282.0,51.0,38.0,10.0,135.0,271.282
271292.0,50.0,37.0,10.0,133.0,271.292
271302.0,51.0,38.0,9.0,147.0,271.302
271312.0,52.0,38.0,9.0,135.0,271.312
271322.0,53.0,37.0,9.0,133.0,271.322
271332.0,53.0,37.0,8.0,135.0,271.332
271342.0,55.0,37.0,10.0,125.0,271.342
271352.0,56.0,36.0,10.0,129.0,271.352
271362.0,56.0,37.0,9.0,128.0,271.362
271372.0,56.0,36.0,8.0,124.0,271.372
271382.0,56.0,36.0,7.0,121.0,271.382
271392.0,56.0,36.0,7.0,115.0,271.392
271403.0,53.0,35.0,6.0,111.0,271.403
271413.0,52.0,37.0,7.0,125.0,271.413
271423.0,51.0,36.0,6.0,113.0,271.423
271433.0,50.0,38.0,6.0,118.0,271.433
271443.0,50.0,38.0,8.0,121.0,271.443
271453.0,51.0,38.0,7.0,122.0,271.453
271463.0,51.0,41.0,8.0,117.0,271.463
271473.0,50.0,42.0,6.0,110.0,271.473
271483.0,48.0,43.0,6.0,103.0,271.483
271493.0,48.0,42.0,5.0,101.0,271.493
271503.0,48.0,43.0,6.0,100.0,271.503
271513.0,47.0,42.0,6.0,96.0,271.513
271523.0,47.0,41.0,5.0,106.0,271.523
271533.0,47.0,38.0,5.0,102.0,271.533
271543.0,47.0,39.0,4.0,108.0,271.543
271553.0,46.0,40.0,5.0,106.0,271.553
271563.0,46.0,39.0,4.0,100.0,271.563
271574.0,46.0,40.0,3.0,93.0,271.574
271584.0,46.0,38.0,4.0,93.0,271.584
271594.0,45.0,38.0,4.0,107.0,271.594
271604.0,46.0,38.0,5.0,113.0,271.604
271614.0,47.0,38.0,11.0,120.0,271.614
271624.0,47.0,38.0,12.0,123.0,271.624
271634.0,47.0,39.0,12.0,115.0,271.634
271644.0,46.0,39.0,11.0,110.0,271.644
271654.0,44.0,39.0,10.0,113.0,271.654
271664.0,43.0,41.0,9.0,109.0,271.664
271674.0,45.0,40.0,9.0,102.0,271.674
271684.0,44.0,40.0,8.0,101.0,271.684
271694.0,43.0,40.0,7.0,115.0,271.694
271704.0,43.0,39.0,9.0,121.0,271.704
271714.0,45.0,41.0,8.0,129.0,271.714
271724.0,45.0,38.0,8.0,130.0,271.724
271734.0,44.0,38.0,7.0,124.0,271.734
271744.0,45.0,36.0,7.0,118.0,271.744
271754.0,45.0,37.0,6.0,114.0,271.754
271764.0,45.0,37.0,6.0,104.0,271.764
271774.0,45.0,37.0,7.0,104.0,271.774
271784.0,43.0,38.0,7.0,106.0,271.784
271794.0,45.0,38.0,7.0,105.0,271.794
271804.0,44.0,39.0,9.0,106.0,271.804
271814.0,45.0,39.0,9.0,106.0,271.814
271824.0,44.0,39.0,8.0,103.0,271.824
271834.0,44.0,38.0,12.0,100.0,271.834
271844.0,44.0,38.0,12.0,98.0,271.844
271854.0,43.0,38.0,10.0,100.0,271.854
271864.0,43.0,37.0,11.0,102.0,271.864
271874.0,43.0,38.0,9.0,96.0,271.874
271884.0,43.0,38.0,14.0,108.0,271.884
271894.0,43.0,37.0,12.0,109.0,271.894
271904.0,43.0,37.0,12.0,100.0,271.904
271915.0,42.0,37.0,11.0,97.0,271.915
271925.0,43.0,38.0,11.0,102.0,271.925
271935.0,45.0,37.0,10.0,100.0,271.935
271945.0,44.0,36.0,9.0,104.0,271.945
271955.0,44.0,36.0,10.0,102.0,271.955
271965.0,43.0,35.0,12.0,102.0,271.965
271975.0,43.0,35.0,12.0,106.0,271.975
271985.0,43.0,36.0,15.0,108.0,271.985
271995.0,42.0,36.0,15.0,112.0,271.995
272005.0,43.0,35.0,14.0,112.0,272.005
272015.0,43.0,36.0,13.0,106.0,272.015
272025.0,43.0,35.0,13.0,98.0,272.025
272035.0,42.0,36.0,10.0,92.0,272.035
272045.0,42.0,35.0,10.0,87.0,272.045
272055.0,42.0,34.0,9.0,84.0,272.055
272065.0,41.0,35.0,8.0,90.0,272.065
272075.0,41.0,34.0,8.0,94.0,272.075
272086.0,41.0,34.0,7.0,100.0,272.086
272096.0,43.0,34.0,8.0,95.0,272.096
272106.0,42.0,35.0,8.0,114.0,272.106
272116.0,43.0,34.0,8.0,116.0,272.116
272126.0,43.0,34.0,8.0,116.0,272.126
272136.0,42.0,35.0,7.0,105.0,272.136
272146.0,42.0,34.0,7.0,99.0,272.146
272156.0,42.0,35.0,7.0,90.0,272.156
272166.0,43.0,35.0,8.0,99.0,272.166
272176.0,41.0,35.0,9.0,103.0,272.176
272186.0,42.0,35.0,9.0,106.0,272.186
272196.0,41.0,35.0,9.0,103.0,272.196
272206.0,42.0,35.0,8.0,94.0,272.206
272216.0,42.0,34.0,11.0,94.0,272.216
272226.0,41.0,34.0,9.0,87.0,272.226
272236.0,43.0,35.0,9.0,95.0,272.236
272246.0,43.0,35.0,10.0,95.0,272.246
272256.0,42.0,35.0,10.0,93.0,272.256
272266.0,42.0,33.0,9.0,89.0,272.266
272276.0,42.0,35.0,9.0,93.0,272.276
272286.0,43.0,34.0,8.0,91.0,272.286
272296.0,43.0,36.0,7.0,95.0,272.296
272306.0,44.0,36.0,13.0,92.0,272.306
272316.0,43.0,37.0,10.0,89.0,272.316
272326.0,44.0,37.0,12.0,93.0,272.326
272336.0,44.0,37.0,11.0,86.0,272.336
272346.0,43.0,37.0,10.0,88.0,272.346
272356.0,44.0,36.0,9.0,92.0,272.356
272366.0,44.0,37.0,8.0,95.0,272.366
272376.0,44.0,37.0,9.0,93.0,272.376
272386.0,44.0,37.0,9.0,90.0,272.386
272396.0,43.0,37.0,8.0,85.0,272.396
272406.0,44.0,36.0,9.0,84.0,272.406
272416.0,43.0,37.0,8.0,83.0,272.416
272427.0,45.0,35.0,9.0,93.0,272.427
272437.0,46.0,36.0,9.0,98.0,272.437
272447.0,47.0,35.0,10.0,93.0,272.447
272457.0,47.0,36.0,8.0,90.0,272.457
272467.0,47.0,36.0,9.0,91.0,272.467
272477.0,49.0,36.0,9.0,89.0,272.477
272487.0,49.0,37.0,8.0,93.0,272.487
272497.0,49.0,36.0,8.0,88.0,272.497
272507.0,49.0,37.0,7.0,85.0,272.507
272517.0,49.0,37.0,9.0,83.0,272.517
272527.0,50.0,39.0,7.0,93.0,272.527
272537.0,50.0,38.0,6.0,97.0,272.537
272547.0,49.0,37.0,6.0,94.0,272.547
272557.0,50.0,38.0,7.0,89.0,272.557
272567.0,51.0,36.0,7.0,88.0,272.567
272577.0,49.0,36.0,7.0,94.0,272.577
272587.0,51.0,36.0,8.0,108.0,272.587
272598.0,50.0,35.0,6.0,102.0,272.598
272608.0,50.0,36.0,6.0,96.0,272.608
272618.0,48.0,35.0,5.0,96.0,272.618
272628.0,47.0,35.0,5.0,98.0,272.628
272638.0,47.0,36.0,8.0,110.0,272.638
272648.0,47.0,36.0,7.0,112.0,272.648
272658.0,47.0,37.0,15.0,104.0,272.658
272668.0,46.0,36.0,13.0,98.0,272.668
272678.0,46.0,37.0,12.0,92.0,272.678
272688.0,47.0,36.0,11.0,89.0,272.688
272698.0,48.0,37.0,10.0,87.0,272.698
272708.0,47.0,36.0,9.0,95.0,272.708
272718.0,47.0,38.0,9.0,94.0,272.718
272728.0,47.0,39.0,10.0,87.0,272.728
272738.0,47.0,39.0,8.0,86.0,272.738
272748.0,46.0,40.0,8.0,85.0,272.748
272758.0,48.0,40.0,9.0,101.0,272.758
272768.0,48.0,41.0,7.0,106.0,272.768
272778.0,47.0,40.0,7.0,96.0,272.778
272788.0,47.0,41.0,9.0,89.0,272.788
272798.0,47.0,42.0,9.0,89.0,272.798
272808.0,48.0,41.0,8.0,83.0,272.808
272818.0,46.0,41.0,7.0,80.0,272.818
272828.0,46.0,41.0,7.0,85.0,272.828
272838.0,47.0,41.0,6.0,85.0,272.838
272848.0,47.0,39.0,7.0,92.0,272.848
272858.0,46.0,39.0,9.0,91.0,272.858
272868.0,46.0,40.0,9.0,85.0,272.868
272878.0,46.0,40.0,8.0,99.0,272.878
272888.0,47.0,41.0,7.0,102.0,272.888
272898.0,47.0,41.0,7.0,99.0,272.898
272908.0,46.0,40.0,6.0,98.0,272.908
272918.0,46.0,40.0,6.0,101.0,272.918
272928.0,45.0,42.0,7.0,96.0,272.928
272939.0,45.0,41.0,7.0,106.0,272.939
272949.0,46.0,41.0,8.0,109.0,272.949
272959.0,44.0,41.0,7.0,111.0,272.959
272969.0,44.0,40.0,6.0,109.0,272.969
272979.0,45.0,41.0,6.0,118.0,272.979
272989.0,45.0,40.0,7.0,114.0,272.989
272999.0,45.0,39.0,6.0,113.0,272.999
273009.0,46.0,40.0,8.0,115.0,273.009
273019.0,46.0,40.0,6.0,113.0,273.019
273029.0,46.0,41.0,7.0,119.0,273.029
273039.0,47.0,40.0,7.0,117.0,273.039
273049.0,47.0,42.0,7.0,115.0,273.049
273059.0,47.0,40.0,7.0,110.0,273.059
273069.0,46.0,39.0,5.0,109.0,273.069
273079.0,45.0,39.0,7.0,105.0,273.079
273089.0,46.0,39.0,5.0,101.0,273.089
273099.0,44.0,39.0,6.0,99.0,273.099
273110.0,46.0,39.0,6.0,96.0,273.11
273120.0,46.0,39.0,6.0,99.0,273.12
273130.0,46.0,38.0,6.0,98.0,273.13
273140.0,47.0,39.0,7.0,97.0,273.14
273150.0,48.0,40.0,8.0,92.0,273.15
273160.0,49.0,39.0,6.0,97.0,273.16
273170.0,50.0,41.0,7.0,95.0,273.17
273180.0,50.0,41.0,6.0,89.0,273.18
273190.0,49.0,42.0,6.0,85.0,273.19
273200.0,49.0,42.0,6.0,94.0,273.2
273210.0,49.0,43.0,5.0,93.0,273.21
273220.0,49.0,43.0,9.0,94.0,273.22
273230.0,48.0,44.0,6.0,91.0,273.23
273240.0,46.0,45.0,6.0,89.0,273.24
273250.0,46.0,44.0,7.0,87.0,273.25
273260.0,45.0,44.0,6.0,108.0,273.26
273270.0,46.0,43.0,6.0,102.0,273.27
273280.0,46.0,44.0,6.0,102.0,273.28
273290.0,46.0,43.0,7.0,106.0,273.29
273300.0,46.0,41.0,6.0,107.0,273.3
273310.0,46.0,41.0,6.0,98.0,273.31
273320.0,47.0,40.0,6.0,100.0,273.32
273330.0,46.0,40.0,5.0,99.0,273.33
273340.0,47.0,39.0,6.0,96.0,273.34
273350.0,47.0,39.0,8.0,96.0,273.35
273360.0,47.0,39.0,7.0,99.0,273.36
273370.0,48.0,37.0,7.0,100.0,273.37
273380.0,46.0,38.0,7.0,100.0,273.38
273390.0,47.0,37.0,6.0,96.0,273.39
273400.0,47.0,37.0,6.0,96.0,273.4
273410.0,46.0,36.0,7.0,96.0,273.41
273420.0,46.0,37.0,8.0,92.0,273.42
273430.0,45.0,37.0,10.0,93.0,273.43
273440.0,45.0,35.0,9.0,100.0,273.44
273451.0,46.0,35.0,7.0,98.0,273.451
273461.0,46.0,35.0,7.0,93.0,273.461
273471.0,45.0,36.0,7.0,88.0,273.471
273481.0,46.0,35.0,7.0,83.0,273.481
273491.0,46.0,36.0,6.0,80.0,273.491
273501.0,47.0,35.0,7.0,94.0,273.501
273511.0,48.0,36.0,8.0,101.0,273.511
273521.0,47.0,36.0,8.0,95.0,273.521
273531.0,49.0,37.0,8.0,93.0,273.531
273541.0,51.0,38.0,8.0,88.0,273.541
273551.0,51.0,38.0,7.0,84.0,273.551
273561.0,52.0,39.0,7.0,87.0,273.561
273571.0,53.0,39.0,7.0,87.0,273.571
273581.0,55.0,40.0,6.0,82.0,273.581
273591.0,54.0,39.0,8.0,83.0,273.591
273601.0,56.0,38.0,7.0,86.0,273.601
273611.0,55.0,41.0,7.0,85.0,273.611
273622.0,56.0,38.0,7.0,86.0,273.622
273632.0,56.0,40.0,8.0,87.0,273.632
273642.0,56.0,41.0,9.0,88.0,273.642
273652.0,57.0,40.0,8.0,93.0,273.652
273662.0,58.0,39.0,7.0,95.0,273.662
273672.0,59.0,37.0,9.0,93.0,273.672
273682.0,59.0,38.0,8.0,89.0,273.682
273692.0,59.0,36.0,8.0,86.0,273.692
273702.0,59.0,37.0,7.0,82.0,273.702
273712.0,59.0,38.0,7.0,88.0,273.712
273722.0,60.0,39.0,8.0,89.0,273.722
273732.0,58.0,40.0,6.0,94.0,273.732
273742.0,58.0,41.0,7.0,89.0,273.742
273752.0,57.0,42.0,9.0,84.0,273.752
273762.0,55.0,42.0,9.0,84.0,273.762
273772.0,53.0,44.0,8.0,79.0,273.772
273782.0,53.0,45.0,9.0,88.0,273.782
273792.0,52.0,45.0,8.0,92.0,273.792
273802.0,51.0,45.0,6.0,89.0,273.802
273812.0,50.0,45.0,7.0,81.0,273.812
273822.0,50.0,49.0,8.0,77.0,273.822
273832.0,49.0,48.0,7.0,74.0,273.832
273842.0,50.0,48.0,6.0,69.0,273.842
273852.0,49.0,49.0,7.0,72.0,273.852
273862.0,50.0,50.0,7.0,87.0,273.862
273872.0,48.0,49.0,10.0,86.0,273.872
273882.0,49.0,47.0,9.0,81.0,273.882
273892.0,50.0,48.0,9.0,87.0,273.892
273902.0,51.0,46.0,9.0,86.0,273.902
273912.0,52.0,46.0,9.0,91.0,273.912
273922.0,53.0,46.0,9.0,92.0,273.922
273932.0,57.0,45.0,10.0,86.0,273.932
273942.0,56.0,44.0,8.0,90.0,273.942
273952.0,59.0,43.0,8.0,84.0,273.952
273963.0,59.0,45.0,8.0,90.0,273.963
273973.0,61.0,44.0,9.0,90.0,273.973
273983.0,59.0,44.0,9.0,103.0,273.983
273993.0,62.0,45.0,9.0,98.0,273.993
274003.0,64.0,45.0,10.0,97.0,274.003
274013.0,63.0,46.0,9.0,104.0,274.013
274023.0,63.0,45.0,9.0,103.0,274.023
274033.0,63.0,46.0,9.0,101.0,274.033
274043.0,62.0,46.0,12.0,98.0,274.043
274053.0,62.0,45.0,11.0,106.0,274.053
