time (ms),signal 0,signal 1,signal 2,signal3,time (sec)
310266.0,49.0,41.0,25.0,57.0,310.266
310276.0,51.0,43.0,30.0,59.0,310.276
310286.0,51.0,44.0,30.0,56.0,310.286
310296.0,51.0,42.0,27.0,66.0,310.296
310306.0,52.0,42.0,24.0,67.0,310.306
310316.0,53.0,40.0,25.0,62.0,310.316
310326.0,53.0,40.0,22.0,59.0,310.326
310336.0,52.0,39.0,23.0,63.0,310.336
310346.0,53.0,39.0,22.0,65.0,310.346
310356.0,54.0,41.0,22.0,64.0,310.356
310366.0,54.0,42.0,35.0,73.0,310.366
310376.0,55.0,42.0,30.0,72.0,310.376
310386.0,56.0,42.0,29.0,67.0,310.386
310396.0,53.0,43.0,26.0,65.0,310.396
310406.0,52.0,43.0,33.0,68.0,310.406
310416.0,54.0,41.0,29.0,71.0,310.416
310426.0,54.0,44.0,31.0,69.0,310.426
310436.0,54.0,43.0,31.0,66.0,310.436
310446.0,53.0,44.0,27.0,62.0,310.446
310456.0,53.0,45.0,25.0,59.0,310.456
310466.0,53.0,46.0,24.0,61.0,310.466
310476.0,52.0,47.0,23.0,60.0,310.476
310486.0,53.0,45.0,21.0,59.0,310.486
310496.0,53.0,46.0,19.0,57.0,310.496
310506.0,53.0,45.0,17.0,58.0,310.506
310516.0,53.0,47.0,21.0,58.0,310.516
310526.0,55.0,46.0,22.0,57.0,310.526
310536.0,55.0,47.0,21.0,54.0,310.536
310546.0,53.0,48.0,22.0,60.0,310.546
310556.0,54.0,47.0,21.0,61.0,310.556
310566.0,52.0,46.0,26.0,58.0,310.566
310576.0,53.0,46.0,23.0,55.0,310.576
310586.0,52.0,48.0,25.0,53.0,310.586
310596.0,53.0,47.0,38.0,53.0,310.596
310606.0,53.0,47.0,42.0,62.0,310.606
310616.0,52.0,46.0,38.0,61.0,310.616
310626.0,51.0,45.0,34.0,63.0,310.626
310636.0,51.0,46.0,30.0,63.0,310.636
310646.0,50.0,46.0,27.0,58.0,310.646
310656.0,49.0,49.0,24.0,55.0,310.656
310666.0,49.0,50.0,33.0,52.0,310.666
310676.0,48.0,51.0,36.0,57.0,310.676
310686.0,48.0,51.0,36.0,65.0,310.686
310696.0,48.0,49.0,32.0,65.0,310.696
310706.0,48.0,47.0,28.0,67.0,310.706
310716.0,48.0,45.0,24.0,70.0,310.716
310726.0,49.0,45.0,23.0,66.0,310.726
310736.0,47.0,45.0,21.0,65.0,310.736
310746.0,47.0,44.0,23.0,67.0,310.746
310756.0,46.0,45.0,26.0,66.0,310.756
310766.0,46.0,44.0,25.0,67.0,310.766
310776.0,47.0,44.0,22.0,64.0,310.776
310786.0,47.0,43.0,22.0,66.0,310.786
310796.0,47.0,43.0,23.0,67.0,310.796
310806.0,47.0,42.0,21.0,66.0,310.806
310816.0,47.0,42.0,21.0,64.0,310.816
310827.0,46.0,42.0,20.0,60.0,310.827
310837.0,46.0,42.0,20.0,57.0,310.837
310847.0,46.0,47.0,27.0,61.0,310.847
310857.0,47.0,44.0,30.0,60.0,310.857
310867.0,47.0,44.0,26.0,59.0,310.867
310877.0,47.0,44.0,25.0,57.0,310.877
310887.0,50.0,45.0,22.0,55.0,310.887
310897.0,52.0,46.0,19.0,51.0,310.897
310907.0,52.0,47.0,18.0,48.0,310.907
310917.0,53.0,47.0,19.0,54.0,310.917
310927.0,54.0,48.0,17.0,52.0,310.927
310937.0,55.0,48.0,15.0,54.0,310.937
310947.0,55.0,49.0,25.0,58.0,310.947
310957.0,56.0,48.0,21.0,55.0,310.957
310967.0,54.0,49.0,24.0,54.0,310.967
310977.0,54.0,49.0,26.0,53.0,310.977
310987.0,54.0,51.0,24.0,62.0,310.987
310998.0,54.0,52.0,27.0,66.0,310.998
311008.0,55.0,51.0,23.0,69.0,311.008
311018.0,57.0,49.0,25.0,68.0,311.018
311028.0,56.0,51.0,22.0,63.0,311.028
311038.0,55.0,51.0,20.0,60.0,311.038
311048.0,54.0,51.0,20.0,61.0,311.048
311058.0,53.0,53.0,20.0,61.0,311.058
311068.0,55.0,52.0,23.0,57.0,311.068
311078.0,55.0,53.0,37.0,63.0,311.078
311088.0,55.0,53.0,36.0,64.0,311.088
311098.0,55.0,53.0,32.0,64.0,311.098
311108.0,54.0,55.0,28.0,62.0,311.108
311118.0,56.0,56.0,30.0,61.0,311.118
311128.0,55.0,57.0,26.0,59.0,311.128
311138.0,57.0,56.0,25.0,58.0,311.138
311148.0,57.0,56.0,28.0,54.0,311.148
311158.0,58.0,55.0,39.0,62.0,311.158
311168.0,59.0,54.0,35.0,60.0,311.168
311178.0,56.0,56.0,32.0,60.0,311.178
311188.0,57.0,55.0,32.0,64.0,311.188
311198.0,58.0,57.0,32.0,64.0,311.198
311208.0,57.0,57.0,29.0,60.0,311.208
311218.0,56.0,59.0,38.0,60.0,311.218
311228.0,57.0,57.0,39.0,56.0,311.228
311238.0,57.0,55.0,33.0,60.0,311.238
311248.0,58.0,54.0,32.0,58.0,311.248
311258.0,58.0,52.0,29.0,54.0,311.258
311268.0,56.0,54.0,25.0,54.0,311.268
311278.0,57.0,52.0,25.0,52.0,311.278
311288.0,58.0,54.0,23.0,56.0,311.288
311298.0,59.0,56.0,22.0,54.0,311.298
311308.0,60.0,57.0,27.0,54.0,311.308
311318.0,60.0,57.0,23.0,59.0,311.318
311328.0,60.0,57.0,21.0,57.0,311.328
311339.0,59.0,60.0,24.0,57.0,311.339
311349.0,59.0,60.0,24.0,54.0,311.349
311359.0,61.0,60.0,21.0,57.0,311.359
311369.0,60.0,61.0,28.0,57.0,311.369
311379.0,61.0,61.0,36.0,55.0,311.379
311389.0,61.0,59.0,33.0,56.0,311.389
311399.0,61.0,58.0,32.0,59.0,311.399
311409.0,61.0,57.0,31.0,65.0,311.409
311419.0,61.0,53.0,33.0,60.0,311.419
311429.0,62.0,52.0,30.0,60.0,311.429
311439.0,61.0,50.0,29.0,58.0,311.439
311449.0,62.0,49.0,25.0,61.0,311.449
311459.0,60.0,50.0,28.0,62.0,311.459
311469.0,62.0,48.0,25.0,61.0,311.469
311479.0,61.0,49.0,22.0,58.0,311.479
311489.0,61.0,48.0,24.0,55.0,311.489
311499.0,63.0,48.0,25.0,56.0,311.499
311510.0,61.0,48.0,26.0,55.0,311.51
311520.0,61.0,48.0,26.0,65.0,311.52
311530.0,60.0,48.0,22.0,64.0,311.53
311540.0,60.0,48.0,32.0,67.0,311.54
311550.0,61.0,49.0,29.0,67.0,311.55
311560.0,60.0,49.0,27.0,64.0,311.56
311570.0,61.0,50.0,30.0,63.0,311.57
311580.0,63.0,50.0,26.0,66.0,311.58
311590.0,64.0,51.0,25.0,63.0,311.59
311600.0,65.0,52.0,25.0,69.0,311.6
311610.0,66.0,53.0,27.0,75.0,311.61
311620.0,66.0,53.0,31.0,78.0,311.62
311630.0,65.0,50.0,31.0,74.0,311.63
311640.0,65.0,51.0,28.0,77.0,311.64
311650.0,64.0,51.0,27.0,75.0,311.65
311660.0,63.0,50.0,25.0,72.0,311.66
311670.0,62.0,49.0,22.0,71.0,311.67
311680.0,61.0,49.0,36.0,69.0,311.68
311690.0,60.0,49.0,31.0,73.0,311.69
311700.0,59.0,49.0,35.0,74.0,311.7
311710.0,59.0,48.0,35.0,84.0,311.71
311720.0,57.0,47.0,31.0,81.0,311.72
311730.0,57.0,46.0,29.0,77.0,311.73
311740.0,58.0,46.0,28.0,76.0,311.74
311750.0,57.0,45.0,28.0,73.0,311.75
311760.0,58.0,46.0,29.0,74.0,311.76
311770.0,58.0,47.0,44.0,75.0,311.77
311780.0,59.0,46.0,39.0,74.0,311.78
311790.0,60.0,45.0,36.0,76.0,311.79
311800.0,61.0,45.0,41.0,71.0,311.8
311810.0,61.0,44.0,39.0,69.0,311.81
311820.0,62.0,44.0,34.0,65.0,311.82
311830.0,62.0,45.0,31.0,66.0,311.83
311840.0,61.0,46.0,37.0,64.0,311.84
311851.0,62.0,46.0,34.0,70.0,311.851
311861.0,61.0,47.0,31.0,70.0,311.861
311871.0,63.0,47.0,35.0,74.0,311.871
311881.0,62.0,46.0,32.0,71.0,311.881
311891.0,61.0,46.0,29.0,68.0,311.891
311901.0,61.0,46.0,26.0,65.0,311.901
311911.0,61.0,46.0,23.0,62.0,311.911
311921.0,61.0,46.0,28.0,60.0,311.921
311931.0,61.0,46.0,28.0,63.0,311.931
311941.0,61.0,44.0,29.0,62.0,311.941
311951.0,60.0,47.0,38.0,61.0,311.951
311961.0,61.0,45.0,39.0,57.0,311.961
311971.0,61.0,44.0,35.0,60.0,311.971
311981.0,62.0,43.0,31.0,56.0,311.981
311991.0,60.0,41.0,32.0,55.0,311.991
312001.0,60.0,40.0,29.0,56.0,312.001
312011.0,60.0,40.0,27.0,57.0,312.011
312022.0,58.0,39.0,28.0,56.0,312.022
312032.0,58.0,37.0,26.0,56.0,312.032
312042.0,58.0,39.0,31.0,61.0,312.042
312052.0,58.0,40.0,29.0,60.0,312.052
312062.0,58.0,38.0,28.0,63.0,312.062
312072.0,56.0,39.0,30.0,61.0,312.072
312082.0,56.0,38.0,35.0,59.0,312.082
312092.0,56.0,37.0,32.0,59.0,312.092
312102.0,55.0,40.0,44.0,65.0,312.102
312112.0,56.0,40.0,40.0,67.0,312.112
312122.0,56.0,39.0,35.0,62.0,312.122
312132.0,57.0,39.0,30.0,61.0,312.132
312142.0,56.0,38.0,28.0,57.0,312.142
312152.0,56.0,38.0,31.0,54.0,312.152
312162.0,55.0,37.0,28.0,54.0,312.162
312172.0,55.0,37.0,27.0,53.0,312.172
312182.0,54.0,37.0,24.0,53.0,312.182
312192.0,52.0,38.0,32.0,54.0,312.192
312202.0,53.0,38.0,30.0,51.0,312.202
312212.0,52.0,38.0,28.0,49.0,312.212
312222.0,52.0,38.0,36.0,57.0,312.222
312232.0,52.0,39.0,34.0,57.0,312.232
312242.0,54.0,39.0,37.0,58.0,312.242
312252.0,53.0,38.0,36.0,58.0,312.252
312262.0,54.0,38.0,33.0,56.0,312.262
312272.0,54.0,38.0,44.0,55.0,312.272
312282.0,54.0,39.0,41.0,56.0,312.282
312292.0,55.0,38.0,37.0,58.0,312.292
312302.0,54.0,38.0,33.0,56.0,312.302
312312.0,54.0,37.0,34.0,53.0,312.312
312322.0,55.0,37.0,31.0,56.0,312.322
312332.0,55.0,38.0,29.0,52.0,312.332
312342.0,56.0,38.0,27.0,53.0,312.342
312352.0,57.0,42.0,31.0,62.0,312.352
312363.0,59.0,42.0,29.0,65.0,312.363
312373.0,58.0,41.0,32.0,64.0,312.373
312383.0,59.0,40.0,30.0,64.0,312.383
312393.0,57.0,40.0,29.0,61.0,312.393
312403.0,57.0,40.0,26.0,56.0,312.403
312413.0,57.0,39.0,28.0,60.0,312.413
312423.0,57.0,38.0,24.0,60.0,312.423
312433.0,59.0,38.0,27.0,57.0,312.433
312443.0,56.0,38.0,32.0,54.0,312.443
312453.0,57.0,37.0,31.0,53.0,312.453
312463.0,56.0,38.0,33.0,63.0,312.463
312473.0,55.0,38.0,30.0,64.0,312.473
312483.0,55.0,38.0,28.0,74.0,312.483
312493.0,55.0,37.0,25.0,71.0,312.493
312503.0,55.0,37.0,25.0,67.0,312.503
312513.0,54.0,38.0,32.0,65.0,312.513
312523.0,54.0,39.0,27.0,64.0,312.523
312534.0,55.0,40.0,31.0,65.0,312.534
312544.0,54.0,40.0,30.0,62.0,312.544
312554.0,55.0,38.0,30.0,62.0,312.554
312564.0,57.0,39.0,28.0,62.0,312.564
312574.0,58.0,40.0,30.0,63.0,312.574
312584.0,57.0,41.0,27.0,62.0,312.584
312594.0,56.0,43.0,42.0,58.0,312.594
312604.0,57.0,44.0,39.0,57.0,312.604
312614.0,57.0,45.0,35.0,53.0,312.614
312624.0,56.0,45.0,32.0,52.0,312.624
312634.0,56.0,46.0,35.0,51.0,312.634
312644.0,57.0,45.0,42.0,54.0,312.644
312654.0,55.0,44.0,36.0,54.0,312.654
312664.0,57.0,44.0,35.0,62.0,312.664
312674.0,54.0,43.0,36.0,61.0,312.674
312684.0,55.0,42.0,38.0,64.0,312.684
312694.0,56.0,40.0,38.0,63.0,312.694
312704.0,56.0,40.0,34.0,63.0,312.704
312714.0,55.0,38.0,31.0,59.0,312.714
312724.0,55.0,41.0,36.0,57.0,312.724
312734.0,55.0,41.0,35.0,55.0,312.734
312744.0,54.0,41.0,31.0,55.0,312.744
312754.0,54.0,41.0,33.0,55.0,312.754
312764.0,55.0,39.0,31.0,54.0,312.764
312774.0,56.0,41.0,28.0,54.0,312.774
312784.0,57.0,41.0,25.0,58.0,312.784
312794.0,56.0,41.0,23.0,54.0,312.794
312804.0,56.0,40.0,20.0,52.0,312.804
312814.0,55.0,41.0,36.0,61.0,312.814
312824.0,56.0,43.0,33.0,57.0,312.824
312834.0,56.0,41.0,30.0,56.0,312.834
312844.0,57.0,41.0,31.0,54.0,312.844
312854.0,58.0,41.0,33.0,56.0,312.854
312864.0,59.0,41.0,28.0,54.0,312.864
312875.0,59.0,41.0,28.0,51.0,312.875
312885.0,60.0,44.0,36.0,56.0,312.885
312895.0,59.0,44.0,33.0,63.0,312.895
312905.0,61.0,42.0,31.0,62.0,312.905
312915.0,63.0,41.0,28.0,60.0,312.915
312925.0,63.0,40.0,30.0,57.0,312.925
312935.0,64.0,40.0,26.0,59.0,312.935
312945.0,63.0,42.0,33.0,59.0,312.945
312955.0,64.0,42.0,46.0,57.0,312.955
312965.0,63.0,43.0,42.0,57.0,312.965
312975.0,64.0,42.0,38.0,54.0,312.975
312985.0,64.0,41.0,33.0,52.0,312.985
312995.0,65.0,41.0,33.0,54.0,312.995
313005.0,65.0,40.0,30.0,58.0,313.005
313015.0,64.0,41.0,30.0,62.0,313.015
313025.0,67.0,44.0,38.0,61.0,313.025
313035.0,68.0,44.0,33.0,58.0,313.035
313046.0,68.0,42.0,30.0,60.0,313.046
313056.0,68.0,41.0,26.0,56.0,313.056
313066.0,68.0,41.0,41.0,56.0,313.066
313076.0,68.0,40.0,36.0,55.0,313.076
313086.0,67.0,39.0,33.0,53.0,313.086
313096.0,67.0,41.0,42.0,66.0,313.096
313106.0,67.0,42.0,39.0,65.0,313.106
313116.0,65.0,40.0,35.0,60.0,313.116
313126.0,65.0,41.0,32.0,66.0,313.126
313136.0,65.0,41.0,34.0,66.0,313.136
313146.0,63.0,42.0,36.0,70.0,313.146
313156.0,62.0,43.0,32.0,68.0,313.156
313166.0,62.0,45.0,31.0,65.0,313.166
313176.0,60.0,48.0,32.0,65.0,313.176
313186.0,62.0,48.0,37.0,71.0,313.186
313196.0,61.0,50.0,36.0,75.0,313.196
313206.0,62.0,49.0,34.0,72.0,313.206
313216.0,62.0,48.0,29.0,67.0,313.216
313226.0,60.0,48.0,26.0,69.0,313.226
313236.0,61.0,47.0,26.0,68.0,313.236
313246.0,59.0,51.0,31.0,74.0,313.246
313256.0,63.0,50.0,37.0,71.0,313.256
313266.0,63.0,51.0,33.0,70.0,313.266
313276.0,62.0,51.0,36.0,74.0,313.276
313286.0,63.0,49.0,32.0,73.0,313.286
313296.0,62.0,49.0,27.0,67.0,313.296
313306.0,63.0,49.0,25.0,66.0,313.306
313316.0,64.0,50.0,22.0,68.0,313.316
313326.0,64.0,51.0,29.0,66.0,313.326
313336.0,66.0,51.0,33.0,66.0,313.336
313346.0,70.0,49.0,31.0,70.0,313.346
313356.0,72.0,49.0,31.0,72.0,313.356
313366.0,71.0,48.0,28.0,71.0,313.366
313376.0,73.0,47.0,25.0,69.0,313.376
313387.0,73.0,48.0,22.0,68.0,313.387
313397.0,74.0,48.0,20.0,65.0,313.397
313407.0,72.0,49.0,22.0,62.0,313.407
313417.0,72.0,49.0,25.0,62.0,313.417
313427.0,72.0,51.0,25.0,64.0,313.427
313437.0,71.0,52.0,26.0,69.0,313.437
313447.0,72.0,51.0,25.0,70.0,313.447
313457.0,72.0,52.0,25.0,79.0,313.457
313467.0,73.0,52.0,38.0,96.0,313.467
313477.0,74.0,52.0,38.0,110.0,313.477
313487.0,77.0,51.0,36.0,138.0,313.487
313497.0,77.0,51.0,33.0,133.0,313.497
313507.0,78.0,50.0,35.0,127.0,313.507
313517.0,78.0,49.0,38.0,127.0,313.517
313527.0,78.0,52.0,42.0,127.0,313.527
313537.0,79.0,52.0,45.0,140.0,313.537
313547.0,80.0,52.0,39.0,147.0,313.547
313558.0,80.0,52.0,37.0,158.0,313.558
313568.0,80.0,50.0,36.0,163.0,313.568
313578.0,77.0,52.0,41.0,150.0,313.578
313588.0,77.0,51.0,40.0,145.0,313.588
313598.0,77.0,51.0,43.0,146.0,313.598
313608.0,77.0,50.0,39.0,140.0,313.608
313618.0,76.0,50.0,41.0,134.0,313.618
313628.0,76.0,47.0,36.0,127.0,313.628
313638.0,73.0,48.0,37.0,122.0,313.638
313648.0,73.0,46.0,34.0,116.0,313.648
313658.0,72.0,47.0,40.0,113.0,313.658
313668.0,71.0,45.0,40.0,115.0,313.668
313678.0,69.0,44.0,36.0,129.0,313.678
313688.0,68.0,44.0,33.0,155.0,313.688
313698.0,65.0,42.0,33.0,180.0,313.698
313708.0,64.0,42.0,31.0,177.0,313.708
313718.0,63.0,42.0,28.0,171.0,313.718
313728.0,64.0,43.0,28.0,172.0,313.728
313738.0,61.0,43.0,24.0,170.0,313.738
313748.0,59.0,41.0,22.0,179.0,313.748
313758.0,57.0,41.0,19.0,178.0,313.758
313768.0,56.0,41.0,18.0,210.0,313.768
313778.0,57.0,42.0,17.0,229.0,313.778
313788.0,55.0,43.0,18.0,237.0,313.788
313798.0,57.0,43.0,18.0,223.0,313.798
313808.0,55.0,45.0,19.0,217.0,313.808
313818.0,55.0,47.0,19.0,196.0,313.818
313828.0,55.0,47.0,18.0,202.0,313.828
313838.0,54.0,46.0,25.0,207.0,313.838
313848.0,56.0,48.0,29.0,249.0,313.848
313858.0,56.0,48.0,36.0,274.0,313.858
313868.0,55.0,46.0,33.0,260.0,313.868
313878.0,52.0,45.0,28.0,244.0,313.878
313888.0,51.0,43.0,25.0,225.0,313.888
313899.0,52.0,45.0,27.0,250.0,313.899
313909.0,53.0,47.0,45.0,251.0,313.909
313919.0,53.0,48.0,53.0,247.0,313.919
313929.0,53.0,48.0,62.0,241.0,313.929
313939.0,53.0,46.0,63.0,238.0,313.939
313949.0,52.0,45.0,71.0,234.0,313.949
313959.0,53.0,44.0,70.0,220.0,313.959
313969.0,52.0,45.0,71.0,279.0,313.969
313979.0,52.0,43.0,76.0,301.0,313.979
313989.0,50.0,44.0,70.0,271.0,313.989
313999.0,49.0,46.0,61.0,255.0,313.999
314009.0,51.0,48.0,60.0,248.0,314.009
314019.0,50.0,49.0,58.0,234.0,314.019
314029.0,50.0,48.0,67.0,220.0,314.029
314039.0,50.0,52.0,62.0,202.0,314.039
314049.0,49.0,53.0,61.0,194.0,314.049
314059.0,49.0,57.0,53.0,217.0,314.059
314070.0,50.0,57.0,53.0,215.0,314.07
314080.0,50.0,59.0,48.0,215.0,314.08
314090.0,49.0,62.0,42.0,220.0,314.09
314100.0,48.0,61.0,45.0,217.0,314.1
314110.0,48.0,62.0,43.0,219.0,314.11
314120.0,47.0,64.0,60.0,234.0,314.12
314130.0,48.0,63.0,62.0,227.0,314.13
314140.0,46.0,66.0,66.0,216.0,314.14
314150.0,49.0,67.0,70.0,228.0,314.15
314160.0,48.0,68.0,62.0,212.0,314.16
314170.0,49.0,65.0,56.0,192.0,314.17
314180.0,50.0,65.0,55.0,183.0,314.18
314190.0,50.0,63.0,47.0,176.0,314.19
314200.0,50.0,62.0,46.0,176.0,314.2
314210.0,50.0,61.0,42.0,195.0,314.21
314220.0,51.0,59.0,41.0,187.0,314.22
314230.0,49.0,60.0,37.0,177.0,314.23
314240.0,50.0,58.0,34.0,166.0,314.24
314250.0,51.0,57.0,30.0,166.0,314.25
314260.0,52.0,55.0,27.0,180.0,314.26
314270.0,52.0,55.0,30.0,170.0,314.27
314280.0,52.0,53.0,26.0,158.0,314.28
314290.0,51.0,52.0,29.0,149.0,314.29
314300.0,52.0,51.0,28.0,150.0,314.3
314310.0,53.0,49.0,28.0,170.0,314.31
314320.0,54.0,47.0,26.0,161.0,314.32
314330.0,53.0,46.0,23.0,155.0,314.33
314340.0,52.0,46.0,21.0,153.0,314.34
314350.0,53.0,45.0,20.0,147.0,314.35
314360.0,53.0,44.0,18.0,146.0,314.36
314370.0,52.0,43.0,16.0,144.0,314.37
314380.0,50.0,44.0,14.0,143.0,314.38
314390.0,50.0,44.0,15.0,136.0,314.39
314400.0,49.0,45.0,15.0,138.0,314.4
314411.0,49.0,43.0,14.0,133.0,314.411
314421.0,49.0,43.0,13.0,156.0,314.421
314431.0,47.0,41.0,13.0,148.0,314.431
314441.0,47.0,42.0,10.0,151.0,314.441
314451.0,47.0,44.0,11.0,142.0,314.451
314461.0,49.0,42.0,10.0,152.0,314.461
314471.0,48.0,44.0,15.0,152.0,314.471
314481.0,51.0,45.0,18.0,153.0,314.481
314491.0,51.0,43.0,15.0,153.0,314.491
314501.0,52.0,43.0,23.0,142.0,314.501
314511.0,52.0,43.0,28.0,132.0,314.511
314521.0,54.0,41.0,25.0,132.0,314.521
314531.0,53.0,42.0,25.0,131.0,314.531
314541.0,52.0,42.0,25.0,134.0,314.541
314551.0,53.0,42.0,24.0,138.0,314.551
314561.0,50.0,44.0,24.0,130.0,314.561
314571.0,51.0,43.0,23.0,127.0,314.571
314582.0,50.0,43.0,20.0,126.0,314.582
314592.0,50.0,41.0,19.0,127.0,314.592
314602.0,52.0,44.0,18.0,142.0,314.602
314612.0,50.0,44.0,18.0,152.0,314.612
314622.0,50.0,43.0,19.0,162.0,314.622
314632.0,50.0,43.0,17.0,158.0,314.632
314642.0,50.0,43.0,17.0,163.0,314.642
314652.0,49.0,43.0,15.0,162.0,314.652
314662.0,50.0,41.0,14.0,156.0,314.662
314672.0,49.0,43.0,12.0,157.0,314.672
314682.0,48.0,45.0,14.0,153.0,314.682
314692.0,48.0,45.0,16.0,149.0,314.692
314702.0,47.0,44.0,13.0,138.0,314.702
314712.0,48.0,45.0,15.0,139.0,314.712
314722.0,50.0,45.0,23.0,145.0,314.722
314732.0,50.0,46.0,24.0,142.0,314.732
314742.0,52.0,45.0,22.0,143.0,314.742
314752.0,53.0,46.0,19.0,148.0,314.752
314762.0,55.0,46.0,18.0,157.0,314.762
314772.0,54.0,46.0,15.0,153.0,314.772
314782.0,55.0,44.0,15.0,147.0,314.782
314792.0,55.0,45.0,14.0,145.0,314.792
314802.0,56.0,45.0,18.0,145.0,314.802
314812.0,57.0,45.0,18.0,146.0,314.812
314822.0,57.0,44.0,21.0,161.0,314.822
314832.0,59.0,42.0,20.0,148.0,314.832
314842.0,58.0,45.0,32.0,150.0,314.842
314852.0,60.0,43.0,30.0,148.0,314.852
314862.0,61.0,44.0,26.0,143.0,314.862
314872.0,62.0,43.0,23.0,135.0,314.872
314882.0,63.0,42.0,21.0,133.0,314.882
314892.0,63.0,43.0,19.0,159.0,314.892
314902.0,67.0,43.0,20.0,167.0,314.902
314912.0,65.0,42.0,17.0,161.0,314.912
314923.0,65.0,41.0,15.0,151.0,314.923
314933.0,64.0,41.0,14.0,145.0,314.933
314943.0,65.0,41.0,14.0,147.0,314.943
314953.0,66.0,40.0,14.0,145.0,314.953
314963.0,64.0,43.0,13.0,132.0,314.963
314973.0,67.0,43.0,15.0,144.0,314.973
314983.0,65.0,45.0,27.0,134.0,314.983
314993.0,66.0,45.0,28.0,172.0,314.993
315003.0,65.0,44.0,30.0,178.0,315.003
315013.0,63.0,44.0,35.0,185.0,315.013
315023.0,64.0,42.0,35.0,184.0,315.023
315033.0,64.0,43.0,42.0,177.0,315.033
315043.0,64.0,42.0,38.0,165.0,315.043
315053.0,64.0,42.0,34.0,155.0,315.053
315063.0,65.0,41.0,31.0,143.0,315.063
315073.0,64.0,41.0,28.0,146.0,315.073
315083.0,63.0,40.0,25.0,144.0,315.083
315094.0,63.0,40.0,22.0,138.0,315.094
315104.0,63.0,41.0,24.0,143.0,315.104
315114.0,65.0,40.0,24.0,151.0,315.114
315124.0,64.0,39.0,18.0,144.0,315.124
315134.0,65.0,39.0,21.0,144.0,315.134
315144.0,66.0,40.0,23.0,157.0,315.144
315154.0,68.0,38.0,20.0,149.0,315.154
315164.0,68.0,39.0,22.0,153.0,315.164
315174.0,67.0,40.0,21.0,144.0,315.174
315184.0,69.0,40.0,22.0,152.0,315.184
315194.0,66.0,42.0,18.0,160.0,315.194
315204.0,65.0,41.0,17.0,163.0,315.204
315214.0,65.0,41.0,15.0,156.0,315.214
315224.0,64.0,41.0,14.0,152.0,315.224
315234.0,65.0,39.0,13.0,154.0,315.234
315244.0,65.0,39.0,11.0,159.0,315.244
315254.0,64.0,38.0,12.0,152.0,315.254
315264.0,62.0,41.0,21.0,153.0,315.264
315274.0,63.0,39.0,30.0,143.0,315.274
315284.0,67.0,40.0,28.0,134.0,315.284
315294.0,67.0,41.0,24.0,124.0,315.294
315304.0,68.0,41.0,21.0,120.0,315.304
315314.0,69.0,41.0,19.0,126.0,315.314
315324.0,67.0,42.0,21.0,127.0,315.324
315334.0,68.0,42.0,20.0,127.0,315.334
315344.0,68.0,43.0,18.0,119.0,315.344
315354.0,67.0,45.0,17.0,119.0,315.354
315364.0,66.0,46.0,16.0,116.0,315.364
315374.0,64.0,47.0,36.0,129.0,315.374
315384.0,64.0,49.0,33.0,140.0,315.384
315394.0,65.0,50.0,32.0,131.0,315.394
315404.0,65.0,51.0,29.0,132.0,315.404
315414.0,66.0,51.0,28.0,135.0,315.414
315424.0,66.0,51.0,25.0,133.0,315.424
315435.0,65.0,51.0,23.0,126.0,315.435
315445.0,65.0,51.0,21.0,129.0,315.445
315455.0,65.0,49.0,19.0,139.0,315.455
315465.0,64.0,50.0,19.0,140.0,315.465
315475.0,62.0,49.0,22.0,143.0,315.475
315485.0,62.0,48.0,24.0,144.0,315.485
315495.0,62.0,47.0,28.0,140.0,315.495
315505.0,61.0,47.0,24.0,137.0,315.505
315515.0,60.0,45.0,22.0,152.0,315.515
315525.0,59.0,44.0,20.0,156.0,315.525
315535.0,58.0,42.0,17.0,156.0,315.535
315545.0,55.0,43.0,14.0,145.0,315.545
315555.0,56.0,44.0,14.0,157.0,315.555
315565.0,54.0,43.0,16.0,153.0,315.565
315575.0,53.0,43.0,16.0,149.0,315.575
315585.0,54.0,42.0,16.0,156.0,315.585
315595.0,53.0,42.0,17.0,160.0,315.595
315606.0,54.0,40.0,17.0,146.0,315.606
315616.0,51.0,39.0,15.0,135.0,315.616
315626.0,50.0,38.0,13.0,133.0,315.626
315636.0,50.0,38.0,12.0,129.0,315.636
315646.0,50.0,38.0,11.0,122.0,315.646
315656.0,51.0,38.0,10.0,124.0,315.656
315666.0,51.0,40.0,9.0,121.0,315.666
315676.0,53.0,40.0,9.0,113.0,315.676
315686.0,53.0,40.0,8.0,106.0,315.686
315696.0,52.0,40.0,7.0,100.0,315.696
315706.0,53.0,42.0,6.0,96.0,315.706
315716.0,53.0,46.0,6.0,107.0,315.716
315726.0,54.0,46.0,6.0,103.0,315.726
315736.0,53.0,47.0,5.0,95.0,315.736
315746.0,56.0,48.0,6.0,88.0,315.746
315756.0,56.0,50.0,5.0,84.0,315.756
315766.0,57.0,50.0,4.0,79.0,315.766
315776.0,58.0,49.0,5.0,75.0,315.776
315786.0,59.0,51.0,5.0,74.0,315.786
315796.0,59.0,52.0,18.0,74.0,315.796
315806.0,58.0,55.0,18.0,76.0,315.806
315816.0,61.0,56.0,27.0,87.0,315.816
315826.0,59.0,62.0,53.0,101.0,315.826
315836.0,63.0,62.0,74.0,113.0,315.836
315846.0,67.0,63.0,98.0,127.0,315.846
315856.0,74.0,60.0,95.0,142.0,315.856
315866.0,78.0,58.0,94.0,139.0,315.866
315876.0,78.0,57.0,91.0,139.0,315.876
315886.0,81.0,54.0,83.0,128.0,315.886
315896.0,79.0,52.0,90.0,144.0,315.896
315906.0,82.0,50.0,83.0,140.0,315.906
315916.0,83.0,52.0,90.0,149.0,315.916
315926.0,85.0,59.0,124.0,175.0,315.926
315936.0,87.0,60.0,112.0,184.0,315.936
315947.0,87.0,58.0,107.0,170.0,315.947
315957.0,85.0,55.0,102.0,157.0,315.957
315967.0,83.0,53.0,93.0,150.0,315.967
315977.0,82.0,51.0,91.0,144.0,315.977
315987.0,79.0,50.0,86.0,137.0,315.987
315997.0,80.0,53.0,83.0,133.0,315.997
316007.0,81.0,48.0,83.0,134.0,316.007
316017.0,82.0,56.0,88.0,170.0,316.017
316027.0,85.0,53.0,83.0,179.0,316.027
316037.0,83.0,54.0,80.0,174.0,316.037
316047.0,83.0,52.0,91.0,167.0,316.047
316057.0,82.0,51.0,93.0,169.0,316.057
316067.0,83.0,52.0,91.0,167.0,316.067
316077.0,82.0,50.0,85.0,164.0,316.077
316087.0,81.0,51.0,89.0,196.0,316.087
316097.0,85.0,49.0,83.0,216.0,316.097
316107.0,84.0,48.0,89.0,205.0,316.107
316118.0,80.0,50.0,86.0,202.0,316.118
316128.0,81.0,50.0,77.0,197.0,316.128
316138.0,77.0,48.0,67.0,199.0,316.138
316148.0,74.0,46.0,63.0,185.0,316.148
316158.0,72.0,45.0,61.0,187.0,316.158
316168.0,73.0,47.0,68.0,190.0,316.168
316178.0,72.0,50.0,72.0,198.0,316.178
316188.0,71.0,49.0,74.0,203.0,316.188
316198.0,71.0,48.0,68.0,196.0,316.198
316208.0,72.0,48.0,61.0,186.0,316.208
316218.0,70.0,45.0,54.0,172.0,316.218
316228.0,68.0,45.0,53.0,175.0,316.228
316238.0,68.0,44.0,51.0,178.0,316.238
316248.0,69.0,44.0,53.0,166.0,316.248
316258.0,69.0,48.0,61.0,173.0,316.258
316268.0,70.0,47.0,56.0,161.0,316.268
316278.0,69.0,46.0,51.0,152.0,316.278
316288.0,70.0,44.0,51.0,144.0,316.288
316298.0,69.0,44.0,44.0,137.0,316.298
316308.0,68.0,43.0,43.0,136.0,316.308
316318.0,69.0,43.0,54.0,132.0,316.318
316328.0,68.0,42.0,47.0,139.0,316.328
316338.0,68.0,43.0,44.0,142.0,316.338
316348.0,67.0,43.0,48.0,142.0,316.348
316358.0,66.0,40.0,44.0,136.0,316.358
316368.0,67.0,41.0,46.0,146.0,316.368
316378.0,67.0,42.0,51.0,142.0,316.378
316388.0,69.0,43.0,48.0,144.0,316.388
316398.0,69.0,46.0,64.0,157.0,316.398
316408.0,68.0,45.0,63.0,156.0,316.408
316418.0,68.0,46.0,59.0,158.0,316.418
316428.0,70.0,45.0,55.0,149.0,316.428
316438.0,69.0,47.0,63.0,160.0,316.438
316448.0,68.0,47.0,61.0,170.0,316.448
316459.0,69.0,46.0,62.0,163.0,316.459
316469.0,69.0,47.0,60.0,159.0,316.469
316479.0,67.0,47.0,62.0,156.0,316.479
316489.0,70.0,49.0,59.0,159.0,316.489
316499.0,68.0,48.0,58.0,157.0,316.499
316509.0,68.0,50.0,59.0,154.0,316.509
316519.0,69.0,50.0,55.0,145.0,316.519
316529.0,68.0,49.0,49.0,158.0,316.529
316539.0,67.0,48.0,47.0,147.0,316.539
316549.0,67.0,47.0,43.0,139.0,316.549
316559.0,66.0,49.0,48.0,145.0,316.559
316569.0,65.0,49.0,56.0,143.0,316.569
316579.0,65.0,50.0,49.0,144.0,316.579
316589.0,63.0,47.0,47.0,134.0,316.589
316599.0,61.0,46.0,45.0,134.0,316.599
316609.0,60.0,45.0,42.0,137.0,316.609
316619.0,60.0,47.0,53.0,142.0,316.619
316630.0,59.0,48.0,49.0,138.0,316.63
316640.0,59.0,48.0,56.0,133.0,316.64
316650.0,59.0,50.0,49.0,133.0,316.65
316660.0,58.0,48.0,44.0,125.0,316.66
316670.0,58.0,48.0,42.0,127.0,316.67
316680.0,58.0,48.0,38.0,120.0,316.68
316690.0,57.0,48.0,49.0,114.0,316.69
316700.0,56.0,50.0,51.0,112.0,316.7
316710.0,57.0,47.0,45.0,112.0,316.71
316720.0,57.0,47.0,41.0,113.0,316.72
316730.0,58.0,45.0,38.0,107.0,316.73
316740.0,58.0,43.0,34.0,110.0,316.74
316750.0,58.0,43.0,35.0,105.0,316.75
316760.0,57.0,41.0,34.0,104.0,316.76
316770.0,58.0,44.0,38.0,112.0,316.77
316780.0,58.0,43.0,40.0,108.0,316.78
316790.0,58.0,42.0,35.0,102.0,316.79
316800.0,57.0,42.0,39.0,97.0,316.8
316810.0,58.0,42.0,37.0,92.0,316.81
316820.0,58.0,41.0,36.0,97.0,316.82
316830.0,60.0,41.0,34.0,101.0,316.83
316840.0,60.0,41.0,42.0,98.0,316.84
316850.0,61.0,40.0,38.0,94.0,316.85
316860.0,61.0,41.0,35.0,105.0,316.86
316870.0,62.0,40.0,31.0,104.0,316.87
316880.0,63.0,39.0,28.0,96.0,316.88
316890.0,60.0,40.0,28.0,98.0,316.89
316900.0,61.0,38.0,30.0,99.0,316.9
316910.0,61.0,40.0,26.0,96.0,316.91
316920.0,61.0,42.0,38.0,94.0,316.92
316930.0,61.0,41.0,35.0,94.0,316.93
316940.0,59.0,41.0,35.0,88.0,316.94
316950.0,61.0,41.0,34.0,82.0,316.95
316960.0,60.0,41.0,30.0,76.0,316.96
316971.0,62.0,40.0,28.0,72.0,316.971
316981.0,63.0,40.0,26.0,77.0,316.981
316991.0,63.0,39.0,23.0,72.0,316.991
317001.0,63.0,42.0,32.0,89.0,317.001
317011.0,65.0,42.0,31.0,83.0,317.011
317021.0,65.0,42.0,32.0,93.0,317.021
317031.0,67.0,41.0,28.0,94.0,317.031
317041.0,68.0,40.0,28.0,88.0,317.041
317051.0,69.0,40.0,24.0,85.0,317.051
317061.0,70.0,39.0,22.0,85.0,317.061
317071.0,69.0,39.0,24.0,96.0,317.071
317081.0,68.0,42.0,33.0,101.0,317.081
317091.0,68.0,40.0,30.0,93.0,317.091
317101.0,68.0,39.0,26.0,88.0,317.101
317111.0,67.0,40.0,31.0,93.0,317.111
317121.0,66.0,41.0,30.0,95.0,317.121
317131.0,66.0,40.0,27.0,86.0,317.131
317142.0,65.0,39.0,28.0,92.0,317.142
317152.0,63.0,41.0,39.0,93.0,317.152
317162.0,63.0,41.0,35.0,89.0,317.162
317172.0,62.0,40.0,30.0,84.0,317.172
317182.0,60.0,41.0,28.0,84.0,317.182
317192.0,58.0,43.0,28.0,84.0,317.192
317202.0,58.0,42.0,26.0,82.0,317.202
317212.0,58.0,42.0,23.0,77.0,317.212
317222.0,57.0,42.0,21.0,73.0,317.222
317232.0,57.0,42.0,18.0,69.0,317.232
317242.0,54.0,46.0,16.0,73.0,317.242
317252.0,55.0,45.0,17.0,72.0,317.252
317262.0,53.0,48.0,18.0,73.0,317.262
317272.0,54.0,46.0,19.0,75.0,317.272
317282.0,57.0,49.0,37.0,97.0,317.282
317292.0,56.0,48.0,40.0,97.0,317.292
317302.0,60.0,46.0,37.0,93.0,317.302
317312.0,60.0,45.0,33.0,87.0,317.312
317322.0,61.0,44.0,30.0,79.0,317.322
317332.0,61.0,46.0,31.0,77.0,317.332
317342.0,62.0,43.0,30.0,76.0,317.342
317352.0,62.0,42.0,29.0,79.0,317.352
317362.0,62.0,42.0,34.0,83.0,317.362
317372.0,64.0,40.0,33.0,81.0,317.372
317382.0,61.0,40.0,34.0,80.0,317.382
317392.0,62.0,40.0,31.0,81.0,317.392
317402.0,62.0,39.0,28.0,79.0,317.402
317412.0,59.0,41.0,36.0,96.0,317.412
317422.0,60.0,40.0,38.0,100.0,317.422
317432.0,60.0,42.0,35.0,96.0,317.432
317442.0,59.0,43.0,33.0,90.0,317.442
317452.0,58.0,42.0,30.0,82.0,317.452
317462.0,58.0,41.0,27.0,87.0,317.462
317472.0,57.0,43.0,30.0,95.0,317.472
317483.0,57.0,42.0,28.0,92.0,317.483
317493.0,57.0,40.0,27.0,90.0,317.493
317503.0,56.0,42.0,31.0,88.0,317.503
317513.0,58.0,41.0,27.0,85.0,317.513
317523.0,56.0,41.0,23.0,81.0,317.523
317533.0,55.0,41.0,29.0,77.0,317.533
317543.0,56.0,43.0,30.0,76.0,317.543
317553.0,56.0,42.0,27.0,76.0,317.553
317563.0,56.0,42.0,32.0,77.0,317.563
317573.0,57.0,43.0,31.0,79.0,317.573
317583.0,59.0,43.0,29.0,80.0,317.583
317593.0,57.0,42.0,24.0,75.0,317.593
317603.0,56.0,41.0,24.0,72.0,317.603
317613.0,56.0,40.0,37.0,70.0,317.613
317623.0,56.0,41.0,41.0,72.0,317.623
317633.0,56.0,40.0,38.0,75.0,317.633
317643.0,57.0,40.0,35.0,75.0,317.643
317654.0,67.0,40.0,33.0,76.0,317.654
317664.0,72.0,39.0,30.0,80.0,317.664
317674.0,73.0,39.0,27.0,77.0,317.674
317684.0,73.0,39.0,23.0,72.0,317.684
317694.0,71.0,36.0,21.0,68.0,317.694
317704.0,69.0,37.0,21.0,81.0,317.704
317714.0,68.0,37.0,19.0,83.0,317.714
317724.0,67.0,39.0,32.0,86.0,317.724
317734.0,66.0,38.0,36.0,84.0,317.734
317744.0,66.0,38.0,37.0,83.0,317.744
317754.0,64.0,37.0,32.0,79.0,317.754
317764.0,63.0,36.0,31.0,75.0,317.764
317774.0,64.0,37.0,33.0,82.0,317.774
317784.0,63.0,37.0,29.0,80.0,317.784
317794.0,62.0,36.0,26.0,76.0,317.794
317804.0,62.0,39.0,28.0,79.0,317.804
317814.0,63.0,39.0,27.0,75.0,317.814
317824.0,62.0,38.0,24.0,74.0,317.824
317834.0,61.0,38.0,24.0,74.0,317.834
317844.0,62.0,39.0,21.0,79.0,317.844
317854.0,61.0,40.0,20.0,79.0,317.854
317864.0,63.0,42.0,20.0,83.0,317.864
317874.0,64.0,42.0,19.0,81.0,317.874
317884.0,65.0,42.0,20.0,77.0,317.884
317894.0,66.0,44.0,30.0,83.0,317.894
317904.0,66.0,43.0,27.0,81.0,317.904
317914.0,67.0,41.0,28.0,79.0,317.914
317924.0,68.0,43.0,28.0,77.0,317.924
317934.0,67.0,43.0,29.0,78.0,317.934
317944.0,67.0,42.0,26.0,81.0,317.944
317954.0,66.0,45.0,35.0,83.0,317.954
317964.0,68.0,43.0,30.0,82.0,317.964
317974.0,66.0,45.0,27.0,78.0,317.974
317984.0,65.0,46.0,26.0,80.0,317.984
317995.0,64.0,47.0,25.0,76.0,317.995
318005.0,63.0,48.0,26.0,76.0,318.005
318015.0,63.0,47.0,28.0,80.0,318.015
318025.0,63.0,49.0,43.0,79.0,318.025
318035.0,63.0,49.0,40.0,75.0,318.035
318045.0,62.0,49.0,35.0,73.0,318.045
318055.0,63.0,50.0,32.0,70.0,318.055
318065.0,61.0,51.0,29.0,71.0,318.065
318075.0,61.0,51.0,27.0,70.0,318.075
318085.0,68.0,52.0,25.0,69.0,318.085
318095.0,71.0,53.0,25.0,68.0,318.095
318105.0,76.0,53.0,24.0,64.0,318.105
318115.0,77.0,53.0,21.0,60.0,318.115
318125.0,76.0,55.0,26.0,70.0,318.125
318135.0,75.0,56.0,35.0,74.0,318.135
318145.0,75.0,57.0,32.0,74.0,318.145
318155.0,72.0,58.0,30.0,74.0,318.155
318166.0,71.0,57.0,26.0,73.0,318.166
318176.0,68.0,58.0,26.0,73.0,318.176
318186.0,66.0,59.0,24.0,76.0,318.186
318196.0,64.0,58.0,31.0,78.0,318.196
318206.0,62.0,57.0,32.0,77.0,318.206
318216.0,62.0,55.0,28.0,80.0,318.216
318226.0,61.0,56.0,26.0,77.0,318.226
318236.0,59.0,55.0,22.0,73.0,318.236
318246.0,58.0,56.0,23.0,74.0,318.246
318256.0,56.0,56.0,22.0,80.0,318.256
318266.0,56.0,57.0,31.0,80.0,318.266
318276.0,57.0,55.0,28.0,81.0,318.276
318286.0,56.0,57.0,28.0,79.0,318.286
318296.0,54.0,59.0,23.0,74.0,318.296
318306.0,54.0,60.0,21.0,73.0,318.306
318316.0,53.0,59.0,19.0,69.0,318.316
318326.0,53.0,62.0,27.0,64.0,318.326
318336.0,53.0,60.0,25.0,65.0,318.336
318346.0,53.0,61.0,28.0,64.0,318.346
318356.0,54.0,64.0,28.0,66.0,318.356
318366.0,54.0,65.0,29.0,68.0,318.366
318376.0,54.0,65.0,28.0,76.0,318.376
318386.0,55.0,65.0,25.0,73.0,318.386
318396.0,54.0,67.0,22.0,75.0,318.396
318406.0,54.0,67.0,21.0,77.0,318.406
318416.0,55.0,66.0,20.0,75.0,318.416
318426.0,55.0,67.0,31.0,72.0,318.426
318436.0,56.0,68.0,33.0,71.0,318.436
318446.0,56.0,67.0,33.0,73.0,318.446
318456.0,56.0,66.0,30.0,69.0,318.456
318466.0,56.0,65.0,27.0,65.0,318.466
318476.0,56.0,66.0,29.0,68.0,318.476
318486.0,55.0,67.0,25.0,66.0,318.486
318496.0,57.0,67.0,24.0,67.0,318.496
318507.0,56.0,67.0,20.0,67.0,318.507
318517.0,55.0,69.0,28.0,64.0,318.517
318527.0,56.0,68.0,31.0,71.0,318.527
318537.0,56.0,66.0,27.0,68.0,318.537
318547.0,55.0,66.0,35.0,70.0,318.547
318557.0,53.0,68.0,32.0,75.0,318.557
318567.0,54.0,65.0,30.0,71.0,318.567
318577.0,54.0,66.0,24.0,67.0,318.577
318587.0,53.0,66.0,23.0,65.0,318.587
318597.0,52.0,67.0,30.0,65.0,318.597
318607.0,51.0,67.0,27.0,64.0,318.607
318617.0,50.0,66.0,25.0,68.0,318.617
318627.0,49.0,66.0,25.0,68.0,318.627
318637.0,51.0,62.0,23.0,71.0,318.637
318647.0,54.0,60.0,20.0,70.0,318.647
318657.0,52.0,61.0,19.0,67.0,318.657
318667.0,51.0,59.0,28.0,67.0,318.667
318678.0,51.0,57.0,31.0,66.0,318.678
318688.0,50.0,55.0,29.0,71.0,318.688
318698.0,49.0,52.0,25.0,68.0,318.698
318708.0,49.0,50.0,24.0,64.0,318.708
318718.0,48.0,48.0,21.0,61.0,318.718
318728.0,47.0,47.0,24.0,61.0,318.728
318738.0,47.0,47.0,35.0,75.0,318.738
318748.0,48.0,47.0,31.0,72.0,318.748
318758.0,48.0,44.0,29.0,78.0,318.758
318768.0,49.0,44.0,27.0,74.0,318.768
318778.0,49.0,42.0,25.0,73.0,318.778
318788.0,50.0,41.0,24.0,73.0,318.788
318798.0,50.0,41.0,22.0,75.0,318.798
318808.0,51.0,40.0,20.0,75.0,318.808
318818.0,50.0,41.0,21.0,77.0,318.818
318828.0,51.0,42.0,28.0,82.0,318.828
318838.0,49.0,42.0,25.0,83.0,318.838
318848.0,51.0,42.0,30.0,82.0,318.848
318858.0,51.0,42.0,27.0,86.0,318.858
318868.0,50.0,41.0,28.0,81.0,318.868
318878.0,50.0,40.0,25.0,76.0,318.878
318888.0,49.0,40.0,21.0,71.0,318.888
318898.0,50.0,38.0,19.0,70.0,318.898
318908.0,49.0,37.0,17.0,65.0,318.908
318918.0,49.0,37.0,18.0,70.0,318.918
318928.0,50.0,41.0,17.0,77.0,318.928
318938.0,50.0,41.0,15.0,78.0,318.938
318948.0,51.0,40.0,15.0,72.0,318.948
318958.0,51.0,40.0,17.0,69.0,318.958
318968.0,51.0,38.0,15.0,63.0,318.968
318978.0,53.0,39.0,14.0,62.0,318.978
318988.0,54.0,39.0,13.0,58.0,318.988
318998.0,56.0,40.0,12.0,56.0,318.998
319008.0,55.0,40.0,12.0,59.0,319.008
319019.0,57.0,43.0,20.0,72.0,319.019
319029.0,58.0,43.0,23.0,72.0,319.029
319039.0,60.0,42.0,31.0,78.0,319.039
319049.0,61.0,42.0,31.0,74.0,319.049
319059.0,62.0,40.0,29.0,73.0,319.059
319069.0,63.0,41.0,29.0,78.0,319.069
319079.0,64.0,39.0,26.0,79.0,319.079
319089.0,65.0,40.0,23.0,76.0,319.089
319099.0,63.0,40.0,20.0,74.0,319.099
319109.0,62.0,41.0,28.0,73.0,319.109
319119.0,61.0,44.0,49.0,73.0,319.119
319129.0,61.0,42.0,45.0,75.0,319.129
319139.0,60.0,42.0,39.0,72.0,319.139
319149.0,60.0,42.0,36.0,75.0,319.149
319159.0,60.0,41.0,33.0,73.0,319.159
319169.0,60.0,40.0,30.0,71.0,319.169
319179.0,60.0,39.0,26.0,68.0,319.179
319190.0,60.0,41.0,37.0,69.0,319.19
319200.0,61.0,41.0,34.0,68.0,319.2
319210.0,61.0,41.0,37.0,66.0,319.21
319220.0,60.0,41.0,33.0,67.0,319.22
319230.0,61.0,40.0,32.0,69.0,319.23
319240.0,60.0,41.0,30.0,74.0,319.24
319250.0,61.0,40.0,28.0,80.0,319.25
319260.0,61.0,41.0,27.0,77.0,319.26
319270.0,60.0,40.0,25.0,75.0,319.27
319280.0,58.0,42.0,36.0,74.0,319.28
319290.0,56.0,41.0,30.0,70.0,319.29
319300.0,56.0,40.0,32.0,72.0,319.3
319310.0,55.0,41.0,33.0,81.0,319.31
319320.0,54.0,39.0,31.0,84.0,319.32
319330.0,53.0,38.0,27.0,82.0,319.33
319340.0,52.0,38.0,28.0,83.0,319.34
319350.0,52.0,38.0,27.0,88.0,319.35
319360.0,51.0,37.0,25.0,85.0,319.36
319370.0,51.0,37.0,25.0,84.0,319.37
319380.0,51.0,37.0,22.0,84.0,319.38
319390.0,51.0,37.0,29.0,86.0,319.39
319400.0,51.0,36.0,32.0,87.0,319.4
319410.0,52.0,36.0,31.0,84.0,319.41
319420.0,53.0,38.0,35.0,79.0,319.42
319430.0,52.0,38.0,30.0,80.0,319.43
319440.0,53.0,37.0,29.0,79.0,319.44
319450.0,54.0,39.0,34.0,77.0,319.45
319460.0,55.0,38.0,33.0,76.0,319.46
319470.0,56.0,39.0,29.0,79.0,319.47
319480.0,58.0,39.0,27.0,77.0,319.48
319490.0,57.0,38.0,24.0,73.0,319.49
319500.0,58.0,38.0,25.0,77.0,319.5
319510.0,57.0,37.0,22.0,76.0,319.51
319520.0,57.0,38.0,21.0,78.0,319.52
319531.0,56.0,36.0,19.0,76.0,319.531
319541.0,55.0,38.0,19.0,76.0,319.541
319551.0,53.0,38.0,29.0,78.0,319.551
319561.0,53.0,38.0,32.0,74.0,319.561
319571.0,50.0,37.0,28.0,72.0,319.571
319581.0,52.0,37.0,26.0,75.0,319.581
319591.0,50.0,38.0,23.0,86.0,319.591
319601.0,50.0,36.0,21.0,80.0,319.601
319611.0,50.0,36.0,19.0,75.0,319.611
319621.0,49.0,36.0,17.0,72.0,319.621
319631.0,50.0,35.0,19.0,75.0,319.631
319641.0,49.0,38.0,23.0,74.0,319.641
319651.0,49.0,37.0,26.0,75.0,319.651
319661.0,48.0,38.0,23.0,71.0,319.661
319671.0,48.0,36.0,21.0,64.0,319.671
319681.0,49.0,37.0,19.0,63.0,319.681
319691.0,47.0,37.0,18.0,63.0,319.691
319702.0,48.0,38.0,17.0,62.0,319.702
319712.0,46.0,39.0,21.0,67.0,319.712
319722.0,46.0,40.0,26.0,68.0,319.722
319732.0,47.0,42.0,30.0,70.0,319.732
319742.0,47.0,40.0,27.0,68.0,319.742
319752.0,46.0,40.0,24.0,67.0,319.752
319762.0,45.0,39.0,21.0,63.0,319.762
319772.0,46.0,38.0,20.0,69.0,319.772
319782.0,46.0,39.0,20.0,70.0,319.782
319792.0,47.0,38.0,19.0,69.0,319.792
319802.0,46.0,38.0,16.0,72.0,319.802
319812.0,46.0,38.0,35.0,67.0,319.812
319822.0,49.0,40.0,34.0,69.0,319.822
319832.0,50.0,40.0,33.0,69.0,319.832
319842.0,53.0,39.0,31.0,67.0,319.842
319852.0,52.0,39.0,26.0,66.0,319.852
319862.0,53.0,37.0,24.0,70.0,319.862
319872.0,54.0,39.0,21.0,70.0,319.872
319882.0,54.0,38.0,21.0,68.0,319.882
319892.0,55.0,40.0,24.0,69.0,319.892
319902.0,55.0,42.0,40.0,71.0,319.902
319912.0,57.0,42.0,40.0,71.0,319.912
319922.0,56.0,41.0,39.0,74.0,319.922
319932.0,56.0,41.0,34.0,73.0,319.932
319942.0,57.0,43.0,32.0,75.0,319.942
319952.0,57.0,42.0,30.0,74.0,319.952
319962.0,57.0,45.0,33.0,79.0,319.962
319972.0,57.0,47.0,32.0,80.0,319.972
319982.0,58.0,51.0,28.0,82.0,319.982
319992.0,58.0,51.0,26.0,80.0,319.992
320002.0,58.0,52.0,28.0,80.0,320.002
320012.0,58.0,53.0,24.0,81.0,320.012
320022.0,57.0,52.0,23.0,79.0,320.022
320032.0,57.0,50.0,21.0,77.0,320.032
320043.0,56.0,50.0,25.0,81.0,320.043
320053.0,57.0,50.0,29.0,80.0,320.053
320063.0,55.0,53.0,32.0,77.0,320.063
320073.0,57.0,53.0,29.0,76.0,320.073
320083.0,58.0,53.0,25.0,77.0,320.083
320093.0,58.0,51.0,23.0,72.0,320.093
320103.0,59.0,50.0,20.0,66.0,320.103
320113.0,59.0,48.0,17.0,63.0,320.113
320123.0,58.0,47.0,19.0,59.0,320.123
320133.0,58.0,48.0,16.0,60.0,320.133
320143.0,59.0,46.0,15.0,57.0,320.143
320153.0,58.0,45.0,21.0,62.0,320.153
320163.0,59.0,44.0,20.0,66.0,320.163
320173.0,59.0,44.0,18.0,63.0,320.173
320183.0,58.0,43.0,16.0,64.0,320.183
320193.0,59.0,45.0,24.0,61.0,320.193
320203.0,58.0,44.0,20.0,64.0,320.203
320214.0,57.0,43.0,22.0,61.0,320.214
320224.0,57.0,43.0,24.0,62.0,320.224
320234.0,57.0,42.0,22.0,68.0,320.234
320244.0,56.0,42.0,25.0,68.0,320.244
320254.0,56.0,43.0,25.0,70.0,320.254
320264.0,57.0,42.0,26.0,70.0,320.264
320274.0,55.0,43.0,26.0,72.0,320.274
320284.0,54.0,41.0,23.0,69.0,320.284
320294.0,54.0,43.0,21.0,68.0,320.294
