time (ms),signal 0,signal 1,signal 2,signal3,time (sec)
378121.0,55.0,45.0,34.0,102.0,378.121
378131.0,56.0,43.0,31.0,101.0,378.131
378141.0,57.0,43.0,30.0,105.0,378.141
378151.0,57.0,42.0,29.0,99.0,378.151
378161.0,53.0,42.0,29.0,100.0,378.161
378171.0,55.0,40.0,26.0,102.0,378.171
378181.0,56.0,39.0,23.0,95.0,378.181
378191.0,56.0,38.0,28.0,92.0,378.191
378201.0,56.0,41.0,39.0,97.0,378.201
378211.0,55.0,40.0,37.0,100.0,378.211
378221.0,55.0,39.0,36.0,98.0,378.221
378231.0,55.0,40.0,32.0,95.0,378.231
378241.0,56.0,41.0,29.0,93.0,378.241
378251.0,56.0,41.0,27.0,103.0,378.251
378261.0,55.0,40.0,27.0,117.0,378.261
378271.0,56.0,39.0,24.0,110.0,378.271
378281.0,57.0,39.0,21.0,107.0,378.281
378291.0,58.0,39.0,21.0,100.0,378.291
378301.0,58.0,42.0,22.0,93.0,378.301
378311.0,59.0,40.0,23.0,88.0,378.311
378321.0,59.0,40.0,24.0,107.0,378.321
378331.0,58.0,40.0,25.0,104.0,378.331
378341.0,60.0,39.0,22.0,109.0,378.341
378351.0,60.0,39.0,21.0,106.0,378.351
378361.0,62.0,38.0,19.0,103.0,378.361
378371.0,61.0,38.0,16.0,97.0,378.371
378381.0,60.0,37.0,15.0,103.0,378.381
378391.0,60.0,38.0,14.0,98.0,378.391
378401.0,60.0,37.0,16.0,94.0,378.401
378411.0,61.0,36.0,18.0,86.0,378.411
378421.0,62.0,40.0,34.0,81.0,378.421
378431.0,63.0,40.0,33.0,78.0,378.431
378441.0,62.0,39.0,30.0,99.0,378.441
378451.0,63.0,37.0,27.0,95.0,378.451
378461.0,62.0,38.0,25.0,100.0,378.461
378471.0,63.0,38.0,22.0,97.0,378.471
378481.0,63.0,38.0,19.0,91.0,378.481
378491.0,61.0,40.0,32.0,102.0,378.491
378501.0,62.0,41.0,30.0,109.0,378.501
378511.0,61.0,39.0,25.0,102.0,378.511
378521.0,61.0,40.0,25.0,96.0,378.521
378531.0,60.0,41.0,26.0,92.0,378.531
378541.0,60.0,41.0,32.0,91.0,378.541
378551.0,61.0,42.0,28.0,92.0,378.551
378561.0,61.0,42.0,25.0,104.0,378.561
378571.0,61.0,42.0,30.0,103.0,378.571
378582.0,60.0,42.0,26.0,106.0,378.582
378592.0,61.0,42.0,32.0,102.0,378.592
378602.0,61.0,41.0,30.0,108.0,378.602
378612.0,60.0,40.0,27.0,104.0,378.612
378622.0,60.0,38.0,24.0,103.0,378.622
378632.0,60.0,39.0,21.0,100.0,378.632
378642.0,60.0,40.0,28.0,100.0,378.642
378652.0,59.0,39.0,27.0,93.0,378.652
378662.0,60.0,40.0,25.0,91.0,378.662
378672.0,63.0,41.0,26.0,105.0,378.672
378682.0,61.0,40.0,23.0,97.0,378.682
378692.0,62.0,38.0,24.0,100.0,378.692
378702.0,62.0,40.0,29.0,96.0,378.702
378712.0,62.0,39.0,27.0,89.0,378.712
378722.0,62.0,39.0,23.0,99.0,378.722
378732.0,62.0,38.0,21.0,108.0,378.732
378742.0,62.0,37.0,19.0,114.0,378.742
378752.0,61.0,38.0,23.0,109.0,378.752
378762.0,64.0,38.0,26.0,112.0,378.762
378772.0,65.0,38.0,23.0,114.0,378.772
378782.0,65.0,37.0,22.0,111.0,378.782
378792.0,65.0,38.0,22.0,115.0,378.792
378802.0,64.0,37.0,20.0,114.0,378.802
378812.0,64.0,37.0,19.0,108.0,378.812
378822.0,63.0,41.0,20.0,108.0,378.822
378832.0,63.0,41.0,32.0,116.0,378.832
378842.0,64.0,41.0,28.0,121.0,378.842
378852.0,64.0,40.0,29.0,117.0,378.852
378862.0,64.0,40.0,28.0,108.0,378.862
378872.0,64.0,39.0,25.0,109.0,378.872
378882.0,63.0,39.0,26.0,105.0,378.882
378892.0,62.0,39.0,22.0,101.0,378.892
378902.0,63.0,37.0,20.0,102.0,378.902
378912.0,62.0,39.0,18.0,99.0,378.912
378923.0,61.0,38.0,25.0,91.0,378.923
378933.0,62.0,39.0,28.0,86.0,378.933
378943.0,62.0,39.0,26.0,87.0,378.943
378953.0,61.0,39.0,25.0,87.0,378.953
378963.0,60.0,40.0,25.0,92.0,378.963
378973.0,59.0,38.0,24.0,98.0,378.973
378983.0,57.0,38.0,23.0,99.0,378.983
378993.0,56.0,38.0,22.0,97.0,378.993
379003.0,56.0,38.0,20.0,96.0,379.003
379013.0,56.0,38.0,19.0,98.0,379.013
379023.0,55.0,41.0,25.0,99.0,379.023
379033.0,55.0,42.0,27.0,102.0,379.033
379043.0,54.0,39.0,26.0,94.0,379.043
379053.0,54.0,39.0,24.0,91.0,379.053
379063.0,55.0,39.0,24.0,109.0,379.063
379073.0,56.0,38.0,25.0,112.0,379.073
379083.0,54.0,38.0,26.0,120.0,379.083
379094.0,56.0,38.0,27.0,119.0,379.094
379104.0,56.0,42.0,31.0,115.0,379.104
379114.0,55.0,41.0,27.0,104.0,379.114
379124.0,55.0,40.0,24.0,114.0,379.124
379134.0,54.0,39.0,22.0,111.0,379.134
379144.0,53.0,38.0,20.0,109.0,379.144
379154.0,52.0,38.0,29.0,103.0,379.154
379164.0,51.0,38.0,32.0,101.0,379.164
379174.0,51.0,38.0,28.0,99.0,379.174
379184.0,51.0,36.0,26.0,98.0,379.184
379194.0,49.0,39.0,36.0,101.0,379.194
379204.0,51.0,38.0,35.0,96.0,379.204
379214.0,51.0,38.0,33.0,91.0,379.214
379224.0,51.0,38.0,30.0,92.0,379.224
379234.0,50.0,37.0,28.0,89.0,379.234
379244.0,50.0,37.0,26.0,104.0,379.244
379254.0,52.0,36.0,24.0,100.0,379.254
379264.0,50.0,37.0,21.0,95.0,379.264
379274.0,52.0,38.0,30.0,91.0,379.274
379284.0,52.0,39.0,38.0,87.0,379.284
379294.0,51.0,39.0,40.0,84.0,379.294
379304.0,52.0,39.0,53.0,82.0,379.304
379314.0,52.0,39.0,53.0,79.0,379.314
379324.0,53.0,40.0,61.0,76.0,379.324
379334.0,53.0,39.0,60.0,77.0,379.334
379344.0,53.0,40.0,63.0,78.0,379.344
379354.0,55.0,39.0,58.0,74.0,379.354
379364.0,56.0,39.0,50.0,80.0,379.364
379374.0,58.0,39.0,45.0,93.0,379.374
379384.0,58.0,38.0,39.0,100.0,379.384
379394.0,59.0,38.0,35.0,101.0,379.394
379404.0,60.0,41.0,42.0,105.0,379.404
379414.0,61.0,41.0,49.0,102.0,379.414
379424.0,63.0,42.0,48.0,107.0,379.424
379435.0,62.0,43.0,43.0,100.0,379.435
379445.0,63.0,43.0,39.0,93.0,379.445
379455.0,63.0,43.0,34.0,93.0,379.455
379465.0,62.0,42.0,32.0,97.0,379.465
379475.0,63.0,42.0,28.0,108.0,379.475
379485.0,64.0,42.0,27.0,112.0,379.485
379495.0,64.0,42.0,35.0,105.0,379.495
379505.0,63.0,43.0,32.0,105.0,379.505
379515.0,64.0,44.0,28.0,103.0,379.515
379525.0,63.0,45.0,29.0,99.0,379.525
379535.0,62.0,44.0,29.0,106.0,379.535
379545.0,61.0,45.0,29.0,113.0,379.545
379555.0,61.0,43.0,29.0,106.0,379.555
379565.0,61.0,45.0,36.0,111.0,379.565
379575.0,59.0,45.0,32.0,113.0,379.575
379585.0,58.0,44.0,28.0,108.0,379.585
379595.0,57.0,44.0,26.0,116.0,379.595
379606.0,56.0,43.0,22.0,108.0,379.606
379616.0,55.0,43.0,22.0,114.0,379.616
379626.0,56.0,43.0,25.0,113.0,379.626
379636.0,56.0,44.0,35.0,111.0,379.636
379646.0,56.0,47.0,34.0,103.0,379.646
379656.0,57.0,49.0,31.0,109.0,379.656
379666.0,57.0,49.0,28.0,107.0,379.666
379676.0,57.0,49.0,24.0,108.0,379.676
379686.0,58.0,51.0,30.0,115.0,379.686
379696.0,59.0,52.0,32.0,112.0,379.696
379706.0,61.0,55.0,29.0,109.0,379.706
379716.0,61.0,55.0,25.0,102.0,379.716
379726.0,61.0,53.0,28.0,113.0,379.726
379736.0,61.0,55.0,39.0,121.0,379.736
379746.0,60.0,53.0,35.0,113.0,379.746
379756.0,60.0,53.0,35.0,111.0,379.756
379766.0,59.0,53.0,33.0,101.0,379.766
379776.0,59.0,52.0,33.0,96.0,379.776
379786.0,60.0,53.0,30.0,126.0,379.786
379796.0,59.0,53.0,28.0,125.0,379.796
379806.0,58.0,54.0,25.0,115.0,379.806
379816.0,57.0,52.0,22.0,113.0,379.816
379826.0,56.0,52.0,28.0,107.0,379.826
379836.0,56.0,52.0,31.0,108.0,379.836
379846.0,57.0,51.0,28.0,103.0,379.846
379856.0,55.0,49.0,32.0,102.0,379.856
379866.0,55.0,47.0,31.0,96.0,379.866
379876.0,53.0,46.0,29.0,98.0,379.876
379886.0,51.0,44.0,27.0,94.0,379.886
379896.0,51.0,45.0,33.0,120.0,379.896
379906.0,52.0,46.0,32.0,136.0,379.906
379916.0,52.0,44.0,29.0,125.0,379.916
379926.0,50.0,43.0,27.0,124.0,379.926
379936.0,52.0,43.0,25.0,115.0,379.936
379947.0,51.0,44.0,24.0,115.0,379.947
379957.0,51.0,43.0,26.0,116.0,379.957
379967.0,50.0,43.0,24.0,112.0,379.967
379977.0,51.0,45.0,24.0,107.0,379.977
379987.0,53.0,46.0,23.0,112.0,379.987
379997.0,52.0,46.0,22.0,108.0,379.997
380007.0,55.0,47.0,32.0,107.0,380.007
380017.0,55.0,47.0,30.0,103.0,380.017
380027.0,55.0,47.0,27.0,104.0,380.027
380037.0,55.0,46.0,26.0,99.0,380.037
380047.0,55.0,45.0,24.0,93.0,380.047
380057.0,57.0,45.0,28.0,89.0,380.057
380067.0,57.0,46.0,26.0,91.0,380.067
380077.0,59.0,45.0,24.0,90.0,380.077
380087.0,58.0,46.0,23.0,93.0,380.087
380097.0,59.0,46.0,25.0,100.0,380.097
380107.0,60.0,45.0,25.0,105.0,380.107
380118.0,61.0,46.0,25.0,101.0,380.118
380128.0,61.0,44.0,26.0,93.0,380.128
380138.0,60.0,44.0,22.0,93.0,380.138
380148.0,59.0,44.0,23.0,89.0,380.148
380158.0,58.0,45.0,25.0,100.0,380.158
380168.0,59.0,46.0,31.0,108.0,380.168
380178.0,59.0,47.0,29.0,101.0,380.178
380188.0,59.0,46.0,33.0,100.0,380.188
380198.0,60.0,46.0,34.0,96.0,380.198
380208.0,61.0,45.0,32.0,92.0,380.208
380218.0,60.0,44.0,34.0,104.0,380.218
380228.0,60.0,44.0,30.0,106.0,380.228
380238.0,62.0,42.0,29.0,101.0,380.238
380248.0,63.0,42.0,25.0,105.0,380.248
380258.0,63.0,41.0,23.0,101.0,380.258
380268.0,64.0,40.0,31.0,107.0,380.268
380278.0,64.0,42.0,33.0,108.0,380.278
380288.0,66.0,41.0,32.0,103.0,380.288
380298.0,64.0,41.0,38.0,108.0,380.298
380308.0,65.0,41.0,36.0,113.0,380.308
380318.0,66.0,41.0,32.0,105.0,380.318
380328.0,66.0,42.0,28.0,109.0,380.328
380338.0,66.0,40.0,25.0,104.0,380.338
380348.0,66.0,40.0,22.0,98.0,380.348
380358.0,67.0,41.0,32.0,102.0,380.358
380368.0,67.0,41.0,32.0,99.0,380.368
380378.0,70.0,40.0,30.0,101.0,380.378
380388.0,69.0,40.0,36.0,99.0,380.388
380398.0,69.0,39.0,36.0,93.0,380.398
380408.0,71.0,39.0,33.0,90.0,380.408
380418.0,69.0,40.0,29.0,98.0,380.418
380428.0,69.0,41.0,38.0,93.0,380.428
380438.0,69.0,41.0,35.0,92.0,380.438
380448.0,69.0,40.0,31.0,90.0,380.448
380459.0,70.0,38.0,29.0,90.0,380.459
380469.0,71.0,39.0,28.0,89.0,380.469
380479.0,73.0,39.0,25.0,91.0,380.479
380489.0,69.0,39.0,29.0,96.0,380.489
380499.0,70.0,39.0,28.0,95.0,380.499
380509.0,70.0,39.0,27.0,93.0,380.509
380519.0,70.0,38.0,28.0,91.0,380.519
380529.0,70.0,39.0,37.0,87.0,380.529
380539.0,71.0,39.0,32.0,87.0,380.539
380549.0,71.0,38.0,29.0,90.0,380.549
380559.0,69.0,39.0,28.0,91.0,380.559
380569.0,68.0,37.0,27.0,87.0,380.569
380579.0,67.0,37.0,29.0,81.0,380.579
380589.0,66.0,36.0,28.0,85.0,380.589
380599.0,64.0,36.0,27.0,88.0,380.599
380609.0,62.0,38.0,27.0,93.0,380.609
380619.0,64.0,39.0,35.0,95.0,380.619
380630.0,63.0,39.0,34.0,91.0,380.63
380640.0,64.0,39.0,32.0,88.0,380.64
380650.0,64.0,39.0,29.0,93.0,380.65
380660.0,64.0,38.0,28.0,102.0,380.66
380670.0,63.0,38.0,29.0,101.0,380.67
380680.0,63.0,38.0,28.0,95.0,380.68
380690.0,64.0,38.0,28.0,94.0,380.69
380700.0,63.0,39.0,30.0,94.0,380.7
380710.0,63.0,39.0,38.0,96.0,380.71
380720.0,64.0,38.0,34.0,98.0,380.72
380730.0,62.0,39.0,33.0,101.0,380.73
380740.0,62.0,37.0,32.0,96.0,380.74
380750.0,62.0,37.0,29.0,99.0,380.75
380760.0,62.0,37.0,29.0,94.0,380.76
380770.0,60.0,38.0,30.0,97.0,380.77
380780.0,60.0,37.0,26.0,100.0,380.78
380790.0,60.0,37.0,23.0,98.0,380.79
380800.0,58.0,38.0,36.0,95.0,380.8
380810.0,61.0,38.0,38.0,100.0,380.81
380820.0,60.0,38.0,35.0,96.0,380.82
380830.0,61.0,38.0,33.0,97.0,380.83
380840.0,60.0,37.0,28.0,96.0,380.84
380850.0,61.0,37.0,26.0,99.0,380.85
380860.0,60.0,38.0,22.0,93.0,380.86
380870.0,59.0,42.0,24.0,93.0,380.87
380880.0,60.0,41.0,28.0,88.0,380.88
380890.0,60.0,41.0,28.0,94.0,380.89
380900.0,60.0,40.0,27.0,93.0,380.9
380910.0,58.0,41.0,26.0,85.0,380.91
380920.0,58.0,40.0,24.0,81.0,380.92
380930.0,57.0,40.0,22.0,78.0,380.93
380940.0,55.0,41.0,21.0,75.0,380.94
380950.0,54.0,40.0,26.0,98.0,380.95
380960.0,53.0,40.0,24.0,97.0,380.96
380971.0,53.0,42.0,35.0,92.0,380.971
380981.0,53.0,42.0,32.0,90.0,380.981
380991.0,52.0,41.0,29.0,88.0,380.991
381001.0,52.0,39.0,27.0,88.0,381.001
381011.0,51.0,40.0,27.0,83.0,381.011
381021.0,52.0,38.0,28.0,97.0,381.021
381031.0,52.0,39.0,26.0,94.0,381.031
381041.0,53.0,39.0,32.0,90.0,381.041
381051.0,54.0,39.0,32.0,95.0,381.051
381061.0,53.0,40.0,39.0,95.0,381.061
381071.0,55.0,40.0,33.0,95.0,381.071
381081.0,54.0,40.0,30.0,92.0,381.081
381091.0,54.0,39.0,32.0,92.0,381.091
381101.0,54.0,42.0,31.0,89.0,381.101
381111.0,54.0,40.0,29.0,91.0,381.111
381121.0,53.0,41.0,32.0,91.0,381.121
381131.0,52.0,40.0,29.0,94.0,381.131
381142.0,52.0,41.0,30.0,107.0,381.142
381152.0,54.0,41.0,34.0,101.0,381.152
381162.0,55.0,41.0,36.0,96.0,381.162
381172.0,55.0,40.0,32.0,102.0,381.172
381182.0,57.0,40.0,28.0,102.0,381.182
381192.0,55.0,40.0,26.0,103.0,381.192
381202.0,58.0,40.0,25.0,112.0,381.202
381212.0,57.0,40.0,24.0,116.0,381.212
381222.0,58.0,42.0,27.0,120.0,381.222
381232.0,58.0,41.0,40.0,111.0,381.232
381242.0,57.0,40.0,36.0,107.0,381.242
381252.0,57.0,39.0,32.0,108.0,381.252
381262.0,57.0,40.0,28.0,100.0,381.262
381272.0,57.0,40.0,25.0,97.0,381.272
381282.0,57.0,40.0,24.0,104.0,381.282
381292.0,56.0,39.0,27.0,117.0,381.292
381302.0,57.0,38.0,25.0,117.0,381.302
381312.0,57.0,41.0,28.0,113.0,381.312
381322.0,57.0,40.0,25.0,104.0,381.322
381332.0,57.0,40.0,22.0,104.0,381.332
381342.0,54.0,39.0,24.0,100.0,381.342
381352.0,53.0,40.0,21.0,100.0,381.352
381362.0,51.0,39.0,21.0,95.0,381.362
381372.0,51.0,38.0,20.0,103.0,381.372
381382.0,50.0,39.0,29.0,102.0,381.382
381392.0,51.0,39.0,26.0,99.0,381.392
381402.0,49.0,39.0,30.0,101.0,381.402
381412.0,48.0,39.0,26.0,98.0,381.412
381422.0,47.0,39.0,28.0,101.0,381.422
381432.0,46.0,38.0,25.0,107.0,381.432
381442.0,45.0,38.0,25.0,104.0,381.442
381452.0,44.0,40.0,24.0,103.0,381.452
381462.0,45.0,41.0,34.0,95.0,381.462
381472.0,45.0,40.0,29.0,93.0,381.472
381483.0,45.0,42.0,32.0,90.0,381.483
381493.0,47.0,40.0,32.0,101.0,381.493
381503.0,48.0,40.0,28.0,104.0,381.503
381513.0,46.0,40.0,28.0,107.0,381.513
381523.0,47.0,41.0,26.0,110.0,381.523
381533.0,46.0,41.0,26.0,102.0,381.533
381543.0,48.0,40.0,28.0,95.0,381.543
381553.0,47.0,40.0,26.0,94.0,381.553
381563.0,47.0,40.0,24.0,97.0,381.563
381573.0,48.0,40.0,22.0,98.0,381.573
381583.0,49.0,42.0,33.0,96.0,381.583
381593.0,50.0,42.0,28.0,100.0,381.593
381603.0,50.0,42.0,29.0,102.0,381.603
381613.0,51.0,40.0,27.0,97.0,381.613
381623.0,50.0,41.0,28.0,97.0,381.623
381633.0,50.0,40.0,26.0,101.0,381.633
381643.0,50.0,41.0,25.0,99.0,381.643
381654.0,51.0,42.0,24.0,98.0,381.654
381664.0,52.0,42.0,21.0,100.0,381.664
381674.0,52.0,45.0,29.0,102.0,381.674
381684.0,52.0,43.0,28.0,104.0,381.684
381694.0,53.0,42.0,27.0,110.0,381.694
381704.0,53.0,42.0,27.0,109.0,381.704
381714.0,51.0,43.0,29.0,100.0,381.714
381724.0,51.0,40.0,26.0,105.0,381.724
381734.0,49.0,40.0,27.0,97.0,381.734
381744.0,50.0,40.0,26.0,100.0,381.744
381754.0,50.0,40.0,25.0,101.0,381.754
381764.0,49.0,42.0,36.0,99.0,381.764
381774.0,50.0,39.0,33.0,98.0,381.774
381784.0,50.0,40.0,29.0,96.0,381.784
381794.0,51.0,38.0,25.0,87.0,381.794
381804.0,51.0,39.0,22.0,93.0,381.804
381814.0,53.0,39.0,22.0,87.0,381.814
381824.0,53.0,38.0,22.0,88.0,381.824
381834.0,52.0,38.0,25.0,92.0,381.834
381844.0,53.0,40.0,25.0,101.0,381.844
381854.0,54.0,40.0,22.0,94.0,381.854
381864.0,57.0,42.0,31.0,108.0,381.864
381874.0,58.0,41.0,28.0,102.0,381.874
381884.0,59.0,40.0,26.0,96.0,381.884
381894.0,60.0,40.0,22.0,100.0,381.894
381904.0,60.0,39.0,20.0,105.0,381.904
381914.0,59.0,41.0,21.0,99.0,381.914
381924.0,58.0,44.0,19.0,95.0,381.924
381934.0,59.0,42.0,19.0,98.0,381.934
381944.0,59.0,46.0,17.0,98.0,381.944
381954.0,58.0,48.0,16.0,100.0,381.954
381964.0,61.0,49.0,15.0,98.0,381.964
381974.0,63.0,49.0,12.0,88.0,381.974
381984.0,66.0,49.0,12.0,81.0,381.984
381995.0,65.0,50.0,10.0,74.0,381.995
382005.0,64.0,50.0,10.0,72.0,382.005
382015.0,65.0,53.0,9.0,66.0,382.015
382025.0,66.0,53.0,9.0,61.0,382.025
382035.0,65.0,53.0,8.0,57.0,382.035
382045.0,64.0,56.0,8.0,56.0,382.045
382055.0,65.0,56.0,15.0,60.0,382.055
382065.0,67.0,57.0,19.0,68.0,382.065
382075.0,68.0,58.0,19.0,71.0,382.075
382085.0,68.0,57.0,21.0,71.0,382.085
382095.0,68.0,58.0,21.0,82.0,382.095
382105.0,68.0,59.0,22.0,85.0,382.105
382115.0,66.0,58.0,22.0,82.0,382.115
382125.0,67.0,58.0,21.0,89.0,382.125
382135.0,67.0,58.0,19.0,103.0,382.135
382145.0,66.0,57.0,18.0,97.0,382.145
382155.0,66.0,57.0,15.0,98.0,382.155
382166.0,65.0,57.0,14.0,96.0,382.166
382176.0,65.0,58.0,13.0,109.0,382.176
382186.0,61.0,59.0,14.0,103.0,382.186
382196.0,62.0,61.0,15.0,101.0,382.196
382206.0,62.0,62.0,16.0,101.0,382.206
382216.0,63.0,60.0,21.0,112.0,382.216
382226.0,63.0,62.0,19.0,116.0,382.226
382236.0,62.0,62.0,23.0,122.0,382.236
382246.0,62.0,63.0,22.0,120.0,382.246
382256.0,60.0,70.0,29.0,130.0,382.256
382266.0,61.0,68.0,36.0,127.0,382.266
382276.0,62.0,67.0,39.0,130.0,382.276
382286.0,64.0,66.0,38.0,132.0,382.286
382296.0,63.0,67.0,33.0,142.0,382.296
382306.0,63.0,68.0,31.0,140.0,382.306
382316.0,62.0,71.0,40.0,128.0,382.316
382326.0,60.0,70.0,50.0,134.0,382.326
382336.0,60.0,71.0,56.0,128.0,382.336
382346.0,58.0,76.0,51.0,132.0,382.346
382356.0,57.0,78.0,58.0,130.0,382.356
382366.0,60.0,80.0,66.0,141.0,382.366
382376.0,59.0,81.0,60.0,154.0,382.376
382386.0,58.0,84.0,64.0,157.0,382.386
382396.0,57.0,86.0,61.0,150.0,382.396
382406.0,59.0,85.0,59.0,139.0,382.406
382416.0,58.0,86.0,52.0,138.0,382.416
382426.0,57.0,91.0,65.0,153.0,382.426
382436.0,57.0,91.0,65.0,166.0,382.436
382446.0,55.0,94.0,57.0,166.0,382.446
382456.0,54.0,97.0,57.0,170.0,382.456
382466.0,54.0,98.0,60.0,154.0,382.466
382476.0,54.0,98.0,57.0,142.0,382.476
382486.0,54.0,101.0,71.0,162.0,382.486
382496.0,52.0,100.0,80.0,162.0,382.496
382507.0,52.0,99.0,73.0,158.0,382.507
382517.0,51.0,100.0,66.0,148.0,382.517
382527.0,51.0,101.0,58.0,165.0,382.527
382537.0,50.0,103.0,52.0,157.0,382.537
382547.0,52.0,101.0,61.0,160.0,382.547
382557.0,49.0,101.0,54.0,160.0,382.557
382567.0,50.0,100.0,52.0,161.0,382.567
382577.0,49.0,100.0,57.0,156.0,382.577
382587.0,49.0,98.0,65.0,164.0,382.587
382597.0,50.0,96.0,64.0,155.0,382.597
382607.0,49.0,97.0,61.0,174.0,382.607
382617.0,48.0,95.0,57.0,177.0,382.617
382627.0,47.0,94.0,52.0,176.0,382.627
382637.0,47.0,93.0,50.0,177.0,382.637
382647.0,48.0,94.0,67.0,181.0,382.647
382657.0,48.0,91.0,65.0,168.0,382.657
382667.0,47.0,91.0,73.0,155.0,382.667
382678.0,45.0,91.0,65.0,154.0,382.678
382688.0,47.0,89.0,59.0,199.0,382.688
382698.0,46.0,89.0,52.0,195.0,382.698
382708.0,47.0,90.0,52.0,216.0,382.708
382718.0,46.0,91.0,52.0,220.0,382.718
382728.0,46.0,90.0,56.0,217.0,382.728
382738.0,47.0,92.0,59.0,217.0,382.738
382748.0,46.0,92.0,58.0,211.0,382.748
382758.0,50.0,91.0,63.0,206.0,382.758
382768.0,51.0,91.0,77.0,195.0,382.768
382778.0,50.0,91.0,79.0,188.0,382.778
382788.0,49.0,94.0,79.0,188.0,382.788
382798.0,51.0,89.0,73.0,199.0,382.798
382808.0,51.0,91.0,70.0,205.0,382.808
382818.0,51.0,93.0,65.0,197.0,382.818
382828.0,50.0,93.0,73.0,187.0,382.828
382838.0,50.0,89.0,73.0,192.0,382.838
382848.0,51.0,85.0,69.0,195.0,382.848
382858.0,51.0,86.0,60.0,188.0,382.858
382868.0,51.0,94.0,63.0,196.0,382.868
382878.0,52.0,89.0,64.0,196.0,382.878
382888.0,50.0,89.0,68.0,184.0,382.888
382898.0,51.0,87.0,63.0,189.0,382.898
382908.0,52.0,86.0,65.0,186.0,382.908
382918.0,54.0,87.0,73.0,176.0,382.918
382928.0,57.0,86.0,74.0,214.0,382.928
382938.0,57.0,88.0,86.0,209.0,382.938
382948.0,57.0,86.0,88.0,203.0,382.948
382958.0,54.0,86.0,86.0,195.0,382.958
382968.0,57.0,81.0,93.0,195.0,382.968
382978.0,54.0,85.0,83.0,184.0,382.978
382988.0,55.0,83.0,73.0,181.0,382.988
382998.0,54.0,82.0,74.0,186.0,382.998
383008.0,53.0,79.0,79.0,179.0,383.008
383019.0,57.0,79.0,71.0,178.0,383.019
383029.0,55.0,78.0,62.0,163.0,383.029
383039.0,55.0,77.0,61.0,154.0,383.039
383049.0,56.0,78.0,64.0,161.0,383.049
383059.0,55.0,78.0,60.0,179.0,383.059
383069.0,55.0,78.0,59.0,172.0,383.069
383079.0,55.0,81.0,51.0,170.0,383.079
383089.0,54.0,80.0,53.0,172.0,383.089
383099.0,52.0,83.0,52.0,163.0,383.099
383109.0,53.0,86.0,54.0,157.0,383.109
383119.0,51.0,87.0,49.0,148.0,383.119
383129.0,51.0,85.0,49.0,138.0,383.129
383139.0,49.0,84.0,51.0,134.0,383.139
383149.0,49.0,83.0,45.0,136.0,383.149
383159.0,49.0,85.0,41.0,138.0,383.159
383169.0,48.0,84.0,50.0,135.0,383.169
383179.0,49.0,83.0,59.0,130.0,383.179
383190.0,49.0,81.0,67.0,153.0,383.19
383200.0,48.0,80.0,61.0,150.0,383.2
383210.0,49.0,79.0,63.0,157.0,383.21
383220.0,49.0,79.0,57.0,159.0,383.22
383230.0,49.0,79.0,72.0,156.0,383.23
383240.0,50.0,79.0,64.0,154.0,383.24
383250.0,49.0,79.0,58.0,139.0,383.25
383260.0,50.0,80.0,51.0,132.0,383.26
383270.0,52.0,81.0,53.0,131.0,383.27
383280.0,53.0,79.0,55.0,140.0,383.28
383290.0,54.0,80.0,54.0,135.0,383.29
383300.0,54.0,81.0,52.0,140.0,383.3
383310.0,52.0,82.0,52.0,145.0,383.31
383320.0,52.0,84.0,50.0,149.0,383.32
383330.0,52.0,85.0,57.0,147.0,383.33
383340.0,53.0,82.0,55.0,148.0,383.34
383350.0,54.0,80.0,54.0,138.0,383.35
383360.0,52.0,82.0,49.0,143.0,383.36
383370.0,51.0,83.0,45.0,144.0,383.37
383380.0,50.0,84.0,48.0,148.0,383.38
383390.0,51.0,82.0,46.0,164.0,383.39
383400.0,50.0,81.0,44.0,156.0,383.4
383410.0,49.0,82.0,48.0,159.0,383.41
383420.0,51.0,80.0,48.0,158.0,383.42
383430.0,50.0,83.0,48.0,156.0,383.43
383440.0,51.0,81.0,46.0,163.0,383.44
383450.0,51.0,82.0,44.0,179.0,383.45
383460.0,51.0,82.0,41.0,161.0,383.46
383470.0,49.0,83.0,35.0,156.0,383.47
383480.0,49.0,84.0,36.0,156.0,383.48
383490.0,50.0,86.0,52.0,186.0,383.49
383500.0,50.0,88.0,65.0,188.0,383.5
383510.0,52.0,87.0,67.0,183.0,383.51
383520.0,50.0,88.0,62.0,176.0,383.52
383531.0,51.0,90.0,56.0,181.0,383.531
383541.0,51.0,92.0,64.0,171.0,383.541
383551.0,52.0,88.0,59.0,201.0,383.551
383561.0,52.0,86.0,69.0,190.0,383.561
383571.0,55.0,83.0,83.0,183.0,383.571
383581.0,55.0,81.0,76.0,175.0,383.581
383591.0,53.0,80.0,65.0,200.0,383.591
383601.0,54.0,80.0,63.0,213.0,383.601
383611.0,54.0,78.0,57.0,199.0,383.611
383621.0,54.0,78.0,51.0,188.0,383.621
383631.0,53.0,76.0,46.0,173.0,383.631
383641.0,53.0,78.0,45.0,173.0,383.641
383651.0,52.0,80.0,49.0,168.0,383.651
383661.0,54.0,79.0,55.0,171.0,383.661
383671.0,55.0,76.0,57.0,164.0,383.671
383681.0,56.0,76.0,51.0,155.0,383.681
383691.0,55.0,76.0,45.0,154.0,383.691
383702.0,54.0,77.0,39.0,146.0,383.702
383712.0,53.0,83.0,45.0,150.0,383.712
383722.0,54.0,80.0,42.0,147.0,383.722
383732.0,53.0,80.0,38.0,168.0,383.732
383742.0,53.0,81.0,34.0,187.0,383.742
383752.0,53.0,83.0,32.0,185.0,383.752
383762.0,52.0,84.0,37.0,176.0,383.762
383772.0,52.0,82.0,38.0,171.0,383.772
383782.0,52.0,80.0,43.0,161.0,383.782
383792.0,52.0,81.0,41.0,177.0,383.792
383802.0,52.0,79.0,48.0,200.0,383.802
383812.0,52.0,79.0,51.0,184.0,383.812
383822.0,52.0,79.0,45.0,178.0,383.822
383832.0,50.0,82.0,42.0,176.0,383.832
383842.0,53.0,80.0,72.0,173.0,383.842
383852.0,54.0,80.0,63.0,186.0,383.852
383862.0,53.0,82.0,60.0,179.0,383.862
383872.0,52.0,84.0,76.0,164.0,383.872
383882.0,52.0,83.0,76.0,172.0,383.882
383892.0,53.0,81.0,69.0,165.0,383.892
383902.0,52.0,81.0,62.0,158.0,383.902
383912.0,52.0,82.0,54.0,144.0,383.912
383922.0,50.0,83.0,52.0,135.0,383.922
383932.0,51.0,81.0,57.0,123.0,383.932
383942.0,50.0,83.0,52.0,140.0,383.942
383952.0,52.0,79.0,55.0,152.0,383.952
383962.0,51.0,81.0,53.0,156.0,383.962
383972.0,51.0,79.0,52.0,156.0,383.972
383982.0,52.0,78.0,48.0,156.0,383.982
383992.0,51.0,78.0,42.0,155.0,383.992
384002.0,51.0,79.0,41.0,150.0,384.002
384012.0,49.0,82.0,39.0,148.0,384.012
384022.0,49.0,85.0,42.0,151.0,384.022
384032.0,52.0,84.0,46.0,146.0,384.032
384043.0,52.0,84.0,45.0,142.0,384.043
384053.0,53.0,83.0,45.0,143.0,384.053
384063.0,53.0,84.0,39.0,159.0,384.063
384073.0,54.0,85.0,39.0,173.0,384.073
384083.0,53.0,86.0,40.0,166.0,384.083
384093.0,53.0,89.0,46.0,165.0,384.093
384103.0,56.0,85.0,48.0,166.0,384.103
384113.0,56.0,84.0,44.0,173.0,384.113
384123.0,56.0,82.0,42.0,166.0,384.123
384133.0,54.0,85.0,39.0,170.0,384.133
384143.0,55.0,84.0,40.0,161.0,384.143
384153.0,57.0,83.0,38.0,163.0,384.153
384163.0,58.0,85.0,37.0,155.0,384.163
384173.0,57.0,87.0,32.0,168.0,384.173
384183.0,57.0,88.0,37.0,160.0,384.183
384193.0,59.0,85.0,43.0,156.0,384.193
384203.0,59.0,84.0,41.0,157.0,384.203
384214.0,58.0,85.0,40.0,158.0,384.214
384224.0,57.0,84.0,41.0,161.0,384.224
384234.0,57.0,82.0,38.0,156.0,384.234
384244.0,55.0,81.0,38.0,152.0,384.244
384254.0,54.0,81.0,34.0,155.0,384.254
384264.0,53.0,80.0,38.0,148.0,384.264
384274.0,53.0,79.0,35.0,141.0,384.274
384284.0,54.0,78.0,35.0,135.0,384.284
384294.0,52.0,78.0,36.0,135.0,384.294
384304.0,53.0,75.0,48.0,136.0,384.304
384314.0,54.0,73.0,45.0,138.0,384.314
384324.0,52.0,75.0,42.0,129.0,384.324
384334.0,55.0,72.0,48.0,130.0,384.334
384344.0,55.0,73.0,47.0,131.0,384.344
384354.0,55.0,75.0,50.0,136.0,384.354
384364.0,57.0,75.0,46.0,137.0,384.364
384374.0,58.0,75.0,43.0,144.0,384.374
384384.0,58.0,75.0,39.0,140.0,384.384
384394.0,58.0,76.0,35.0,146.0,384.394
384404.0,56.0,78.0,40.0,149.0,384.404
384414.0,57.0,75.0,55.0,166.0,384.414
384424.0,59.0,74.0,55.0,156.0,384.424
384434.0,57.0,77.0,53.0,167.0,384.434
384444.0,58.0,74.0,49.0,160.0,384.444
384454.0,57.0,73.0,43.0,159.0,384.454
384464.0,57.0,74.0,38.0,164.0,384.464
384474.0,56.0,72.0,36.0,161.0,384.474
384484.0,55.0,73.0,31.0,159.0,384.484
384494.0,56.0,73.0,32.0,153.0,384.494
384504.0,56.0,73.0,32.0,158.0,384.504
384514.0,55.0,73.0,29.0,146.0,384.514
384524.0,54.0,73.0,29.0,143.0,384.524
384534.0,53.0,76.0,28.0,132.0,384.534
384544.0,53.0,80.0,29.0,120.0,384.544
384555.0,55.0,81.0,37.0,124.0,384.555
384565.0,58.0,78.0,47.0,131.0,384.565
384575.0,57.0,79.0,49.0,125.0,384.575
384585.0,56.0,79.0,46.0,133.0,384.585
384595.0,57.0,79.0,42.0,141.0,384.595
384605.0,58.0,80.0,39.0,140.0,384.605
384615.0,59.0,78.0,37.0,148.0,384.615
384625.0,58.0,81.0,38.0,160.0,384.625
384635.0,59.0,80.0,43.0,144.0,384.635
384645.0,60.0,81.0,63.0,138.0,384.645
384655.0,59.0,81.0,61.0,150.0,384.655
384665.0,57.0,79.0,58.0,149.0,384.665
384675.0,55.0,81.0,53.0,155.0,384.675
384685.0,56.0,77.0,49.0,161.0,384.685
384695.0,54.0,79.0,52.0,159.0,384.695
384705.0,55.0,78.0,46.0,171.0,384.705
384715.0,54.0,78.0,47.0,176.0,384.715
384726.0,52.0,80.0,46.0,162.0,384.726
384736.0,53.0,76.0,45.0,150.0,384.736
384746.0,50.0,78.0,60.0,155.0,384.746
384756.0,52.0,74.0,66.0,150.0,384.756
384766.0,51.0,74.0,61.0,143.0,384.766
384776.0,51.0,72.0,54.0,160.0,384.776
384786.0,50.0,71.0,50.0,150.0,384.786
384796.0,51.0,72.0,53.0,146.0,384.796
384806.0,50.0,71.0,55.0,147.0,384.806
384816.0,53.0,71.0,63.0,142.0,384.816
384826.0,51.0,71.0,55.0,136.0,384.826
384836.0,52.0,70.0,53.0,143.0,384.836
384846.0,53.0,68.0,47.0,143.0,384.846
384856.0,51.0,68.0,42.0,139.0,384.856
384866.0,50.0,68.0,39.0,132.0,384.866
384876.0,53.0,68.0,65.0,139.0,384.876
384886.0,54.0,69.0,57.0,142.0,384.886
384896.0,52.0,70.0,55.0,148.0,384.896
384906.0,53.0,69.0,58.0,151.0,384.906
384916.0,52.0,70.0,55.0,158.0,384.916
384926.0,52.0,69.0,49.0,159.0,384.926
384936.0,51.0,69.0,45.0,171.0,384.936
384946.0,52.0,69.0,41.0,162.0,384.946
384956.0,54.0,70.0,35.0,154.0,384.956
384966.0,53.0,71.0,36.0,153.0,384.966
384976.0,55.0,72.0,42.0,152.0,384.976
384986.0,57.0,72.0,47.0,165.0,384.986
384996.0,56.0,71.0,46.0,173.0,384.996
385006.0,56.0,70.0,53.0,172.0,385.006
385016.0,55.0,70.0,46.0,171.0,385.016
385026.0,55.0,69.0,54.0,161.0,385.026
385036.0,57.0,64.0,48.0,153.0,385.036
385046.0,56.0,63.0,41.0,157.0,385.046
385056.0,54.0,64.0,38.0,149.0,385.056
385067.0,55.0,64.0,34.0,141.0,385.067
385077.0,53.0,64.0,30.0,132.0,385.077
385087.0,54.0,64.0,30.0,133.0,385.087
385097.0,54.0,64.0,30.0,142.0,385.097
385107.0,55.0,64.0,27.0,144.0,385.107
385117.0,53.0,64.0,28.0,145.0,385.117
385127.0,53.0,62.0,30.0,141.0,385.127
385137.0,54.0,63.0,33.0,139.0,385.137
385147.0,53.0,63.0,43.0,142.0,385.147
385157.0,52.0,60.0,40.0,135.0,385.157
385167.0,53.0,63.0,37.0,132.0,385.167
385177.0,52.0,63.0,33.0,119.0,385.177
385187.0,52.0,63.0,29.0,108.0,385.187
385197.0,53.0,64.0,26.0,104.0,385.197
385207.0,54.0,63.0,23.0,110.0,385.207
385217.0,53.0,62.0,22.0,105.0,385.217
385227.0,56.0,60.0,22.0,114.0,385.227
385238.0,54.0,62.0,24.0,112.0,385.238
385248.0,57.0,58.0,24.0,113.0,385.248
385258.0,55.0,60.0,23.0,106.0,385.258
385268.0,56.0,58.0,36.0,118.0,385.268
385278.0,58.0,56.0,32.0,131.0,385.278
385288.0,58.0,54.0,30.0,137.0,385.288
385298.0,59.0,53.0,29.0,153.0,385.298
385308.0,58.0,54.0,26.0,155.0,385.308
385318.0,58.0,53.0,23.0,153.0,385.318
385328.0,57.0,54.0,25.0,149.0,385.328
385338.0,57.0,54.0,27.0,155.0,385.338
385348.0,58.0,52.0,34.0,156.0,385.348
385358.0,58.0,52.0,32.0,153.0,385.358
385368.0,58.0,53.0,30.0,152.0,385.368
385378.0,56.0,55.0,43.0,147.0,385.378
385388.0,59.0,52.0,45.0,140.0,385.388
385398.0,58.0,51.0,40.0,143.0,385.398
385408.0,57.0,49.0,35.0,146.0,385.408
385418.0,56.0,47.0,38.0,142.0,385.418
385428.0,53.0,47.0,37.0,132.0,385.428
385438.0,54.0,47.0,35.0,129.0,385.438
385448.0,52.0,49.0,32.0,138.0,385.448
385458.0,53.0,48.0,38.0,133.0,385.458
385468.0,53.0,48.0,33.0,137.0,385.468
385478.0,53.0,52.0,29.0,135.0,385.478
385488.0,53.0,56.0,27.0,135.0,385.488
385498.0,55.0,54.0,24.0,133.0,385.498
385508.0,57.0,53.0,24.0,138.0,385.508
385518.0,55.0,57.0,30.0,130.0,385.518
385528.0,56.0,57.0,29.0,137.0,385.528
385538.0,55.0,58.0,26.0,139.0,385.538
385548.0,54.0,59.0,32.0,135.0,385.548
385558.0,54.0,58.0,34.0,125.0,385.558
385568.0,52.0,62.0,50.0,169.0,385.568
385579.0,55.0,59.0,53.0,170.0,385.579
385589.0,53.0,60.0,50.0,163.0,385.589
385599.0,52.0,59.0,45.0,152.0,385.599
385609.0,52.0,59.0,43.0,143.0,385.609
385619.0,52.0,58.0,39.0,142.0,385.619
385629.0,53.0,55.0,35.0,134.0,385.629
385639.0,52.0,56.0,33.0,145.0,385.639
385649.0,53.0,54.0,35.0,154.0,385.649
385659.0,51.0,57.0,42.0,146.0,385.659
385669.0,50.0,58.0,46.0,150.0,385.669
385679.0,50.0,58.0,52.0,146.0,385.679
385689.0,55.0,58.0,49.0,138.0,385.689
385699.0,59.0,64.0,69.0,157.0,385.699
385709.0,61.0,67.0,89.0,163.0,385.709
385719.0,71.0,72.0,113.0,193.0,385.719
385729.0,79.0,87.0,196.0,310.0,385.729
385739.0,78.0,83.0,198.0,321.0,385.739
385750.0,77.0,82.0,202.0,366.0,385.75
385760.0,78.0,85.0,231.0,372.0,385.76
385770.0,83.0,91.0,311.0,417.0,385.77
385780.0,84.0,88.0,317.0,429.0,385.78
385790.0,87.0,89.0,335.0,442.0,385.79
385800.0,112.0,88.0,320.0,437.0,385.8
385810.0,115.0,88.0,343.0,425.0,385.81
385820.0,116.0,90.0,335.0,446.0,385.82
385830.0,115.0,88.0,349.0,426.0,385.83
385840.0,112.0,82.0,305.0,399.0,385.84
385850.0,109.0,81.0,278.0,391.0,385.85
385860.0,108.0,86.0,310.0,458.0,385.86
385870.0,106.0,82.0,279.0,434.0,385.87
385880.0,108.0,84.0,271.0,407.0,385.88
385890.0,106.0,87.0,240.0,370.0,385.89
385900.0,100.0,90.0,234.0,362.0,385.9
385910.0,98.0,91.0,227.0,350.0,385.91
385920.0,99.0,91.0,204.0,338.0,385.92
385930.0,98.0,89.0,186.0,310.0,385.93
385940.0,94.0,89.0,172.0,291.0,385.94
385950.0,90.0,88.0,167.0,286.0,385.95
385960.0,84.0,87.0,158.0,280.0,385.96
385970.0,81.0,86.0,163.0,261.0,385.97
385980.0,77.0,83.0,169.0,257.0,385.98
385990.0,74.0,81.0,154.0,248.0,385.99
386000.0,72.0,77.0,147.0,232.0,386.0
386010.0,70.0,74.0,144.0,236.0,386.01
386020.0,67.0,72.0,136.0,222.0,386.02
386030.0,69.0,67.0,127.0,226.0,386.03
386040.0,69.0,64.0,119.0,215.0,386.04
386050.0,68.0,63.0,126.0,219.0,386.05
386060.0,68.0,60.0,124.0,242.0,386.06
386070.0,66.0,59.0,123.0,231.0,386.07
386080.0,66.0,57.0,113.0,220.0,386.08
386091.0,73.0,56.0,107.0,212.0,386.091
386101.0,75.0,54.0,107.0,196.0,386.101
386111.0,76.0,54.0,97.0,188.0,386.111
386121.0,78.0,55.0,92.0,185.0,386.121
386131.0,76.0,55.0,94.0,185.0,386.131
386141.0,76.0,51.0,86.0,189.0,386.141
386151.0,76.0,53.0,82.0,184.0,386.151
386161.0,78.0,54.0,87.0,188.0,386.161
386171.0,78.0,52.0,78.0,175.0,386.171
386181.0,75.0,51.0,77.0,170.0,386.181
386191.0,79.0,49.0,79.0,182.0,386.191
386201.0,76.0,48.0,72.0,169.0,386.201
386211.0,77.0,47.0,68.0,164.0,386.211
386221.0,76.0,45.0,68.0,168.0,386.221
386231.0,77.0,45.0,67.0,165.0,386.231
386241.0,76.0,43.0,64.0,155.0,386.241
386251.0,77.0,45.0,61.0,148.0,386.251
386262.0,74.0,43.0,62.0,147.0,386.262
386272.0,73.0,44.0,65.0,143.0,386.272
386282.0,73.0,44.0,62.0,137.0,386.282
386292.0,71.0,43.0,60.0,139.0,386.292
386302.0,71.0,44.0,55.0,142.0,386.302
386312.0,69.0,42.0,48.0,141.0,386.312
386322.0,68.0,45.0,50.0,159.0,386.322
386332.0,67.0,45.0,51.0,149.0,386.332
386342.0,64.0,45.0,55.0,143.0,386.342
386352.0,63.0,46.0,59.0,157.0,386.352
386362.0,62.0,46.0,53.0,156.0,386.362
386372.0,58.0,45.0,57.0,149.0,386.372
386382.0,58.0,46.0,64.0,156.0,386.382
386392.0,58.0,46.0,74.0,155.0,386.392
386402.0,55.0,44.0,76.0,151.0,386.402
386412.0,55.0,44.0,74.0,155.0,386.412
386422.0,55.0,43.0,69.0,151.0,386.422
386432.0,53.0,43.0,62.0,155.0,386.432
386442.0,52.0,43.0,58.0,144.0,386.442
386452.0,52.0,44.0,62.0,145.0,386.452
386462.0,53.0,44.0,64.0,137.0,386.462
386472.0,53.0,44.0,56.0,140.0,386.472
386482.0,53.0,43.0,49.0,138.0,386.482
386492.0,52.0,41.0,48.0,128.0,386.492
386502.0,53.0,41.0,47.0,121.0,386.502
386512.0,54.0,40.0,44.0,121.0,386.512
386522.0,55.0,40.0,42.0,118.0,386.522
386532.0,56.0,41.0,38.0,123.0,386.532
386542.0,55.0,40.0,39.0,118.0,386.542
386552.0,54.0,40.0,44.0,119.0,386.552
386562.0,54.0,41.0,48.0,131.0,386.562
386572.0,55.0,42.0,54.0,133.0,386.572
386582.0,58.0,44.0,51.0,129.0,386.582
386592.0,60.0,41.0,46.0,121.0,386.592
386603.0,59.0,44.0,48.0,110.0,386.603
386613.0,62.0,44.0,43.0,104.0,386.613
386623.0,62.0,42.0,38.0,102.0,386.623
386633.0,64.0,41.0,43.0,110.0,386.633
386643.0,65.0,41.0,50.0,117.0,386.643
386653.0,67.0,42.0,45.0,112.0,386.653
386663.0,69.0,41.0,41.0,107.0,386.663
386673.0,67.0,42.0,49.0,104.0,386.673
386683.0,68.0,42.0,52.0,110.0,386.683
386693.0,66.0,42.0,52.0,110.0,386.693
386703.0,67.0,41.0,55.0,101.0,386.703
386713.0,68.0,40.0,51.0,99.0,386.713
386723.0,67.0,41.0,46.0,104.0,386.723
386733.0,70.0,44.0,57.0,98.0,386.733
386743.0,70.0,43.0,52.0,119.0,386.743
386753.0,70.0,44.0,48.0,134.0,386.753
386763.0,69.0,44.0,42.0,126.0,386.763
386774.0,71.0,44.0,43.0,120.0,386.774
386784.0,71.0,43.0,38.0,116.0,386.784
386794.0,68.0,43.0,34.0,116.0,386.794
386804.0,70.0,44.0,43.0,116.0,386.804
386814.0,68.0,44.0,39.0,115.0,386.814
386824.0,68.0,44.0,35.0,126.0,386.824
386834.0,68.0,44.0,34.0,126.0,386.834
386844.0,66.0,43.0,36.0,127.0,386.844
386854.0,65.0,43.0,36.0,127.0,386.854
386864.0,65.0,45.0,45.0,126.0,386.864
386874.0,63.0,44.0,47.0,121.0,386.874
386884.0,64.0,44.0,41.0,117.0,386.884
386894.0,64.0,43.0,41.0,110.0,386.894
386904.0,63.0,42.0,37.0,119.0,386.904
386914.0,60.0,43.0,38.0,122.0,386.914
386924.0,60.0,43.0,43.0,122.0,386.924
386934.0,61.0,43.0,45.0,121.0,386.934
386944.0,61.0,44.0,58.0,118.0,386.944
386954.0,61.0,44.0,59.0,127.0,386.954
386964.0,62.0,43.0,53.0,126.0,386.964
386974.0,63.0,42.0,45.0,133.0,386.974
386984.0,62.0,42.0,43.0,125.0,386.984
386994.0,63.0,43.0,47.0,119.0,386.994
387004.0,63.0,43.0,42.0,118.0,387.004
387014.0,63.0,43.0,47.0,119.0,387.014
387024.0,63.0,43.0,41.0,122.0,387.024
387034.0,61.0,42.0,40.0,118.0,387.034
387044.0,61.0,41.0,36.0,115.0,387.044
387054.0,60.0,42.0,38.0,118.0,387.054
387064.0,60.0,41.0,34.0,111.0,387.064
387074.0,58.0,41.0,33.0,115.0,387.074
387084.0,61.0,41.0,50.0,125.0,387.084
387094.0,60.0,42.0,49.0,137.0,387.094
387104.0,59.0,40.0,43.0,134.0,387.104
387115.0,57.0,41.0,64.0,149.0,387.115
387125.0,57.0,41.0,60.0,156.0,387.125
387135.0,57.0,40.0,54.0,145.0,387.135
387145.0,58.0,42.0,71.0,135.0,387.145
387155.0,60.0,42.0,62.0,128.0,387.155
387165.0,60.0,44.0,57.0,121.0,387.165
387175.0,62.0,42.0,51.0,120.0,387.175
387185.0,61.0,42.0,50.0,116.0,387.185
387195.0,61.0,41.0,45.0,110.0,387.195
387205.0,62.0,41.0,42.0,115.0,387.205
387215.0,60.0,42.0,54.0,112.0,387.215
387225.0,62.0,42.0,57.0,113.0,387.225
387235.0,61.0,42.0,50.0,120.0,387.235
387245.0,59.0,40.0,45.0,112.0,387.245
387255.0,60.0,42.0,42.0,120.0,387.255
387265.0,61.0,42.0,44.0,121.0,387.265
387275.0,60.0,41.0,52.0,125.0,387.275
387286.0,60.0,41.0,44.0,127.0,387.286
387296.0,61.0,39.0,39.0,121.0,387.296
387306.0,61.0,40.0,40.0,132.0,387.306
387316.0,62.0,39.0,40.0,136.0,387.316
387326.0,61.0,40.0,41.0,137.0,387.326
387336.0,62.0,39.0,45.0,136.0,387.336
387346.0,63.0,40.0,46.0,128.0,387.346
387356.0,63.0,40.0,41.0,117.0,387.356
387366.0,65.0,39.0,48.0,112.0,387.366
387376.0,64.0,40.0,46.0,113.0,387.376
387386.0,64.0,40.0,43.0,112.0,387.386
387396.0,64.0,42.0,46.0,118.0,387.396
387406.0,65.0,42.0,46.0,110.0,387.406
387416.0,65.0,41.0,48.0,105.0,387.416
387426.0,65.0,42.0,42.0,116.0,387.426
387436.0,66.0,43.0,48.0,126.0,387.436
387446.0,66.0,42.0,44.0,119.0,387.446
387456.0,63.0,41.0,47.0,120.0,387.456
387466.0,63.0,42.0,49.0,115.0,387.466
387476.0,63.0,42.0,47.0,126.0,387.476
387486.0,64.0,42.0,44.0,137.0,387.486
387496.0,64.0,43.0,43.0,135.0,387.496
387506.0,64.0,44.0,47.0,124.0,387.506
387516.0,65.0,46.0,53.0,121.0,387.516
387526.0,64.0,45.0,49.0,120.0,387.526
387536.0,66.0,46.0,46.0,133.0,387.536
387546.0,65.0,46.0,45.0,125.0,387.546
387556.0,67.0,45.0,42.0,121.0,387.556
387566.0,66.0,47.0,48.0,121.0,387.566
387576.0,65.0,46.0,51.0,116.0,387.576
387586.0,65.0,47.0,48.0,112.0,387.586
387596.0,66.0,48.0,45.0,126.0,387.596
387606.0,67.0,46.0,40.0,126.0,387.606
387616.0,68.0,46.0,38.0,139.0,387.616
387627.0,68.0,45.0,44.0,139.0,387.627
387637.0,68.0,45.0,38.0,139.0,387.637
387647.0,68.0,44.0,57.0,128.0,387.647
387657.0,70.0,45.0,55.0,122.0,387.657
387667.0,71.0,46.0,61.0,115.0,387.667
387677.0,71.0,46.0,56.0,117.0,387.677
387687.0,69.0,45.0,52.0,118.0,387.687
387697.0,70.0,45.0,46.0,113.0,387.697
387707.0,68.0,45.0,39.0,113.0,387.707
387717.0,69.0,45.0,37.0,110.0,387.717
387727.0,71.0,46.0,50.0,108.0,387.727
387737.0,70.0,45.0,55.0,108.0,387.737
387747.0,69.0,46.0,53.0,108.0,387.747
387757.0,69.0,47.0,48.0,113.0,387.757
387767.0,68.0,48.0,45.0,107.0,387.767
387777.0,69.0,50.0,41.0,108.0,387.777
387787.0,67.0,47.0,41.0,100.0,387.787
387798.0,66.0,49.0,48.0,96.0,387.798
387808.0,65.0,47.0,42.0,98.0,387.808
387818.0,65.0,45.0,37.0,98.0,387.818
387828.0,63.0,45.0,36.0,94.0,387.828
387838.0,63.0,43.0,32.0,89.0,387.838
387848.0,62.0,43.0,33.0,87.0,387.848
387858.0,60.0,42.0,34.0,92.0,387.858
387868.0,59.0,42.0,35.0,94.0,387.868
387878.0,59.0,45.0,47.0,118.0,387.878
387888.0,59.0,45.0,44.0,112.0,387.888
387898.0,58.0,44.0,44.0,107.0,387.898
387908.0,58.0,43.0,39.0,101.0,387.908
387918.0,58.0,43.0,46.0,98.0,387.918
387928.0,59.0,42.0,45.0,91.0,387.928
387938.0,61.0,41.0,40.0,104.0,387.938
387948.0,63.0,44.0,40.0,112.0,387.948
387958.0,63.0,42.0,35.0,111.0,387.958
387968.0,66.0,43.0,30.0,125.0,387.968
387978.0,67.0,42.0,33.0,133.0,387.978
387988.0,68.0,43.0,32.0,129.0,387.988
387998.0,70.0,41.0,38.0,137.0,387.998
388008.0,70.0,43.0,44.0,139.0,388.008
388018.0,70.0,43.0,42.0,130.0,388.018
388028.0,71.0,42.0,39.0,122.0,388.028
388038.0,68.0,42.0,34.0,134.0,388.038
388048.0,69.0,41.0,32.0,130.0,388.048
388058.0,65.0,40.0,29.0,120.0,388.058
388068.0,63.0,40.0,32.0,128.0,388.068
388078.0,63.0,43.0,46.0,127.0,388.078
388088.0,63.0,44.0,47.0,125.0,388.088
388098.0,64.0,43.0,49.0,131.0,388.098
388108.0,64.0,42.0,44.0,127.0,388.108
388118.0,65.0,42.0,41.0,120.0,388.118
388128.0,64.0,40.0,39.0,117.0,388.128
388139.0,64.0,40.0,40.0,108.0,388.139
388149.0,65.0,43.0,43.0,106.0,388.149
