time (ms),signal 0,signal 1,signal 2,signal3,time (sec)
355037.0,61.0,51.0,40.0,102.0,355.037
355047.0,61.0,52.0,35.0,96.0,355.047
355057.0,60.0,53.0,40.0,102.0,355.057
355067.0,59.0,50.0,48.0,105.0,355.067
355077.0,61.0,49.0,46.0,112.0,355.077
355087.0,62.0,47.0,42.0,107.0,355.087
355097.0,61.0,46.0,40.0,99.0,355.097
355107.0,62.0,46.0,43.0,102.0,355.107
355117.0,62.0,44.0,40.0,104.0,355.117
355127.0,59.0,45.0,34.0,99.0,355.127
355137.0,58.0,45.0,41.0,95.0,355.137
355147.0,56.0,44.0,47.0,96.0,355.147
355158.0,56.0,44.0,42.0,93.0,355.158
355168.0,56.0,45.0,41.0,95.0,355.168
355178.0,57.0,45.0,41.0,102.0,355.178
355188.0,57.0,45.0,37.0,100.0,355.188
355198.0,56.0,45.0,33.0,97.0,355.198
355208.0,57.0,44.0,31.0,96.0,355.208
355218.0,57.0,45.0,41.0,97.0,355.218
355228.0,57.0,44.0,43.0,101.0,355.228
355238.0,58.0,42.0,40.0,104.0,355.238
355248.0,58.0,43.0,44.0,100.0,355.248
355258.0,59.0,42.0,42.0,102.0,355.258
355268.0,59.0,42.0,38.0,102.0,355.268
355278.0,61.0,44.0,40.0,98.0,355.278
355288.0,62.0,43.0,35.0,97.0,355.288
355298.0,60.0,42.0,37.0,98.0,355.298
355308.0,60.0,41.0,37.0,101.0,355.308
355318.0,60.0,41.0,34.0,102.0,355.318
355328.0,63.0,40.0,31.0,99.0,355.328
355338.0,63.0,40.0,34.0,97.0,355.338
355348.0,63.0,41.0,33.0,101.0,355.348
355358.0,62.0,42.0,31.0,99.0,355.358
355368.0,62.0,43.0,30.0,105.0,355.368
355378.0,62.0,41.0,28.0,106.0,355.378
355388.0,61.0,42.0,27.0,103.0,355.388
355398.0,62.0,42.0,30.0,100.0,355.398
355408.0,61.0,42.0,30.0,99.0,355.408
355418.0,61.0,41.0,35.0,104.0,355.418
355428.0,61.0,42.0,36.0,109.0,355.428
355438.0,62.0,43.0,32.0,109.0,355.438
355448.0,63.0,43.0,28.0,99.0,355.448
355458.0,63.0,43.0,25.0,93.0,355.458
355468.0,63.0,42.0,25.0,90.0,355.468
355478.0,63.0,42.0,23.0,91.0,355.478
355488.0,63.0,41.0,27.0,95.0,355.488
355499.0,61.0,41.0,37.0,99.0,355.499
355509.0,60.0,42.0,39.0,103.0,355.509
355519.0,63.0,43.0,36.0,99.0,355.519
355529.0,63.0,43.0,31.0,97.0,355.529
355539.0,62.0,39.0,28.0,98.0,355.539
355549.0,62.0,40.0,26.0,103.0,355.549
355559.0,63.0,39.0,25.0,97.0,355.559
355569.0,61.0,38.0,26.0,99.0,355.569
355579.0,61.0,38.0,28.0,98.0,355.579
355589.0,59.0,39.0,33.0,99.0,355.589
355599.0,59.0,42.0,38.0,105.0,355.599
355609.0,60.0,41.0,38.0,107.0,355.609
355619.0,59.0,42.0,36.0,103.0,355.619
355629.0,60.0,41.0,33.0,99.0,355.629
355639.0,57.0,42.0,32.0,98.0,355.639
355649.0,55.0,43.0,30.0,109.0,355.649
355659.0,57.0,44.0,34.0,114.0,355.659
355670.0,56.0,43.0,35.0,116.0,355.67
355680.0,55.0,44.0,42.0,118.0,355.68
355690.0,56.0,45.0,43.0,114.0,355.69
355700.0,58.0,44.0,38.0,110.0,355.7
355710.0,56.0,43.0,34.0,112.0,355.71
355720.0,57.0,44.0,32.0,108.0,355.72
355730.0,57.0,45.0,39.0,103.0,355.73
355740.0,55.0,45.0,37.0,104.0,355.74
355750.0,55.0,44.0,42.0,107.0,355.75
355760.0,57.0,45.0,41.0,101.0,355.76
355770.0,57.0,43.0,41.0,93.0,355.77
355780.0,57.0,43.0,34.0,101.0,355.78
355790.0,56.0,43.0,44.0,101.0,355.79
355800.0,56.0,42.0,40.0,97.0,355.8
355810.0,55.0,43.0,39.0,94.0,355.81
355820.0,55.0,42.0,50.0,92.0,355.82
355830.0,56.0,43.0,50.0,88.0,355.83
355840.0,57.0,42.0,45.0,87.0,355.84
355850.0,57.0,43.0,45.0,99.0,355.85
355860.0,56.0,43.0,39.0,96.0,355.86
355870.0,57.0,41.0,36.0,99.0,355.87
355880.0,58.0,42.0,37.0,97.0,355.88
355890.0,59.0,42.0,50.0,100.0,355.89
355900.0,58.0,42.0,50.0,107.0,355.9
355910.0,60.0,40.0,45.0,97.0,355.91
355920.0,60.0,41.0,44.0,95.0,355.92
355930.0,60.0,40.0,39.0,95.0,355.93
355940.0,60.0,41.0,39.0,88.0,355.94
355950.0,61.0,44.0,53.0,87.0,355.95
355960.0,60.0,42.0,54.0,87.0,355.96
355970.0,60.0,42.0,49.0,93.0,355.97
355980.0,60.0,42.0,58.0,98.0,355.98
355990.0,61.0,41.0,55.0,91.0,355.99
356000.0,60.0,40.0,48.0,96.0,356.0
356011.0,59.0,40.0,45.0,101.0,356.011
356021.0,58.0,39.0,39.0,101.0,356.021
356031.0,58.0,39.0,47.0,98.0,356.031
356041.0,58.0,42.0,57.0,97.0,356.041
356051.0,57.0,42.0,56.0,97.0,356.051
356061.0,57.0,41.0,48.0,101.0,356.061
356071.0,56.0,41.0,45.0,102.0,356.071
356081.0,55.0,39.0,41.0,101.0,356.081
356091.0,54.0,39.0,39.0,104.0,356.091
356101.0,55.0,41.0,40.0,100.0,356.101
356111.0,57.0,42.0,35.0,91.0,356.111
356121.0,56.0,41.0,34.0,100.0,356.121
356131.0,55.0,41.0,34.0,109.0,356.131
356141.0,54.0,41.0,35.0,104.0,356.141
356151.0,55.0,41.0,38.0,99.0,356.151
356161.0,53.0,43.0,34.0,98.0,356.161
356171.0,53.0,41.0,30.0,92.0,356.171
356182.0,52.0,39.0,25.0,84.0,356.182
356192.0,51.0,39.0,28.0,78.0,356.192
356202.0,52.0,41.0,37.0,73.0,356.202
356212.0,50.0,41.0,44.0,76.0,356.212
356222.0,53.0,43.0,47.0,73.0,356.222
356232.0,53.0,44.0,44.0,87.0,356.232
356242.0,53.0,44.0,41.0,88.0,356.242
356252.0,53.0,44.0,45.0,85.0,356.252
356262.0,52.0,46.0,53.0,94.0,356.262
356272.0,51.0,47.0,48.0,98.0,356.272
356282.0,49.0,48.0,42.0,98.0,356.282
356292.0,48.0,47.0,38.0,97.0,356.292
356302.0,48.0,48.0,34.0,95.0,356.302
356312.0,48.0,45.0,36.0,92.0,356.312
356322.0,47.0,45.0,32.0,98.0,356.322
356332.0,47.0,46.0,33.0,105.0,356.332
356342.0,48.0,46.0,37.0,108.0,356.342
356352.0,48.0,47.0,33.0,105.0,356.352
356362.0,47.0,46.0,29.0,99.0,356.362
356372.0,47.0,47.0,27.0,113.0,356.372
356382.0,47.0,45.0,41.0,106.0,356.382
356392.0,47.0,44.0,37.0,102.0,356.392
356402.0,47.0,43.0,38.0,101.0,356.402
356412.0,46.0,42.0,33.0,98.0,356.412
356422.0,46.0,44.0,42.0,107.0,356.422
356432.0,47.0,43.0,38.0,115.0,356.432
356442.0,46.0,42.0,33.0,122.0,356.442
356452.0,46.0,40.0,30.0,114.0,356.452
356462.0,47.0,42.0,30.0,117.0,356.462
356472.0,47.0,42.0,28.0,114.0,356.472
356482.0,49.0,43.0,43.0,125.0,356.482
356492.0,49.0,44.0,55.0,120.0,356.492
356502.0,50.0,43.0,51.0,113.0,356.502
356512.0,51.0,42.0,44.0,114.0,356.512
356523.0,51.0,42.0,44.0,120.0,356.523
356533.0,51.0,42.0,42.0,127.0,356.533
356543.0,50.0,42.0,38.0,144.0,356.543
356553.0,51.0,41.0,38.0,143.0,356.553
356563.0,52.0,40.0,34.0,130.0,356.563
356573.0,52.0,42.0,44.0,126.0,356.573
356583.0,50.0,42.0,42.0,134.0,356.583
356593.0,51.0,41.0,47.0,134.0,356.593
356603.0,52.0,42.0,45.0,129.0,356.603
356613.0,52.0,41.0,40.0,134.0,356.613
356623.0,52.0,40.0,40.0,137.0,356.623
356633.0,51.0,39.0,35.0,134.0,356.633
356643.0,51.0,39.0,31.0,137.0,356.643
356653.0,53.0,43.0,39.0,131.0,356.653
356663.0,53.0,41.0,39.0,122.0,356.663
356673.0,54.0,42.0,45.0,111.0,356.673
356683.0,55.0,42.0,40.0,112.0,356.683
356694.0,55.0,41.0,39.0,107.0,356.694
356704.0,53.0,40.0,39.0,108.0,356.704
356714.0,54.0,40.0,36.0,120.0,356.714
356724.0,53.0,40.0,42.0,116.0,356.724
356734.0,55.0,40.0,42.0,114.0,356.734
356744.0,55.0,39.0,39.0,112.0,356.744
356754.0,55.0,39.0,37.0,114.0,356.754
356764.0,56.0,37.0,36.0,118.0,356.764
356774.0,55.0,38.0,39.0,110.0,356.774
356784.0,55.0,37.0,35.0,107.0,356.784
356794.0,55.0,37.0,32.0,104.0,356.794
356804.0,55.0,37.0,35.0,102.0,356.804
356814.0,56.0,40.0,36.0,105.0,356.814
356824.0,58.0,39.0,39.0,107.0,356.824
356834.0,58.0,38.0,40.0,133.0,356.834
356844.0,57.0,39.0,39.0,127.0,356.844
356854.0,57.0,41.0,37.0,125.0,356.854
356864.0,58.0,41.0,33.0,132.0,356.864
356874.0,59.0,42.0,30.0,132.0,356.874
356884.0,60.0,43.0,54.0,130.0,356.884
356894.0,61.0,44.0,49.0,138.0,356.894
356904.0,63.0,43.0,44.0,136.0,356.904
356914.0,62.0,42.0,38.0,128.0,356.914
356924.0,62.0,42.0,43.0,119.0,356.924
356934.0,62.0,41.0,38.0,120.0,356.934
356944.0,60.0,42.0,34.0,113.0,356.944
356954.0,61.0,46.0,30.0,121.0,356.954
356964.0,61.0,49.0,28.0,136.0,356.964
356974.0,60.0,48.0,25.0,139.0,356.974
356984.0,57.0,49.0,21.0,136.0,356.984
356994.0,61.0,53.0,22.0,131.0,356.994
357004.0,61.0,54.0,19.0,141.0,357.004
357014.0,62.0,53.0,21.0,146.0,357.014
357024.0,63.0,63.0,25.0,168.0,357.024
357035.0,63.0,61.0,29.0,178.0,357.035
357045.0,65.0,59.0,38.0,170.0,357.045
357055.0,64.0,61.0,39.0,164.0,357.055
357065.0,65.0,65.0,40.0,152.0,357.065
357075.0,66.0,63.0,36.0,182.0,357.075
357085.0,67.0,60.0,35.0,209.0,357.085
357095.0,69.0,58.0,31.0,208.0,357.095
357105.0,72.0,56.0,27.0,190.0,357.105
357115.0,74.0,57.0,27.0,183.0,357.115
357125.0,75.0,60.0,42.0,180.0,357.125
357135.0,79.0,61.0,50.0,205.0,357.135
357145.0,80.0,58.0,54.0,221.0,357.145
357155.0,82.0,59.0,61.0,216.0,357.155
357165.0,80.0,58.0,71.0,205.0,357.165
357175.0,81.0,59.0,68.0,196.0,357.175
357185.0,81.0,56.0,61.0,191.0,357.185
357195.0,80.0,55.0,57.0,207.0,357.195
357206.0,76.0,53.0,51.0,195.0,357.206
357216.0,74.0,53.0,56.0,196.0,357.216
357226.0,75.0,53.0,63.0,189.0,357.226
357236.0,76.0,53.0,76.0,206.0,357.236
357246.0,77.0,54.0,83.0,212.0,357.246
357256.0,77.0,52.0,75.0,222.0,357.256
357266.0,73.0,54.0,70.0,254.0,357.266
357276.0,71.0,54.0,72.0,255.0,357.276
357286.0,70.0,57.0,73.0,249.0,357.286
357296.0,67.0,58.0,78.0,233.0,357.296
357306.0,68.0,56.0,74.0,215.0,357.306
357316.0,65.0,55.0,69.0,208.0,357.316
357326.0,65.0,56.0,63.0,208.0,357.326
357336.0,62.0,55.0,66.0,218.0,357.336
357346.0,60.0,56.0,60.0,226.0,357.346
357356.0,59.0,57.0,70.0,239.0,357.356
357366.0,59.0,58.0,69.0,270.0,357.366
357376.0,58.0,56.0,69.0,247.0,357.376
357386.0,56.0,56.0,67.0,281.0,357.386
357396.0,57.0,56.0,75.0,277.0,357.396
357406.0,54.0,55.0,74.0,305.0,357.406
357416.0,54.0,53.0,79.0,365.0,357.416
357426.0,52.0,54.0,75.0,340.0,357.426
357436.0,54.0,57.0,97.0,310.0,357.436
357446.0,52.0,55.0,95.0,306.0,357.446
357456.0,56.0,57.0,94.0,313.0,357.456
357466.0,56.0,58.0,86.0,310.0,357.466
357476.0,54.0,55.0,87.0,308.0,357.476
357486.0,55.0,55.0,80.0,311.0,357.486
357496.0,55.0,55.0,77.0,313.0,357.496
357506.0,55.0,57.0,71.0,304.0,357.506
357516.0,54.0,59.0,76.0,324.0,357.516
357526.0,53.0,58.0,77.0,326.0,357.526
357536.0,53.0,56.0,72.0,313.0,357.536
357547.0,53.0,62.0,87.0,313.0,357.547
357557.0,52.0,59.0,90.0,311.0,357.557
357567.0,52.0,59.0,91.0,289.0,357.567
357577.0,51.0,59.0,87.0,282.0,357.577
357587.0,54.0,54.0,79.0,262.0,357.587
357597.0,52.0,56.0,69.0,252.0,357.597
357607.0,51.0,56.0,69.0,241.0,357.607
357617.0,50.0,57.0,64.0,250.0,357.617
357627.0,52.0,56.0,59.0,259.0,357.627
357637.0,52.0,55.0,64.0,253.0,357.637
357647.0,51.0,55.0,62.0,257.0,357.647
357657.0,53.0,53.0,56.0,248.0,357.657
357667.0,52.0,54.0,53.0,243.0,357.667
357677.0,52.0,54.0,53.0,241.0,357.677
357687.0,52.0,54.0,52.0,231.0,357.687
357697.0,51.0,53.0,52.0,241.0,357.697
357707.0,54.0,54.0,65.0,267.0,357.707
357718.0,51.0,53.0,61.0,274.0,357.718
357728.0,51.0,50.0,55.0,288.0,357.728
357738.0,51.0,52.0,54.0,294.0,357.738
357748.0,53.0,52.0,55.0,278.0,357.748
357758.0,54.0,52.0,58.0,312.0,357.758
357768.0,52.0,51.0,66.0,302.0,357.768
357778.0,51.0,50.0,70.0,323.0,357.778
357788.0,51.0,52.0,74.0,331.0,357.788
357798.0,52.0,49.0,77.0,320.0,357.798
357808.0,49.0,49.0,76.0,287.0,357.808
357818.0,50.0,48.0,77.0,256.0,357.818
357828.0,50.0,48.0,75.0,253.0,357.828
357838.0,52.0,48.0,74.0,278.0,357.838
357848.0,50.0,47.0,74.0,258.0,357.848
357858.0,50.0,50.0,88.0,247.0,357.858
357868.0,50.0,48.0,103.0,242.0,357.868
357878.0,50.0,48.0,97.0,228.0,357.878
357888.0,61.0,59.0,162.0,276.0,357.888
357898.0,68.0,61.0,184.0,276.0,357.898
357908.0,66.0,69.0,245.0,309.0,357.908
357918.0,71.0,69.0,244.0,329.0,357.918
357928.0,85.0,68.0,253.0,336.0,357.928
357938.0,91.0,74.0,256.0,348.0,357.938
357948.0,96.0,79.0,293.0,348.0,357.948
357958.0,107.0,87.0,320.0,383.0,357.958
357968.0,107.0,87.0,289.0,381.0,357.968
357978.0,100.0,86.0,293.0,392.0,357.978
357988.0,101.0,93.0,337.0,459.0,357.988
357998.0,102.0,91.0,340.0,466.0,357.998
358008.0,141.0,96.0,342.0,461.0,358.008
358018.0,158.0,102.0,348.0,486.0,358.018
358028.0,158.0,97.0,339.0,460.0,358.028
358038.0,202.0,95.0,333.0,418.0,358.038
358048.0,239.0,100.0,319.0,412.0,358.048
358059.0,234.0,99.0,283.0,466.0,358.059
358069.0,227.0,93.0,253.0,431.0,358.069
358079.0,205.0,84.0,228.0,393.0,358.079
358089.0,186.0,83.0,203.0,359.0,358.089
358099.0,170.0,81.0,197.0,391.0,358.099
358109.0,157.0,76.0,186.0,372.0,358.109
358119.0,144.0,72.0,167.0,366.0,358.119
358129.0,132.0,69.0,163.0,368.0,358.129
358139.0,126.0,71.0,178.0,376.0,358.139
358149.0,119.0,70.0,187.0,352.0,358.149
358159.0,112.0,71.0,178.0,331.0,358.159
358169.0,105.0,69.0,162.0,310.0,358.169
358179.0,97.0,65.0,146.0,287.0,358.179
358189.0,105.0,64.0,135.0,270.0,358.189
358199.0,104.0,63.0,129.0,260.0,358.199
358209.0,104.0,66.0,124.0,267.0,358.209
358219.0,102.0,66.0,121.0,262.0,358.219
358230.0,105.0,66.0,112.0,257.0,358.23
358240.0,108.0,66.0,129.0,256.0,358.24
358250.0,105.0,63.0,143.0,254.0,358.25
358260.0,102.0,62.0,129.0,256.0,358.26
358270.0,96.0,62.0,136.0,243.0,358.27
358280.0,91.0,61.0,126.0,236.0,358.28
358290.0,85.0,58.0,119.0,223.0,358.29
358300.0,80.0,56.0,114.0,220.0,358.3
358310.0,78.0,58.0,114.0,221.0,358.31
358320.0,76.0,57.0,103.0,214.0,358.32
358330.0,71.0,56.0,96.0,214.0,358.33
358340.0,70.0,57.0,86.0,206.0,358.34
358350.0,66.0,55.0,80.0,197.0,358.35
358360.0,65.0,55.0,90.0,191.0,358.36
358370.0,66.0,57.0,87.0,191.0,358.37
358380.0,64.0,58.0,78.0,200.0,358.38
358390.0,63.0,58.0,81.0,191.0,358.39
358400.0,60.0,58.0,84.0,186.0,358.4
358410.0,59.0,57.0,85.0,181.0,358.41
358420.0,57.0,56.0,83.0,177.0,358.42
358430.0,56.0,54.0,83.0,170.0,358.43
358440.0,57.0,54.0,79.0,174.0,358.44
358450.0,55.0,52.0,77.0,167.0,358.45
358460.0,57.0,50.0,70.0,155.0,358.46
358470.0,55.0,49.0,63.0,155.0,358.47
358480.0,56.0,48.0,61.0,149.0,358.48
358490.0,56.0,49.0,59.0,141.0,358.49
358500.0,56.0,47.0,56.0,139.0,358.5
358510.0,57.0,46.0,54.0,130.0,358.51
358520.0,56.0,46.0,55.0,126.0,358.52
358530.0,55.0,46.0,52.0,122.0,358.53
358540.0,54.0,50.0,53.0,114.0,358.54
358550.0,56.0,48.0,49.0,110.0,358.55
358560.0,54.0,47.0,42.0,129.0,358.56
358571.0,52.0,45.0,38.0,125.0,358.571
358581.0,52.0,46.0,41.0,130.0,358.581
358591.0,51.0,45.0,37.0,130.0,358.591
358601.0,51.0,49.0,47.0,127.0,358.601
358611.0,51.0,48.0,47.0,120.0,358.611
358621.0,52.0,49.0,45.0,113.0,358.621
358631.0,51.0,52.0,46.0,111.0,358.631
358641.0,52.0,50.0,45.0,109.0,358.641
358651.0,53.0,51.0,39.0,105.0,358.651
358661.0,53.0,49.0,40.0,116.0,358.661
358671.0,53.0,47.0,46.0,112.0,358.671
358681.0,54.0,48.0,52.0,109.0,358.681
358691.0,58.0,45.0,60.0,112.0,358.691
358701.0,58.0,48.0,58.0,112.0,358.701
358711.0,58.0,48.0,58.0,134.0,358.711
358721.0,58.0,47.0,52.0,122.0,358.721
358731.0,57.0,45.0,47.0,122.0,358.731
358742.0,57.0,46.0,57.0,116.0,358.742
358752.0,57.0,45.0,50.0,112.0,358.752
358762.0,57.0,45.0,49.0,105.0,358.762
358772.0,58.0,46.0,46.0,117.0,358.772
358782.0,60.0,45.0,45.0,117.0,358.782
358792.0,61.0,47.0,62.0,118.0,358.792
358802.0,64.0,50.0,67.0,129.0,358.802
358812.0,64.0,48.0,60.0,122.0,358.812
358822.0,66.0,47.0,52.0,127.0,358.822
358832.0,68.0,45.0,48.0,129.0,358.832
358842.0,68.0,43.0,44.0,136.0,358.842
358852.0,70.0,44.0,51.0,127.0,358.852
358862.0,69.0,45.0,54.0,124.0,358.862
358872.0,71.0,45.0,65.0,121.0,358.872
358882.0,72.0,45.0,62.0,122.0,358.882
358892.0,71.0,47.0,62.0,132.0,358.892
358902.0,72.0,45.0,65.0,131.0,358.902
358912.0,73.0,46.0,59.0,124.0,358.912
358922.0,75.0,45.0,55.0,124.0,358.922
358932.0,74.0,44.0,51.0,126.0,358.932
358942.0,75.0,45.0,53.0,126.0,358.942
358952.0,75.0,43.0,49.0,121.0,358.952
358962.0,74.0,44.0,48.0,131.0,358.962
358972.0,75.0,43.0,65.0,125.0,358.972
358982.0,75.0,45.0,57.0,120.0,358.982
358992.0,75.0,44.0,52.0,111.0,358.992
359002.0,72.0,47.0,64.0,115.0,359.002
359012.0,71.0,45.0,69.0,112.0,359.012
359022.0,71.0,46.0,61.0,108.0,359.022
359032.0,68.0,45.0,54.0,107.0,359.032
359042.0,68.0,44.0,54.0,101.0,359.042
359052.0,67.0,45.0,48.0,111.0,359.052
359062.0,67.0,44.0,46.0,105.0,359.062
359072.0,78.0,45.0,48.0,103.0,359.072
359083.0,81.0,45.0,64.0,119.0,359.083
359093.0,83.0,46.0,56.0,120.0,359.093
359103.0,80.0,45.0,67.0,119.0,359.103
359113.0,82.0,49.0,71.0,120.0,359.113
359123.0,79.0,49.0,62.0,125.0,359.123
359133.0,75.0,48.0,55.0,121.0,359.133
359143.0,72.0,49.0,48.0,118.0,359.143
359153.0,71.0,50.0,49.0,120.0,359.153
359163.0,68.0,48.0,45.0,118.0,359.163
359173.0,65.0,51.0,47.0,114.0,359.173
359183.0,66.0,54.0,63.0,117.0,359.183
359193.0,63.0,57.0,58.0,118.0,359.193
359203.0,62.0,54.0,56.0,121.0,359.203
359213.0,61.0,54.0,51.0,125.0,359.213
359223.0,59.0,53.0,46.0,119.0,359.223
359233.0,61.0,52.0,44.0,114.0,359.233
359243.0,58.0,51.0,44.0,117.0,359.243
359254.0,61.0,52.0,50.0,121.0,359.254
359264.0,61.0,52.0,44.0,124.0,359.264
359274.0,60.0,51.0,39.0,124.0,359.274
359284.0,59.0,49.0,38.0,123.0,359.284
359294.0,57.0,49.0,40.0,115.0,359.294
359304.0,56.0,47.0,43.0,117.0,359.304
359314.0,57.0,49.0,65.0,114.0,359.314
359324.0,57.0,52.0,61.0,117.0,359.324
359334.0,56.0,51.0,54.0,124.0,359.334
359344.0,56.0,51.0,48.0,113.0,359.344
359354.0,55.0,50.0,41.0,105.0,359.354
359364.0,54.0,48.0,41.0,98.0,359.364
359374.0,55.0,47.0,38.0,107.0,359.374
359384.0,55.0,46.0,44.0,108.0,359.384
359394.0,58.0,48.0,56.0,120.0,359.394
359404.0,60.0,49.0,49.0,128.0,359.404
359414.0,59.0,47.0,44.0,117.0,359.414
359424.0,61.0,46.0,45.0,116.0,359.424
359434.0,63.0,46.0,41.0,109.0,359.434
359444.0,63.0,44.0,38.0,113.0,359.444
359454.0,64.0,47.0,52.0,119.0,359.454
359464.0,65.0,47.0,51.0,125.0,359.464
359474.0,66.0,47.0,50.0,121.0,359.474
359484.0,67.0,46.0,51.0,110.0,359.484
359494.0,67.0,45.0,49.0,106.0,359.494
359504.0,65.0,43.0,47.0,109.0,359.504
359514.0,69.0,42.0,47.0,103.0,359.514
359524.0,70.0,41.0,45.0,106.0,359.524
359534.0,71.0,39.0,40.0,114.0,359.534
359544.0,70.0,42.0,45.0,129.0,359.544
359554.0,70.0,43.0,49.0,124.0,359.554
359564.0,71.0,42.0,46.0,118.0,359.564
359574.0,72.0,43.0,41.0,110.0,359.574
359584.0,72.0,41.0,42.0,107.0,359.584
359595.0,70.0,41.0,41.0,102.0,359.595
359605.0,70.0,40.0,37.0,96.0,359.605
359615.0,69.0,43.0,41.0,97.0,359.615
359625.0,69.0,44.0,37.0,110.0,359.625
359635.0,70.0,46.0,46.0,126.0,359.635
359645.0,69.0,44.0,43.0,120.0,359.645
359655.0,70.0,43.0,46.0,121.0,359.655
359665.0,69.0,42.0,41.0,118.0,359.665
359675.0,68.0,41.0,36.0,115.0,359.675
359685.0,69.0,41.0,32.0,109.0,359.685
359695.0,67.0,41.0,30.0,105.0,359.695
359705.0,67.0,41.0,27.0,97.0,359.705
359715.0,65.0,41.0,25.0,95.0,359.715
359725.0,65.0,40.0,27.0,90.0,359.725
359735.0,64.0,41.0,32.0,84.0,359.735
359745.0,63.0,41.0,32.0,97.0,359.745
359755.0,65.0,40.0,35.0,101.0,359.755
359766.0,66.0,40.0,34.0,107.0,359.766
359776.0,66.0,39.0,37.0,112.0,359.776
359786.0,67.0,39.0,35.0,116.0,359.786
359796.0,70.0,39.0,34.0,111.0,359.796
359806.0,71.0,41.0,37.0,107.0,359.806
359816.0,70.0,40.0,40.0,110.0,359.816
359826.0,73.0,43.0,40.0,112.0,359.826
359836.0,72.0,42.0,36.0,112.0,359.836
359846.0,74.0,42.0,37.0,109.0,359.846
359856.0,73.0,43.0,33.0,102.0,359.856
359866.0,72.0,42.0,34.0,100.0,359.866
359876.0,71.0,44.0,40.0,99.0,359.876
359886.0,72.0,44.0,39.0,111.0,359.886
359896.0,72.0,44.0,45.0,111.0,359.896
359906.0,74.0,45.0,43.0,128.0,359.906
359916.0,71.0,44.0,39.0,120.0,359.916
359926.0,72.0,45.0,40.0,112.0,359.926
359936.0,70.0,44.0,37.0,106.0,359.936
359946.0,70.0,44.0,32.0,112.0,359.946
359956.0,69.0,44.0,37.0,108.0,359.956
359966.0,69.0,46.0,38.0,104.0,359.966
359976.0,70.0,48.0,36.0,107.0,359.976
359986.0,69.0,49.0,34.0,107.0,359.986
359996.0,68.0,50.0,37.0,103.0,359.996
360006.0,68.0,49.0,34.0,102.0,360.006
360016.0,68.0,51.0,37.0,106.0,360.016
360026.0,68.0,51.0,35.0,101.0,360.026
360036.0,70.0,51.0,33.0,101.0,360.036
360046.0,69.0,51.0,29.0,98.0,360.046
360056.0,68.0,50.0,29.0,100.0,360.056
360066.0,68.0,48.0,29.0,100.0,360.066
360076.0,69.0,47.0,31.0,103.0,360.076
360086.0,70.0,46.0,30.0,98.0,360.086
360096.0,70.0,45.0,28.0,98.0,360.096
360107.0,73.0,44.0,25.0,108.0,360.107
360117.0,72.0,45.0,37.0,111.0,360.117
360127.0,73.0,47.0,37.0,107.0,360.127
360137.0,73.0,46.0,35.0,128.0,360.137
360147.0,74.0,45.0,32.0,128.0,360.147
360157.0,72.0,46.0,28.0,122.0,360.157
360167.0,71.0,46.0,25.0,121.0,360.167
360177.0,70.0,45.0,23.0,118.0,360.177
360187.0,69.0,44.0,22.0,124.0,360.187
360197.0,68.0,44.0,20.0,120.0,360.197
360207.0,67.0,44.0,18.0,115.0,360.207
360217.0,66.0,44.0,18.0,124.0,360.217
360227.0,64.0,46.0,22.0,114.0,360.227
360237.0,65.0,46.0,25.0,133.0,360.237
360247.0,64.0,48.0,32.0,123.0,360.247
360257.0,64.0,48.0,33.0,125.0,360.257
360267.0,64.0,47.0,30.0,121.0,360.267
360278.0,65.0,48.0,28.0,111.0,360.278
360288.0,63.0,46.0,25.0,102.0,360.288
360298.0,64.0,45.0,23.0,115.0,360.298
360308.0,64.0,43.0,22.0,112.0,360.308
360318.0,64.0,43.0,19.0,110.0,360.318
360328.0,64.0,43.0,26.0,110.0,360.328
360338.0,63.0,43.0,34.0,108.0,360.338
360348.0,63.0,42.0,33.0,109.0,360.348
360358.0,64.0,42.0,34.0,117.0,360.358
360368.0,63.0,42.0,29.0,120.0,360.368
360378.0,62.0,41.0,38.0,114.0,360.378
360388.0,63.0,39.0,36.0,105.0,360.388
360398.0,63.0,40.0,33.0,99.0,360.398
360408.0,64.0,39.0,30.0,104.0,360.408
360418.0,63.0,42.0,37.0,100.0,360.418
360428.0,64.0,42.0,45.0,128.0,360.428
360438.0,63.0,42.0,37.0,130.0,360.438
360448.0,63.0,43.0,39.0,125.0,360.448
360458.0,64.0,43.0,44.0,120.0,360.458
360468.0,64.0,42.0,39.0,114.0,360.468
360478.0,65.0,42.0,37.0,120.0,360.478
360488.0,65.0,45.0,47.0,127.0,360.488
360498.0,65.0,42.0,50.0,128.0,360.498
360508.0,66.0,42.0,44.0,128.0,360.508
360518.0,65.0,41.0,41.0,119.0,360.518
360528.0,65.0,40.0,37.0,116.0,360.528
360538.0,63.0,41.0,35.0,111.0,360.538
360548.0,63.0,40.0,32.0,115.0,360.548
360558.0,61.0,42.0,40.0,109.0,360.558
360568.0,62.0,41.0,41.0,109.0,360.568
360578.0,61.0,43.0,41.0,106.0,360.578
360588.0,60.0,42.0,42.0,107.0,360.588
360598.0,61.0,41.0,40.0,109.0,360.598
360608.0,62.0,41.0,34.0,105.0,360.608
360619.0,60.0,40.0,31.0,96.0,360.619
360629.0,60.0,41.0,28.0,95.0,360.629
360639.0,60.0,41.0,26.0,92.0,360.639
360649.0,60.0,41.0,24.0,94.0,360.649
360659.0,61.0,41.0,30.0,99.0,360.659
360669.0,61.0,40.0,28.0,100.0,360.669
360679.0,62.0,41.0,33.0,94.0,360.679
360689.0,63.0,40.0,31.0,90.0,360.689
360699.0,63.0,40.0,29.0,90.0,360.699
360709.0,61.0,40.0,37.0,87.0,360.709
360719.0,63.0,40.0,32.0,86.0,360.719
360729.0,60.0,40.0,28.0,89.0,360.729
360739.0,59.0,38.0,27.0,85.0,360.739
360749.0,59.0,39.0,27.0,84.0,360.749
360759.0,59.0,38.0,25.0,86.0,360.759
360769.0,57.0,37.0,27.0,85.0,360.769
360779.0,57.0,36.0,27.0,81.0,360.779
360790.0,57.0,38.0,30.0,83.0,360.79
360800.0,57.0,38.0,26.0,80.0,360.8
360810.0,57.0,37.0,24.0,86.0,360.81
360820.0,58.0,39.0,22.0,85.0,360.82
360830.0,59.0,38.0,21.0,82.0,360.83
360840.0,58.0,38.0,21.0,95.0,360.84
360850.0,59.0,37.0,22.0,100.0,360.85
360860.0,58.0,37.0,22.0,94.0,360.86
360870.0,58.0,38.0,27.0,89.0,360.87
360880.0,57.0,37.0,24.0,93.0,360.88
360890.0,57.0,39.0,22.0,100.0,360.89
360900.0,59.0,37.0,32.0,98.0,360.9
360910.0,60.0,38.0,29.0,97.0,360.91
360920.0,61.0,38.0,34.0,98.0,360.92
360930.0,63.0,39.0,34.0,97.0,360.93
360940.0,64.0,38.0,30.0,92.0,360.94
360950.0,64.0,39.0,34.0,93.0,360.95
360960.0,64.0,40.0,30.0,95.0,360.96
360970.0,65.0,38.0,28.0,114.0,360.97
360980.0,65.0,41.0,27.0,116.0,360.98
360990.0,67.0,41.0,41.0,121.0,360.99
361000.0,66.0,41.0,35.0,123.0,361.0
361010.0,65.0,40.0,34.0,120.0,361.01
361020.0,66.0,41.0,33.0,119.0,361.02
361030.0,64.0,41.0,32.0,124.0,361.03
361040.0,65.0,40.0,31.0,122.0,361.04
361050.0,65.0,39.0,27.0,116.0,361.05
361060.0,64.0,40.0,38.0,118.0,361.06
361070.0,66.0,41.0,33.0,120.0,361.07
361080.0,65.0,40.0,32.0,122.0,361.08
361090.0,66.0,39.0,30.0,128.0,361.09
361100.0,64.0,39.0,29.0,120.0,361.1
361110.0,65.0,39.0,26.0,113.0,361.11
361120.0,64.0,38.0,24.0,119.0,361.12
361131.0,62.0,38.0,22.0,112.0,361.131
361141.0,63.0,37.0,20.0,114.0,361.141
361151.0,62.0,37.0,27.0,106.0,361.151
361161.0,65.0,39.0,28.0,109.0,361.161
361171.0,65.0,38.0,23.0,113.0,361.171
361181.0,66.0,37.0,25.0,115.0,361.181
361191.0,66.0,37.0,24.0,111.0,361.191
361201.0,65.0,35.0,20.0,114.0,361.201
361211.0,65.0,35.0,17.0,146.0,361.211
361221.0,62.0,35.0,20.0,134.0,361.221
361231.0,63.0,35.0,23.0,130.0,361.231
361241.0,62.0,38.0,25.0,127.0,361.241
361251.0,63.0,38.0,41.0,124.0,361.251
361261.0,63.0,40.0,38.0,137.0,361.261
361271.0,63.0,39.0,33.0,129.0,361.271
361281.0,61.0,38.0,30.0,128.0,361.281
361291.0,60.0,38.0,26.0,131.0,361.291
361302.0,62.0,38.0,27.0,120.0,361.302
361312.0,61.0,39.0,23.0,130.0,361.312
361322.0,62.0,40.0,23.0,129.0,361.322
361332.0,61.0,41.0,22.0,138.0,361.332
361342.0,63.0,42.0,22.0,132.0,361.342
361352.0,62.0,41.0,21.0,123.0,361.352
361362.0,62.0,43.0,28.0,124.0,361.362
361372.0,64.0,42.0,26.0,119.0,361.372
361382.0,62.0,40.0,29.0,111.0,361.382
361392.0,62.0,40.0,27.0,106.0,361.392
361402.0,61.0,42.0,28.0,105.0,361.402
361412.0,63.0,43.0,26.0,111.0,361.412
361422.0,62.0,44.0,23.0,116.0,361.422
361432.0,61.0,45.0,29.0,116.0,361.432
361442.0,61.0,45.0,30.0,116.0,361.442
361452.0,61.0,46.0,29.0,114.0,361.452
361462.0,61.0,47.0,34.0,136.0,361.462
361472.0,62.0,50.0,34.0,129.0,361.472
361482.0,60.0,51.0,31.0,119.0,361.482
361492.0,61.0,51.0,28.0,112.0,361.492
361502.0,59.0,52.0,28.0,105.0,361.502
361512.0,59.0,51.0,36.0,109.0,361.512
361522.0,58.0,53.0,40.0,113.0,361.522
361532.0,58.0,52.0,39.0,116.0,361.532
361542.0,58.0,50.0,35.0,109.0,361.542
361552.0,58.0,48.0,36.0,100.0,361.552
361562.0,59.0,47.0,36.0,94.0,361.562
361572.0,60.0,46.0,32.0,94.0,361.572
361582.0,59.0,44.0,30.0,93.0,361.582
361592.0,57.0,44.0,29.0,97.0,361.592
361602.0,56.0,45.0,33.0,105.0,361.602
361612.0,58.0,47.0,32.0,115.0,361.612
361622.0,58.0,47.0,31.0,115.0,361.622
361632.0,60.0,47.0,37.0,112.0,361.632
361643.0,61.0,48.0,32.0,104.0,361.643
361653.0,61.0,47.0,31.0,106.0,361.653
361663.0,60.0,47.0,32.0,100.0,361.663
361673.0,63.0,50.0,32.0,94.0,361.673
361683.0,64.0,51.0,29.0,103.0,361.683
361693.0,65.0,51.0,27.0,103.0,361.693
361703.0,68.0,52.0,27.0,96.0,361.703
361713.0,68.0,52.0,31.0,97.0,361.713
361723.0,70.0,52.0,31.0,111.0,361.723
361733.0,69.0,51.0,30.0,107.0,361.733
361743.0,69.0,49.0,26.0,101.0,361.743
361753.0,70.0,48.0,25.0,102.0,361.753
361763.0,70.0,49.0,31.0,101.0,361.763
361773.0,71.0,49.0,28.0,106.0,361.773
361783.0,72.0,49.0,24.0,105.0,361.783
361793.0,73.0,49.0,25.0,103.0,361.793
361803.0,73.0,51.0,24.0,105.0,361.803
361814.0,74.0,51.0,25.0,97.0,361.814
361824.0,75.0,51.0,23.0,95.0,361.824
361834.0,73.0,50.0,25.0,102.0,361.834
361844.0,75.0,52.0,25.0,103.0,361.844
361854.0,74.0,52.0,22.0,113.0,361.854
361864.0,75.0,52.0,22.0,107.0,361.864
361874.0,75.0,51.0,23.0,102.0,361.874
361884.0,75.0,52.0,24.0,100.0,361.884
361894.0,75.0,51.0,27.0,100.0,361.894
361904.0,73.0,51.0,30.0,94.0,361.904
361914.0,74.0,51.0,37.0,110.0,361.914
361924.0,72.0,50.0,32.0,107.0,361.924
361934.0,72.0,49.0,28.0,100.0,361.934
361944.0,71.0,49.0,39.0,112.0,361.944
361954.0,71.0,49.0,35.0,109.0,361.954
361964.0,69.0,47.0,33.0,124.0,361.964
361974.0,70.0,48.0,30.0,135.0,361.974
361984.0,71.0,50.0,37.0,145.0,361.984
361994.0,70.0,49.0,33.0,141.0,361.994
362004.0,69.0,47.0,37.0,132.0,362.004
362014.0,69.0,47.0,41.0,133.0,362.014
362024.0,68.0,47.0,38.0,124.0,362.024
362034.0,66.0,45.0,36.0,114.0,362.034
362044.0,65.0,45.0,32.0,110.0,362.044
362054.0,64.0,45.0,29.0,105.0,362.054
362064.0,62.0,44.0,24.0,109.0,362.064
362074.0,62.0,44.0,23.0,107.0,362.074
362084.0,61.0,46.0,27.0,106.0,362.084
362094.0,62.0,47.0,24.0,108.0,362.094
362104.0,61.0,47.0,27.0,106.0,362.104
362114.0,59.0,47.0,24.0,108.0,362.114
362124.0,61.0,48.0,25.0,116.0,362.124
362134.0,57.0,47.0,21.0,109.0,362.134
362144.0,57.0,47.0,21.0,108.0,362.144
362155.0,58.0,50.0,26.0,108.0,362.155
362165.0,58.0,52.0,24.0,113.0,362.165
362175.0,58.0,51.0,25.0,110.0,362.175
362185.0,57.0,50.0,31.0,105.0,362.185
362195.0,58.0,50.0,26.0,103.0,362.195
362205.0,58.0,50.0,30.0,108.0,362.205
362215.0,59.0,50.0,33.0,108.0,362.215
362225.0,58.0,50.0,29.0,108.0,362.225
362235.0,58.0,50.0,34.0,110.0,362.235
362245.0,58.0,50.0,36.0,106.0,362.245
362255.0,58.0,50.0,35.0,113.0,362.255
362265.0,58.0,49.0,35.0,112.0,362.265
362275.0,55.0,47.0,35.0,104.0,362.275
362285.0,56.0,46.0,35.0,102.0,362.285
362295.0,55.0,45.0,31.0,100.0,362.295
362305.0,54.0,42.0,26.0,101.0,362.305
362315.0,54.0,40.0,24.0,104.0,362.315
362326.0,55.0,43.0,34.0,112.0,362.326
362336.0,57.0,43.0,31.0,110.0,362.336
362346.0,54.0,42.0,32.0,111.0,362.346
362356.0,55.0,40.0,31.0,108.0,362.356
362366.0,57.0,40.0,29.0,109.0,362.366
362376.0,57.0,39.0,26.0,113.0,362.376
362386.0,57.0,38.0,24.0,116.0,362.386
362396.0,58.0,38.0,21.0,116.0,362.396
362406.0,58.0,37.0,18.0,107.0,362.406
362416.0,56.0,38.0,18.0,110.0,362.416
362426.0,57.0,40.0,28.0,115.0,362.426
362436.0,58.0,41.0,32.0,127.0,362.436
362446.0,58.0,40.0,30.0,137.0,362.446
362456.0,60.0,39.0,27.0,132.0,362.456
362466.0,57.0,38.0,23.0,120.0,362.466
362476.0,59.0,36.0,22.0,118.0,362.476
362486.0,58.0,38.0,20.0,123.0,362.486
362496.0,57.0,38.0,22.0,137.0,362.496
362506.0,59.0,41.0,27.0,139.0,362.506
362516.0,58.0,42.0,25.0,136.0,362.516
362526.0,60.0,41.0,25.0,133.0,362.526
362536.0,61.0,44.0,25.0,125.0,362.536
362546.0,60.0,42.0,24.0,117.0,362.546
362556.0,60.0,41.0,23.0,114.0,362.556
362566.0,59.0,41.0,24.0,107.0,362.566
362576.0,60.0,41.0,37.0,103.0,362.576
362586.0,58.0,41.0,35.0,108.0,362.586
362596.0,60.0,40.0,33.0,108.0,362.596
362606.0,59.0,42.0,31.0,130.0,362.606
362616.0,60.0,40.0,31.0,122.0,362.616
362626.0,60.0,42.0,36.0,113.0,362.626
362636.0,60.0,42.0,33.0,116.0,362.636
362646.0,60.0,41.0,35.0,115.0,362.646
362656.0,60.0,42.0,42.0,116.0,362.656
362667.0,60.0,44.0,39.0,113.0,362.667
362677.0,59.0,45.0,35.0,108.0,362.677
362687.0,62.0,48.0,34.0,105.0,362.687
362697.0,61.0,49.0,31.0,110.0,362.697
362707.0,62.0,52.0,29.0,111.0,362.707
362717.0,62.0,53.0,26.0,109.0,362.717
362727.0,62.0,52.0,25.0,101.0,362.727
362737.0,65.0,54.0,23.0,100.0,362.737
362747.0,63.0,54.0,34.0,99.0,362.747
362757.0,65.0,52.0,37.0,103.0,362.757
362767.0,65.0,52.0,33.0,108.0,362.767
362777.0,64.0,50.0,33.0,109.0,362.777
362787.0,66.0,50.0,30.0,106.0,362.787
362797.0,66.0,49.0,30.0,103.0,362.797
362807.0,64.0,48.0,36.0,102.0,362.807
362817.0,63.0,49.0,46.0,99.0,362.817
362827.0,63.0,47.0,47.0,97.0,362.827
362838.0,60.0,47.0,44.0,98.0,362.838
362848.0,60.0,45.0,41.0,96.0,362.848
362858.0,61.0,45.0,38.0,89.0,362.858
362868.0,59.0,45.0,39.0,89.0,362.868
362878.0,59.0,44.0,35.0,100.0,362.878
362888.0,57.0,44.0,35.0,99.0,362.888
362898.0,58.0,45.0,42.0,99.0,362.898
362908.0,56.0,45.0,45.0,107.0,362.908
362918.0,56.0,46.0,41.0,104.0,362.918
362928.0,56.0,46.0,44.0,100.0,362.928
362938.0,55.0,46.0,43.0,102.0,362.938
362948.0,54.0,44.0,40.0,95.0,362.948
362958.0,53.0,45.0,35.0,89.0,362.958
362968.0,53.0,45.0,43.0,94.0,362.968
362978.0,52.0,44.0,38.0,93.0,362.978
362988.0,52.0,44.0,35.0,100.0,362.988
362998.0,52.0,42.0,32.0,100.0,362.998
363008.0,50.0,41.0,31.0,111.0,363.008
363018.0,51.0,39.0,30.0,116.0,363.018
363028.0,51.0,40.0,26.0,110.0,363.028
363038.0,52.0,38.0,26.0,107.0,363.038
363048.0,51.0,39.0,28.0,101.0,363.048
363058.0,52.0,41.0,41.0,99.0,363.058
363068.0,53.0,40.0,38.0,93.0,363.068
363078.0,54.0,39.0,38.0,112.0,363.078
363088.0,54.0,39.0,35.0,108.0,363.088
363098.0,54.0,39.0,32.0,106.0,363.098
363108.0,55.0,38.0,31.0,108.0,363.108
363118.0,55.0,37.0,29.0,112.0,363.118
363128.0,55.0,37.0,38.0,120.0,363.128
363138.0,56.0,37.0,43.0,120.0,363.138
363148.0,55.0,39.0,46.0,112.0,363.148
363158.0,55.0,38.0,47.0,108.0,363.158
363168.0,55.0,39.0,43.0,111.0,363.168
363179.0,55.0,37.0,42.0,114.0,363.179
363189.0,54.0,37.0,40.0,109.0,363.189
363199.0,54.0,37.0,46.0,112.0,363.199
363209.0,57.0,35.0,48.0,106.0,363.209
363219.0,57.0,37.0,45.0,102.0,363.219
363229.0,58.0,36.0,43.0,101.0,363.229
363239.0,58.0,36.0,43.0,120.0,363.239
363249.0,58.0,37.0,50.0,115.0,363.249
363259.0,57.0,37.0,58.0,111.0,363.259
363269.0,57.0,38.0,53.0,112.0,363.269
363279.0,56.0,37.0,55.0,108.0,363.279
363289.0,57.0,38.0,48.0,102.0,363.289
363299.0,57.0,38.0,55.0,98.0,363.299
363309.0,58.0,40.0,51.0,105.0,363.309
363319.0,59.0,38.0,46.0,104.0,363.319
363329.0,59.0,37.0,39.0,97.0,363.329
363339.0,59.0,37.0,35.0,92.0,363.339
363350.0,59.0,37.0,32.0,92.0,363.35
363360.0,59.0,39.0,31.0,90.0,363.36
363370.0,58.0,39.0,30.0,96.0,363.37
363380.0,57.0,39.0,29.0,95.0,363.38
363390.0,57.0,40.0,32.0,92.0,363.39
363400.0,57.0,39.0,33.0,90.0,363.4
363410.0,58.0,39.0,30.0,104.0,363.41
363420.0,59.0,39.0,30.0,102.0,363.42
363430.0,58.0,39.0,30.0,110.0,363.43
363440.0,59.0,38.0,28.0,114.0,363.44
363450.0,59.0,39.0,28.0,118.0,363.45
363460.0,60.0,37.0,25.0,113.0,363.46
363470.0,60.0,37.0,23.0,109.0,363.47
363480.0,58.0,36.0,23.0,104.0,363.48
363490.0,57.0,36.0,23.0,111.0,363.49
363500.0,56.0,38.0,41.0,108.0,363.5
363510.0,56.0,38.0,46.0,102.0,363.51
363520.0,56.0,37.0,41.0,105.0,363.52
363530.0,57.0,38.0,36.0,102.0,363.53
363540.0,57.0,39.0,32.0,101.0,363.54
363550.0,57.0,38.0,32.0,98.0,363.55
363560.0,58.0,41.0,35.0,97.0,363.56
363570.0,58.0,41.0,35.0,98.0,363.57
363580.0,58.0,39.0,31.0,98.0,363.58
363590.0,59.0,40.0,31.0,97.0,363.59
363600.0,61.0,39.0,27.0,95.0,363.6
363610.0,62.0,39.0,25.0,92.0,363.61
363620.0,60.0,38.0,30.0,99.0,363.62
363630.0,60.0,37.0,29.0,98.0,363.63
363640.0,60.0,39.0,35.0,98.0,363.64
363650.0,62.0,38.0,44.0,98.0,363.65
363660.0,63.0,39.0,40.0,96.0,363.66
363670.0,65.0,37.0,35.0,92.0,363.67
363680.0,66.0,38.0,33.0,105.0,363.68
363691.0,68.0,37.0,29.0,105.0,363.691
363701.0,69.0,37.0,27.0,105.0,363.701
363711.0,68.0,37.0,24.0,104.0,363.711
363721.0,68.0,36.0,23.0,114.0,363.721
363731.0,68.0,39.0,21.0,113.0,363.731
363741.0,69.0,40.0,29.0,116.0,363.741
363751.0,70.0,40.0,27.0,113.0,363.751
363761.0,71.0,40.0,25.0,107.0,363.761
363771.0,72.0,39.0,24.0,109.0,363.771
363781.0,72.0,39.0,24.0,117.0,363.781
363791.0,71.0,37.0,25.0,128.0,363.791
363801.0,70.0,38.0,24.0,126.0,363.801
363811.0,70.0,36.0,23.0,114.0,363.811
363821.0,69.0,38.0,31.0,109.0,363.821
363831.0,68.0,37.0,28.0,106.0,363.831
363841.0,67.0,37.0,29.0,100.0,363.841
363851.0,66.0,37.0,27.0,100.0,363.851
363862.0,67.0,38.0,29.0,104.0,363.862
363872.0,67.0,39.0,34.0,104.0,363.872
363882.0,67.0,38.0,31.0,108.0,363.882
363892.0,66.0,39.0,31.0,113.0,363.892
363902.0,64.0,41.0,28.0,119.0,363.902
363912.0,63.0,41.0,26.0,117.0,363.912
363922.0,62.0,44.0,26.0,109.0,363.922
363932.0,65.0,43.0,24.0,102.0,363.932
363942.0,67.0,44.0,24.0,99.0,363.942
363952.0,66.0,45.0,26.0,97.0,363.952
363962.0,66.0,46.0,31.0,95.0,363.962
363972.0,66.0,46.0,29.0,105.0,363.972
363982.0,68.0,47.0,33.0,101.0,363.982
363992.0,68.0,46.0,30.0,97.0,363.992
364002.0,67.0,46.0,28.0,92.0,364.002
364012.0,66.0,46.0,25.0,104.0,364.012
364022.0,65.0,46.0,22.0,104.0,364.022
364032.0,65.0,46.0,21.0,98.0,364.032
364042.0,64.0,46.0,18.0,93.0,364.042
364052.0,63.0,45.0,18.0,93.0,364.052
364062.0,63.0,48.0,19.0,94.0,364.062
364072.0,63.0,46.0,20.0,102.0,364.072
364082.0,64.0,44.0,18.0,101.0,364.082
364092.0,62.0,44.0,24.0,92.0,364.092
364102.0,63.0,45.0,22.0,99.0,364.102
364112.0,62.0,46.0,21.0,98.0,364.112
364122.0,63.0,47.0,30.0,98.0,364.122
364132.0,65.0,48.0,27.0,108.0,364.132
364142.0,66.0,47.0,24.0,107.0,364.142
364152.0,65.0,46.0,21.0,105.0,364.152
364162.0,65.0,46.0,20.0,102.0,364.162
364172.0,65.0,45.0,18.0,96.0,364.172
364182.0,64.0,46.0,22.0,109.0,364.182
364192.0,66.0,46.0,25.0,109.0,364.192
364203.0,65.0,45.0,21.0,102.0,364.203
364213.0,65.0,44.0,23.0,96.0,364.213
364223.0,65.0,45.0,27.0,97.0,364.223
364233.0,66.0,45.0,25.0,110.0,364.233
364243.0,65.0,46.0,27.0,125.0,364.243
364253.0,65.0,46.0,29.0,116.0,364.253
364263.0,65.0,45.0,27.0,107.0,364.263
364273.0,65.0,45.0,24.0,104.0,364.273
364283.0,66.0,46.0,23.0,100.0,364.283
364293.0,65.0,46.0,32.0,98.0,364.293
364303.0,65.0,47.0,37.0,99.0,364.303
364313.0,66.0,45.0,33.0,100.0,364.313
364323.0,65.0,45.0,29.0,96.0,364.323
364333.0,64.0,45.0,26.0,91.0,364.333
364343.0,63.0,45.0,25.0,95.0,364.343
364353.0,63.0,44.0,24.0,100.0,364.353
364363.0,62.0,44.0,22.0,105.0,364.363
364374.0,61.0,41.0,21.0,99.0,364.374
364384.0,61.0,41.0,21.0,90.0,364.384
364394.0,60.0,42.0,20.0,95.0,364.394
364404.0,61.0,41.0,17.0,89.0,364.404
364414.0,60.0,43.0,16.0,84.0,364.414
364424.0,60.0,43.0,15.0,103.0,364.424
364434.0,59.0,46.0,17.0,110.0,364.434
364444.0,60.0,46.0,21.0,115.0,364.444
364454.0,60.0,46.0,19.0,106.0,364.454
364464.0,60.0,47.0,16.0,100.0,364.464
364474.0,61.0,45.0,16.0,95.0,364.474
364484.0,61.0,47.0,14.0,99.0,364.484
364494.0,60.0,48.0,13.0,90.0,364.494
364504.0,60.0,47.0,13.0,99.0,364.504
364514.0,59.0,48.0,23.0,99.0,364.514
364524.0,60.0,46.0,23.0,96.0,364.524
364534.0,58.0,44.0,22.0,109.0,364.534
364544.0,59.0,43.0,23.0,113.0,364.544
364554.0,57.0,43.0,20.0,111.0,364.554
364564.0,57.0,44.0,20.0,108.0,364.564
364574.0,57.0,43.0,19.0,105.0,364.574
364584.0,57.0,44.0,19.0,99.0,364.584
364594.0,57.0,45.0,31.0,95.0,364.594
364604.0,58.0,44.0,31.0,96.0,364.604
364614.0,59.0,43.0,34.0,101.0,364.614
364624.0,60.0,42.0,30.0,102.0,364.624
364634.0,59.0,43.0,31.0,97.0,364.634
364644.0,61.0,43.0,42.0,112.0,364.644
364654.0,61.0,44.0,38.0,108.0,364.654
364664.0,63.0,43.0,35.0,110.0,364.664
364674.0,62.0,43.0,30.0,116.0,364.674
364684.0,64.0,43.0,37.0,107.0,364.684
364694.0,64.0,44.0,32.0,101.0,364.694
364704.0,63.0,43.0,30.0,102.0,364.704
364715.0,65.0,42.0,28.0,102.0,364.715
364725.0,67.0,42.0,27.0,104.0,364.725
364735.0,67.0,41.0,23.0,104.0,364.735
364745.0,66.0,42.0,24.0,104.0,364.745
364755.0,66.0,41.0,22.0,101.0,364.755
364765.0,65.0,45.0,22.0,101.0,364.765
364775.0,68.0,44.0,24.0,103.0,364.775
364785.0,69.0,42.0,23.0,103.0,364.785
364795.0,71.0,42.0,24.0,112.0,364.795
364805.0,71.0,40.0,22.0,109.0,364.805
364815.0,72.0,40.0,20.0,104.0,364.815
364825.0,72.0,39.0,22.0,97.0,364.825
364835.0,71.0,39.0,22.0,108.0,364.835
364845.0,71.0,38.0,19.0,104.0,364.845
364855.0,71.0,44.0,25.0,107.0,364.855
364865.0,69.0,42.0,23.0,107.0,364.865
364875.0,69.0,40.0,22.0,99.0,364.875
364886.0,67.0,41.0,22.0,100.0,364.886
364896.0,69.0,40.0,23.0,104.0,364.896
364906.0,67.0,40.0,20.0,102.0,364.906
364916.0,68.0,40.0,22.0,98.0,364.916
364926.0,68.0,39.0,20.0,98.0,364.926
364936.0,65.0,40.0,24.0,92.0,364.936
364946.0,66.0,40.0,25.0,87.0,364.946
364956.0,65.0,39.0,20.0,91.0,364.956
364966.0,65.0,38.0,21.0,96.0,364.966
364976.0,65.0,40.0,20.0,95.0,364.976
364986.0,62.0,41.0,20.0,93.0,364.986
364996.0,62.0,40.0,21.0,99.0,364.996
365006.0,61.0,40.0,20.0,98.0,365.006
365016.0,61.0,41.0,21.0,95.0,365.016
365026.0,60.0,43.0,34.0,106.0,365.026
365036.0,61.0,42.0,32.0,111.0,365.036
365046.0,60.0,42.0,33.0,108.0,365.046
365056.0,61.0,40.0,31.0,98.0,365.056
365066.0,60.0,39.0,30.0,104.0,365.066
