time (ms),signal 0,signal 1,signal 2,signal3,time (sec)
496784.0,61.0,40.0,7.0,110.0,496.784
496794.0,64.0,39.0,5.0,123.0,496.794
496804.0,63.0,39.0,5.0,119.0,496.804
496814.0,62.0,39.0,5.0,121.0,496.814
496824.0,62.0,40.0,4.0,118.0,496.824
496834.0,62.0,41.0,7.0,122.0,496.834
496844.0,60.0,42.0,7.0,114.0,496.844
496854.0,61.0,42.0,6.0,107.0,496.854
496864.0,60.0,42.0,6.0,101.0,496.864
496874.0,60.0,41.0,6.0,104.0,496.874
496884.0,60.0,43.0,6.0,119.0,496.884
496894.0,59.0,42.0,6.0,110.0,496.894
496904.0,59.0,42.0,7.0,115.0,496.904
496914.0,59.0,42.0,5.0,109.0,496.914
496924.0,60.0,41.0,7.0,112.0,496.924
496934.0,59.0,41.0,6.0,112.0,496.934
496944.0,62.0,39.0,6.0,105.0,496.944
496954.0,63.0,40.0,5.0,100.0,496.954
496964.0,63.0,40.0,7.0,95.0,496.964
496974.0,63.0,41.0,7.0,97.0,496.974
496984.0,63.0,41.0,6.0,90.0,496.984
496994.0,64.0,42.0,7.0,87.0,496.994
497004.0,62.0,42.0,6.0,89.0,497.004
497014.0,62.0,41.0,5.0,85.0,497.014
497024.0,63.0,41.0,5.0,83.0,497.024
497034.0,64.0,42.0,6.0,97.0,497.034
497044.0,65.0,41.0,5.0,95.0,497.044
497054.0,66.0,41.0,5.0,90.0,497.054
497064.0,68.0,41.0,6.0,84.0,497.064
497074.0,68.0,42.0,4.0,80.0,497.074
497084.0,70.0,44.0,4.0,77.0,497.084
497094.0,71.0,44.0,5.0,76.0,497.094
497104.0,72.0,44.0,4.0,74.0,497.104
497114.0,75.0,43.0,5.0,71.0,497.114
497124.0,73.0,46.0,4.0,75.0,497.124
497134.0,76.0,46.0,6.0,78.0,497.134
497144.0,74.0,48.0,4.0,76.0,497.144
497154.0,75.0,50.0,5.0,77.0,497.154
497164.0,76.0,50.0,5.0,73.0,497.164
497174.0,76.0,50.0,4.0,68.0,497.174
497184.0,76.0,50.0,5.0,62.0,497.184
497195.0,76.0,50.0,4.0,60.0,497.195
497205.0,77.0,51.0,6.0,59.0,497.205
497215.0,76.0,53.0,4.0,59.0,497.215
497225.0,77.0,53.0,5.0,60.0,497.225
497235.0,77.0,55.0,4.0,61.0,497.235
497245.0,75.0,55.0,3.0,63.0,497.245
497255.0,77.0,55.0,4.0,63.0,497.255
497265.0,75.0,57.0,4.0,63.0,497.265
497275.0,74.0,57.0,5.0,62.0,497.275
497285.0,72.0,57.0,4.0,61.0,497.285
497295.0,71.0,58.0,4.0,59.0,497.295
497305.0,71.0,59.0,3.0,69.0,497.305
497315.0,69.0,60.0,8.0,76.0,497.315
497325.0,70.0,60.0,9.0,74.0,497.325
497335.0,70.0,59.0,9.0,74.0,497.335
497345.0,71.0,58.0,9.0,69.0,497.345
497355.0,72.0,58.0,7.0,68.0,497.355
497366.0,68.0,58.0,7.0,68.0,497.366
497376.0,69.0,57.0,7.0,74.0,497.376
497386.0,67.0,56.0,10.0,74.0,497.386
497396.0,68.0,52.0,9.0,75.0,497.396
497406.0,68.0,52.0,11.0,85.0,497.406
497416.0,69.0,49.0,11.0,83.0,497.416
497426.0,71.0,47.0,9.0,89.0,497.426
497436.0,70.0,46.0,10.0,93.0,497.436
497446.0,68.0,45.0,9.0,92.0,497.446
497456.0,67.0,45.0,10.0,96.0,497.456
497466.0,69.0,44.0,12.0,116.0,497.466
497476.0,69.0,42.0,10.0,116.0,497.476
497486.0,69.0,42.0,10.0,110.0,497.486
497496.0,67.0,42.0,8.0,114.0,497.496
497506.0,68.0,41.0,8.0,115.0,497.506
497516.0,69.0,41.0,8.0,126.0,497.516
497526.0,66.0,41.0,9.0,125.0,497.526
497536.0,66.0,42.0,10.0,116.0,497.536
497546.0,65.0,42.0,10.0,117.0,497.546
497556.0,66.0,42.0,10.0,110.0,497.556
497566.0,64.0,41.0,9.0,115.0,497.566
497576.0,63.0,41.0,13.0,127.0,497.576
497586.0,64.0,42.0,15.0,130.0,497.586
497596.0,64.0,41.0,14.0,122.0,497.596
497606.0,63.0,40.0,12.0,122.0,497.606
497616.0,64.0,42.0,12.0,117.0,497.616
497626.0,65.0,40.0,12.0,109.0,497.626
497636.0,64.0,39.0,11.0,103.0,497.636
497646.0,64.0,38.0,11.0,119.0,497.646
497656.0,63.0,38.0,10.0,125.0,497.656
497666.0,64.0,38.0,9.0,128.0,497.666
497676.0,64.0,36.0,9.0,132.0,497.676
497686.0,65.0,36.0,8.0,147.0,497.686
497696.0,64.0,36.0,9.0,146.0,497.696
497707.0,64.0,36.0,8.0,143.0,497.707
497717.0,66.0,36.0,7.0,140.0,497.717
497727.0,67.0,36.0,8.0,137.0,497.727
497737.0,69.0,38.0,6.0,128.0,497.737
497747.0,69.0,38.0,6.0,123.0,497.747
497757.0,69.0,38.0,7.0,127.0,497.757
497767.0,68.0,38.0,7.0,125.0,497.767
497777.0,68.0,37.0,6.0,127.0,497.777
497787.0,66.0,37.0,6.0,121.0,497.787
497797.0,65.0,37.0,6.0,121.0,497.797
497807.0,65.0,38.0,8.0,119.0,497.807
497817.0,65.0,36.0,8.0,124.0,497.817
497827.0,65.0,37.0,7.0,123.0,497.827
497837.0,67.0,38.0,7.0,117.0,497.837
497847.0,67.0,37.0,7.0,108.0,497.847
497857.0,66.0,37.0,9.0,100.0,497.857
497867.0,65.0,37.0,9.0,109.0,497.867
497878.0,65.0,39.0,10.0,117.0,497.878
497888.0,66.0,37.0,10.0,128.0,497.888
497898.0,65.0,37.0,9.0,131.0,497.898
497908.0,68.0,38.0,11.0,121.0,497.908
497918.0,66.0,38.0,9.0,120.0,497.918
497928.0,66.0,38.0,9.0,115.0,497.928
497938.0,67.0,39.0,10.0,119.0,497.938
497948.0,66.0,39.0,10.0,114.0,497.948
497958.0,67.0,39.0,11.0,114.0,497.958
497968.0,67.0,39.0,10.0,111.0,497.968
497978.0,67.0,39.0,10.0,107.0,497.978
497988.0,69.0,40.0,8.0,100.0,497.988
497998.0,70.0,42.0,9.0,94.0,497.998
498008.0,71.0,41.0,9.0,89.0,498.008
498018.0,72.0,41.0,8.0,99.0,498.018
498028.0,73.0,38.0,8.0,109.0,498.028
498038.0,73.0,39.0,8.0,126.0,498.038
498048.0,75.0,39.0,8.0,128.0,498.048
498058.0,74.0,39.0,11.0,136.0,498.058
498068.0,73.0,38.0,11.0,130.0,498.068
498078.0,73.0,37.0,9.0,134.0,498.078
498088.0,73.0,37.0,9.0,129.0,498.088
498098.0,73.0,36.0,9.0,120.0,498.098
498108.0,72.0,36.0,9.0,124.0,498.108
498118.0,73.0,36.0,11.0,131.0,498.118
498128.0,71.0,36.0,9.0,126.0,498.128
498138.0,71.0,36.0,9.0,117.0,498.138
498148.0,69.0,36.0,9.0,115.0,498.148
498158.0,69.0,37.0,9.0,118.0,498.158
498168.0,70.0,35.0,8.0,120.0,498.168
498178.0,70.0,35.0,7.0,121.0,498.178
498188.0,69.0,35.0,8.0,119.0,498.188
498198.0,68.0,34.0,6.0,112.0,498.198
498208.0,66.0,34.0,6.0,107.0,498.208
498219.0,67.0,36.0,5.0,101.0,498.219
498229.0,66.0,37.0,5.0,102.0,498.229
498239.0,66.0,36.0,5.0,100.0,498.239
498249.0,64.0,37.0,6.0,105.0,498.249
498259.0,66.0,39.0,7.0,106.0,498.259
498269.0,65.0,39.0,6.0,103.0,498.269
498279.0,64.0,40.0,5.0,97.0,498.279
498289.0,65.0,41.0,6.0,102.0,498.289
498299.0,64.0,42.0,5.0,104.0,498.299
498309.0,64.0,42.0,5.0,110.0,498.309
498319.0,65.0,42.0,5.0,119.0,498.319
498329.0,66.0,44.0,7.0,117.0,498.329
498339.0,66.0,46.0,5.0,118.0,498.339
498349.0,66.0,47.0,5.0,116.0,498.349
498359.0,66.0,47.0,5.0,111.0,498.359
498369.0,65.0,51.0,5.0,112.0,498.369
498379.0,64.0,52.0,7.0,110.0,498.379
498390.0,64.0,56.0,6.0,107.0,498.39
498400.0,64.0,57.0,7.0,103.0,498.4
498410.0,62.0,58.0,5.0,98.0,498.41
498420.0,61.0,62.0,6.0,97.0,498.42
498430.0,60.0,61.0,5.0,100.0,498.43
498440.0,61.0,66.0,8.0,108.0,498.44
498450.0,61.0,67.0,6.0,105.0,498.45
498460.0,61.0,69.0,7.0,99.0,498.46
498470.0,62.0,70.0,7.0,97.0,498.47
498480.0,63.0,71.0,5.0,91.0,498.48
498490.0,64.0,73.0,4.0,97.0,498.49
498500.0,64.0,74.0,6.0,109.0,498.5
498510.0,65.0,77.0,8.0,115.0,498.51
498520.0,66.0,76.0,8.0,110.0,498.52
498530.0,66.0,78.0,7.0,105.0,498.53
498540.0,66.0,80.0,6.0,99.0,498.54
498550.0,67.0,82.0,6.0,94.0,498.55
498560.0,64.0,83.0,4.0,93.0,498.56
498570.0,66.0,87.0,5.0,91.0,498.57
498580.0,65.0,90.0,5.0,92.0,498.58
498590.0,65.0,92.0,6.0,92.0,498.59
498600.0,65.0,96.0,5.0,96.0,498.6
498610.0,64.0,98.0,4.0,95.0,498.61
498620.0,66.0,104.0,8.0,99.0,498.62
498630.0,64.0,106.0,8.0,109.0,498.63
498640.0,66.0,110.0,7.0,116.0,498.64
498650.0,67.0,114.0,7.0,117.0,498.65
498660.0,67.0,114.0,6.0,110.0,498.66
498670.0,66.0,117.0,6.0,106.0,498.67
498680.0,67.0,119.0,9.0,102.0,498.68
498690.0,69.0,121.0,10.0,99.0,498.69
498700.0,69.0,122.0,8.0,103.0,498.7
498710.0,71.0,123.0,8.0,104.0,498.71
498720.0,70.0,124.0,6.0,104.0,498.72
498731.0,71.0,125.0,6.0,109.0,498.731
498741.0,72.0,125.0,6.0,105.0,498.741
498751.0,72.0,125.0,6.0,100.0,498.751
498761.0,73.0,126.0,8.0,101.0,498.761
498771.0,72.0,126.0,8.0,106.0,498.771
498781.0,71.0,125.0,7.0,105.0,498.781
498791.0,71.0,126.0,7.0,106.0,498.791
498801.0,71.0,126.0,5.0,106.0,498.801
498811.0,71.0,126.0,5.0,110.0,498.811
498821.0,72.0,126.0,7.0,107.0,498.821
498831.0,72.0,125.0,7.0,107.0,498.831
498841.0,70.0,123.0,6.0,102.0,498.841
498851.0,71.0,123.0,6.0,101.0,498.851
498861.0,72.0,121.0,6.0,114.0,498.861
498871.0,73.0,120.0,7.0,114.0,498.871
498881.0,73.0,119.0,6.0,108.0,498.881
498891.0,71.0,116.0,7.0,98.0,498.891
498902.0,72.0,115.0,6.0,104.0,498.902
498912.0,71.0,115.0,6.0,113.0,498.912
498922.0,71.0,114.0,7.0,109.0,498.922
498932.0,71.0,116.0,6.0,108.0,498.932
498942.0,70.0,114.0,6.0,105.0,498.942
498952.0,69.0,115.0,6.0,104.0,498.952
498962.0,70.0,115.0,10.0,116.0,498.962
498972.0,71.0,115.0,11.0,119.0,498.972
498982.0,70.0,115.0,10.0,108.0,498.982
498992.0,72.0,114.0,10.0,106.0,498.992
499002.0,71.0,113.0,9.0,108.0,499.002
499012.0,70.0,113.0,8.0,110.0,499.012
499022.0,71.0,113.0,8.0,112.0,499.022
499032.0,72.0,114.0,8.0,106.0,499.032
499042.0,73.0,113.0,8.0,102.0,499.042
499052.0,72.0,112.0,6.0,109.0,499.052
499062.0,71.0,111.0,6.0,113.0,499.062
499072.0,70.0,111.0,6.0,116.0,499.072
499082.0,70.0,111.0,6.0,111.0,499.082
499092.0,71.0,110.0,8.0,107.0,499.092
499102.0,72.0,110.0,7.0,102.0,499.102
499112.0,74.0,111.0,7.0,105.0,499.112
499122.0,73.0,109.0,6.0,105.0,499.122
499132.0,73.0,106.0,7.0,100.0,499.132
499142.0,73.0,106.0,5.0,96.0,499.142
499152.0,73.0,103.0,7.0,90.0,499.152
499162.0,73.0,102.0,6.0,94.0,499.162
499172.0,72.0,100.0,6.0,104.0,499.172
499182.0,71.0,97.0,6.0,105.0,499.182
499192.0,70.0,95.0,5.0,101.0,499.192
499202.0,70.0,95.0,5.0,92.0,499.202
499212.0,69.0,94.0,5.0,93.0,499.212
499222.0,67.0,93.0,5.0,90.0,499.222
499232.0,67.0,92.0,5.0,91.0,499.232
499243.0,67.0,94.0,7.0,93.0,499.243
499253.0,67.0,93.0,7.0,89.0,499.253
499263.0,66.0,93.0,6.0,96.0,499.263
499273.0,65.0,92.0,6.0,94.0,499.273
499283.0,66.0,93.0,6.0,90.0,499.283
499293.0,65.0,92.0,6.0,86.0,499.293
499303.0,66.0,92.0,6.0,87.0,499.303
499313.0,66.0,91.0,5.0,88.0,499.313
499323.0,65.0,91.0,6.0,93.0,499.323
499333.0,65.0,92.0,6.0,91.0,499.333
499343.0,65.0,91.0,6.0,84.0,499.343
499353.0,66.0,92.0,5.0,84.0,499.353
499363.0,67.0,89.0,5.0,88.0,499.363
499373.0,66.0,87.0,5.0,84.0,499.373
499383.0,68.0,86.0,5.0,91.0,499.383
499393.0,70.0,83.0,7.0,91.0,499.393
499403.0,70.0,83.0,6.0,92.0,499.403
499414.0,70.0,81.0,6.0,97.0,499.414
499424.0,70.0,80.0,7.0,97.0,499.424
499434.0,69.0,78.0,6.0,91.0,499.434
499444.0,68.0,76.0,6.0,90.0,499.444
499454.0,67.0,72.0,8.0,99.0,499.454
499464.0,65.0,69.0,9.0,97.0,499.464
499474.0,66.0,69.0,7.0,100.0,499.474
499484.0,65.0,65.0,7.0,95.0,499.484
499494.0,64.0,64.0,7.0,112.0,499.494
499504.0,64.0,62.0,6.0,107.0,499.504
499514.0,64.0,60.0,6.0,102.0,499.514
499524.0,64.0,60.0,6.0,98.0,499.524
499534.0,66.0,60.0,6.0,101.0,499.534
499544.0,65.0,60.0,6.0,99.0,499.544
499554.0,65.0,60.0,6.0,100.0,499.554
499564.0,66.0,61.0,6.0,96.0,499.564
499574.0,66.0,60.0,5.0,96.0,499.574
499584.0,66.0,60.0,5.0,95.0,499.584
499594.0,65.0,62.0,5.0,96.0,499.594
499604.0,67.0,61.0,10.0,104.0,499.604
499614.0,66.0,61.0,9.0,97.0,499.614
499624.0,67.0,61.0,10.0,103.0,499.624
499634.0,67.0,61.0,8.0,101.0,499.634
499644.0,67.0,61.0,8.0,116.0,499.644
499654.0,67.0,60.0,8.0,108.0,499.654
499664.0,67.0,60.0,7.0,103.0,499.664
499674.0,68.0,59.0,7.0,98.0,499.674
499684.0,66.0,58.0,8.0,105.0,499.684
499694.0,67.0,57.0,9.0,112.0,499.694
499704.0,66.0,57.0,9.0,109.0,499.704
499714.0,67.0,57.0,8.0,103.0,499.714
499724.0,67.0,56.0,7.0,100.0,499.724
499734.0,68.0,57.0,7.0,103.0,499.734
499744.0,70.0,56.0,7.0,104.0,499.744
499755.0,70.0,57.0,6.0,105.0,499.755
499765.0,71.0,55.0,7.0,105.0,499.765
499775.0,73.0,55.0,6.0,102.0,499.775
499785.0,72.0,54.0,7.0,98.0,499.785
499795.0,75.0,54.0,7.0,96.0,499.795
499805.0,76.0,54.0,6.0,95.0,499.805
499815.0,77.0,54.0,6.0,88.0,499.815
499825.0,74.0,51.0,5.0,80.0,499.825
499835.0,73.0,49.0,6.0,90.0,499.835
499845.0,73.0,49.0,4.0,89.0,499.845
499855.0,72.0,48.0,11.0,91.0,499.855
499865.0,72.0,49.0,11.0,92.0,499.865
499875.0,71.0,48.0,9.0,90.0,499.875
499885.0,72.0,47.0,11.0,91.0,499.885
499895.0,71.0,46.0,8.0,87.0,499.895
499905.0,69.0,44.0,8.0,85.0,499.905
499915.0,69.0,44.0,9.0,91.0,499.915
499926.0,69.0,46.0,9.0,98.0,499.926
499936.0,67.0,44.0,9.0,96.0,499.936
499946.0,67.0,44.0,9.0,101.0,499.946
499956.0,68.0,44.0,9.0,95.0,499.956
499966.0,65.0,44.0,7.0,94.0,499.966
499976.0,64.0,41.0,8.0,89.0,499.976
499986.0,64.0,41.0,8.0,100.0,499.986
499996.0,63.0,39.0,8.0,110.0,499.996
500006.0,63.0,39.0,7.0,105.0,500.006
500016.0,63.0,39.0,8.0,101.0,500.016
500026.0,64.0,38.0,8.0,93.0,500.026
500036.0,61.0,38.0,6.0,94.0,500.036
500046.0,60.0,37.0,7.0,100.0,500.046
500056.0,61.0,37.0,6.0,97.0,500.056
500066.0,59.0,37.0,6.0,92.0,500.066
500076.0,59.0,36.0,6.0,102.0,500.076
500086.0,58.0,36.0,7.0,117.0,500.086
500096.0,59.0,35.0,7.0,116.0,500.096
500106.0,58.0,36.0,7.0,119.0,500.106
500116.0,60.0,36.0,7.0,112.0,500.116
500126.0,60.0,36.0,6.0,103.0,500.126
500136.0,59.0,36.0,6.0,93.0,500.136
500146.0,59.0,35.0,6.0,94.0,500.146
500156.0,59.0,37.0,5.0,96.0,500.156
500166.0,61.0,35.0,7.0,93.0,500.166
500176.0,60.0,35.0,5.0,92.0,500.176
500186.0,60.0,35.0,7.0,89.0,500.186
500196.0,59.0,36.0,7.0,86.0,500.196
500206.0,59.0,35.0,6.0,84.0,500.206
500216.0,58.0,36.0,7.0,88.0,500.216
500226.0,58.0,36.0,6.0,86.0,500.226
500236.0,60.0,36.0,8.0,87.0,500.236
500246.0,60.0,37.0,6.0,88.0,500.246
500256.0,60.0,36.0,6.0,92.0,500.256
500267.0,59.0,37.0,6.0,96.0,500.267
500277.0,59.0,37.0,6.0,95.0,500.277
500287.0,60.0,37.0,6.0,92.0,500.287
500297.0,58.0,38.0,5.0,100.0,500.297
500307.0,61.0,40.0,7.0,98.0,500.307
500317.0,60.0,41.0,6.0,103.0,500.317
500327.0,62.0,41.0,6.0,104.0,500.327
500337.0,59.0,44.0,7.0,102.0,500.337
500347.0,61.0,45.0,7.0,96.0,500.347
500357.0,60.0,44.0,7.0,96.0,500.357
500367.0,59.0,48.0,7.0,95.0,500.367
500377.0,59.0,50.0,8.0,92.0,500.377
500387.0,58.0,51.0,6.0,98.0,500.387
500397.0,59.0,53.0,6.0,97.0,500.397
500407.0,59.0,54.0,8.0,104.0,500.407
500417.0,60.0,55.0,8.0,104.0,500.417
500427.0,60.0,55.0,8.0,102.0,500.427
500438.0,59.0,56.0,7.0,94.0,500.438
500448.0,61.0,54.0,7.0,94.0,500.448
500458.0,60.0,56.0,7.0,97.0,500.458
500468.0,61.0,55.0,7.0,96.0,500.468
500478.0,60.0,55.0,6.0,101.0,500.478
500488.0,59.0,56.0,7.0,102.0,500.488
500498.0,60.0,54.0,7.0,96.0,500.498
500508.0,59.0,56.0,7.0,95.0,500.508
500518.0,60.0,56.0,8.0,100.0,500.518
500528.0,60.0,56.0,6.0,106.0,500.528
500538.0,61.0,55.0,6.0,97.0,500.538
500548.0,60.0,57.0,6.0,91.0,500.548
500558.0,59.0,59.0,6.0,90.0,500.558
500568.0,58.0,58.0,8.0,94.0,500.568
500578.0,57.0,59.0,7.0,96.0,500.578
500588.0,57.0,58.0,7.0,101.0,500.588
500598.0,56.0,58.0,6.0,94.0,500.598
500608.0,55.0,58.0,6.0,89.0,500.608
500618.0,55.0,59.0,6.0,91.0,500.618
500628.0,55.0,58.0,5.0,85.0,500.628
500638.0,55.0,58.0,6.0,94.0,500.638
500648.0,53.0,58.0,5.0,89.0,500.648
500658.0,55.0,57.0,6.0,86.0,500.658
500668.0,54.0,55.0,4.0,82.0,500.668
500678.0,54.0,56.0,4.0,88.0,500.678
500688.0,53.0,56.0,5.0,87.0,500.688
500698.0,53.0,57.0,5.0,84.0,500.698
500708.0,55.0,55.0,5.0,84.0,500.708
500718.0,56.0,57.0,4.0,85.0,500.718
500728.0,57.0,58.0,5.0,79.0,500.728
500738.0,56.0,58.0,4.0,75.0,500.738
500748.0,56.0,57.0,5.0,75.0,500.748
500758.0,56.0,57.0,5.0,75.0,500.758
500768.0,55.0,57.0,5.0,74.0,500.768
500779.0,54.0,56.0,5.0,84.0,500.779
500789.0,53.0,57.0,7.0,91.0,500.789
500799.0,55.0,56.0,9.0,90.0,500.799
500809.0,52.0,56.0,8.0,87.0,500.809
500819.0,52.0,55.0,7.0,89.0,500.819
500829.0,52.0,55.0,7.0,96.0,500.829
500839.0,51.0,55.0,7.0,98.0,500.839
500849.0,51.0,53.0,7.0,98.0,500.849
500859.0,51.0,53.0,6.0,98.0,500.859
500869.0,51.0,53.0,6.0,98.0,500.869
500879.0,51.0,53.0,4.0,95.0,500.879
500889.0,50.0,54.0,8.0,92.0,500.889
500899.0,50.0,56.0,9.0,100.0,500.899
500909.0,49.0,56.0,8.0,97.0,500.909
500919.0,50.0,54.0,7.0,90.0,500.919
500929.0,48.0,54.0,7.0,99.0,500.929
500939.0,50.0,54.0,8.0,98.0,500.939
500950.0,49.0,55.0,6.0,101.0,500.95
500960.0,48.0,55.0,6.0,93.0,500.96
500970.0,48.0,55.0,6.0,101.0,500.97
500980.0,47.0,55.0,7.0,94.0,500.98
500990.0,49.0,54.0,7.0,93.0,500.99
501000.0,50.0,55.0,5.0,96.0,501.0
501010.0,51.0,57.0,7.0,91.0,501.01
501020.0,50.0,58.0,6.0,90.0,501.02
501030.0,51.0,57.0,6.0,85.0,501.03
501040.0,52.0,57.0,6.0,90.0,501.04
501050.0,51.0,57.0,6.0,86.0,501.05
501060.0,52.0,56.0,6.0,90.0,501.06
501070.0,51.0,57.0,5.0,84.0,501.07
501080.0,53.0,58.0,6.0,82.0,501.08
501090.0,52.0,60.0,8.0,92.0,501.09
501100.0,52.0,57.0,7.0,97.0,501.1
501110.0,51.0,57.0,7.0,99.0,501.11
501120.0,50.0,57.0,6.0,93.0,501.12
501130.0,50.0,55.0,6.0,88.0,501.13
501140.0,48.0,55.0,5.0,86.0,501.14
501150.0,49.0,55.0,6.0,79.0,501.15
501160.0,48.0,54.0,6.0,79.0,501.16
501170.0,48.0,54.0,5.0,85.0,501.17
501180.0,50.0,55.0,5.0,83.0,501.18
501190.0,51.0,56.0,5.0,82.0,501.19
501200.0,53.0,55.0,11.0,84.0,501.2
501210.0,55.0,56.0,9.0,83.0,501.21
501220.0,55.0,55.0,8.0,82.0,501.22
501230.0,57.0,56.0,8.0,80.0,501.23
501240.0,56.0,57.0,9.0,82.0,501.24
501250.0,58.0,57.0,9.0,85.0,501.25
501260.0,58.0,57.0,8.0,87.0,501.26
501270.0,58.0,56.0,7.0,82.0,501.27
501280.0,57.0,54.0,7.0,76.0,501.28
501291.0,57.0,54.0,8.0,71.0,501.291
501301.0,57.0,56.0,6.0,76.0,501.301
501311.0,56.0,56.0,6.0,74.0,501.311
501321.0,57.0,57.0,8.0,87.0,501.321
501331.0,58.0,57.0,9.0,90.0,501.331
501341.0,58.0,55.0,9.0,94.0,501.341
501351.0,58.0,54.0,11.0,92.0,501.351
501361.0,59.0,53.0,11.0,91.0,501.361
501371.0,58.0,52.0,8.0,93.0,501.371
501381.0,55.0,53.0,7.0,88.0,501.381
501391.0,54.0,53.0,7.0,83.0,501.391
501401.0,53.0,56.0,7.0,85.0,501.401
501411.0,51.0,55.0,7.0,97.0,501.411
501421.0,50.0,56.0,6.0,95.0,501.421
501431.0,50.0,57.0,8.0,92.0,501.431
501441.0,50.0,56.0,6.0,92.0,501.441
501451.0,48.0,56.0,6.0,93.0,501.451
501462.0,48.0,55.0,6.0,89.0,501.462
501472.0,49.0,54.0,5.0,94.0,501.472
501482.0,49.0,54.0,6.0,102.0,501.482
501492.0,49.0,54.0,4.0,100.0,501.492
501502.0,51.0,53.0,12.0,106.0,501.502
501512.0,52.0,52.0,9.0,100.0,501.512
501522.0,53.0,51.0,9.0,96.0,501.522
501532.0,54.0,50.0,8.0,97.0,501.532
501542.0,55.0,51.0,8.0,92.0,501.542
501552.0,55.0,49.0,7.0,85.0,501.552
501562.0,56.0,48.0,6.0,80.0,501.562
501572.0,58.0,47.0,7.0,83.0,501.572
501582.0,58.0,47.0,6.0,79.0,501.582
501592.0,60.0,47.0,6.0,82.0,501.592
501602.0,61.0,45.0,6.0,83.0,501.602
501612.0,62.0,46.0,6.0,80.0,501.612
501622.0,61.0,44.0,6.0,76.0,501.622
501632.0,60.0,45.0,5.0,82.0,501.632
501642.0,61.0,43.0,6.0,88.0,501.642
501652.0,60.0,44.0,6.0,88.0,501.652
501662.0,59.0,43.0,6.0,93.0,501.662
501672.0,58.0,43.0,6.0,91.0,501.672
501682.0,59.0,43.0,7.0,92.0,501.682
501692.0,57.0,42.0,6.0,84.0,501.692
501702.0,58.0,43.0,5.0,82.0,501.702
501712.0,58.0,44.0,6.0,80.0,501.712
501722.0,58.0,46.0,5.0,86.0,501.722
501732.0,56.0,47.0,5.0,87.0,501.732
501742.0,58.0,47.0,5.0,85.0,501.742
501752.0,59.0,49.0,5.0,86.0,501.752
501762.0,59.0,48.0,5.0,90.0,501.762
501772.0,59.0,50.0,4.0,98.0,501.772
501782.0,60.0,50.0,5.0,96.0,501.782
501792.0,58.0,51.0,5.0,88.0,501.792
501803.0,58.0,51.0,5.0,96.0,501.803
501813.0,56.0,53.0,5.0,99.0,501.813
501823.0,56.0,53.0,6.0,100.0,501.823
501833.0,56.0,52.0,6.0,95.0,501.833
501843.0,55.0,52.0,5.0,92.0,501.843
501853.0,57.0,51.0,6.0,109.0,501.853
501863.0,56.0,51.0,6.0,107.0,501.863
501873.0,56.0,51.0,5.0,99.0,501.873
501883.0,56.0,49.0,5.0,93.0,501.883
501893.0,56.0,50.0,5.0,95.0,501.893
501903.0,56.0,48.0,5.0,90.0,501.903
501913.0,57.0,48.0,5.0,91.0,501.913
501923.0,58.0,47.0,5.0,95.0,501.923
501933.0,58.0,46.0,5.0,94.0,501.933
501943.0,58.0,46.0,5.0,91.0,501.943
501953.0,60.0,45.0,5.0,92.0,501.953
501963.0,62.0,46.0,4.0,91.0,501.963
501974.0,62.0,46.0,6.0,84.0,501.974
501984.0,64.0,45.0,5.0,80.0,501.984
501994.0,65.0,45.0,7.0,79.0,501.994
502004.0,66.0,46.0,4.0,87.0,502.004
502014.0,66.0,45.0,5.0,81.0,502.014
502024.0,67.0,45.0,5.0,78.0,502.024
502034.0,67.0,46.0,5.0,77.0,502.034
502044.0,68.0,46.0,5.0,74.0,502.044
502054.0,69.0,46.0,5.0,78.0,502.054
502064.0,69.0,46.0,5.0,96.0,502.064
502074.0,71.0,45.0,5.0,99.0,502.074
502084.0,70.0,45.0,5.0,93.0,502.084
502094.0,68.0,44.0,6.0,86.0,502.094
502104.0,69.0,44.0,5.0,87.0,502.104
502114.0,68.0,43.0,6.0,80.0,502.114
502124.0,67.0,43.0,5.0,85.0,502.124
502134.0,67.0,42.0,7.0,81.0,502.134
502144.0,67.0,41.0,6.0,85.0,502.144
502154.0,66.0,40.0,6.0,87.0,502.154
502164.0,64.0,39.0,6.0,95.0,502.164
502174.0,63.0,40.0,5.0,94.0,502.174
502184.0,63.0,38.0,6.0,95.0,502.184
502194.0,63.0,39.0,6.0,92.0,502.194
502204.0,63.0,41.0,7.0,89.0,502.204
502214.0,63.0,42.0,8.0,85.0,502.214
502224.0,62.0,41.0,7.0,84.0,502.224
502234.0,63.0,41.0,7.0,79.0,502.234
502244.0,63.0,41.0,7.0,85.0,502.244
502254.0,64.0,40.0,7.0,82.0,502.254
502264.0,63.0,42.0,6.0,84.0,502.264
502274.0,62.0,42.0,7.0,83.0,502.274
502284.0,62.0,43.0,6.0,78.0,502.284
502294.0,60.0,45.0,6.0,77.0,502.294
502304.0,61.0,45.0,6.0,76.0,502.304
502315.0,59.0,48.0,6.0,76.0,502.315
502325.0,60.0,48.0,7.0,75.0,502.325
502335.0,59.0,49.0,5.0,79.0,502.335
502345.0,59.0,51.0,7.0,80.0,502.345
502355.0,59.0,51.0,6.0,78.0,502.355
502365.0,58.0,52.0,6.0,84.0,502.365
502375.0,58.0,53.0,7.0,91.0,502.375
502385.0,58.0,54.0,7.0,88.0,502.385
502395.0,58.0,53.0,6.0,83.0,502.395
502405.0,57.0,53.0,7.0,88.0,502.405
502415.0,56.0,53.0,6.0,84.0,502.415
502425.0,56.0,51.0,6.0,82.0,502.425
502435.0,55.0,52.0,6.0,93.0,502.435
502445.0,57.0,53.0,6.0,88.0,502.445
502455.0,57.0,55.0,6.0,86.0,502.455
502465.0,58.0,54.0,6.0,87.0,502.465
502475.0,56.0,55.0,5.0,89.0,502.475
502486.0,57.0,55.0,6.0,88.0,502.486
502496.0,56.0,56.0,4.0,85.0,502.496
502506.0,54.0,55.0,4.0,78.0,502.506
502516.0,53.0,53.0,5.0,85.0,502.516
502526.0,52.0,53.0,5.0,93.0,502.526
502536.0,51.0,52.0,6.0,91.0,502.536
502546.0,50.0,50.0,5.0,87.0,502.546
502556.0,51.0,50.0,7.0,86.0,502.556
502566.0,50.0,49.0,5.0,81.0,502.566
502576.0,49.0,48.0,5.0,80.0,502.576
502586.0,50.0,49.0,7.0,111.0,502.586
502596.0,51.0,51.0,8.0,110.0,502.596
502606.0,51.0,50.0,8.0,101.0,502.606
502616.0,51.0,50.0,7.0,100.0,502.616
502626.0,51.0,49.0,8.0,97.0,502.626
502636.0,53.0,48.0,8.0,98.0,502.636
502646.0,52.0,49.0,7.0,100.0,502.646
502656.0,52.0,49.0,6.0,100.0,502.656
502666.0,51.0,50.0,8.0,99.0,502.666
502676.0,50.0,50.0,8.0,101.0,502.676
502686.0,50.0,49.0,7.0,109.0,502.686
502696.0,51.0,50.0,8.0,106.0,502.696
502706.0,49.0,50.0,8.0,107.0,502.706
502716.0,48.0,49.0,8.0,104.0,502.716
502726.0,48.0,48.0,8.0,96.0,502.726
502736.0,48.0,49.0,7.0,98.0,502.736
502746.0,48.0,48.0,7.0,96.0,502.746
502756.0,47.0,47.0,7.0,89.0,502.756
502766.0,47.0,49.0,7.0,90.0,502.766
502776.0,47.0,48.0,6.0,92.0,502.776
502786.0,46.0,48.0,7.0,95.0,502.786
502796.0,47.0,47.0,7.0,108.0,502.796
502806.0,49.0,47.0,7.0,103.0,502.806
502816.0,49.0,44.0,7.0,100.0,502.816
502827.0,49.0,42.0,5.0,96.0,502.827
502837.0,50.0,42.0,6.0,91.0,502.837
502847.0,50.0,42.0,6.0,91.0,502.847
502857.0,49.0,41.0,6.0,90.0,502.857
502867.0,51.0,40.0,5.0,83.0,502.867
502877.0,51.0,40.0,6.0,87.0,502.877
502887.0,50.0,38.0,6.0,83.0,502.887
502897.0,49.0,38.0,5.0,93.0,502.897
502907.0,49.0,37.0,9.0,91.0,502.907
502917.0,49.0,35.0,7.0,91.0,502.917
502927.0,50.0,36.0,6.0,92.0,502.927
502937.0,51.0,35.0,6.0,83.0,502.937
502947.0,51.0,36.0,7.0,81.0,502.947
502957.0,52.0,36.0,6.0,79.0,502.957
502967.0,52.0,35.0,5.0,85.0,502.967
502977.0,52.0,35.0,7.0,84.0,502.977
502987.0,53.0,35.0,6.0,79.0,502.987
502998.0,53.0,35.0,6.0,76.0,502.998
503008.0,54.0,35.0,6.0,73.0,503.008
503018.0,55.0,36.0,5.0,70.0,503.018
503028.0,55.0,36.0,8.0,76.0,503.028
503038.0,55.0,38.0,7.0,84.0,503.038
503048.0,57.0,39.0,8.0,89.0,503.048
503058.0,58.0,39.0,6.0,95.0,503.058
503068.0,58.0,40.0,6.0,97.0,503.068
503078.0,58.0,40.0,6.0,100.0,503.078
503088.0,58.0,40.0,8.0,104.0,503.088
503098.0,58.0,38.0,7.0,108.0,503.098
503108.0,57.0,38.0,7.0,108.0,503.108
503118.0,58.0,37.0,6.0,102.0,503.118
503128.0,57.0,37.0,6.0,98.0,503.128
503138.0,56.0,37.0,6.0,95.0,503.138
503148.0,57.0,37.0,6.0,92.0,503.148
503158.0,57.0,38.0,6.0,93.0,503.158
503168.0,57.0,38.0,6.0,94.0,503.168
503178.0,56.0,37.0,5.0,97.0,503.178
503188.0,55.0,37.0,6.0,94.0,503.188
503198.0,56.0,37.0,6.0,95.0,503.198
503208.0,56.0,37.0,6.0,96.0,503.208
503218.0,58.0,37.0,6.0,92.0,503.218
503228.0,57.0,37.0,6.0,91.0,503.228
503238.0,58.0,37.0,6.0,92.0,503.238
503248.0,58.0,36.0,7.0,93.0,503.248
503258.0,59.0,36.0,7.0,90.0,503.258
503268.0,60.0,37.0,6.0,90.0,503.268
503278.0,57.0,38.0,6.0,89.0,503.278
503288.0,58.0,40.0,6.0,93.0,503.288
503298.0,55.0,41.0,6.0,99.0,503.298
503308.0,55.0,40.0,6.0,96.0,503.308
503318.0,53.0,41.0,6.0,93.0,503.318
503328.0,54.0,43.0,7.0,87.0,503.328
503339.0,54.0,41.0,6.0,87.0,503.339
503349.0,54.0,42.0,7.0,85.0,503.349
503359.0,52.0,40.0,7.0,79.0,503.359
503369.0,51.0,40.0,7.0,79.0,503.369
503379.0,51.0,37.0,7.0,82.0,503.379
503389.0,51.0,38.0,7.0,80.0,503.389
503399.0,51.0,37.0,7.0,82.0,503.399
503409.0,52.0,36.0,6.0,86.0,503.409
503419.0,51.0,36.0,6.0,82.0,503.419
503429.0,52.0,36.0,6.0,79.0,503.429
503439.0,53.0,36.0,6.0,82.0,503.439
503449.0,52.0,35.0,5.0,81.0,503.449
503459.0,52.0,37.0,5.0,81.0,503.459
503469.0,52.0,36.0,6.0,77.0,503.469
503479.0,55.0,38.0,8.0,75.0,503.479
503489.0,54.0,38.0,6.0,74.0,503.489
503499.0,55.0,37.0,7.0,87.0,503.499
503510.0,55.0,39.0,6.0,82.0,503.51
503520.0,54.0,38.0,6.0,77.0,503.52
503530.0,56.0,39.0,5.0,76.0,503.53
503540.0,56.0,39.0,6.0,77.0,503.54
503550.0,58.0,40.0,6.0,80.0,503.55
503560.0,56.0,39.0,4.0,84.0,503.56
503570.0,57.0,39.0,7.0,87.0,503.57
503580.0,58.0,38.0,7.0,88.0,503.58
503590.0,58.0,36.0,7.0,82.0,503.59
503600.0,59.0,36.0,7.0,84.0,503.6
503610.0,58.0,36.0,6.0,84.0,503.61
503620.0,59.0,35.0,6.0,81.0,503.62
503630.0,61.0,36.0,6.0,84.0,503.63
503640.0,61.0,36.0,8.0,88.0,503.64
503650.0,63.0,37.0,7.0,89.0,503.65
503660.0,62.0,36.0,8.0,82.0,503.66
503670.0,60.0,36.0,7.0,79.0,503.67
503680.0,61.0,37.0,7.0,80.0,503.68
503690.0,63.0,36.0,8.0,81.0,503.69
503700.0,62.0,36.0,6.0,86.0,503.7
503710.0,63.0,37.0,6.0,85.0,503.71
503720.0,63.0,40.0,6.0,89.0,503.72
503730.0,63.0,41.0,6.0,84.0,503.73
503740.0,63.0,42.0,8.0,93.0,503.74
503750.0,64.0,43.0,8.0,91.0,503.75
503760.0,65.0,43.0,8.0,95.0,503.76
503770.0,64.0,44.0,6.0,98.0,503.77
503780.0,65.0,41.0,7.0,93.0,503.78
503790.0,65.0,42.0,9.0,106.0,503.79
503800.0,66.0,42.0,8.0,108.0,503.8
503810.0,67.0,42.0,8.0,105.0,503.81
503820.0,67.0,40.0,8.0,112.0,503.82
503830.0,67.0,40.0,8.0,106.0,503.83
503840.0,66.0,42.0,6.0,102.0,503.84
503851.0,65.0,41.0,6.0,97.0,503.851
503861.0,65.0,43.0,6.0,97.0,503.861
503871.0,64.0,42.0,5.0,94.0,503.871
503881.0,63.0,42.0,5.0,94.0,503.881
503891.0,62.0,42.0,6.0,95.0,503.891
503901.0,65.0,43.0,6.0,91.0,503.901
503911.0,64.0,44.0,4.0,99.0,503.911
503921.0,66.0,44.0,5.0,94.0,503.921
503931.0,66.0,45.0,5.0,101.0,503.931
503941.0,66.0,44.0,7.0,100.0,503.941
503951.0,65.0,44.0,8.0,98.0,503.951
503961.0,64.0,43.0,8.0,99.0,503.961
503971.0,63.0,41.0,7.0,94.0,503.971
503981.0,62.0,41.0,6.0,92.0,503.981
503991.0,61.0,40.0,7.0,94.0,503.991
504001.0,60.0,40.0,6.0,97.0,504.001
504011.0,60.0,38.0,8.0,100.0,504.011
504022.0,60.0,37.0,7.0,94.0,504.022
504032.0,60.0,36.0,8.0,96.0,504.032
504042.0,62.0,37.0,8.0,93.0,504.042
504052.0,61.0,37.0,7.0,90.0,504.052
504062.0,61.0,36.0,7.0,93.0,504.062
504072.0,60.0,36.0,7.0,90.0,504.072
504082.0,61.0,36.0,10.0,90.0,504.082
504092.0,59.0,35.0,9.0,88.0,504.092
504102.0,60.0,36.0,9.0,88.0,504.102
504112.0,61.0,36.0,11.0,85.0,504.112
504122.0,62.0,36.0,10.0,80.0,504.122
504132.0,62.0,35.0,11.0,87.0,504.132
504142.0,62.0,34.0,10.0,83.0,504.142
504152.0,61.0,35.0,8.0,81.0,504.152
504162.0,60.0,36.0,10.0,90.0,504.162
504172.0,59.0,37.0,9.0,85.0,504.172
504182.0,60.0,39.0,10.0,90.0,504.182
504192.0,59.0,41.0,9.0,94.0,504.192
504202.0,59.0,42.0,11.0,99.0,504.202
504212.0,59.0,42.0,9.0,98.0,504.212
504222.0,57.0,42.0,9.0,93.0,504.222
504232.0,57.0,42.0,9.0,95.0,504.232
504242.0,55.0,42.0,9.0,94.0,504.242
504252.0,54.0,42.0,9.0,95.0,504.252
504262.0,51.0,42.0,8.0,94.0,504.262
504272.0,51.0,43.0,7.0,96.0,504.272
504282.0,50.0,43.0,7.0,90.0,504.282
504292.0,50.0,40.0,7.0,101.0,504.292
504302.0,49.0,40.0,6.0,93.0,504.302
504312.0,48.0,40.0,5.0,91.0,504.312
504322.0,50.0,40.0,6.0,93.0,504.322
504332.0,49.0,40.0,6.0,93.0,504.332
504342.0,50.0,40.0,8.0,87.0,504.342
504352.0,50.0,41.0,7.0,90.0,504.352
504363.0,49.0,41.0,6.0,84.0,504.363
504373.0,51.0,43.0,6.0,84.0,504.373
504383.0,49.0,44.0,5.0,83.0,504.383
504393.0,51.0,44.0,7.0,84.0,504.393
504403.0,48.0,44.0,7.0,89.0,504.403
504413.0,48.0,45.0,7.0,93.0,504.413
504423.0,48.0,47.0,7.0,87.0,504.423
504433.0,49.0,49.0,7.0,83.0,504.433
504443.0,48.0,48.0,6.0,82.0,504.443
504453.0,47.0,46.0,5.0,84.0,504.453
504463.0,47.0,43.0,6.0,90.0,504.463
504473.0,46.0,43.0,6.0,89.0,504.473
504483.0,46.0,41.0,5.0,85.0,504.483
504493.0,48.0,43.0,5.0,83.0,504.493
504503.0,48.0,43.0,6.0,84.0,504.503
504513.0,48.0,42.0,5.0,80.0,504.513
504523.0,49.0,41.0,5.0,82.0,504.523
504534.0,49.0,39.0,6.0,78.0,504.534
504544.0,48.0,38.0,4.0,76.0,504.544
504554.0,48.0,38.0,5.0,85.0,504.554
504564.0,49.0,38.0,7.0,83.0,504.564
504574.0,50.0,38.0,7.0,76.0,504.574
504584.0,50.0,36.0,7.0,76.0,504.584
504594.0,49.0,37.0,7.0,79.0,504.594
504604.0,52.0,35.0,7.0,77.0,504.604
504614.0,52.0,36.0,6.0,79.0,504.614
504624.0,51.0,35.0,6.0,77.0,504.624
504634.0,51.0,36.0,7.0,79.0,504.634
504644.0,51.0,35.0,6.0,77.0,504.644
504654.0,51.0,34.0,6.0,77.0,504.654
504664.0,51.0,34.0,5.0,84.0,504.664
504674.0,51.0,34.0,7.0,88.0,504.674
504684.0,49.0,34.0,4.0,85.0,504.684
504694.0,49.0,33.0,6.0,84.0,504.694
504704.0,48.0,33.0,5.0,81.0,504.704
504714.0,48.0,34.0,6.0,93.0,504.714
504724.0,47.0,34.0,6.0,99.0,504.724
504734.0,45.0,33.0,5.0,103.0,504.734
504744.0,47.0,33.0,6.0,95.0,504.744
504754.0,46.0,34.0,5.0,95.0,504.754
504764.0,46.0,34.0,5.0,93.0,504.764
504774.0,47.0,34.0,5.0,90.0,504.774
504784.0,48.0,35.0,5.0,84.0,504.784
504794.0,47.0,36.0,5.0,82.0,504.794
504804.0,47.0,36.0,5.0,86.0,504.804
504814.0,46.0,36.0,6.0,90.0,504.814
504824.0,46.0,36.0,6.0,90.0,504.824
504834.0,46.0,38.0,5.0,89.0,504.834
504844.0,45.0,39.0,6.0,85.0,504.844
504854.0,45.0,41.0,5.0,78.0,504.854
504864.0,45.0,40.0,5.0,76.0,504.864
504875.0,44.0,44.0,5.0,84.0,504.875
504885.0,46.0,43.0,7.0,88.0,504.885
504895.0,45.0,45.0,5.0,96.0,504.895
504905.0,45.0,47.0,5.0,101.0,504.905
504915.0,46.0,48.0,6.0,99.0,504.915
504925.0,43.0,49.0,6.0,104.0,504.925
504935.0,45.0,50.0,6.0,108.0,504.935
504945.0,43.0,50.0,5.0,105.0,504.945
504955.0,45.0,49.0,8.0,105.0,504.955
504965.0,45.0,49.0,5.0,98.0,504.965
504975.0,46.0,48.0,6.0,94.0,504.975
504985.0,47.0,47.0,6.0,97.0,504.985
504995.0,47.0,45.0,6.0,96.0,504.995
505005.0,47.0,44.0,6.0,90.0,505.005
505015.0,46.0,44.0,7.0,94.0,505.015
505025.0,49.0,42.0,7.0,91.0,505.025
505035.0,48.0,42.0,6.0,85.0,505.035
505046.0,49.0,40.0,5.0,87.0,505.046
505056.0,49.0,41.0,6.0,85.0,505.056
505066.0,49.0,41.0,6.0,84.0,505.066
505076.0,49.0,39.0,5.0,81.0,505.076
505086.0,49.0,39.0,6.0,86.0,505.086
505096.0,49.0,38.0,9.0,87.0,505.096
505106.0,49.0,38.0,10.0,94.0,505.106
505116.0,51.0,37.0,9.0,89.0,505.116
505126.0,51.0,38.0,8.0,106.0,505.126
505136.0,52.0,37.0,8.0,100.0,505.136
505146.0,53.0,36.0,9.0,96.0,505.146
505156.0,52.0,36.0,8.0,93.0,505.156
505166.0,53.0,35.0,9.0,88.0,505.166
505176.0,52.0,35.0,8.0,89.0,505.176
505186.0,53.0,36.0,7.0,98.0,505.186
505196.0,53.0,36.0,6.0,101.0,505.196
505206.0,54.0,35.0,6.0,95.0,505.206
505216.0,55.0,34.0,6.0,94.0,505.216
505226.0,53.0,35.0,5.0,86.0,505.226
505236.0,55.0,35.0,7.0,95.0,505.236
505246.0,54.0,36.0,6.0,104.0,505.246
505256.0,54.0,35.0,6.0,99.0,505.256
505266.0,52.0,35.0,7.0,95.0,505.266
505276.0,51.0,36.0,8.0,87.0,505.276
505286.0,51.0,36.0,7.0,87.0,505.286
505296.0,51.0,36.0,5.0,90.0,505.296
505306.0,52.0,37.0,11.0,98.0,505.306
505316.0,52.0,37.0,8.0,100.0,505.316
505326.0,52.0,39.0,9.0,102.0,505.326
505336.0,53.0,41.0,9.0,101.0,505.336
505346.0,55.0,42.0,8.0,98.0,505.346
505356.0,56.0,42.0,7.0,97.0,505.356
505366.0,57.0,44.0,7.0,92.0,505.366
505376.0,59.0,44.0,9.0,91.0,505.376
505387.0,58.0,44.0,7.0,90.0,505.387
505397.0,59.0,43.0,7.0,87.0,505.397
505407.0,60.0,41.0,7.0,87.0,505.407
505417.0,60.0,41.0,6.0,86.0,505.417
505427.0,62.0,40.0,7.0,94.0,505.427
505437.0,60.0,40.0,9.0,104.0,505.437
505447.0,61.0,40.0,11.0,104.0,505.447
505457.0,61.0,39.0,9.0,102.0,505.457
505467.0,61.0,38.0,9.0,100.0,505.467
505477.0,61.0,37.0,8.0,93.0,505.477
505487.0,62.0,37.0,8.0,94.0,505.487
505497.0,62.0,36.0,7.0,95.0,505.497
505507.0,60.0,38.0,5.0,92.0,505.507
505517.0,61.0,37.0,9.0,94.0,505.517
505527.0,61.0,38.0,7.0,93.0,505.527
505537.0,61.0,37.0,7.0,91.0,505.537
505547.0,60.0,37.0,6.0,88.0,505.547
505558.0,58.0,40.0,6.0,100.0,505.558
505568.0,58.0,41.0,6.0,99.0,505.568
505578.0,55.0,43.0,6.0,96.0,505.578
505588.0,54.0,42.0,6.0,93.0,505.588
505598.0,54.0,42.0,5.0,96.0,505.598
505608.0,54.0,45.0,7.0,109.0,505.608
505618.0,54.0,45.0,7.0,108.0,505.618
505628.0,53.0,47.0,6.0,106.0,505.628
505638.0,53.0,47.0,6.0,101.0,505.638
505648.0,52.0,48.0,5.0,96.0,505.648
505658.0,54.0,49.0,7.0,97.0,505.658
505668.0,52.0,49.0,5.0,95.0,505.668
505678.0,50.0,50.0,8.0,99.0,505.678
505688.0,50.0,51.0,10.0,99.0,505.688
505698.0,50.0,51.0,10.0,105.0,505.698
505708.0,49.0,51.0,8.0,105.0,505.708
505718.0,49.0,51.0,8.0,100.0,505.718
505728.0,49.0,53.0,9.0,95.0,505.728
505738.0,48.0,55.0,6.0,96.0,505.738
505748.0,50.0,55.0,6.0,93.0,505.748
505758.0,50.0,57.0,7.0,103.0,505.758
505768.0,51.0,58.0,7.0,98.0,505.768
505778.0,53.0,58.0,6.0,90.0,505.778
505788.0,54.0,59.0,5.0,89.0,505.788
505798.0,56.0,59.0,9.0,105.0,505.798
505808.0,57.0,62.0,8.0,115.0,505.808
505818.0,58.0,63.0,7.0,111.0,505.818
505828.0,58.0,64.0,8.0,109.0,505.828
505838.0,58.0,65.0,7.0,102.0,505.838
505848.0,60.0,64.0,7.0,100.0,505.848
505858.0,59.0,66.0,7.0,103.0,505.858
505868.0,63.0,64.0,8.0,106.0,505.868
505878.0,63.0,64.0,7.0,105.0,505.878
505888.0,63.0,63.0,7.0,102.0,505.888
505899.0,64.0,62.0,7.0,102.0,505.899
505909.0,63.0,63.0,8.0,103.0,505.909
505919.0,62.0,62.0,7.0,114.0,505.919
505929.0,62.0,60.0,7.0,107.0,505.929
505939.0,61.0,60.0,7.0,99.0,505.939
505949.0,61.0,59.0,6.0,97.0,505.949
505959.0,59.0,58.0,6.0,101.0,505.959
505969.0,60.0,56.0,8.0,107.0,505.969
505979.0,60.0,55.0,8.0,104.0,505.979
505989.0,60.0,54.0,7.0,98.0,505.989
505999.0,60.0,55.0,7.0,101.0,505.999
506009.0,61.0,54.0,7.0,94.0,506.009
506019.0,60.0,53.0,6.0,99.0,506.019
506029.0,60.0,54.0,9.0,110.0,506.029
506039.0,61.0,55.0,9.0,105.0,506.039
506049.0,61.0,56.0,8.0,99.0,506.049
506059.0,61.0,55.0,7.0,94.0,506.059
506070.0,61.0,55.0,7.0,90.0,506.07
506080.0,61.0,57.0,8.0,91.0,506.08
506090.0,59.0,59.0,8.0,86.0,506.09
506100.0,59.0,57.0,9.0,83.0,506.1
506110.0,58.0,57.0,9.0,81.0,506.11
506120.0,57.0,57.0,8.0,78.0,506.12
506130.0,55.0,55.0,7.0,78.0,506.13
506140.0,53.0,57.0,7.0,82.0,506.14
506150.0,54.0,57.0,8.0,85.0,506.15
506160.0,53.0,56.0,7.0,86.0,506.16
506170.0,52.0,56.0,7.0,85.0,506.17
506180.0,53.0,55.0,9.0,93.0,506.18
506190.0,51.0,55.0,7.0,90.0,506.19
506200.0,53.0,54.0,9.0,94.0,506.2
506210.0,52.0,55.0,8.0,94.0,506.21
506220.0,54.0,54.0,9.0,94.0,506.22
506230.0,54.0,53.0,7.0,93.0,506.23
506240.0,54.0,53.0,9.0,98.0,506.24
506250.0,55.0,53.0,8.0,100.0,506.25
506260.0,57.0,51.0,8.0,95.0,506.26
506270.0,57.0,50.0,7.0,91.0,506.27
506280.0,57.0,50.0,7.0,97.0,506.28
506290.0,59.0,50.0,8.0,97.0,506.29
506300.0,58.0,49.0,7.0,91.0,506.3
506310.0,55.0,49.0,9.0,96.0,506.31
506320.0,57.0,47.0,9.0,98.0,506.32
506330.0,57.0,47.0,8.0,96.0,506.33
506340.0,57.0,46.0,7.0,98.0,506.34
506350.0,56.0,47.0,8.0,104.0,506.35
506360.0,56.0,47.0,9.0,97.0,506.36
506370.0,56.0,46.0,6.0,95.0,506.37
506380.0,55.0,47.0,7.0,101.0,506.38
506390.0,54.0,47.0,8.0,101.0,506.39
506400.0,54.0,46.0,7.0,97.0,506.4
506411.0,54.0,44.0,7.0,99.0,506.411
506421.0,55.0,45.0,7.0,93.0,506.421
506431.0,57.0,43.0,8.0,90.0,506.431
506441.0,56.0,43.0,6.0,86.0,506.441
506451.0,55.0,41.0,6.0,90.0,506.451
506461.0,56.0,40.0,6.0,91.0,506.461
506471.0,55.0,40.0,7.0,98.0,506.471
506481.0,56.0,38.0,7.0,94.0,506.481
506491.0,53.0,39.0,7.0,89.0,506.491
506501.0,54.0,38.0,9.0,90.0,506.501
506511.0,54.0,38.0,7.0,83.0,506.511
506521.0,54.0,37.0,7.0,81.0,506.521
506531.0,53.0,36.0,6.0,81.0,506.531
506541.0,53.0,36.0,9.0,80.0,506.541
506551.0,53.0,36.0,8.0,96.0,506.551
506561.0,52.0,36.0,8.0,91.0,506.561
506571.0,52.0,35.0,8.0,87.0,506.571
506582.0,52.0,36.0,6.0,88.0,506.582
506592.0,51.0,36.0,6.0,88.0,506.592
506602.0,51.0,36.0,6.0,93.0,506.602
506612.0,50.0,36.0,6.0,100.0,506.612
506622.0,50.0,34.0,6.0,103.0,506.622
506632.0,50.0,35.0,5.0,98.0,506.632
506642.0,49.0,35.0,6.0,98.0,506.642
506652.0,49.0,35.0,6.0,95.0,506.652
506662.0,48.0,35.0,5.0,97.0,506.662
506672.0,48.0,35.0,5.0,100.0,506.672
506682.0,49.0,35.0,5.0,103.0,506.682
506692.0,48.0,34.0,5.0,108.0,506.692
506702.0,48.0,35.0,8.0,116.0,506.702
506712.0,49.0,36.0,8.0,111.0,506.712
506722.0,48.0,35.0,7.0,105.0,506.722
506732.0,48.0,35.0,6.0,104.0,506.732
506742.0,48.0,35.0,7.0,99.0,506.742
506752.0,48.0,35.0,7.0,96.0,506.752
506762.0,48.0,35.0,6.0,110.0,506.762
506772.0,48.0,36.0,5.0,106.0,506.772
506782.0,48.0,38.0,9.0,96.0,506.782
506792.0,47.0,40.0,7.0,95.0,506.792
506802.0,47.0,41.0,7.0,96.0,506.802
506812.0,46.0,40.0,7.0,93.0,506.812
