time (ms),signal 0,signal 1,signal 2,signal3,time (sec)
342460.0,72.0,195.0,31.0,76.0,342.46
342470.0,73.0,196.0,27.0,70.0,342.47
342480.0,73.0,195.0,27.0,71.0,342.48
342490.0,72.0,193.0,28.0,73.0,342.49
342500.0,71.0,190.0,39.0,70.0,342.5
342510.0,73.0,193.0,41.0,86.0,342.51
342520.0,73.0,191.0,37.0,83.0,342.52
342530.0,72.0,189.0,40.0,78.0,342.53
342540.0,73.0,189.0,37.0,74.0,342.54
342550.0,71.0,184.0,33.0,72.0,342.55
342560.0,71.0,183.0,32.0,80.0,342.56
342571.0,71.0,182.0,31.0,85.0,342.571
342581.0,70.0,179.0,42.0,81.0,342.581
342591.0,71.0,179.0,43.0,79.0,342.591
342601.0,70.0,178.0,46.0,74.0,342.601
342611.0,70.0,177.0,41.0,70.0,342.611
342621.0,70.0,174.0,37.0,66.0,342.621
342631.0,68.0,171.0,34.0,67.0,342.631
342641.0,68.0,169.0,35.0,72.0,342.641
342651.0,70.0,169.0,33.0,74.0,342.651
342661.0,69.0,164.0,36.0,70.0,342.661
342671.0,68.0,165.0,42.0,70.0,342.671
342681.0,69.0,163.0,42.0,71.0,342.681
342691.0,69.0,161.0,37.0,72.0,342.691
342701.0,69.0,159.0,37.0,69.0,342.701
342711.0,68.0,155.0,39.0,69.0,342.711
342721.0,71.0,155.0,38.0,71.0,342.721
342731.0,71.0,154.0,34.0,66.0,342.731
342742.0,71.0,153.0,42.0,72.0,342.742
342752.0,68.0,151.0,42.0,78.0,342.752
342762.0,67.0,151.0,42.0,84.0,342.762
342772.0,66.0,149.0,37.0,81.0,342.772
342782.0,66.0,146.0,35.0,78.0,342.782
342792.0,65.0,145.0,31.0,75.0,342.792
342802.0,64.0,143.0,29.0,73.0,342.802
342812.0,64.0,142.0,27.0,81.0,342.812
342822.0,62.0,137.0,32.0,78.0,342.822
342832.0,64.0,139.0,38.0,77.0,342.832
342842.0,61.0,138.0,35.0,78.0,342.842
342852.0,61.0,136.0,36.0,76.0,342.852
342862.0,59.0,133.0,38.0,75.0,342.862
342872.0,60.0,132.0,37.0,76.0,342.872
342882.0,60.0,132.0,33.0,77.0,342.882
342892.0,59.0,131.0,32.0,77.0,342.892
342902.0,60.0,129.0,30.0,74.0,342.902
342912.0,58.0,130.0,36.0,81.0,342.912
342922.0,58.0,128.0,42.0,84.0,342.922
342932.0,59.0,129.0,40.0,84.0,342.932
342942.0,60.0,130.0,37.0,81.0,342.942
342952.0,59.0,128.0,33.0,79.0,342.952
342962.0,59.0,128.0,31.0,76.0,342.962
342972.0,59.0,127.0,31.0,77.0,342.972
342982.0,56.0,125.0,30.0,80.0,342.982
342992.0,55.0,121.0,42.0,83.0,342.992
343002.0,56.0,122.0,50.0,90.0,343.002
343012.0,57.0,120.0,55.0,87.0,343.012
343022.0,56.0,120.0,48.0,85.0,343.022
343032.0,55.0,122.0,43.0,79.0,343.032
343042.0,54.0,122.0,40.0,77.0,343.042
343052.0,52.0,121.0,39.0,86.0,343.052
343062.0,52.0,120.0,50.0,87.0,343.062
343072.0,51.0,121.0,53.0,87.0,343.072
343083.0,52.0,118.0,56.0,83.0,343.083
343093.0,52.0,118.0,48.0,82.0,343.093
343103.0,50.0,117.0,48.0,80.0,343.103
343113.0,51.0,115.0,44.0,79.0,343.113
343123.0,51.0,116.0,50.0,84.0,343.123
343133.0,52.0,112.0,47.0,82.0,343.133
343143.0,53.0,115.0,53.0,84.0,343.143
343153.0,52.0,114.0,48.0,77.0,343.153
343163.0,53.0,114.0,43.0,77.0,343.163
343173.0,52.0,113.0,42.0,77.0,343.173
343183.0,52.0,111.0,56.0,79.0,343.183
343193.0,50.0,109.0,66.0,77.0,343.193
343203.0,51.0,108.0,62.0,78.0,343.203
343213.0,49.0,107.0,55.0,76.0,343.213
343223.0,48.0,106.0,49.0,72.0,343.223
343233.0,48.0,104.0,47.0,79.0,343.233
343243.0,47.0,102.0,43.0,86.0,343.243
343254.0,48.0,100.0,40.0,81.0,343.254
343264.0,48.0,96.0,38.0,77.0,343.264
343274.0,49.0,94.0,37.0,74.0,343.274
343284.0,48.0,90.0,36.0,76.0,343.284
343294.0,49.0,87.0,35.0,78.0,343.294
343304.0,50.0,83.0,43.0,79.0,343.304
343314.0,50.0,82.0,42.0,79.0,343.314
343324.0,49.0,78.0,43.0,77.0,343.324
343334.0,49.0,77.0,54.0,82.0,343.334
343344.0,49.0,73.0,49.0,81.0,343.344
343354.0,49.0,71.0,46.0,73.0,343.354
343364.0,47.0,66.0,45.0,73.0,343.364
343374.0,50.0,64.0,43.0,74.0,343.374
343384.0,52.0,65.0,46.0,79.0,343.384
343394.0,51.0,61.0,40.0,76.0,343.394
343404.0,53.0,61.0,36.0,78.0,343.404
343414.0,54.0,58.0,40.0,76.0,343.414
343424.0,53.0,57.0,38.0,73.0,343.424
343434.0,53.0,55.0,41.0,67.0,343.434
343444.0,53.0,53.0,46.0,70.0,343.444
343454.0,54.0,53.0,40.0,75.0,343.454
343464.0,54.0,52.0,36.0,84.0,343.464
343474.0,56.0,51.0,32.0,79.0,343.474
343484.0,56.0,53.0,43.0,84.0,343.484
343494.0,56.0,52.0,43.0,86.0,343.494
343504.0,57.0,51.0,50.0,86.0,343.504
343514.0,56.0,50.0,51.0,86.0,343.514
343524.0,55.0,49.0,48.0,89.0,343.524
343534.0,58.0,49.0,44.0,92.0,343.534
343544.0,57.0,48.0,40.0,87.0,343.544
343554.0,58.0,47.0,39.0,85.0,343.554
343564.0,59.0,48.0,49.0,81.0,343.564
343574.0,57.0,47.0,44.0,76.0,343.574
343584.0,58.0,47.0,40.0,79.0,343.584
343595.0,56.0,46.0,38.0,77.0,343.595
343605.0,56.0,45.0,40.0,80.0,343.605
343615.0,55.0,47.0,38.0,87.0,343.615
343625.0,53.0,44.0,41.0,85.0,343.625
343635.0,53.0,46.0,40.0,86.0,343.635
343645.0,52.0,45.0,39.0,83.0,343.645
343655.0,53.0,45.0,37.0,81.0,343.655
343665.0,52.0,45.0,34.0,77.0,343.665
343675.0,51.0,44.0,39.0,85.0,343.675
343685.0,50.0,43.0,37.0,91.0,343.685
343695.0,50.0,43.0,44.0,86.0,343.695
343705.0,49.0,42.0,46.0,82.0,343.705
343715.0,49.0,42.0,47.0,81.0,343.715
343725.0,50.0,41.0,44.0,84.0,343.725
343735.0,48.0,40.0,38.0,80.0,343.735
343745.0,47.0,38.0,33.0,79.0,343.745
343755.0,50.0,42.0,35.0,78.0,343.755
343766.0,50.0,41.0,36.0,76.0,343.766
343776.0,51.0,42.0,43.0,78.0,343.776
343786.0,51.0,42.0,42.0,92.0,343.786
343796.0,52.0,40.0,37.0,85.0,343.796
343806.0,50.0,40.0,37.0,79.0,343.806
343816.0,52.0,39.0,38.0,75.0,343.816
343826.0,51.0,39.0,34.0,75.0,343.826
343836.0,51.0,40.0,41.0,86.0,343.836
343846.0,51.0,41.0,44.0,80.0,343.846
343856.0,51.0,40.0,43.0,77.0,343.856
343866.0,52.0,40.0,45.0,74.0,343.866
343876.0,52.0,40.0,42.0,71.0,343.876
343886.0,52.0,38.0,39.0,69.0,343.886
343896.0,52.0,40.0,35.0,74.0,343.896
343906.0,51.0,40.0,34.0,75.0,343.906
343916.0,51.0,43.0,39.0,74.0,343.916
343926.0,52.0,42.0,39.0,74.0,343.926
343936.0,51.0,40.0,35.0,72.0,343.936
343946.0,51.0,40.0,32.0,70.0,343.946
343956.0,51.0,41.0,31.0,69.0,343.956
343966.0,52.0,41.0,27.0,68.0,343.966
343976.0,51.0,42.0,26.0,68.0,343.976
343986.0,51.0,44.0,31.0,70.0,343.986
343996.0,53.0,49.0,55.0,76.0,343.996
344006.0,55.0,48.0,49.0,77.0,344.006
344016.0,54.0,48.0,44.0,77.0,344.016
344026.0,54.0,47.0,46.0,76.0,344.026
344036.0,53.0,47.0,40.0,77.0,344.036
344046.0,54.0,46.0,43.0,76.0,344.046
344056.0,54.0,45.0,43.0,74.0,344.056
344066.0,54.0,45.0,43.0,79.0,344.066
344076.0,56.0,47.0,41.0,76.0,344.076
344086.0,55.0,48.0,40.0,80.0,344.086
344096.0,57.0,45.0,37.0,82.0,344.096
344107.0,58.0,47.0,46.0,82.0,344.107
344117.0,58.0,45.0,41.0,82.0,344.117
344127.0,59.0,44.0,36.0,84.0,344.127
344137.0,58.0,43.0,32.0,82.0,344.137
344147.0,59.0,42.0,33.0,77.0,344.147
344157.0,58.0,42.0,32.0,78.0,344.157
344167.0,59.0,42.0,35.0,75.0,344.167
344177.0,60.0,44.0,41.0,74.0,344.177
344187.0,62.0,44.0,46.0,70.0,344.187
344197.0,63.0,44.0,43.0,71.0,344.197
344207.0,64.0,46.0,41.0,70.0,344.207
344217.0,65.0,46.0,39.0,69.0,344.217
344227.0,66.0,46.0,46.0,78.0,344.227
344237.0,67.0,44.0,47.0,79.0,344.237
344247.0,66.0,45.0,57.0,83.0,344.247
344257.0,65.0,44.0,54.0,80.0,344.257
344267.0,64.0,44.0,55.0,80.0,344.267
344278.0,65.0,43.0,47.0,81.0,344.278
344288.0,66.0,43.0,44.0,85.0,344.288
344298.0,65.0,43.0,38.0,80.0,344.298
344308.0,63.0,45.0,44.0,79.0,344.308
344318.0,65.0,46.0,49.0,77.0,344.318
344328.0,64.0,44.0,43.0,73.0,344.328
344338.0,65.0,44.0,39.0,70.0,344.338
344348.0,65.0,46.0,39.0,71.0,344.348
344358.0,68.0,46.0,38.0,75.0,344.358
344368.0,67.0,48.0,34.0,74.0,344.368
344378.0,68.0,49.0,41.0,73.0,344.378
344388.0,67.0,51.0,45.0,73.0,344.388
344398.0,67.0,48.0,40.0,74.0,344.398
344408.0,67.0,49.0,37.0,71.0,344.408
344418.0,68.0,48.0,33.0,68.0,344.418
344428.0,69.0,50.0,36.0,70.0,344.428
344438.0,67.0,50.0,36.0,69.0,344.438
344448.0,68.0,51.0,35.0,77.0,344.448
344458.0,67.0,51.0,41.0,85.0,344.458
344468.0,69.0,48.0,38.0,83.0,344.468
344478.0,69.0,48.0,34.0,80.0,344.478
344488.0,69.0,47.0,31.0,78.0,344.488
344498.0,70.0,48.0,28.0,79.0,344.498
344508.0,70.0,49.0,32.0,80.0,344.508
344518.0,70.0,48.0,28.0,78.0,344.518
344528.0,68.0,51.0,37.0,82.0,344.528
344538.0,69.0,50.0,43.0,82.0,344.538
344548.0,67.0,48.0,39.0,85.0,344.548
344558.0,65.0,48.0,37.0,82.0,344.558
344568.0,67.0,47.0,35.0,80.0,344.568
344578.0,64.0,47.0,37.0,75.0,344.578
344588.0,63.0,48.0,37.0,76.0,344.588
344598.0,63.0,49.0,42.0,81.0,344.598
344608.0,62.0,49.0,39.0,81.0,344.608
344619.0,63.0,48.0,37.0,81.0,344.619
344629.0,63.0,46.0,37.0,78.0,344.629
344639.0,63.0,49.0,41.0,78.0,344.639
344649.0,62.0,49.0,44.0,79.0,344.649
344659.0,64.0,48.0,40.0,79.0,344.659
344669.0,67.0,47.0,41.0,82.0,344.669
344679.0,67.0,46.0,35.0,78.0,344.679
344689.0,67.0,44.0,33.0,75.0,344.689
344699.0,66.0,45.0,33.0,78.0,344.699
344709.0,66.0,46.0,47.0,79.0,344.709
344719.0,64.0,46.0,42.0,77.0,344.719
344729.0,62.0,46.0,45.0,76.0,344.729
344739.0,60.0,44.0,41.0,74.0,344.739
344749.0,59.0,44.0,41.0,71.0,344.749
344759.0,58.0,42.0,37.0,71.0,344.759
344769.0,57.0,42.0,33.0,74.0,344.769
344779.0,59.0,41.0,32.0,74.0,344.779
344790.0,56.0,41.0,30.0,76.0,344.79
344800.0,58.0,41.0,30.0,72.0,344.8
344810.0,58.0,42.0,34.0,71.0,344.81
344820.0,59.0,42.0,35.0,71.0,344.82
344830.0,60.0,40.0,32.0,69.0,344.83
344840.0,60.0,39.0,29.0,68.0,344.84
344850.0,61.0,38.0,27.0,67.0,344.85
344860.0,59.0,38.0,28.0,72.0,344.86
344870.0,59.0,39.0,28.0,65.0,344.87
344880.0,60.0,41.0,27.0,69.0,344.88
344890.0,59.0,42.0,31.0,72.0,344.89
344900.0,60.0,44.0,54.0,73.0,344.9
344910.0,60.0,44.0,49.0,76.0,344.91
344920.0,60.0,44.0,46.0,76.0,344.92
344930.0,60.0,45.0,48.0,76.0,344.93
344940.0,61.0,45.0,43.0,76.0,344.94
344950.0,61.0,45.0,37.0,72.0,344.95
344960.0,60.0,44.0,34.0,70.0,344.96
344970.0,60.0,44.0,35.0,66.0,344.97
344980.0,60.0,45.0,31.0,74.0,344.98
344990.0,61.0,44.0,31.0,77.0,344.99
345000.0,58.0,44.0,28.0,82.0,345.0
345010.0,58.0,45.0,27.0,81.0,345.01
345020.0,56.0,46.0,24.0,76.0,345.02
345030.0,55.0,48.0,22.0,75.0,345.03
345040.0,55.0,49.0,34.0,76.0,345.04
345050.0,54.0,50.0,31.0,73.0,345.05
345060.0,54.0,50.0,28.0,69.0,345.06
345070.0,53.0,50.0,26.0,66.0,345.07
345080.0,55.0,52.0,33.0,67.0,345.08
345090.0,58.0,50.0,31.0,67.0,345.09
345100.0,59.0,50.0,27.0,66.0,345.1
345110.0,60.0,54.0,35.0,80.0,345.11
345120.0,59.0,53.0,33.0,89.0,345.12
345131.0,59.0,51.0,31.0,88.0,345.131
345141.0,60.0,50.0,26.0,81.0,345.141
345151.0,59.0,50.0,25.0,73.0,345.151
345161.0,60.0,51.0,23.0,75.0,345.161
345171.0,61.0,53.0,33.0,84.0,345.171
345181.0,62.0,51.0,32.0,88.0,345.181
345191.0,61.0,51.0,33.0,93.0,345.191
345201.0,62.0,49.0,34.0,87.0,345.201
345211.0,63.0,48.0,32.0,83.0,345.211
345221.0,62.0,49.0,31.0,81.0,345.221
345231.0,61.0,49.0,35.0,85.0,345.231
345241.0,61.0,49.0,45.0,81.0,345.241
345251.0,62.0,50.0,63.0,78.0,345.251
345261.0,61.0,51.0,61.0,80.0,345.261
345271.0,62.0,48.0,60.0,75.0,345.271
345281.0,62.0,49.0,52.0,79.0,345.281
345291.0,60.0,50.0,49.0,80.0,345.291
345302.0,61.0,50.0,47.0,78.0,345.302
345312.0,61.0,51.0,53.0,84.0,345.312
345322.0,62.0,50.0,51.0,88.0,345.322
345332.0,61.0,50.0,54.0,110.0,345.332
345342.0,62.0,48.0,51.0,103.0,345.342
345352.0,63.0,48.0,49.0,107.0,345.352
345362.0,62.0,48.0,46.0,129.0,345.362
345372.0,65.0,47.0,42.0,144.0,345.372
345382.0,65.0,47.0,37.0,148.0,345.382
345392.0,65.0,48.0,41.0,151.0,345.392
345402.0,67.0,50.0,43.0,164.0,345.402
345412.0,67.0,48.0,39.0,165.0,345.412
345422.0,65.0,48.0,37.0,162.0,345.422
345432.0,65.0,48.0,37.0,158.0,345.432
345442.0,64.0,47.0,33.0,148.0,345.442
345452.0,63.0,49.0,30.0,133.0,345.452
345462.0,62.0,50.0,27.0,122.0,345.462
345472.0,62.0,50.0,25.0,126.0,345.472
345482.0,61.0,51.0,22.0,146.0,345.482
345492.0,62.0,51.0,41.0,139.0,345.492
345502.0,63.0,52.0,37.0,145.0,345.502
345512.0,63.0,52.0,32.0,143.0,345.512
345522.0,62.0,54.0,38.0,159.0,345.522
345532.0,66.0,52.0,45.0,184.0,345.532
345542.0,66.0,55.0,39.0,175.0,345.542
345552.0,68.0,56.0,38.0,190.0,345.552
345562.0,70.0,56.0,36.0,189.0,345.562
345572.0,69.0,59.0,34.0,188.0,345.572
345582.0,70.0,58.0,32.0,180.0,345.582
345592.0,70.0,58.0,32.0,194.0,345.592
345602.0,69.0,60.0,42.0,201.0,345.602
345612.0,71.0,60.0,42.0,235.0,345.612
345622.0,71.0,59.0,42.0,226.0,345.622
345632.0,71.0,56.0,39.0,230.0,345.632
345643.0,71.0,55.0,39.0,226.0,345.643
345653.0,73.0,53.0,40.0,216.0,345.653
345663.0,73.0,54.0,35.0,201.0,345.663
345673.0,71.0,56.0,50.0,200.0,345.673
345683.0,73.0,56.0,52.0,192.0,345.683
345693.0,74.0,56.0,54.0,205.0,345.693
345703.0,76.0,58.0,48.0,196.0,345.703
345713.0,74.0,61.0,42.0,212.0,345.713
345723.0,76.0,59.0,38.0,217.0,345.723
345733.0,72.0,63.0,34.0,215.0,345.733
345743.0,73.0,64.0,32.0,211.0,345.743
345753.0,73.0,68.0,27.0,217.0,345.753
345763.0,73.0,70.0,28.0,208.0,345.763
345773.0,70.0,73.0,25.0,195.0,345.773
345783.0,68.0,76.0,28.0,181.0,345.783
345793.0,67.0,77.0,33.0,165.0,345.793
345803.0,66.0,79.0,49.0,165.0,345.803
345814.0,64.0,78.0,45.0,165.0,345.814
345824.0,64.0,79.0,43.0,172.0,345.824
345834.0,63.0,79.0,40.0,192.0,345.834
345844.0,60.0,78.0,34.0,188.0,345.844
345854.0,58.0,79.0,32.0,190.0,345.854
345864.0,57.0,80.0,29.0,184.0,345.864
345874.0,56.0,81.0,30.0,171.0,345.874
345884.0,58.0,82.0,44.0,178.0,345.884
345894.0,59.0,82.0,47.0,190.0,345.894
345904.0,58.0,84.0,48.0,187.0,345.904
345914.0,59.0,87.0,70.0,184.0,345.914
345924.0,60.0,82.0,69.0,199.0,345.924
345934.0,60.0,84.0,71.0,198.0,345.934
345944.0,58.0,83.0,67.0,199.0,345.944
345954.0,58.0,80.0,61.0,251.0,345.954
345964.0,57.0,80.0,56.0,246.0,345.964
345974.0,56.0,80.0,55.0,227.0,345.974
345984.0,54.0,80.0,75.0,218.0,345.984
345994.0,55.0,76.0,74.0,209.0,345.994
346004.0,54.0,73.0,77.0,213.0,346.004
346014.0,57.0,69.0,72.0,239.0,346.014
346024.0,55.0,68.0,67.0,244.0,346.024
346034.0,53.0,68.0,61.0,257.0,346.034
346044.0,53.0,67.0,85.0,256.0,346.044
346054.0,53.0,63.0,81.0,256.0,346.054
346064.0,53.0,61.0,81.0,229.0,346.064
346074.0,53.0,59.0,75.0,211.0,346.074
346084.0,54.0,58.0,72.0,241.0,346.084
346094.0,57.0,58.0,102.0,256.0,346.094
346104.0,56.0,57.0,92.0,238.0,346.104
346114.0,55.0,54.0,82.0,244.0,346.114
346124.0,55.0,50.0,72.0,231.0,346.124
346134.0,56.0,50.0,63.0,226.0,346.134
346144.0,57.0,49.0,69.0,215.0,346.144
346155.0,56.0,50.0,62.0,196.0,346.155
346165.0,55.0,49.0,70.0,200.0,346.165
346175.0,57.0,48.0,69.0,212.0,346.175
346185.0,56.0,47.0,66.0,210.0,346.185
346195.0,58.0,46.0,66.0,211.0,346.195
346205.0,54.0,46.0,59.0,200.0,346.205
346215.0,56.0,45.0,63.0,208.0,346.215
346225.0,54.0,45.0,54.0,194.0,346.225
346235.0,55.0,41.0,49.0,196.0,346.235
346245.0,55.0,42.0,59.0,199.0,346.245
346255.0,54.0,41.0,57.0,187.0,346.255
346265.0,55.0,42.0,52.0,194.0,346.265
346275.0,54.0,44.0,51.0,209.0,346.275
346285.0,54.0,44.0,55.0,208.0,346.285
346295.0,56.0,46.0,63.0,208.0,346.295
346305.0,56.0,44.0,63.0,202.0,346.305
346315.0,55.0,45.0,57.0,199.0,346.315
346326.0,54.0,46.0,51.0,200.0,346.326
346336.0,54.0,48.0,51.0,182.0,346.336
346346.0,54.0,47.0,46.0,179.0,346.346
346356.0,55.0,50.0,52.0,168.0,346.356
346366.0,53.0,51.0,49.0,162.0,346.366
346376.0,54.0,49.0,45.0,170.0,346.376
346386.0,53.0,51.0,64.0,170.0,346.386
346396.0,56.0,53.0,81.0,165.0,346.396
346406.0,56.0,51.0,69.0,163.0,346.406
346416.0,57.0,50.0,65.0,153.0,346.416
346426.0,56.0,51.0,72.0,151.0,346.426
346436.0,55.0,51.0,72.0,146.0,346.436
346446.0,55.0,50.0,73.0,152.0,346.446
346456.0,55.0,52.0,70.0,196.0,346.456
346466.0,56.0,50.0,63.0,204.0,346.466
346476.0,55.0,50.0,55.0,208.0,346.476
346486.0,53.0,51.0,49.0,218.0,346.486
346496.0,55.0,52.0,45.0,215.0,346.496
346506.0,54.0,53.0,45.0,232.0,346.506
346516.0,55.0,52.0,55.0,220.0,346.516
346526.0,57.0,53.0,69.0,219.0,346.526
346536.0,57.0,53.0,65.0,211.0,346.536
346546.0,57.0,53.0,57.0,204.0,346.546
346556.0,55.0,55.0,57.0,196.0,346.556
346566.0,56.0,59.0,66.0,180.0,346.566
346576.0,58.0,58.0,58.0,189.0,346.576
346586.0,58.0,59.0,53.0,175.0,346.586
346596.0,58.0,60.0,53.0,190.0,346.596
346606.0,58.0,64.0,68.0,190.0,346.606
346616.0,61.0,63.0,65.0,197.0,346.616
346626.0,60.0,61.0,62.0,217.0,346.626
346636.0,63.0,59.0,67.0,208.0,346.636
346646.0,62.0,59.0,78.0,196.0,346.646
346656.0,60.0,58.0,68.0,175.0,346.656
346667.0,60.0,60.0,63.0,181.0,346.667
346677.0,58.0,59.0,57.0,168.0,346.677
346687.0,58.0,59.0,64.0,176.0,346.687
346697.0,59.0,57.0,57.0,188.0,346.697
346707.0,60.0,57.0,52.0,179.0,346.707
346717.0,58.0,61.0,52.0,180.0,346.717
346727.0,58.0,57.0,63.0,192.0,346.727
346737.0,59.0,55.0,65.0,208.0,346.737
346747.0,57.0,54.0,64.0,204.0,346.747
346757.0,58.0,54.0,77.0,204.0,346.757
346767.0,57.0,54.0,77.0,186.0,346.767
346777.0,59.0,54.0,84.0,200.0,346.777
346787.0,57.0,54.0,82.0,202.0,346.787
346797.0,55.0,54.0,83.0,186.0,346.797
346807.0,57.0,54.0,77.0,188.0,346.807
346817.0,55.0,55.0,70.0,181.0,346.817
346827.0,53.0,59.0,69.0,173.0,346.827
346838.0,52.0,59.0,66.0,192.0,346.838
346848.0,55.0,61.0,76.0,186.0,346.848
346858.0,55.0,60.0,68.0,193.0,346.858
346868.0,55.0,60.0,94.0,214.0,346.868
346878.0,56.0,58.0,86.0,210.0,346.878
346888.0,56.0,60.0,79.0,202.0,346.888
346898.0,57.0,62.0,69.0,193.0,346.898
346908.0,55.0,63.0,64.0,182.0,346.908
346918.0,56.0,64.0,57.0,167.0,346.918
346928.0,56.0,68.0,64.0,181.0,346.928
346938.0,56.0,68.0,70.0,181.0,346.938
346948.0,56.0,67.0,64.0,179.0,346.948
346958.0,57.0,65.0,63.0,176.0,346.958
346968.0,58.0,70.0,56.0,170.0,346.968
346978.0,57.0,68.0,49.0,212.0,346.978
346988.0,57.0,69.0,50.0,212.0,346.988
346998.0,58.0,69.0,56.0,194.0,346.998
347008.0,58.0,68.0,57.0,209.0,347.008
347018.0,58.0,68.0,57.0,204.0,347.018
347028.0,59.0,68.0,67.0,204.0,347.028
347038.0,60.0,69.0,69.0,206.0,347.038
347048.0,57.0,71.0,67.0,196.0,347.048
347058.0,59.0,72.0,73.0,189.0,347.058
347068.0,59.0,74.0,69.0,186.0,347.068
347078.0,60.0,71.0,65.0,170.0,347.078
347088.0,63.0,69.0,60.0,167.0,347.088
347098.0,61.0,69.0,53.0,181.0,347.098
347108.0,63.0,68.0,51.0,167.0,347.108
347118.0,63.0,70.0,46.0,165.0,347.118
347128.0,64.0,71.0,49.0,183.0,347.128
347138.0,61.0,72.0,44.0,169.0,347.138
347148.0,61.0,76.0,57.0,179.0,347.148
347158.0,64.0,72.0,63.0,187.0,347.158
347168.0,64.0,69.0,57.0,177.0,347.168
347179.0,63.0,68.0,53.0,177.0,347.179
347189.0,64.0,69.0,46.0,175.0,347.189
347199.0,64.0,69.0,43.0,181.0,347.199
347209.0,63.0,70.0,44.0,172.0,347.209
347219.0,62.0,71.0,38.0,174.0,347.219
347229.0,62.0,71.0,35.0,170.0,347.229
347239.0,61.0,72.0,39.0,167.0,347.239
347249.0,61.0,72.0,59.0,166.0,347.249
347259.0,58.0,71.0,58.0,165.0,347.259
347269.0,59.0,68.0,59.0,168.0,347.269
347279.0,58.0,69.0,63.0,160.0,347.279
347289.0,59.0,66.0,57.0,160.0,347.289
347299.0,57.0,67.0,52.0,151.0,347.299
347309.0,57.0,66.0,50.0,184.0,347.309
347319.0,56.0,65.0,48.0,191.0,347.319
347329.0,53.0,65.0,49.0,184.0,347.329
347339.0,53.0,65.0,46.0,167.0,347.339
347350.0,53.0,63.0,42.0,164.0,347.35
347360.0,52.0,66.0,45.0,160.0,347.36
347370.0,52.0,67.0,41.0,155.0,347.37
347380.0,51.0,64.0,48.0,142.0,347.38
347390.0,51.0,64.0,51.0,138.0,347.39
347400.0,54.0,63.0,58.0,136.0,347.4
347410.0,58.0,62.0,66.0,165.0,347.41
347420.0,58.0,60.0,57.0,167.0,347.42
347430.0,58.0,61.0,50.0,168.0,347.43
347440.0,57.0,61.0,46.0,169.0,347.44
347450.0,57.0,58.0,40.0,175.0,347.45
347460.0,57.0,59.0,37.0,167.0,347.46
347470.0,58.0,65.0,50.0,175.0,347.47
347480.0,57.0,61.0,50.0,173.0,347.48
347490.0,55.0,61.0,58.0,164.0,347.49
347500.0,55.0,58.0,60.0,154.0,347.5
347510.0,54.0,58.0,53.0,149.0,347.51
347520.0,54.0,57.0,49.0,146.0,347.52
347530.0,54.0,55.0,43.0,155.0,347.53
347540.0,51.0,55.0,44.0,174.0,347.54
347550.0,50.0,53.0,39.0,168.0,347.55
347560.0,50.0,58.0,46.0,177.0,347.56
347570.0,50.0,56.0,49.0,165.0,347.57
347580.0,50.0,54.0,45.0,164.0,347.58
347590.0,50.0,52.0,43.0,169.0,347.59
347600.0,49.0,50.0,44.0,164.0,347.6
347610.0,48.0,51.0,42.0,153.0,347.61
347620.0,49.0,51.0,51.0,171.0,347.62
347630.0,49.0,50.0,45.0,184.0,347.63
347640.0,48.0,48.0,43.0,171.0,347.64
347650.0,48.0,47.0,38.0,160.0,347.65
347660.0,47.0,47.0,36.0,168.0,347.66
347670.0,49.0,48.0,47.0,156.0,347.67
347680.0,49.0,50.0,64.0,151.0,347.68
347691.0,49.0,47.0,63.0,145.0,347.691
347701.0,48.0,46.0,56.0,145.0,347.701
347711.0,48.0,46.0,53.0,133.0,347.711
347721.0,49.0,48.0,65.0,138.0,347.721
347731.0,51.0,52.0,64.0,153.0,347.731
347741.0,53.0,55.0,71.0,167.0,347.741
347751.0,53.0,54.0,77.0,190.0,347.751
347761.0,54.0,53.0,82.0,195.0,347.761
347771.0,53.0,53.0,98.0,195.0,347.771
347781.0,56.0,54.0,97.0,190.0,347.781
347791.0,58.0,53.0,93.0,196.0,347.791
347801.0,56.0,50.0,85.0,184.0,347.801
347811.0,55.0,48.0,77.0,173.0,347.811
347821.0,57.0,50.0,75.0,166.0,347.821
347831.0,56.0,47.0,65.0,150.0,347.831
347841.0,56.0,47.0,63.0,142.0,347.841
347851.0,55.0,47.0,58.0,141.0,347.851
347862.0,55.0,46.0,62.0,148.0,347.862
347872.0,56.0,47.0,59.0,150.0,347.872
347882.0,57.0,47.0,56.0,153.0,347.882
347892.0,56.0,47.0,53.0,151.0,347.892
347902.0,55.0,47.0,52.0,180.0,347.902
347912.0,55.0,45.0,46.0,173.0,347.912
347922.0,55.0,45.0,46.0,169.0,347.922
347932.0,56.0,44.0,45.0,161.0,347.932
347942.0,55.0,44.0,47.0,156.0,347.942
347952.0,55.0,43.0,47.0,174.0,347.952
347962.0,56.0,46.0,50.0,184.0,347.962
347972.0,56.0,45.0,64.0,168.0,347.972
347982.0,57.0,45.0,60.0,162.0,347.982
347992.0,56.0,44.0,56.0,168.0,347.992
348002.0,55.0,43.0,58.0,173.0,348.002
348012.0,53.0,43.0,57.0,161.0,348.012
348022.0,54.0,42.0,56.0,160.0,348.022
348032.0,56.0,44.0,55.0,157.0,348.032
348042.0,54.0,43.0,51.0,165.0,348.042
348052.0,54.0,43.0,55.0,180.0,348.052
348062.0,55.0,45.0,63.0,171.0,348.062
348072.0,54.0,44.0,58.0,169.0,348.072
348082.0,53.0,47.0,67.0,188.0,348.082
348092.0,56.0,48.0,73.0,184.0,348.092
348102.0,55.0,48.0,64.0,184.0,348.102
348112.0,53.0,49.0,72.0,181.0,348.112
348122.0,53.0,49.0,82.0,169.0,348.122
348132.0,54.0,52.0,76.0,155.0,348.132
348142.0,55.0,54.0,89.0,166.0,348.142
348152.0,55.0,53.0,91.0,151.0,348.152
348162.0,55.0,51.0,97.0,147.0,348.162
348172.0,55.0,53.0,89.0,146.0,348.172
348182.0,55.0,52.0,80.0,145.0,348.182
348192.0,56.0,51.0,71.0,171.0,348.192
348203.0,54.0,51.0,66.0,160.0,348.203
348213.0,53.0,49.0,62.0,156.0,348.213
348223.0,53.0,48.0,56.0,150.0,348.223
348233.0,52.0,48.0,50.0,158.0,348.233
348243.0,54.0,50.0,50.0,173.0,348.243
348253.0,55.0,51.0,47.0,162.0,348.253
348263.0,55.0,50.0,42.0,152.0,348.263
348273.0,54.0,49.0,40.0,147.0,348.273
348283.0,54.0,47.0,50.0,146.0,348.283
348293.0,56.0,49.0,48.0,141.0,348.293
348303.0,54.0,49.0,54.0,127.0,348.303
348313.0,56.0,50.0,70.0,132.0,348.313
348323.0,57.0,49.0,67.0,147.0,348.323
348333.0,57.0,47.0,61.0,153.0,348.333
348343.0,58.0,47.0,56.0,142.0,348.343
348353.0,57.0,46.0,51.0,146.0,348.353
348363.0,57.0,47.0,63.0,150.0,348.363
348374.0,57.0,46.0,66.0,147.0,348.374
348384.0,57.0,47.0,63.0,156.0,348.384
348394.0,57.0,46.0,62.0,155.0,348.394
348404.0,58.0,47.0,67.0,148.0,348.404
348414.0,58.0,50.0,82.0,155.0,348.414
348424.0,59.0,50.0,76.0,174.0,348.424
348434.0,57.0,52.0,69.0,168.0,348.434
348444.0,59.0,50.0,67.0,155.0,348.444
348454.0,58.0,48.0,59.0,151.0,348.454
348464.0,59.0,47.0,53.0,159.0,348.464
348474.0,59.0,46.0,47.0,145.0,348.474
348484.0,58.0,47.0,44.0,148.0,348.484
348494.0,60.0,47.0,43.0,150.0,348.494
348504.0,59.0,48.0,50.0,151.0,348.504
348514.0,61.0,48.0,59.0,158.0,348.514
348524.0,61.0,49.0,60.0,179.0,348.524
348534.0,62.0,48.0,55.0,187.0,348.534
348544.0,62.0,48.0,63.0,171.0,348.544
348554.0,63.0,48.0,58.0,166.0,348.554
348564.0,62.0,46.0,58.0,168.0,348.564
348574.0,64.0,46.0,53.0,155.0,348.574
348584.0,62.0,47.0,48.0,162.0,348.584
348594.0,62.0,46.0,45.0,165.0,348.594
348604.0,60.0,47.0,39.0,158.0,348.604
348614.0,60.0,47.0,40.0,179.0,348.614
348624.0,59.0,47.0,43.0,180.0,348.624
348634.0,58.0,46.0,42.0,190.0,348.634
348644.0,59.0,46.0,39.0,193.0,348.644
348654.0,59.0,45.0,37.0,191.0,348.654
348664.0,56.0,44.0,36.0,179.0,348.664
348674.0,55.0,45.0,35.0,181.0,348.674
348684.0,54.0,47.0,42.0,181.0,348.684
348694.0,55.0,48.0,54.0,172.0,348.694
348704.0,56.0,46.0,55.0,170.0,348.704
348715.0,58.0,48.0,51.0,169.0,348.715
348725.0,59.0,46.0,48.0,178.0,348.725
348735.0,60.0,45.0,44.0,169.0,348.735
348745.0,58.0,47.0,42.0,171.0,348.745
348755.0,61.0,47.0,45.0,179.0,348.755
348765.0,60.0,47.0,46.0,186.0,348.765
348775.0,63.0,46.0,59.0,188.0,348.775
348785.0,63.0,47.0,61.0,184.0,348.785
348795.0,65.0,45.0,57.0,171.0,348.795
348805.0,64.0,45.0,58.0,165.0,348.805
348815.0,64.0,42.0,50.0,160.0,348.815
348825.0,62.0,43.0,44.0,146.0,348.825
348835.0,60.0,46.0,38.0,140.0,348.835
348845.0,61.0,47.0,47.0,133.0,348.845
348855.0,61.0,48.0,64.0,131.0,348.855
348865.0,64.0,48.0,62.0,124.0,348.865
348875.0,65.0,49.0,62.0,147.0,348.875
348886.0,67.0,48.0,55.0,160.0,348.886
348896.0,68.0,49.0,60.0,164.0,348.896
348906.0,67.0,49.0,54.0,182.0,348.906
348916.0,69.0,47.0,51.0,194.0,348.916
348926.0,68.0,47.0,45.0,185.0,348.926
348936.0,66.0,48.0,41.0,172.0,348.936
348946.0,65.0,49.0,44.0,180.0,348.946
348956.0,64.0,49.0,49.0,198.0,348.956
348966.0,62.0,51.0,46.0,187.0,348.966
348976.0,63.0,52.0,55.0,186.0,348.976
348986.0,63.0,49.0,51.0,177.0,348.986
348996.0,62.0,48.0,55.0,181.0,348.996
349006.0,61.0,48.0,58.0,198.0,349.006
349016.0,61.0,52.0,75.0,187.0,349.016
349026.0,60.0,49.0,69.0,186.0,349.026
349036.0,60.0,48.0,65.0,183.0,349.036
349046.0,59.0,49.0,57.0,177.0,349.046
349056.0,58.0,48.0,54.0,178.0,349.056
349066.0,58.0,47.0,53.0,174.0,349.066
349076.0,60.0,46.0,57.0,163.0,349.076
349086.0,62.0,54.0,92.0,206.0,349.086
349096.0,63.0,53.0,90.0,213.0,349.096
349106.0,63.0,49.0,84.0,200.0,349.106
349116.0,60.0,48.0,72.0,210.0,349.116
349126.0,59.0,48.0,72.0,220.0,349.126
349136.0,58.0,51.0,74.0,207.0,349.136
349146.0,57.0,53.0,93.0,212.0,349.146
349156.0,61.0,58.0,115.0,216.0,349.156
349166.0,67.0,72.0,185.0,324.0,349.166
349176.0,75.0,77.0,248.0,365.0,349.176
349186.0,80.0,83.0,298.0,409.0,349.186
349196.0,88.0,86.0,325.0,430.0,349.196
349206.0,88.0,87.0,321.0,419.0,349.206
349216.0,88.0,89.0,348.0,403.0,349.216
349227.0,87.0,84.0,363.0,380.0,349.227
349237.0,84.0,81.0,353.0,359.0,349.237
349247.0,82.0,77.0,331.0,342.0,349.247
349257.0,85.0,83.0,333.0,364.0,349.257
349267.0,83.0,77.0,310.0,326.0,349.267
349277.0,84.0,76.0,289.0,316.0,349.277
349287.0,84.0,74.0,257.0,319.0,349.287
349297.0,84.0,72.0,233.0,346.0,349.297
349307.0,94.0,75.0,247.0,355.0,349.307
349317.0,104.0,77.0,233.0,357.0,349.317
349327.0,109.0,77.0,215.0,331.0,349.327
349337.0,105.0,78.0,221.0,349.0,349.337
349347.0,102.0,77.0,232.0,347.0,349.347
349357.0,100.0,75.0,234.0,345.0,349.357
349367.0,97.0,74.0,241.0,332.0,349.367
349377.0,96.0,71.0,230.0,333.0,349.377
349387.0,94.0,68.0,228.0,306.0,349.387
349398.0,91.0,68.0,214.0,288.0,349.398
349408.0,87.0,69.0,234.0,290.0,349.408
349418.0,88.0,68.0,231.0,291.0,349.418
349428.0,84.0,69.0,217.0,279.0,349.428
349438.0,88.0,71.0,197.0,280.0,349.438
349448.0,87.0,73.0,198.0,279.0,349.448
349458.0,86.0,72.0,199.0,255.0,349.458
349468.0,84.0,75.0,198.0,257.0,349.468
349478.0,83.0,75.0,203.0,262.0,349.478
349488.0,85.0,74.0,199.0,267.0,349.488
349498.0,84.0,71.0,190.0,256.0,349.498
349508.0,84.0,73.0,188.0,270.0,349.508
349518.0,85.0,75.0,184.0,264.0,349.518
349528.0,85.0,73.0,173.0,272.0,349.528
349538.0,82.0,75.0,171.0,264.0,349.538
349548.0,82.0,70.0,180.0,282.0,349.548
349558.0,80.0,68.0,188.0,306.0,349.558
349568.0,79.0,65.0,172.0,288.0,349.568
349578.0,77.0,65.0,173.0,303.0,349.578
349588.0,74.0,64.0,172.0,286.0,349.588
349598.0,75.0,61.0,170.0,279.0,349.598
349608.0,75.0,63.0,187.0,269.0,349.608
349618.0,74.0,64.0,179.0,304.0,349.618
349628.0,73.0,62.0,173.0,326.0,349.628
349638.0,73.0,67.0,179.0,339.0,349.638
349648.0,75.0,69.0,193.0,331.0,349.648
349658.0,72.0,70.0,191.0,339.0,349.658
349668.0,74.0,72.0,180.0,337.0,349.668
349678.0,72.0,72.0,171.0,315.0,349.678
349688.0,73.0,79.0,160.0,298.0,349.688
349698.0,73.0,78.0,150.0,275.0,349.698
349708.0,72.0,79.0,139.0,292.0,349.708
349718.0,73.0,80.0,140.0,279.0,349.718
349728.0,72.0,83.0,128.0,263.0,349.728
349739.0,71.0,84.0,117.0,247.0,349.739
349749.0,71.0,87.0,147.0,279.0,349.749
349759.0,70.0,87.0,140.0,281.0,349.759
349769.0,71.0,89.0,152.0,271.0,349.769
349779.0,72.0,87.0,136.0,252.0,349.779
349789.0,72.0,83.0,136.0,255.0,349.789
349799.0,72.0,82.0,134.0,255.0,349.799
349809.0,72.0,80.0,122.0,249.0,349.809
349819.0,74.0,81.0,121.0,245.0,349.819
349829.0,73.0,80.0,129.0,228.0,349.829
349839.0,73.0,80.0,131.0,215.0,349.839
349849.0,73.0,78.0,118.0,213.0,349.849
349859.0,74.0,78.0,114.0,206.0,349.859
349869.0,72.0,76.0,108.0,197.0,349.869
349879.0,72.0,76.0,104.0,195.0,349.879
349889.0,72.0,74.0,106.0,203.0,349.889
349899.0,72.0,73.0,100.0,220.0,349.899
349910.0,72.0,71.0,116.0,223.0,349.91
349920.0,72.0,72.0,109.0,223.0,349.92
349930.0,73.0,70.0,108.0,243.0,349.93
349940.0,73.0,68.0,98.0,229.0,349.94
349950.0,74.0,67.0,104.0,219.0,349.95
349960.0,75.0,66.0,97.0,218.0,349.96
349970.0,74.0,64.0,85.0,207.0,349.97
349980.0,76.0,63.0,104.0,201.0,349.98
349990.0,77.0,62.0,98.0,199.0,349.99
350000.0,79.0,61.0,101.0,191.0,350.0
350010.0,78.0,63.0,104.0,187.0,350.01
350020.0,76.0,61.0,95.0,179.0,350.02
350030.0,77.0,62.0,88.0,175.0,350.03
350040.0,74.0,61.0,90.0,177.0,350.04
350050.0,76.0,60.0,85.0,171.0,350.05
350060.0,77.0,65.0,93.0,188.0,350.06
350070.0,76.0,62.0,83.0,189.0,350.07
350080.0,76.0,62.0,76.0,189.0,350.08
350090.0,75.0,61.0,79.0,179.0,350.09
350100.0,74.0,61.0,89.0,186.0,350.1
350110.0,74.0,62.0,86.0,183.0,350.11
350120.0,75.0,62.0,89.0,205.0,350.12
350130.0,75.0,62.0,89.0,200.0,350.13
350140.0,73.0,60.0,108.0,194.0,350.14
350150.0,74.0,60.0,114.0,194.0,350.15
350160.0,74.0,60.0,116.0,195.0,350.16
350170.0,74.0,59.0,102.0,183.0,350.17
350180.0,75.0,59.0,93.0,188.0,350.18
350190.0,75.0,56.0,95.0,193.0,350.19
350200.0,76.0,57.0,93.0,184.0,350.2
350210.0,78.0,58.0,98.0,187.0,350.21
350220.0,78.0,57.0,85.0,179.0,350.22
350230.0,80.0,56.0,77.0,180.0,350.23
350240.0,79.0,54.0,72.0,182.0,350.24
350251.0,77.0,54.0,78.0,172.0,350.251
350261.0,79.0,56.0,81.0,177.0,350.261
350271.0,79.0,57.0,87.0,169.0,350.271
350281.0,80.0,55.0,80.0,158.0,350.281
350291.0,78.0,53.0,70.0,160.0,350.291
350301.0,76.0,50.0,75.0,149.0,350.301
350311.0,76.0,47.0,102.0,156.0,350.311
350321.0,75.0,48.0,101.0,163.0,350.321
350331.0,75.0,48.0,104.0,163.0,350.331
350341.0,74.0,50.0,97.0,154.0,350.341
350351.0,73.0,47.0,93.0,146.0,350.351
350361.0,71.0,48.0,93.0,141.0,350.361
350371.0,70.0,47.0,88.0,145.0,350.371
350381.0,70.0,49.0,93.0,151.0,350.381
350391.0,71.0,52.0,88.0,149.0,350.391
350401.0,71.0,50.0,83.0,142.0,350.401
350411.0,72.0,50.0,81.0,137.0,350.411
350422.0,74.0,47.0,77.0,130.0,350.422
350432.0,73.0,48.0,87.0,146.0,350.432
350442.0,74.0,48.0,84.0,138.0,350.442
350452.0,74.0,48.0,92.0,131.0,350.452
350462.0,75.0,46.0,83.0,136.0,350.462
350472.0,74.0,46.0,75.0,130.0,350.472
350482.0,75.0,45.0,72.0,143.0,350.482
350492.0,73.0,45.0,85.0,136.0,350.492
350502.0,74.0,45.0,79.0,133.0,350.502
350512.0,75.0,43.0,72.0,130.0,350.512
350522.0,74.0,44.0,69.0,147.0,350.522
350532.0,73.0,44.0,70.0,147.0,350.532
350542.0,75.0,44.0,77.0,148.0,350.542
350552.0,75.0,45.0,70.0,155.0,350.552
350562.0,75.0,44.0,74.0,158.0,350.562
350572.0,75.0,44.0,70.0,172.0,350.572
350582.0,75.0,44.0,66.0,159.0,350.582
350592.0,73.0,45.0,69.0,150.0,350.592
350602.0,74.0,45.0,75.0,143.0,350.602
350612.0,73.0,46.0,77.0,147.0,350.612
350622.0,73.0,46.0,73.0,210.0,350.622
350632.0,72.0,44.0,69.0,214.0,350.632
350642.0,69.0,45.0,84.0,205.0,350.642
350652.0,70.0,45.0,83.0,196.0,350.652
350662.0,72.0,45.0,101.0,181.0,350.662
350672.0,71.0,45.0,93.0,179.0,350.672
350682.0,70.0,46.0,91.0,170.0,350.682
350692.0,71.0,49.0,102.0,170.0,350.692
350702.0,73.0,47.0,96.0,164.0,350.702
350712.0,73.0,45.0,87.0,160.0,350.712
350722.0,73.0,44.0,85.0,158.0,350.722
350732.0,72.0,43.0,79.0,155.0,350.732
350742.0,71.0,42.0,71.0,151.0,350.742
350752.0,72.0,43.0,77.0,142.0,350.752
350763.0,74.0,46.0,71.0,142.0,350.763
350773.0,74.0,43.0,69.0,139.0,350.773
350783.0,74.0,44.0,67.0,136.0,350.783
350793.0,76.0,44.0,66.0,131.0,350.793
350803.0,76.0,42.0,57.0,124.0,350.803
350813.0,76.0,46.0,56.0,139.0,350.813
350823.0,76.0,44.0,56.0,133.0,350.823
350833.0,78.0,44.0,56.0,133.0,350.833
350843.0,77.0,43.0,52.0,133.0,350.843
350853.0,76.0,43.0,67.0,144.0,350.853
350863.0,75.0,43.0,59.0,142.0,350.863
350873.0,75.0,45.0,72.0,141.0,350.873
350883.0,74.0,46.0,72.0,138.0,350.883
350893.0,74.0,45.0,69.0,151.0,350.893
350903.0,72.0,44.0,67.0,145.0,350.903
350913.0,70.0,42.0,59.0,134.0,350.913
350923.0,68.0,42.0,61.0,135.0,350.923
350934.0,66.0,42.0,58.0,131.0,350.934
350944.0,65.0,41.0,54.0,134.0,350.944
350954.0,64.0,43.0,62.0,140.0,350.954
350964.0,64.0,42.0,55.0,136.0,350.964
350974.0,63.0,44.0,50.0,127.0,350.974
350984.0,61.0,43.0,45.0,130.0,350.984
350994.0,62.0,42.0,39.0,133.0,350.994
351004.0,61.0,44.0,42.0,138.0,351.004
351014.0,63.0,44.0,44.0,137.0,351.014
351024.0,62.0,47.0,55.0,151.0,351.024
351034.0,63.0,45.0,53.0,175.0,351.034
351044.0,63.0,45.0,53.0,185.0,351.044
351054.0,63.0,43.0,50.0,186.0,351.054
351064.0,62.0,42.0,49.0,195.0,351.064
351074.0,60.0,41.0,45.0,192.0,351.074
351084.0,61.0,40.0,44.0,194.0,351.084
351094.0,61.0,42.0,43.0,182.0,351.094
351104.0,61.0,41.0,57.0,173.0,351.104
351114.0,63.0,43.0,56.0,171.0,351.114
351124.0,65.0,43.0,56.0,169.0,351.124
351134.0,64.0,44.0,57.0,167.0,351.134
351144.0,64.0,44.0,50.0,158.0,351.144
351154.0,65.0,41.0,45.0,153.0,351.154
351164.0,66.0,43.0,56.0,175.0,351.164
351174.0,67.0,42.0,58.0,178.0,351.174
351184.0,67.0,42.0,54.0,183.0,351.184
351194.0,69.0,42.0,50.0,168.0,351.194
351204.0,68.0,42.0,48.0,174.0,351.204
351214.0,67.0,40.0,42.0,164.0,351.214
351224.0,66.0,41.0,44.0,163.0,351.224
351234.0,64.0,40.0,42.0,167.0,351.234
351244.0,65.0,42.0,49.0,155.0,351.244
351254.0,65.0,43.0,47.0,160.0,351.254
351264.0,66.0,43.0,53.0,155.0,351.264
351275.0,66.0,43.0,49.0,148.0,351.275
351285.0,66.0,44.0,54.0,156.0,351.285
351295.0,67.0,42.0,50.0,151.0,351.295
351305.0,67.0,47.0,61.0,164.0,351.305
351315.0,70.0,45.0,56.0,154.0,351.315
351325.0,71.0,46.0,57.0,150.0,351.325
351335.0,72.0,45.0,52.0,149.0,351.335
351345.0,73.0,45.0,64.0,136.0,351.345
351355.0,74.0,45.0,74.0,135.0,351.355
351365.0,74.0,45.0,69.0,141.0,351.365
351375.0,73.0,45.0,68.0,138.0,351.375
351385.0,72.0,42.0,63.0,137.0,351.385
351395.0,71.0,42.0,55.0,133.0,351.395
351405.0,69.0,41.0,52.0,145.0,351.405
351415.0,68.0,42.0,60.0,148.0,351.415
351425.0,68.0,43.0,58.0,142.0,351.425
351435.0,70.0,42.0,55.0,152.0,351.435
351446.0,67.0,44.0,57.0,152.0,351.446
351456.0,67.0,41.0,53.0,157.0,351.456
351466.0,65.0,41.0,48.0,147.0,351.466
351476.0,66.0,42.0,45.0,158.0,351.476
351486.0,65.0,41.0,54.0,154.0,351.486
351496.0,63.0,41.0,52.0,155.0,351.496
351506.0,64.0,41.0,54.0,162.0,351.506
351516.0,63.0,43.0,54.0,158.0,351.516
351526.0,63.0,40.0,52.0,153.0,351.526
351536.0,61.0,40.0,56.0,145.0,351.536
351546.0,61.0,40.0,58.0,143.0,351.546
351556.0,62.0,40.0,55.0,146.0,351.556
351566.0,62.0,40.0,53.0,144.0,351.566
351576.0,62.0,40.0,52.0,141.0,351.576
351586.0,62.0,42.0,54.0,130.0,351.586
351596.0,62.0,42.0,55.0,120.0,351.596
351606.0,61.0,44.0,55.0,132.0,351.606
351616.0,59.0,44.0,49.0,140.0,351.616
351626.0,58.0,42.0,50.0,139.0,351.626
351636.0,57.0,43.0,45.0,134.0,351.636
351646.0,58.0,42.0,40.0,131.0,351.646
351656.0,56.0,44.0,48.0,127.0,351.656
351666.0,57.0,43.0,48.0,132.0,351.666
351676.0,56.0,43.0,56.0,128.0,351.676
351686.0,57.0,43.0,54.0,125.0,351.686
351696.0,58.0,44.0,50.0,122.0,351.696
351706.0,58.0,42.0,48.0,115.0,351.706
351716.0,59.0,40.0,42.0,109.0,351.716
351726.0,60.0,40.0,37.0,99.0,351.726
351736.0,60.0,40.0,32.0,88.0,351.736
351746.0,59.0,39.0,29.0,83.0,351.746
351756.0,59.0,39.0,25.0,75.0,351.756
351766.0,59.0,39.0,34.0,75.0,351.766
351776.0,58.0,42.0,60.0,94.0,351.776
351787.0,59.0,40.0,54.0,92.0,351.787
351797.0,59.0,41.0,58.0,98.0,351.797
351807.0,60.0,40.0,63.0,118.0,351.807
351817.0,60.0,40.0,61.0,123.0,351.817
351827.0,61.0,40.0,56.0,122.0,351.827
351837.0,62.0,39.0,51.0,117.0,351.837
351847.0,63.0,39.0,49.0,108.0,351.847
351857.0,63.0,40.0,49.0,151.0,351.857
351867.0,62.0,40.0,48.0,152.0,351.867
351877.0,63.0,39.0,43.0,142.0,351.877
351887.0,63.0,40.0,45.0,146.0,351.887
351897.0,63.0,38.0,44.0,130.0,351.897
351907.0,62.0,39.0,47.0,125.0,351.907
351917.0,62.0,40.0,44.0,119.0,351.917
351927.0,62.0,39.0,46.0,119.0,351.927
351937.0,61.0,41.0,44.0,120.0,351.937
351947.0,61.0,39.0,43.0,120.0,351.947
351958.0,60.0,38.0,41.0,116.0,351.958
351968.0,59.0,39.0,36.0,113.0,351.968
351978.0,59.0,39.0,33.0,119.0,351.978
351988.0,57.0,41.0,37.0,118.0,351.988
351998.0,55.0,40.0,44.0,116.0,351.998
352008.0,57.0,42.0,50.0,110.0,352.008
352018.0,57.0,41.0,47.0,101.0,352.018
352028.0,56.0,41.0,56.0,112.0,352.028
352038.0,56.0,42.0,54.0,112.0,352.038
352048.0,57.0,39.0,48.0,120.0,352.048
352058.0,60.0,44.0,52.0,122.0,352.058
352068.0,60.0,43.0,56.0,113.0,352.068
352078.0,62.0,43.0,57.0,111.0,352.078
352088.0,61.0,42.0,56.0,110.0,352.088
352098.0,60.0,44.0,50.0,114.0,352.098
352108.0,61.0,45.0,48.0,118.0,352.108
352118.0,60.0,44.0,42.0,130.0,352.118
352128.0,59.0,45.0,37.0,127.0,352.128
352138.0,59.0,46.0,34.0,132.0,352.138
352148.0,58.0,47.0,32.0,139.0,352.148
352158.0,56.0,50.0,41.0,148.0,352.158
352168.0,58.0,50.0,43.0,152.0,352.168
352178.0,58.0,50.0,45.0,154.0,352.178
352188.0,59.0,49.0,40.0,144.0,352.188
352198.0,57.0,49.0,35.0,137.0,352.198
352208.0,57.0,49.0,36.0,123.0,352.208
352218.0,57.0,51.0,34.0,120.0,352.218
352228.0,58.0,50.0,35.0,118.0,352.228
352238.0,60.0,50.0,42.0,115.0,352.238
352248.0,59.0,53.0,41.0,118.0,352.248
352258.0,62.0,50.0,39.0,126.0,352.258
352268.0,61.0,51.0,35.0,130.0,352.268
352278.0,63.0,51.0,36.0,131.0,352.278
352288.0,60.0,53.0,33.0,130.0,352.288
352299.0,60.0,50.0,32.0,124.0,352.299
352309.0,59.0,51.0,37.0,118.0,352.309
352319.0,59.0,52.0,48.0,114.0,352.319
352329.0,59.0,50.0,48.0,107.0,352.329
352339.0,56.0,50.0,41.0,101.0,352.339
352349.0,56.0,51.0,41.0,93.0,352.349
352359.0,53.0,52.0,42.0,105.0,352.359
352369.0,54.0,52.0,44.0,105.0,352.369
352379.0,55.0,50.0,39.0,110.0,352.379
352389.0,55.0,52.0,38.0,119.0,352.389
352399.0,55.0,52.0,42.0,118.0,352.399
352409.0,55.0,52.0,52.0,109.0,352.409
352419.0,56.0,51.0,47.0,114.0,352.419
352429.0,53.0,52.0,44.0,110.0,352.429
352439.0,54.0,52.0,39.0,107.0,352.439
352449.0,54.0,50.0,35.0,116.0,352.449
352459.0,53.0,51.0,36.0,118.0,352.459
352470.0,53.0,52.0,36.0,117.0,352.47
352480.0,55.0,51.0,34.0,137.0,352.48
352490.0,57.0,50.0,30.0,137.0,352.49
