time (ms),signal 0,signal 1,signal 2,signal3,time (sec)
606636.0,67.0,71.0,33.0,108.0,606.636
606646.0,68.0,69.0,31.0,121.0,606.646
606656.0,69.0,69.0,41.0,131.0,606.656
606666.0,70.0,66.0,43.0,134.0,606.666
606676.0,70.0,66.0,37.0,130.0,606.676
606686.0,71.0,66.0,43.0,130.0,606.686
606696.0,73.0,63.0,38.0,132.0,606.696
606706.0,73.0,63.0,34.0,126.0,606.706
606716.0,74.0,62.0,32.0,117.0,606.716
606726.0,75.0,63.0,27.0,114.0,606.726
606736.0,75.0,63.0,25.0,118.0,606.736
606746.0,73.0,63.0,25.0,110.0,606.746
606756.0,72.0,64.0,40.0,109.0,606.756
606766.0,73.0,65.0,40.0,103.0,606.766
606776.0,74.0,64.0,38.0,96.0,606.776
606786.0,73.0,63.0,33.0,93.0,606.786
606796.0,73.0,65.0,29.0,91.0,606.796
606806.0,74.0,61.0,26.0,85.0,606.806
606816.0,71.0,62.0,30.0,83.0,606.816
606826.0,71.0,61.0,30.0,82.0,606.826
606836.0,72.0,59.0,32.0,82.0,606.836
606846.0,70.0,59.0,32.0,83.0,606.846
606856.0,70.0,59.0,30.0,78.0,606.856
606866.0,68.0,58.0,26.0,79.0,606.866
606876.0,68.0,55.0,27.0,82.0,606.876
606886.0,69.0,55.0,25.0,80.0,606.886
606896.0,68.0,55.0,26.0,85.0,606.896
606906.0,70.0,55.0,25.0,84.0,606.906
606916.0,68.0,56.0,28.0,85.0,606.916
606926.0,70.0,56.0,27.0,81.0,606.926
606936.0,70.0,56.0,24.0,80.0,606.936
606946.0,71.0,55.0,23.0,92.0,606.946
606956.0,73.0,54.0,21.0,94.0,606.956
606966.0,71.0,55.0,22.0,95.0,606.966
606976.0,73.0,54.0,20.0,94.0,606.976
606986.0,73.0,54.0,18.0,91.0,606.986
606996.0,74.0,53.0,16.0,88.0,606.996
607006.0,75.0,54.0,14.0,88.0,607.006
607016.0,75.0,54.0,13.0,87.0,607.016
607026.0,74.0,55.0,27.0,89.0,607.026
607036.0,73.0,55.0,30.0,91.0,607.036
607046.0,75.0,52.0,30.0,92.0,607.046
607056.0,74.0,51.0,28.0,88.0,607.056
607066.0,75.0,51.0,26.0,93.0,607.066
607076.0,73.0,54.0,23.0,97.0,607.076
607086.0,73.0,54.0,21.0,93.0,607.086
607096.0,72.0,55.0,31.0,90.0,607.096
607106.0,72.0,58.0,30.0,92.0,607.106
607116.0,72.0,57.0,28.0,90.0,607.116
607126.0,72.0,57.0,26.0,91.0,607.126
607136.0,72.0,59.0,24.0,87.0,607.136
607147.0,70.0,61.0,21.0,90.0,607.147
607157.0,69.0,62.0,19.0,88.0,607.157
607167.0,67.0,62.0,34.0,81.0,607.167
607177.0,68.0,63.0,35.0,82.0,607.177
607187.0,68.0,64.0,31.0,87.0,607.187
607197.0,67.0,65.0,27.0,92.0,607.197
607207.0,66.0,65.0,24.0,89.0,607.207
607217.0,64.0,67.0,22.0,86.0,607.217
607227.0,63.0,66.0,20.0,90.0,607.227
607237.0,62.0,66.0,20.0,93.0,607.237
607247.0,60.0,66.0,31.0,94.0,607.247
607257.0,60.0,65.0,30.0,91.0,607.257
607267.0,58.0,63.0,26.0,90.0,607.267
607277.0,60.0,63.0,24.0,94.0,607.277
607287.0,58.0,63.0,21.0,109.0,607.287
607297.0,57.0,64.0,19.0,110.0,607.297
607307.0,56.0,75.0,18.0,111.0,607.307
607318.0,56.0,73.0,16.0,136.0,607.318
607328.0,61.0,84.0,19.0,144.0,607.328
607338.0,71.0,123.0,29.0,155.0,607.338
607348.0,68.0,118.0,33.0,189.0,607.348
607358.0,79.0,140.0,41.0,181.0,607.358
607368.0,80.0,133.0,38.0,190.0,607.368
607378.0,83.0,124.0,38.0,241.0,607.378
607388.0,85.0,130.0,41.0,255.0,607.388
607398.0,87.0,139.0,43.0,235.0,607.398
607408.0,85.0,136.0,39.0,241.0,607.408
607418.0,84.0,127.0,36.0,249.0,607.418
607428.0,83.0,119.0,32.0,248.0,607.428
607438.0,83.0,116.0,30.0,248.0,607.438
607448.0,83.0,111.0,29.0,249.0,607.448
607458.0,81.0,106.0,28.0,230.0,607.458
607468.0,83.0,99.0,25.0,216.0,607.468
607478.0,79.0,109.0,23.0,205.0,607.478
607488.0,82.0,106.0,33.0,260.0,607.488
607498.0,80.0,101.0,32.0,278.0,607.498
607508.0,80.0,103.0,34.0,270.0,607.508
607518.0,80.0,99.0,30.0,271.0,607.518
607528.0,79.0,91.0,28.0,251.0,607.528
607538.0,80.0,89.0,27.0,245.0,607.538
607548.0,77.0,85.0,23.0,229.0,607.548
607558.0,75.0,81.0,26.0,211.0,607.558
607568.0,75.0,79.0,26.0,217.0,607.568
607578.0,73.0,83.0,26.0,237.0,607.578
607588.0,73.0,80.0,30.0,241.0,607.588
607598.0,73.0,81.0,29.0,253.0,607.598
607608.0,72.0,93.0,31.0,237.0,607.608
607618.0,71.0,97.0,32.0,230.0,607.618
607628.0,72.0,93.0,35.0,237.0,607.628
607638.0,70.0,86.0,32.0,245.0,607.638
607648.0,72.0,83.0,42.0,250.0,607.648
607659.0,71.0,78.0,41.0,279.0,607.659
607669.0,71.0,79.0,40.0,285.0,607.669
607679.0,71.0,88.0,43.0,292.0,607.679
607689.0,70.0,86.0,40.0,280.0,607.689
607699.0,69.0,81.0,47.0,312.0,607.699
607709.0,68.0,95.0,46.0,347.0,607.709
607719.0,70.0,100.0,53.0,327.0,607.719
607729.0,70.0,92.0,58.0,379.0,607.729
607739.0,69.0,88.0,49.0,376.0,607.739
607749.0,70.0,85.0,45.0,347.0,607.749
607759.0,70.0,83.0,38.0,318.0,607.759
607769.0,69.0,85.0,38.0,305.0,607.769
607779.0,72.0,85.0,35.0,295.0,607.779
607789.0,74.0,82.0,34.0,276.0,607.789
607799.0,72.0,83.0,41.0,265.0,607.799
607809.0,71.0,83.0,41.0,258.0,607.809
607819.0,72.0,81.0,40.0,268.0,607.819
607830.0,70.0,80.0,34.0,269.0,607.83
607840.0,70.0,79.0,37.0,265.0,607.84
607850.0,69.0,79.0,33.0,249.0,607.85
607860.0,70.0,78.0,29.0,251.0,607.86
607870.0,69.0,78.0,26.0,247.0,607.87
607880.0,68.0,79.0,37.0,226.0,607.88
607890.0,68.0,78.0,43.0,247.0,607.89
607900.0,68.0,78.0,44.0,249.0,607.9
607910.0,68.0,77.0,39.0,241.0,607.91
607920.0,67.0,77.0,37.0,237.0,607.92
607930.0,67.0,78.0,34.0,235.0,607.93
607940.0,66.0,79.0,30.0,222.0,607.94
607950.0,64.0,80.0,26.0,209.0,607.95
607960.0,64.0,81.0,28.0,204.0,607.96
607970.0,62.0,80.0,26.0,198.0,607.97
607980.0,61.0,81.0,23.0,189.0,607.98
607990.0,60.0,83.0,40.0,185.0,607.99
608000.0,63.0,83.0,36.0,222.0,608.0
608010.0,61.0,85.0,37.0,221.0,608.01
608020.0,60.0,86.0,33.0,219.0,608.02
608030.0,59.0,85.0,30.0,219.0,608.03
608040.0,58.0,84.0,26.0,212.0,608.04
608050.0,58.0,85.0,23.0,205.0,608.05
608060.0,58.0,85.0,21.0,204.0,608.06
608070.0,58.0,84.0,31.0,195.0,608.07
608080.0,58.0,84.0,28.0,181.0,608.08
608090.0,59.0,83.0,25.0,179.0,608.09
608100.0,58.0,81.0,23.0,181.0,608.1
608110.0,59.0,78.0,19.0,177.0,608.11
608120.0,58.0,77.0,19.0,180.0,608.12
608130.0,58.0,79.0,19.0,175.0,608.13
608140.0,58.0,80.0,20.0,174.0,608.14
608150.0,57.0,80.0,22.0,200.0,608.15
608160.0,57.0,84.0,23.0,185.0,608.16
608171.0,59.0,84.0,21.0,176.0,608.171
608181.0,57.0,87.0,20.0,175.0,608.181
608191.0,56.0,90.0,28.0,179.0,608.191
608201.0,58.0,91.0,24.0,164.0,608.201
608211.0,57.0,92.0,27.0,153.0,608.211
608221.0,58.0,90.0,26.0,177.0,608.221
608231.0,56.0,93.0,24.0,178.0,608.231
608241.0,60.0,90.0,23.0,170.0,608.241
608251.0,57.0,90.0,20.0,174.0,608.251
608261.0,57.0,92.0,19.0,162.0,608.261
608271.0,57.0,93.0,18.0,169.0,608.271
608281.0,58.0,93.0,16.0,172.0,608.281
608291.0,57.0,93.0,15.0,176.0,608.291
608301.0,56.0,99.0,20.0,180.0,608.301
608311.0,58.0,96.0,22.0,178.0,608.311
608321.0,56.0,99.0,22.0,207.0,608.321
608331.0,57.0,101.0,20.0,189.0,608.331
608342.0,57.0,102.0,20.0,174.0,608.342
608352.0,59.0,104.0,22.0,181.0,608.352
608362.0,62.0,103.0,20.0,182.0,608.362
608372.0,63.0,103.0,17.0,183.0,608.372
608382.0,64.0,106.0,19.0,210.0,608.382
608392.0,63.0,108.0,18.0,204.0,608.392
608402.0,63.0,111.0,23.0,191.0,608.402
608412.0,62.0,113.0,26.0,178.0,608.412
608422.0,62.0,115.0,25.0,178.0,608.422
608432.0,61.0,115.0,23.0,176.0,608.432
608442.0,60.0,115.0,20.0,181.0,608.442
608452.0,60.0,116.0,25.0,180.0,608.452
608462.0,59.0,118.0,22.0,174.0,608.462
608472.0,60.0,118.0,36.0,172.0,608.472
608482.0,59.0,117.0,30.0,163.0,608.482
608492.0,58.0,118.0,27.0,161.0,608.492
608502.0,58.0,118.0,25.0,162.0,608.502
608512.0,57.0,122.0,33.0,163.0,608.512
608522.0,61.0,120.0,30.0,186.0,608.522
608532.0,60.0,121.0,26.0,182.0,608.532
608542.0,60.0,121.0,24.0,184.0,608.542
608552.0,59.0,124.0,25.0,177.0,608.552
608562.0,58.0,125.0,22.0,185.0,608.562
608572.0,58.0,124.0,20.0,174.0,608.572
608582.0,57.0,126.0,19.0,176.0,608.582
608592.0,57.0,126.0,31.0,172.0,608.592
608602.0,57.0,125.0,26.0,166.0,608.602
608612.0,58.0,124.0,26.0,179.0,608.612
608622.0,57.0,124.0,24.0,180.0,608.622
608632.0,56.0,125.0,25.0,173.0,608.632
608642.0,55.0,123.0,24.0,169.0,608.642
608652.0,56.0,122.0,21.0,163.0,608.652
608662.0,55.0,122.0,21.0,176.0,608.662
608672.0,55.0,120.0,18.0,169.0,608.672
608683.0,54.0,119.0,17.0,177.0,608.683
608693.0,55.0,120.0,25.0,172.0,608.693
608703.0,57.0,118.0,24.0,188.0,608.703
608713.0,56.0,116.0,23.0,196.0,608.713
608723.0,56.0,114.0,20.0,194.0,608.723
608733.0,56.0,112.0,19.0,178.0,608.733
608743.0,56.0,112.0,18.0,163.0,608.743
608753.0,54.0,112.0,16.0,157.0,608.753
608763.0,54.0,112.0,18.0,156.0,608.763
608773.0,54.0,112.0,20.0,156.0,608.773
608783.0,56.0,110.0,30.0,155.0,608.783
608793.0,57.0,109.0,25.0,166.0,608.793
608803.0,57.0,109.0,26.0,175.0,608.803
608813.0,59.0,107.0,23.0,183.0,608.813
608823.0,60.0,106.0,20.0,173.0,608.823
608833.0,61.0,104.0,18.0,157.0,608.833
608843.0,61.0,105.0,17.0,155.0,608.843
608854.0,61.0,103.0,20.0,155.0,608.854
608864.0,61.0,102.0,20.0,150.0,608.864
608874.0,61.0,102.0,21.0,168.0,608.874
608884.0,60.0,99.0,18.0,155.0,608.884
608894.0,60.0,98.0,17.0,149.0,608.894
608904.0,58.0,98.0,16.0,147.0,608.904
608914.0,57.0,99.0,15.0,176.0,608.914
608924.0,55.0,100.0,15.0,198.0,608.924
608934.0,55.0,99.0,31.0,210.0,608.934
608944.0,55.0,97.0,29.0,218.0,608.944
608954.0,56.0,94.0,26.0,225.0,608.954
608964.0,54.0,92.0,23.0,210.0,608.964
608974.0,55.0,89.0,21.0,215.0,608.974
608984.0,54.0,89.0,19.0,205.0,608.984
608994.0,54.0,85.0,18.0,198.0,608.994
609004.0,53.0,85.0,19.0,207.0,609.004
609014.0,54.0,82.0,19.0,198.0,609.014
609024.0,54.0,83.0,19.0,194.0,609.024
609034.0,55.0,80.0,19.0,193.0,609.034
609044.0,56.0,79.0,18.0,195.0,609.044
609054.0,55.0,79.0,17.0,186.0,609.054
609064.0,54.0,79.0,15.0,169.0,609.064
609074.0,55.0,79.0,15.0,202.0,609.074
609084.0,53.0,79.0,15.0,193.0,609.084
609094.0,53.0,81.0,23.0,197.0,609.094
609104.0,53.0,79.0,20.0,182.0,609.104
609114.0,54.0,79.0,20.0,180.0,609.114
609124.0,55.0,81.0,26.0,186.0,609.124
609134.0,55.0,81.0,25.0,180.0,609.134
609144.0,56.0,81.0,25.0,169.0,609.144
609154.0,56.0,81.0,23.0,170.0,609.154
609164.0,56.0,81.0,23.0,215.0,609.164
609174.0,55.0,80.0,22.0,202.0,609.174
609184.0,55.0,82.0,28.0,189.0,609.184
609195.0,54.0,82.0,24.0,186.0,609.195
609205.0,54.0,84.0,25.0,187.0,609.205
609215.0,53.0,84.0,23.0,187.0,609.215
609225.0,53.0,84.0,32.0,184.0,609.225
609235.0,52.0,84.0,28.0,170.0,609.235
609245.0,52.0,84.0,25.0,160.0,609.245
609255.0,53.0,85.0,23.0,191.0,609.255
609265.0,53.0,85.0,20.0,186.0,609.265
609275.0,51.0,84.0,18.0,190.0,609.275
609285.0,52.0,84.0,17.0,181.0,609.285
609295.0,51.0,86.0,25.0,170.0,609.295
609305.0,51.0,84.0,28.0,164.0,609.305
609315.0,51.0,85.0,26.0,158.0,609.315
609325.0,50.0,85.0,23.0,150.0,609.325
609335.0,50.0,82.0,20.0,151.0,609.335
609345.0,50.0,82.0,24.0,195.0,609.345
609355.0,51.0,79.0,29.0,213.0,609.355
609366.0,52.0,80.0,42.0,198.0,609.366
609376.0,51.0,78.0,41.0,198.0,609.376
609386.0,52.0,78.0,42.0,199.0,609.386
609396.0,55.0,75.0,38.0,195.0,609.396
609406.0,55.0,76.0,33.0,182.0,609.406
609416.0,55.0,74.0,29.0,172.0,609.416
609426.0,55.0,73.0,26.0,160.0,609.426
609436.0,55.0,73.0,26.0,155.0,609.436
609446.0,54.0,72.0,23.0,164.0,609.446
609456.0,54.0,74.0,23.0,161.0,609.456
609466.0,56.0,72.0,29.0,172.0,609.466
609476.0,56.0,71.0,24.0,176.0,609.476
609486.0,57.0,69.0,24.0,180.0,609.486
609496.0,58.0,67.0,23.0,201.0,609.496
609506.0,58.0,66.0,22.0,204.0,609.506
609516.0,58.0,66.0,20.0,189.0,609.516
609526.0,57.0,66.0,25.0,172.0,609.526
609536.0,59.0,66.0,24.0,171.0,609.536
609546.0,56.0,68.0,21.0,160.0,609.546
609556.0,55.0,67.0,20.0,147.0,609.556
609566.0,55.0,68.0,21.0,165.0,609.566
609576.0,55.0,70.0,20.0,159.0,609.576
609586.0,57.0,69.0,27.0,159.0,609.586
609596.0,57.0,70.0,28.0,163.0,609.596
609606.0,59.0,70.0,26.0,166.0,609.606
609616.0,58.0,71.0,23.0,169.0,609.616
609626.0,59.0,70.0,21.0,168.0,609.626
609636.0,58.0,72.0,19.0,158.0,609.636
609646.0,57.0,71.0,23.0,149.0,609.646
609656.0,58.0,71.0,26.0,144.0,609.656
609666.0,57.0,73.0,25.0,146.0,609.666
609676.0,57.0,72.0,22.0,149.0,609.676
609686.0,58.0,73.0,30.0,147.0,609.686
609696.0,57.0,73.0,27.0,167.0,609.696
609707.0,57.0,75.0,25.0,189.0,609.707
609717.0,57.0,75.0,23.0,183.0,609.717
609727.0,56.0,75.0,22.0,167.0,609.727
609737.0,54.0,75.0,18.0,160.0,609.737
609747.0,55.0,75.0,22.0,190.0,609.747
609757.0,54.0,76.0,20.0,195.0,609.757
609767.0,52.0,76.0,18.0,193.0,609.767
609777.0,52.0,78.0,35.0,182.0,609.777
609787.0,54.0,74.0,31.0,174.0,609.787
609797.0,54.0,75.0,28.0,173.0,609.797
609807.0,52.0,76.0,24.0,189.0,609.807
609817.0,52.0,76.0,22.0,199.0,609.817
609827.0,52.0,77.0,22.0,194.0,609.827
609837.0,55.0,75.0,21.0,200.0,609.837
609847.0,54.0,74.0,23.0,195.0,609.847
609857.0,55.0,74.0,24.0,184.0,609.857
609867.0,55.0,74.0,25.0,188.0,609.867
609878.0,54.0,78.0,27.0,180.0,609.878
609888.0,56.0,75.0,30.0,179.0,609.888
609898.0,57.0,75.0,25.0,169.0,609.898
609908.0,57.0,76.0,22.0,167.0,609.908
609918.0,57.0,77.0,22.0,181.0,609.918
609928.0,57.0,79.0,21.0,174.0,609.928
609938.0,57.0,80.0,22.0,160.0,609.938
609948.0,56.0,80.0,28.0,171.0,609.948
609958.0,59.0,80.0,28.0,176.0,609.958
609968.0,58.0,79.0,23.0,169.0,609.968
609978.0,60.0,79.0,21.0,163.0,609.978
609988.0,59.0,78.0,19.0,158.0,609.988
609998.0,60.0,78.0,19.0,190.0,609.998
610008.0,62.0,78.0,17.0,203.0,610.008
610018.0,61.0,78.0,16.0,203.0,610.018
610028.0,61.0,81.0,19.0,182.0,610.028
610038.0,63.0,79.0,19.0,178.0,610.038
610048.0,60.0,82.0,26.0,168.0,610.048
610058.0,62.0,80.0,31.0,183.0,610.058
610068.0,63.0,79.0,27.0,184.0,610.068
610078.0,64.0,78.0,25.0,182.0,610.078
610088.0,62.0,78.0,22.0,173.0,610.088
610098.0,62.0,78.0,20.0,170.0,610.098
610108.0,62.0,79.0,20.0,165.0,610.108
610118.0,61.0,79.0,19.0,154.0,610.118
610128.0,62.0,78.0,20.0,183.0,610.128
610138.0,61.0,79.0,18.0,188.0,610.138
610148.0,60.0,78.0,16.0,175.0,610.148
610158.0,60.0,80.0,14.0,158.0,610.158
610168.0,59.0,81.0,13.0,142.0,610.168
610178.0,58.0,84.0,13.0,158.0,610.178
610188.0,59.0,83.0,13.0,169.0,610.188
610198.0,59.0,86.0,13.0,162.0,610.198
610208.0,59.0,93.0,35.0,152.0,610.208
610219.0,63.0,91.0,33.0,163.0,610.219
610229.0,61.0,94.0,30.0,188.0,610.229
610239.0,61.0,93.0,28.0,177.0,610.239
610249.0,62.0,92.0,26.0,167.0,610.249
610259.0,61.0,93.0,23.0,159.0,610.259
610269.0,61.0,92.0,20.0,163.0,610.269
610279.0,60.0,94.0,19.0,167.0,610.279
610289.0,60.0,94.0,19.0,153.0,610.289
610299.0,59.0,95.0,19.0,139.0,610.299
610309.0,60.0,95.0,20.0,139.0,610.309
610319.0,62.0,93.0,19.0,150.0,610.319
610329.0,62.0,94.0,17.0,158.0,610.329
610339.0,62.0,92.0,15.0,161.0,610.339
610349.0,64.0,91.0,15.0,178.0,610.349
610359.0,65.0,92.0,15.0,219.0,610.359
610369.0,62.0,92.0,14.0,216.0,610.369
610379.0,63.0,90.0,17.0,202.0,610.379
610390.0,61.0,91.0,28.0,201.0,610.39
610400.0,61.0,88.0,25.0,186.0,610.4
610410.0,60.0,86.0,24.0,179.0,610.41
610420.0,60.0,85.0,21.0,170.0,610.42
610430.0,57.0,86.0,20.0,162.0,610.43
610440.0,57.0,86.0,17.0,169.0,610.44
610450.0,56.0,85.0,16.0,177.0,610.45
610460.0,54.0,86.0,14.0,166.0,610.46
610470.0,53.0,86.0,14.0,165.0,610.47
610480.0,54.0,85.0,16.0,158.0,610.48
610490.0,53.0,84.0,15.0,150.0,610.49
610500.0,53.0,84.0,21.0,143.0,610.5
610510.0,54.0,80.0,20.0,130.0,610.51
610520.0,55.0,78.0,20.0,139.0,610.52
610530.0,55.0,77.0,17.0,145.0,610.53
610540.0,54.0,76.0,16.0,149.0,610.54
610550.0,54.0,76.0,16.0,142.0,610.55
610560.0,53.0,76.0,19.0,140.0,610.56
610570.0,55.0,74.0,18.0,130.0,610.57
610580.0,54.0,75.0,22.0,133.0,610.58
610590.0,55.0,73.0,21.0,141.0,610.59
610600.0,56.0,73.0,18.0,136.0,610.6
610610.0,55.0,73.0,17.0,133.0,610.61
610620.0,56.0,71.0,16.0,126.0,610.62
610630.0,55.0,73.0,14.0,121.0,610.63
610640.0,56.0,73.0,21.0,131.0,610.64
610650.0,55.0,76.0,36.0,134.0,610.65
610660.0,59.0,73.0,37.0,162.0,610.66
610670.0,59.0,73.0,32.0,173.0,610.67
610680.0,59.0,73.0,27.0,167.0,610.68
610690.0,61.0,70.0,25.0,160.0,610.69
610700.0,61.0,71.0,22.0,147.0,610.7
610710.0,61.0,74.0,21.0,139.0,610.71
610720.0,61.0,73.0,19.0,135.0,610.72
610731.0,60.0,73.0,21.0,131.0,610.731
610741.0,61.0,73.0,19.0,130.0,610.741
610751.0,63.0,73.0,18.0,124.0,610.751
610761.0,62.0,74.0,20.0,127.0,610.761
610771.0,63.0,73.0,17.0,125.0,610.771
610781.0,66.0,74.0,17.0,144.0,610.781
610791.0,65.0,74.0,14.0,136.0,610.791
610801.0,65.0,74.0,13.0,125.0,610.801
610811.0,65.0,74.0,17.0,132.0,610.811
610821.0,65.0,73.0,15.0,135.0,610.821
610831.0,66.0,71.0,19.0,128.0,610.831
610841.0,67.0,71.0,27.0,119.0,610.841
610851.0,68.0,68.0,24.0,112.0,610.851
610861.0,68.0,69.0,20.0,117.0,610.861
610871.0,68.0,67.0,21.0,128.0,610.871
610881.0,68.0,68.0,18.0,130.0,610.881
610891.0,70.0,65.0,16.0,131.0,610.891
610902.0,69.0,66.0,16.0,124.0,610.902
610912.0,69.0,68.0,15.0,113.0,610.912
610922.0,70.0,70.0,23.0,139.0,610.922
610932.0,68.0,68.0,20.0,138.0,610.932
610942.0,66.0,66.0,17.0,131.0,610.942
610952.0,65.0,67.0,16.0,122.0,610.952
610962.0,64.0,66.0,15.0,118.0,610.962
610972.0,66.0,66.0,24.0,112.0,610.972
610982.0,64.0,68.0,39.0,126.0,610.982
610992.0,65.0,67.0,35.0,122.0,610.992
611002.0,65.0,67.0,30.0,119.0,611.002
611012.0,64.0,67.0,26.0,112.0,611.012
611022.0,63.0,66.0,24.0,123.0,611.022
611032.0,64.0,66.0,22.0,128.0,611.032
611042.0,62.0,66.0,20.0,116.0,611.042
611052.0,63.0,65.0,18.0,126.0,611.052
611062.0,63.0,64.0,25.0,127.0,611.062
611072.0,62.0,65.0,26.0,117.0,611.072
611082.0,63.0,64.0,36.0,115.0,611.082
611092.0,64.0,63.0,33.0,116.0,611.092
611102.0,64.0,62.0,29.0,107.0,611.102
611112.0,64.0,60.0,28.0,104.0,611.112
611122.0,63.0,62.0,29.0,104.0,611.122
611132.0,66.0,69.0,70.0,119.0,611.132
611142.0,67.0,69.0,84.0,112.0,611.142
611152.0,66.0,76.0,153.0,173.0,611.152
611162.0,71.0,78.0,196.0,206.0,611.162
611172.0,72.0,82.0,242.0,269.0,611.172
611182.0,73.0,83.0,255.0,282.0,611.182
611192.0,76.0,82.0,253.0,275.0,611.192
611202.0,81.0,82.0,245.0,284.0,611.202
611212.0,84.0,89.0,296.0,335.0,611.212
611222.0,92.0,85.0,271.0,311.0,611.222
611232.0,95.0,85.0,280.0,309.0,611.232
611243.0,107.0,90.0,272.0,321.0,611.243
611253.0,113.0,89.0,271.0,316.0,611.253
611263.0,113.0,91.0,282.0,338.0,611.263
611273.0,116.0,86.0,289.0,326.0,611.273
611283.0,118.0,80.0,265.0,314.0,611.283
611293.0,114.0,78.0,244.0,343.0,611.293
611303.0,111.0,79.0,231.0,328.0,611.303
611313.0,111.0,79.0,253.0,335.0,611.313
611323.0,107.0,76.0,246.0,332.0,611.323
611333.0,106.0,76.0,244.0,358.0,611.333
611343.0,107.0,73.0,219.0,332.0,611.343
611353.0,105.0,73.0,192.0,311.0,611.353
611363.0,102.0,69.0,170.0,293.0,611.363
611373.0,104.0,69.0,156.0,294.0,611.373
611383.0,103.0,71.0,152.0,302.0,611.383
611393.0,114.0,68.0,156.0,280.0,611.393
611403.0,119.0,65.0,161.0,276.0,611.403
611414.0,115.0,61.0,144.0,276.0,611.414
611424.0,113.0,58.0,133.0,264.0,611.424
611434.0,107.0,58.0,130.0,249.0,611.434
611444.0,105.0,55.0,132.0,241.0,611.444
611454.0,102.0,53.0,130.0,232.0,611.454
611464.0,99.0,52.0,118.0,218.0,611.464
611474.0,97.0,51.0,118.0,215.0,611.474
611484.0,95.0,49.0,113.0,201.0,611.484
611494.0,92.0,48.0,106.0,197.0,611.494
611504.0,95.0,49.0,97.0,196.0,611.504
611514.0,94.0,47.0,93.0,185.0,611.514
611524.0,97.0,53.0,103.0,225.0,611.524
611534.0,96.0,54.0,98.0,223.0,611.534
611544.0,95.0,54.0,90.0,216.0,611.544
611554.0,93.0,54.0,92.0,198.0,611.554
611564.0,92.0,56.0,81.0,189.0,611.564
611574.0,89.0,55.0,91.0,195.0,611.574
611584.0,89.0,56.0,93.0,196.0,611.584
611594.0,88.0,58.0,83.0,199.0,611.594
611604.0,86.0,56.0,77.0,190.0,611.604
611614.0,82.0,56.0,82.0,194.0,611.614
611624.0,80.0,54.0,74.0,199.0,611.624
611634.0,85.0,55.0,66.0,201.0,611.634
611644.0,86.0,57.0,67.0,189.0,611.644
611654.0,85.0,57.0,67.0,188.0,611.654
611664.0,86.0,57.0,64.0,175.0,611.664
611674.0,84.0,54.0,65.0,182.0,611.674
611684.0,85.0,55.0,59.0,180.0,611.684
611694.0,84.0,54.0,61.0,174.0,611.694
611704.0,82.0,54.0,59.0,181.0,611.704
611714.0,82.0,56.0,60.0,182.0,611.714
611724.0,80.0,57.0,60.0,169.0,611.724
611734.0,80.0,59.0,55.0,177.0,611.734
611744.0,79.0,59.0,54.0,182.0,611.744
611755.0,78.0,59.0,49.0,175.0,611.755
611765.0,77.0,59.0,51.0,177.0,611.765
611775.0,76.0,58.0,50.0,175.0,611.775
611785.0,80.0,60.0,48.0,173.0,611.785
611795.0,81.0,63.0,50.0,191.0,611.795
611805.0,78.0,64.0,51.0,183.0,611.805
611815.0,75.0,62.0,50.0,174.0,611.815
611825.0,72.0,62.0,49.0,160.0,611.825
611835.0,71.0,61.0,51.0,153.0,611.835
611845.0,71.0,61.0,58.0,146.0,611.845
611855.0,70.0,62.0,56.0,145.0,611.855
611865.0,69.0,61.0,64.0,149.0,611.865
611875.0,68.0,63.0,57.0,149.0,611.875
611885.0,68.0,62.0,54.0,144.0,611.885
611895.0,66.0,60.0,47.0,140.0,611.895
611905.0,64.0,57.0,47.0,129.0,611.905
611915.0,64.0,56.0,44.0,134.0,611.915
611926.0,62.0,55.0,44.0,130.0,611.926
611936.0,62.0,55.0,42.0,134.0,611.936
611946.0,59.0,55.0,38.0,133.0,611.946
611956.0,60.0,55.0,40.0,124.0,611.956
611966.0,60.0,57.0,35.0,134.0,611.966
611976.0,59.0,55.0,39.0,125.0,611.976
611986.0,59.0,54.0,40.0,122.0,611.986
611996.0,57.0,53.0,36.0,130.0,611.996
612006.0,58.0,51.0,33.0,133.0,612.006
612016.0,57.0,51.0,39.0,135.0,612.016
612026.0,57.0,52.0,38.0,133.0,612.026
612036.0,58.0,52.0,37.0,143.0,612.036
612046.0,61.0,50.0,39.0,136.0,612.046
612056.0,63.0,50.0,36.0,129.0,612.056
612066.0,61.0,48.0,37.0,121.0,612.066
612076.0,60.0,47.0,33.0,124.0,612.076
612086.0,58.0,46.0,32.0,125.0,612.086
612096.0,57.0,45.0,32.0,124.0,612.096
612106.0,57.0,46.0,36.0,118.0,612.106
612116.0,57.0,45.0,41.0,118.0,612.116
612126.0,57.0,46.0,43.0,122.0,612.126
612136.0,55.0,44.0,45.0,121.0,612.136
612146.0,55.0,43.0,42.0,125.0,612.146
612156.0,54.0,43.0,38.0,122.0,612.156
612166.0,54.0,42.0,48.0,120.0,612.166
612176.0,54.0,44.0,53.0,117.0,612.176
612186.0,55.0,45.0,47.0,115.0,612.186
612196.0,53.0,43.0,48.0,116.0,612.196
612206.0,53.0,43.0,46.0,120.0,612.206
612216.0,56.0,43.0,45.0,122.0,612.216
612226.0,55.0,43.0,40.0,121.0,612.226
612236.0,58.0,43.0,44.0,148.0,612.236
612246.0,56.0,44.0,49.0,139.0,612.246
612256.0,57.0,45.0,45.0,134.0,612.256
612267.0,58.0,45.0,42.0,131.0,612.267
612277.0,58.0,44.0,36.0,134.0,612.277
612287.0,57.0,43.0,34.0,131.0,612.287
612297.0,56.0,43.0,37.0,140.0,612.297
612307.0,55.0,42.0,42.0,130.0,612.307
612317.0,56.0,42.0,42.0,126.0,612.317
612327.0,57.0,44.0,47.0,116.0,612.327
612337.0,58.0,42.0,42.0,136.0,612.337
612347.0,58.0,42.0,38.0,126.0,612.347
612357.0,57.0,41.0,36.0,120.0,612.357
612367.0,57.0,41.0,35.0,112.0,612.367
612377.0,55.0,40.0,35.0,131.0,612.377
612387.0,56.0,42.0,41.0,140.0,612.387
612397.0,56.0,41.0,36.0,138.0,612.397
612407.0,58.0,43.0,52.0,146.0,612.407
612417.0,57.0,42.0,46.0,134.0,612.417
612427.0,58.0,42.0,41.0,121.0,612.427
612438.0,59.0,41.0,39.0,119.0,612.438
612448.0,58.0,41.0,38.0,122.0,612.448
612458.0,59.0,40.0,35.0,125.0,612.458
612468.0,58.0,41.0,31.0,115.0,612.468
612478.0,57.0,41.0,28.0,110.0,612.478
612488.0,55.0,42.0,35.0,115.0,612.488
612498.0,58.0,42.0,38.0,111.0,612.498
612508.0,57.0,43.0,32.0,113.0,612.508
612518.0,58.0,42.0,29.0,109.0,612.518
612528.0,57.0,43.0,33.0,104.0,612.528
612538.0,57.0,43.0,34.0,106.0,612.538
612548.0,60.0,43.0,31.0,123.0,612.548
612558.0,59.0,45.0,28.0,135.0,612.558
612568.0,61.0,48.0,37.0,132.0,612.568
612578.0,62.0,47.0,33.0,126.0,612.578
612588.0,62.0,47.0,30.0,116.0,612.588
612598.0,63.0,50.0,28.0,116.0,612.598
612608.0,63.0,51.0,25.0,112.0,612.608
612618.0,64.0,52.0,24.0,118.0,612.618
612628.0,62.0,53.0,22.0,127.0,612.628
612638.0,62.0,53.0,22.0,123.0,612.638
612648.0,61.0,54.0,37.0,133.0,612.648
612658.0,60.0,54.0,35.0,131.0,612.658
612668.0,61.0,53.0,34.0,131.0,612.668
612678.0,60.0,54.0,29.0,129.0,612.678
612688.0,59.0,54.0,29.0,122.0,612.688
612698.0,60.0,54.0,32.0,118.0,612.698
612708.0,58.0,55.0,29.0,124.0,612.708
612718.0,59.0,56.0,32.0,130.0,612.718
612728.0,59.0,55.0,43.0,140.0,612.728
612738.0,60.0,55.0,46.0,138.0,612.738
612748.0,57.0,56.0,39.0,124.0,612.748
612758.0,60.0,56.0,37.0,131.0,612.758
612768.0,58.0,57.0,32.0,134.0,612.768
612779.0,58.0,59.0,31.0,133.0,612.779
612789.0,58.0,57.0,27.0,125.0,612.789
612799.0,58.0,58.0,27.0,118.0,612.799
612809.0,59.0,57.0,40.0,108.0,612.809
612819.0,58.0,57.0,35.0,102.0,612.819
612829.0,58.0,56.0,33.0,98.0,612.829
612839.0,55.0,57.0,34.0,112.0,612.839
612849.0,64.0,56.0,33.0,105.0,612.849
612859.0,63.0,56.0,28.0,111.0,612.859
612869.0,61.0,55.0,26.0,105.0,612.869
612879.0,61.0,55.0,31.0,105.0,612.879
612889.0,61.0,55.0,33.0,131.0,612.889
612899.0,62.0,54.0,41.0,121.0,612.899
612909.0,60.0,53.0,42.0,118.0,612.909
612919.0,60.0,52.0,37.0,108.0,612.919
612929.0,59.0,52.0,34.0,122.0,612.929
612939.0,58.0,51.0,30.0,120.0,612.939
612950.0,56.0,50.0,34.0,113.0,612.95
612960.0,55.0,52.0,38.0,111.0,612.96
612970.0,57.0,49.0,42.0,116.0,612.97
612980.0,56.0,48.0,37.0,108.0,612.98
612990.0,63.0,47.0,34.0,104.0,612.99
613000.0,61.0,49.0,31.0,112.0,613.0
613010.0,61.0,47.0,27.0,113.0,613.01
613020.0,61.0,46.0,25.0,106.0,613.02
613030.0,57.0,47.0,28.0,102.0,613.03
613040.0,59.0,49.0,43.0,101.0,613.04
613050.0,57.0,47.0,38.0,108.0,613.05
613060.0,57.0,46.0,34.0,104.0,613.06
613070.0,57.0,47.0,31.0,100.0,613.07
613080.0,58.0,46.0,31.0,94.0,613.08
613090.0,58.0,44.0,27.0,92.0,613.09
613100.0,58.0,44.0,25.0,98.0,613.1
613110.0,59.0,42.0,28.0,95.0,613.11
613120.0,58.0,43.0,30.0,111.0,613.12
613130.0,58.0,41.0,27.0,102.0,613.13
613140.0,64.0,42.0,34.0,110.0,613.14
613150.0,66.0,43.0,35.0,112.0,613.15
613160.0,65.0,42.0,31.0,105.0,613.16
613170.0,65.0,43.0,28.0,110.0,613.17
613180.0,65.0,43.0,27.0,104.0,613.18
613190.0,65.0,43.0,28.0,100.0,613.19
613200.0,64.0,44.0,30.0,93.0,613.2
613210.0,63.0,42.0,26.0,94.0,613.21
613220.0,62.0,47.0,37.0,91.0,613.22
613230.0,63.0,44.0,36.0,100.0,613.23
613240.0,62.0,44.0,33.0,96.0,613.24
613250.0,62.0,43.0,35.0,88.0,613.25
613260.0,60.0,42.0,32.0,86.0,613.26
613270.0,58.0,40.0,28.0,88.0,613.27
613280.0,57.0,39.0,25.0,86.0,613.28
613291.0,58.0,39.0,22.0,81.0,613.291
613301.0,63.0,39.0,20.0,80.0,613.301
613311.0,61.0,38.0,17.0,81.0,613.311
613321.0,61.0,41.0,29.0,115.0,613.321
613331.0,60.0,40.0,35.0,115.0,613.331
613341.0,59.0,40.0,34.0,117.0,613.341
613351.0,59.0,40.0,31.0,114.0,613.351
613361.0,58.0,41.0,37.0,132.0,613.361
613371.0,58.0,39.0,35.0,131.0,613.371
613381.0,57.0,41.0,34.0,127.0,613.381
613391.0,58.0,41.0,31.0,123.0,613.391
613401.0,56.0,43.0,34.0,119.0,613.401
613411.0,55.0,44.0,35.0,111.0,613.411
613421.0,56.0,43.0,33.0,125.0,613.421
613431.0,56.0,43.0,33.0,136.0,613.431
613441.0,55.0,42.0,30.0,126.0,613.441
613451.0,55.0,43.0,27.0,116.0,613.451
613462.0,54.0,42.0,26.0,115.0,613.462
613472.0,52.0,41.0,22.0,109.0,613.472
613482.0,51.0,45.0,25.0,113.0,613.482
613492.0,51.0,43.0,23.0,110.0,613.492
613502.0,51.0,42.0,21.0,103.0,613.502
613512.0,51.0,42.0,20.0,97.0,613.512
613522.0,52.0,41.0,21.0,95.0,613.522
613532.0,53.0,40.0,20.0,105.0,613.532
613542.0,52.0,40.0,16.0,107.0,613.542
613552.0,51.0,39.0,16.0,101.0,613.552
613562.0,52.0,40.0,16.0,100.0,613.562
613572.0,52.0,42.0,27.0,91.0,613.572
613582.0,54.0,40.0,25.0,94.0,613.582
613592.0,54.0,43.0,22.0,103.0,613.592
613602.0,56.0,42.0,20.0,95.0,613.602
613612.0,56.0,43.0,18.0,94.0,613.612
613622.0,58.0,44.0,18.0,90.0,613.622
613632.0,59.0,43.0,16.0,87.0,613.632
613642.0,58.0,44.0,17.0,93.0,613.642
613652.0,60.0,44.0,34.0,91.0,613.652
613662.0,59.0,45.0,31.0,89.0,613.662
613672.0,60.0,45.0,31.0,90.0,613.672
613682.0,59.0,45.0,27.0,88.0,613.682
613692.0,58.0,45.0,25.0,91.0,613.692
613702.0,57.0,44.0,23.0,95.0,613.702
613712.0,56.0,44.0,20.0,97.0,613.712
613722.0,56.0,43.0,22.0,101.0,613.722
613732.0,56.0,44.0,35.0,99.0,613.732
613742.0,56.0,43.0,32.0,99.0,613.742
613752.0,56.0,41.0,27.0,96.0,613.752
613762.0,54.0,42.0,26.0,98.0,613.762
613772.0,55.0,40.0,24.0,96.0,613.772
613782.0,56.0,40.0,21.0,100.0,613.782
613792.0,55.0,37.0,19.0,97.0,613.792
613803.0,57.0,38.0,19.0,98.0,613.803
613813.0,55.0,39.0,24.0,105.0,613.813
613823.0,56.0,39.0,29.0,103.0,613.823
613833.0,56.0,40.0,34.0,105.0,613.833
613843.0,58.0,40.0,33.0,108.0,613.843
613853.0,59.0,40.0,31.0,102.0,613.853
613863.0,59.0,38.0,28.0,104.0,613.863
613873.0,59.0,37.0,25.0,102.0,613.873
613883.0,58.0,38.0,27.0,108.0,613.883
613893.0,58.0,37.0,24.0,107.0,613.893
613903.0,57.0,38.0,34.0,104.0,613.903
613913.0,58.0,37.0,30.0,97.0,613.913
613923.0,58.0,39.0,27.0,105.0,613.923
613933.0,58.0,37.0,27.0,98.0,613.933
613943.0,57.0,37.0,29.0,100.0,613.943
613953.0,60.0,38.0,29.0,105.0,613.953
613963.0,60.0,38.0,29.0,107.0,613.963
613974.0,60.0,39.0,32.0,109.0,613.974
613984.0,62.0,40.0,33.0,109.0,613.984
613994.0,60.0,39.0,35.0,117.0,613.994
614004.0,60.0,39.0,35.0,110.0,614.004
614014.0,60.0,39.0,32.0,108.0,614.014
614024.0,62.0,39.0,30.0,101.0,614.024
614034.0,60.0,39.0,26.0,99.0,614.034
614044.0,59.0,39.0,25.0,106.0,614.044
614054.0,59.0,40.0,23.0,111.0,614.054
614064.0,59.0,43.0,31.0,115.0,614.064
614074.0,59.0,42.0,28.0,112.0,614.074
614084.0,59.0,40.0,28.0,108.0,614.084
614094.0,60.0,40.0,29.0,106.0,614.094
614104.0,58.0,39.0,30.0,102.0,614.104
614114.0,56.0,38.0,28.0,97.0,614.114
614124.0,57.0,39.0,29.0,103.0,614.124
614134.0,58.0,41.0,27.0,104.0,614.134
614144.0,58.0,42.0,39.0,106.0,614.144
614154.0,58.0,40.0,37.0,121.0,614.154
614164.0,58.0,40.0,33.0,122.0,614.164
614174.0,57.0,39.0,28.0,113.0,614.174
614184.0,57.0,40.0,27.0,114.0,614.184
614194.0,57.0,41.0,27.0,113.0,614.194
614204.0,57.0,42.0,25.0,110.0,614.204
614214.0,56.0,41.0,24.0,116.0,614.214
614224.0,57.0,43.0,40.0,116.0,614.224
614234.0,57.0,43.0,40.0,115.0,614.234
614244.0,58.0,43.0,34.0,113.0,614.244
614254.0,56.0,43.0,30.0,109.0,614.254
614264.0,58.0,43.0,27.0,105.0,614.264
614274.0,59.0,43.0,29.0,120.0,614.274
614284.0,57.0,41.0,27.0,116.0,614.284
614294.0,56.0,40.0,25.0,111.0,614.294
614304.0,59.0,40.0,24.0,107.0,614.304
614315.0,56.0,41.0,28.0,110.0,614.315
614325.0,56.0,40.0,33.0,102.0,614.325
614335.0,56.0,39.0,39.0,103.0,614.335
614345.0,56.0,40.0,37.0,99.0,614.345
614355.0,55.0,39.0,33.0,110.0,614.355
614365.0,53.0,39.0,29.0,114.0,614.365
614375.0,53.0,37.0,27.0,108.0,614.375
614385.0,52.0,37.0,28.0,101.0,614.385
614395.0,54.0,37.0,31.0,104.0,614.395
614405.0,53.0,38.0,36.0,99.0,614.405
614415.0,54.0,40.0,39.0,100.0,614.415
614425.0,55.0,39.0,37.0,101.0,614.425
614435.0,55.0,39.0,33.0,109.0,614.435
614445.0,57.0,40.0,33.0,110.0,614.445
614455.0,58.0,42.0,28.0,104.0,614.455
614465.0,58.0,42.0,26.0,96.0,614.465
614475.0,58.0,41.0,26.0,105.0,614.475
614486.0,57.0,42.0,22.0,103.0,614.486
614496.0,56.0,42.0,23.0,104.0,614.496
614506.0,57.0,43.0,34.0,105.0,614.506
614516.0,57.0,44.0,33.0,100.0,614.516
614526.0,57.0,44.0,29.0,96.0,614.526
614536.0,58.0,44.0,30.0,105.0,614.536
614546.0,60.0,43.0,26.0,104.0,614.546
614556.0,59.0,45.0,24.0,100.0,614.556
614566.0,60.0,44.0,28.0,98.0,614.566
614576.0,60.0,44.0,25.0,94.0,614.576
614586.0,61.0,45.0,25.0,91.0,614.586
614596.0,61.0,45.0,25.0,105.0,614.596
614606.0,60.0,46.0,31.0,101.0,614.606
614616.0,62.0,44.0,30.0,103.0,614.616
614626.0,63.0,45.0,26.0,99.0,614.626
614636.0,64.0,44.0,26.0,92.0,614.636
614646.0,62.0,44.0,22.0,84.0,614.646
614656.0,63.0,46.0,23.0,91.0,614.656
614666.0,62.0,46.0,20.0,91.0,614.666
614676.0,63.0,48.0,18.0,95.0,614.676
614686.0,62.0,45.0,23.0,100.0,614.686
614696.0,62.0,50.0,23.0,106.0,614.696
614706.0,62.0,49.0,22.0,101.0,614.706
614716.0,61.0,51.0,24.0,106.0,614.716
614726.0,61.0,52.0,34.0,102.0,614.726
614736.0,60.0,51.0,35.0,106.0,614.736
614746.0,58.0,51.0,30.0,102.0,614.746
614756.0,58.0,51.0,29.0,99.0,614.756
614766.0,57.0,53.0,34.0,98.0,614.766
614776.0,56.0,52.0,32.0,94.0,614.776
614786.0,58.0,54.0,33.0,96.0,614.786
614796.0,56.0,54.0,29.0,99.0,614.796
614806.0,56.0,54.0,30.0,99.0,614.806
614816.0,54.0,55.0,28.0,95.0,614.816
614827.0,54.0,56.0,28.0,96.0,614.827
614837.0,53.0,57.0,30.0,97.0,614.837
614847.0,55.0,60.0,39.0,100.0,614.847
614857.0,54.0,62.0,34.0,96.0,614.857
614867.0,55.0,63.0,32.0,97.0,614.867
614877.0,54.0,63.0,30.0,95.0,614.877
614887.0,54.0,64.0,30.0,104.0,614.887
614897.0,54.0,65.0,27.0,107.0,614.897
614907.0,52.0,66.0,27.0,104.0,614.907
614917.0,52.0,66.0,28.0,94.0,614.917
614927.0,51.0,63.0,27.0,91.0,614.927
614937.0,51.0,64.0,37.0,87.0,614.937
614947.0,52.0,65.0,37.0,85.0,614.947
614957.0,51.0,66.0,34.0,89.0,614.957
614967.0,51.0,66.0,31.0,88.0,614.967
614977.0,51.0,66.0,27.0,93.0,614.977
614987.0,51.0,66.0,24.0,94.0,614.987
614998.0,52.0,67.0,21.0,86.0,614.998
615008.0,52.0,68.0,21.0,95.0,615.008
615018.0,54.0,67.0,21.0,99.0,615.018
615028.0,54.0,67.0,30.0,99.0,615.028
615038.0,55.0,68.0,27.0,100.0,615.038
615048.0,54.0,67.0,29.0,99.0,615.048
615058.0,54.0,66.0,28.0,98.0,615.058
615068.0,55.0,66.0,30.0,110.0,615.068
615078.0,55.0,66.0,28.0,112.0,615.078
615088.0,55.0,65.0,25.0,108.0,615.088
615098.0,54.0,64.0,22.0,110.0,615.098
615108.0,55.0,63.0,22.0,115.0,615.108
615118.0,55.0,64.0,25.0,111.0,615.118
615128.0,54.0,64.0,27.0,105.0,615.128
615138.0,55.0,65.0,27.0,100.0,615.138
615148.0,53.0,66.0,25.0,98.0,615.148
615158.0,53.0,66.0,26.0,105.0,615.158
615168.0,52.0,68.0,33.0,102.0,615.168
615178.0,52.0,69.0,34.0,98.0,615.178
615188.0,52.0,71.0,30.0,99.0,615.188
615198.0,51.0,73.0,29.0,90.0,615.198
615208.0,50.0,74.0,27.0,97.0,615.208
615218.0,51.0,77.0,25.0,99.0,615.218
615228.0,52.0,78.0,27.0,91.0,615.228
615238.0,50.0,78.0,35.0,96.0,615.238
615248.0,50.0,77.0,43.0,95.0,615.248
615258.0,50.0,79.0,40.0,93.0,615.258
615268.0,51.0,81.0,35.0,98.0,615.268
615278.0,50.0,81.0,33.0,92.0,615.278
615288.0,48.0,80.0,29.0,92.0,615.288
615298.0,50.0,81.0,32.0,94.0,615.298
615308.0,48.0,81.0,28.0,93.0,615.308
615318.0,48.0,81.0,28.0,97.0,615.318
615328.0,49.0,84.0,26.0,93.0,615.328
615339.0,49.0,85.0,25.0,88.0,615.339
615349.0,48.0,84.0,27.0,82.0,615.349
615359.0,47.0,84.0,37.0,78.0,615.359
615369.0,48.0,86.0,34.0,81.0,615.369
615379.0,48.0,85.0,30.0,98.0,615.379
615389.0,46.0,83.0,31.0,92.0,615.389
615399.0,46.0,84.0,41.0,97.0,615.399
615409.0,48.0,84.0,37.0,100.0,615.409
615419.0,47.0,83.0,43.0,98.0,615.419
615429.0,49.0,84.0,37.0,91.0,615.429
615439.0,49.0,82.0,41.0,95.0,615.439
615449.0,50.0,82.0,36.0,93.0,615.449
615459.0,51.0,82.0,30.0,88.0,615.459
615469.0,51.0,81.0,29.0,91.0,615.469
615479.0,51.0,81.0,25.0,88.0,615.479
615489.0,53.0,80.0,23.0,83.0,615.489
615499.0,52.0,81.0,21.0,98.0,615.499
615510.0,54.0,82.0,19.0,102.0,615.51
615520.0,52.0,79.0,45.0,107.0,615.52
615530.0,53.0,81.0,46.0,103.0,615.53
615540.0,54.0,83.0,40.0,106.0,615.54
615550.0,55.0,84.0,36.0,102.0,615.55
615560.0,55.0,84.0,33.0,106.0,615.56
615570.0,54.0,86.0,34.0,101.0,615.57
615580.0,56.0,86.0,32.0,105.0,615.58
615590.0,53.0,84.0,29.0,100.0,615.59
615600.0,55.0,86.0,31.0,104.0,615.6
615610.0,54.0,85.0,27.0,100.0,615.61
615620.0,51.0,82.0,33.0,94.0,615.62
615630.0,52.0,82.0,30.0,91.0,615.63
615640.0,51.0,81.0,27.0,93.0,615.64
615650.0,53.0,79.0,27.0,93.0,615.65
615660.0,52.0,77.0,30.0,101.0,615.66
615670.0,52.0,76.0,33.0,99.0,615.67
615680.0,50.0,74.0,34.0,95.0,615.68
615690.0,49.0,73.0,31.0,94.0,615.69
615700.0,48.0,70.0,28.0,86.0,615.7
615710.0,47.0,69.0,25.0,96.0,615.71
615720.0,46.0,68.0,36.0,94.0,615.72
615730.0,47.0,64.0,32.0,93.0,615.73
615740.0,46.0,62.0,31.0,93.0,615.74
615750.0,47.0,62.0,30.0,92.0,615.75
615760.0,46.0,60.0,26.0,94.0,615.76
615770.0,46.0,58.0,24.0,92.0,615.77
615780.0,45.0,56.0,21.0,98.0,615.78
615790.0,45.0,56.0,23.0,96.0,615.79
615800.0,44.0,57.0,22.0,106.0,615.8
615810.0,44.0,57.0,22.0,108.0,615.81
615820.0,44.0,58.0,30.0,104.0,615.82
615830.0,45.0,59.0,30.0,102.0,615.83
615840.0,45.0,59.0,33.0,105.0,615.84
615851.0,45.0,59.0,29.0,102.0,615.851
615861.0,46.0,56.0,30.0,96.0,615.861
615871.0,45.0,58.0,32.0,99.0,615.871
615881.0,45.0,58.0,29.0,93.0,615.881
615891.0,45.0,57.0,41.0,96.0,615.891
615901.0,44.0,59.0,41.0,88.0,615.901
615911.0,44.0,58.0,38.0,99.0,615.911
615921.0,44.0,58.0,33.0,99.0,615.921
615931.0,45.0,59.0,31.0,93.0,615.931
615941.0,44.0,59.0,27.0,91.0,615.941
615951.0,44.0,59.0,23.0,93.0,615.951
615961.0,45.0,58.0,23.0,103.0,615.961
615971.0,44.0,55.0,20.0,96.0,615.971
615981.0,45.0,55.0,21.0,97.0,615.981
615991.0,45.0,56.0,28.0,98.0,615.991
616001.0,46.0,57.0,25.0,98.0,616.001
616011.0,46.0,58.0,23.0,100.0,616.011
616022.0,47.0,58.0,27.0,106.0,616.022
616032.0,46.0,57.0,24.0,102.0,616.032
616042.0,46.0,57.0,22.0,101.0,616.042
616052.0,45.0,56.0,20.0,95.0,616.052
616062.0,44.0,56.0,21.0,98.0,616.062
616072.0,45.0,56.0,23.0,100.0,616.072
616082.0,45.0,58.0,31.0,117.0,616.082
616092.0,44.0,60.0,27.0,109.0,616.092
616102.0,45.0,61.0,24.0,101.0,616.102
616112.0,44.0,62.0,24.0,101.0,616.112
616122.0,46.0,62.0,23.0,96.0,616.122
616132.0,46.0,61.0,25.0,97.0,616.132
616142.0,49.0,61.0,32.0,94.0,616.142
616152.0,47.0,59.0,30.0,98.0,616.152
616162.0,48.0,60.0,26.0,92.0,616.162
616172.0,47.0,57.0,24.0,92.0,616.172
616182.0,48.0,59.0,30.0,89.0,616.182
616192.0,47.0,56.0,34.0,94.0,616.192
616202.0,47.0,55.0,32.0,96.0,616.202
616212.0,49.0,54.0,29.0,91.0,616.212
616222.0,48.0,51.0,28.0,101.0,616.222
616232.0,49.0,49.0,23.0,98.0,616.232
616242.0,50.0,47.0,26.0,95.0,616.242
616252.0,50.0,47.0,31.0,90.0,616.252
616262.0,51.0,46.0,39.0,96.0,616.262
616272.0,50.0,44.0,33.0,90.0,616.272
616282.0,51.0,42.0,34.0,87.0,616.282
616292.0,53.0,42.0,30.0,89.0,616.292
616302.0,52.0,42.0,27.0,93.0,616.302
616312.0,53.0,41.0,24.0,99.0,616.312
616322.0,51.0,44.0,23.0,105.0,616.322
616332.0,53.0,41.0,28.0,105.0,616.332
616342.0,52.0,41.0,24.0,99.0,616.342
616352.0,53.0,43.0,35.0,93.0,616.352
616363.0,53.0,42.0,34.0,90.0,616.363
616373.0,52.0,42.0,31.0,99.0,616.373
616383.0,52.0,41.0,30.0,111.0,616.383
616393.0,50.0,42.0,28.0,105.0,616.393
616403.0,50.0,41.0,29.0,98.0,616.403
616413.0,49.0,42.0,32.0,92.0,616.413
616423.0,47.0,42.0,33.0,88.0,616.423
616433.0,47.0,43.0,27.0,81.0,616.433
616443.0,47.0,46.0,32.0,96.0,616.443
616453.0,48.0,46.0,30.0,107.0,616.453
616463.0,47.0,46.0,26.0,96.0,616.463
616473.0,47.0,46.0,30.0,92.0,616.473
616483.0,48.0,46.0,31.0,97.0,616.483
616493.0,47.0,46.0,29.0,99.0,616.493
616503.0,46.0,46.0,28.0,121.0,616.503
616513.0,46.0,45.0,26.0,117.0,616.513
616523.0,47.0,47.0,27.0,106.0,616.523
616534.0,46.0,46.0,24.0,106.0,616.534
616544.0,47.0,47.0,24.0,106.0,616.544
616554.0,46.0,49.0,26.0,109.0,616.554
616564.0,47.0,48.0,24.0,103.0,616.564
616574.0,47.0,49.0,24.0,115.0,616.574
616584.0,47.0,51.0,34.0,108.0,616.584
616594.0,47.0,49.0,31.0,112.0,616.594
616604.0,47.0,51.0,28.0,110.0,616.604
616614.0,48.0,52.0,30.0,110.0,616.614
616624.0,49.0,53.0,32.0,106.0,616.624
616634.0,49.0,54.0,32.0,102.0,616.634
616644.0,48.0,57.0,28.0,105.0,616.644
616654.0,49.0,61.0,33.0,100.0,616.654
616664.0,50.0,60.0,37.0,98.0,616.664
