time (ms),signal 0,signal 1,signal 2,signal3,time (sec)
557650.0,65.0,92.0,41.0,71.0,557.65
557660.0,65.0,93.0,43.0,68.0,557.66
557670.0,65.0,89.0,41.0,71.0,557.67
557680.0,67.0,89.0,39.0,74.0,557.68
557690.0,68.0,86.0,37.0,70.0,557.69
557700.0,70.0,87.0,48.0,70.0,557.7
557710.0,72.0,84.0,47.0,69.0,557.71
557720.0,75.0,85.0,48.0,71.0,557.72
557730.0,76.0,81.0,50.0,75.0,557.73
557740.0,79.0,79.0,49.0,74.0,557.74
557750.0,82.0,79.0,43.0,72.0,557.75
557760.0,84.0,78.0,42.0,70.0,557.76
557770.0,86.0,77.0,41.0,73.0,557.77
557780.0,87.0,75.0,37.0,79.0,557.78
557790.0,89.0,72.0,32.0,78.0,557.79
557800.0,90.0,73.0,32.0,78.0,557.8
557810.0,90.0,73.0,45.0,76.0,557.81
557820.0,93.0,70.0,43.0,78.0,557.82
557830.0,94.0,68.0,38.0,72.0,557.83
557840.0,96.0,67.0,40.0,71.0,557.84
557850.0,99.0,64.0,40.0,75.0,557.85
557860.0,99.0,63.0,40.0,77.0,557.86
557870.0,99.0,62.0,41.0,79.0,557.87
557880.0,99.0,58.0,37.0,77.0,557.88
557890.0,99.0,60.0,43.0,77.0,557.89
557900.0,100.0,58.0,44.0,75.0,557.9
557910.0,102.0,54.0,41.0,77.0,557.91
557920.0,102.0,53.0,37.0,77.0,557.92
557930.0,104.0,50.0,37.0,81.0,557.93
557940.0,103.0,50.0,32.0,83.0,557.94
557950.0,104.0,50.0,37.0,79.0,557.95
557960.0,106.0,51.0,37.0,82.0,557.96
557970.0,108.0,50.0,37.0,85.0,557.97
557980.0,109.0,46.0,32.0,80.0,557.98
557990.0,109.0,46.0,31.0,82.0,557.99
558000.0,110.0,44.0,31.0,83.0,558.0
558010.0,110.0,45.0,27.0,84.0,558.01
558020.0,110.0,46.0,36.0,80.0,558.02
558030.0,111.0,47.0,35.0,82.0,558.03
558040.0,111.0,48.0,34.0,90.0,558.04
558050.0,112.0,47.0,35.0,85.0,558.05
558060.0,113.0,47.0,31.0,87.0,558.06
558070.0,114.0,46.0,28.0,82.0,558.07
558080.0,114.0,48.0,38.0,82.0,558.08
558090.0,113.0,46.0,45.0,80.0,558.09
558100.0,113.0,47.0,42.0,77.0,558.1
558110.0,112.0,47.0,42.0,75.0,558.11
558120.0,111.0,46.0,40.0,71.0,558.12
558130.0,112.0,47.0,35.0,69.0,558.13
558140.0,114.0,46.0,32.0,65.0,558.14
558150.0,112.0,48.0,32.0,69.0,558.15
558160.0,114.0,50.0,42.0,74.0,558.16
558170.0,113.0,49.0,48.0,77.0,558.17
558180.0,114.0,49.0,42.0,81.0,558.18
558190.0,116.0,50.0,39.0,76.0,558.19
558200.0,115.0,52.0,35.0,76.0,558.2
558210.0,117.0,51.0,33.0,75.0,558.21
558220.0,116.0,51.0,30.0,69.0,558.22
558230.0,118.0,51.0,28.0,69.0,558.23
558240.0,118.0,52.0,30.0,67.0,558.24
558251.0,119.0,51.0,33.0,73.0,558.251
558261.0,119.0,50.0,32.0,71.0,558.261
558271.0,120.0,49.0,30.0,67.0,558.271
558281.0,120.0,48.0,33.0,70.0,558.281
558291.0,119.0,46.0,29.0,80.0,558.291
558301.0,118.0,45.0,28.0,83.0,558.301
558311.0,119.0,49.0,38.0,88.0,558.311
558321.0,118.0,48.0,38.0,86.0,558.321
558331.0,117.0,48.0,36.0,90.0,558.331
558341.0,116.0,48.0,32.0,92.0,558.341
558351.0,114.0,48.0,30.0,84.0,558.351
558361.0,113.0,48.0,32.0,98.0,558.361
558371.0,111.0,50.0,41.0,104.0,558.371
558381.0,111.0,52.0,41.0,105.0,558.381
558391.0,109.0,53.0,48.0,100.0,558.391
558401.0,110.0,54.0,44.0,96.0,558.401
558411.0,109.0,56.0,38.0,92.0,558.411
558422.0,107.0,56.0,38.0,83.0,558.422
558432.0,105.0,56.0,39.0,85.0,558.432
558442.0,104.0,56.0,42.0,84.0,558.442
558452.0,106.0,58.0,38.0,87.0,558.452
558462.0,104.0,59.0,37.0,85.0,558.462
558472.0,105.0,58.0,34.0,88.0,558.472
558482.0,103.0,60.0,31.0,84.0,558.482
558492.0,104.0,59.0,30.0,85.0,558.492
558502.0,101.0,60.0,33.0,85.0,558.502
558512.0,101.0,61.0,29.0,89.0,558.512
558522.0,101.0,61.0,36.0,89.0,558.522
558532.0,98.0,60.0,32.0,88.0,558.532
558542.0,98.0,58.0,32.0,86.0,558.542
558552.0,96.0,58.0,36.0,85.0,558.552
558562.0,97.0,58.0,35.0,86.0,558.562
558572.0,97.0,58.0,35.0,79.0,558.572
558582.0,94.0,57.0,37.0,82.0,558.582
558592.0,96.0,57.0,34.0,79.0,558.592
558602.0,93.0,55.0,33.0,85.0,558.602
558612.0,93.0,53.0,34.0,88.0,558.612
558622.0,93.0,52.0,38.0,85.0,558.622
558632.0,93.0,51.0,52.0,83.0,558.632
558642.0,93.0,51.0,57.0,86.0,558.642
558652.0,94.0,52.0,50.0,93.0,558.652
558662.0,93.0,50.0,47.0,87.0,558.662
558672.0,94.0,50.0,47.0,87.0,558.672
558682.0,93.0,48.0,42.0,88.0,558.682
558692.0,96.0,48.0,37.0,92.0,558.692
558702.0,97.0,48.0,35.0,91.0,558.702
558712.0,95.0,47.0,49.0,102.0,558.712
558722.0,94.0,49.0,59.0,104.0,558.722
558732.0,94.0,48.0,53.0,116.0,558.732
558742.0,94.0,49.0,49.0,118.0,558.742
558752.0,94.0,47.0,43.0,117.0,558.752
558763.0,94.0,47.0,37.0,110.0,558.763
558773.0,93.0,46.0,46.0,128.0,558.773
558783.0,94.0,46.0,50.0,126.0,558.783
558793.0,93.0,46.0,53.0,117.0,558.793
558803.0,92.0,45.0,49.0,113.0,558.803
558813.0,90.0,44.0,51.0,115.0,558.813
558823.0,88.0,43.0,45.0,115.0,558.823
558833.0,87.0,42.0,39.0,107.0,558.833
558843.0,87.0,41.0,48.0,100.0,558.843
558853.0,87.0,40.0,43.0,100.0,558.853
558863.0,86.0,40.0,36.0,99.0,558.863
558873.0,86.0,40.0,35.0,95.0,558.873
558883.0,84.0,41.0,43.0,94.0,558.883
558893.0,86.0,43.0,51.0,99.0,558.893
558903.0,86.0,43.0,71.0,115.0,558.903
558913.0,88.0,45.0,81.0,114.0,558.913
558923.0,90.0,45.0,78.0,136.0,558.923
558934.0,89.0,43.0,69.0,147.0,558.934
558944.0,92.0,42.0,60.0,141.0,558.944
558954.0,93.0,43.0,52.0,140.0,558.954
558964.0,95.0,42.0,49.0,133.0,558.964
558974.0,94.0,41.0,48.0,124.0,558.974
558984.0,93.0,40.0,43.0,119.0,558.984
558994.0,92.0,42.0,61.0,110.0,558.994
559004.0,90.0,44.0,60.0,109.0,559.004
559014.0,91.0,44.0,62.0,115.0,559.014
559024.0,88.0,45.0,55.0,123.0,559.024
559034.0,87.0,44.0,51.0,131.0,559.034
559044.0,86.0,44.0,46.0,133.0,559.044
559054.0,83.0,45.0,54.0,124.0,559.054
559064.0,83.0,45.0,49.0,118.0,559.064
559074.0,79.0,47.0,52.0,115.0,559.074
559084.0,80.0,46.0,47.0,110.0,559.084
559094.0,80.0,44.0,44.0,109.0,559.094
559104.0,78.0,44.0,40.0,104.0,559.104
559114.0,79.0,43.0,35.0,112.0,559.114
559124.0,77.0,44.0,32.0,107.0,559.124
559134.0,76.0,44.0,28.0,105.0,559.134
559144.0,76.0,42.0,24.0,114.0,559.144
559154.0,73.0,45.0,21.0,119.0,559.154
559164.0,70.0,46.0,19.0,122.0,559.164
559174.0,67.0,46.0,17.0,122.0,559.174
559184.0,65.0,51.0,15.0,110.0,559.184
559194.0,68.0,51.0,15.0,107.0,559.194
559204.0,69.0,49.0,14.0,105.0,559.204
559214.0,65.0,51.0,13.0,97.0,559.214
559224.0,65.0,52.0,13.0,97.0,559.224
559234.0,64.0,58.0,14.0,108.0,559.234
559244.0,63.0,61.0,13.0,113.0,559.244
559254.0,63.0,76.0,22.0,137.0,559.254
559264.0,63.0,76.0,27.0,157.0,559.264
559275.0,64.0,75.0,27.0,159.0,559.275
559285.0,61.0,71.0,24.0,151.0,559.285
559295.0,61.0,72.0,24.0,149.0,559.295
559305.0,58.0,70.0,22.0,149.0,559.305
559315.0,58.0,70.0,19.0,180.0,559.315
559325.0,57.0,65.0,18.0,177.0,559.325
559335.0,56.0,69.0,15.0,162.0,559.335
559345.0,57.0,66.0,14.0,168.0,559.345
559355.0,56.0,63.0,18.0,162.0,559.355
559365.0,55.0,66.0,22.0,175.0,559.365
559375.0,56.0,65.0,28.0,168.0,559.375
559385.0,57.0,65.0,28.0,174.0,559.385
559395.0,56.0,64.0,33.0,176.0,559.395
559405.0,55.0,64.0,29.0,198.0,559.405
559415.0,54.0,63.0,27.0,198.0,559.415
559425.0,52.0,63.0,23.0,194.0,559.425
559435.0,52.0,65.0,20.0,177.0,559.435
559446.0,51.0,72.0,19.0,179.0,559.446
559456.0,52.0,70.0,17.0,178.0,559.456
559466.0,52.0,66.0,18.0,178.0,559.466
559476.0,51.0,71.0,25.0,204.0,559.476
559486.0,52.0,75.0,27.0,195.0,559.486
559496.0,50.0,79.0,26.0,223.0,559.496
559506.0,50.0,88.0,30.0,207.0,559.506
559516.0,52.0,106.0,38.0,200.0,559.516
559526.0,53.0,119.0,40.0,211.0,559.526
559536.0,53.0,128.0,42.0,239.0,559.536
559546.0,53.0,135.0,45.0,247.0,559.546
559556.0,54.0,145.0,40.0,236.0,559.556
559566.0,51.0,158.0,34.0,214.0,559.566
559576.0,51.0,167.0,32.0,214.0,559.576
559586.0,50.0,176.0,28.0,221.0,559.586
559596.0,49.0,186.0,31.0,213.0,559.596
559606.0,50.0,194.0,31.0,204.0,559.606
559616.0,48.0,207.0,27.0,202.0,559.616
559626.0,49.0,218.0,37.0,194.0,559.626
559636.0,50.0,224.0,38.0,179.0,559.636
559646.0,52.0,229.0,42.0,202.0,559.646
559656.0,52.0,237.0,42.0,224.0,559.656
559666.0,52.0,243.0,39.0,249.0,559.666
559676.0,52.0,252.0,40.0,258.0,559.676
559686.0,53.0,257.0,43.0,262.0,559.686
559696.0,53.0,272.0,39.0,243.0,559.696
559706.0,52.0,278.0,41.0,278.0,559.706
559716.0,53.0,308.0,45.0,348.0,559.716
559726.0,54.0,318.0,49.0,325.0,559.726
559736.0,57.0,302.0,51.0,315.0,559.736
559746.0,58.0,297.0,59.0,402.0,559.746
559756.0,59.0,299.0,76.0,378.0,559.756
559766.0,61.0,294.0,68.0,391.0,559.766
559776.0,60.0,299.0,59.0,430.0,559.776
559787.0,62.0,295.0,68.0,473.0,559.787
559797.0,63.0,292.0,60.0,470.0,559.797
559807.0,62.0,297.0,63.0,507.0,559.807
559817.0,61.0,310.0,66.0,467.0,559.817
559827.0,61.0,291.0,81.0,532.0,559.827
559837.0,62.0,289.0,77.0,483.0,559.837
559847.0,65.0,290.0,77.0,528.0,559.847
559857.0,62.0,288.0,80.0,630.0,559.857
559867.0,63.0,288.0,83.0,671.0,559.867
559877.0,60.0,290.0,74.0,632.0,559.877
559887.0,60.0,292.0,68.0,588.0,559.887
559897.0,58.0,292.0,64.0,531.0,559.897
559907.0,59.0,293.0,66.0,484.0,559.907
559917.0,58.0,295.0,59.0,442.0,559.917
559927.0,59.0,300.0,64.0,490.0,559.927
559937.0,59.0,301.0,63.0,480.0,559.937
559947.0,58.0,300.0,58.0,442.0,559.947
559958.0,57.0,301.0,51.0,404.0,559.958
559968.0,55.0,305.0,46.0,366.0,559.968
559978.0,54.0,307.0,44.0,362.0,559.978
559988.0,56.0,306.0,47.0,419.0,559.988
559998.0,54.0,308.0,44.0,381.0,559.998
560008.0,55.0,310.0,46.0,361.0,560.008
560018.0,54.0,310.0,41.0,366.0,560.018
560028.0,55.0,311.0,42.0,368.0,560.028
560038.0,56.0,310.0,49.0,353.0,560.038
560048.0,56.0,310.0,49.0,345.0,560.048
560058.0,56.0,309.0,46.0,342.0,560.058
560068.0,55.0,310.0,49.0,309.0,560.068
560078.0,56.0,304.0,43.0,296.0,560.078
560088.0,54.0,303.0,40.0,286.0,560.088
560098.0,54.0,299.0,42.0,277.0,560.098
560108.0,53.0,294.0,44.0,258.0,560.108
560118.0,53.0,291.0,42.0,301.0,560.118
560128.0,54.0,288.0,37.0,300.0,560.128
560138.0,52.0,285.0,42.0,311.0,560.138
560148.0,52.0,284.0,38.0,285.0,560.148
560158.0,52.0,280.0,33.0,257.0,560.158
560168.0,51.0,278.0,30.0,238.0,560.168
560178.0,52.0,278.0,32.0,257.0,560.178
560188.0,52.0,275.0,29.0,262.0,560.188
560198.0,54.0,275.0,29.0,270.0,560.198
560208.0,52.0,275.0,28.0,257.0,560.208
560218.0,54.0,275.0,26.0,248.0,560.218
560228.0,53.0,273.0,23.0,237.0,560.228
560238.0,53.0,273.0,25.0,252.0,560.238
560248.0,52.0,274.0,22.0,251.0,560.248
560258.0,51.0,275.0,21.0,231.0,560.258
560268.0,53.0,277.0,26.0,226.0,560.268
560278.0,50.0,277.0,32.0,222.0,560.278
560288.0,51.0,276.0,28.0,224.0,560.288
560299.0,50.0,279.0,25.0,224.0,560.299
560309.0,49.0,278.0,24.0,218.0,560.309
560319.0,49.0,278.0,21.0,215.0,560.319
560329.0,48.0,280.0,20.0,209.0,560.329
560339.0,48.0,277.0,21.0,202.0,560.339
560349.0,47.0,278.0,18.0,205.0,560.349
560359.0,49.0,280.0,24.0,210.0,560.359
560369.0,51.0,282.0,34.0,209.0,560.369
560379.0,50.0,278.0,30.0,200.0,560.379
560389.0,49.0,277.0,27.0,195.0,560.389
560399.0,49.0,276.0,25.0,197.0,560.399
560409.0,51.0,275.0,23.0,215.0,560.409
560419.0,50.0,274.0,20.0,217.0,560.419
560429.0,51.0,274.0,21.0,205.0,560.429
560439.0,50.0,273.0,19.0,216.0,560.439
560449.0,51.0,270.0,25.0,198.0,560.449
560459.0,51.0,271.0,37.0,187.0,560.459
560470.0,48.0,270.0,33.0,179.0,560.47
560480.0,49.0,272.0,28.0,181.0,560.48
560490.0,48.0,270.0,24.0,167.0,560.49
560500.0,48.0,270.0,24.0,169.0,560.5
560510.0,48.0,272.0,22.0,172.0,560.51
560520.0,47.0,272.0,22.0,166.0,560.52
560530.0,48.0,274.0,20.0,156.0,560.53
560540.0,47.0,274.0,28.0,156.0,560.54
560550.0,47.0,271.0,39.0,164.0,560.55
560560.0,47.0,271.0,37.0,191.0,560.56
560570.0,47.0,267.0,33.0,189.0,560.57
560580.0,47.0,266.0,28.0,175.0,560.58
560590.0,50.0,262.0,26.0,184.0,560.59
560600.0,50.0,261.0,22.0,180.0,560.6
560610.0,49.0,263.0,21.0,226.0,560.61
560620.0,50.0,259.0,19.0,246.0,560.62
560630.0,49.0,258.0,16.0,227.0,560.63
560640.0,50.0,255.0,16.0,221.0,560.64
560650.0,50.0,257.0,15.0,225.0,560.65
560660.0,50.0,256.0,14.0,228.0,560.66
560670.0,50.0,253.0,13.0,244.0,560.67
560680.0,49.0,254.0,17.0,238.0,560.68
560690.0,51.0,251.0,18.0,229.0,560.69
560700.0,50.0,253.0,16.0,236.0,560.7
560710.0,49.0,250.0,25.0,220.0,560.71
560720.0,50.0,248.0,22.0,227.0,560.72
560730.0,51.0,247.0,23.0,232.0,560.73
560740.0,51.0,246.0,21.0,218.0,560.74
560750.0,50.0,244.0,20.0,210.0,560.75
560760.0,51.0,243.0,22.0,212.0,560.76
560770.0,51.0,242.0,20.0,206.0,560.77
560780.0,52.0,244.0,30.0,199.0,560.78
560790.0,51.0,242.0,26.0,208.0,560.79
560800.0,52.0,240.0,24.0,224.0,560.8
560811.0,52.0,238.0,22.0,227.0,560.811
560821.0,53.0,237.0,19.0,209.0,560.821
560831.0,53.0,237.0,19.0,191.0,560.831
560841.0,52.0,234.0,17.0,183.0,560.841
560851.0,51.0,233.0,17.0,177.0,560.851
560861.0,50.0,230.0,16.0,180.0,560.861
560871.0,49.0,230.0,19.0,176.0,560.871
560881.0,51.0,229.0,17.0,160.0,560.881
560891.0,49.0,231.0,18.0,159.0,560.891
560901.0,50.0,230.0,19.0,168.0,560.901
560911.0,48.0,229.0,18.0,166.0,560.911
560921.0,47.0,228.0,16.0,164.0,560.921
560931.0,47.0,227.0,15.0,151.0,560.931
560941.0,48.0,224.0,16.0,145.0,560.941
560951.0,47.0,225.0,18.0,156.0,560.951
560961.0,46.0,224.0,29.0,197.0,560.961
560971.0,46.0,220.0,34.0,185.0,560.971
560982.0,46.0,218.0,28.0,176.0,560.982
560992.0,46.0,218.0,25.0,174.0,560.992
561002.0,48.0,216.0,25.0,164.0,561.002
561012.0,47.0,214.0,22.0,156.0,561.012
561022.0,48.0,212.0,21.0,154.0,561.022
561032.0,48.0,212.0,19.0,154.0,561.032
561042.0,49.0,208.0,23.0,181.0,561.042
561052.0,49.0,205.0,19.0,185.0,561.052
561062.0,48.0,203.0,17.0,182.0,561.062
561072.0,49.0,201.0,16.0,173.0,561.072
561082.0,49.0,196.0,14.0,180.0,561.082
561092.0,50.0,192.0,25.0,174.0,561.092
561102.0,51.0,190.0,21.0,160.0,561.102
561112.0,50.0,188.0,20.0,152.0,561.112
561122.0,48.0,186.0,22.0,144.0,561.122
561132.0,49.0,182.0,28.0,141.0,561.132
561142.0,49.0,180.0,25.0,160.0,561.142
561152.0,49.0,177.0,22.0,161.0,561.152
561162.0,48.0,174.0,22.0,146.0,561.162
561172.0,47.0,170.0,20.0,146.0,561.172
561182.0,49.0,167.0,19.0,144.0,561.182
561192.0,48.0,163.0,19.0,148.0,561.192
561202.0,49.0,160.0,29.0,155.0,561.202
561212.0,49.0,159.0,25.0,162.0,561.212
561222.0,51.0,158.0,29.0,155.0,561.222
561232.0,52.0,156.0,26.0,144.0,561.232
561242.0,51.0,156.0,23.0,140.0,561.242
561252.0,52.0,154.0,21.0,133.0,561.252
561262.0,50.0,152.0,18.0,163.0,561.262
561272.0,48.0,150.0,17.0,177.0,561.272
561282.0,48.0,147.0,16.0,186.0,561.282
561292.0,47.0,145.0,15.0,185.0,561.292
561302.0,47.0,142.0,13.0,184.0,561.302
561312.0,48.0,140.0,11.0,174.0,561.312
561323.0,46.0,139.0,10.0,164.0,561.323
561333.0,47.0,137.0,10.0,177.0,561.333
561343.0,47.0,136.0,11.0,215.0,561.343
561353.0,49.0,136.0,12.0,247.0,561.353
561363.0,50.0,135.0,11.0,260.0,561.363
561373.0,50.0,133.0,12.0,258.0,561.373
561383.0,50.0,133.0,10.0,255.0,561.383
561393.0,51.0,131.0,11.0,240.0,561.393
561403.0,56.0,131.0,10.0,219.0,561.403
561413.0,56.0,128.0,11.0,203.0,561.413
561423.0,55.0,127.0,9.0,199.0,561.423
561433.0,56.0,127.0,11.0,212.0,561.433
561443.0,55.0,125.0,10.0,206.0,561.443
561453.0,53.0,125.0,9.0,193.0,561.453
561463.0,55.0,123.0,11.0,204.0,561.463
561473.0,53.0,121.0,8.0,217.0,561.473
561483.0,51.0,119.0,8.0,204.0,561.483
561494.0,50.0,118.0,7.0,184.0,561.494
561504.0,50.0,116.0,7.0,164.0,561.504
561514.0,50.0,115.0,7.0,148.0,561.514
561524.0,50.0,113.0,5.0,138.0,561.524
561534.0,53.0,111.0,8.0,163.0,561.534
561544.0,53.0,112.0,6.0,168.0,561.544
561554.0,54.0,110.0,6.0,168.0,561.554
561564.0,56.0,108.0,5.0,159.0,561.564
561574.0,59.0,108.0,5.0,152.0,561.574
561584.0,63.0,102.0,5.0,180.0,561.584
561594.0,59.0,103.0,5.0,187.0,561.594
561604.0,63.0,97.0,6.0,192.0,561.604
561614.0,62.0,94.0,5.0,188.0,561.614
561624.0,62.0,90.0,5.0,177.0,561.624
561634.0,63.0,85.0,5.0,171.0,561.634
561644.0,62.0,81.0,5.0,187.0,561.644
561654.0,63.0,76.0,6.0,196.0,561.654
561664.0,63.0,74.0,7.0,191.0,561.664
561674.0,62.0,73.0,6.0,186.0,561.674
561684.0,61.0,72.0,6.0,175.0,561.684
561694.0,58.0,70.0,6.0,206.0,561.694
561704.0,60.0,69.0,6.0,191.0,561.704
561714.0,61.0,68.0,6.0,183.0,561.714
561724.0,62.0,64.0,6.0,182.0,561.724
561734.0,60.0,63.0,5.0,176.0,561.734
561744.0,60.0,63.0,6.0,160.0,561.744
561754.0,61.0,62.0,6.0,163.0,561.754
561764.0,61.0,61.0,5.0,157.0,561.764
561774.0,63.0,59.0,5.0,184.0,561.774
561784.0,63.0,58.0,5.0,189.0,561.784
561794.0,64.0,55.0,5.0,178.0,561.794
561804.0,64.0,54.0,4.0,169.0,561.804
561814.0,64.0,53.0,5.0,173.0,561.814
561824.0,64.0,51.0,4.0,166.0,561.824
561835.0,64.0,52.0,4.0,154.0,561.835
561845.0,63.0,50.0,4.0,161.0,561.845
561855.0,63.0,51.0,5.0,165.0,561.855
561865.0,63.0,48.0,5.0,152.0,561.865
561875.0,62.0,47.0,4.0,162.0,561.875
561885.0,64.0,47.0,5.0,167.0,561.885
561895.0,64.0,46.0,5.0,169.0,561.895
561905.0,63.0,46.0,4.0,161.0,561.905
561915.0,64.0,45.0,5.0,161.0,561.915
561925.0,64.0,46.0,5.0,167.0,561.925
561935.0,65.0,44.0,6.0,162.0,561.935
561945.0,65.0,43.0,5.0,153.0,561.945
561955.0,66.0,42.0,6.0,153.0,561.955
561965.0,69.0,41.0,5.0,167.0,561.965
561975.0,68.0,40.0,4.0,165.0,561.975
561985.0,68.0,41.0,4.0,180.0,561.985
561995.0,67.0,43.0,6.0,179.0,561.995
562006.0,69.0,42.0,5.0,162.0,562.006
562016.0,69.0,41.0,5.0,154.0,562.016
562026.0,69.0,41.0,6.0,145.0,562.026
562036.0,70.0,41.0,6.0,134.0,562.036
562046.0,68.0,40.0,5.0,132.0,562.046
562056.0,71.0,41.0,5.0,133.0,562.056
562066.0,71.0,41.0,5.0,130.0,562.066
562076.0,72.0,39.0,5.0,136.0,562.076
562086.0,72.0,41.0,4.0,141.0,562.086
562096.0,72.0,40.0,5.0,131.0,562.096
562106.0,73.0,40.0,6.0,126.0,562.106
562116.0,72.0,40.0,4.0,130.0,562.116
562126.0,74.0,39.0,5.0,127.0,562.126
562136.0,73.0,41.0,5.0,136.0,562.136
562146.0,74.0,40.0,4.0,134.0,562.146
562156.0,75.0,45.0,4.0,142.0,562.156
562166.0,72.0,43.0,5.0,138.0,562.166
562176.0,73.0,45.0,5.0,144.0,562.176
562186.0,69.0,45.0,5.0,147.0,562.186
562196.0,70.0,47.0,7.0,137.0,562.196
562206.0,68.0,48.0,7.0,135.0,562.206
562216.0,67.0,48.0,6.0,145.0,562.216
562226.0,66.0,47.0,6.0,146.0,562.226
562236.0,65.0,47.0,5.0,148.0,562.236
562246.0,67.0,47.0,7.0,161.0,562.246
562256.0,64.0,47.0,5.0,159.0,562.256
562266.0,65.0,45.0,5.0,145.0,562.266
562276.0,64.0,47.0,5.0,140.0,562.276
562286.0,64.0,46.0,5.0,128.0,562.286
562296.0,63.0,46.0,5.0,128.0,562.296
562306.0,66.0,47.0,5.0,140.0,562.306
562316.0,68.0,47.0,5.0,141.0,562.316
562326.0,65.0,47.0,6.0,134.0,562.326
562336.0,73.0,45.0,8.0,128.0,562.336
562347.0,76.0,48.0,6.0,125.0,562.347
562357.0,79.0,50.0,7.0,142.0,562.357
562367.0,80.0,51.0,7.0,135.0,562.367
562377.0,81.0,54.0,7.0,129.0,562.377
562387.0,81.0,57.0,6.0,128.0,562.387
562397.0,80.0,60.0,6.0,128.0,562.397
562407.0,80.0,63.0,5.0,132.0,562.407
562417.0,78.0,65.0,13.0,134.0,562.417
562427.0,77.0,68.0,11.0,125.0,562.427
562437.0,88.0,66.0,12.0,115.0,562.437
562447.0,96.0,66.0,36.0,123.0,562.447
562457.0,139.0,71.0,68.0,147.0,562.457
562467.0,150.0,71.0,94.0,170.0,562.467
562477.0,187.0,77.0,186.0,274.0,562.477
562487.0,256.0,83.0,234.0,295.0,562.487
562497.0,283.0,93.0,242.0,282.0,562.497
562507.0,308.0,116.0,272.0,312.0,562.507
562518.0,282.0,119.0,270.0,289.0,562.518
562528.0,257.0,120.0,268.0,283.0,562.528
562538.0,245.0,121.0,284.0,310.0,562.538
562548.0,232.0,120.0,316.0,331.0,562.548
562558.0,248.0,114.0,299.0,324.0,562.558
562568.0,233.0,114.0,297.0,363.0,562.568
562578.0,240.0,117.0,293.0,367.0,562.578
562588.0,240.0,117.0,326.0,390.0,562.588
562598.0,218.0,116.0,350.0,371.0,562.598
562608.0,202.0,113.0,340.0,384.0,562.608
562618.0,186.0,109.0,301.0,371.0,562.618
562628.0,197.0,116.0,288.0,386.0,562.628
562638.0,207.0,110.0,258.0,362.0,562.638
562648.0,194.0,108.0,241.0,355.0,562.648
562658.0,178.0,107.0,239.0,364.0,562.658
562668.0,170.0,103.0,220.0,373.0,562.668
562678.0,162.0,103.0,222.0,368.0,562.678
562688.0,153.0,102.0,207.0,347.0,562.688
562698.0,146.0,100.0,184.0,333.0,562.698
562708.0,139.0,98.0,169.0,330.0,562.708
562718.0,136.0,99.0,155.0,324.0,562.718
562728.0,149.0,98.0,139.0,309.0,562.728
562738.0,151.0,97.0,149.0,319.0,562.738
562748.0,145.0,94.0,129.0,295.0,562.748
562758.0,145.0,91.0,130.0,272.0,562.758
562768.0,138.0,91.0,121.0,267.0,562.768
562778.0,135.0,90.0,106.0,246.0,562.778
562788.0,133.0,84.0,97.0,224.0,562.788
562798.0,129.0,85.0,101.0,217.0,562.798
562808.0,128.0,80.0,99.0,210.0,562.808
562818.0,125.0,77.0,93.0,202.0,562.818
562828.0,123.0,71.0,85.0,193.0,562.828
562838.0,117.0,67.0,80.0,193.0,562.838
562848.0,120.0,67.0,94.0,193.0,562.848
562859.0,127.0,66.0,103.0,178.0,562.859
562869.0,126.0,64.0,89.0,183.0,562.869
562879.0,125.0,65.0,85.0,171.0,562.879
562889.0,126.0,67.0,85.0,166.0,562.889
562899.0,124.0,68.0,77.0,157.0,562.899
562909.0,121.0,68.0,82.0,156.0,562.909
562919.0,122.0,72.0,85.0,152.0,562.919
562929.0,121.0,74.0,77.0,151.0,562.929
562939.0,120.0,75.0,79.0,150.0,562.939
562949.0,119.0,74.0,78.0,152.0,562.949
562959.0,120.0,79.0,74.0,147.0,562.959
562969.0,115.0,80.0,66.0,149.0,562.969
562979.0,114.0,77.0,69.0,160.0,562.979
562989.0,126.0,82.0,65.0,161.0,562.989
562999.0,127.0,83.0,61.0,151.0,562.999
563009.0,124.0,87.0,62.0,150.0,563.009
563019.0,125.0,93.0,58.0,153.0,563.019
563030.0,118.0,96.0,55.0,169.0,563.03
563040.0,119.0,100.0,49.0,167.0,563.04
563050.0,115.0,100.0,50.0,164.0,563.05
563060.0,115.0,105.0,47.0,160.0,563.06
563070.0,114.0,108.0,55.0,158.0,563.07
563080.0,112.0,110.0,53.0,156.0,563.08
563090.0,109.0,112.0,51.0,170.0,563.09
563100.0,112.0,114.0,50.0,162.0,563.1
563110.0,114.0,116.0,52.0,164.0,563.11
563120.0,116.0,120.0,51.0,166.0,563.12
563130.0,113.0,124.0,59.0,158.0,563.13
563140.0,112.0,126.0,54.0,148.0,563.14
563150.0,114.0,128.0,47.0,141.0,563.15
563160.0,113.0,130.0,47.0,134.0,563.16
563170.0,109.0,131.0,46.0,132.0,563.17
563180.0,104.0,132.0,46.0,128.0,563.18
563190.0,105.0,137.0,53.0,126.0,563.19
563200.0,102.0,139.0,54.0,122.0,563.2
563210.0,99.0,142.0,53.0,118.0,563.21
563220.0,99.0,143.0,49.0,124.0,563.22
563230.0,105.0,145.0,52.0,119.0,563.23
563240.0,105.0,150.0,48.0,132.0,563.24
563250.0,109.0,147.0,49.0,144.0,563.25
563260.0,109.0,149.0,58.0,143.0,563.26
563270.0,108.0,154.0,60.0,140.0,563.27
563280.0,109.0,155.0,53.0,138.0,563.28
563290.0,107.0,156.0,54.0,128.0,563.29
563300.0,105.0,159.0,50.0,122.0,563.3
563310.0,103.0,161.0,43.0,121.0,563.31
563320.0,100.0,163.0,45.0,117.0,563.32
563330.0,99.0,163.0,40.0,113.0,563.33
563340.0,96.0,165.0,48.0,115.0,563.34
563350.0,94.0,166.0,46.0,115.0,563.35
563360.0,93.0,167.0,43.0,126.0,563.36
563371.0,90.0,162.0,45.0,128.0,563.371
563381.0,91.0,163.0,40.0,120.0,563.381
563391.0,88.0,164.0,48.0,121.0,563.391
563401.0,101.0,174.0,49.0,123.0,563.401
563411.0,110.0,179.0,48.0,127.0,563.411
563421.0,113.0,183.0,43.0,129.0,563.421
563431.0,111.0,186.0,43.0,126.0,563.431
563441.0,109.0,187.0,40.0,123.0,563.441
563451.0,107.0,187.0,34.0,125.0,563.451
563461.0,102.0,186.0,43.0,134.0,563.461
563471.0,103.0,187.0,48.0,138.0,563.471
563481.0,99.0,191.0,47.0,136.0,563.481
563491.0,97.0,192.0,48.0,134.0,563.491
563501.0,99.0,195.0,43.0,131.0,563.501
563511.0,98.0,196.0,39.0,124.0,563.511
563521.0,98.0,198.0,36.0,131.0,563.521
563531.0,96.0,196.0,36.0,135.0,563.531
563542.0,97.0,198.0,47.0,128.0,563.542
563552.0,98.0,200.0,45.0,131.0,563.552
563562.0,99.0,200.0,40.0,122.0,563.562
563572.0,101.0,201.0,38.0,117.0,563.572
563582.0,101.0,200.0,39.0,114.0,563.582
563592.0,103.0,198.0,36.0,111.0,563.592
563602.0,109.0,199.0,42.0,109.0,563.602
563612.0,112.0,199.0,40.0,105.0,563.612
563622.0,109.0,200.0,39.0,103.0,563.622
563632.0,108.0,199.0,41.0,108.0,563.632
563642.0,107.0,199.0,35.0,107.0,563.642
563652.0,104.0,197.0,42.0,108.0,563.652
563662.0,102.0,198.0,37.0,106.0,563.662
563672.0,100.0,195.0,37.0,99.0,563.672
563682.0,101.0,196.0,35.0,100.0,563.682
563692.0,100.0,195.0,36.0,97.0,563.692
563702.0,100.0,192.0,32.0,98.0,563.702
563712.0,99.0,189.0,38.0,99.0,563.712
563722.0,99.0,189.0,35.0,100.0,563.722
563732.0,99.0,187.0,35.0,99.0,563.732
563742.0,97.0,186.0,42.0,101.0,563.742
563752.0,95.0,187.0,39.0,98.0,563.752
563762.0,101.0,186.0,39.0,93.0,563.762
563772.0,97.0,184.0,35.0,92.0,563.772
563782.0,93.0,184.0,31.0,94.0,563.782
563792.0,93.0,182.0,37.0,89.0,563.792
563802.0,94.0,183.0,42.0,88.0,563.802
563812.0,92.0,183.0,39.0,96.0,563.812
563822.0,91.0,182.0,45.0,95.0,563.822
563832.0,88.0,182.0,46.0,94.0,563.832
563842.0,92.0,184.0,42.0,95.0,563.842
563852.0,91.0,182.0,41.0,98.0,563.852
563862.0,91.0,182.0,39.0,98.0,563.862
563872.0,92.0,179.0,46.0,105.0,563.872
563883.0,90.0,181.0,40.0,107.0,563.883
563893.0,90.0,179.0,36.0,101.0,563.893
563903.0,90.0,180.0,36.0,97.0,563.903
563913.0,90.0,180.0,32.0,102.0,563.913
563923.0,89.0,178.0,29.0,99.0,563.923
563933.0,85.0,177.0,37.0,100.0,563.933
563943.0,89.0,177.0,45.0,97.0,563.943
563953.0,89.0,177.0,41.0,98.0,563.953
563963.0,87.0,174.0,44.0,100.0,563.963
563973.0,85.0,176.0,54.0,104.0,563.973
563983.0,86.0,176.0,51.0,101.0,563.983
563993.0,86.0,173.0,48.0,94.0,563.993
564003.0,85.0,172.0,43.0,94.0,564.003
564013.0,85.0,170.0,39.0,91.0,564.013
564023.0,84.0,168.0,34.0,103.0,564.023
564033.0,88.0,165.0,32.0,108.0,564.033
564043.0,86.0,162.0,32.0,112.0,564.043
564054.0,84.0,158.0,54.0,110.0,564.054
564064.0,83.0,156.0,53.0,112.0,564.064
564074.0,84.0,156.0,47.0,110.0,564.074
564084.0,84.0,154.0,45.0,109.0,564.084
564094.0,82.0,152.0,38.0,104.0,564.094
564104.0,82.0,151.0,34.0,93.0,564.104
564114.0,80.0,149.0,30.0,103.0,564.114
564124.0,87.0,149.0,34.0,102.0,564.124
564134.0,86.0,146.0,40.0,96.0,564.134
564144.0,84.0,149.0,45.0,88.0,564.144
564154.0,81.0,149.0,46.0,82.0,564.154
564164.0,78.0,149.0,40.0,77.0,564.164
564174.0,75.0,146.0,37.0,70.0,564.174
564184.0,72.0,145.0,36.0,74.0,564.184
564194.0,70.0,142.0,35.0,88.0,564.194
564204.0,68.0,143.0,51.0,98.0,564.204
564214.0,66.0,142.0,45.0,103.0,564.214
564224.0,66.0,141.0,49.0,109.0,564.224
564234.0,62.0,140.0,41.0,106.0,564.234
564244.0,68.0,138.0,38.0,99.0,564.244
564254.0,67.0,139.0,32.0,114.0,564.254
564264.0,65.0,137.0,33.0,111.0,564.264
564274.0,64.0,135.0,31.0,105.0,564.274
564284.0,64.0,134.0,31.0,99.0,564.284
564294.0,63.0,132.0,37.0,100.0,564.294
564304.0,63.0,133.0,32.0,97.0,564.304
564314.0,62.0,132.0,29.0,99.0,564.314
564324.0,62.0,131.0,26.0,106.0,564.324
564334.0,60.0,130.0,23.0,103.0,564.334
564344.0,59.0,125.0,25.0,111.0,564.344
564354.0,59.0,128.0,29.0,109.0,564.354
564364.0,59.0,128.0,28.0,99.0,564.364
564374.0,57.0,127.0,26.0,102.0,564.374
564384.0,57.0,126.0,24.0,105.0,564.384
564395.0,61.0,125.0,24.0,110.0,564.395
564405.0,62.0,127.0,22.0,109.0,564.405
564415.0,60.0,126.0,29.0,103.0,564.415
564425.0,62.0,128.0,27.0,108.0,564.425
564435.0,62.0,129.0,28.0,99.0,564.435
564445.0,60.0,129.0,28.0,102.0,564.445
564455.0,60.0,129.0,30.0,100.0,564.455
564465.0,60.0,129.0,29.0,101.0,564.465
564475.0,59.0,129.0,31.0,100.0,564.475
564485.0,61.0,129.0,30.0,95.0,564.485
564495.0,60.0,126.0,33.0,93.0,564.495
564505.0,64.0,126.0,37.0,92.0,564.505
564515.0,64.0,126.0,36.0,92.0,564.515
564525.0,63.0,124.0,33.0,86.0,564.525
564535.0,63.0,122.0,28.0,82.0,564.535
564545.0,61.0,123.0,29.0,94.0,564.545
564555.0,60.0,121.0,34.0,96.0,564.555
564566.0,60.0,122.0,35.0,92.0,564.566
564576.0,61.0,120.0,40.0,95.0,564.576
564586.0,58.0,121.0,40.0,90.0,564.586
564596.0,58.0,119.0,36.0,88.0,564.596
564606.0,56.0,120.0,32.0,95.0,564.606
564616.0,63.0,119.0,29.0,91.0,564.616
564626.0,61.0,117.0,26.0,91.0,564.626
564636.0,60.0,116.0,24.0,86.0,564.636
564646.0,61.0,116.0,23.0,88.0,564.646
564656.0,61.0,114.0,21.0,93.0,564.656
564666.0,60.0,111.0,25.0,95.0,564.666
564676.0,59.0,106.0,32.0,94.0,564.676
564686.0,59.0,108.0,30.0,94.0,564.686
564696.0,58.0,108.0,27.0,94.0,564.696
564706.0,57.0,109.0,27.0,88.0,564.706
564716.0,57.0,104.0,33.0,85.0,564.716
564726.0,62.0,105.0,31.0,84.0,564.726
564736.0,64.0,105.0,28.0,81.0,564.736
564746.0,65.0,104.0,36.0,79.0,564.746
564756.0,66.0,103.0,34.0,98.0,564.756
564766.0,65.0,102.0,35.0,107.0,564.766
564776.0,64.0,101.0,33.0,108.0,564.776
564786.0,64.0,100.0,30.0,104.0,564.786
564796.0,62.0,98.0,28.0,98.0,564.796
564806.0,62.0,97.0,33.0,97.0,564.806
564816.0,61.0,93.0,45.0,96.0,564.816
564826.0,63.0,95.0,43.0,101.0,564.826
564836.0,61.0,93.0,42.0,100.0,564.836
564846.0,65.0,92.0,36.0,102.0,564.846
564856.0,64.0,90.0,32.0,96.0,564.856
564866.0,64.0,89.0,30.0,92.0,564.866
564876.0,62.0,87.0,26.0,86.0,564.876
564886.0,60.0,85.0,28.0,88.0,564.886
564896.0,59.0,85.0,33.0,101.0,564.896
564907.0,57.0,81.0,35.0,100.0,564.907
564917.0,56.0,81.0,43.0,94.0,564.917
564927.0,56.0,79.0,43.0,94.0,564.927
564937.0,55.0,79.0,45.0,94.0,564.937
564947.0,54.0,77.0,38.0,91.0,564.947
564957.0,53.0,75.0,35.0,88.0,564.957
564967.0,52.0,74.0,30.0,87.0,564.967
564977.0,50.0,69.0,28.0,82.0,564.977
564987.0,49.0,69.0,24.0,84.0,564.987
564997.0,50.0,69.0,23.0,80.0,564.997
565007.0,49.0,68.0,23.0,81.0,565.007
565017.0,51.0,71.0,29.0,81.0,565.017
565027.0,49.0,70.0,29.0,85.0,565.027
565037.0,48.0,70.0,26.0,91.0,565.037
565047.0,48.0,70.0,24.0,89.0,565.047
565057.0,47.0,68.0,23.0,89.0,565.057
565067.0,47.0,68.0,21.0,89.0,565.067
565078.0,47.0,67.0,18.0,96.0,565.078
565088.0,46.0,66.0,17.0,97.0,565.088
565098.0,46.0,63.0,24.0,92.0,565.098
565108.0,46.0,65.0,25.0,90.0,565.108
565118.0,48.0,65.0,23.0,92.0,565.118
565128.0,48.0,64.0,22.0,94.0,565.128
565138.0,47.0,61.0,21.0,89.0,565.138
565148.0,45.0,60.0,18.0,87.0,565.148
565158.0,44.0,59.0,16.0,84.0,565.158
565168.0,44.0,57.0,17.0,79.0,565.168
565178.0,45.0,58.0,21.0,83.0,565.178
565188.0,45.0,56.0,27.0,87.0,565.188
565198.0,45.0,56.0,24.0,88.0,565.198
565208.0,45.0,53.0,23.0,87.0,565.208
565218.0,44.0,52.0,22.0,87.0,565.218
565228.0,43.0,50.0,20.0,93.0,565.228
565238.0,44.0,49.0,18.0,100.0,565.238
565248.0,43.0,51.0,17.0,99.0,565.248
565258.0,43.0,48.0,17.0,92.0,565.258
565268.0,44.0,50.0,25.0,88.0,565.268
565278.0,45.0,49.0,33.0,105.0,565.278
565288.0,45.0,48.0,35.0,107.0,565.288
565298.0,44.0,46.0,32.0,106.0,565.298
565308.0,45.0,45.0,29.0,105.0,565.308
565318.0,44.0,45.0,26.0,97.0,565.318
565328.0,44.0,43.0,25.0,96.0,565.328
565338.0,45.0,43.0,25.0,94.0,565.338
565348.0,46.0,45.0,36.0,94.0,565.348
565358.0,47.0,44.0,32.0,94.0,565.358
565368.0,46.0,43.0,28.0,97.0,565.368
565378.0,46.0,41.0,26.0,101.0,565.378
565388.0,46.0,42.0,26.0,97.0,565.388
565398.0,46.0,42.0,26.0,98.0,565.398
565408.0,45.0,41.0,24.0,91.0,565.408
565419.0,46.0,42.0,28.0,89.0,565.419
565429.0,48.0,42.0,29.0,103.0,565.429
565439.0,47.0,40.0,26.0,101.0,565.439
565449.0,47.0,39.0,24.0,102.0,565.449
565459.0,48.0,39.0,23.0,102.0,565.459
565469.0,48.0,37.0,21.0,94.0,565.469
565479.0,48.0,38.0,19.0,91.0,565.479
565489.0,47.0,38.0,19.0,90.0,565.489
565499.0,48.0,38.0,20.0,84.0,565.499
565509.0,45.0,38.0,20.0,81.0,565.509
565519.0,48.0,41.0,27.0,85.0,565.519
565529.0,48.0,42.0,28.0,84.0,565.529
565539.0,49.0,39.0,26.0,84.0,565.539
565549.0,49.0,39.0,24.0,84.0,565.549
565559.0,49.0,39.0,27.0,79.0,565.559
565569.0,50.0,38.0,24.0,74.0,565.569
565579.0,50.0,38.0,23.0,74.0,565.579
565590.0,51.0,39.0,26.0,73.0,565.59
565600.0,53.0,43.0,27.0,72.0,565.6
565610.0,52.0,42.0,25.0,66.0,565.61
565620.0,52.0,41.0,27.0,70.0,565.62
565630.0,53.0,40.0,29.0,80.0,565.63
565640.0,52.0,41.0,26.0,87.0,565.64
565650.0,52.0,40.0,24.0,82.0,565.65
565660.0,53.0,39.0,22.0,81.0,565.66
565670.0,54.0,41.0,29.0,91.0,565.67
565680.0,53.0,41.0,35.0,93.0,565.68
565690.0,53.0,41.0,31.0,89.0,565.69
565700.0,52.0,40.0,29.0,90.0,565.7
565710.0,52.0,39.0,26.0,101.0,565.71
565720.0,50.0,39.0,23.0,97.0,565.72
565730.0,48.0,37.0,22.0,89.0,565.73
565740.0,49.0,39.0,27.0,85.0,565.74
565750.0,51.0,40.0,35.0,82.0,565.75
565760.0,51.0,41.0,32.0,79.0,565.76
565770.0,52.0,40.0,29.0,75.0,565.77
565780.0,54.0,40.0,27.0,76.0,565.78
565790.0,52.0,41.0,23.0,81.0,565.79
565800.0,52.0,40.0,23.0,81.0,565.8
565810.0,51.0,43.0,24.0,81.0,565.81
565820.0,53.0,44.0,30.0,86.0,565.82
565830.0,53.0,42.0,26.0,82.0,565.83
565840.0,53.0,42.0,27.0,81.0,565.84
565850.0,54.0,41.0,24.0,77.0,565.85
565860.0,52.0,42.0,23.0,80.0,565.86
565870.0,53.0,40.0,22.0,80.0,565.87
565880.0,53.0,42.0,22.0,80.0,565.88
565890.0,52.0,40.0,27.0,76.0,565.89
565900.0,53.0,42.0,37.0,74.0,565.9
565910.0,55.0,41.0,33.0,70.0,565.91
565920.0,57.0,40.0,29.0,70.0,565.92
565931.0,54.0,39.0,26.0,69.0,565.931
565941.0,55.0,38.0,26.0,77.0,565.941
565951.0,55.0,39.0,23.0,88.0,565.951
565961.0,54.0,38.0,26.0,86.0,565.961
565971.0,53.0,39.0,26.0,88.0,565.971
565981.0,53.0,40.0,37.0,88.0,565.981
565991.0,53.0,40.0,36.0,83.0,565.991
566001.0,52.0,40.0,33.0,81.0,566.001
566011.0,50.0,39.0,31.0,83.0,566.011
566021.0,50.0,40.0,28.0,82.0,566.021
566031.0,50.0,38.0,26.0,82.0,566.031
566041.0,48.0,38.0,23.0,78.0,566.041
566051.0,47.0,40.0,27.0,80.0,566.051
566061.0,49.0,40.0,26.0,77.0,566.061
566071.0,48.0,40.0,26.0,79.0,566.071
566081.0,48.0,39.0,24.0,72.0,566.081
566091.0,47.0,40.0,22.0,73.0,566.091
566102.0,47.0,38.0,21.0,68.0,566.102
566112.0,46.0,38.0,18.0,74.0,566.112
566122.0,47.0,36.0,16.0,71.0,566.122
566132.0,47.0,39.0,24.0,73.0,566.132
566142.0,48.0,40.0,26.0,73.0,566.142
566152.0,48.0,40.0,25.0,69.0,566.152
566162.0,49.0,41.0,22.0,69.0,566.162
566172.0,49.0,38.0,20.0,64.0,566.172
566182.0,49.0,38.0,17.0,62.0,566.182
566192.0,49.0,38.0,17.0,62.0,566.192
566202.0,50.0,39.0,16.0,65.0,566.202
566212.0,48.0,39.0,18.0,66.0,566.212
566222.0,49.0,40.0,24.0,65.0,566.222
566232.0,48.0,41.0,23.0,65.0,566.232
566242.0,47.0,40.0,26.0,63.0,566.242
566252.0,49.0,41.0,25.0,65.0,566.252
566262.0,47.0,40.0,23.0,68.0,566.262
566272.0,48.0,39.0,21.0,66.0,566.272
566282.0,48.0,39.0,18.0,62.0,566.282
566292.0,48.0,42.0,33.0,64.0,566.292
566302.0,48.0,43.0,31.0,64.0,566.302
566312.0,47.0,42.0,27.0,68.0,566.312
566322.0,47.0,43.0,30.0,69.0,566.322
566332.0,47.0,43.0,33.0,74.0,566.332
566342.0,47.0,43.0,30.0,85.0,566.342
566352.0,46.0,43.0,30.0,82.0,566.352
566362.0,47.0,42.0,31.0,79.0,566.362
566372.0,45.0,43.0,38.0,75.0,566.372
566382.0,43.0,42.0,35.0,72.0,566.382
566392.0,45.0,42.0,34.0,76.0,566.392
566402.0,43.0,44.0,33.0,74.0,566.402
566412.0,45.0,43.0,30.0,73.0,566.412
566422.0,44.0,43.0,26.0,72.0,566.422
566432.0,43.0,44.0,27.0,76.0,566.432
566443.0,44.0,45.0,23.0,71.0,566.443
566453.0,43.0,45.0,21.0,70.0,566.453
566463.0,44.0,46.0,25.0,72.0,566.463
566473.0,44.0,46.0,31.0,70.0,566.473
566483.0,45.0,45.0,28.0,71.0,566.483
566493.0,44.0,44.0,24.0,67.0,566.493
566503.0,44.0,45.0,22.0,81.0,566.503
566513.0,45.0,47.0,24.0,84.0,566.513
566523.0,45.0,48.0,23.0,82.0,566.523
566533.0,44.0,48.0,24.0,82.0,566.533
566543.0,44.0,50.0,28.0,80.0,566.543
566553.0,45.0,51.0,27.0,81.0,566.553
566563.0,43.0,52.0,24.0,84.0,566.563
566573.0,43.0,53.0,23.0,82.0,566.573
566583.0,44.0,53.0,29.0,83.0,566.583
566593.0,43.0,55.0,26.0,83.0,566.593
566603.0,44.0,52.0,23.0,81.0,566.603
566614.0,43.0,52.0,21.0,78.0,566.614
566624.0,45.0,52.0,32.0,75.0,566.624
566634.0,43.0,53.0,32.0,77.0,566.634
566644.0,44.0,52.0,42.0,85.0,566.644
566654.0,46.0,55.0,38.0,89.0,566.654
566664.0,45.0,54.0,40.0,88.0,566.664
566674.0,44.0,54.0,42.0,92.0,566.674
566684.0,45.0,57.0,37.0,90.0,566.684
566694.0,46.0,57.0,46.0,86.0,566.694
566704.0,44.0,57.0,40.0,83.0,566.704
566714.0,44.0,55.0,36.0,79.0,566.714
566724.0,44.0,54.0,35.0,77.0,566.724
566734.0,45.0,53.0,31.0,70.0,566.734
566744.0,45.0,52.0,34.0,71.0,566.744
566754.0,44.0,54.0,31.0,71.0,566.754
566764.0,46.0,53.0,31.0,67.0,566.764
566774.0,44.0,53.0,36.0,67.0,566.774
566784.0,45.0,53.0,35.0,67.0,566.784
566794.0,44.0,52.0,31.0,73.0,566.794
566804.0,44.0,53.0,28.0,71.0,566.804
566814.0,45.0,52.0,28.0,70.0,566.814
566824.0,44.0,52.0,27.0,71.0,566.824
566834.0,44.0,53.0,25.0,71.0,566.834
566844.0,44.0,51.0,22.0,68.0,566.844
566854.0,44.0,52.0,21.0,72.0,566.854
566864.0,45.0,52.0,30.0,73.0,566.864
566874.0,46.0,53.0,29.0,74.0,566.874
566884.0,46.0,55.0,27.0,72.0,566.884
566894.0,45.0,55.0,24.0,77.0,566.894
566904.0,46.0,55.0,23.0,73.0,566.904
566914.0,45.0,55.0,21.0,71.0,566.914
566924.0,45.0,54.0,25.0,79.0,566.924
566934.0,46.0,54.0,28.0,79.0,566.934
566944.0,45.0,54.0,25.0,76.0,566.944
566955.0,47.0,52.0,28.0,70.0,566.955
566965.0,46.0,55.0,29.0,70.0,566.965
566975.0,47.0,55.0,31.0,69.0,566.975
566985.0,45.0,54.0,26.0,71.0,566.985
566995.0,45.0,53.0,23.0,69.0,566.995
567005.0,45.0,53.0,20.0,72.0,567.005
567015.0,45.0,51.0,23.0,68.0,567.015
567025.0,46.0,50.0,26.0,74.0,567.025
567035.0,44.0,51.0,26.0,73.0,567.035
567045.0,45.0,50.0,28.0,70.0,567.045
567055.0,45.0,53.0,25.0,74.0,567.055
567065.0,44.0,52.0,22.0,71.0,567.065
567075.0,43.0,52.0,20.0,70.0,567.075
567085.0,43.0,52.0,18.0,69.0,567.085
567095.0,44.0,52.0,17.0,73.0,567.095
567105.0,44.0,51.0,17.0,74.0,567.105
567115.0,45.0,53.0,20.0,69.0,567.115
567126.0,46.0,50.0,22.0,73.0,567.126
567136.0,44.0,52.0,31.0,75.0,567.136
567146.0,46.0,51.0,30.0,72.0,567.146
567156.0,46.0,51.0,33.0,80.0,567.156
567166.0,46.0,51.0,31.0,89.0,567.166
567176.0,46.0,52.0,37.0,93.0,567.176
567186.0,47.0,52.0,37.0,91.0,567.186
567196.0,46.0,52.0,38.0,95.0,567.196
567206.0,46.0,52.0,38.0,98.0,567.206
567216.0,46.0,52.0,34.0,95.0,567.216
567226.0,44.0,53.0,30.0,94.0,567.226
567236.0,44.0,52.0,28.0,90.0,567.236
567246.0,46.0,53.0,36.0,98.0,567.246
567256.0,45.0,52.0,32.0,92.0,567.256
567266.0,45.0,51.0,28.0,87.0,567.266
567276.0,44.0,51.0,34.0,86.0,567.276
567286.0,46.0,50.0,32.0,81.0,567.286
567296.0,44.0,50.0,28.0,79.0,567.296
567306.0,45.0,47.0,29.0,78.0,567.306
567316.0,45.0,46.0,29.0,84.0,567.316
567326.0,46.0,47.0,38.0,79.0,567.326
567336.0,47.0,48.0,36.0,77.0,567.336
567346.0,47.0,49.0,33.0,77.0,567.346
567356.0,47.0,47.0,29.0,73.0,567.356
567366.0,46.0,47.0,26.0,74.0,567.366
567376.0,46.0,44.0,26.0,68.0,567.376
567386.0,45.0,46.0,29.0,68.0,567.386
567396.0,45.0,45.0,34.0,69.0,567.396
567406.0,46.0,47.0,32.0,71.0,567.406
567416.0,44.0,46.0,28.0,68.0,567.416
567426.0,45.0,45.0,30.0,73.0,567.426
567436.0,43.0,45.0,34.0,85.0,567.436
567446.0,44.0,46.0,39.0,80.0,567.446
567456.0,45.0,46.0,35.0,79.0,567.456
567467.0,45.0,45.0,38.0,76.0,567.467
567477.0,45.0,44.0,34.0,72.0,567.477
567487.0,44.0,43.0,32.0,66.0,567.487
567497.0,44.0,43.0,29.0,65.0,567.497
567507.0,43.0,43.0,28.0,73.0,567.507
567517.0,45.0,43.0,36.0,77.0,567.517
567527.0,46.0,43.0,32.0,75.0,567.527
567537.0,47.0,43.0,36.0,75.0,567.537
567547.0,46.0,43.0,34.0,75.0,567.547
567557.0,45.0,42.0,31.0,71.0,567.557
567567.0,47.0,41.0,27.0,75.0,567.567
567577.0,47.0,43.0,38.0,75.0,567.577
567587.0,47.0,42.0,39.0,74.0,567.587
567597.0,48.0,43.0,34.0,73.0,567.597
567607.0,47.0,41.0,32.0,70.0,567.607
567617.0,48.0,40.0,34.0,66.0,567.617
567627.0,48.0,39.0,31.0,64.0,567.627
567638.0,49.0,37.0,32.0,59.0,567.638
567648.0,49.0,40.0,40.0,63.0,567.648
567658.0,49.0,38.0,36.0,70.0,567.658
567668.0,49.0,38.0,35.0,67.0,567.668
567678.0,51.0,39.0,43.0,70.0,567.678
