time (ms),signal 0,signal 1,signal 2,signal3,time (sec)
592193.0,51.0,45.0,22.0,53.0,592.193
592203.0,50.0,46.0,22.0,52.0,592.203
592214.0,51.0,45.0,21.0,49.0,592.214
592224.0,50.0,47.0,19.0,51.0,592.224
592234.0,49.0,46.0,17.0,48.0,592.234
592244.0,49.0,46.0,15.0,45.0,592.244
592254.0,48.0,46.0,27.0,43.0,592.254
592264.0,50.0,46.0,25.0,43.0,592.264
592274.0,49.0,46.0,22.0,43.0,592.274
592284.0,50.0,45.0,21.0,41.0,592.284
592294.0,50.0,46.0,21.0,42.0,592.294
592304.0,51.0,46.0,19.0,39.0,592.304
592314.0,51.0,46.0,17.0,38.0,592.314
592324.0,51.0,45.0,17.0,42.0,592.324
592334.0,52.0,44.0,16.0,41.0,592.334
592344.0,51.0,47.0,22.0,41.0,592.344
592354.0,51.0,46.0,24.0,45.0,592.354
592364.0,51.0,46.0,21.0,44.0,592.364
592374.0,51.0,46.0,19.0,44.0,592.374
592384.0,51.0,45.0,17.0,43.0,592.384
592394.0,51.0,46.0,15.0,44.0,592.394
592404.0,51.0,47.0,19.0,46.0,592.404
592414.0,49.0,46.0,16.0,44.0,592.414
592424.0,49.0,45.0,14.0,44.0,592.424
592434.0,48.0,45.0,12.0,44.0,592.434
592444.0,48.0,45.0,13.0,42.0,592.444
592454.0,48.0,46.0,13.0,44.0,592.454
592464.0,48.0,47.0,21.0,46.0,592.464
592474.0,49.0,48.0,22.0,46.0,592.474
592484.0,48.0,48.0,18.0,44.0,592.484
592494.0,49.0,47.0,19.0,43.0,592.494
592504.0,49.0,49.0,17.0,43.0,592.504
592514.0,50.0,49.0,15.0,41.0,592.514
592524.0,50.0,48.0,14.0,40.0,592.524
592534.0,49.0,49.0,13.0,40.0,592.534
592544.0,49.0,50.0,18.0,39.0,592.544
592555.0,48.0,51.0,18.0,38.0,592.555
592565.0,48.0,51.0,25.0,38.0,592.565
592575.0,48.0,49.0,23.0,37.0,592.575
592585.0,47.0,49.0,21.0,36.0,592.585
592595.0,48.0,50.0,22.0,35.0,592.595
592605.0,48.0,51.0,24.0,39.0,592.605
592615.0,49.0,51.0,23.0,39.0,592.615
592625.0,48.0,55.0,24.0,40.0,592.625
592635.0,48.0,53.0,30.0,43.0,592.635
592645.0,48.0,54.0,26.0,44.0,592.645
592655.0,47.0,55.0,25.0,44.0,592.655
592665.0,48.0,56.0,24.0,48.0,592.665
592675.0,47.0,57.0,21.0,49.0,592.675
592685.0,47.0,59.0,24.0,52.0,592.685
592695.0,48.0,59.0,25.0,51.0,592.695
592705.0,47.0,58.0,22.0,47.0,592.705
592715.0,48.0,59.0,29.0,47.0,592.715
592726.0,46.0,60.0,26.0,44.0,592.726
592736.0,46.0,58.0,23.0,40.0,592.736
592746.0,45.0,58.0,21.0,40.0,592.746
592756.0,46.0,56.0,21.0,43.0,592.756
592766.0,45.0,56.0,24.0,44.0,592.766
592776.0,45.0,54.0,23.0,43.0,592.776
592786.0,45.0,57.0,28.0,44.0,592.786
592796.0,46.0,54.0,27.0,43.0,592.796
592806.0,45.0,54.0,25.0,42.0,592.806
592816.0,45.0,54.0,21.0,43.0,592.816
592826.0,46.0,55.0,21.0,43.0,592.826
592836.0,46.0,56.0,23.0,45.0,592.836
592846.0,46.0,57.0,21.0,51.0,592.846
592856.0,48.0,55.0,19.0,51.0,592.856
592866.0,48.0,59.0,21.0,50.0,592.866
592876.0,49.0,56.0,23.0,51.0,592.876
592886.0,49.0,57.0,20.0,49.0,592.886
592896.0,49.0,57.0,23.0,49.0,592.896
592906.0,48.0,58.0,20.0,50.0,592.906
592916.0,48.0,57.0,18.0,48.0,592.916
592926.0,46.0,59.0,18.0,49.0,592.926
592936.0,47.0,60.0,18.0,49.0,592.936
592946.0,47.0,60.0,17.0,52.0,592.946
592956.0,48.0,60.0,27.0,51.0,592.956
592966.0,50.0,61.0,26.0,50.0,592.966
592976.0,49.0,62.0,22.0,52.0,592.976
592986.0,50.0,62.0,21.0,50.0,592.986
592996.0,49.0,62.0,18.0,49.0,592.996
593006.0,50.0,64.0,16.0,50.0,593.006
593016.0,51.0,62.0,15.0,50.0,593.016
593026.0,51.0,66.0,20.0,51.0,593.026
593036.0,53.0,63.0,25.0,53.0,593.036
593046.0,54.0,62.0,20.0,52.0,593.046
593056.0,53.0,61.0,21.0,49.0,593.056
593067.0,54.0,60.0,20.0,48.0,593.067
593077.0,54.0,60.0,18.0,48.0,593.077
593087.0,55.0,60.0,16.0,50.0,593.087
593097.0,55.0,61.0,14.0,47.0,593.097
593107.0,57.0,61.0,20.0,47.0,593.107
593117.0,58.0,60.0,23.0,45.0,593.117
593127.0,59.0,60.0,20.0,44.0,593.127
593137.0,59.0,61.0,19.0,52.0,593.137
593147.0,59.0,62.0,19.0,50.0,593.147
593157.0,60.0,61.0,19.0,50.0,593.157
593167.0,60.0,61.0,17.0,47.0,593.167
593177.0,60.0,63.0,17.0,47.0,593.177
593187.0,60.0,63.0,15.0,49.0,593.187
593197.0,60.0,64.0,16.0,46.0,593.197
593207.0,58.0,64.0,19.0,48.0,593.207
593217.0,57.0,65.0,18.0,48.0,593.217
593227.0,58.0,62.0,17.0,48.0,593.227
593238.0,56.0,61.0,17.0,49.0,593.238
593248.0,56.0,59.0,19.0,49.0,593.248
593258.0,54.0,60.0,16.0,46.0,593.258
593268.0,54.0,61.0,23.0,45.0,593.268
593278.0,56.0,59.0,21.0,47.0,593.278
593288.0,55.0,59.0,19.0,46.0,593.288
593298.0,56.0,58.0,18.0,43.0,593.298
593308.0,57.0,60.0,17.0,48.0,593.308
593318.0,57.0,59.0,17.0,50.0,593.318
593328.0,56.0,60.0,15.0,49.0,593.328
593338.0,56.0,60.0,14.0,48.0,593.338
593348.0,56.0,59.0,12.0,47.0,593.348
593358.0,56.0,58.0,11.0,46.0,593.358
593368.0,57.0,57.0,18.0,49.0,593.368
593378.0,57.0,58.0,17.0,50.0,593.378
593388.0,60.0,56.0,16.0,50.0,593.388
593398.0,61.0,56.0,15.0,53.0,593.398
593408.0,61.0,56.0,14.0,51.0,593.408
593418.0,61.0,55.0,13.0,50.0,593.418
593428.0,59.0,54.0,11.0,47.0,593.428
593438.0,60.0,52.0,12.0,45.0,593.438
593448.0,58.0,52.0,9.0,45.0,593.448
593458.0,59.0,53.0,17.0,46.0,593.458
593468.0,58.0,51.0,16.0,45.0,593.468
593478.0,58.0,51.0,14.0,43.0,593.478
593488.0,58.0,52.0,13.0,43.0,593.488
593498.0,58.0,52.0,13.0,46.0,593.498
593508.0,59.0,50.0,12.0,46.0,593.508
593518.0,59.0,50.0,10.0,47.0,593.518
593528.0,59.0,50.0,11.0,46.0,593.528
593538.0,59.0,51.0,10.0,45.0,593.538
593548.0,58.0,52.0,23.0,46.0,593.548
593558.0,58.0,52.0,23.0,47.0,593.558
593568.0,57.0,53.0,21.0,46.0,593.568
593579.0,55.0,54.0,20.0,46.0,593.579
593589.0,53.0,55.0,17.0,45.0,593.589
593599.0,54.0,56.0,16.0,43.0,593.599
593609.0,53.0,55.0,14.0,42.0,593.609
593619.0,53.0,55.0,14.0,44.0,593.619
593629.0,53.0,57.0,12.0,44.0,593.629
593639.0,54.0,58.0,19.0,44.0,593.639
593649.0,57.0,55.0,19.0,46.0,593.649
593659.0,59.0,54.0,17.0,46.0,593.659
593669.0,61.0,54.0,16.0,46.0,593.669
593679.0,63.0,54.0,14.0,44.0,593.679
593689.0,63.0,52.0,12.0,41.0,593.689
593699.0,64.0,52.0,12.0,41.0,593.699
593709.0,62.0,51.0,10.0,41.0,593.709
593719.0,61.0,50.0,11.0,42.0,593.719
593729.0,62.0,50.0,11.0,42.0,593.729
593739.0,62.0,50.0,22.0,46.0,593.739
593750.0,61.0,50.0,30.0,49.0,593.75
593760.0,61.0,49.0,27.0,48.0,593.76
593770.0,60.0,48.0,23.0,46.0,593.77
593780.0,59.0,50.0,21.0,46.0,593.78
593790.0,58.0,50.0,19.0,43.0,593.79
593800.0,58.0,53.0,17.0,44.0,593.8
593810.0,60.0,53.0,19.0,44.0,593.81
593820.0,60.0,54.0,18.0,43.0,593.82
593830.0,59.0,57.0,17.0,45.0,593.83
593840.0,59.0,58.0,18.0,45.0,593.84
593850.0,59.0,60.0,26.0,49.0,593.85
593860.0,59.0,58.0,25.0,48.0,593.86
593870.0,59.0,58.0,21.0,46.0,593.87
593880.0,57.0,58.0,20.0,46.0,593.88
593890.0,57.0,58.0,18.0,43.0,593.89
593900.0,56.0,59.0,16.0,41.0,593.9
593910.0,54.0,60.0,14.0,43.0,593.91
593920.0,52.0,60.0,16.0,42.0,593.92
593930.0,53.0,62.0,16.0,43.0,593.93
593940.0,53.0,63.0,19.0,46.0,593.94
593950.0,53.0,63.0,18.0,45.0,593.95
593960.0,52.0,63.0,16.0,45.0,593.96
593970.0,51.0,64.0,16.0,42.0,593.97
593980.0,51.0,64.0,14.0,40.0,593.98
593990.0,49.0,65.0,13.0,39.0,593.99
594000.0,48.0,66.0,12.0,41.0,594.0
594010.0,49.0,65.0,11.0,42.0,594.01
594020.0,50.0,65.0,14.0,41.0,594.02
594030.0,49.0,64.0,12.0,44.0,594.03
594040.0,48.0,65.0,14.0,46.0,594.04
594050.0,50.0,63.0,23.0,45.0,594.05
594060.0,51.0,61.0,19.0,43.0,594.06
594070.0,51.0,61.0,18.0,40.0,594.07
594080.0,51.0,61.0,16.0,39.0,594.08
594091.0,52.0,61.0,15.0,40.0,594.091
594101.0,50.0,61.0,13.0,38.0,594.101
594111.0,50.0,61.0,16.0,39.0,594.111
594121.0,52.0,59.0,16.0,38.0,594.121
594131.0,51.0,60.0,17.0,38.0,594.131
594141.0,52.0,57.0,17.0,38.0,594.141
594151.0,53.0,54.0,15.0,38.0,594.151
594161.0,53.0,54.0,14.0,39.0,594.161
594171.0,53.0,53.0,12.0,37.0,594.171
594181.0,53.0,53.0,11.0,35.0,594.181
594191.0,52.0,53.0,11.0,35.0,594.191
594201.0,51.0,54.0,9.0,36.0,594.201
594211.0,52.0,52.0,10.0,36.0,594.211
594221.0,50.0,53.0,10.0,37.0,594.221
594231.0,51.0,51.0,10.0,34.0,594.231
594241.0,52.0,50.0,8.0,34.0,594.241
594251.0,51.0,49.0,12.0,37.0,594.251
594262.0,52.0,49.0,12.0,38.0,594.262
594272.0,53.0,49.0,10.0,41.0,594.272
594282.0,53.0,47.0,10.0,40.0,594.282
594292.0,53.0,47.0,9.0,38.0,594.292
594302.0,53.0,48.0,9.0,37.0,594.302
594312.0,52.0,49.0,8.0,38.0,594.312
594322.0,51.0,50.0,7.0,40.0,594.322
594332.0,51.0,51.0,8.0,41.0,594.332
594342.0,49.0,53.0,7.0,41.0,594.342
594352.0,49.0,54.0,9.0,42.0,594.352
594362.0,48.0,55.0,8.0,47.0,594.362
594372.0,49.0,54.0,9.0,50.0,594.372
594382.0,49.0,55.0,6.0,54.0,594.382
594392.0,48.0,55.0,6.0,62.0,594.392
594402.0,49.0,55.0,7.0,69.0,594.402
594412.0,50.0,56.0,7.0,67.0,594.412
594422.0,49.0,54.0,9.0,63.0,594.422
594432.0,49.0,59.0,19.0,82.0,594.432
594442.0,53.0,57.0,19.0,98.0,594.442
594452.0,53.0,56.0,20.0,103.0,594.452
594462.0,53.0,57.0,23.0,101.0,594.462
594472.0,53.0,58.0,22.0,121.0,594.472
594482.0,54.0,65.0,21.0,127.0,594.482
594492.0,63.0,124.0,36.0,137.0,594.492
594502.0,65.0,126.0,36.0,232.0,594.502
594512.0,64.0,153.0,43.0,252.0,594.512
594522.0,68.0,164.0,40.0,255.0,594.522
594532.0,76.0,190.0,36.0,245.0,594.532
594542.0,79.0,181.0,39.0,311.0,594.542
594552.0,75.0,166.0,36.0,309.0,594.552
594562.0,74.0,150.0,32.0,346.0,594.562
594572.0,71.0,141.0,40.0,352.0,594.572
594582.0,72.0,170.0,52.0,368.0,594.582
594592.0,74.0,187.0,53.0,424.0,594.592
594603.0,75.0,223.0,54.0,441.0,594.603
594613.0,80.0,241.0,57.0,494.0,594.613
594623.0,81.0,232.0,51.0,479.0,594.623
594633.0,79.0,205.0,45.0,432.0,594.633
594643.0,78.0,185.0,41.0,453.0,594.643
594653.0,73.0,172.0,40.0,480.0,594.653
594663.0,72.0,158.0,38.0,458.0,594.663
594673.0,68.0,183.0,39.0,439.0,594.673
594683.0,67.0,165.0,40.0,503.0,594.683
594693.0,66.0,156.0,44.0,497.0,594.693
594703.0,66.0,145.0,42.0,466.0,594.703
594713.0,64.0,139.0,45.0,444.0,594.713
594723.0,65.0,135.0,77.0,470.0,594.723
594733.0,64.0,128.0,68.0,454.0,594.733
594743.0,64.0,135.0,66.0,480.0,594.743
594753.0,62.0,140.0,68.0,455.0,594.753
594763.0,63.0,150.0,75.0,429.0,594.763
594774.0,62.0,147.0,77.0,428.0,594.774
594784.0,63.0,142.0,80.0,409.0,594.784
594794.0,66.0,136.0,79.0,426.0,594.794
594804.0,67.0,132.0,67.0,410.0,594.804
594814.0,66.0,132.0,62.0,378.0,594.814
594824.0,69.0,130.0,59.0,403.0,594.824
594834.0,67.0,129.0,53.0,385.0,594.834
594844.0,69.0,126.0,47.0,349.0,594.844
594854.0,68.0,126.0,41.0,339.0,594.854
594864.0,67.0,131.0,51.0,333.0,594.864
594874.0,69.0,125.0,54.0,333.0,594.874
594884.0,68.0,121.0,52.0,323.0,594.884
594894.0,66.0,133.0,46.0,301.0,594.894
594904.0,68.0,128.0,42.0,310.0,594.904
594914.0,66.0,118.0,38.0,288.0,594.914
594924.0,65.0,114.0,33.0,272.0,594.924
594934.0,63.0,113.0,31.0,286.0,594.934
594944.0,62.0,114.0,33.0,280.0,594.944
594954.0,60.0,116.0,34.0,279.0,594.954
594964.0,60.0,113.0,40.0,273.0,594.964
594974.0,59.0,111.0,40.0,255.0,594.974
594984.0,60.0,111.0,36.0,263.0,594.984
594994.0,58.0,116.0,32.0,256.0,594.994
595004.0,60.0,109.0,29.0,243.0,595.004
595014.0,59.0,108.0,25.0,225.0,595.014
595024.0,58.0,114.0,26.0,212.0,595.024
595034.0,61.0,107.0,35.0,218.0,595.034
595044.0,59.0,103.0,34.0,209.0,595.044
595054.0,59.0,100.0,30.0,198.0,595.054
595064.0,57.0,104.0,27.0,198.0,595.064
595074.0,57.0,125.0,24.0,190.0,595.074
595084.0,59.0,114.0,24.0,184.0,595.084
595094.0,56.0,110.0,20.0,178.0,595.094
595104.0,57.0,108.0,22.0,185.0,595.104
595115.0,57.0,110.0,24.0,195.0,595.115
595125.0,58.0,105.0,29.0,180.0,595.125
595135.0,58.0,107.0,36.0,176.0,595.135
595145.0,59.0,103.0,36.0,171.0,595.145
595155.0,59.0,101.0,35.0,217.0,595.155
595165.0,57.0,103.0,35.0,210.0,595.165
595175.0,56.0,112.0,31.0,199.0,595.175
595185.0,57.0,111.0,27.0,194.0,595.185
595195.0,56.0,106.0,24.0,182.0,595.195
595205.0,55.0,103.0,24.0,193.0,595.205
595215.0,54.0,101.0,25.0,182.0,595.215
595225.0,55.0,99.0,23.0,193.0,595.225
595235.0,52.0,99.0,21.0,191.0,595.235
595245.0,52.0,99.0,20.0,198.0,595.245
595255.0,51.0,101.0,19.0,197.0,595.255
595265.0,52.0,100.0,18.0,194.0,595.265
595275.0,52.0,101.0,16.0,180.0,595.275
595286.0,54.0,102.0,14.0,176.0,595.286
595296.0,55.0,98.0,22.0,176.0,595.296
595306.0,55.0,99.0,20.0,166.0,595.306
595316.0,57.0,93.0,18.0,184.0,595.316
595326.0,55.0,92.0,16.0,190.0,595.326
595336.0,55.0,89.0,26.0,173.0,595.336
595346.0,57.0,86.0,22.0,173.0,595.346
595356.0,58.0,87.0,20.0,179.0,595.356
595366.0,58.0,83.0,18.0,173.0,595.366
595376.0,58.0,81.0,16.0,164.0,595.376
595386.0,58.0,80.0,17.0,165.0,595.386
595396.0,55.0,79.0,19.0,154.0,595.396
595406.0,55.0,77.0,18.0,155.0,595.406
595416.0,54.0,77.0,17.0,154.0,595.416
595426.0,54.0,78.0,38.0,148.0,595.426
595436.0,53.0,75.0,37.0,146.0,595.436
595446.0,52.0,74.0,31.0,137.0,595.446
595456.0,52.0,72.0,29.0,136.0,595.456
595466.0,50.0,72.0,25.0,138.0,595.466
595476.0,50.0,71.0,23.0,162.0,595.476
595486.0,48.0,71.0,21.0,151.0,595.486
595496.0,47.0,72.0,21.0,151.0,595.496
595506.0,48.0,70.0,20.0,150.0,595.506
595516.0,47.0,72.0,17.0,154.0,595.516
595526.0,48.0,69.0,15.0,151.0,595.526
595536.0,48.0,74.0,14.0,148.0,595.536
595546.0,47.0,71.0,13.0,139.0,595.546
595556.0,48.0,68.0,11.0,136.0,595.556
595566.0,47.0,69.0,19.0,126.0,595.566
595576.0,48.0,66.0,17.0,119.0,595.576
595586.0,48.0,67.0,18.0,132.0,595.586
595596.0,50.0,64.0,22.0,147.0,595.596
595606.0,49.0,62.0,19.0,141.0,595.606
595616.0,47.0,61.0,17.0,137.0,595.616
595627.0,47.0,63.0,16.0,136.0,595.627
595637.0,48.0,60.0,14.0,149.0,595.637
595647.0,48.0,59.0,14.0,148.0,595.647
595657.0,48.0,59.0,12.0,140.0,595.657
595667.0,48.0,56.0,11.0,168.0,595.667
595677.0,48.0,56.0,13.0,156.0,595.677
595687.0,48.0,52.0,12.0,153.0,595.687
595697.0,47.0,53.0,12.0,137.0,595.697
595707.0,47.0,52.0,12.0,131.0,595.707
595717.0,46.0,51.0,12.0,134.0,595.717
595727.0,46.0,50.0,10.0,159.0,595.727
595737.0,47.0,48.0,10.0,147.0,595.737
595747.0,46.0,48.0,11.0,136.0,595.747
595757.0,45.0,47.0,11.0,135.0,595.757
595767.0,45.0,49.0,10.0,129.0,595.767
595777.0,44.0,49.0,12.0,128.0,595.777
595787.0,46.0,49.0,17.0,125.0,595.787
595798.0,46.0,49.0,16.0,115.0,595.798
595808.0,49.0,53.0,21.0,127.0,595.808
595818.0,53.0,55.0,43.0,139.0,595.818
595828.0,55.0,54.0,65.0,142.0,595.828
595838.0,60.0,55.0,66.0,136.0,595.838
595848.0,61.0,55.0,63.0,131.0,595.848
595858.0,61.0,53.0,55.0,118.0,595.858
595868.0,60.0,53.0,50.0,107.0,595.868
595878.0,61.0,51.0,47.0,101.0,595.878
595888.0,60.0,52.0,42.0,93.0,595.888
595898.0,59.0,51.0,51.0,101.0,595.898
595908.0,59.0,53.0,72.0,116.0,595.908
595918.0,61.0,56.0,89.0,125.0,595.918
595928.0,64.0,58.0,93.0,165.0,595.928
595938.0,65.0,62.0,131.0,216.0,595.938
595948.0,74.0,70.0,142.0,229.0,595.948
595958.0,80.0,77.0,133.0,226.0,595.958
595968.0,80.0,76.0,122.0,229.0,595.968
595978.0,80.0,72.0,127.0,215.0,595.978
595988.0,80.0,73.0,129.0,204.0,595.988
595998.0,80.0,70.0,134.0,207.0,595.998
596008.0,82.0,67.0,122.0,199.0,596.008
596018.0,82.0,65.0,121.0,203.0,596.018
596028.0,79.0,63.0,132.0,197.0,596.028
596038.0,81.0,62.0,127.0,213.0,596.038
596048.0,83.0,61.0,124.0,221.0,596.048
596058.0,83.0,60.0,120.0,218.0,596.058
596068.0,88.0,56.0,116.0,220.0,596.068
596078.0,88.0,58.0,110.0,225.0,596.078
596088.0,87.0,59.0,127.0,217.0,596.088
596098.0,89.0,58.0,150.0,242.0,596.098
596108.0,88.0,57.0,145.0,244.0,596.108
596118.0,89.0,57.0,135.0,231.0,596.118
596128.0,85.0,55.0,129.0,214.0,596.128
596139.0,86.0,53.0,123.0,199.0,596.139
596149.0,85.0,51.0,107.0,188.0,596.149
596159.0,83.0,49.0,101.0,173.0,596.159
596169.0,82.0,48.0,91.0,190.0,596.169
596179.0,80.0,49.0,124.0,187.0,596.179
596189.0,79.0,49.0,122.0,183.0,596.189
596199.0,81.0,50.0,109.0,170.0,596.199
596209.0,81.0,50.0,108.0,162.0,596.209
596219.0,80.0,49.0,103.0,172.0,596.219
596229.0,80.0,47.0,92.0,163.0,596.229
596239.0,79.0,47.0,89.0,162.0,596.239
596249.0,83.0,49.0,83.0,156.0,596.249
596259.0,84.0,49.0,77.0,152.0,596.259
596269.0,84.0,50.0,85.0,146.0,596.269
596279.0,82.0,48.0,75.0,147.0,596.279
596289.0,82.0,50.0,70.0,138.0,596.289
596299.0,81.0,51.0,81.0,140.0,596.299
596310.0,79.0,53.0,75.0,144.0,596.31
596320.0,78.0,53.0,77.0,144.0,596.32
596330.0,78.0,54.0,72.0,147.0,596.33
596340.0,76.0,53.0,67.0,136.0,596.34
596350.0,77.0,55.0,76.0,134.0,596.35
596360.0,76.0,57.0,94.0,141.0,596.36
596370.0,77.0,56.0,88.0,136.0,596.37
596380.0,74.0,56.0,76.0,130.0,596.38
596390.0,74.0,56.0,70.0,133.0,596.39
596400.0,73.0,54.0,70.0,144.0,596.4
596410.0,73.0,57.0,74.0,142.0,596.41
596420.0,73.0,57.0,73.0,152.0,596.42
596430.0,71.0,58.0,64.0,147.0,596.43
596440.0,70.0,57.0,74.0,140.0,596.44
596450.0,75.0,55.0,69.0,135.0,596.45
596460.0,75.0,54.0,64.0,135.0,596.46
596470.0,73.0,54.0,70.0,133.0,596.47
596480.0,69.0,52.0,66.0,127.0,596.48
596490.0,72.0,52.0,60.0,123.0,596.49
596500.0,72.0,52.0,54.0,118.0,596.5
596510.0,72.0,51.0,55.0,115.0,596.51
596520.0,68.0,51.0,52.0,137.0,596.52
596530.0,69.0,51.0,55.0,138.0,596.53
596540.0,68.0,49.0,51.0,136.0,596.54
596550.0,67.0,51.0,45.0,129.0,596.55
596560.0,67.0,50.0,47.0,147.0,596.56
596570.0,66.0,51.0,44.0,141.0,596.57
596580.0,66.0,51.0,39.0,133.0,596.58
596590.0,65.0,52.0,36.0,123.0,596.59
596600.0,64.0,54.0,36.0,123.0,596.6
596610.0,63.0,54.0,36.0,123.0,596.61
596620.0,62.0,54.0,34.0,116.0,596.62
596630.0,62.0,52.0,37.0,107.0,596.63
596640.0,61.0,51.0,33.0,106.0,596.64
596651.0,61.0,50.0,30.0,101.0,596.651
596661.0,60.0,48.0,36.0,99.0,596.661
596671.0,61.0,48.0,42.0,95.0,596.671
596681.0,61.0,47.0,48.0,98.0,596.681
596691.0,58.0,47.0,53.0,96.0,596.691
596701.0,59.0,48.0,50.0,105.0,596.701
596711.0,58.0,47.0,54.0,117.0,596.711
596721.0,60.0,49.0,60.0,121.0,596.721
596731.0,59.0,49.0,52.0,127.0,596.731
596741.0,57.0,50.0,49.0,120.0,596.741
596751.0,58.0,49.0,43.0,117.0,596.751
596761.0,55.0,48.0,49.0,117.0,596.761
596771.0,55.0,48.0,54.0,114.0,596.771
596781.0,54.0,49.0,49.0,111.0,596.781
596791.0,53.0,49.0,55.0,109.0,596.791
596801.0,52.0,51.0,49.0,119.0,596.801
596811.0,51.0,51.0,42.0,116.0,596.811
596822.0,51.0,50.0,38.0,105.0,596.822
596832.0,51.0,50.0,42.0,104.0,596.832
596842.0,51.0,49.0,44.0,107.0,596.842
596852.0,52.0,49.0,41.0,112.0,596.852
596862.0,51.0,49.0,46.0,109.0,596.862
596872.0,53.0,50.0,42.0,106.0,596.872
596882.0,52.0,51.0,38.0,104.0,596.882
596892.0,54.0,48.0,36.0,105.0,596.892
596902.0,53.0,48.0,41.0,106.0,596.902
596912.0,54.0,48.0,38.0,100.0,596.912
596922.0,54.0,48.0,34.0,103.0,596.922
596932.0,53.0,48.0,37.0,108.0,596.932
596942.0,52.0,47.0,32.0,100.0,596.942
596952.0,55.0,47.0,34.0,101.0,596.952
596962.0,55.0,44.0,31.0,97.0,596.962
596972.0,55.0,43.0,28.0,92.0,596.972
596982.0,56.0,42.0,29.0,96.0,596.982
596992.0,56.0,41.0,27.0,97.0,596.992
597002.0,55.0,40.0,27.0,93.0,597.002
597012.0,55.0,38.0,27.0,86.0,597.012
597022.0,55.0,41.0,33.0,82.0,597.022
597032.0,54.0,40.0,34.0,84.0,597.032
597042.0,53.0,42.0,31.0,85.0,597.042
597052.0,53.0,40.0,29.0,85.0,597.052
597062.0,51.0,40.0,28.0,79.0,597.062
597072.0,50.0,40.0,26.0,77.0,597.072
597082.0,49.0,40.0,34.0,85.0,597.082
597092.0,49.0,42.0,37.0,88.0,597.092
597102.0,50.0,42.0,43.0,87.0,597.102
597112.0,49.0,42.0,45.0,89.0,597.112
597122.0,49.0,40.0,42.0,90.0,597.122
597132.0,49.0,40.0,37.0,87.0,597.132
597142.0,48.0,39.0,36.0,88.0,597.142
597152.0,50.0,40.0,33.0,87.0,597.152
597163.0,49.0,42.0,38.0,92.0,597.163
597173.0,49.0,40.0,35.0,94.0,597.173
597183.0,48.0,42.0,41.0,91.0,597.183
597193.0,50.0,41.0,40.0,84.0,597.193
597203.0,50.0,40.0,34.0,98.0,597.203
597213.0,50.0,40.0,35.0,104.0,597.213
597223.0,52.0,39.0,32.0,104.0,597.223
597233.0,52.0,38.0,28.0,105.0,597.233
597243.0,52.0,38.0,25.0,102.0,597.243
597253.0,52.0,39.0,37.0,103.0,597.253
597263.0,52.0,38.0,36.0,103.0,597.263
597273.0,53.0,39.0,40.0,119.0,597.273
597283.0,51.0,39.0,44.0,118.0,597.283
597293.0,53.0,40.0,44.0,120.0,597.293
597303.0,51.0,38.0,38.0,111.0,597.303
597313.0,52.0,40.0,40.0,107.0,597.313
597323.0,51.0,40.0,35.0,105.0,597.323
597334.0,53.0,38.0,31.0,96.0,597.334
597344.0,52.0,38.0,28.0,95.0,597.344
597354.0,52.0,38.0,28.0,97.0,597.354
597364.0,51.0,37.0,26.0,104.0,597.364
597374.0,50.0,38.0,23.0,97.0,597.374
597384.0,51.0,37.0,20.0,92.0,597.384
597394.0,49.0,37.0,20.0,87.0,597.394
597404.0,49.0,37.0,19.0,84.0,597.404
597414.0,49.0,37.0,18.0,87.0,597.414
597424.0,49.0,38.0,22.0,84.0,597.424
597434.0,49.0,37.0,25.0,80.0,597.434
597444.0,49.0,38.0,25.0,81.0,597.444
597454.0,50.0,36.0,23.0,84.0,597.454
597464.0,49.0,38.0,31.0,88.0,597.464
597474.0,49.0,38.0,37.0,87.0,597.474
597484.0,51.0,38.0,34.0,111.0,597.484
597494.0,49.0,40.0,43.0,107.0,597.494
597504.0,52.0,40.0,37.0,107.0,597.504
597514.0,50.0,40.0,33.0,101.0,597.514
597524.0,51.0,39.0,27.0,91.0,597.524
597534.0,49.0,38.0,25.0,103.0,597.534
597544.0,48.0,36.0,26.0,101.0,597.544
597554.0,49.0,37.0,32.0,94.0,597.554
597564.0,48.0,38.0,34.0,87.0,597.564
597574.0,49.0,40.0,44.0,84.0,597.574
597584.0,48.0,41.0,38.0,77.0,597.584
597594.0,47.0,39.0,33.0,87.0,597.594
597604.0,46.0,39.0,34.0,94.0,597.604
597614.0,47.0,39.0,32.0,91.0,597.614
597624.0,47.0,39.0,28.0,85.0,597.624
597634.0,45.0,41.0,31.0,94.0,597.634
597644.0,46.0,40.0,27.0,93.0,597.644
597654.0,45.0,43.0,24.0,99.0,597.654
597664.0,46.0,44.0,28.0,110.0,597.664
597675.0,47.0,45.0,27.0,112.0,597.675
597685.0,46.0,46.0,28.0,107.0,597.685
597695.0,45.0,47.0,24.0,99.0,597.695
597705.0,46.0,48.0,23.0,105.0,597.705
597715.0,47.0,50.0,25.0,101.0,597.715
597725.0,46.0,51.0,26.0,107.0,597.725
597735.0,45.0,49.0,23.0,111.0,597.735
597745.0,45.0,50.0,28.0,106.0,597.745
597755.0,45.0,50.0,27.0,97.0,597.755
597765.0,44.0,50.0,28.0,106.0,597.765
597775.0,44.0,51.0,25.0,99.0,597.775
597785.0,44.0,52.0,26.0,104.0,597.785
597795.0,44.0,51.0,23.0,100.0,597.795
597805.0,44.0,52.0,25.0,97.0,597.805
597815.0,44.0,53.0,21.0,90.0,597.815
597825.0,44.0,54.0,23.0,88.0,597.825
597835.0,45.0,56.0,25.0,94.0,597.835
597846.0,44.0,54.0,22.0,97.0,597.846
597856.0,44.0,53.0,22.0,93.0,597.856
597866.0,43.0,54.0,21.0,94.0,597.866
597876.0,45.0,55.0,23.0,94.0,597.876
597886.0,45.0,53.0,23.0,94.0,597.886
597896.0,46.0,52.0,21.0,88.0,597.896
597906.0,46.0,53.0,24.0,81.0,597.906
597916.0,45.0,51.0,22.0,88.0,597.916
597926.0,46.0,49.0,21.0,88.0,597.926
597936.0,46.0,50.0,19.0,95.0,597.936
597946.0,47.0,48.0,25.0,100.0,597.946
597956.0,48.0,51.0,25.0,102.0,597.956
597966.0,49.0,49.0,25.0,107.0,597.966
597976.0,49.0,51.0,36.0,107.0,597.976
597986.0,49.0,49.0,32.0,105.0,597.986
597996.0,48.0,47.0,28.0,105.0,597.996
598006.0,46.0,48.0,26.0,105.0,598.006
598016.0,46.0,49.0,25.0,97.0,598.016
598026.0,46.0,50.0,21.0,94.0,598.026
598036.0,46.0,50.0,20.0,88.0,598.036
598046.0,46.0,50.0,20.0,103.0,598.046
598056.0,45.0,51.0,22.0,97.0,598.056
598066.0,46.0,52.0,25.0,96.0,598.066
598076.0,46.0,53.0,23.0,111.0,598.076
598086.0,46.0,49.0,21.0,107.0,598.086
598096.0,46.0,50.0,19.0,104.0,598.096
598106.0,45.0,50.0,20.0,104.0,598.106
598116.0,46.0,50.0,23.0,108.0,598.116
598126.0,45.0,51.0,26.0,112.0,598.126
598136.0,47.0,51.0,35.0,110.0,598.136
598146.0,46.0,51.0,31.0,108.0,598.146
598156.0,45.0,49.0,32.0,97.0,598.156
598166.0,46.0,48.0,28.0,90.0,598.166
598176.0,46.0,48.0,26.0,95.0,598.176
598187.0,45.0,47.0,24.0,97.0,598.187
598197.0,44.0,48.0,20.0,93.0,598.197
598207.0,45.0,46.0,26.0,92.0,598.207
598217.0,45.0,45.0,27.0,90.0,598.217
598227.0,45.0,46.0,35.0,96.0,598.227
598237.0,45.0,46.0,35.0,96.0,598.237
598247.0,45.0,43.0,31.0,97.0,598.247
598257.0,44.0,42.0,28.0,97.0,598.257
598267.0,44.0,42.0,28.0,97.0,598.267
598277.0,45.0,42.0,28.0,112.0,598.277
598287.0,45.0,43.0,26.0,116.0,598.287
598297.0,44.0,41.0,24.0,109.0,598.297
598307.0,44.0,41.0,27.0,103.0,598.307
598317.0,44.0,41.0,30.0,99.0,598.317
598327.0,45.0,40.0,26.0,92.0,598.327
598337.0,44.0,39.0,24.0,105.0,598.337
598347.0,45.0,39.0,23.0,105.0,598.347
598358.0,44.0,38.0,20.0,100.0,598.358
598368.0,47.0,38.0,19.0,104.0,598.368
598378.0,46.0,38.0,21.0,98.0,598.378
598388.0,47.0,37.0,21.0,93.0,598.388
598398.0,48.0,40.0,30.0,95.0,598.398
598408.0,48.0,42.0,27.0,95.0,598.408
598418.0,49.0,40.0,29.0,92.0,598.418
598428.0,50.0,42.0,30.0,95.0,598.428
598438.0,51.0,42.0,30.0,108.0,598.438
598448.0,50.0,42.0,34.0,103.0,598.448
598458.0,51.0,45.0,36.0,104.0,598.458
598468.0,53.0,46.0,34.0,109.0,598.468
598478.0,52.0,47.0,32.0,105.0,598.478
598488.0,52.0,45.0,32.0,105.0,598.488
598498.0,53.0,47.0,27.0,104.0,598.498
598508.0,54.0,45.0,24.0,97.0,598.508
598518.0,52.0,44.0,25.0,95.0,598.518
598528.0,52.0,44.0,25.0,94.0,598.528
598538.0,54.0,43.0,35.0,91.0,598.538
598548.0,52.0,43.0,34.0,90.0,598.548
598558.0,51.0,41.0,30.0,88.0,598.558
598568.0,51.0,42.0,32.0,84.0,598.568
598578.0,50.0,40.0,38.0,97.0,598.578
598588.0,51.0,42.0,40.0,98.0,598.588
598598.0,49.0,40.0,36.0,94.0,598.598
598608.0,50.0,39.0,31.0,87.0,598.608
598618.0,49.0,40.0,40.0,86.0,598.618
598628.0,50.0,41.0,48.0,85.0,598.628
598638.0,49.0,41.0,42.0,93.0,598.638
598648.0,47.0,39.0,38.0,90.0,598.648
598658.0,48.0,39.0,34.0,89.0,598.658
598668.0,47.0,38.0,33.0,81.0,598.668
598678.0,47.0,37.0,31.0,88.0,598.678
598688.0,48.0,39.0,34.0,90.0,598.688
598699.0,48.0,40.0,48.0,82.0,598.699
598709.0,47.0,40.0,43.0,80.0,598.709
598719.0,47.0,38.0,40.0,76.0,598.719
598729.0,46.0,38.0,36.0,77.0,598.729
598739.0,46.0,38.0,31.0,84.0,598.739
598749.0,45.0,39.0,31.0,78.0,598.749
598759.0,44.0,40.0,30.0,81.0,598.759
598769.0,45.0,40.0,32.0,81.0,598.769
598779.0,46.0,42.0,30.0,86.0,598.779
598789.0,46.0,41.0,27.0,103.0,598.789
598799.0,47.0,41.0,30.0,98.0,598.799
598809.0,47.0,41.0,35.0,91.0,598.809
598819.0,49.0,40.0,30.0,85.0,598.819
598829.0,47.0,39.0,27.0,82.0,598.829
598839.0,47.0,41.0,32.0,89.0,598.839
598849.0,49.0,43.0,39.0,95.0,598.849
598859.0,50.0,40.0,36.0,102.0,598.859
598870.0,51.0,41.0,34.0,105.0,598.87
598880.0,51.0,39.0,32.0,96.0,598.88
598890.0,52.0,40.0,29.0,87.0,598.89
598900.0,50.0,40.0,28.0,84.0,598.9
598910.0,51.0,40.0,24.0,83.0,598.91
598920.0,52.0,42.0,30.0,81.0,598.92
598930.0,53.0,40.0,27.0,82.0,598.93
598940.0,53.0,39.0,23.0,78.0,598.94
598950.0,53.0,39.0,22.0,72.0,598.95
598960.0,53.0,39.0,20.0,67.0,598.96
598970.0,52.0,40.0,19.0,67.0,598.97
598980.0,52.0,40.0,17.0,61.0,598.98
598990.0,51.0,43.0,22.0,63.0,598.99
599000.0,49.0,41.0,24.0,60.0,599.0
599010.0,50.0,43.0,31.0,61.0,599.01
599020.0,49.0,44.0,28.0,75.0,599.02
599030.0,51.0,46.0,45.0,84.0,599.03
599040.0,51.0,45.0,39.0,85.0,599.04
599050.0,52.0,45.0,38.0,79.0,599.05
599060.0,52.0,45.0,35.0,74.0,599.06
599070.0,52.0,44.0,31.0,78.0,599.07
599080.0,51.0,44.0,27.0,77.0,599.08
599090.0,51.0,45.0,35.0,95.0,599.09
599100.0,53.0,43.0,33.0,95.0,599.1
599110.0,52.0,44.0,30.0,93.0,599.11
599120.0,53.0,44.0,32.0,92.0,599.12
599130.0,53.0,43.0,30.0,88.0,599.13
599140.0,54.0,42.0,27.0,95.0,599.14
599150.0,53.0,44.0,33.0,94.0,599.15
599160.0,53.0,43.0,35.0,98.0,599.16
599170.0,55.0,42.0,37.0,103.0,599.17
599180.0,56.0,41.0,36.0,98.0,599.18
599190.0,57.0,40.0,32.0,96.0,599.19
599200.0,59.0,41.0,28.0,87.0,599.2
599211.0,59.0,42.0,25.0,80.0,599.211
599221.0,60.0,44.0,26.0,76.0,599.221
599231.0,60.0,46.0,27.0,70.0,599.231
599241.0,61.0,47.0,30.0,72.0,599.241
599251.0,62.0,47.0,26.0,70.0,599.251
599261.0,61.0,49.0,25.0,75.0,599.261
599271.0,62.0,49.0,24.0,83.0,599.271
599281.0,62.0,46.0,22.0,78.0,599.281
599291.0,63.0,46.0,21.0,102.0,599.291
599301.0,63.0,47.0,21.0,96.0,599.301
599311.0,65.0,47.0,21.0,90.0,599.311
599321.0,64.0,48.0,20.0,89.0,599.321
599331.0,67.0,47.0,27.0,87.0,599.331
599341.0,67.0,48.0,28.0,85.0,599.341
599351.0,68.0,48.0,30.0,82.0,599.351
599361.0,68.0,48.0,27.0,83.0,599.361
599371.0,68.0,48.0,30.0,78.0,599.371
599382.0,70.0,47.0,28.0,73.0,599.382
599392.0,68.0,47.0,24.0,75.0,599.392
599402.0,66.0,47.0,30.0,80.0,599.402
599412.0,66.0,47.0,27.0,77.0,599.412
599422.0,66.0,44.0,28.0,74.0,599.422
599432.0,66.0,43.0,25.0,74.0,599.432
599442.0,64.0,42.0,23.0,69.0,599.442
599452.0,64.0,42.0,21.0,67.0,599.452
599462.0,61.0,42.0,18.0,67.0,599.462
599472.0,61.0,42.0,18.0,65.0,599.472
599482.0,62.0,43.0,23.0,63.0,599.482
599492.0,60.0,43.0,28.0,67.0,599.492
599502.0,63.0,43.0,27.0,63.0,599.502
599512.0,61.0,45.0,24.0,61.0,599.512
599522.0,61.0,48.0,24.0,64.0,599.522
599532.0,62.0,47.0,34.0,66.0,599.532
599542.0,63.0,47.0,30.0,68.0,599.542
599552.0,62.0,47.0,32.0,69.0,599.552
599562.0,61.0,47.0,35.0,74.0,599.562
599572.0,61.0,46.0,36.0,82.0,599.572
599582.0,63.0,47.0,44.0,81.0,599.582
599592.0,64.0,46.0,39.0,76.0,599.592
599602.0,64.0,47.0,43.0,83.0,599.602
599612.0,66.0,44.0,40.0,92.0,599.612
599622.0,67.0,44.0,41.0,87.0,599.622
599632.0,68.0,42.0,36.0,89.0,599.632
599642.0,67.0,44.0,41.0,84.0,599.642
599652.0,68.0,42.0,41.0,81.0,599.652
599662.0,69.0,42.0,45.0,80.0,599.662
599672.0,67.0,42.0,45.0,78.0,599.672
599682.0,67.0,41.0,45.0,78.0,599.682
599692.0,65.0,41.0,41.0,77.0,599.692
599702.0,64.0,40.0,36.0,77.0,599.702
599712.0,63.0,38.0,34.0,74.0,599.712
599723.0,61.0,39.0,37.0,74.0,599.723
599733.0,62.0,39.0,39.0,72.0,599.733
599743.0,60.0,39.0,34.0,91.0,599.743
599753.0,58.0,37.0,33.0,90.0,599.753
599763.0,58.0,38.0,29.0,91.0,599.763
599773.0,55.0,37.0,26.0,92.0,599.773
599783.0,55.0,37.0,33.0,87.0,599.783
599793.0,53.0,40.0,44.0,88.0,599.793
599803.0,56.0,40.0,43.0,91.0,599.803
599813.0,56.0,40.0,37.0,95.0,599.813
599823.0,55.0,39.0,36.0,95.0,599.823
599833.0,55.0,40.0,32.0,101.0,599.833
599843.0,54.0,41.0,31.0,93.0,599.843
599853.0,54.0,42.0,27.0,96.0,599.853
599863.0,54.0,44.0,28.0,101.0,599.863
599873.0,55.0,46.0,33.0,102.0,599.873
599883.0,56.0,49.0,29.0,98.0,599.883
599894.0,55.0,49.0,28.0,96.0,599.894
599904.0,56.0,50.0,29.0,95.0,599.904
599914.0,55.0,51.0,26.0,91.0,599.914
599924.0,55.0,52.0,23.0,84.0,599.924
599934.0,53.0,53.0,24.0,91.0,599.934
599944.0,55.0,56.0,22.0,95.0,599.944
599954.0,54.0,58.0,27.0,92.0,599.954
599964.0,55.0,62.0,28.0,89.0,599.964
599974.0,56.0,66.0,26.0,94.0,599.974
599984.0,58.0,68.0,31.0,93.0,599.984
599994.0,60.0,71.0,27.0,95.0,599.994
600004.0,61.0,73.0,24.0,92.0,600.004
600014.0,62.0,74.0,23.0,93.0,600.014
600024.0,62.0,76.0,28.0,97.0,600.024
600034.0,63.0,78.0,28.0,90.0,600.034
600044.0,65.0,78.0,41.0,86.0,600.044
600054.0,67.0,81.0,41.0,80.0,600.054
600064.0,69.0,83.0,39.0,83.0,600.064
600074.0,71.0,86.0,35.0,86.0,600.074
600084.0,73.0,88.0,32.0,88.0,600.084
600094.0,72.0,89.0,27.0,95.0,600.094
600104.0,75.0,93.0,27.0,95.0,600.104
600114.0,77.0,94.0,25.0,89.0,600.114
600124.0,78.0,98.0,26.0,91.0,600.124
600134.0,80.0,101.0,36.0,91.0,600.134
600144.0,82.0,105.0,31.0,87.0,600.144
600154.0,83.0,104.0,28.0,78.0,600.154
600164.0,83.0,105.0,24.0,73.0,600.164
600174.0,84.0,107.0,23.0,68.0,600.174
600184.0,85.0,109.0,19.0,67.0,600.184
600194.0,85.0,111.0,23.0,63.0,600.194
600204.0,84.0,113.0,22.0,66.0,600.204
600214.0,85.0,114.0,19.0,73.0,600.214
600224.0,85.0,117.0,31.0,76.0,600.224
600235.0,86.0,121.0,28.0,87.0,600.235
600245.0,85.0,121.0,33.0,87.0,600.245
600255.0,87.0,124.0,30.0,86.0,600.255
600265.0,87.0,127.0,26.0,86.0,600.265
600275.0,90.0,126.0,32.0,96.0,600.275
600285.0,92.0,129.0,29.0,92.0,600.285
600295.0,92.0,128.0,26.0,94.0,600.295
600305.0,91.0,129.0,27.0,88.0,600.305
600315.0,92.0,133.0,31.0,82.0,600.315
600325.0,92.0,135.0,35.0,87.0,600.325
600335.0,92.0,139.0,30.0,92.0,600.335
600345.0,94.0,142.0,27.0,88.0,600.345
600355.0,95.0,147.0,24.0,94.0,600.355
600365.0,94.0,148.0,22.0,99.0,600.365
600375.0,94.0,151.0,19.0,94.0,600.375
600385.0,93.0,153.0,29.0,91.0,600.385
600395.0,93.0,158.0,26.0,88.0,600.395
600406.0,94.0,162.0,29.0,91.0,600.406
600416.0,96.0,167.0,26.0,90.0,600.416
600426.0,95.0,170.0,23.0,96.0,600.426
600436.0,99.0,176.0,28.0,95.0,600.436
600446.0,100.0,181.0,24.0,87.0,600.446
600456.0,99.0,183.0,22.0,84.0,600.456
600466.0,100.0,185.0,19.0,79.0,600.466
600476.0,100.0,189.0,19.0,87.0,600.476
600486.0,101.0,190.0,24.0,90.0,600.486
600496.0,103.0,196.0,21.0,90.0,600.496
600506.0,103.0,198.0,21.0,83.0,600.506
600516.0,102.0,202.0,29.0,84.0,600.516
600526.0,102.0,206.0,27.0,78.0,600.526
600536.0,103.0,208.0,28.0,81.0,600.536
600546.0,104.0,214.0,33.0,90.0,600.546
600556.0,103.0,215.0,30.0,86.0,600.556
600566.0,103.0,218.0,29.0,84.0,600.566
600576.0,104.0,221.0,28.0,88.0,600.576
600586.0,104.0,225.0,30.0,87.0,600.586
600596.0,104.0,227.0,38.0,81.0,600.596
600606.0,104.0,231.0,34.0,79.0,600.606
600616.0,104.0,233.0,31.0,75.0,600.616
600626.0,105.0,235.0,27.0,70.0,600.626
600636.0,105.0,236.0,25.0,68.0,600.636
600646.0,105.0,239.0,27.0,72.0,600.646
600656.0,104.0,241.0,22.0,72.0,600.656
600666.0,104.0,244.0,21.0,74.0,600.666
600676.0,104.0,245.0,19.0,84.0,600.676
600686.0,103.0,248.0,22.0,85.0,600.686
600696.0,102.0,247.0,21.0,80.0,600.696
600706.0,100.0,247.0,24.0,85.0,600.706
600716.0,102.0,251.0,23.0,85.0,600.716
600726.0,102.0,252.0,24.0,83.0,600.726
600736.0,102.0,251.0,22.0,76.0,600.736
600747.0,103.0,252.0,22.0,76.0,600.747
600757.0,103.0,253.0,19.0,78.0,600.757
600767.0,103.0,251.0,22.0,78.0,600.767
600777.0,102.0,250.0,20.0,76.0,600.777
600787.0,104.0,251.0,19.0,75.0,600.787
600797.0,102.0,251.0,23.0,78.0,600.797
600807.0,100.0,251.0,21.0,76.0,600.807
600817.0,102.0,251.0,22.0,76.0,600.817
600827.0,102.0,252.0,21.0,81.0,600.827
600837.0,102.0,252.0,23.0,78.0,600.837
600847.0,104.0,253.0,20.0,77.0,600.847
600857.0,105.0,254.0,21.0,78.0,600.857
600867.0,106.0,255.0,18.0,74.0,600.867
600877.0,106.0,254.0,21.0,81.0,600.877
600887.0,108.0,257.0,23.0,79.0,600.887
600897.0,109.0,258.0,24.0,76.0,600.897
600907.0,109.0,256.0,22.0,72.0,600.907
600918.0,107.0,255.0,19.0,78.0,600.918
600928.0,109.0,254.0,20.0,79.0,600.928
600938.0,109.0,253.0,20.0,77.0,600.938
600948.0,110.0,254.0,24.0,80.0,600.948
600958.0,110.0,252.0,22.0,83.0,600.958
600968.0,110.0,252.0,22.0,80.0,600.968
600978.0,112.0,252.0,20.0,78.0,600.978
600988.0,115.0,251.0,41.0,79.0,600.988
600998.0,121.0,252.0,37.0,79.0,600.998
601008.0,128.0,252.0,32.0,76.0,601.008
601018.0,138.0,253.0,28.0,80.0,601.018
601028.0,151.0,250.0,25.0,82.0,601.028
601038.0,166.0,249.0,25.0,81.0,601.038
601048.0,179.0,245.0,22.0,76.0,601.048
601058.0,192.0,245.0,21.0,88.0,601.058
601068.0,205.0,244.0,21.0,90.0,601.068
601078.0,215.0,242.0,21.0,95.0,601.078
601088.0,222.0,240.0,21.0,96.0,601.088
601098.0,228.0,237.0,26.0,111.0,601.098
601108.0,234.0,237.0,28.0,114.0,601.108
601118.0,239.0,236.0,26.0,110.0,601.118
601128.0,243.0,236.0,23.0,102.0,601.128
601138.0,245.0,236.0,20.0,100.0,601.138
601148.0,247.0,233.0,19.0,96.0,601.148
601158.0,247.0,232.0,22.0,87.0,601.158
601168.0,248.0,231.0,21.0,82.0,601.168
601178.0,246.0,229.0,22.0,87.0,601.178
601188.0,244.0,227.0,21.0,82.0,601.188
601198.0,242.0,225.0,19.0,77.0,601.198
601208.0,241.0,224.0,21.0,72.0,601.208
601218.0,238.0,221.0,21.0,70.0,601.218
601228.0,234.0,218.0,18.0,65.0,601.228
601238.0,232.0,216.0,17.0,70.0,601.238
601248.0,229.0,217.0,15.0,70.0,601.248
601259.0,226.0,214.0,14.0,71.0,601.259
601269.0,225.0,214.0,12.0,67.0,601.269
601279.0,223.0,213.0,15.0,71.0,601.279
601289.0,221.0,212.0,15.0,73.0,601.289
601299.0,219.0,211.0,18.0,72.0,601.299
601309.0,219.0,213.0,27.0,69.0,601.309
601319.0,217.0,214.0,23.0,70.0,601.319
601329.0,214.0,212.0,21.0,73.0,601.329
601339.0,212.0,211.0,21.0,76.0,601.339
601349.0,210.0,211.0,19.0,70.0,601.349
601359.0,208.0,209.0,18.0,79.0,601.359
601369.0,202.0,206.0,16.0,74.0,601.369
601379.0,200.0,205.0,16.0,69.0,601.379
601389.0,197.0,204.0,16.0,74.0,601.389
601399.0,193.0,200.0,16.0,68.0,601.399
601409.0,190.0,196.0,24.0,73.0,601.409
601419.0,188.0,196.0,26.0,71.0,601.419
601430.0,186.0,195.0,24.0,74.0,601.43
601440.0,182.0,193.0,24.0,73.0,601.44
601450.0,179.0,189.0,29.0,85.0,601.45
601460.0,176.0,188.0,27.0,83.0,601.46
601470.0,174.0,185.0,24.0,80.0,601.47
601480.0,171.0,183.0,22.0,83.0,601.48
601490.0,168.0,178.0,20.0,78.0,601.49
601500.0,168.0,176.0,18.0,76.0,601.5
601510.0,164.0,172.0,20.0,75.0,601.51
601520.0,164.0,169.0,19.0,81.0,601.52
601530.0,160.0,167.0,16.0,80.0,601.53
601540.0,157.0,161.0,17.0,79.0,601.54
601550.0,153.0,157.0,18.0,78.0,601.55
601560.0,152.0,157.0,20.0,74.0,601.56
601570.0,152.0,154.0,18.0,81.0,601.57
601580.0,148.0,151.0,18.0,75.0,601.58
601590.0,146.0,147.0,26.0,77.0,601.59
601600.0,145.0,146.0,26.0,76.0,601.6
601610.0,145.0,144.0,24.0,76.0,601.61
601620.0,143.0,138.0,24.0,73.0,601.62
601630.0,141.0,136.0,23.0,71.0,601.63
601640.0,139.0,131.0,21.0,75.0,601.64
601650.0,137.0,129.0,21.0,77.0,601.65
601660.0,136.0,127.0,20.0,76.0,601.66
601670.0,134.0,123.0,28.0,72.0,601.67
601680.0,133.0,120.0,24.0,71.0,601.68
601690.0,133.0,118.0,22.0,68.0,601.69
601700.0,132.0,115.0,20.0,73.0,601.7
601710.0,130.0,111.0,18.0,67.0,601.71
601720.0,128.0,107.0,15.0,64.0,601.72
601730.0,127.0,104.0,14.0,61.0,601.73
601740.0,125.0,100.0,13.0,62.0,601.74
601750.0,123.0,96.0,11.0,60.0,601.75
601760.0,122.0,93.0,10.0,64.0,601.76
601771.0,121.0,88.0,9.0,65.0,601.771
601781.0,120.0,85.0,9.0,71.0,601.781
601791.0,117.0,83.0,10.0,76.0,601.791
601801.0,114.0,80.0,18.0,82.0,601.801
601811.0,111.0,78.0,19.0,91.0,601.811
601821.0,110.0,77.0,21.0,90.0,601.821
601831.0,109.0,78.0,19.0,89.0,601.831
601841.0,106.0,75.0,18.0,87.0,601.841
601851.0,104.0,74.0,17.0,88.0,601.851
601861.0,100.0,70.0,15.0,92.0,601.861
601871.0,98.0,66.0,15.0,87.0,601.871
601881.0,97.0,64.0,14.0,91.0,601.881
601891.0,93.0,60.0,19.0,88.0,601.891
601901.0,91.0,59.0,27.0,98.0,601.901
601911.0,89.0,57.0,24.0,97.0,601.911
601921.0,88.0,53.0,23.0,88.0,601.921
601931.0,84.0,50.0,20.0,83.0,601.931
601942.0,83.0,47.0,17.0,90.0,601.942
601952.0,82.0,47.0,16.0,86.0,601.952
601962.0,82.0,45.0,17.0,80.0,601.962
601972.0,80.0,45.0,22.0,81.0,601.972
601982.0,79.0,43.0,21.0,82.0,601.982
601992.0,77.0,44.0,33.0,80.0,601.992
602002.0,74.0,43.0,40.0,86.0,602.002
602012.0,73.0,42.0,37.0,83.0,602.012
602022.0,72.0,44.0,32.0,87.0,602.022
602032.0,71.0,42.0,29.0,85.0,602.032
602042.0,70.0,44.0,27.0,87.0,602.042
602052.0,68.0,47.0,27.0,86.0,602.052
602062.0,68.0,50.0,26.0,83.0,602.062
602072.0,65.0,51.0,23.0,85.0,602.072
602082.0,66.0,52.0,24.0,91.0,602.082
602092.0,65.0,55.0,33.0,90.0,602.092
602102.0,64.0,56.0,31.0,87.0,602.102
602112.0,65.0,57.0,28.0,88.0,602.112
602122.0,63.0,59.0,25.0,88.0,602.122
602132.0,62.0,62.0,28.0,91.0,602.132
602142.0,60.0,65.0,24.0,96.0,602.142
602152.0,58.0,65.0,22.0,96.0,602.152
602162.0,56.0,67.0,20.0,96.0,602.162
602172.0,55.0,70.0,21.0,109.0,602.172
602182.0,53.0,73.0,24.0,111.0,602.182
602192.0,52.0,74.0,21.0,110.0,602.192
602202.0,53.0,75.0,19.0,110.0,602.202
602212.0,51.0,76.0,20.0,112.0,602.212
602222.0,50.0,77.0,19.0,107.0,602.222
