time (ms),signal 0,signal 1,signal 2,signal3,time (sec)
622619.0,64.0,49.0,33.0,88.0,622.619
622629.0,65.0,51.0,33.0,91.0,622.629
622639.0,64.0,52.0,30.0,93.0,622.639
622649.0,63.0,50.0,27.0,89.0,622.649
622659.0,61.0,52.0,27.0,86.0,622.659
622669.0,63.0,50.0,30.0,91.0,622.669
622679.0,64.0,48.0,27.0,86.0,622.679
622689.0,64.0,50.0,33.0,82.0,622.689
622699.0,65.0,49.0,33.0,79.0,622.699
622709.0,64.0,50.0,29.0,81.0,622.709
622720.0,64.0,48.0,26.0,74.0,622.72
622730.0,63.0,51.0,24.0,78.0,622.73
622740.0,63.0,50.0,28.0,80.0,622.74
622750.0,64.0,50.0,26.0,91.0,622.75
622760.0,63.0,50.0,24.0,90.0,622.76
622770.0,63.0,50.0,23.0,90.0,622.77
622780.0,62.0,49.0,19.0,90.0,622.78
622790.0,61.0,47.0,17.0,86.0,622.79
622800.0,60.0,46.0,15.0,83.0,622.8
622810.0,59.0,48.0,20.0,83.0,622.81
622820.0,60.0,47.0,21.0,93.0,622.82
622830.0,58.0,46.0,20.0,94.0,622.83
622840.0,57.0,45.0,24.0,85.0,622.84
622850.0,56.0,46.0,26.0,87.0,622.85
622860.0,57.0,44.0,23.0,94.0,622.86
622870.0,56.0,43.0,21.0,89.0,622.87
622880.0,55.0,41.0,20.0,96.0,622.88
622891.0,56.0,43.0,26.0,89.0,622.891
622901.0,55.0,43.0,24.0,107.0,622.901
622911.0,57.0,42.0,24.0,114.0,622.911
622921.0,57.0,44.0,27.0,111.0,622.921
622931.0,59.0,43.0,26.0,116.0,622.931
622941.0,58.0,42.0,25.0,111.0,622.941
622951.0,59.0,43.0,25.0,106.0,622.951
622961.0,61.0,43.0,22.0,99.0,622.961
622971.0,61.0,42.0,23.0,105.0,622.971
622981.0,61.0,45.0,24.0,104.0,622.981
622991.0,62.0,44.0,26.0,99.0,622.991
623001.0,62.0,43.0,25.0,95.0,623.001
623011.0,63.0,42.0,27.0,96.0,623.011
623021.0,63.0,42.0,26.0,92.0,623.021
623031.0,64.0,43.0,23.0,97.0,623.031
623041.0,64.0,44.0,20.0,101.0,623.041
623051.0,64.0,43.0,19.0,99.0,623.051
623062.0,62.0,45.0,24.0,96.0,623.062
623072.0,62.0,46.0,24.0,110.0,623.072
623082.0,61.0,49.0,23.0,103.0,623.082
623092.0,60.0,49.0,23.0,119.0,623.092
623102.0,59.0,48.0,30.0,118.0,623.102
623112.0,58.0,50.0,27.0,118.0,623.112
623122.0,58.0,50.0,25.0,107.0,623.122
623132.0,57.0,50.0,22.0,108.0,623.132
623142.0,58.0,53.0,35.0,125.0,623.142
623152.0,57.0,53.0,34.0,123.0,623.152
623162.0,57.0,51.0,36.0,119.0,623.162
623172.0,56.0,51.0,33.0,111.0,623.172
623182.0,55.0,50.0,28.0,115.0,623.182
623192.0,55.0,49.0,28.0,126.0,623.192
623202.0,54.0,50.0,24.0,129.0,623.202
623212.0,54.0,50.0,22.0,124.0,623.212
623222.0,54.0,51.0,19.0,120.0,623.222
623232.0,53.0,50.0,18.0,110.0,623.232
623242.0,56.0,51.0,17.0,114.0,623.242
623252.0,54.0,52.0,28.0,103.0,623.252
623262.0,54.0,49.0,28.0,104.0,623.262
623272.0,55.0,49.0,25.0,103.0,623.272
623282.0,57.0,47.0,23.0,96.0,623.282
623292.0,57.0,47.0,21.0,110.0,623.292
623302.0,56.0,46.0,24.0,107.0,623.302
623312.0,55.0,46.0,20.0,98.0,623.312
623322.0,54.0,44.0,18.0,97.0,623.322
623332.0,54.0,46.0,17.0,97.0,623.332
623342.0,54.0,47.0,15.0,101.0,623.342
623352.0,54.0,48.0,14.0,93.0,623.352
623362.0,53.0,49.0,12.0,88.0,623.362
623372.0,51.0,51.0,12.0,101.0,623.372
623382.0,51.0,53.0,17.0,103.0,623.382
623392.0,50.0,55.0,16.0,97.0,623.392
623403.0,50.0,53.0,15.0,96.0,623.403
623413.0,50.0,53.0,24.0,106.0,623.413
623423.0,50.0,54.0,25.0,108.0,623.423
623433.0,50.0,54.0,21.0,110.0,623.433
623443.0,51.0,55.0,19.0,121.0,623.443
623453.0,52.0,54.0,17.0,114.0,623.453
623463.0,52.0,54.0,16.0,120.0,623.463
623473.0,53.0,51.0,17.0,134.0,623.473
623483.0,52.0,51.0,16.0,126.0,623.483
623493.0,51.0,50.0,15.0,126.0,623.493
623503.0,51.0,49.0,15.0,116.0,623.503
623513.0,52.0,49.0,15.0,109.0,623.513
623523.0,53.0,48.0,15.0,110.0,623.523
623533.0,54.0,50.0,15.0,109.0,623.533
623543.0,56.0,50.0,14.0,114.0,623.543
623553.0,57.0,53.0,12.0,126.0,623.553
623563.0,58.0,51.0,11.0,121.0,623.563
623574.0,59.0,49.0,11.0,138.0,623.574
623584.0,61.0,48.0,9.0,136.0,623.584
623594.0,61.0,46.0,10.0,126.0,623.594
623604.0,61.0,45.0,9.0,114.0,623.604
623614.0,60.0,45.0,12.0,104.0,623.614
623624.0,60.0,45.0,15.0,101.0,623.624
623634.0,60.0,45.0,31.0,113.0,623.634
623644.0,60.0,45.0,34.0,112.0,623.644
623654.0,61.0,46.0,31.0,109.0,623.654
623664.0,61.0,46.0,28.0,103.0,623.664
623674.0,59.0,44.0,25.0,106.0,623.674
623684.0,59.0,44.0,23.0,115.0,623.684
623694.0,60.0,45.0,21.0,106.0,623.694
623704.0,60.0,45.0,21.0,106.0,623.704
623714.0,59.0,45.0,19.0,111.0,623.714
623724.0,61.0,47.0,29.0,142.0,623.724
623734.0,62.0,47.0,27.0,138.0,623.734
623744.0,62.0,48.0,23.0,131.0,623.744
623754.0,63.0,46.0,23.0,120.0,623.754
623764.0,61.0,45.0,21.0,114.0,623.764
623774.0,60.0,43.0,18.0,124.0,623.774
623784.0,61.0,44.0,17.0,121.0,623.784
623794.0,58.0,43.0,15.0,120.0,623.794
623804.0,56.0,42.0,14.0,109.0,623.804
623814.0,55.0,50.0,12.0,103.0,623.814
623824.0,56.0,55.0,12.0,115.0,623.824
623834.0,55.0,83.0,10.0,110.0,623.834
623844.0,56.0,100.0,12.0,134.0,623.844
623854.0,60.0,107.0,11.0,148.0,623.854
623864.0,66.0,152.0,12.0,148.0,623.864
623874.0,73.0,180.0,11.0,166.0,623.874
623884.0,74.0,171.0,12.0,195.0,623.884
623894.0,79.0,159.0,12.0,183.0,623.894
623904.0,87.0,151.0,12.0,175.0,623.904
623915.0,107.0,148.0,37.0,208.0,623.915
623925.0,133.0,146.0,35.0,222.0,623.925
623935.0,142.0,143.0,44.0,244.0,623.935
623945.0,141.0,138.0,39.0,243.0,623.945
623955.0,128.0,133.0,38.0,238.0,623.955
623965.0,119.0,131.0,34.0,227.0,623.965
623975.0,107.0,123.0,31.0,221.0,623.975
623985.0,99.0,114.0,29.0,220.0,623.985
623995.0,91.0,110.0,28.0,233.0,623.995
624005.0,87.0,104.0,26.0,231.0,624.005
624015.0,81.0,101.0,25.0,206.0,624.015
624025.0,78.0,95.0,23.0,196.0,624.025
624035.0,74.0,94.0,20.0,190.0,624.035
624045.0,72.0,94.0,21.0,183.0,624.045
624055.0,71.0,119.0,21.0,193.0,624.055
624065.0,71.0,114.0,18.0,198.0,624.065
624075.0,70.0,106.0,17.0,194.0,624.075
624086.0,69.0,99.0,25.0,230.0,624.086
624096.0,68.0,95.0,25.0,254.0,624.096
624106.0,66.0,91.0,28.0,292.0,624.106
624116.0,65.0,86.0,30.0,335.0,624.116
624126.0,64.0,81.0,30.0,346.0,624.126
624136.0,65.0,85.0,39.0,391.0,624.136
624146.0,67.0,99.0,36.0,411.0,624.146
624156.0,69.0,95.0,32.0,379.0,624.156
624166.0,66.0,90.0,30.0,350.0,624.166
624176.0,66.0,85.0,27.0,347.0,624.176
624186.0,66.0,85.0,25.0,354.0,624.186
624196.0,63.0,85.0,37.0,358.0,624.196
624206.0,63.0,85.0,34.0,343.0,624.206
624216.0,65.0,87.0,37.0,338.0,624.216
624226.0,64.0,87.0,36.0,361.0,624.226
624236.0,63.0,88.0,33.0,336.0,624.236
624246.0,63.0,89.0,32.0,327.0,624.246
624256.0,62.0,92.0,30.0,323.0,624.256
624266.0,63.0,89.0,28.0,327.0,624.266
624276.0,62.0,90.0,25.0,316.0,624.276
624286.0,64.0,88.0,23.0,295.0,624.286
624296.0,64.0,90.0,21.0,284.0,624.296
624306.0,62.0,90.0,22.0,272.0,624.306
624316.0,63.0,90.0,25.0,279.0,624.316
624326.0,62.0,89.0,22.0,278.0,624.326
624336.0,62.0,88.0,20.0,263.0,624.336
624346.0,63.0,89.0,18.0,260.0,624.346
624356.0,65.0,88.0,20.0,250.0,624.356
624366.0,66.0,86.0,17.0,242.0,624.366
624376.0,66.0,87.0,16.0,238.0,624.376
624386.0,64.0,87.0,29.0,231.0,624.386
624396.0,65.0,86.0,30.0,219.0,624.396
624406.0,65.0,86.0,29.0,213.0,624.406
624416.0,66.0,85.0,26.0,221.0,624.416
624427.0,66.0,84.0,23.0,223.0,624.427
624437.0,66.0,84.0,21.0,226.0,624.437
624447.0,64.0,83.0,18.0,221.0,624.447
624457.0,65.0,81.0,19.0,223.0,624.457
624467.0,64.0,84.0,16.0,228.0,624.467
624477.0,63.0,83.0,15.0,210.0,624.477
624487.0,61.0,84.0,14.0,199.0,624.487
624497.0,59.0,83.0,14.0,189.0,624.497
624507.0,58.0,82.0,13.0,186.0,624.507
624517.0,57.0,85.0,11.0,192.0,624.517
624527.0,57.0,85.0,16.0,215.0,624.527
624537.0,56.0,85.0,16.0,218.0,624.537
624547.0,55.0,86.0,15.0,212.0,624.547
624557.0,55.0,84.0,14.0,211.0,624.557
624567.0,53.0,86.0,12.0,205.0,624.567
624577.0,52.0,86.0,15.0,205.0,624.577
624587.0,51.0,86.0,16.0,202.0,624.587
624598.0,53.0,85.0,17.0,193.0,624.598
624608.0,51.0,87.0,15.0,202.0,624.608
624618.0,51.0,87.0,14.0,195.0,624.618
624628.0,49.0,87.0,13.0,191.0,624.628
624638.0,50.0,87.0,13.0,192.0,624.638
624648.0,50.0,86.0,12.0,179.0,624.648
624658.0,49.0,86.0,12.0,198.0,624.658
624668.0,51.0,84.0,14.0,233.0,624.668
624678.0,52.0,82.0,12.0,218.0,624.678
624688.0,52.0,82.0,13.0,207.0,624.688
624698.0,52.0,79.0,12.0,204.0,624.698
624708.0,53.0,79.0,11.0,191.0,624.708
624718.0,54.0,78.0,10.0,181.0,624.718
624728.0,54.0,77.0,9.0,167.0,624.728
624738.0,55.0,76.0,10.0,163.0,624.738
624748.0,53.0,75.0,8.0,164.0,624.748
624758.0,54.0,73.0,11.0,160.0,624.758
624768.0,53.0,74.0,11.0,174.0,624.768
624778.0,53.0,73.0,11.0,179.0,624.778
624788.0,54.0,72.0,11.0,178.0,624.788
624798.0,51.0,70.0,9.0,169.0,624.798
624808.0,51.0,69.0,9.0,164.0,624.808
624818.0,51.0,69.0,8.0,161.0,624.818
624828.0,50.0,71.0,11.0,173.0,624.828
624838.0,52.0,70.0,15.0,178.0,624.838
624848.0,49.0,68.0,13.0,170.0,624.848
624858.0,51.0,69.0,29.0,167.0,624.858
624868.0,51.0,67.0,29.0,165.0,624.868
624878.0,51.0,64.0,26.0,162.0,624.878
624888.0,50.0,62.0,23.0,158.0,624.888
624898.0,50.0,62.0,20.0,150.0,624.898
624908.0,50.0,61.0,22.0,147.0,624.908
624918.0,50.0,64.0,22.0,159.0,624.918
624928.0,51.0,61.0,23.0,163.0,624.928
624939.0,52.0,61.0,20.0,174.0,624.939
624949.0,54.0,60.0,17.0,171.0,624.949
624959.0,55.0,58.0,16.0,187.0,624.959
624969.0,56.0,58.0,15.0,182.0,624.969
624979.0,58.0,57.0,14.0,168.0,624.979
624989.0,57.0,56.0,14.0,180.0,624.989
624999.0,58.0,56.0,15.0,192.0,624.999
625009.0,57.0,56.0,12.0,205.0,625.009
625019.0,58.0,55.0,13.0,212.0,625.019
625029.0,57.0,53.0,12.0,206.0,625.029
625039.0,58.0,54.0,12.0,193.0,625.039
625049.0,57.0,53.0,13.0,186.0,625.049
625059.0,57.0,52.0,15.0,197.0,625.059
625069.0,58.0,50.0,15.0,212.0,625.069
625079.0,55.0,52.0,16.0,208.0,625.079
625089.0,55.0,51.0,16.0,195.0,625.089
625099.0,56.0,52.0,16.0,187.0,625.099
625110.0,57.0,49.0,15.0,189.0,625.11
625120.0,55.0,48.0,14.0,201.0,625.12
625130.0,54.0,52.0,11.0,193.0,625.13
625140.0,55.0,51.0,12.0,186.0,625.14
625150.0,55.0,51.0,9.0,191.0,625.15
625160.0,56.0,51.0,11.0,223.0,625.16
625170.0,55.0,51.0,11.0,217.0,625.17
625180.0,57.0,51.0,11.0,196.0,625.18
625190.0,57.0,54.0,13.0,204.0,625.19
625200.0,55.0,55.0,13.0,193.0,625.2
625210.0,55.0,56.0,15.0,210.0,625.21
625220.0,54.0,57.0,14.0,206.0,625.22
625230.0,55.0,57.0,14.0,195.0,625.23
625240.0,54.0,57.0,16.0,191.0,625.24
625250.0,53.0,58.0,15.0,190.0,625.25
625260.0,52.0,59.0,14.0,201.0,625.26
625270.0,52.0,58.0,12.0,201.0,625.27
625280.0,52.0,59.0,15.0,201.0,625.28
625290.0,52.0,58.0,13.0,200.0,625.29
625300.0,53.0,58.0,13.0,182.0,625.3
625310.0,52.0,59.0,12.0,191.0,625.31
625320.0,53.0,60.0,11.0,178.0,625.32
625330.0,54.0,62.0,10.0,165.0,625.33
625340.0,54.0,63.0,10.0,159.0,625.34
625350.0,55.0,63.0,13.0,149.0,625.35
625360.0,55.0,63.0,13.0,165.0,625.36
625370.0,55.0,64.0,15.0,155.0,625.37
625380.0,55.0,64.0,12.0,160.0,625.38
625390.0,54.0,63.0,11.0,173.0,625.39
625400.0,54.0,61.0,11.0,165.0,625.4
625410.0,55.0,61.0,10.0,176.0,625.41
625420.0,55.0,59.0,12.0,169.0,625.42
625430.0,56.0,58.0,10.0,159.0,625.43
625440.0,57.0,58.0,11.0,155.0,625.44
625451.0,57.0,57.0,10.0,143.0,625.451
625461.0,56.0,58.0,13.0,160.0,625.461
625471.0,61.0,54.0,14.0,188.0,625.471
625481.0,60.0,53.0,11.0,206.0,625.481
625491.0,64.0,51.0,12.0,199.0,625.491
625501.0,64.0,51.0,10.0,198.0,625.501
625511.0,64.0,52.0,12.0,186.0,625.511
625521.0,64.0,54.0,16.0,184.0,625.521
625531.0,64.0,55.0,23.0,198.0,625.531
625541.0,66.0,52.0,22.0,194.0,625.541
625551.0,67.0,54.0,22.0,186.0,625.551
625561.0,69.0,52.0,20.0,199.0,625.561
625571.0,67.0,54.0,17.0,196.0,625.571
625581.0,68.0,53.0,17.0,181.0,625.581
625591.0,67.0,53.0,16.0,173.0,625.591
625601.0,66.0,53.0,14.0,180.0,625.601
625611.0,68.0,52.0,14.0,196.0,625.611
625622.0,67.0,53.0,17.0,185.0,625.622
625632.0,67.0,53.0,27.0,163.0,625.632
625642.0,64.0,56.0,47.0,185.0,625.642
625652.0,68.0,64.0,81.0,181.0,625.652
625662.0,78.0,63.0,92.0,179.0,625.662
625672.0,86.0,67.0,112.0,203.0,625.672
625682.0,92.0,66.0,136.0,199.0,625.682
625692.0,98.0,71.0,168.0,207.0,625.692
625702.0,101.0,73.0,181.0,217.0,625.702
625712.0,98.0,76.0,199.0,263.0,625.712
625722.0,103.0,76.0,220.0,270.0,625.722
625732.0,97.0,77.0,219.0,302.0,625.732
625742.0,99.0,77.0,242.0,312.0,625.742
625752.0,97.0,76.0,257.0,300.0,625.752
625762.0,99.0,78.0,261.0,309.0,625.762
625772.0,106.0,78.0,277.0,360.0,625.772
625782.0,107.0,75.0,256.0,395.0,625.782
625792.0,105.0,74.0,243.0,376.0,625.792
625802.0,105.0,72.0,224.0,346.0,625.802
625812.0,101.0,73.0,214.0,329.0,625.812
625822.0,101.0,76.0,205.0,348.0,625.822
625832.0,99.0,76.0,198.0,381.0,625.832
625842.0,105.0,72.0,194.0,370.0,625.842
625852.0,107.0,73.0,180.0,348.0,625.852
625862.0,113.0,69.0,174.0,324.0,625.862
625872.0,109.0,70.0,158.0,309.0,625.872
625882.0,104.0,70.0,170.0,317.0,625.882
625892.0,104.0,70.0,167.0,319.0,625.892
625902.0,102.0,67.0,157.0,303.0,625.902
625912.0,100.0,69.0,161.0,294.0,625.912
625922.0,97.0,69.0,160.0,291.0,625.922
625932.0,94.0,69.0,141.0,276.0,625.932
625942.0,91.0,70.0,152.0,276.0,625.942
625952.0,90.0,70.0,147.0,261.0,625.952
625963.0,91.0,67.0,132.0,255.0,625.963
625973.0,89.0,69.0,126.0,251.0,625.973
625983.0,91.0,75.0,138.0,277.0,625.983
625993.0,91.0,72.0,142.0,283.0,625.993
626003.0,89.0,71.0,132.0,252.0,626.003
626013.0,88.0,71.0,116.0,231.0,626.013
626023.0,87.0,71.0,115.0,208.0,626.023
626033.0,87.0,70.0,105.0,204.0,626.033
626043.0,84.0,71.0,121.0,205.0,626.043
626053.0,83.0,70.0,112.0,198.0,626.053
626063.0,84.0,68.0,106.0,189.0,626.063
626073.0,83.0,66.0,101.0,200.0,626.073
626083.0,84.0,64.0,93.0,210.0,626.083
626093.0,82.0,64.0,93.0,200.0,626.093
626103.0,81.0,64.0,106.0,181.0,626.103
626113.0,82.0,63.0,104.0,167.0,626.113
626123.0,85.0,61.0,99.0,167.0,626.123
626134.0,81.0,59.0,99.0,167.0,626.134
626144.0,80.0,57.0,91.0,166.0,626.144
626154.0,79.0,56.0,86.0,157.0,626.154
626164.0,78.0,56.0,86.0,161.0,626.164
626174.0,77.0,53.0,80.0,162.0,626.174
626184.0,75.0,53.0,89.0,180.0,626.184
626194.0,76.0,52.0,80.0,182.0,626.194
626204.0,76.0,50.0,73.0,180.0,626.204
626214.0,73.0,51.0,85.0,175.0,626.214
626224.0,75.0,49.0,82.0,179.0,626.224
626234.0,74.0,48.0,71.0,177.0,626.234
626244.0,74.0,49.0,74.0,168.0,626.244
626254.0,74.0,50.0,75.0,159.0,626.254
626264.0,73.0,49.0,73.0,158.0,626.264
626274.0,73.0,49.0,80.0,149.0,626.274
626284.0,77.0,49.0,74.0,151.0,626.284
626294.0,77.0,47.0,64.0,145.0,626.294
626304.0,73.0,46.0,63.0,140.0,626.304
626314.0,75.0,44.0,59.0,128.0,626.314
626324.0,73.0,44.0,56.0,155.0,626.324
626334.0,71.0,43.0,53.0,145.0,626.334
626344.0,70.0,43.0,47.0,145.0,626.344
626354.0,68.0,43.0,59.0,142.0,626.354
626364.0,70.0,44.0,56.0,137.0,626.364
626374.0,70.0,42.0,54.0,132.0,626.374
626384.0,69.0,40.0,54.0,137.0,626.384
626394.0,73.0,42.0,57.0,173.0,626.394
626404.0,73.0,42.0,53.0,162.0,626.404
626414.0,73.0,41.0,52.0,149.0,626.414
626424.0,72.0,42.0,55.0,144.0,626.424
626434.0,70.0,41.0,50.0,144.0,626.434
626444.0,70.0,40.0,47.0,153.0,626.444
626454.0,68.0,40.0,62.0,150.0,626.454
626464.0,66.0,40.0,59.0,137.0,626.464
626475.0,65.0,40.0,62.0,132.0,626.475
626485.0,65.0,41.0,62.0,152.0,626.485
626495.0,64.0,41.0,55.0,153.0,626.495
626505.0,64.0,40.0,51.0,147.0,626.505
626515.0,63.0,40.0,50.0,139.0,626.515
626525.0,65.0,40.0,52.0,139.0,626.525
626535.0,67.0,42.0,55.0,140.0,626.535
626545.0,72.0,40.0,52.0,147.0,626.545
626555.0,72.0,42.0,73.0,140.0,626.555
626565.0,71.0,41.0,68.0,132.0,626.565
626575.0,72.0,42.0,63.0,126.0,626.575
626585.0,70.0,44.0,65.0,122.0,626.585
626595.0,69.0,41.0,56.0,128.0,626.595
626605.0,68.0,41.0,50.0,124.0,626.605
626615.0,69.0,41.0,46.0,120.0,626.615
626625.0,68.0,43.0,52.0,121.0,626.625
626635.0,68.0,42.0,48.0,118.0,626.635
626646.0,69.0,43.0,50.0,116.0,626.646
626656.0,67.0,44.0,45.0,112.0,626.656
626666.0,67.0,43.0,40.0,120.0,626.666
626676.0,66.0,42.0,37.0,127.0,626.676
626686.0,66.0,42.0,36.0,133.0,626.686
626696.0,66.0,45.0,38.0,142.0,626.696
626706.0,66.0,44.0,41.0,129.0,626.706
626716.0,70.0,45.0,42.0,117.0,626.716
626726.0,69.0,46.0,43.0,114.0,626.726
626736.0,67.0,44.0,38.0,118.0,626.736
626746.0,65.0,46.0,37.0,125.0,626.746
626756.0,65.0,46.0,47.0,145.0,626.756
626766.0,65.0,45.0,42.0,134.0,626.766
626776.0,64.0,45.0,43.0,137.0,626.776
626786.0,63.0,44.0,39.0,137.0,626.786
626796.0,63.0,45.0,35.0,140.0,626.796
626806.0,62.0,45.0,44.0,132.0,626.806
626816.0,61.0,46.0,46.0,128.0,626.816
626826.0,61.0,46.0,50.0,133.0,626.826
626836.0,60.0,45.0,46.0,126.0,626.836
626846.0,58.0,44.0,43.0,120.0,626.846
626856.0,61.0,43.0,39.0,116.0,626.856
626866.0,59.0,44.0,35.0,135.0,626.866
626876.0,58.0,42.0,35.0,139.0,626.876
626886.0,57.0,42.0,35.0,129.0,626.886
626896.0,58.0,44.0,42.0,122.0,626.896
626906.0,61.0,43.0,38.0,157.0,626.906
626916.0,60.0,43.0,33.0,156.0,626.916
626926.0,60.0,43.0,29.0,146.0,626.926
626936.0,58.0,43.0,32.0,140.0,626.936
626946.0,57.0,44.0,41.0,138.0,626.946
626956.0,58.0,45.0,57.0,134.0,626.956
626966.0,59.0,46.0,61.0,129.0,626.966
626976.0,60.0,46.0,52.0,133.0,626.976
626987.0,60.0,46.0,52.0,124.0,626.987
626997.0,60.0,47.0,47.0,118.0,626.997
627007.0,60.0,49.0,44.0,116.0,627.007
627017.0,59.0,50.0,44.0,122.0,627.017
627027.0,58.0,52.0,41.0,140.0,627.027
627037.0,57.0,55.0,47.0,129.0,627.037
627047.0,56.0,53.0,43.0,127.0,627.047
627057.0,54.0,55.0,43.0,128.0,627.057
627067.0,54.0,57.0,42.0,130.0,627.067
627077.0,53.0,58.0,42.0,135.0,627.077
627087.0,54.0,57.0,39.0,127.0,627.087
627097.0,55.0,59.0,35.0,121.0,627.097
627107.0,55.0,61.0,44.0,119.0,627.107
627117.0,55.0,65.0,44.0,143.0,627.117
627127.0,55.0,64.0,42.0,162.0,627.127
627137.0,56.0,64.0,40.0,165.0,627.137
627147.0,55.0,65.0,34.0,160.0,627.147
627158.0,54.0,64.0,31.0,158.0,627.158
627168.0,53.0,63.0,33.0,165.0,627.168
627178.0,53.0,68.0,32.0,163.0,627.178
627188.0,53.0,65.0,29.0,161.0,627.188
627198.0,51.0,66.0,36.0,170.0,627.198
627208.0,52.0,64.0,35.0,171.0,627.208
627218.0,50.0,64.0,32.0,159.0,627.218
627228.0,50.0,66.0,35.0,142.0,627.228
627238.0,50.0,66.0,32.0,135.0,627.238
627248.0,51.0,65.0,31.0,134.0,627.248
627258.0,52.0,64.0,28.0,134.0,627.258
627268.0,52.0,66.0,41.0,126.0,627.268
627278.0,52.0,64.0,37.0,119.0,627.278
627288.0,53.0,64.0,36.0,122.0,627.288
627298.0,51.0,66.0,35.0,118.0,627.298
627308.0,52.0,65.0,36.0,111.0,627.308
627318.0,51.0,64.0,32.0,112.0,627.318
627328.0,51.0,65.0,33.0,108.0,627.328
627338.0,50.0,66.0,45.0,103.0,627.338
627348.0,54.0,66.0,46.0,107.0,627.348
627358.0,51.0,65.0,45.0,112.0,627.358
627368.0,53.0,64.0,40.0,106.0,627.368
627378.0,53.0,65.0,39.0,110.0,627.378
627388.0,54.0,64.0,36.0,118.0,627.388
627398.0,54.0,63.0,37.0,126.0,627.398
627408.0,54.0,66.0,38.0,126.0,627.408
627418.0,54.0,63.0,34.0,119.0,627.418
627428.0,52.0,64.0,36.0,118.0,627.428
627438.0,53.0,62.0,36.0,124.0,627.438
627448.0,51.0,63.0,33.0,125.0,627.448
627458.0,53.0,61.0,31.0,120.0,627.458
627468.0,53.0,59.0,28.0,131.0,627.468
627478.0,52.0,58.0,25.0,120.0,627.478
627488.0,54.0,57.0,36.0,115.0,627.488
627499.0,54.0,58.0,35.0,116.0,627.499
627509.0,55.0,58.0,37.0,120.0,627.509
627519.0,56.0,59.0,43.0,129.0,627.519
627529.0,59.0,58.0,40.0,131.0,627.529
627539.0,56.0,63.0,44.0,126.0,627.539
627549.0,58.0,60.0,43.0,126.0,627.549
627559.0,57.0,62.0,43.0,131.0,627.559
627569.0,58.0,60.0,39.0,130.0,627.569
627579.0,57.0,60.0,37.0,123.0,627.579
627589.0,57.0,62.0,37.0,118.0,627.589
627599.0,58.0,63.0,34.0,124.0,627.599
627609.0,57.0,64.0,42.0,119.0,627.609
627619.0,60.0,66.0,44.0,123.0,627.619
627629.0,62.0,66.0,39.0,118.0,627.629
627639.0,62.0,66.0,40.0,114.0,627.639
627649.0,61.0,68.0,35.0,119.0,627.649
627659.0,61.0,66.0,33.0,126.0,627.659
627670.0,62.0,67.0,32.0,120.0,627.67
627680.0,64.0,66.0,36.0,122.0,627.68
627690.0,63.0,65.0,35.0,128.0,627.69
627700.0,63.0,66.0,43.0,119.0,627.7
627710.0,62.0,66.0,39.0,121.0,627.71
627720.0,63.0,65.0,37.0,124.0,627.72
627730.0,63.0,65.0,35.0,118.0,627.73
627740.0,63.0,66.0,31.0,117.0,627.74
627750.0,64.0,65.0,30.0,110.0,627.75
627760.0,64.0,64.0,28.0,112.0,627.76
627770.0,63.0,65.0,28.0,119.0,627.77
627780.0,62.0,68.0,42.0,125.0,627.78
627790.0,63.0,65.0,44.0,125.0,627.79
627800.0,64.0,65.0,44.0,118.0,627.8
627810.0,61.0,66.0,46.0,108.0,627.81
627820.0,63.0,67.0,40.0,101.0,627.82
627830.0,61.0,70.0,39.0,107.0,627.83
627840.0,61.0,75.0,49.0,101.0,627.84
627850.0,61.0,74.0,46.0,101.0,627.85
627860.0,61.0,73.0,41.0,97.0,627.86
627870.0,61.0,75.0,38.0,103.0,627.87
627880.0,59.0,75.0,38.0,99.0,627.88
627890.0,59.0,76.0,34.0,99.0,627.89
627900.0,58.0,77.0,29.0,109.0,627.9
627910.0,60.0,75.0,32.0,104.0,627.91
627920.0,59.0,78.0,39.0,108.0,627.92
627930.0,61.0,74.0,36.0,106.0,627.93
627940.0,59.0,75.0,34.0,112.0,627.94
627950.0,61.0,72.0,31.0,107.0,627.95
627960.0,59.0,72.0,31.0,120.0,627.96
627970.0,61.0,69.0,29.0,120.0,627.97
627980.0,61.0,69.0,28.0,111.0,627.98
627990.0,59.0,70.0,40.0,121.0,627.99
628000.0,59.0,67.0,38.0,121.0,628.0
628011.0,58.0,68.0,39.0,113.0,628.011
628021.0,57.0,67.0,39.0,108.0,628.021
628031.0,57.0,67.0,39.0,99.0,628.031
628041.0,56.0,68.0,37.0,97.0,628.041
628051.0,57.0,68.0,33.0,108.0,628.051
628061.0,57.0,68.0,31.0,111.0,628.061
628071.0,58.0,67.0,33.0,112.0,628.071
628081.0,57.0,66.0,33.0,118.0,628.081
628091.0,56.0,65.0,38.0,114.0,628.091
628101.0,56.0,67.0,38.0,118.0,628.101
628111.0,56.0,66.0,43.0,117.0,628.111
628121.0,59.0,61.0,40.0,123.0,628.121
628131.0,60.0,60.0,36.0,119.0,628.131
628141.0,62.0,59.0,37.0,112.0,628.141
628151.0,64.0,58.0,39.0,113.0,628.151
628161.0,64.0,56.0,36.0,114.0,628.161
628171.0,65.0,55.0,39.0,112.0,628.171
628182.0,66.0,53.0,42.0,119.0,628.182
628192.0,67.0,51.0,40.0,119.0,628.192
628202.0,66.0,53.0,44.0,114.0,628.202
628212.0,68.0,51.0,41.0,104.0,628.212
628222.0,68.0,49.0,37.0,103.0,628.222
628232.0,67.0,51.0,34.0,107.0,628.232
628242.0,66.0,50.0,33.0,107.0,628.242
628252.0,66.0,49.0,32.0,97.0,628.252
628262.0,66.0,49.0,30.0,93.0,628.262
628272.0,64.0,50.0,36.0,93.0,628.272
628282.0,66.0,48.0,33.0,88.0,628.282
628292.0,65.0,49.0,29.0,86.0,628.292
628302.0,64.0,50.0,26.0,88.0,628.302
628312.0,64.0,51.0,23.0,84.0,628.312
628322.0,62.0,52.0,23.0,84.0,628.322
628332.0,62.0,54.0,32.0,91.0,628.332
628342.0,60.0,57.0,35.0,93.0,628.342
628352.0,60.0,57.0,39.0,89.0,628.352
628362.0,61.0,56.0,35.0,93.0,628.362
628372.0,60.0,58.0,37.0,91.0,628.372
628382.0,62.0,56.0,37.0,90.0,628.382
628392.0,60.0,56.0,32.0,96.0,628.392
628402.0,61.0,57.0,32.0,95.0,628.402
628412.0,60.0,59.0,46.0,93.0,628.412
628422.0,61.0,54.0,43.0,88.0,628.422
628432.0,60.0,55.0,38.0,88.0,628.432
628442.0,59.0,54.0,39.0,83.0,628.442
628452.0,60.0,53.0,34.0,82.0,628.452
628462.0,58.0,54.0,30.0,78.0,628.462
628472.0,58.0,55.0,31.0,81.0,628.472
628482.0,58.0,55.0,32.0,82.0,628.482
628492.0,57.0,54.0,30.0,78.0,628.492
628502.0,57.0,54.0,27.0,78.0,628.502
628512.0,57.0,54.0,26.0,79.0,628.512
628523.0,58.0,54.0,25.0,101.0,628.523
628533.0,60.0,53.0,21.0,96.0,628.533
628543.0,58.0,55.0,28.0,96.0,628.543
628553.0,59.0,57.0,39.0,95.0,628.553
628563.0,59.0,54.0,37.0,92.0,628.563
628573.0,60.0,54.0,37.0,99.0,628.573
628583.0,60.0,51.0,33.0,103.0,628.583
628593.0,58.0,51.0,31.0,102.0,628.593
628603.0,60.0,50.0,30.0,96.0,628.603
628613.0,60.0,49.0,28.0,102.0,628.613
628623.0,59.0,55.0,41.0,102.0,628.623
628633.0,60.0,52.0,45.0,100.0,628.633
628643.0,61.0,51.0,46.0,101.0,628.643
628653.0,60.0,51.0,46.0,111.0,628.653
628663.0,59.0,51.0,40.0,111.0,628.663
628673.0,59.0,50.0,38.0,110.0,628.673
628683.0,58.0,53.0,44.0,100.0,628.683
628694.0,58.0,53.0,42.0,93.0,628.694
628704.0,58.0,51.0,41.0,86.0,628.704
628714.0,57.0,52.0,36.0,99.0,628.714
628724.0,57.0,52.0,32.0,106.0,628.724
628734.0,57.0,53.0,28.0,108.0,628.734
628744.0,58.0,53.0,26.0,103.0,628.744
628754.0,59.0,53.0,24.0,95.0,628.754
628764.0,58.0,57.0,29.0,100.0,628.764
628774.0,58.0,55.0,27.0,106.0,628.774
628784.0,57.0,57.0,29.0,108.0,628.784
628794.0,58.0,58.0,30.0,109.0,628.794
628804.0,58.0,57.0,26.0,100.0,628.804
628814.0,58.0,56.0,26.0,96.0,628.814
628824.0,57.0,57.0,28.0,105.0,628.824
628834.0,58.0,55.0,32.0,102.0,628.834
628844.0,58.0,56.0,40.0,104.0,628.844
628854.0,59.0,55.0,46.0,102.0,628.854
628864.0,59.0,54.0,43.0,94.0,628.864
628874.0,60.0,51.0,39.0,86.0,628.874
628884.0,58.0,50.0,34.0,80.0,628.884
628894.0,60.0,53.0,33.0,85.0,628.894
628904.0,59.0,55.0,34.0,87.0,628.904
628914.0,60.0,52.0,33.0,91.0,628.914
628924.0,58.0,53.0,35.0,85.0,628.924
628934.0,57.0,51.0,35.0,82.0,628.934
628944.0,56.0,51.0,40.0,80.0,628.944
628954.0,53.0,50.0,36.0,76.0,628.954
628964.0,53.0,49.0,34.0,76.0,628.964
628974.0,52.0,51.0,50.0,77.0,628.974
628984.0,54.0,50.0,59.0,78.0,628.984
628994.0,52.0,49.0,54.0,81.0,628.994
629004.0,53.0,46.0,49.0,84.0,629.004
629014.0,51.0,47.0,44.0,80.0,629.014
629024.0,50.0,47.0,39.0,79.0,629.024
629035.0,49.0,47.0,41.0,125.0,629.035
629045.0,50.0,49.0,44.0,124.0,629.045
629055.0,51.0,48.0,38.0,112.0,629.055
629065.0,50.0,49.0,41.0,111.0,629.065
629075.0,51.0,47.0,37.0,100.0,629.075
629085.0,51.0,47.0,34.0,98.0,629.085
629095.0,50.0,46.0,30.0,96.0,629.095
629105.0,50.0,46.0,31.0,91.0,629.105
629115.0,50.0,48.0,44.0,87.0,629.115
629125.0,49.0,45.0,41.0,85.0,629.125
629135.0,48.0,44.0,36.0,85.0,629.135
629145.0,47.0,45.0,47.0,83.0,629.145
629155.0,48.0,43.0,44.0,79.0,629.155
629165.0,48.0,44.0,39.0,78.0,629.165
629175.0,47.0,45.0,37.0,73.0,629.175
629185.0,47.0,47.0,41.0,73.0,629.185
629195.0,48.0,46.0,39.0,76.0,629.195
629206.0,49.0,45.0,35.0,72.0,629.206
629216.0,49.0,48.0,41.0,68.0,629.216
629226.0,50.0,49.0,42.0,71.0,629.226
629236.0,50.0,48.0,44.0,70.0,629.236
629246.0,51.0,49.0,39.0,69.0,629.246
629256.0,50.0,50.0,34.0,72.0,629.256
629266.0,52.0,51.0,56.0,72.0,629.266
629276.0,53.0,49.0,56.0,76.0,629.276
629286.0,53.0,48.0,50.0,77.0,629.286
629296.0,54.0,46.0,45.0,73.0,629.296
629306.0,53.0,46.0,38.0,74.0,629.306
629316.0,53.0,44.0,35.0,77.0,629.316
629326.0,51.0,44.0,33.0,73.0,629.326
629336.0,52.0,45.0,37.0,71.0,629.336
629346.0,51.0,45.0,53.0,68.0,629.346
629356.0,52.0,45.0,53.0,70.0,629.356
629366.0,53.0,45.0,55.0,83.0,629.366
629376.0,51.0,44.0,53.0,83.0,629.376
629386.0,50.0,43.0,59.0,85.0,629.386
629396.0,49.0,45.0,67.0,88.0,629.396
629406.0,50.0,44.0,59.0,80.0,629.406
629416.0,50.0,43.0,52.0,76.0,629.416
629426.0,49.0,43.0,47.0,73.0,629.426
629436.0,49.0,41.0,41.0,68.0,629.436
629446.0,48.0,40.0,38.0,72.0,629.446
629456.0,48.0,40.0,49.0,70.0,629.456
629466.0,49.0,42.0,51.0,73.0,629.466
629476.0,50.0,44.0,56.0,71.0,629.476
629486.0,50.0,45.0,49.0,72.0,629.486
629496.0,49.0,43.0,44.0,68.0,629.496
629506.0,50.0,42.0,38.0,76.0,629.506
629516.0,49.0,43.0,48.0,73.0,629.516
629526.0,49.0,41.0,47.0,71.0,629.526
629536.0,48.0,40.0,41.0,65.0,629.536
629547.0,48.0,40.0,36.0,62.0,629.547
629557.0,47.0,40.0,33.0,62.0,629.557
629567.0,47.0,42.0,36.0,61.0,629.567
629577.0,47.0,43.0,46.0,59.0,629.577
629587.0,46.0,43.0,44.0,61.0,629.587
629597.0,48.0,42.0,45.0,66.0,629.597
629607.0,46.0,42.0,38.0,66.0,629.607
629617.0,48.0,42.0,36.0,63.0,629.617
629627.0,47.0,42.0,32.0,62.0,629.627
629637.0,47.0,41.0,31.0,62.0,629.637
629647.0,49.0,43.0,39.0,59.0,629.647
629657.0,48.0,44.0,39.0,57.0,629.657
629667.0,48.0,43.0,40.0,59.0,629.667
629677.0,50.0,44.0,38.0,60.0,629.677
629687.0,50.0,44.0,35.0,61.0,629.687
629697.0,50.0,44.0,34.0,58.0,629.697
629707.0,49.0,45.0,40.0,58.0,629.707
629718.0,51.0,45.0,46.0,66.0,629.718
629728.0,52.0,45.0,48.0,78.0,629.728
629738.0,54.0,43.0,42.0,81.0,629.738
629748.0,54.0,42.0,38.0,79.0,629.748
629758.0,55.0,42.0,43.0,76.0,629.758
629768.0,55.0,43.0,40.0,81.0,629.768
629778.0,55.0,43.0,57.0,74.0,629.778
629788.0,56.0,43.0,52.0,73.0,629.788
629798.0,54.0,42.0,52.0,78.0,629.798
629808.0,55.0,41.0,47.0,76.0,629.808
629818.0,55.0,41.0,41.0,76.0,629.818
629828.0,53.0,40.0,40.0,76.0,629.828
629838.0,51.0,40.0,38.0,74.0,629.838
629848.0,51.0,41.0,40.0,74.0,629.848
629858.0,51.0,43.0,46.0,73.0,629.858
629868.0,52.0,44.0,40.0,74.0,629.868
629878.0,51.0,43.0,35.0,78.0,629.878
629888.0,50.0,41.0,33.0,77.0,629.888
629898.0,50.0,40.0,34.0,74.0,629.898
629908.0,50.0,41.0,49.0,70.0,629.908
629918.0,52.0,41.0,46.0,70.0,629.918
629928.0,54.0,40.0,41.0,67.0,629.928
629938.0,54.0,39.0,36.0,62.0,629.938
629948.0,55.0,37.0,32.0,64.0,629.948
629958.0,55.0,41.0,35.0,69.0,629.958
629968.0,56.0,40.0,38.0,64.0,629.968
629978.0,54.0,40.0,44.0,65.0,629.978
629988.0,56.0,41.0,45.0,70.0,629.988
629998.0,58.0,42.0,45.0,70.0,629.998
630008.0,56.0,41.0,38.0,71.0,630.008
630018.0,57.0,40.0,36.0,71.0,630.018
630028.0,56.0,41.0,35.0,72.0,630.028
630038.0,56.0,40.0,34.0,69.0,630.038
630048.0,58.0,41.0,35.0,68.0,630.048
630059.0,58.0,43.0,30.0,66.0,630.059
630069.0,58.0,43.0,40.0,69.0,630.069
630079.0,58.0,46.0,38.0,75.0,630.079
630089.0,58.0,45.0,34.0,74.0,630.089
630099.0,58.0,47.0,35.0,81.0,630.099
630109.0,58.0,47.0,31.0,87.0,630.109
630119.0,60.0,48.0,29.0,101.0,630.119
630129.0,59.0,49.0,26.0,110.0,630.129
630139.0,57.0,48.0,24.0,107.0,630.139
630149.0,56.0,50.0,20.0,101.0,630.149
630159.0,56.0,51.0,37.0,106.0,630.159
630169.0,55.0,53.0,39.0,105.0,630.169
630179.0,54.0,53.0,45.0,113.0,630.179
630189.0,54.0,53.0,41.0,112.0,630.189
630199.0,53.0,54.0,37.0,109.0,630.199
630209.0,53.0,51.0,36.0,142.0,630.209
630219.0,51.0,51.0,31.0,145.0,630.219
630230.0,51.0,51.0,37.0,137.0,630.23
630240.0,53.0,52.0,48.0,130.0,630.24
630250.0,52.0,53.0,45.0,123.0,630.25
630260.0,51.0,52.0,41.0,120.0,630.26
630270.0,51.0,52.0,37.0,113.0,630.27
630280.0,52.0,51.0,38.0,107.0,630.28
630290.0,50.0,50.0,36.0,105.0,630.29
630300.0,51.0,49.0,41.0,101.0,630.3
630310.0,50.0,50.0,38.0,106.0,630.31
630320.0,50.0,49.0,35.0,112.0,630.32
630330.0,48.0,49.0,31.0,115.0,630.33
630340.0,49.0,50.0,40.0,118.0,630.34
630350.0,47.0,50.0,38.0,118.0,630.35
630360.0,48.0,50.0,34.0,124.0,630.36
630370.0,47.0,47.0,31.0,119.0,630.37
630380.0,46.0,48.0,35.0,117.0,630.38
630390.0,46.0,46.0,37.0,108.0,630.39
630400.0,47.0,45.0,36.0,121.0,630.4
630410.0,46.0,46.0,41.0,116.0,630.41
630420.0,47.0,45.0,40.0,110.0,630.42
630430.0,46.0,45.0,36.0,126.0,630.43
630440.0,47.0,45.0,34.0,132.0,630.44
630450.0,48.0,43.0,30.0,121.0,630.45
630460.0,46.0,41.0,27.0,118.0,630.46
630470.0,48.0,44.0,29.0,119.0,630.47
630480.0,48.0,42.0,27.0,110.0,630.48
630490.0,48.0,42.0,34.0,103.0,630.49
630500.0,48.0,43.0,32.0,103.0,630.5
630510.0,50.0,43.0,36.0,127.0,630.51
630520.0,50.0,43.0,32.0,126.0,630.52
630530.0,51.0,42.0,28.0,116.0,630.53
630540.0,49.0,41.0,29.0,119.0,630.54
630550.0,49.0,42.0,39.0,116.0,630.55
630560.0,49.0,42.0,48.0,110.0,630.56
630571.0,48.0,41.0,42.0,110.0,630.571
630581.0,49.0,41.0,40.0,108.0,630.581
630591.0,48.0,41.0,35.0,110.0,630.591
630601.0,48.0,41.0,30.0,110.0,630.601
630611.0,48.0,39.0,27.0,106.0,630.611
630621.0,47.0,39.0,29.0,108.0,630.621
630631.0,48.0,38.0,26.0,107.0,630.631
630641.0,48.0,43.0,26.0,100.0,630.641
630651.0,51.0,42.0,26.0,95.0,630.651
630661.0,50.0,41.0,23.0,99.0,630.661
630671.0,50.0,40.0,23.0,100.0,630.671
630681.0,48.0,41.0,23.0,96.0,630.681
630691.0,48.0,40.0,21.0,92.0,630.691
630701.0,48.0,39.0,23.0,92.0,630.701
630711.0,48.0,38.0,26.0,94.0,630.711
630721.0,48.0,37.0,25.0,99.0,630.721
630731.0,48.0,40.0,30.0,93.0,630.731
630742.0,48.0,38.0,26.0,92.0,630.742
630752.0,48.0,40.0,26.0,91.0,630.752
630762.0,47.0,40.0,24.0,89.0,630.762
630772.0,49.0,41.0,25.0,91.0,630.772
630782.0,48.0,41.0,28.0,96.0,630.782
630792.0,49.0,44.0,36.0,94.0,630.792
630802.0,48.0,45.0,35.0,92.0,630.802
630812.0,47.0,45.0,33.0,96.0,630.812
630822.0,47.0,46.0,29.0,91.0,630.822
630832.0,46.0,46.0,26.0,86.0,630.832
630842.0,47.0,47.0,27.0,93.0,630.842
630852.0,46.0,46.0,23.0,99.0,630.852
630862.0,46.0,47.0,32.0,101.0,630.862
630872.0,46.0,48.0,37.0,99.0,630.872
630882.0,46.0,46.0,38.0,97.0,630.882
630892.0,46.0,45.0,33.0,91.0,630.892
630902.0,47.0,45.0,32.0,85.0,630.902
630912.0,45.0,46.0,29.0,81.0,630.912
630922.0,45.0,45.0,26.0,77.0,630.922
630932.0,45.0,45.0,30.0,77.0,630.932
630942.0,45.0,45.0,26.0,77.0,630.942
630952.0,46.0,44.0,27.0,85.0,630.952
630962.0,46.0,44.0,29.0,96.0,630.962
630972.0,46.0,44.0,34.0,102.0,630.972
630982.0,46.0,42.0,36.0,98.0,630.982
630992.0,44.0,42.0,38.0,94.0,630.992
631002.0,47.0,40.0,36.0,91.0,631.002
631012.0,45.0,39.0,34.0,95.0,631.012
631022.0,45.0,39.0,32.0,108.0,631.022
631032.0,44.0,38.0,37.0,103.0,631.032
631042.0,45.0,40.0,45.0,102.0,631.042
631052.0,45.0,40.0,42.0,102.0,631.052
631062.0,44.0,40.0,36.0,100.0,631.062
631072.0,45.0,40.0,35.0,109.0,631.072
631083.0,45.0,40.0,38.0,110.0,631.083
631093.0,46.0,42.0,36.0,137.0,631.093
631103.0,49.0,44.0,34.0,160.0,631.103
631113.0,49.0,46.0,35.0,164.0,631.113
631123.0,51.0,45.0,38.0,153.0,631.123
631133.0,50.0,45.0,38.0,145.0,631.133
631143.0,51.0,45.0,34.0,137.0,631.143
631153.0,50.0,47.0,34.0,142.0,631.153
631163.0,51.0,46.0,32.0,138.0,631.163
631173.0,51.0,47.0,29.0,131.0,631.173
631183.0,49.0,51.0,47.0,123.0,631.183
631193.0,52.0,49.0,51.0,120.0,631.193
631203.0,50.0,49.0,44.0,125.0,631.203
631213.0,51.0,47.0,40.0,125.0,631.213
631223.0,49.0,47.0,34.0,123.0,631.223
631233.0,49.0,50.0,32.0,118.0,631.233
631243.0,48.0,52.0,39.0,114.0,631.243
631254.0,49.0,51.0,38.0,123.0,631.254
631264.0,49.0,51.0,43.0,122.0,631.264
631274.0,48.0,50.0,37.0,116.0,631.274
631284.0,49.0,49.0,40.0,109.0,631.284
631294.0,48.0,50.0,37.0,108.0,631.294
631304.0,49.0,50.0,46.0,109.0,631.304
631314.0,51.0,47.0,42.0,112.0,631.314
631324.0,50.0,51.0,57.0,106.0,631.324
631334.0,51.0,49.0,51.0,114.0,631.334
631344.0,50.0,50.0,46.0,109.0,631.344
631354.0,51.0,49.0,48.0,105.0,631.354
631364.0,50.0,49.0,43.0,109.0,631.364
631374.0,50.0,48.0,40.0,116.0,631.374
631384.0,51.0,49.0,44.0,115.0,631.384
631394.0,50.0,50.0,41.0,110.0,631.394
631404.0,52.0,48.0,41.0,108.0,631.404
631414.0,50.0,48.0,37.0,106.0,631.414
631424.0,50.0,50.0,46.0,105.0,631.424
631434.0,51.0,51.0,40.0,105.0,631.434
631444.0,51.0,51.0,35.0,107.0,631.444
631454.0,50.0,53.0,38.0,107.0,631.454
631464.0,49.0,52.0,35.0,103.0,631.464
631474.0,48.0,53.0,33.0,102.0,631.474
631484.0,49.0,52.0,33.0,113.0,631.484
631494.0,48.0,53.0,34.0,122.0,631.494
631504.0,50.0,54.0,35.0,117.0,631.504
631514.0,49.0,54.0,31.0,110.0,631.514
631524.0,49.0,55.0,33.0,102.0,631.524
631534.0,49.0,56.0,32.0,99.0,631.534
631544.0,50.0,54.0,38.0,106.0,631.544
631554.0,49.0,56.0,40.0,104.0,631.554
631564.0,50.0,54.0,37.0,102.0,631.564
631574.0,49.0,54.0,34.0,103.0,631.574
631584.0,50.0,53.0,31.0,100.0,631.584
631595.0,51.0,51.0,27.0,99.0,631.595
631605.0,49.0,52.0,37.0,96.0,631.605
631615.0,52.0,50.0,32.0,104.0,631.615
631625.0,51.0,51.0,36.0,100.0,631.625
631635.0,51.0,51.0,32.0,102.0,631.635
631645.0,50.0,52.0,29.0,99.0,631.645
631655.0,50.0,51.0,33.0,95.0,631.655
631665.0,52.0,50.0,29.0,95.0,631.665
631675.0,52.0,54.0,47.0,93.0,631.675
631685.0,53.0,51.0,48.0,92.0,631.685
631695.0,52.0,52.0,41.0,90.0,631.695
631705.0,51.0,54.0,37.0,90.0,631.705
631715.0,51.0,54.0,33.0,98.0,631.715
631725.0,50.0,54.0,29.0,91.0,631.725
631735.0,49.0,55.0,28.0,96.0,631.735
631745.0,49.0,58.0,45.0,101.0,631.745
631755.0,50.0,59.0,42.0,94.0,631.755
631766.0,50.0,59.0,39.0,98.0,631.766
631776.0,50.0,60.0,36.0,101.0,631.776
631786.0,52.0,60.0,32.0,109.0,631.786
631796.0,51.0,60.0,28.0,124.0,631.796
631806.0,52.0,63.0,31.0,119.0,631.806
631816.0,52.0,62.0,41.0,118.0,631.816
631826.0,56.0,59.0,44.0,112.0,631.826
631836.0,54.0,60.0,46.0,118.0,631.836
631846.0,54.0,60.0,45.0,124.0,631.846
631856.0,52.0,61.0,42.0,125.0,631.856
631866.0,51.0,62.0,43.0,117.0,631.866
631876.0,51.0,64.0,43.0,116.0,631.876
631886.0,53.0,64.0,39.0,111.0,631.886
631896.0,54.0,64.0,46.0,109.0,631.896
631906.0,52.0,65.0,40.0,110.0,631.906
631916.0,51.0,65.0,37.0,105.0,631.916
631926.0,52.0,64.0,39.0,109.0,631.926
631936.0,53.0,65.0,35.0,110.0,631.936
631946.0,54.0,62.0,41.0,117.0,631.946
631956.0,53.0,63.0,40.0,126.0,631.956
631966.0,57.0,61.0,38.0,132.0,631.966
631976.0,56.0,62.0,34.0,123.0,631.976
631986.0,56.0,62.0,31.0,116.0,631.986
631996.0,59.0,63.0,28.0,131.0,631.996
632006.0,58.0,64.0,31.0,127.0,632.006
632016.0,59.0,64.0,46.0,124.0,632.016
632026.0,61.0,62.0,44.0,123.0,632.026
632036.0,64.0,62.0,40.0,118.0,632.036
632046.0,63.0,61.0,35.0,111.0,632.046
632056.0,63.0,58.0,35.0,115.0,632.056
632066.0,63.0,60.0,35.0,115.0,632.066
632076.0,62.0,60.0,36.0,121.0,632.076
632086.0,62.0,58.0,38.0,117.0,632.086
632096.0,62.0,57.0,35.0,108.0,632.096
632107.0,62.0,58.0,34.0,105.0,632.107
632117.0,60.0,57.0,33.0,103.0,632.117
632127.0,59.0,56.0,30.0,103.0,632.127
632137.0,59.0,57.0,36.0,109.0,632.137
632147.0,57.0,56.0,37.0,108.0,632.147
632157.0,57.0,54.0,33.0,103.0,632.157
632167.0,56.0,57.0,39.0,92.0,632.167
632177.0,56.0,56.0,44.0,95.0,632.177
632187.0,54.0,55.0,38.0,112.0,632.187
632197.0,54.0,56.0,35.0,113.0,632.197
632207.0,55.0,57.0,33.0,117.0,632.207
632217.0,55.0,57.0,40.0,112.0,632.217
632227.0,57.0,57.0,39.0,106.0,632.227
632237.0,57.0,58.0,40.0,108.0,632.237
632247.0,59.0,58.0,36.0,106.0,632.247
632257.0,60.0,59.0,31.0,108.0,632.257
632267.0,60.0,59.0,30.0,109.0,632.267
632278.0,61.0,59.0,29.0,110.0,632.278
632288.0,59.0,60.0,28.0,112.0,632.288
632298.0,60.0,59.0,38.0,108.0,632.298
632308.0,61.0,56.0,36.0,107.0,632.308
632318.0,60.0,54.0,34.0,104.0,632.318
632328.0,58.0,54.0,32.0,101.0,632.328
632338.0,59.0,55.0,41.0,107.0,632.338
632348.0,57.0,55.0,38.0,105.0,632.348
632358.0,57.0,54.0,40.0,107.0,632.358
632368.0,57.0,56.0,45.0,103.0,632.368
632378.0,56.0,54.0,39.0,101.0,632.378
632388.0,56.0,52.0,34.0,94.0,632.388
632398.0,55.0,52.0,32.0,89.0,632.398
632408.0,56.0,52.0,30.0,105.0,632.408
632418.0,55.0,51.0,27.0,112.0,632.418
632428.0,55.0,49.0,29.0,115.0,632.428
632438.0,54.0,50.0,41.0,119.0,632.438
632448.0,56.0,49.0,41.0,112.0,632.448
632458.0,55.0,48.0,37.0,106.0,632.458
632468.0,54.0,48.0,34.0,98.0,632.468
632478.0,53.0,49.0,34.0,91.0,632.478
632488.0,52.0,48.0,37.0,91.0,632.488
632498.0,54.0,48.0,41.0,86.0,632.498
632508.0,54.0,46.0,38.0,86.0,632.508
632518.0,53.0,47.0,41.0,88.0,632.518
632528.0,54.0,46.0,41.0,94.0,632.528
632538.0,53.0,45.0,37.0,103.0,632.538
632548.0,55.0,44.0,32.0,101.0,632.548
632558.0,54.0,44.0,30.0,95.0,632.558
632568.0,53.0,46.0,27.0,101.0,632.568
632578.0,54.0,46.0,25.0,107.0,632.578
632588.0,52.0,46.0,23.0,105.0,632.588
632598.0,53.0,47.0,24.0,99.0,632.598
632608.0,52.0,46.0,22.0,99.0,632.608
632619.0,52.0,46.0,21.0,96.0,632.619
632629.0,54.0,47.0,28.0,98.0,632.629
632639.0,55.0,46.0,26.0,102.0,632.639
632649.0,57.0,45.0,26.0,100.0,632.649
