time (ms),signal 0,signal 1,signal 2,signal3,time (sec)
670985.0,52.0,75.0,10.0,57.0,670.985
670995.0,54.0,75.0,11.0,64.0,670.995
671005.0,54.0,74.0,11.0,66.0,671.005
671015.0,52.0,73.0,8.0,65.0,671.015
671025.0,53.0,72.0,10.0,61.0,671.025
671035.0,51.0,72.0,11.0,67.0,671.035
671045.0,51.0,70.0,10.0,62.0,671.045
671055.0,51.0,69.0,11.0,63.0,671.055
671065.0,49.0,68.0,11.0,70.0,671.065
671075.0,51.0,66.0,11.0,72.0,671.075
671085.0,49.0,65.0,10.0,67.0,671.085
671095.0,48.0,64.0,10.0,71.0,671.095
671105.0,47.0,63.0,8.0,69.0,671.105
671115.0,46.0,62.0,8.0,65.0,671.115
671125.0,46.0,63.0,8.0,72.0,671.125
671135.0,45.0,63.0,7.0,73.0,671.135
671145.0,44.0,63.0,7.0,70.0,671.145
671155.0,44.0,65.0,7.0,74.0,671.155
671165.0,45.0,65.0,6.0,76.0,671.165
671175.0,46.0,65.0,6.0,71.0,671.175
671185.0,46.0,67.0,7.0,82.0,671.185
671195.0,48.0,66.0,8.0,83.0,671.195
671205.0,49.0,65.0,7.0,78.0,671.205
671215.0,50.0,64.0,8.0,73.0,671.215
671225.0,50.0,62.0,6.0,72.0,671.225
671235.0,48.0,61.0,7.0,68.0,671.235
671245.0,48.0,60.0,7.0,74.0,671.245
671255.0,48.0,59.0,6.0,72.0,671.255
671265.0,50.0,58.0,6.0,74.0,671.265
671275.0,49.0,57.0,5.0,70.0,671.275
671285.0,50.0,58.0,6.0,66.0,671.285
671295.0,48.0,58.0,6.0,62.0,671.295
671305.0,48.0,58.0,5.0,59.0,671.305
671315.0,49.0,61.0,5.0,58.0,671.315
671325.0,49.0,60.0,5.0,54.0,671.325
671335.0,48.0,60.0,5.0,55.0,671.335
671345.0,48.0,60.0,5.0,53.0,671.345
671355.0,49.0,61.0,7.0,55.0,671.355
671365.0,48.0,59.0,7.0,55.0,671.365
671375.0,47.0,59.0,6.0,57.0,671.375
671385.0,47.0,60.0,7.0,67.0,671.385
671395.0,46.0,60.0,8.0,67.0,671.395
671405.0,46.0,56.0,8.0,68.0,671.405
671415.0,45.0,58.0,8.0,68.0,671.415
671425.0,46.0,56.0,13.0,67.0,671.425
671435.0,44.0,54.0,10.0,68.0,671.435
671446.0,45.0,52.0,10.0,71.0,671.446
671456.0,45.0,51.0,9.0,71.0,671.456
671466.0,43.0,50.0,8.0,70.0,671.466
671476.0,44.0,50.0,8.0,75.0,671.476
671486.0,44.0,48.0,8.0,76.0,671.486
671496.0,44.0,47.0,9.0,70.0,671.496
671506.0,44.0,46.0,10.0,73.0,671.506
671516.0,44.0,44.0,11.0,72.0,671.516
671526.0,44.0,41.0,10.0,68.0,671.526
671536.0,43.0,41.0,9.0,68.0,671.536
671546.0,44.0,39.0,8.0,77.0,671.546
671556.0,45.0,40.0,8.0,78.0,671.556
671566.0,46.0,40.0,11.0,80.0,671.566
671576.0,46.0,40.0,9.0,86.0,671.576
671586.0,48.0,39.0,9.0,88.0,671.586
671596.0,47.0,39.0,8.0,87.0,671.596
671606.0,46.0,37.0,7.0,80.0,671.606
671616.0,47.0,36.0,6.0,76.0,671.616
671626.0,45.0,37.0,7.0,72.0,671.626
671636.0,47.0,37.0,10.0,73.0,671.636
671646.0,45.0,37.0,12.0,78.0,671.646
671656.0,45.0,36.0,11.0,81.0,671.656
671666.0,45.0,36.0,10.0,80.0,671.666
671676.0,44.0,37.0,10.0,74.0,671.676
671686.0,44.0,36.0,9.0,76.0,671.686
671696.0,45.0,37.0,9.0,83.0,671.696
671706.0,45.0,37.0,11.0,86.0,671.706
671716.0,44.0,36.0,7.0,82.0,671.716
671726.0,44.0,37.0,7.0,97.0,671.726
671736.0,43.0,37.0,7.0,91.0,671.736
671746.0,43.0,40.0,10.0,95.0,671.746
671756.0,44.0,42.0,13.0,95.0,671.756
671766.0,44.0,42.0,11.0,91.0,671.766
671776.0,46.0,43.0,26.0,108.0,671.776
671787.0,45.0,43.0,22.0,111.0,671.787
671797.0,46.0,51.0,21.0,110.0,671.797
671807.0,46.0,52.0,20.0,113.0,671.807
671817.0,46.0,51.0,19.0,110.0,671.817
671827.0,46.0,58.0,24.0,109.0,671.827
671837.0,47.0,63.0,24.0,108.0,671.837
671847.0,48.0,78.0,32.0,101.0,671.847
671857.0,53.0,82.0,33.0,95.0,671.857
671867.0,54.0,85.0,39.0,120.0,671.867
671877.0,60.0,104.0,43.0,129.0,671.877
671887.0,66.0,133.0,68.0,138.0,671.887
671897.0,71.0,146.0,72.0,184.0,671.897
671907.0,79.0,141.0,69.0,191.0,671.907
671917.0,81.0,154.0,74.0,183.0,671.917
671927.0,80.0,162.0,78.0,187.0,671.927
671937.0,84.0,156.0,75.0,187.0,671.937
671947.0,80.0,145.0,68.0,180.0,671.947
671958.0,75.0,139.0,60.0,166.0,671.958
671968.0,73.0,128.0,55.0,152.0,671.968
671978.0,70.0,118.0,47.0,138.0,671.978
671988.0,76.0,119.0,47.0,135.0,671.988
671998.0,72.0,109.0,50.0,132.0,671.998
672008.0,70.0,107.0,61.0,126.0,672.008
672018.0,70.0,100.0,54.0,132.0,672.018
672028.0,66.0,94.0,48.0,124.0,672.028
672038.0,64.0,91.0,44.0,131.0,672.038
672048.0,62.0,85.0,40.0,134.0,672.048
672058.0,66.0,95.0,37.0,126.0,672.058
672068.0,64.0,97.0,33.0,130.0,672.068
672078.0,65.0,95.0,33.0,129.0,672.078
672088.0,66.0,95.0,31.0,127.0,672.088
672098.0,70.0,103.0,28.0,125.0,672.098
672108.0,68.0,97.0,27.0,133.0,672.108
672118.0,67.0,99.0,31.0,146.0,672.118
672128.0,64.0,90.0,32.0,148.0,672.128
672138.0,66.0,100.0,27.0,148.0,672.138
672148.0,64.0,96.0,25.0,150.0,672.148
672158.0,62.0,91.0,24.0,148.0,672.158
672168.0,61.0,93.0,21.0,134.0,672.168
672178.0,63.0,98.0,26.0,126.0,672.178
672188.0,61.0,95.0,38.0,126.0,672.188
672198.0,61.0,97.0,57.0,119.0,672.198
672208.0,59.0,94.0,56.0,122.0,672.208
672218.0,57.0,94.0,51.0,119.0,672.218
672228.0,56.0,97.0,47.0,114.0,672.228
672238.0,54.0,98.0,42.0,105.0,672.238
672248.0,55.0,100.0,40.0,105.0,672.248
672258.0,53.0,101.0,40.0,108.0,672.258
672268.0,54.0,100.0,42.0,112.0,672.268
672278.0,54.0,103.0,39.0,106.0,672.278
672288.0,57.0,104.0,50.0,107.0,672.288
672299.0,55.0,103.0,51.0,111.0,672.299
672309.0,54.0,105.0,45.0,105.0,672.309
672319.0,52.0,103.0,40.0,102.0,672.319
672329.0,52.0,109.0,39.0,103.0,672.329
672339.0,52.0,109.0,46.0,101.0,672.339
672349.0,50.0,108.0,39.0,103.0,672.349
672359.0,50.0,108.0,36.0,99.0,672.359
672369.0,50.0,109.0,40.0,95.0,672.369
672379.0,49.0,109.0,37.0,97.0,672.379
672389.0,49.0,108.0,34.0,102.0,672.389
672399.0,47.0,107.0,29.0,93.0,672.399
672409.0,47.0,109.0,26.0,98.0,672.409
672419.0,48.0,112.0,26.0,95.0,672.419
672429.0,48.0,112.0,29.0,92.0,672.429
672439.0,49.0,111.0,26.0,92.0,672.439
672449.0,48.0,112.0,25.0,90.0,672.449
672459.0,49.0,111.0,28.0,92.0,672.459
672470.0,48.0,114.0,37.0,87.0,672.47
672480.0,51.0,110.0,38.0,95.0,672.48
672490.0,50.0,109.0,32.0,95.0,672.49
672500.0,50.0,107.0,31.0,89.0,672.5
672510.0,48.0,107.0,27.0,90.0,672.51
672520.0,47.0,106.0,23.0,88.0,672.52
672530.0,47.0,105.0,21.0,83.0,672.53
672540.0,45.0,107.0,19.0,83.0,672.54
672550.0,46.0,106.0,19.0,82.0,672.55
672560.0,45.0,107.0,21.0,80.0,672.56
672570.0,45.0,109.0,29.0,83.0,672.57
672580.0,46.0,107.0,28.0,80.0,672.58
672590.0,46.0,107.0,25.0,74.0,672.59
672600.0,46.0,106.0,23.0,79.0,672.6
672610.0,47.0,104.0,21.0,83.0,672.61
672620.0,47.0,101.0,20.0,80.0,672.62
672630.0,45.0,104.0,19.0,76.0,672.63
672640.0,46.0,105.0,20.0,72.0,672.64
672650.0,47.0,105.0,20.0,70.0,672.65
672660.0,46.0,106.0,22.0,71.0,672.66
672670.0,48.0,102.0,29.0,69.0,672.67
672680.0,47.0,104.0,27.0,71.0,672.68
672690.0,49.0,102.0,25.0,69.0,672.69
672700.0,50.0,104.0,24.0,73.0,672.7
672710.0,50.0,105.0,24.0,71.0,672.71
672720.0,51.0,103.0,21.0,70.0,672.72
672730.0,53.0,99.0,19.0,68.0,672.73
672740.0,52.0,98.0,19.0,64.0,672.74
672750.0,51.0,98.0,22.0,63.0,672.75
672760.0,53.0,96.0,32.0,71.0,672.76
672770.0,52.0,95.0,27.0,66.0,672.77
672780.0,50.0,94.0,23.0,63.0,672.78
672790.0,51.0,92.0,21.0,60.0,672.79
672800.0,50.0,94.0,19.0,58.0,672.8
672811.0,49.0,94.0,17.0,54.0,672.811
672821.0,47.0,94.0,16.0,62.0,672.821
672831.0,47.0,93.0,16.0,64.0,672.831
672841.0,48.0,94.0,16.0,65.0,672.841
672851.0,47.0,94.0,15.0,61.0,672.851
672861.0,48.0,93.0,14.0,59.0,672.861
672871.0,47.0,95.0,19.0,57.0,672.871
672881.0,48.0,94.0,17.0,55.0,672.881
672891.0,48.0,95.0,17.0,53.0,672.891
672901.0,48.0,94.0,17.0,50.0,672.901
672911.0,47.0,92.0,14.0,46.0,672.911
672921.0,47.0,92.0,14.0,45.0,672.921
672931.0,47.0,90.0,12.0,44.0,672.931
672941.0,47.0,91.0,11.0,41.0,672.941
672951.0,47.0,87.0,11.0,43.0,672.951
672961.0,46.0,85.0,9.0,41.0,672.961
672971.0,47.0,85.0,13.0,43.0,672.971
672982.0,44.0,83.0,8.0,41.0,672.982
672992.0,44.0,82.0,9.0,39.0,672.992
673002.0,44.0,84.0,15.0,41.0,673.002
673012.0,43.0,82.0,13.0,38.0,673.012
673022.0,43.0,82.0,12.0,38.0,673.022
673032.0,41.0,81.0,11.0,37.0,673.032
673042.0,43.0,81.0,11.0,37.0,673.042
673052.0,42.0,82.0,16.0,37.0,673.052
673062.0,43.0,79.0,14.0,37.0,673.062
673072.0,44.0,80.0,17.0,42.0,673.072
673082.0,47.0,84.0,24.0,44.0,673.082
673092.0,48.0,82.0,27.0,54.0,673.092
673102.0,47.0,82.0,23.0,59.0,673.102
673112.0,47.0,81.0,21.0,58.0,673.112
673122.0,47.0,82.0,20.0,59.0,673.122
673132.0,50.0,88.0,42.0,84.0,673.132
673142.0,56.0,94.0,66.0,90.0,673.142
673152.0,56.0,99.0,79.0,152.0,673.152
673162.0,69.0,106.0,149.0,206.0,673.162
673172.0,75.0,117.0,165.0,221.0,673.172
673182.0,100.0,119.0,218.0,324.0,673.182
673192.0,104.0,113.0,244.0,396.0,673.192
673202.0,108.0,110.0,250.0,418.0,673.202
673212.0,110.0,109.0,275.0,433.0,673.212
673222.0,107.0,110.0,311.0,479.0,673.222
673232.0,114.0,104.0,297.0,537.0,673.232
673242.0,109.0,99.0,274.0,516.0,673.242
673252.0,113.0,95.0,249.0,485.0,673.252
673262.0,117.0,96.0,237.0,476.0,673.262
673272.0,117.0,96.0,235.0,493.0,673.272
673282.0,121.0,98.0,228.0,464.0,673.282
673292.0,116.0,99.0,218.0,453.0,673.292
673302.0,121.0,92.0,197.0,433.0,673.302
673312.0,122.0,96.0,195.0,435.0,673.312
673323.0,129.0,92.0,181.0,409.0,673.323
673333.0,132.0,90.0,160.0,405.0,673.333
673343.0,130.0,96.0,151.0,394.0,673.343
673353.0,133.0,95.0,146.0,383.0,673.353
673363.0,136.0,92.0,131.0,359.0,673.363
673373.0,137.0,90.0,125.0,332.0,673.373
673383.0,137.0,93.0,111.0,308.0,673.383
673393.0,138.0,93.0,105.0,287.0,673.393
673403.0,135.0,95.0,105.0,287.0,673.403
673413.0,135.0,95.0,99.0,270.0,673.413
673423.0,135.0,99.0,102.0,278.0,673.423
673433.0,134.0,96.0,104.0,269.0,673.433
673443.0,133.0,98.0,94.0,246.0,673.443
673453.0,138.0,96.0,92.0,238.0,673.453
673463.0,137.0,96.0,83.0,221.0,673.463
673473.0,135.0,95.0,78.0,250.0,673.473
673483.0,132.0,95.0,100.0,233.0,673.483
673494.0,131.0,94.0,110.0,246.0,673.494
673504.0,130.0,91.0,103.0,239.0,673.504
673514.0,127.0,90.0,97.0,239.0,673.514
673524.0,123.0,88.0,93.0,227.0,673.524
673534.0,120.0,85.0,88.0,219.0,673.534
673544.0,116.0,84.0,96.0,206.0,673.544
673554.0,114.0,84.0,91.0,199.0,673.554
673564.0,111.0,81.0,88.0,200.0,673.564
673574.0,110.0,80.0,102.0,197.0,673.574
673584.0,111.0,77.0,90.0,188.0,673.584
673594.0,105.0,76.0,85.0,173.0,673.594
673604.0,109.0,73.0,81.0,159.0,673.604
673614.0,108.0,72.0,80.0,156.0,673.614
673624.0,106.0,71.0,79.0,144.0,673.624
673634.0,106.0,69.0,84.0,140.0,673.634
673644.0,105.0,71.0,83.0,146.0,673.644
673654.0,105.0,69.0,76.0,143.0,673.654
673664.0,104.0,66.0,67.0,139.0,673.664
673674.0,102.0,68.0,74.0,131.0,673.674
673684.0,100.0,67.0,72.0,127.0,673.684
673694.0,100.0,65.0,66.0,136.0,673.694
673704.0,99.0,64.0,69.0,136.0,673.704
673714.0,95.0,63.0,69.0,130.0,673.714
673724.0,93.0,61.0,63.0,129.0,673.724
673734.0,89.0,60.0,65.0,134.0,673.734
673744.0,88.0,58.0,66.0,146.0,673.744
673754.0,94.0,62.0,79.0,141.0,673.754
673764.0,93.0,59.0,74.0,139.0,673.764
673774.0,93.0,58.0,65.0,151.0,673.774
673784.0,90.0,57.0,58.0,147.0,673.784
673794.0,88.0,55.0,63.0,141.0,673.794
673804.0,85.0,56.0,61.0,153.0,673.804
673814.0,83.0,54.0,56.0,147.0,673.814
673824.0,79.0,54.0,57.0,144.0,673.824
673835.0,80.0,53.0,63.0,131.0,673.835
673845.0,80.0,51.0,57.0,129.0,673.845
673855.0,78.0,53.0,53.0,131.0,673.855
673865.0,77.0,53.0,52.0,125.0,673.865
673875.0,77.0,54.0,45.0,130.0,673.875
673885.0,80.0,55.0,42.0,128.0,673.885
673895.0,79.0,54.0,45.0,121.0,673.895
673905.0,78.0,51.0,39.0,131.0,673.905
673915.0,75.0,51.0,36.0,139.0,673.915
673925.0,73.0,50.0,41.0,137.0,673.925
673935.0,73.0,49.0,50.0,137.0,673.935
673945.0,73.0,48.0,43.0,127.0,673.945
673955.0,71.0,48.0,43.0,119.0,673.955
673965.0,69.0,50.0,52.0,135.0,673.965
673975.0,68.0,49.0,55.0,131.0,673.975
673985.0,67.0,47.0,48.0,130.0,673.985
673995.0,67.0,47.0,42.0,123.0,673.995
674006.0,64.0,46.0,39.0,122.0,674.006
674016.0,64.0,49.0,48.0,126.0,674.016
674026.0,66.0,47.0,51.0,126.0,674.026
674036.0,65.0,46.0,45.0,134.0,674.036
674046.0,63.0,45.0,50.0,129.0,674.046
674056.0,63.0,45.0,45.0,122.0,674.056
674066.0,62.0,44.0,40.0,120.0,674.066
674076.0,64.0,42.0,35.0,110.0,674.076
674086.0,62.0,42.0,33.0,104.0,674.086
674096.0,62.0,40.0,29.0,96.0,674.096
674106.0,60.0,41.0,36.0,108.0,674.106
674116.0,59.0,41.0,32.0,99.0,674.116
674126.0,60.0,41.0,29.0,110.0,674.126
674136.0,59.0,45.0,47.0,107.0,674.136
674146.0,60.0,43.0,48.0,112.0,674.146
674156.0,61.0,42.0,45.0,104.0,674.156
674166.0,61.0,42.0,51.0,96.0,674.166
674176.0,60.0,43.0,48.0,92.0,674.176
674186.0,58.0,42.0,43.0,82.0,674.186
674196.0,60.0,41.0,37.0,82.0,674.196
674206.0,64.0,40.0,33.0,93.0,674.206
674216.0,62.0,39.0,30.0,94.0,674.216
674226.0,60.0,43.0,35.0,96.0,674.226
674236.0,60.0,42.0,55.0,99.0,674.236
674246.0,60.0,42.0,54.0,95.0,674.246
674256.0,60.0,42.0,48.0,86.0,674.256
674266.0,60.0,41.0,43.0,79.0,674.266
674276.0,59.0,41.0,37.0,82.0,674.276
674286.0,60.0,40.0,33.0,89.0,674.286
674296.0,57.0,41.0,36.0,98.0,674.296
674306.0,57.0,41.0,39.0,102.0,674.306
674316.0,58.0,39.0,34.0,100.0,674.316
674326.0,58.0,39.0,30.0,96.0,674.326
674336.0,58.0,41.0,32.0,94.0,674.336
674347.0,57.0,41.0,31.0,97.0,674.347
674357.0,57.0,40.0,28.0,94.0,674.357
674367.0,56.0,42.0,36.0,94.0,674.367
674377.0,55.0,42.0,43.0,88.0,674.377
674387.0,54.0,40.0,38.0,93.0,674.387
674397.0,52.0,40.0,35.0,98.0,674.397
674407.0,52.0,41.0,34.0,101.0,674.407
674417.0,52.0,41.0,30.0,101.0,674.417
674427.0,54.0,39.0,27.0,100.0,674.427
674437.0,54.0,39.0,26.0,99.0,674.437
674447.0,53.0,39.0,26.0,94.0,674.447
674457.0,50.0,39.0,34.0,88.0,674.457
674467.0,48.0,39.0,36.0,91.0,674.467
674477.0,49.0,38.0,33.0,84.0,674.477
674487.0,48.0,40.0,31.0,85.0,674.487
674497.0,49.0,39.0,32.0,82.0,674.497
674507.0,49.0,39.0,29.0,83.0,674.507
674518.0,49.0,41.0,28.0,85.0,674.518
674528.0,49.0,41.0,28.0,81.0,674.528
674538.0,48.0,41.0,25.0,80.0,674.538
674548.0,49.0,41.0,25.0,81.0,674.548
674558.0,50.0,44.0,32.0,83.0,674.558
674568.0,50.0,42.0,34.0,78.0,674.568
674578.0,52.0,42.0,30.0,75.0,674.578
674588.0,52.0,41.0,29.0,69.0,674.588
674598.0,52.0,41.0,26.0,69.0,674.598
674608.0,53.0,41.0,24.0,73.0,674.608
674618.0,55.0,41.0,21.0,75.0,674.618
674628.0,56.0,41.0,25.0,78.0,674.628
674638.0,56.0,39.0,23.0,78.0,674.638
674648.0,56.0,41.0,29.0,76.0,674.648
674658.0,54.0,41.0,30.0,73.0,674.658
674668.0,54.0,39.0,26.0,68.0,674.668
674678.0,53.0,39.0,23.0,65.0,674.678
674688.0,51.0,39.0,22.0,77.0,674.688
674698.0,51.0,39.0,19.0,78.0,674.698
674708.0,51.0,36.0,17.0,76.0,674.708
674718.0,50.0,38.0,16.0,76.0,674.718
674728.0,50.0,38.0,20.0,75.0,674.728
674738.0,52.0,43.0,26.0,73.0,674.738
674748.0,50.0,42.0,23.0,72.0,674.748
674758.0,50.0,41.0,22.0,70.0,674.758
674768.0,49.0,43.0,21.0,69.0,674.768
674778.0,48.0,41.0,22.0,72.0,674.778
674788.0,49.0,41.0,20.0,70.0,674.788
674798.0,47.0,41.0,18.0,73.0,674.798
674808.0,48.0,40.0,19.0,73.0,674.808
674818.0,48.0,40.0,20.0,70.0,674.818
674828.0,47.0,39.0,18.0,73.0,674.828
674838.0,48.0,40.0,17.0,70.0,674.838
674848.0,48.0,42.0,28.0,66.0,674.848
674859.0,48.0,41.0,26.0,72.0,674.859
674869.0,47.0,41.0,25.0,83.0,674.869
674879.0,47.0,41.0,22.0,79.0,674.879
674889.0,46.0,42.0,22.0,74.0,674.889
674899.0,47.0,44.0,23.0,73.0,674.899
674909.0,47.0,44.0,24.0,71.0,674.909
674919.0,47.0,44.0,21.0,74.0,674.919
674929.0,48.0,46.0,29.0,74.0,674.929
674939.0,49.0,47.0,30.0,73.0,674.939
674949.0,49.0,47.0,26.0,74.0,674.949
674959.0,48.0,49.0,23.0,70.0,674.959
674969.0,51.0,49.0,27.0,75.0,674.969
674979.0,51.0,53.0,37.0,77.0,674.979
674989.0,51.0,53.0,33.0,79.0,674.989
674999.0,49.0,55.0,29.0,74.0,674.999
675009.0,49.0,57.0,28.0,71.0,675.009
675019.0,49.0,59.0,24.0,69.0,675.019
675030.0,49.0,62.0,25.0,66.0,675.03
675040.0,48.0,65.0,23.0,69.0,675.04
675050.0,48.0,66.0,21.0,76.0,675.05
675060.0,49.0,66.0,19.0,76.0,675.06
675070.0,49.0,66.0,21.0,72.0,675.07
675080.0,49.0,66.0,20.0,76.0,675.08
675090.0,49.0,69.0,20.0,71.0,675.09
675100.0,50.0,70.0,18.0,71.0,675.1
675110.0,48.0,70.0,17.0,70.0,675.11
675120.0,50.0,69.0,24.0,73.0,675.12
675130.0,50.0,71.0,22.0,74.0,675.13
675140.0,51.0,72.0,29.0,73.0,675.14
675150.0,51.0,74.0,25.0,68.0,675.15
675160.0,50.0,74.0,29.0,64.0,675.16
675170.0,51.0,75.0,28.0,65.0,675.17
675180.0,50.0,76.0,25.0,63.0,675.18
675190.0,50.0,76.0,23.0,62.0,675.19
675200.0,50.0,75.0,21.0,73.0,675.2
675210.0,51.0,73.0,24.0,71.0,675.21
675220.0,52.0,75.0,25.0,71.0,675.22
675230.0,52.0,75.0,21.0,66.0,675.23
675240.0,52.0,75.0,23.0,69.0,675.24
675250.0,52.0,73.0,24.0,67.0,675.25
675260.0,53.0,73.0,25.0,68.0,675.26
675270.0,52.0,70.0,22.0,64.0,675.27
675280.0,52.0,68.0,20.0,66.0,675.28
675290.0,52.0,66.0,20.0,67.0,675.29
675300.0,52.0,65.0,17.0,69.0,675.3
675310.0,52.0,65.0,22.0,71.0,675.31
675320.0,52.0,64.0,30.0,89.0,675.32
675330.0,53.0,64.0,34.0,96.0,675.33
675340.0,53.0,62.0,32.0,94.0,675.34
675350.0,53.0,62.0,28.0,89.0,675.35
675360.0,53.0,60.0,28.0,89.0,675.36
675371.0,54.0,59.0,24.0,84.0,675.371
675381.0,52.0,60.0,21.0,80.0,675.381
675391.0,51.0,58.0,24.0,79.0,675.391
675401.0,51.0,58.0,25.0,79.0,675.401
675411.0,51.0,58.0,29.0,80.0,675.411
675421.0,51.0,58.0,26.0,78.0,675.421
675431.0,51.0,54.0,24.0,81.0,675.431
675441.0,49.0,54.0,24.0,81.0,675.441
675451.0,48.0,52.0,22.0,77.0,675.451
675461.0,48.0,49.0,23.0,77.0,675.461
675471.0,49.0,50.0,19.0,75.0,675.471
675481.0,49.0,50.0,18.0,79.0,675.481
675491.0,48.0,49.0,17.0,87.0,675.491
675501.0,49.0,48.0,15.0,82.0,675.501
675511.0,50.0,48.0,22.0,82.0,675.511
675521.0,49.0,47.0,23.0,82.0,675.521
675531.0,52.0,48.0,31.0,86.0,675.531
675542.0,53.0,48.0,30.0,83.0,675.542
675552.0,53.0,46.0,27.0,82.0,675.552
675562.0,53.0,45.0,24.0,79.0,675.562
675572.0,55.0,45.0,26.0,76.0,675.572
675582.0,56.0,45.0,24.0,79.0,675.582
675592.0,55.0,46.0,28.0,88.0,675.592
675602.0,53.0,44.0,24.0,83.0,675.602
675612.0,52.0,45.0,21.0,79.0,675.612
675622.0,51.0,44.0,19.0,79.0,675.622
675632.0,49.0,43.0,18.0,75.0,675.632
675642.0,49.0,42.0,17.0,70.0,675.642
675652.0,50.0,44.0,15.0,65.0,675.652
675662.0,50.0,45.0,27.0,62.0,675.662
675672.0,50.0,43.0,24.0,60.0,675.672
675682.0,50.0,44.0,22.0,69.0,675.682
675692.0,49.0,43.0,22.0,70.0,675.692
675702.0,51.0,44.0,21.0,72.0,675.702
675712.0,50.0,42.0,19.0,70.0,675.712
675722.0,50.0,43.0,18.0,67.0,675.722
675732.0,48.0,44.0,16.0,62.0,675.732
675742.0,48.0,44.0,17.0,63.0,675.742
675752.0,48.0,46.0,19.0,66.0,675.752
675762.0,51.0,48.0,22.0,71.0,675.762
675772.0,50.0,46.0,19.0,75.0,675.772
675782.0,51.0,47.0,23.0,89.0,675.782
675792.0,51.0,46.0,23.0,104.0,675.792
675802.0,50.0,45.0,20.0,112.0,675.802
675812.0,49.0,45.0,24.0,123.0,675.812
675822.0,49.0,45.0,21.0,133.0,675.822
675832.0,49.0,43.0,20.0,137.0,675.832
675842.0,48.0,42.0,21.0,149.0,675.842
675852.0,48.0,41.0,19.0,154.0,675.852
675862.0,48.0,41.0,20.0,154.0,675.862
675872.0,47.0,41.0,25.0,157.0,675.872
675883.0,48.0,41.0,25.0,165.0,675.883
675893.0,48.0,41.0,22.0,162.0,675.893
675903.0,47.0,40.0,24.0,166.0,675.903
675913.0,48.0,41.0,21.0,165.0,675.913
675923.0,47.0,39.0,20.0,166.0,675.923
675933.0,48.0,39.0,18.0,166.0,675.933
675943.0,45.0,38.0,15.0,162.0,675.943
675953.0,45.0,37.0,17.0,155.0,675.953
675963.0,47.0,38.0,16.0,158.0,675.963
675973.0,48.0,37.0,15.0,151.0,675.973
675983.0,47.0,37.0,13.0,156.0,675.983
675993.0,47.0,37.0,15.0,160.0,675.993
676003.0,46.0,36.0,13.0,151.0,676.003
676013.0,46.0,38.0,12.0,154.0,676.013
676023.0,47.0,38.0,12.0,144.0,676.023
676033.0,47.0,43.0,31.0,148.0,676.033
676043.0,47.0,40.0,29.0,148.0,676.043
676054.0,47.0,40.0,29.0,140.0,676.054
676064.0,47.0,41.0,26.0,140.0,676.064
676074.0,46.0,41.0,26.0,131.0,676.074
676084.0,45.0,43.0,24.0,133.0,676.084
676094.0,45.0,41.0,21.0,129.0,676.094
676104.0,47.0,44.0,19.0,126.0,676.104
676114.0,46.0,44.0,19.0,125.0,676.114
676124.0,45.0,44.0,18.0,121.0,676.124
676134.0,46.0,46.0,17.0,117.0,676.134
676144.0,46.0,46.0,19.0,112.0,676.144
676154.0,46.0,48.0,20.0,110.0,676.154
676164.0,46.0,47.0,20.0,111.0,676.164
676174.0,46.0,48.0,18.0,113.0,676.174
676184.0,46.0,47.0,16.0,104.0,676.184
676194.0,46.0,49.0,17.0,100.0,676.194
676204.0,47.0,48.0,21.0,99.0,676.204
676214.0,47.0,47.0,18.0,94.0,676.214
676224.0,46.0,48.0,18.0,95.0,676.224
676234.0,46.0,49.0,19.0,93.0,676.234
676244.0,45.0,51.0,17.0,95.0,676.244
676254.0,45.0,52.0,21.0,92.0,676.254
676264.0,48.0,52.0,19.0,95.0,676.264
676274.0,47.0,53.0,17.0,91.0,676.274
676284.0,49.0,54.0,16.0,87.0,676.284
676294.0,48.0,56.0,14.0,87.0,676.294
676304.0,49.0,55.0,13.0,88.0,676.304
676314.0,49.0,55.0,13.0,89.0,676.314
676324.0,49.0,56.0,14.0,84.0,676.324
676334.0,48.0,56.0,15.0,84.0,676.334
676344.0,49.0,56.0,15.0,79.0,676.344
676354.0,51.0,58.0,14.0,80.0,676.354
676364.0,50.0,58.0,12.0,81.0,676.364
676374.0,50.0,57.0,14.0,84.0,676.374
676384.0,52.0,57.0,13.0,84.0,676.384
676395.0,53.0,56.0,15.0,80.0,676.395
676405.0,53.0,55.0,13.0,80.0,676.405
676415.0,53.0,56.0,14.0,77.0,676.415
676425.0,56.0,54.0,13.0,73.0,676.425
676435.0,55.0,55.0,10.0,71.0,676.435
676445.0,57.0,55.0,18.0,73.0,676.445
676455.0,58.0,56.0,22.0,76.0,676.455
676465.0,56.0,56.0,20.0,75.0,676.465
676475.0,57.0,54.0,19.0,77.0,676.475
676485.0,57.0,55.0,19.0,72.0,676.485
676495.0,58.0,54.0,19.0,73.0,676.495
676505.0,56.0,55.0,16.0,71.0,676.505
676515.0,57.0,57.0,18.0,72.0,676.515
676525.0,57.0,56.0,19.0,72.0,676.525
676535.0,56.0,54.0,17.0,69.0,676.535
676545.0,56.0,54.0,18.0,66.0,676.545
676555.0,53.0,55.0,20.0,65.0,676.555
676566.0,56.0,54.0,17.0,67.0,676.566
676576.0,53.0,55.0,18.0,65.0,676.576
676586.0,53.0,53.0,16.0,69.0,676.586
676596.0,53.0,54.0,14.0,65.0,676.596
676606.0,53.0,54.0,13.0,61.0,676.606
676616.0,53.0,55.0,15.0,61.0,676.616
676626.0,52.0,56.0,17.0,62.0,676.626
676636.0,53.0,56.0,17.0,64.0,676.636
676646.0,52.0,55.0,14.0,65.0,676.646
676656.0,54.0,53.0,14.0,64.0,676.656
676666.0,53.0,55.0,13.0,62.0,676.666
676676.0,53.0,52.0,11.0,58.0,676.676
676686.0,51.0,54.0,14.0,63.0,676.686
676696.0,51.0,52.0,17.0,68.0,676.696
676706.0,52.0,51.0,15.0,70.0,676.706
676716.0,50.0,51.0,14.0,69.0,676.716
676726.0,49.0,49.0,13.0,71.0,676.726
676736.0,49.0,49.0,11.0,69.0,676.736
676746.0,48.0,49.0,13.0,67.0,676.746
676756.0,49.0,49.0,15.0,64.0,676.756
676766.0,47.0,49.0,19.0,66.0,676.766
676776.0,48.0,47.0,18.0,63.0,676.776
676786.0,47.0,46.0,15.0,61.0,676.786
676796.0,47.0,44.0,15.0,62.0,676.796
676806.0,46.0,44.0,13.0,60.0,676.806
676816.0,46.0,44.0,17.0,58.0,676.816
676826.0,46.0,44.0,15.0,61.0,676.826
676836.0,45.0,45.0,13.0,58.0,676.836
676846.0,47.0,45.0,13.0,57.0,676.846
676856.0,47.0,46.0,12.0,61.0,676.856
676866.0,46.0,46.0,12.0,60.0,676.866
676876.0,46.0,47.0,11.0,61.0,676.876
676886.0,45.0,46.0,10.0,59.0,676.886
676896.0,44.0,46.0,12.0,57.0,676.896
676907.0,45.0,47.0,16.0,53.0,676.907
676917.0,46.0,47.0,20.0,55.0,676.917
676927.0,45.0,45.0,16.0,56.0,676.927
676937.0,47.0,45.0,17.0,58.0,676.937
676947.0,47.0,47.0,17.0,59.0,676.947
676957.0,46.0,46.0,15.0,63.0,676.957
676967.0,45.0,48.0,15.0,63.0,676.967
676977.0,45.0,49.0,16.0,63.0,676.977
676987.0,45.0,51.0,14.0,63.0,676.987
676997.0,44.0,53.0,18.0,69.0,676.997
677007.0,49.0,55.0,23.0,77.0,677.007
677017.0,49.0,55.0,20.0,75.0,677.017
677027.0,48.0,54.0,18.0,75.0,677.027
677037.0,48.0,54.0,21.0,72.0,677.037
677047.0,47.0,54.0,21.0,70.0,677.047
677057.0,49.0,55.0,24.0,67.0,677.057
677067.0,48.0,55.0,22.0,69.0,677.067
677078.0,49.0,53.0,20.0,66.0,677.078
677088.0,49.0,57.0,19.0,66.0,677.088
677098.0,51.0,54.0,19.0,65.0,677.098
677108.0,50.0,55.0,20.0,65.0,677.108
677118.0,50.0,54.0,19.0,61.0,677.118
677128.0,50.0,54.0,17.0,58.0,677.128
677138.0,50.0,55.0,16.0,61.0,677.138
677148.0,51.0,53.0,14.0,61.0,677.148
677158.0,51.0,57.0,14.0,58.0,677.158
677168.0,52.0,56.0,14.0,56.0,677.168
677178.0,51.0,58.0,17.0,55.0,677.178
677188.0,51.0,59.0,24.0,53.0,677.188
677198.0,53.0,61.0,21.0,59.0,677.198
677208.0,51.0,61.0,20.0,57.0,677.208
677218.0,50.0,61.0,17.0,56.0,677.218
677228.0,50.0,63.0,16.0,57.0,677.228
677238.0,49.0,62.0,15.0,54.0,677.238
677248.0,49.0,63.0,13.0,55.0,677.248
677258.0,49.0,66.0,13.0,62.0,677.258
677268.0,51.0,64.0,12.0,62.0,677.268
677278.0,48.0,65.0,10.0,62.0,677.278
677288.0,49.0,65.0,12.0,61.0,677.288
677298.0,48.0,68.0,11.0,60.0,677.298
677308.0,48.0,70.0,15.0,62.0,677.308
677318.0,47.0,69.0,14.0,68.0,677.318
677328.0,47.0,69.0,13.0,64.0,677.328
677338.0,47.0,70.0,13.0,63.0,677.338
677348.0,46.0,71.0,14.0,68.0,677.348
677358.0,47.0,70.0,13.0,67.0,677.358
677368.0,46.0,73.0,19.0,67.0,677.368
677378.0,46.0,71.0,18.0,64.0,677.378
677388.0,45.0,71.0,17.0,61.0,677.388
677398.0,45.0,73.0,15.0,61.0,677.398
677408.0,45.0,73.0,14.0,63.0,677.408
677419.0,44.0,74.0,12.0,62.0,677.419
677429.0,43.0,73.0,11.0,64.0,677.429
677439.0,46.0,77.0,11.0,64.0,677.439
677449.0,46.0,76.0,13.0,64.0,677.449
677459.0,46.0,78.0,11.0,60.0,677.459
677469.0,47.0,80.0,14.0,63.0,677.469
677479.0,47.0,80.0,14.0,62.0,677.479
677489.0,45.0,81.0,12.0,58.0,677.489
677499.0,45.0,81.0,12.0,57.0,677.499
677509.0,45.0,83.0,10.0,55.0,677.509
677519.0,43.0,82.0,10.0,50.0,677.519
677529.0,45.0,82.0,8.0,50.0,677.529
677539.0,45.0,84.0,15.0,61.0,677.539
677549.0,46.0,80.0,18.0,63.0,677.549
677559.0,48.0,79.0,18.0,64.0,677.559
677569.0,47.0,77.0,16.0,65.0,677.569
677579.0,47.0,77.0,15.0,62.0,677.579
677590.0,47.0,75.0,13.0,56.0,677.59
677600.0,47.0,75.0,11.0,54.0,677.6
677610.0,48.0,75.0,11.0,55.0,677.61
677620.0,48.0,75.0,10.0,54.0,677.62
677630.0,46.0,76.0,10.0,61.0,677.63
677640.0,45.0,76.0,10.0,59.0,677.64
677650.0,46.0,78.0,11.0,61.0,677.65
677660.0,45.0,78.0,14.0,60.0,677.66
677670.0,44.0,80.0,13.0,60.0,677.67
677680.0,43.0,79.0,11.0,56.0,677.68
677690.0,45.0,80.0,11.0,56.0,677.69
677700.0,44.0,81.0,10.0,52.0,677.7
677710.0,45.0,80.0,11.0,53.0,677.71
677720.0,44.0,80.0,11.0,56.0,677.72
677730.0,45.0,80.0,12.0,53.0,677.73
677740.0,44.0,81.0,13.0,54.0,677.74
677750.0,44.0,82.0,17.0,59.0,677.75
677760.0,44.0,82.0,15.0,60.0,677.76
677770.0,42.0,82.0,14.0,56.0,677.77
677780.0,43.0,82.0,13.0,56.0,677.78
677790.0,42.0,82.0,12.0,55.0,677.79
677800.0,44.0,81.0,16.0,54.0,677.8
677810.0,44.0,80.0,14.0,52.0,677.81
677820.0,43.0,80.0,17.0,53.0,677.82
677830.0,44.0,79.0,16.0,53.0,677.83
677840.0,42.0,77.0,14.0,53.0,677.84
677850.0,44.0,75.0,14.0,55.0,677.85
677860.0,43.0,76.0,17.0,60.0,677.86
677870.0,43.0,72.0,15.0,61.0,677.87
677880.0,43.0,70.0,17.0,58.0,677.88
677890.0,41.0,69.0,15.0,58.0,677.89
677900.0,44.0,67.0,15.0,56.0,677.9
677910.0,42.0,68.0,12.0,55.0,677.91
677920.0,42.0,67.0,14.0,59.0,677.92
677931.0,43.0,67.0,14.0,67.0,677.931
677941.0,42.0,64.0,16.0,66.0,677.941
677951.0,43.0,62.0,14.0,65.0,677.951
677961.0,43.0,61.0,13.0,61.0,677.961
677971.0,44.0,59.0,12.0,61.0,677.971
677981.0,44.0,61.0,11.0,58.0,677.981
677991.0,43.0,60.0,12.0,56.0,677.991
678001.0,43.0,61.0,13.0,56.0,678.001
678011.0,43.0,60.0,12.0,52.0,678.011
678021.0,43.0,62.0,13.0,52.0,678.021
678031.0,43.0,62.0,15.0,51.0,678.031
678041.0,44.0,62.0,16.0,56.0,678.041
678051.0,42.0,61.0,14.0,56.0,678.051
678061.0,43.0,61.0,13.0,53.0,678.061
678071.0,43.0,60.0,13.0,52.0,678.071
678081.0,43.0,58.0,15.0,52.0,678.081
678091.0,43.0,58.0,13.0,52.0,678.091
678102.0,43.0,57.0,13.0,51.0,678.102
678112.0,44.0,55.0,12.0,48.0,678.112
678122.0,44.0,54.0,14.0,60.0,678.122
678132.0,45.0,53.0,13.0,55.0,678.132
678142.0,44.0,54.0,13.0,52.0,678.142
678152.0,45.0,52.0,12.0,55.0,678.152
678162.0,45.0,51.0,10.0,55.0,678.162
678172.0,44.0,52.0,15.0,56.0,678.172
678182.0,45.0,51.0,15.0,56.0,678.182
678192.0,44.0,51.0,13.0,56.0,678.192
678202.0,45.0,49.0,12.0,55.0,678.202
678212.0,45.0,52.0,11.0,54.0,678.212
678222.0,45.0,50.0,14.0,54.0,678.222
678232.0,45.0,49.0,12.0,53.0,678.232
678242.0,44.0,49.0,16.0,53.0,678.242
678252.0,44.0,47.0,16.0,50.0,678.252
678262.0,43.0,48.0,14.0,52.0,678.262
678272.0,44.0,47.0,15.0,51.0,678.272
678282.0,43.0,48.0,13.0,50.0,678.282
678292.0,43.0,46.0,11.0,46.0,678.292
678302.0,43.0,48.0,13.0,52.0,678.302
678312.0,43.0,49.0,14.0,56.0,678.312
678322.0,45.0,48.0,13.0,54.0,678.322
678332.0,44.0,49.0,12.0,55.0,678.332
678342.0,44.0,49.0,11.0,51.0,678.342
678352.0,45.0,51.0,10.0,51.0,678.352
678362.0,45.0,53.0,12.0,49.0,678.362
678372.0,45.0,54.0,12.0,49.0,678.372
678382.0,44.0,55.0,11.0,49.0,678.382
678392.0,44.0,56.0,10.0,49.0,678.392
678402.0,44.0,57.0,10.0,47.0,678.402
678412.0,45.0,59.0,11.0,50.0,678.412
678422.0,46.0,61.0,8.0,49.0,678.422
678432.0,46.0,62.0,13.0,48.0,678.432
678443.0,49.0,62.0,13.0,47.0,678.443
678453.0,49.0,61.0,15.0,48.0,678.453
678463.0,50.0,59.0,14.0,47.0,678.463
678473.0,50.0,59.0,12.0,47.0,678.473
678483.0,49.0,57.0,11.0,45.0,678.483
678493.0,49.0,58.0,11.0,46.0,678.493
678503.0,48.0,56.0,15.0,48.0,678.503
678513.0,48.0,54.0,18.0,47.0,678.513
678523.0,49.0,51.0,16.0,51.0,678.523
678533.0,48.0,51.0,15.0,50.0,678.533
678543.0,48.0,50.0,12.0,49.0,678.543
678553.0,47.0,49.0,12.0,49.0,678.553
678563.0,47.0,50.0,14.0,49.0,678.563
678573.0,47.0,49.0,13.0,52.0,678.573
678583.0,47.0,50.0,13.0,52.0,678.583
678593.0,47.0,52.0,13.0,55.0,678.593
678603.0,47.0,54.0,16.0,50.0,678.603
678614.0,46.0,57.0,16.0,51.0,678.614
678624.0,49.0,57.0,15.0,49.0,678.624
678634.0,49.0,60.0,14.0,50.0,678.634
678644.0,48.0,62.0,18.0,48.0,678.644
678654.0,48.0,62.0,16.0,50.0,678.654
678664.0,47.0,64.0,15.0,51.0,678.664
678674.0,48.0,64.0,18.0,49.0,678.674
678684.0,48.0,64.0,16.0,48.0,678.684
678694.0,49.0,63.0,23.0,47.0,678.694
678704.0,49.0,63.0,22.0,49.0,678.704
678714.0,49.0,61.0,20.0,48.0,678.714
678724.0,50.0,59.0,17.0,47.0,678.724
678734.0,51.0,59.0,17.0,50.0,678.734
678744.0,53.0,57.0,15.0,48.0,678.744
678754.0,53.0,57.0,14.0,48.0,678.754
678764.0,53.0,57.0,13.0,49.0,678.764
678774.0,54.0,58.0,13.0,48.0,678.774
678784.0,54.0,58.0,12.0,46.0,678.784
678794.0,55.0,58.0,13.0,45.0,678.794
678804.0,57.0,59.0,15.0,43.0,678.804
678814.0,60.0,59.0,14.0,42.0,678.814
678824.0,60.0,61.0,12.0,45.0,678.824
678834.0,59.0,61.0,12.0,47.0,678.834
678844.0,59.0,62.0,12.0,51.0,678.844
678854.0,58.0,61.0,11.0,50.0,678.854
678864.0,58.0,61.0,12.0,53.0,678.864
678874.0,57.0,62.0,13.0,50.0,678.874
678884.0,59.0,63.0,15.0,53.0,678.884
678894.0,58.0,63.0,14.0,52.0,678.894
678904.0,59.0,63.0,14.0,52.0,678.904
678914.0,60.0,62.0,13.0,52.0,678.914
678924.0,61.0,62.0,11.0,53.0,678.924
678934.0,61.0,63.0,13.0,56.0,678.934
678944.0,61.0,65.0,12.0,54.0,678.944
678955.0,61.0,65.0,12.0,53.0,678.955
678965.0,60.0,65.0,14.0,50.0,678.965
678975.0,60.0,64.0,16.0,49.0,678.975
678985.0,61.0,65.0,17.0,52.0,678.985
678995.0,62.0,66.0,16.0,54.0,678.995
679005.0,63.0,66.0,15.0,53.0,679.005
679015.0,64.0,66.0,13.0,54.0,679.015
679025.0,64.0,65.0,13.0,51.0,679.025
679035.0,64.0,66.0,11.0,51.0,679.035
679045.0,66.0,64.0,13.0,49.0,679.045
679055.0,66.0,65.0,11.0,55.0,679.055
679065.0,68.0,62.0,10.0,54.0,679.065
679075.0,68.0,60.0,12.0,52.0,679.075
679085.0,67.0,61.0,12.0,55.0,679.085
679095.0,70.0,61.0,12.0,55.0,679.095
679105.0,69.0,59.0,11.0,53.0,679.105
679115.0,69.0,61.0,10.0,49.0,679.115
679126.0,69.0,62.0,10.0,51.0,679.126
679136.0,71.0,60.0,10.0,50.0,679.136
679146.0,72.0,60.0,9.0,54.0,679.146
679156.0,72.0,61.0,8.0,53.0,679.156
679166.0,71.0,63.0,10.0,52.0,679.166
679176.0,71.0,63.0,11.0,49.0,679.176
679186.0,71.0,64.0,9.0,51.0,679.186
679196.0,71.0,65.0,13.0,49.0,679.196
679206.0,72.0,64.0,13.0,46.0,679.206
679216.0,72.0,63.0,12.0,47.0,679.216
679226.0,73.0,64.0,11.0,45.0,679.226
679236.0,73.0,64.0,11.0,48.0,679.236
679246.0,70.0,66.0,12.0,52.0,679.246
679256.0,72.0,66.0,14.0,58.0,679.256
679266.0,72.0,67.0,11.0,61.0,679.266
679276.0,71.0,66.0,11.0,56.0,679.276
679286.0,70.0,68.0,12.0,58.0,679.286
679296.0,70.0,69.0,13.0,58.0,679.296
679306.0,71.0,67.0,12.0,56.0,679.306
679316.0,68.0,67.0,12.0,58.0,679.316
679326.0,67.0,67.0,17.0,60.0,679.326
679336.0,67.0,68.0,19.0,57.0,679.336
679346.0,65.0,65.0,16.0,55.0,679.346
679356.0,66.0,63.0,14.0,59.0,679.356
679366.0,65.0,64.0,15.0,56.0,679.366
679376.0,68.0,62.0,14.0,55.0,679.376
679386.0,66.0,61.0,14.0,54.0,679.386
679396.0,67.0,61.0,17.0,52.0,679.396
679406.0,67.0,60.0,16.0,51.0,679.406
679416.0,67.0,58.0,15.0,51.0,679.416
679426.0,67.0,57.0,15.0,51.0,679.426
679436.0,65.0,55.0,13.0,51.0,679.436
679446.0,65.0,55.0,15.0,61.0,679.446
679456.0,64.0,54.0,14.0,60.0,679.456
679467.0,65.0,53.0,15.0,55.0,679.467
679477.0,64.0,53.0,17.0,54.0,679.477
679487.0,63.0,54.0,16.0,55.0,679.487
679497.0,62.0,55.0,15.0,57.0,679.497
679507.0,62.0,56.0,21.0,55.0,679.507
679517.0,62.0,55.0,19.0,54.0,679.517
679527.0,60.0,57.0,18.0,53.0,679.527
679537.0,62.0,56.0,17.0,50.0,679.537
679547.0,62.0,57.0,18.0,49.0,679.547
679557.0,62.0,57.0,17.0,53.0,679.557
679567.0,62.0,57.0,17.0,58.0,679.567
679577.0,62.0,58.0,17.0,58.0,679.577
679587.0,62.0,59.0,15.0,56.0,679.587
679597.0,60.0,60.0,14.0,53.0,679.597
679607.0,59.0,61.0,15.0,52.0,679.607
679617.0,60.0,63.0,14.0,50.0,679.617
679627.0,60.0,62.0,12.0,50.0,679.627
679638.0,60.0,63.0,12.0,54.0,679.638
679648.0,59.0,64.0,15.0,58.0,679.648
679658.0,58.0,64.0,14.0,59.0,679.658
679668.0,56.0,64.0,12.0,57.0,679.668
679678.0,55.0,64.0,12.0,52.0,679.678
679688.0,55.0,63.0,12.0,51.0,679.688
679698.0,54.0,62.0,11.0,52.0,679.698
679708.0,54.0,63.0,10.0,57.0,679.708
679718.0,53.0,62.0,10.0,60.0,679.718
679728.0,55.0,59.0,12.0,64.0,679.728
679738.0,53.0,58.0,10.0,62.0,679.738
679748.0,52.0,59.0,12.0,59.0,679.748
679758.0,53.0,58.0,14.0,60.0,679.758
679768.0,53.0,58.0,13.0,60.0,679.768
679778.0,53.0,58.0,13.0,58.0,679.778
679788.0,55.0,58.0,13.0,58.0,679.788
679798.0,54.0,59.0,13.0,58.0,679.798
679808.0,53.0,58.0,11.0,57.0,679.808
679818.0,53.0,58.0,12.0,56.0,679.818
679828.0,54.0,59.0,11.0,59.0,679.828
679838.0,54.0,58.0,14.0,55.0,679.838
679848.0,54.0,59.0,19.0,59.0,679.848
679858.0,55.0,59.0,21.0,62.0,679.858
679868.0,56.0,58.0,19.0,59.0,679.868
679878.0,54.0,58.0,16.0,57.0,679.878
679888.0,56.0,57.0,16.0,53.0,679.888
679898.0,57.0,59.0,16.0,53.0,679.898
679908.0,57.0,58.0,19.0,56.0,679.908
679918.0,58.0,56.0,18.0,60.0,679.918
679928.0,56.0,56.0,17.0,58.0,679.928
679938.0,57.0,54.0,15.0,55.0,679.938
679948.0,57.0,54.0,14.0,56.0,679.948
679958.0,56.0,53.0,14.0,55.0,679.958
679968.0,57.0,54.0,17.0,57.0,679.968
679979.0,56.0,54.0,14.0,54.0,679.979
679989.0,55.0,54.0,13.0,58.0,679.989
679999.0,55.0,54.0,13.0,58.0,679.999
680009.0,57.0,53.0,12.0,58.0,680.009
680019.0,56.0,54.0,10.0,56.0,680.019
680029.0,55.0,53.0,11.0,56.0,680.029
680039.0,55.0,55.0,11.0,54.0,680.039
680049.0,55.0,55.0,13.0,54.0,680.049
680059.0,55.0,57.0,12.0,69.0,680.059
680069.0,56.0,56.0,12.0,70.0,680.069
680079.0,59.0,56.0,13.0,67.0,680.079
680089.0,58.0,56.0,10.0,66.0,680.089
680099.0,60.0,53.0,12.0,63.0,680.099
680109.0,61.0,55.0,11.0,62.0,680.109
680119.0,62.0,54.0,11.0,58.0,680.119
680129.0,63.0,54.0,12.0,61.0,680.129
680139.0,63.0,55.0,9.0,60.0,680.139
680150.0,62.0,57.0,14.0,59.0,680.15
680160.0,62.0,56.0,12.0,59.0,680.16
680170.0,60.0,55.0,13.0,56.0,680.17
680180.0,59.0,57.0,11.0,54.0,680.18
680190.0,57.0,56.0,11.0,50.0,680.19
680200.0,56.0,58.0,10.0,51.0,680.2
680210.0,55.0,59.0,10.0,52.0,680.21
680220.0,55.0,58.0,8.0,51.0,680.22
680230.0,54.0,58.0,7.0,48.0,680.23
680240.0,53.0,57.0,11.0,49.0,680.24
680250.0,51.0,59.0,13.0,51.0,680.25
680260.0,52.0,56.0,12.0,50.0,680.26
680270.0,50.0,57.0,10.0,50.0,680.27
680280.0,49.0,59.0,11.0,49.0,680.28
680290.0,49.0,58.0,9.0,47.0,680.29
680300.0,47.0,59.0,7.0,46.0,680.3
680310.0,47.0,59.0,10.0,45.0,680.31
680320.0,46.0,60.0,10.0,48.0,680.32
680330.0,48.0,58.0,10.0,48.0,680.33
680340.0,49.0,59.0,10.0,53.0,680.34
680350.0,49.0,57.0,9.0,53.0,680.35
680360.0,49.0,57.0,10.0,55.0,680.36
680370.0,48.0,58.0,10.0,56.0,680.37
680380.0,49.0,57.0,10.0,55.0,680.38
680390.0,48.0,58.0,11.0,56.0,680.39
680400.0,48.0,56.0,13.0,55.0,680.4
680410.0,49.0,56.0,12.0,58.0,680.41
680420.0,48.0,58.0,15.0,54.0,680.42
680430.0,50.0,57.0,16.0,54.0,680.43
680440.0,50.0,58.0,14.0,57.0,680.44
680450.0,50.0,57.0,13.0,57.0,680.45
680460.0,50.0,59.0,14.0,61.0,680.46
680470.0,51.0,57.0,14.0,64.0,680.47
680480.0,51.0,59.0,14.0,64.0,680.48
680491.0,52.0,58.0,12.0,61.0,680.491
680501.0,53.0,58.0,11.0,62.0,680.501
680511.0,52.0,58.0,10.0,60.0,680.511
680521.0,52.0,57.0,10.0,56.0,680.521
680531.0,51.0,59.0,10.0,56.0,680.531
680541.0,51.0,60.0,10.0,56.0,680.541
680551.0,50.0,62.0,12.0,55.0,680.551
680561.0,50.0,61.0,13.0,53.0,680.561
680571.0,51.0,63.0,14.0,51.0,680.571
680581.0,49.0,63.0,12.0,49.0,680.581
680591.0,48.0,64.0,12.0,47.0,680.591
680601.0,48.0,66.0,11.0,48.0,680.601
680611.0,46.0,64.0,12.0,50.0,680.611
680621.0,47.0,63.0,11.0,50.0,680.621
680631.0,45.0,64.0,13.0,55.0,680.631
680641.0,47.0,63.0,14.0,55.0,680.641
680651.0,46.0,63.0,12.0,53.0,680.651
680662.0,45.0,63.0,11.0,53.0,680.662
680672.0,46.0,64.0,10.0,54.0,680.672
680682.0,46.0,64.0,14.0,56.0,680.682
680692.0,45.0,63.0,13.0,55.0,680.692
680702.0,45.0,64.0,17.0,55.0,680.702
680712.0,45.0,62.0,14.0,56.0,680.712
680722.0,44.0,61.0,12.0,53.0,680.722
680732.0,44.0,60.0,12.0,59.0,680.732
680742.0,44.0,62.0,11.0,61.0,680.742
680752.0,44.0,60.0,10.0,62.0,680.752
680762.0,44.0,58.0,9.0,58.0,680.762
680772.0,45.0,58.0,13.0,59.0,680.772
680782.0,46.0,59.0,12.0,65.0,680.782
680792.0,44.0,61.0,10.0,62.0,680.792
680802.0,45.0,62.0,10.0,62.0,680.802
680812.0,44.0,64.0,10.0,61.0,680.812
680822.0,45.0,62.0,9.0,56.0,680.822
680832.0,45.0,63.0,12.0,65.0,680.832
680842.0,45.0,62.0,12.0,61.0,680.842
680852.0,47.0,62.0,12.0,58.0,680.852
680862.0,47.0,60.0,10.0,56.0,680.862
680872.0,49.0,60.0,10.0,56.0,680.872
680882.0,48.0,60.0,9.0,53.0,680.882
680892.0,49.0,58.0,11.0,51.0,680.892
680902.0,48.0,57.0,12.0,55.0,680.902
680912.0,49.0,56.0,14.0,57.0,680.912
680922.0,49.0,52.0,12.0,55.0,680.922
680932.0,48.0,53.0,12.0,52.0,680.932
680942.0,49.0,51.0,11.0,49.0,680.942
680952.0,50.0,53.0,11.0,56.0,680.952
680962.0,50.0,50.0,10.0,52.0,680.962
680972.0,49.0,51.0,12.0,54.0,680.972
680982.0,49.0,50.0,12.0,51.0,680.982
680992.0,50.0,49.0,11.0,51.0,680.992
681003.0,50.0,49.0,12.0,49.0,681.003
681013.0,50.0,51.0,11.0,49.0,681.013
