time (ms),signal 0,signal 1,signal 2,signal3,time (sec)
651714.0,314.0,536.0,41.0,108.0,651.714
651724.0,316.0,540.0,57.0,113.0,651.724
651734.0,316.0,541.0,61.0,110.0,651.734
651744.0,318.0,545.0,55.0,114.0,651.744
651754.0,318.0,545.0,59.0,117.0,651.754
651764.0,320.0,548.0,57.0,113.0,651.764
651774.0,320.0,550.0,50.0,108.0,651.774
651784.0,320.0,552.0,56.0,117.0,651.784
651794.0,321.0,553.0,49.0,120.0,651.794
651804.0,320.0,556.0,45.0,120.0,651.804
651814.0,322.0,560.0,47.0,116.0,651.814
651824.0,322.0,562.0,41.0,112.0,651.824
651834.0,321.0,561.0,51.0,112.0,651.834
651844.0,324.0,565.0,48.0,115.0,651.844
651854.0,326.0,566.0,45.0,112.0,651.854
651864.0,328.0,568.0,43.0,107.0,651.864
651874.0,328.0,567.0,48.0,106.0,651.874
651884.0,330.0,569.0,45.0,112.0,651.884
651894.0,330.0,569.0,51.0,114.0,651.894
651904.0,332.0,569.0,47.0,114.0,651.904
651914.0,332.0,570.0,48.0,122.0,651.914
651924.0,332.0,570.0,44.0,115.0,651.924
651934.0,331.0,569.0,40.0,108.0,651.934
651944.0,330.0,568.0,37.0,100.0,651.944
651954.0,328.0,566.0,43.0,107.0,651.954
651964.0,328.0,564.0,61.0,109.0,651.964
651974.0,330.0,563.0,55.0,107.0,651.974
651984.0,328.0,561.0,58.0,106.0,651.984
651994.0,328.0,561.0,53.0,104.0,651.994
652004.0,327.0,560.0,46.0,100.0,652.004
652014.0,326.0,558.0,43.0,99.0,652.014
652024.0,326.0,556.0,40.0,96.0,652.024
652034.0,321.0,554.0,35.0,96.0,652.034
652044.0,322.0,551.0,36.0,109.0,652.044
652054.0,317.0,546.0,33.0,112.0,652.054
652064.0,318.0,544.0,41.0,120.0,652.064
652075.0,317.0,542.0,36.0,113.0,652.075
652085.0,315.0,539.0,35.0,110.0,652.085
652095.0,314.0,537.0,33.0,111.0,652.095
652105.0,312.0,533.0,31.0,112.0,652.105
652115.0,314.0,529.0,30.0,111.0,652.115
652125.0,310.0,525.0,28.0,118.0,652.125
652135.0,311.0,520.0,25.0,114.0,652.135
652145.0,311.0,516.0,24.0,125.0,652.145
652155.0,309.0,511.0,21.0,116.0,652.155
652165.0,309.0,505.0,19.0,106.0,652.165
652175.0,306.0,500.0,27.0,120.0,652.175
652185.0,307.0,493.0,43.0,115.0,652.185
652195.0,306.0,486.0,38.0,115.0,652.195
652205.0,303.0,480.0,34.0,116.0,652.205
652215.0,303.0,474.0,31.0,111.0,652.215
652225.0,302.0,467.0,27.0,106.0,652.225
652235.0,299.0,460.0,28.0,114.0,652.235
652246.0,297.0,453.0,25.0,109.0,652.246
652256.0,296.0,446.0,26.0,115.0,652.256
652266.0,295.0,438.0,31.0,118.0,652.266
652276.0,293.0,431.0,29.0,111.0,652.276
652286.0,294.0,425.0,43.0,108.0,652.286
652296.0,295.0,419.0,42.0,107.0,652.296
652306.0,295.0,411.0,37.0,107.0,652.306
652316.0,292.0,403.0,34.0,114.0,652.316
652326.0,291.0,396.0,32.0,115.0,652.326
652336.0,288.0,389.0,32.0,110.0,652.336
652346.0,286.0,383.0,32.0,111.0,652.346
652356.0,285.0,376.0,41.0,116.0,652.356
652366.0,285.0,370.0,36.0,124.0,652.366
652376.0,283.0,363.0,34.0,121.0,652.376
652386.0,281.0,358.0,30.0,117.0,652.386
652396.0,279.0,351.0,29.0,121.0,652.396
652406.0,277.0,345.0,29.0,128.0,652.406
652416.0,274.0,338.0,39.0,129.0,652.416
652426.0,271.0,333.0,37.0,123.0,652.426
652436.0,270.0,327.0,34.0,133.0,652.436
652446.0,268.0,321.0,34.0,127.0,652.446
652456.0,265.0,315.0,30.0,117.0,652.456
652466.0,264.0,310.0,28.0,113.0,652.466
652476.0,262.0,305.0,26.0,114.0,652.476
652486.0,260.0,299.0,23.0,113.0,652.486
652496.0,258.0,293.0,21.0,119.0,652.496
652506.0,254.0,288.0,28.0,127.0,652.506
652516.0,254.0,282.0,28.0,122.0,652.516
652526.0,254.0,278.0,27.0,125.0,652.526
652536.0,250.0,272.0,27.0,116.0,652.536
652546.0,251.0,268.0,26.0,119.0,652.546
652556.0,249.0,263.0,25.0,112.0,652.556
652566.0,248.0,258.0,25.0,108.0,652.566
652576.0,247.0,254.0,22.0,118.0,652.576
652587.0,244.0,248.0,20.0,130.0,652.587
652597.0,241.0,245.0,24.0,129.0,652.597
652607.0,241.0,240.0,39.0,143.0,652.607
652617.0,240.0,236.0,35.0,132.0,652.617
652627.0,237.0,231.0,34.0,136.0,652.627
652637.0,237.0,227.0,31.0,132.0,652.637
652647.0,235.0,224.0,31.0,138.0,652.647
652657.0,234.0,219.0,27.0,142.0,652.657
652667.0,232.0,216.0,27.0,152.0,652.667
652677.0,232.0,212.0,25.0,145.0,652.677
652687.0,230.0,208.0,21.0,140.0,652.687
652697.0,228.0,205.0,25.0,137.0,652.697
652707.0,228.0,201.0,33.0,144.0,652.707
652717.0,227.0,199.0,31.0,155.0,652.717
652727.0,226.0,195.0,29.0,148.0,652.727
652737.0,225.0,192.0,28.0,141.0,652.737
652747.0,223.0,188.0,31.0,131.0,652.747
652758.0,223.0,185.0,30.0,134.0,652.758
652768.0,222.0,182.0,28.0,132.0,652.768
652778.0,218.0,179.0,28.0,144.0,652.778
652788.0,214.0,176.0,26.0,138.0,652.788
652798.0,214.0,172.0,23.0,126.0,652.798
652808.0,212.0,170.0,38.0,127.0,652.808
652818.0,213.0,168.0,37.0,131.0,652.818
652828.0,210.0,165.0,36.0,143.0,652.828
652838.0,209.0,162.0,35.0,155.0,652.838
652848.0,209.0,159.0,32.0,158.0,652.848
652858.0,207.0,158.0,27.0,149.0,652.858
652868.0,207.0,154.0,31.0,156.0,652.868
652878.0,207.0,151.0,29.0,169.0,652.878
652888.0,205.0,150.0,27.0,155.0,652.888
652898.0,208.0,147.0,24.0,145.0,652.898
652908.0,208.0,145.0,21.0,138.0,652.908
652918.0,208.0,143.0,23.0,150.0,652.918
652928.0,205.0,141.0,38.0,159.0,652.928
652938.0,203.0,139.0,36.0,151.0,652.938
652948.0,196.0,138.0,57.0,139.0,652.948
652958.0,193.0,135.0,65.0,130.0,652.958
652968.0,190.0,133.0,76.0,124.0,652.968
652978.0,192.0,132.0,76.0,121.0,652.978
652988.0,193.0,129.0,78.0,120.0,652.988
652998.0,204.0,128.0,86.0,145.0,652.998
653008.0,203.0,126.0,83.0,160.0,653.008
653018.0,196.0,124.0,80.0,154.0,653.018
653028.0,217.0,122.0,89.0,179.0,653.028
653038.0,221.0,119.0,85.0,191.0,653.038
653048.0,218.0,118.0,81.0,196.0,653.048
653058.0,213.0,115.0,82.0,211.0,653.058
653068.0,209.0,115.0,81.0,217.0,653.068
653078.0,207.0,112.0,74.0,220.0,653.078
653088.0,198.0,110.0,72.0,217.0,653.088
653099.0,205.0,109.0,73.0,220.0,653.099
653109.0,198.0,107.0,85.0,205.0,653.109
653119.0,192.0,106.0,83.0,209.0,653.119
653129.0,190.0,105.0,99.0,196.0,653.129
653139.0,186.0,104.0,94.0,235.0,653.139
653149.0,184.0,102.0,86.0,234.0,653.149
653159.0,183.0,101.0,92.0,240.0,653.159
653169.0,180.0,100.0,99.0,243.0,653.169
653179.0,175.0,98.0,91.0,241.0,653.179
653189.0,167.0,97.0,94.0,239.0,653.189
653199.0,164.0,96.0,97.0,261.0,653.199
653209.0,160.0,96.0,94.0,263.0,653.209
653219.0,153.0,94.0,102.0,256.0,653.219
653229.0,146.0,93.0,105.0,244.0,653.229
653239.0,141.0,93.0,99.0,244.0,653.239
653249.0,140.0,91.0,109.0,247.0,653.249
653259.0,136.0,90.0,104.0,243.0,653.259
653270.0,137.0,90.0,93.0,231.0,653.27
653280.0,131.0,91.0,92.0,234.0,653.28
653290.0,128.0,88.0,82.0,246.0,653.29
653300.0,125.0,88.0,71.0,241.0,653.3
653310.0,121.0,87.0,63.0,245.0,653.31
653320.0,119.0,86.0,60.0,234.0,653.32
653330.0,115.0,86.0,54.0,262.0,653.33
653340.0,112.0,85.0,88.0,261.0,653.34
653350.0,108.0,85.0,127.0,250.0,653.35
653360.0,108.0,84.0,115.0,270.0,653.36
653370.0,105.0,84.0,119.0,259.0,653.37
653380.0,101.0,82.0,105.0,254.0,653.38
653390.0,97.0,82.0,95.0,241.0,653.39
653400.0,94.0,81.0,85.0,233.0,653.4
653410.0,95.0,80.0,74.0,220.0,653.41
653420.0,91.0,80.0,64.0,211.0,653.42
653430.0,88.0,79.0,66.0,209.0,653.43
653440.0,86.0,79.0,63.0,203.0,653.44
653450.0,81.0,78.0,94.0,191.0,653.45
653460.0,81.0,76.0,99.0,190.0,653.46
653470.0,80.0,76.0,88.0,200.0,653.47
653480.0,81.0,75.0,96.0,191.0,653.48
653490.0,79.0,75.0,84.0,190.0,653.49
653500.0,77.0,74.0,73.0,208.0,653.5
653510.0,76.0,75.0,65.0,210.0,653.51
653520.0,76.0,73.0,56.0,209.0,653.52
653530.0,74.0,72.0,53.0,192.0,653.53
653540.0,69.0,72.0,51.0,177.0,653.54
653550.0,68.0,71.0,52.0,180.0,653.55
653560.0,66.0,70.0,46.0,171.0,653.56
653570.0,64.0,71.0,69.0,173.0,653.57
653580.0,62.0,70.0,65.0,162.0,653.58
653590.0,59.0,70.0,57.0,156.0,653.59
653600.0,60.0,70.0,52.0,153.0,653.6
653611.0,58.0,69.0,55.0,152.0,653.611
653621.0,58.0,68.0,49.0,145.0,653.621
653631.0,58.0,68.0,48.0,155.0,653.631
653641.0,58.0,67.0,53.0,156.0,653.641
653651.0,58.0,67.0,64.0,152.0,653.651
653661.0,60.0,66.0,61.0,162.0,653.661
653671.0,58.0,65.0,54.0,154.0,653.671
653681.0,57.0,65.0,47.0,156.0,653.681
653691.0,57.0,65.0,44.0,165.0,653.691
653701.0,56.0,65.0,54.0,155.0,653.701
653711.0,55.0,64.0,61.0,151.0,653.711
653721.0,54.0,63.0,73.0,140.0,653.721
653731.0,53.0,64.0,79.0,130.0,653.731
653741.0,54.0,63.0,87.0,141.0,653.741
653751.0,57.0,63.0,84.0,153.0,653.751
653761.0,58.0,62.0,78.0,157.0,653.761
653771.0,56.0,62.0,80.0,154.0,653.771
653782.0,57.0,62.0,100.0,144.0,653.782
653792.0,58.0,60.0,107.0,135.0,653.792
653802.0,57.0,60.0,104.0,146.0,653.802
653812.0,56.0,59.0,90.0,154.0,653.812
653822.0,55.0,60.0,78.0,151.0,653.822
653832.0,55.0,60.0,69.0,167.0,653.832
653842.0,54.0,59.0,60.0,164.0,653.842
653852.0,53.0,58.0,53.0,152.0,653.852
653862.0,53.0,60.0,47.0,138.0,653.862
653872.0,53.0,58.0,46.0,129.0,653.872
653882.0,55.0,58.0,81.0,119.0,653.882
653892.0,56.0,58.0,96.0,120.0,653.892
653902.0,55.0,57.0,84.0,122.0,653.902
653912.0,56.0,59.0,73.0,121.0,653.912
653922.0,58.0,57.0,82.0,112.0,653.922
653932.0,57.0,57.0,79.0,116.0,653.932
653942.0,57.0,57.0,73.0,105.0,653.942
653952.0,58.0,56.0,85.0,103.0,653.952
653962.0,57.0,56.0,77.0,106.0,653.962
653972.0,55.0,56.0,68.0,101.0,653.972
653982.0,55.0,56.0,62.0,104.0,653.982
653992.0,55.0,55.0,65.0,107.0,653.992
654002.0,55.0,54.0,64.0,108.0,654.002
654012.0,55.0,55.0,79.0,106.0,654.012
654022.0,58.0,54.0,77.0,117.0,654.022
654032.0,56.0,53.0,69.0,115.0,654.032
654042.0,57.0,53.0,62.0,113.0,654.042
654052.0,58.0,53.0,58.0,116.0,654.052
654062.0,59.0,53.0,51.0,108.0,654.062
654072.0,61.0,53.0,45.0,110.0,654.072
654082.0,62.0,52.0,44.0,108.0,654.082
654092.0,63.0,52.0,59.0,108.0,654.092
654102.0,62.0,51.0,71.0,122.0,654.102
654112.0,65.0,51.0,68.0,128.0,654.112
654123.0,64.0,51.0,69.0,137.0,654.123
654133.0,64.0,51.0,63.0,141.0,654.133
654143.0,64.0,50.0,62.0,132.0,654.143
654153.0,63.0,50.0,54.0,143.0,654.153
654163.0,67.0,50.0,51.0,134.0,654.163
654173.0,66.0,49.0,74.0,140.0,654.173
654183.0,67.0,48.0,83.0,134.0,654.183
654193.0,65.0,48.0,82.0,131.0,654.193
654203.0,65.0,47.0,73.0,129.0,654.203
654213.0,66.0,46.0,78.0,123.0,654.213
654223.0,66.0,47.0,67.0,140.0,654.223
654233.0,68.0,44.0,61.0,134.0,654.233
654243.0,69.0,43.0,57.0,125.0,654.243
654253.0,73.0,48.0,52.0,118.0,654.253
654263.0,74.0,52.0,47.0,116.0,654.263
654273.0,73.0,55.0,42.0,116.0,654.273
654283.0,74.0,57.0,42.0,109.0,654.283
654294.0,75.0,62.0,46.0,102.0,654.294
654304.0,77.0,64.0,48.0,95.0,654.304
654314.0,79.0,69.0,68.0,98.0,654.314
654324.0,79.0,69.0,66.0,110.0,654.324
654334.0,78.0,70.0,58.0,113.0,654.334
654344.0,80.0,72.0,57.0,111.0,654.344
654354.0,79.0,72.0,52.0,107.0,654.354
654364.0,80.0,74.0,55.0,103.0,654.364
654374.0,79.0,74.0,49.0,97.0,654.374
654384.0,79.0,76.0,44.0,98.0,654.384
654394.0,80.0,76.0,41.0,94.0,654.394
654404.0,81.0,79.0,40.0,98.0,654.404
654414.0,83.0,84.0,55.0,110.0,654.414
654424.0,78.0,80.0,55.0,119.0,654.424
654434.0,81.0,81.0,50.0,116.0,654.434
654444.0,79.0,81.0,46.0,109.0,654.444
654454.0,77.0,82.0,40.0,110.0,654.454
654464.0,77.0,83.0,37.0,117.0,654.464
654474.0,75.0,84.0,31.0,122.0,654.474
654484.0,75.0,85.0,28.0,126.0,654.484
654494.0,75.0,87.0,27.0,118.0,654.494
654504.0,75.0,92.0,27.0,111.0,654.504
654514.0,77.0,94.0,41.0,107.0,654.514
654524.0,76.0,92.0,38.0,113.0,654.524
654534.0,75.0,92.0,38.0,124.0,654.534
654544.0,74.0,92.0,33.0,113.0,654.544
654554.0,73.0,93.0,30.0,111.0,654.554
654564.0,73.0,94.0,26.0,104.0,654.564
654574.0,73.0,95.0,27.0,100.0,654.574
654584.0,77.0,97.0,36.0,94.0,654.584
654594.0,74.0,96.0,32.0,95.0,654.594
654604.0,74.0,96.0,47.0,92.0,654.604
654614.0,73.0,99.0,44.0,99.0,654.614
654624.0,72.0,100.0,40.0,111.0,654.624
654635.0,81.0,106.0,53.0,106.0,654.635
654645.0,79.0,103.0,49.0,109.0,654.645
654655.0,76.0,105.0,44.0,117.0,654.655
654665.0,72.0,107.0,36.0,126.0,654.665
654675.0,72.0,107.0,48.0,119.0,654.675
654685.0,72.0,109.0,50.0,112.0,654.685
654695.0,71.0,110.0,52.0,118.0,654.695
654705.0,70.0,112.0,52.0,114.0,654.705
654715.0,71.0,115.0,63.0,112.0,654.715
654725.0,77.0,122.0,72.0,128.0,654.725
654735.0,84.0,123.0,66.0,144.0,654.735
654745.0,81.0,118.0,66.0,138.0,654.745
654755.0,89.0,125.0,94.0,140.0,654.755
654765.0,98.0,133.0,90.0,191.0,654.765
654775.0,110.0,148.0,124.0,184.0,654.775
654785.0,127.0,151.0,147.0,225.0,654.785
654795.0,137.0,144.0,196.0,266.0,654.795
654806.0,146.0,145.0,224.0,326.0,654.806
654816.0,144.0,135.0,253.0,380.0,654.816
654826.0,136.0,127.0,269.0,401.0,654.826
654836.0,130.0,134.0,293.0,408.0,654.836
654846.0,137.0,142.0,339.0,426.0,654.846
654856.0,142.0,139.0,326.0,422.0,654.856
654866.0,137.0,141.0,298.0,427.0,654.866
654876.0,128.0,149.0,306.0,423.0,654.876
654886.0,122.0,147.0,288.0,416.0,654.886
654896.0,114.0,153.0,268.0,402.0,654.896
654906.0,108.0,159.0,267.0,380.0,654.906
654916.0,109.0,167.0,249.0,366.0,654.916
654926.0,111.0,166.0,239.0,372.0,654.926
654936.0,109.0,170.0,218.0,358.0,654.936
654946.0,103.0,175.0,196.0,328.0,654.946
654956.0,107.0,181.0,177.0,305.0,654.956
654966.0,106.0,181.0,178.0,307.0,654.966
654976.0,100.0,183.0,163.0,292.0,654.976
654986.0,97.0,184.0,147.0,307.0,654.986
654996.0,94.0,189.0,131.0,280.0,654.996
655006.0,90.0,191.0,125.0,273.0,655.006
655016.0,86.0,190.0,114.0,253.0,655.016
655026.0,86.0,188.0,104.0,252.0,655.026
655036.0,85.0,189.0,116.0,239.0,655.036
655046.0,83.0,187.0,123.0,234.0,655.046
655056.0,80.0,188.0,126.0,220.0,655.056
655066.0,85.0,186.0,115.0,221.0,655.066
655076.0,83.0,184.0,112.0,218.0,655.076
655086.0,80.0,182.0,100.0,203.0,655.086
655096.0,84.0,181.0,93.0,195.0,655.096
655106.0,91.0,177.0,98.0,194.0,655.106
655116.0,90.0,176.0,94.0,184.0,655.116
655126.0,94.0,170.0,82.0,178.0,655.126
655136.0,91.0,168.0,77.0,189.0,655.136
655147.0,91.0,164.0,76.0,189.0,655.147
655157.0,92.0,162.0,66.0,177.0,655.157
655167.0,90.0,159.0,65.0,166.0,655.167
655177.0,85.0,157.0,72.0,174.0,655.177
655187.0,83.0,154.0,64.0,164.0,655.187
655197.0,84.0,153.0,69.0,172.0,655.197
655207.0,84.0,150.0,69.0,173.0,655.207
655217.0,83.0,148.0,69.0,185.0,655.217
655227.0,82.0,147.0,60.0,199.0,655.227
655237.0,82.0,147.0,56.0,190.0,655.237
655247.0,78.0,150.0,61.0,182.0,655.247
655257.0,83.0,147.0,55.0,178.0,655.257
655267.0,82.0,146.0,49.0,167.0,655.267
655277.0,80.0,146.0,51.0,172.0,655.277
655287.0,89.0,145.0,58.0,161.0,655.287
655297.0,93.0,144.0,60.0,160.0,655.297
655307.0,100.0,140.0,57.0,156.0,655.307
655318.0,98.0,139.0,50.0,155.0,655.318
655328.0,95.0,139.0,69.0,162.0,655.328
655338.0,94.0,135.0,65.0,162.0,655.338
655348.0,88.0,133.0,59.0,153.0,655.348
655358.0,92.0,137.0,58.0,141.0,655.358
655368.0,92.0,132.0,57.0,157.0,655.368
655378.0,90.0,133.0,52.0,165.0,655.378
655388.0,89.0,131.0,48.0,151.0,655.388
655398.0,99.0,134.0,54.0,149.0,655.398
655408.0,111.0,128.0,53.0,150.0,655.408
655418.0,111.0,128.0,51.0,162.0,655.418
655428.0,110.0,126.0,54.0,151.0,655.428
655438.0,105.0,125.0,51.0,140.0,655.438
655448.0,105.0,123.0,46.0,140.0,655.448
655458.0,100.0,123.0,40.0,136.0,655.458
655468.0,109.0,123.0,36.0,139.0,655.468
655478.0,108.0,122.0,39.0,142.0,655.478
655488.0,105.0,122.0,34.0,139.0,655.488
655498.0,102.0,122.0,34.0,136.0,655.498
655508.0,103.0,119.0,33.0,141.0,655.508
655518.0,99.0,119.0,41.0,160.0,655.518
655528.0,96.0,117.0,43.0,163.0,655.528
655538.0,90.0,118.0,48.0,155.0,655.538
655548.0,87.0,116.0,43.0,151.0,655.548
655558.0,87.0,118.0,40.0,148.0,655.558
655568.0,88.0,118.0,45.0,149.0,655.568
655578.0,88.0,119.0,40.0,160.0,655.578
655588.0,86.0,117.0,39.0,169.0,655.588
655598.0,83.0,119.0,42.0,161.0,655.598
655608.0,95.0,124.0,44.0,158.0,655.608
655618.0,101.0,122.0,42.0,158.0,655.618
655628.0,98.0,122.0,39.0,150.0,655.628
655638.0,96.0,122.0,42.0,139.0,655.638
655648.0,92.0,123.0,38.0,136.0,655.648
655659.0,90.0,125.0,43.0,127.0,655.659
655669.0,93.0,126.0,43.0,120.0,655.669
655679.0,90.0,127.0,44.0,117.0,655.679
655689.0,87.0,126.0,47.0,142.0,655.689
655699.0,89.0,126.0,46.0,141.0,655.699
655709.0,87.0,126.0,46.0,136.0,655.709
655719.0,85.0,126.0,39.0,133.0,655.719
655729.0,85.0,126.0,36.0,143.0,655.729
655739.0,87.0,130.0,34.0,140.0,655.739
655749.0,91.0,128.0,40.0,140.0,655.749
655759.0,91.0,127.0,36.0,130.0,655.759
655769.0,88.0,128.0,37.0,129.0,655.769
655779.0,88.0,126.0,44.0,125.0,655.779
655789.0,83.0,124.0,38.0,138.0,655.789
655799.0,85.0,124.0,35.0,132.0,655.799
655809.0,83.0,123.0,33.0,124.0,655.809
655819.0,85.0,125.0,31.0,126.0,655.819
655830.0,91.0,120.0,28.0,128.0,655.83
655840.0,89.0,121.0,36.0,122.0,655.84
655850.0,89.0,118.0,41.0,131.0,655.85
655860.0,85.0,114.0,44.0,140.0,655.86
655870.0,81.0,112.0,45.0,142.0,655.87
655880.0,77.0,110.0,42.0,135.0,655.88
655890.0,75.0,107.0,39.0,132.0,655.89
655900.0,70.0,106.0,38.0,142.0,655.9
655910.0,68.0,106.0,35.0,154.0,655.91
655920.0,65.0,107.0,41.0,144.0,655.92
655930.0,72.0,107.0,40.0,138.0,655.93
655940.0,79.0,106.0,36.0,130.0,655.94
655950.0,76.0,108.0,33.0,131.0,655.95
655960.0,84.0,108.0,52.0,120.0,655.96
655970.0,88.0,106.0,47.0,126.0,655.97
655980.0,85.0,106.0,40.0,118.0,655.98
655990.0,82.0,107.0,42.0,109.0,655.99
656000.0,78.0,107.0,46.0,129.0,656.0
656010.0,76.0,106.0,55.0,146.0,656.01
656020.0,74.0,108.0,47.0,145.0,656.02
656030.0,72.0,109.0,42.0,138.0,656.03
656040.0,72.0,108.0,40.0,134.0,656.04
656050.0,72.0,110.0,37.0,139.0,656.05
656060.0,72.0,110.0,34.0,131.0,656.06
656070.0,70.0,111.0,36.0,134.0,656.07
656080.0,67.0,111.0,39.0,137.0,656.08
656090.0,65.0,110.0,38.0,133.0,656.09
656100.0,63.0,111.0,37.0,128.0,656.1
656110.0,62.0,110.0,54.0,135.0,656.11
656120.0,60.0,110.0,49.0,131.0,656.12
656130.0,59.0,112.0,48.0,123.0,656.13
656140.0,57.0,111.0,42.0,137.0,656.14
656150.0,64.0,113.0,39.0,140.0,656.15
656160.0,69.0,111.0,38.0,139.0,656.16
656171.0,76.0,114.0,33.0,131.0,656.171
656181.0,83.0,114.0,29.0,134.0,656.181
656191.0,78.0,113.0,25.0,126.0,656.191
656201.0,74.0,114.0,29.0,120.0,656.201
656211.0,70.0,114.0,32.0,110.0,656.211
656221.0,70.0,113.0,38.0,119.0,656.221
656231.0,71.0,112.0,39.0,129.0,656.231
656241.0,71.0,111.0,38.0,128.0,656.241
656251.0,68.0,108.0,34.0,125.0,656.251
656261.0,64.0,109.0,29.0,124.0,656.261
656271.0,62.0,109.0,29.0,129.0,656.271
656281.0,59.0,110.0,30.0,125.0,656.281
656291.0,57.0,108.0,28.0,128.0,656.291
656301.0,55.0,109.0,30.0,130.0,656.301
656311.0,54.0,110.0,41.0,129.0,656.311
656321.0,54.0,108.0,39.0,129.0,656.321
656331.0,53.0,109.0,33.0,131.0,656.331
656342.0,56.0,108.0,35.0,130.0,656.342
656352.0,60.0,109.0,31.0,135.0,656.352
656362.0,70.0,109.0,40.0,128.0,656.362
656372.0,76.0,110.0,43.0,124.0,656.372
656382.0,74.0,109.0,37.0,122.0,656.382
656392.0,73.0,110.0,36.0,125.0,656.392
656402.0,69.0,111.0,33.0,120.0,656.402
656412.0,68.0,110.0,40.0,119.0,656.412
656422.0,66.0,111.0,36.0,118.0,656.422
656432.0,63.0,114.0,37.0,120.0,656.432
656442.0,62.0,113.0,37.0,135.0,656.442
656452.0,61.0,112.0,37.0,125.0,656.452
656462.0,60.0,110.0,38.0,130.0,656.462
656472.0,60.0,108.0,37.0,130.0,656.472
656482.0,61.0,107.0,45.0,127.0,656.482
656492.0,60.0,104.0,38.0,125.0,656.492
656502.0,57.0,103.0,35.0,117.0,656.502
656512.0,56.0,103.0,31.0,113.0,656.512
656522.0,54.0,102.0,31.0,104.0,656.522
656532.0,54.0,102.0,29.0,112.0,656.532
656542.0,54.0,101.0,31.0,126.0,656.542
656552.0,53.0,101.0,33.0,127.0,656.552
656562.0,52.0,101.0,36.0,123.0,656.562
656572.0,52.0,100.0,34.0,113.0,656.572
656582.0,51.0,101.0,31.0,105.0,656.582
656592.0,51.0,100.0,42.0,112.0,656.592
656602.0,50.0,98.0,38.0,124.0,656.602
656612.0,51.0,99.0,33.0,118.0,656.612
656622.0,51.0,99.0,35.0,112.0,656.622
656632.0,50.0,98.0,31.0,109.0,656.632
656642.0,51.0,96.0,31.0,106.0,656.642
656652.0,50.0,96.0,29.0,105.0,656.652
656662.0,50.0,95.0,26.0,105.0,656.662
656672.0,49.0,94.0,26.0,108.0,656.672
656683.0,49.0,94.0,42.0,105.0,656.683
656693.0,50.0,90.0,40.0,108.0,656.693
656703.0,49.0,92.0,37.0,109.0,656.703
656713.0,47.0,92.0,37.0,109.0,656.713
656723.0,48.0,92.0,34.0,113.0,656.723
656733.0,47.0,92.0,30.0,111.0,656.733
656743.0,47.0,90.0,27.0,114.0,656.743
656753.0,46.0,92.0,23.0,113.0,656.753
656763.0,47.0,91.0,23.0,105.0,656.763
656773.0,47.0,91.0,27.0,102.0,656.773
656783.0,47.0,93.0,36.0,102.0,656.783
656793.0,47.0,90.0,37.0,101.0,656.793
656803.0,46.0,87.0,35.0,96.0,656.803
656813.0,46.0,86.0,33.0,93.0,656.813
656823.0,45.0,85.0,29.0,90.0,656.823
656833.0,47.0,83.0,30.0,87.0,656.833
656843.0,46.0,81.0,25.0,86.0,656.843
656854.0,46.0,81.0,27.0,96.0,656.854
656864.0,45.0,81.0,28.0,109.0,656.864
656874.0,44.0,84.0,26.0,109.0,656.874
656884.0,45.0,84.0,35.0,102.0,656.884
656894.0,45.0,85.0,31.0,98.0,656.894
656904.0,45.0,87.0,35.0,103.0,656.904
656914.0,47.0,85.0,31.0,101.0,656.914
656924.0,47.0,83.0,27.0,109.0,656.924
656934.0,47.0,83.0,28.0,110.0,656.934
656944.0,47.0,83.0,35.0,108.0,656.944
656954.0,48.0,84.0,37.0,101.0,656.954
656964.0,49.0,84.0,35.0,99.0,656.964
656974.0,50.0,83.0,32.0,94.0,656.974
656984.0,50.0,84.0,29.0,91.0,656.984
656994.0,48.0,85.0,27.0,85.0,656.994
657004.0,47.0,87.0,27.0,85.0,657.004
657014.0,47.0,88.0,36.0,93.0,657.014
657024.0,49.0,86.0,33.0,96.0,657.024
657034.0,49.0,86.0,28.0,101.0,657.034
657044.0,49.0,86.0,33.0,104.0,657.044
657054.0,48.0,86.0,30.0,95.0,657.054
657064.0,48.0,86.0,30.0,96.0,657.064
657074.0,48.0,84.0,28.0,101.0,657.074
657084.0,48.0,85.0,27.0,108.0,657.084
657094.0,49.0,86.0,48.0,126.0,657.094
657104.0,52.0,84.0,43.0,124.0,657.104
657114.0,53.0,86.0,41.0,121.0,657.114
657124.0,54.0,85.0,56.0,134.0,657.124
657134.0,54.0,88.0,54.0,128.0,657.134
657144.0,53.0,87.0,51.0,127.0,657.144
657154.0,54.0,85.0,46.0,127.0,657.154
657164.0,53.0,83.0,40.0,125.0,657.164
657174.0,52.0,83.0,35.0,127.0,657.174
657184.0,51.0,84.0,34.0,122.0,657.184
657195.0,50.0,83.0,34.0,121.0,657.195
657205.0,49.0,82.0,32.0,121.0,657.205
657215.0,49.0,81.0,28.0,117.0,657.215
657225.0,48.0,81.0,28.0,111.0,657.225
657235.0,49.0,80.0,25.0,111.0,657.235
657245.0,49.0,80.0,29.0,111.0,657.245
657255.0,51.0,77.0,26.0,114.0,657.255
657265.0,51.0,77.0,30.0,128.0,657.265
657275.0,51.0,76.0,37.0,120.0,657.275
657285.0,51.0,76.0,46.0,122.0,657.285
657295.0,52.0,76.0,49.0,119.0,657.295
657305.0,55.0,73.0,61.0,135.0,657.305
657315.0,56.0,71.0,52.0,141.0,657.315
657325.0,56.0,71.0,47.0,135.0,657.325
657335.0,56.0,71.0,41.0,145.0,657.335
657345.0,55.0,71.0,36.0,141.0,657.345
657355.0,56.0,71.0,38.0,140.0,657.355
657366.0,55.0,71.0,37.0,140.0,657.366
657376.0,53.0,73.0,44.0,132.0,657.376
657386.0,53.0,72.0,45.0,125.0,657.386
657396.0,55.0,71.0,41.0,132.0,657.396
657406.0,57.0,70.0,38.0,129.0,657.406
657416.0,55.0,71.0,36.0,138.0,657.416
657426.0,57.0,70.0,32.0,130.0,657.426
657436.0,56.0,70.0,30.0,127.0,657.436
657446.0,55.0,69.0,29.0,117.0,657.446
657456.0,55.0,70.0,29.0,122.0,657.456
657466.0,54.0,67.0,33.0,128.0,657.466
657476.0,53.0,66.0,32.0,119.0,657.476
657486.0,53.0,65.0,29.0,119.0,657.486
657496.0,53.0,65.0,35.0,123.0,657.496
657506.0,54.0,63.0,36.0,120.0,657.506
657516.0,54.0,60.0,33.0,116.0,657.516
657526.0,54.0,61.0,29.0,115.0,657.526
657536.0,53.0,60.0,28.0,113.0,657.536
657546.0,52.0,59.0,25.0,105.0,657.546
657556.0,52.0,59.0,23.0,105.0,657.556
657566.0,51.0,58.0,26.0,104.0,657.566
657576.0,50.0,57.0,25.0,102.0,657.576
657586.0,52.0,56.0,23.0,101.0,657.586
657596.0,51.0,56.0,20.0,111.0,657.596
657606.0,51.0,56.0,33.0,108.0,657.606
657616.0,51.0,56.0,28.0,122.0,657.616
657626.0,52.0,54.0,26.0,126.0,657.626
657636.0,52.0,54.0,28.0,113.0,657.636
657646.0,51.0,54.0,29.0,123.0,657.646
657656.0,51.0,52.0,26.0,122.0,657.656
657666.0,50.0,52.0,29.0,119.0,657.666
657676.0,52.0,51.0,32.0,115.0,657.676
657686.0,50.0,50.0,28.0,112.0,657.686
657696.0,49.0,50.0,26.0,112.0,657.696
657707.0,49.0,48.0,24.0,120.0,657.707
657717.0,48.0,49.0,21.0,119.0,657.717
657727.0,48.0,51.0,29.0,109.0,657.727
657737.0,49.0,49.0,28.0,118.0,657.737
657747.0,48.0,50.0,28.0,119.0,657.747
657757.0,49.0,50.0,25.0,122.0,657.757
657767.0,48.0,49.0,23.0,118.0,657.767
657777.0,48.0,49.0,20.0,112.0,657.777
657787.0,48.0,51.0,19.0,121.0,657.787
657797.0,48.0,50.0,18.0,124.0,657.797
657807.0,47.0,52.0,18.0,119.0,657.807
657817.0,47.0,53.0,16.0,119.0,657.817
657827.0,47.0,52.0,21.0,112.0,657.827
657837.0,47.0,53.0,23.0,115.0,657.837
657847.0,47.0,52.0,21.0,123.0,657.847
657857.0,46.0,51.0,18.0,126.0,657.857
657867.0,46.0,53.0,21.0,122.0,657.867
657878.0,46.0,53.0,25.0,124.0,657.878
657888.0,47.0,53.0,23.0,117.0,657.888
657898.0,46.0,54.0,21.0,110.0,657.898
657908.0,46.0,55.0,18.0,106.0,657.908
657918.0,45.0,56.0,17.0,110.0,657.918
657928.0,44.0,56.0,16.0,117.0,657.928
657938.0,44.0,55.0,16.0,127.0,657.938
657948.0,45.0,55.0,16.0,123.0,657.948
657958.0,45.0,52.0,19.0,127.0,657.958
657968.0,44.0,51.0,19.0,144.0,657.968
657978.0,45.0,49.0,17.0,139.0,657.978
657988.0,45.0,49.0,15.0,133.0,657.988
657998.0,44.0,49.0,14.0,122.0,657.998
658008.0,44.0,47.0,13.0,119.0,658.008
658018.0,45.0,50.0,17.0,117.0,658.018
658028.0,45.0,49.0,28.0,122.0,658.028
658038.0,46.0,49.0,25.0,120.0,658.038
658048.0,44.0,49.0,22.0,116.0,658.048
658058.0,45.0,50.0,27.0,109.0,658.058
658068.0,43.0,52.0,24.0,102.0,658.068
658078.0,45.0,51.0,25.0,112.0,658.078
658088.0,44.0,50.0,25.0,110.0,658.088
658098.0,44.0,51.0,26.0,105.0,658.098
658108.0,44.0,51.0,37.0,108.0,658.108
658118.0,44.0,51.0,35.0,104.0,658.118
658128.0,45.0,51.0,33.0,100.0,658.128
658138.0,44.0,53.0,34.0,101.0,658.138
658148.0,44.0,52.0,33.0,106.0,658.148
658158.0,43.0,52.0,28.0,108.0,658.158
658168.0,44.0,52.0,26.0,106.0,658.168
658178.0,44.0,51.0,24.0,104.0,658.178
658188.0,43.0,53.0,24.0,105.0,658.188
658198.0,44.0,53.0,21.0,104.0,658.198
658208.0,43.0,54.0,20.0,113.0,658.208
658219.0,42.0,52.0,20.0,119.0,658.219
658229.0,45.0,57.0,22.0,116.0,658.229
658239.0,46.0,54.0,22.0,110.0,658.239
658249.0,45.0,54.0,19.0,108.0,658.249
658259.0,44.0,55.0,21.0,104.0,658.259
658269.0,46.0,53.0,21.0,103.0,658.269
658279.0,45.0,54.0,18.0,101.0,658.279
658289.0,45.0,54.0,20.0,102.0,658.289
658299.0,44.0,57.0,19.0,110.0,658.299
658309.0,45.0,54.0,17.0,112.0,658.309
658319.0,45.0,56.0,17.0,108.0,658.319
658329.0,45.0,56.0,26.0,111.0,658.329
658339.0,46.0,54.0,27.0,106.0,658.339
658349.0,45.0,54.0,24.0,108.0,658.349
658359.0,44.0,51.0,22.0,103.0,658.359
658369.0,45.0,51.0,24.0,121.0,658.369
658379.0,45.0,50.0,21.0,114.0,658.379
658390.0,46.0,51.0,19.0,111.0,658.39
658400.0,45.0,50.0,17.0,104.0,658.4
658410.0,45.0,49.0,15.0,95.0,658.41
658420.0,45.0,51.0,21.0,102.0,658.42
658430.0,45.0,49.0,20.0,102.0,658.43
658440.0,47.0,51.0,35.0,98.0,658.44
658450.0,47.0,48.0,33.0,91.0,658.45
658460.0,46.0,47.0,32.0,93.0,658.46
658470.0,46.0,46.0,28.0,89.0,658.47
658480.0,46.0,46.0,25.0,88.0,658.48
658490.0,45.0,48.0,23.0,107.0,658.49
658500.0,44.0,49.0,20.0,123.0,658.5
658510.0,46.0,49.0,20.0,123.0,658.51
658520.0,45.0,49.0,21.0,122.0,658.52
658530.0,43.0,48.0,18.0,116.0,658.53
658540.0,42.0,49.0,22.0,111.0,658.54
658550.0,44.0,48.0,25.0,104.0,658.55
658560.0,42.0,49.0,40.0,104.0,658.56
658570.0,44.0,48.0,36.0,118.0,658.57
658580.0,43.0,50.0,33.0,121.0,658.58
658590.0,44.0,48.0,36.0,112.0,658.59
658600.0,43.0,50.0,34.0,109.0,658.6
658610.0,43.0,51.0,32.0,109.0,658.61
658620.0,44.0,51.0,28.0,126.0,658.62
658630.0,44.0,52.0,24.0,126.0,658.63
658640.0,46.0,50.0,23.0,125.0,658.64
658650.0,46.0,53.0,27.0,130.0,658.65
658660.0,47.0,54.0,28.0,122.0,658.66
658670.0,48.0,53.0,27.0,111.0,658.67
658680.0,47.0,54.0,25.0,108.0,658.68
658690.0,48.0,54.0,23.0,103.0,658.69
658700.0,47.0,53.0,21.0,103.0,658.7
658710.0,47.0,55.0,26.0,109.0,658.71
658720.0,47.0,54.0,35.0,124.0,658.72
658731.0,47.0,52.0,34.0,124.0,658.731
658741.0,47.0,51.0,30.0,115.0,658.741
658751.0,47.0,51.0,28.0,109.0,658.751
658761.0,49.0,49.0,25.0,106.0,658.761
658771.0,48.0,50.0,22.0,106.0,658.771
658781.0,49.0,49.0,21.0,101.0,658.781
658791.0,48.0,50.0,21.0,113.0,658.791
658801.0,48.0,50.0,20.0,114.0,658.801
658811.0,48.0,51.0,19.0,119.0,658.811
658821.0,48.0,51.0,19.0,125.0,658.821
658831.0,48.0,51.0,19.0,125.0,658.831
658841.0,47.0,51.0,17.0,115.0,658.841
658851.0,47.0,50.0,15.0,105.0,658.851
658861.0,47.0,52.0,14.0,103.0,658.861
658871.0,47.0,52.0,17.0,123.0,658.871
658881.0,46.0,52.0,19.0,122.0,658.881
658891.0,46.0,52.0,18.0,116.0,658.891
658902.0,46.0,52.0,34.0,123.0,658.902
658912.0,47.0,51.0,29.0,145.0,658.912
658922.0,46.0,49.0,27.0,140.0,658.922
658932.0,46.0,49.0,23.0,139.0,658.932
658942.0,46.0,49.0,23.0,126.0,658.942
658952.0,45.0,49.0,29.0,123.0,658.952
658962.0,44.0,49.0,26.0,123.0,658.962
658972.0,45.0,50.0,24.0,124.0,658.972
658982.0,45.0,52.0,21.0,122.0,658.982
658992.0,45.0,52.0,19.0,116.0,658.992
659002.0,45.0,55.0,17.0,109.0,659.002
659012.0,46.0,55.0,19.0,113.0,659.012
659022.0,47.0,54.0,18.0,114.0,659.022
659032.0,45.0,56.0,18.0,117.0,659.032
659042.0,45.0,57.0,17.0,127.0,659.042
659052.0,45.0,55.0,23.0,128.0,659.052
659062.0,46.0,54.0,20.0,120.0,659.062
659072.0,45.0,56.0,27.0,113.0,659.072
659082.0,46.0,55.0,31.0,111.0,659.082
659092.0,47.0,55.0,28.0,104.0,659.092
659102.0,47.0,54.0,26.0,98.0,659.102
659112.0,46.0,55.0,22.0,98.0,659.112
659122.0,46.0,57.0,19.0,92.0,659.122
659132.0,46.0,54.0,19.0,87.0,659.132
659142.0,45.0,56.0,17.0,90.0,659.142
659152.0,45.0,57.0,15.0,105.0,659.152
659162.0,46.0,56.0,14.0,105.0,659.162
659172.0,45.0,56.0,13.0,118.0,659.172
659182.0,47.0,57.0,11.0,111.0,659.182
659192.0,46.0,56.0,10.0,121.0,659.192
659202.0,46.0,56.0,12.0,123.0,659.202
659212.0,46.0,57.0,13.0,132.0,659.212
659222.0,46.0,56.0,13.0,123.0,659.222
659232.0,45.0,57.0,14.0,121.0,659.232
659243.0,45.0,56.0,12.0,116.0,659.243
659253.0,46.0,56.0,11.0,109.0,659.253
659263.0,46.0,56.0,13.0,117.0,659.263
659273.0,46.0,53.0,13.0,110.0,659.273
659283.0,46.0,54.0,17.0,109.0,659.283
659293.0,45.0,50.0,16.0,104.0,659.293
659303.0,47.0,51.0,16.0,100.0,659.303
659313.0,46.0,52.0,18.0,102.0,659.313
659323.0,46.0,52.0,19.0,102.0,659.323
659333.0,46.0,52.0,18.0,106.0,659.333
659343.0,47.0,50.0,15.0,108.0,659.343
659353.0,47.0,51.0,14.0,107.0,659.353
659363.0,48.0,50.0,13.0,103.0,659.363
659373.0,48.0,51.0,19.0,100.0,659.373
659383.0,48.0,53.0,28.0,100.0,659.383
659393.0,50.0,53.0,30.0,125.0,659.393
659403.0,51.0,53.0,27.0,129.0,659.403
659414.0,51.0,52.0,25.0,121.0,659.414
659424.0,51.0,53.0,21.0,114.0,659.424
659434.0,51.0,52.0,19.0,122.0,659.434
659444.0,52.0,53.0,16.0,123.0,659.444
659454.0,51.0,55.0,15.0,111.0,659.454
659464.0,50.0,55.0,14.0,135.0,659.464
659474.0,50.0,56.0,13.0,131.0,659.474
659484.0,50.0,55.0,12.0,125.0,659.484
659494.0,50.0,56.0,13.0,132.0,659.494
659504.0,52.0,55.0,14.0,127.0,659.504
659514.0,51.0,55.0,11.0,114.0,659.514
659524.0,52.0,57.0,11.0,106.0,659.524
659534.0,52.0,59.0,10.0,105.0,659.534
659544.0,52.0,60.0,8.0,104.0,659.544
659554.0,53.0,62.0,8.0,119.0,659.554
659564.0,53.0,64.0,8.0,126.0,659.564
659574.0,53.0,64.0,11.0,122.0,659.574
659584.0,54.0,65.0,10.0,119.0,659.584
659594.0,53.0,67.0,9.0,126.0,659.594
659604.0,55.0,65.0,10.0,131.0,659.604
659614.0,54.0,65.0,8.0,120.0,659.614
659624.0,56.0,66.0,12.0,126.0,659.624
659634.0,57.0,66.0,15.0,117.0,659.634
659644.0,59.0,65.0,14.0,108.0,659.644
659654.0,62.0,64.0,13.0,109.0,659.654
659664.0,61.0,66.0,12.0,104.0,659.664
659674.0,63.0,66.0,11.0,107.0,659.674
659684.0,61.0,67.0,10.0,107.0,659.684
659694.0,62.0,64.0,9.0,109.0,659.694
659704.0,62.0,64.0,11.0,104.0,659.704
659714.0,62.0,65.0,13.0,98.0,659.714
659724.0,61.0,64.0,10.0,101.0,659.724
659734.0,61.0,65.0,13.0,115.0,659.734
659744.0,60.0,65.0,13.0,118.0,659.744
659755.0,60.0,66.0,12.0,122.0,659.755
659765.0,61.0,66.0,14.0,125.0,659.765
659775.0,61.0,69.0,13.0,124.0,659.775
659785.0,62.0,70.0,14.0,127.0,659.785
659795.0,61.0,70.0,13.0,125.0,659.795
659805.0,64.0,69.0,13.0,120.0,659.805
659815.0,62.0,71.0,20.0,117.0,659.815
659825.0,62.0,70.0,24.0,120.0,659.825
659835.0,63.0,70.0,22.0,118.0,659.835
659845.0,61.0,71.0,21.0,110.0,659.845
659855.0,61.0,71.0,18.0,104.0,659.855
659865.0,63.0,70.0,16.0,99.0,659.865
659875.0,62.0,71.0,15.0,96.0,659.875
659885.0,62.0,71.0,15.0,108.0,659.885
659895.0,60.0,72.0,16.0,104.0,659.895
659905.0,61.0,71.0,15.0,107.0,659.905
659915.0,59.0,73.0,15.0,108.0,659.915
659926.0,59.0,71.0,18.0,110.0,659.926
659936.0,57.0,69.0,15.0,115.0,659.936
659946.0,55.0,69.0,14.0,120.0,659.946
659956.0,56.0,69.0,13.0,120.0,659.956
659966.0,55.0,70.0,11.0,114.0,659.966
659976.0,54.0,69.0,11.0,102.0,659.976
659986.0,53.0,71.0,9.0,98.0,659.986
659996.0,51.0,70.0,9.0,97.0,659.996
660006.0,49.0,71.0,8.0,94.0,660.006
660016.0,48.0,72.0,7.0,89.0,660.016
660026.0,48.0,73.0,11.0,95.0,660.026
660036.0,47.0,74.0,13.0,96.0,660.036
660046.0,47.0,74.0,12.0,103.0,660.046
660056.0,46.0,76.0,11.0,99.0,660.056
660066.0,45.0,75.0,14.0,101.0,660.066
660076.0,45.0,74.0,13.0,104.0,660.076
660086.0,44.0,76.0,14.0,113.0,660.086
660096.0,44.0,77.0,18.0,117.0,660.096
660106.0,44.0,77.0,16.0,115.0,660.106
660116.0,43.0,78.0,15.0,103.0,660.116
660126.0,43.0,79.0,13.0,101.0,660.126
660136.0,45.0,79.0,14.0,100.0,660.136
660146.0,44.0,81.0,12.0,91.0,660.146
660156.0,43.0,82.0,14.0,98.0,660.156
660166.0,44.0,83.0,17.0,129.0,660.166
660176.0,44.0,84.0,15.0,125.0,660.176
660186.0,43.0,85.0,17.0,127.0,660.186
660196.0,45.0,87.0,16.0,122.0,660.196
660206.0,45.0,86.0,16.0,114.0,660.206
660216.0,45.0,87.0,14.0,108.0,660.216
660226.0,44.0,87.0,14.0,108.0,660.226
660236.0,44.0,87.0,13.0,105.0,660.236
660246.0,43.0,89.0,13.0,97.0,660.246
660256.0,44.0,88.0,12.0,100.0,660.256
660267.0,43.0,92.0,15.0,97.0,660.267
660277.0,44.0,91.0,14.0,97.0,660.277
660287.0,45.0,90.0,12.0,91.0,660.287
660297.0,44.0,91.0,14.0,90.0,660.297
660307.0,45.0,92.0,17.0,91.0,660.307
660317.0,45.0,92.0,14.0,90.0,660.317
660327.0,44.0,92.0,13.0,94.0,660.327
660337.0,44.0,92.0,12.0,86.0,660.337
660347.0,43.0,92.0,15.0,85.0,660.347
660357.0,43.0,91.0,12.0,88.0,660.357
660367.0,42.0,92.0,12.0,98.0,660.367
660377.0,44.0,90.0,11.0,95.0,660.377
660387.0,43.0,91.0,10.0,95.0,660.387
660397.0,44.0,90.0,9.0,96.0,660.397
660407.0,44.0,87.0,9.0,93.0,660.407
660417.0,44.0,88.0,11.0,101.0,660.417
660427.0,44.0,88.0,12.0,109.0,660.427
660438.0,44.0,86.0,12.0,108.0,660.438
660448.0,45.0,86.0,12.0,102.0,660.448
660458.0,43.0,87.0,11.0,96.0,660.458
660468.0,45.0,85.0,11.0,104.0,660.468
660478.0,44.0,86.0,16.0,118.0,660.478
660488.0,44.0,84.0,15.0,116.0,660.488
660498.0,43.0,83.0,14.0,111.0,660.498
660508.0,44.0,83.0,17.0,112.0,660.508
660518.0,43.0,81.0,19.0,113.0,660.518
660528.0,43.0,82.0,19.0,106.0,660.528
660538.0,42.0,79.0,18.0,108.0,660.538
660548.0,41.0,79.0,16.0,104.0,660.548
660558.0,42.0,78.0,15.0,100.0,660.558
660568.0,42.0,78.0,13.0,100.0,660.568
660578.0,42.0,80.0,16.0,98.0,660.578
660588.0,42.0,77.0,15.0,100.0,660.588
660598.0,40.0,78.0,13.0,99.0,660.598
660608.0,42.0,78.0,13.0,94.0,660.608
660618.0,41.0,78.0,11.0,86.0,660.618
660628.0,42.0,78.0,12.0,83.0,660.628
660638.0,42.0,77.0,15.0,83.0,660.638
660648.0,41.0,77.0,14.0,89.0,660.648
660658.0,42.0,77.0,13.0,88.0,660.658
660668.0,42.0,76.0,13.0,88.0,660.668
660678.0,42.0,74.0,15.0,86.0,660.678
660688.0,41.0,73.0,13.0,95.0,660.688
660698.0,42.0,73.0,14.0,101.0,660.698
660708.0,42.0,73.0,12.0,114.0,660.708
660718.0,41.0,74.0,10.0,112.0,660.718
660728.0,44.0,75.0,13.0,114.0,660.728
660738.0,42.0,74.0,14.0,118.0,660.738
660748.0,42.0,72.0,14.0,111.0,660.748
660758.0,42.0,73.0,12.0,114.0,660.758
660768.0,43.0,74.0,15.0,116.0,660.768
660779.0,43.0,72.0,18.0,113.0,660.779
660789.0,42.0,72.0,16.0,109.0,660.789
660799.0,43.0,73.0,17.0,103.0,660.799
660809.0,43.0,75.0,17.0,145.0,660.809
660819.0,43.0,75.0,16.0,150.0,660.819
660829.0,42.0,76.0,14.0,149.0,660.829
660839.0,42.0,74.0,13.0,142.0,660.839
660849.0,43.0,74.0,12.0,136.0,660.849
660859.0,42.0,76.0,16.0,131.0,660.859
660869.0,44.0,77.0,15.0,126.0,660.869
660879.0,44.0,77.0,14.0,118.0,660.879
660889.0,45.0,76.0,13.0,115.0,660.889
660899.0,44.0,78.0,14.0,112.0,660.899
660909.0,45.0,76.0,13.0,133.0,660.909
660919.0,46.0,75.0,12.0,129.0,660.919
660929.0,45.0,75.0,12.0,125.0,660.929
660939.0,46.0,73.0,16.0,124.0,660.939
660950.0,46.0,72.0,16.0,127.0,660.95
660960.0,47.0,71.0,17.0,124.0,660.96
660970.0,48.0,71.0,16.0,123.0,660.97
660980.0,51.0,69.0,15.0,114.0,660.98
660990.0,49.0,70.0,13.0,117.0,660.99
661000.0,49.0,70.0,13.0,117.0,661.0
661010.0,50.0,69.0,12.0,116.0,661.01
661020.0,50.0,68.0,12.0,108.0,661.02
661030.0,52.0,66.0,12.0,104.0,661.03
661040.0,53.0,68.0,11.0,102.0,661.04
661050.0,55.0,68.0,10.0,107.0,661.05
661060.0,54.0,71.0,13.0,119.0,661.06
661070.0,55.0,71.0,14.0,119.0,661.07
661080.0,54.0,72.0,13.0,120.0,661.08
661090.0,52.0,73.0,14.0,117.0,661.09
661100.0,52.0,72.0,16.0,116.0,661.1
661110.0,53.0,72.0,16.0,120.0,661.11
661120.0,53.0,72.0,16.0,117.0,661.12
661130.0,52.0,74.0,17.0,124.0,661.13
661140.0,52.0,74.0,16.0,117.0,661.14
661150.0,53.0,74.0,18.0,112.0,661.15
661160.0,51.0,76.0,17.0,112.0,661.16
661170.0,51.0,76.0,18.0,105.0,661.17
661180.0,50.0,77.0,18.0,106.0,661.18
661190.0,50.0,77.0,17.0,100.0,661.19
661200.0,48.0,77.0,15.0,106.0,661.2
661210.0,47.0,78.0,14.0,110.0,661.21
661220.0,48.0,77.0,13.0,103.0,661.22
661230.0,47.0,80.0,12.0,107.0,661.23
661240.0,47.0,80.0,16.0,98.0,661.24
661250.0,48.0,79.0,15.0,107.0,661.25
661260.0,47.0,78.0,14.0,110.0,661.26
661270.0,48.0,77.0,13.0,108.0,661.27
661280.0,46.0,77.0,12.0,115.0,661.28
661291.0,46.0,77.0,12.0,108.0,661.291
661301.0,44.0,78.0,12.0,106.0,661.301
661311.0,45.0,77.0,11.0,103.0,661.311
661321.0,44.0,79.0,11.0,100.0,661.321
661331.0,44.0,79.0,12.0,99.0,661.331
661341.0,44.0,79.0,11.0,95.0,661.341
661351.0,42.0,80.0,10.0,98.0,661.351
661361.0,43.0,81.0,18.0,94.0,661.361
661371.0,43.0,82.0,17.0,105.0,661.371
661381.0,42.0,81.0,16.0,106.0,661.381
661391.0,42.0,83.0,16.0,106.0,661.391
661401.0,41.0,83.0,17.0,113.0,661.401
661411.0,42.0,82.0,19.0,110.0,661.411
661421.0,42.0,83.0,19.0,106.0,661.421
661431.0,41.0,84.0,19.0,101.0,661.431
661441.0,42.0,83.0,16.0,101.0,661.441
661451.0,42.0,82.0,16.0,103.0,661.451
661462.0,43.0,83.0,15.0,110.0,661.462
661472.0,43.0,81.0,15.0,101.0,661.472
661482.0,44.0,81.0,13.0,98.0,661.482
661492.0,44.0,80.0,16.0,93.0,661.492
661502.0,44.0,79.0,16.0,93.0,661.502
661512.0,44.0,78.0,14.0,94.0,661.512
661522.0,44.0,76.0,13.0,96.0,661.522
661532.0,45.0,75.0,13.0,96.0,661.532
661542.0,45.0,75.0,13.0,91.0,661.542
661552.0,44.0,75.0,17.0,88.0,661.552
661562.0,44.0,77.0,19.0,88.0,661.562
661572.0,46.0,76.0,18.0,89.0,661.572
661582.0,47.0,77.0,19.0,86.0,661.582
661592.0,48.0,75.0,18.0,87.0,661.592
661602.0,47.0,77.0,15.0,80.0,661.602
661612.0,47.0,78.0,20.0,90.0,661.612
661622.0,49.0,76.0,18.0,89.0,661.622
661632.0,48.0,78.0,16.0,85.0,661.632
661642.0,49.0,77.0,17.0,91.0,661.642
661652.0,48.0,78.0,15.0,93.0,661.652
661662.0,48.0,76.0,17.0,102.0,661.662
661672.0,48.0,77.0,19.0,104.0,661.672
661682.0,48.0,74.0,17.0,106.0,661.682
661692.0,48.0,74.0,16.0,111.0,661.692
661702.0,47.0,73.0,14.0,104.0,661.702
661712.0,47.0,72.0,14.0,101.0,661.712
661722.0,47.0,74.0,13.0,98.0,661.722
661732.0,47.0,72.0,12.0,96.0,661.732
661742.0,47.0,73.0,10.0,94.0,661.742
