time (ms),signal 0,signal 1,signal 2,signal3,time (sec)
687249.0,52.0,52.0,21.0,54.0,687.249
687259.0,52.0,53.0,22.0,55.0,687.259
687269.0,52.0,54.0,21.0,53.0,687.269
687279.0,52.0,58.0,23.0,52.0,687.279
687289.0,53.0,57.0,23.0,51.0,687.289
687299.0,54.0,57.0,20.0,52.0,687.299
687309.0,54.0,58.0,19.0,49.0,687.309
687319.0,57.0,56.0,17.0,49.0,687.319
687329.0,56.0,58.0,16.0,47.0,687.329
687339.0,57.0,56.0,14.0,46.0,687.339
687349.0,57.0,56.0,12.0,48.0,687.349
687360.0,56.0,56.0,12.0,50.0,687.36
687370.0,56.0,57.0,10.0,48.0,687.37
687380.0,56.0,56.0,10.0,49.0,687.38
687390.0,57.0,57.0,13.0,49.0,687.39
687400.0,58.0,58.0,14.0,47.0,687.4
687410.0,58.0,56.0,13.0,44.0,687.41
687420.0,57.0,57.0,12.0,43.0,687.42
687430.0,59.0,58.0,11.0,41.0,687.43
687440.0,58.0,58.0,10.0,48.0,687.44
687450.0,57.0,59.0,17.0,49.0,687.45
687460.0,56.0,59.0,16.0,51.0,687.46
687470.0,58.0,60.0,18.0,52.0,687.47
687480.0,59.0,58.0,17.0,54.0,687.48
687490.0,59.0,57.0,23.0,54.0,687.49
687500.0,60.0,55.0,21.0,51.0,687.5
687510.0,60.0,54.0,18.0,53.0,687.51
687520.0,60.0,51.0,17.0,51.0,687.52
687531.0,61.0,49.0,17.0,55.0,687.531
687541.0,61.0,49.0,16.0,52.0,687.541
687551.0,63.0,46.0,15.0,50.0,687.551
687561.0,63.0,45.0,13.0,48.0,687.561
687571.0,63.0,46.0,13.0,51.0,687.571
687581.0,66.0,44.0,11.0,51.0,687.581
687591.0,65.0,45.0,12.0,48.0,687.591
687601.0,65.0,45.0,12.0,49.0,687.601
687611.0,65.0,51.0,11.0,46.0,687.611
687621.0,64.0,54.0,10.0,44.0,687.621
687631.0,65.0,55.0,9.0,57.0,687.631
687641.0,65.0,59.0,10.0,54.0,687.641
687651.0,65.0,65.0,10.0,53.0,687.651
687661.0,65.0,75.0,10.0,67.0,687.661
687671.0,67.0,75.0,12.0,73.0,687.671
687681.0,65.0,81.0,14.0,71.0,687.681
687691.0,67.0,90.0,17.0,68.0,687.691
687702.0,67.0,94.0,21.0,65.0,687.702
687712.0,66.0,90.0,21.0,62.0,687.712
687722.0,66.0,96.0,22.0,59.0,687.722
687732.0,66.0,102.0,28.0,56.0,687.732
687742.0,63.0,104.0,30.0,55.0,687.742
687752.0,64.0,99.0,29.0,57.0,687.752
687762.0,62.0,96.0,29.0,55.0,687.762
687772.0,63.0,97.0,28.0,59.0,687.772
687782.0,65.0,94.0,26.0,60.0,687.782
687792.0,68.0,94.0,29.0,65.0,687.792
687802.0,68.0,94.0,33.0,68.0,687.802
687812.0,66.0,97.0,47.0,72.0,687.812
687822.0,65.0,98.0,46.0,91.0,687.822
687832.0,65.0,93.0,45.0,101.0,687.832
687842.0,63.0,92.0,43.0,104.0,687.842
687852.0,60.0,90.0,39.0,103.0,687.852
687862.0,68.0,110.0,38.0,97.0,687.862
687872.0,71.0,125.0,34.0,97.0,687.872
687882.0,70.0,123.0,30.0,100.0,687.882
687892.0,67.0,116.0,30.0,96.0,687.892
687902.0,64.0,106.0,29.0,91.0,687.902
687912.0,61.0,99.0,36.0,86.0,687.912
687922.0,65.0,94.0,50.0,82.0,687.922
687932.0,63.0,87.0,54.0,85.0,687.932
687942.0,60.0,82.0,51.0,82.0,687.942
687952.0,60.0,81.0,50.0,81.0,687.952
687962.0,58.0,79.0,56.0,85.0,687.962
687972.0,59.0,78.0,55.0,81.0,687.972
687982.0,57.0,75.0,49.0,84.0,687.982
687992.0,58.0,75.0,61.0,82.0,687.992
688002.0,56.0,72.0,67.0,80.0,688.002
688012.0,55.0,71.0,68.0,79.0,688.012
688022.0,55.0,69.0,77.0,79.0,688.022
688032.0,53.0,68.0,67.0,90.0,688.032
688043.0,54.0,68.0,99.0,106.0,688.043
688053.0,53.0,65.0,95.0,116.0,688.053
688063.0,54.0,66.0,88.0,117.0,688.063
688073.0,52.0,66.0,77.0,120.0,688.073
688083.0,51.0,65.0,67.0,120.0,688.083
688093.0,52.0,67.0,62.0,115.0,688.093
688103.0,50.0,69.0,55.0,104.0,688.103
688113.0,51.0,70.0,59.0,95.0,688.113
688123.0,50.0,70.0,55.0,91.0,688.123
688133.0,51.0,72.0,57.0,90.0,688.133
688143.0,51.0,75.0,58.0,88.0,688.143
688153.0,50.0,78.0,71.0,85.0,688.153
688163.0,49.0,79.0,63.0,87.0,688.163
688173.0,49.0,82.0,56.0,83.0,688.173
688183.0,48.0,80.0,54.0,84.0,688.183
688193.0,47.0,80.0,47.0,83.0,688.193
688203.0,47.0,81.0,44.0,79.0,688.203
688214.0,46.0,81.0,37.0,76.0,688.214
688224.0,45.0,83.0,35.0,76.0,688.224
688234.0,45.0,85.0,32.0,74.0,688.234
688244.0,45.0,89.0,45.0,72.0,688.244
688254.0,46.0,89.0,52.0,71.0,688.254
688264.0,45.0,88.0,47.0,71.0,688.264
688274.0,46.0,88.0,45.0,67.0,688.274
688284.0,45.0,88.0,38.0,65.0,688.284
688294.0,44.0,89.0,36.0,65.0,688.294
688304.0,44.0,89.0,32.0,62.0,688.304
688314.0,45.0,90.0,31.0,68.0,688.314
688324.0,44.0,91.0,29.0,62.0,688.324
688334.0,44.0,94.0,32.0,58.0,688.334
688344.0,45.0,95.0,44.0,56.0,688.344
688354.0,44.0,94.0,40.0,56.0,688.354
688364.0,45.0,95.0,37.0,54.0,688.364
688374.0,46.0,95.0,45.0,54.0,688.374
688384.0,46.0,96.0,40.0,56.0,688.384
688394.0,44.0,94.0,35.0,54.0,688.394
688404.0,44.0,93.0,32.0,53.0,688.404
688414.0,44.0,93.0,30.0,53.0,688.414
688424.0,43.0,91.0,24.0,49.0,688.424
688434.0,43.0,91.0,24.0,47.0,688.434
688444.0,45.0,92.0,26.0,47.0,688.444
688454.0,45.0,91.0,29.0,50.0,688.454
688464.0,46.0,87.0,26.0,47.0,688.464
688474.0,45.0,87.0,23.0,50.0,688.474
688484.0,45.0,86.0,21.0,54.0,688.484
688494.0,43.0,86.0,18.0,51.0,688.494
688504.0,42.0,84.0,16.0,51.0,688.504
688514.0,44.0,84.0,15.0,49.0,688.514
688524.0,43.0,87.0,16.0,50.0,688.524
688534.0,43.0,86.0,17.0,50.0,688.534
688544.0,44.0,88.0,25.0,48.0,688.544
688555.0,44.0,86.0,30.0,48.0,688.555
688565.0,43.0,84.0,26.0,47.0,688.565
688575.0,42.0,83.0,23.0,47.0,688.575
688585.0,42.0,81.0,22.0,46.0,688.585
688595.0,42.0,82.0,19.0,42.0,688.595
688605.0,42.0,82.0,18.0,38.0,688.605
688615.0,41.0,81.0,17.0,39.0,688.615
688625.0,43.0,82.0,19.0,39.0,688.625
688635.0,44.0,81.0,17.0,41.0,688.635
688645.0,43.0,82.0,19.0,41.0,688.645
688655.0,44.0,81.0,18.0,45.0,688.655
688665.0,45.0,81.0,17.0,47.0,688.665
688675.0,48.0,78.0,15.0,43.0,688.675
688685.0,50.0,78.0,13.0,44.0,688.685
688695.0,53.0,78.0,17.0,48.0,688.695
688705.0,53.0,77.0,16.0,47.0,688.705
688715.0,54.0,77.0,16.0,44.0,688.715
688726.0,54.0,77.0,24.0,45.0,688.726
688736.0,55.0,76.0,21.0,45.0,688.736
688746.0,56.0,76.0,25.0,44.0,688.746
688756.0,57.0,75.0,21.0,46.0,688.756
688766.0,59.0,76.0,20.0,45.0,688.766
688776.0,60.0,76.0,20.0,43.0,688.776
688786.0,60.0,78.0,18.0,41.0,688.786
688796.0,61.0,77.0,16.0,47.0,688.796
688806.0,59.0,78.0,18.0,48.0,688.806
688816.0,59.0,78.0,17.0,46.0,688.816
688826.0,60.0,78.0,20.0,45.0,688.826
688836.0,61.0,77.0,19.0,42.0,688.836
688846.0,60.0,75.0,18.0,42.0,688.846
688856.0,58.0,74.0,17.0,40.0,688.856
688866.0,59.0,72.0,15.0,39.0,688.866
688876.0,57.0,74.0,21.0,39.0,688.876
688886.0,58.0,71.0,21.0,38.0,688.886
688896.0,55.0,72.0,19.0,38.0,688.896
688906.0,55.0,72.0,23.0,39.0,688.906
688916.0,53.0,70.0,20.0,42.0,688.916
688926.0,52.0,71.0,18.0,45.0,688.926
688936.0,53.0,69.0,21.0,42.0,688.936
688946.0,51.0,71.0,23.0,40.0,688.946
688956.0,51.0,69.0,20.0,38.0,688.956
688966.0,51.0,69.0,17.0,37.0,688.966
688976.0,51.0,69.0,16.0,38.0,688.976
688986.0,50.0,69.0,14.0,38.0,688.986
688996.0,49.0,71.0,17.0,38.0,688.996
689006.0,48.0,73.0,16.0,39.0,689.006
689016.0,49.0,74.0,14.0,38.0,689.016
689026.0,50.0,73.0,17.0,36.0,689.026
689036.0,49.0,72.0,15.0,36.0,689.036
689046.0,49.0,72.0,15.0,41.0,689.046
689056.0,47.0,72.0,14.0,41.0,689.056
689067.0,46.0,72.0,12.0,39.0,689.067
689077.0,46.0,73.0,13.0,44.0,689.077
689087.0,45.0,73.0,11.0,43.0,689.087
689097.0,45.0,72.0,11.0,39.0,689.097
689107.0,45.0,73.0,9.0,39.0,689.107
689117.0,47.0,72.0,9.0,37.0,689.117
689127.0,47.0,71.0,8.0,35.0,689.127
689137.0,46.0,70.0,7.0,35.0,689.137
689147.0,46.0,68.0,7.0,34.0,689.147
689157.0,46.0,70.0,7.0,33.0,689.157
689167.0,47.0,68.0,7.0,32.0,689.167
689177.0,48.0,68.0,8.0,31.0,689.177
689187.0,49.0,69.0,9.0,31.0,689.187
689197.0,49.0,69.0,8.0,31.0,689.197
689207.0,48.0,68.0,8.0,32.0,689.207
689217.0,49.0,69.0,7.0,33.0,689.217
689227.0,49.0,70.0,6.0,31.0,689.227
689238.0,48.0,71.0,6.0,30.0,689.238
689248.0,49.0,71.0,5.0,29.0,689.248
689258.0,51.0,69.0,7.0,30.0,689.258
689268.0,50.0,69.0,6.0,33.0,689.268
689278.0,52.0,67.0,6.0,33.0,689.278
689288.0,51.0,67.0,6.0,33.0,689.288
689298.0,50.0,67.0,5.0,34.0,689.298
689308.0,49.0,66.0,5.0,34.0,689.308
689318.0,48.0,65.0,5.0,34.0,689.318
689328.0,50.0,63.0,6.0,35.0,689.328
689338.0,49.0,61.0,4.0,37.0,689.338
689348.0,49.0,61.0,5.0,43.0,689.348
689358.0,48.0,63.0,18.0,54.0,689.358
689368.0,50.0,64.0,26.0,76.0,689.368
689378.0,60.0,64.0,42.0,88.0,689.378
689388.0,60.0,69.0,47.0,125.0,689.388
689398.0,67.0,71.0,78.0,139.0,689.398
689408.0,69.0,70.0,104.0,164.0,689.408
689418.0,80.0,81.0,139.0,193.0,689.418
689428.0,91.0,87.0,199.0,207.0,689.428
689438.0,94.0,86.0,225.0,232.0,689.438
689448.0,95.0,88.0,268.0,296.0,689.448
689458.0,102.0,97.0,302.0,366.0,689.458
689468.0,103.0,96.0,315.0,450.0,689.468
689478.0,110.0,102.0,332.0,461.0,689.478
689488.0,108.0,98.0,311.0,471.0,689.488
689498.0,109.0,101.0,325.0,472.0,689.498
689508.0,118.0,100.0,306.0,462.0,689.508
689518.0,122.0,96.0,307.0,431.0,689.518
689528.0,126.0,92.0,295.0,428.0,689.528
689538.0,133.0,87.0,278.0,391.0,689.538
689548.0,135.0,83.0,243.0,380.0,689.548
689558.0,140.0,80.0,226.0,376.0,689.558
689568.0,143.0,78.0,214.0,386.0,689.568
689579.0,146.0,78.0,201.0,371.0,689.579
689589.0,149.0,71.0,176.0,348.0,689.589
689599.0,149.0,72.0,168.0,385.0,689.599
689609.0,149.0,70.0,153.0,388.0,689.609
689619.0,149.0,68.0,142.0,372.0,689.619
689629.0,146.0,66.0,130.0,347.0,689.629
689639.0,146.0,64.0,128.0,320.0,689.639
689649.0,145.0,64.0,115.0,314.0,689.649
689659.0,143.0,65.0,113.0,305.0,689.659
689669.0,141.0,63.0,103.0,288.0,689.669
689679.0,139.0,60.0,97.0,278.0,689.679
689689.0,135.0,61.0,93.0,267.0,689.689
689699.0,132.0,59.0,85.0,253.0,689.699
689709.0,129.0,57.0,78.0,241.0,689.709
689719.0,127.0,58.0,72.0,239.0,689.719
689729.0,126.0,54.0,72.0,216.0,689.729
689739.0,122.0,56.0,77.0,224.0,689.739
689750.0,122.0,54.0,80.0,218.0,689.75
689760.0,121.0,53.0,75.0,201.0,689.76
689770.0,119.0,51.0,75.0,200.0,689.77
689780.0,120.0,49.0,69.0,189.0,689.78
689790.0,118.0,49.0,66.0,186.0,689.79
689800.0,118.0,48.0,73.0,174.0,689.8
689810.0,115.0,47.0,73.0,164.0,689.81
689820.0,114.0,46.0,68.0,159.0,689.82
689830.0,112.0,45.0,66.0,149.0,689.83
689840.0,111.0,45.0,59.0,148.0,689.84
689850.0,108.0,43.0,53.0,144.0,689.85
689860.0,104.0,44.0,51.0,158.0,689.86
689870.0,104.0,45.0,63.0,166.0,689.87
689880.0,103.0,47.0,63.0,155.0,689.88
689890.0,101.0,45.0,65.0,141.0,689.89
689900.0,99.0,43.0,60.0,136.0,689.9
689910.0,98.0,43.0,58.0,129.0,689.91
689920.0,96.0,43.0,56.0,145.0,689.92
689930.0,95.0,44.0,65.0,157.0,689.93
689940.0,95.0,41.0,58.0,144.0,689.94
689950.0,93.0,41.0,53.0,131.0,689.95
689960.0,92.0,42.0,49.0,140.0,689.96
689970.0,90.0,42.0,46.0,149.0,689.97
689980.0,87.0,42.0,42.0,143.0,689.98
689990.0,85.0,41.0,38.0,139.0,689.99
690000.0,83.0,44.0,45.0,150.0,690.0
690010.0,85.0,46.0,51.0,144.0,690.01
690020.0,80.0,47.0,46.0,142.0,690.02
690030.0,79.0,44.0,41.0,141.0,690.03
690040.0,76.0,44.0,41.0,143.0,690.04
690050.0,74.0,44.0,37.0,141.0,690.05
690060.0,72.0,43.0,38.0,136.0,690.06
690070.0,72.0,45.0,37.0,139.0,690.07
690080.0,70.0,44.0,41.0,172.0,690.08
690091.0,68.0,46.0,49.0,191.0,690.091
690101.0,66.0,46.0,46.0,177.0,690.101
690111.0,66.0,49.0,41.0,173.0,690.111
690121.0,63.0,49.0,44.0,183.0,690.121
690131.0,64.0,52.0,38.0,173.0,690.131
690141.0,63.0,54.0,45.0,159.0,690.141
690151.0,62.0,53.0,45.0,155.0,690.151
690161.0,61.0,53.0,44.0,146.0,690.161
690171.0,62.0,52.0,38.0,142.0,690.171
690181.0,62.0,51.0,34.0,137.0,690.181
690191.0,60.0,49.0,32.0,128.0,690.191
690201.0,60.0,47.0,34.0,131.0,690.201
690211.0,57.0,47.0,35.0,132.0,690.211
690221.0,58.0,45.0,33.0,124.0,690.221
690231.0,59.0,46.0,34.0,127.0,690.231
690241.0,60.0,47.0,38.0,123.0,690.241
690251.0,58.0,48.0,33.0,123.0,690.251
690262.0,58.0,48.0,32.0,116.0,690.262
690272.0,58.0,45.0,33.0,113.0,690.272
690282.0,59.0,48.0,31.0,109.0,690.282
690292.0,59.0,47.0,27.0,103.0,690.292
690302.0,57.0,47.0,27.0,114.0,690.302
690312.0,57.0,46.0,27.0,125.0,690.312
690322.0,58.0,50.0,36.0,135.0,690.322
690332.0,59.0,51.0,34.0,128.0,690.332
690342.0,60.0,51.0,32.0,125.0,690.342
690352.0,58.0,52.0,29.0,131.0,690.352
690362.0,57.0,52.0,27.0,128.0,690.362
690372.0,57.0,53.0,24.0,124.0,690.372
690382.0,57.0,52.0,22.0,114.0,690.382
690392.0,57.0,51.0,21.0,123.0,690.392
690402.0,57.0,53.0,20.0,117.0,690.402
690412.0,55.0,52.0,25.0,115.0,690.412
690422.0,55.0,53.0,27.0,114.0,690.422
690432.0,56.0,56.0,27.0,113.0,690.432
690442.0,55.0,58.0,24.0,112.0,690.442
690452.0,54.0,59.0,21.0,120.0,690.452
690462.0,54.0,58.0,22.0,115.0,690.462
690472.0,53.0,58.0,23.0,113.0,690.472
690482.0,52.0,59.0,26.0,109.0,690.482
690492.0,52.0,60.0,32.0,103.0,690.492
690502.0,51.0,60.0,30.0,102.0,690.502
690512.0,52.0,63.0,26.0,98.0,690.512
690522.0,53.0,63.0,24.0,91.0,690.522
690532.0,52.0,61.0,21.0,107.0,690.532
690542.0,49.0,61.0,21.0,113.0,690.542
690552.0,50.0,61.0,24.0,114.0,690.552
690562.0,51.0,63.0,23.0,119.0,690.562
690572.0,51.0,64.0,25.0,121.0,690.572
690582.0,51.0,65.0,22.0,117.0,690.582
690592.0,50.0,64.0,20.0,119.0,690.592
690603.0,49.0,65.0,28.0,114.0,690.603
690613.0,47.0,64.0,24.0,107.0,690.613
690623.0,47.0,61.0,22.0,103.0,690.623
690633.0,46.0,60.0,20.0,108.0,690.633
690643.0,47.0,58.0,18.0,109.0,690.643
690653.0,47.0,58.0,16.0,116.0,690.653
690663.0,46.0,59.0,14.0,114.0,690.663
690673.0,47.0,59.0,13.0,114.0,690.673
690683.0,46.0,58.0,12.0,113.0,690.683
690693.0,46.0,59.0,11.0,113.0,690.693
690703.0,44.0,60.0,15.0,121.0,690.703
690713.0,46.0,60.0,26.0,117.0,690.713
690723.0,46.0,63.0,29.0,118.0,690.723
690733.0,46.0,63.0,29.0,110.0,690.733
690743.0,45.0,63.0,24.0,101.0,690.743
690753.0,46.0,64.0,21.0,94.0,690.753
690763.0,45.0,62.0,21.0,95.0,690.763
690774.0,46.0,63.0,19.0,94.0,690.774
690784.0,47.0,62.0,19.0,88.0,690.784
690794.0,47.0,61.0,17.0,88.0,690.794
690804.0,47.0,61.0,22.0,88.0,690.804
690814.0,49.0,61.0,20.0,95.0,690.814
690824.0,47.0,59.0,21.0,101.0,690.824
690834.0,49.0,59.0,19.0,99.0,690.834
690844.0,49.0,59.0,27.0,109.0,690.844
690854.0,49.0,57.0,25.0,110.0,690.854
690864.0,49.0,58.0,24.0,114.0,690.864
690874.0,48.0,57.0,30.0,103.0,690.874
690884.0,48.0,57.0,27.0,102.0,690.884
690894.0,46.0,56.0,29.0,112.0,690.894
690904.0,46.0,55.0,26.0,111.0,690.904
690914.0,48.0,56.0,23.0,112.0,690.914
690924.0,47.0,54.0,27.0,138.0,690.924
690934.0,48.0,57.0,26.0,139.0,690.934
690944.0,47.0,55.0,32.0,136.0,690.944
690954.0,48.0,57.0,33.0,135.0,690.954
690964.0,48.0,60.0,29.0,126.0,690.964
690974.0,48.0,59.0,26.0,123.0,690.974
690984.0,47.0,62.0,23.0,134.0,690.984
690994.0,47.0,61.0,21.0,126.0,690.994
691004.0,47.0,63.0,22.0,124.0,691.004
691014.0,47.0,61.0,24.0,120.0,691.014
691024.0,47.0,62.0,33.0,117.0,691.024
691034.0,47.0,63.0,30.0,127.0,691.034
691044.0,46.0,63.0,28.0,121.0,691.044
691054.0,47.0,63.0,27.0,113.0,691.054
691064.0,46.0,62.0,25.0,102.0,691.064
691074.0,46.0,61.0,24.0,98.0,691.074
691084.0,45.0,59.0,24.0,100.0,691.084
691094.0,44.0,59.0,21.0,101.0,691.094
691104.0,44.0,58.0,21.0,103.0,691.104
691115.0,45.0,57.0,31.0,99.0,691.115
691125.0,45.0,59.0,27.0,97.0,691.125
691135.0,44.0,56.0,24.0,92.0,691.135
691145.0,44.0,55.0,23.0,91.0,691.145
691155.0,44.0,56.0,24.0,86.0,691.155
691165.0,43.0,55.0,23.0,89.0,691.165
691175.0,42.0,56.0,23.0,91.0,691.175
691185.0,43.0,55.0,21.0,99.0,691.185
691195.0,43.0,55.0,18.0,108.0,691.195
691205.0,42.0,52.0,17.0,102.0,691.205
691215.0,43.0,53.0,22.0,110.0,691.215
691225.0,43.0,51.0,24.0,108.0,691.225
691235.0,43.0,49.0,21.0,105.0,691.235
691245.0,41.0,48.0,25.0,103.0,691.245
691255.0,42.0,47.0,24.0,108.0,691.255
691265.0,42.0,47.0,22.0,104.0,691.265
691275.0,41.0,46.0,22.0,94.0,691.275
691286.0,42.0,44.0,20.0,98.0,691.286
691296.0,43.0,44.0,21.0,95.0,691.296
691306.0,43.0,45.0,26.0,100.0,691.306
691316.0,44.0,47.0,26.0,101.0,691.316
691326.0,45.0,45.0,24.0,99.0,691.326
691336.0,46.0,47.0,23.0,106.0,691.336
691346.0,46.0,45.0,20.0,96.0,691.346
691356.0,45.0,44.0,20.0,110.0,691.356
691366.0,46.0,42.0,19.0,106.0,691.366
691376.0,47.0,43.0,16.0,101.0,691.376
691386.0,47.0,41.0,14.0,99.0,691.386
691396.0,48.0,41.0,16.0,97.0,691.396
691406.0,46.0,42.0,27.0,112.0,691.406
691416.0,47.0,42.0,26.0,112.0,691.416
691426.0,46.0,43.0,24.0,106.0,691.426
691436.0,46.0,41.0,22.0,99.0,691.436
691446.0,47.0,41.0,18.0,95.0,691.446
691456.0,45.0,41.0,18.0,101.0,691.456
691466.0,47.0,41.0,20.0,102.0,691.466
691476.0,46.0,41.0,18.0,102.0,691.476
691486.0,46.0,40.0,16.0,97.0,691.486
691496.0,46.0,39.0,15.0,93.0,691.496
691506.0,47.0,41.0,23.0,88.0,691.506
691516.0,47.0,40.0,22.0,88.0,691.516
691526.0,46.0,41.0,18.0,87.0,691.526
691536.0,46.0,39.0,18.0,85.0,691.536
691546.0,46.0,38.0,23.0,94.0,691.546
691556.0,47.0,40.0,24.0,112.0,691.556
691566.0,47.0,42.0,22.0,113.0,691.566
691576.0,48.0,41.0,19.0,111.0,691.576
691586.0,49.0,42.0,19.0,114.0,691.586
691596.0,49.0,45.0,25.0,115.0,691.596
691606.0,51.0,44.0,23.0,121.0,691.606
691616.0,52.0,46.0,20.0,117.0,691.616
691627.0,51.0,44.0,19.0,122.0,691.627
691637.0,52.0,47.0,21.0,122.0,691.637
691647.0,53.0,47.0,19.0,119.0,691.647
691657.0,53.0,45.0,17.0,132.0,691.657
691667.0,52.0,46.0,16.0,132.0,691.667
691677.0,53.0,47.0,15.0,129.0,691.677
691687.0,52.0,46.0,14.0,122.0,691.687
691697.0,51.0,46.0,14.0,120.0,691.697
691707.0,50.0,47.0,22.0,120.0,691.707
691717.0,50.0,48.0,25.0,116.0,691.717
691727.0,52.0,48.0,23.0,110.0,691.727
691737.0,49.0,47.0,26.0,107.0,691.737
691747.0,51.0,45.0,23.0,110.0,691.747
691757.0,51.0,45.0,22.0,122.0,691.757
691767.0,52.0,45.0,20.0,121.0,691.767
691777.0,51.0,43.0,23.0,112.0,691.777
691787.0,51.0,43.0,27.0,109.0,691.787
691798.0,53.0,42.0,25.0,104.0,691.798
691808.0,49.0,41.0,22.0,100.0,691.808
691818.0,51.0,41.0,20.0,96.0,691.818
691828.0,51.0,42.0,17.0,111.0,691.828
691838.0,49.0,40.0,25.0,108.0,691.838
691848.0,51.0,43.0,30.0,110.0,691.848
691858.0,51.0,44.0,37.0,109.0,691.858
691868.0,52.0,44.0,32.0,114.0,691.868
691878.0,52.0,44.0,28.0,114.0,691.878
691888.0,51.0,44.0,26.0,113.0,691.888
691898.0,51.0,45.0,25.0,113.0,691.898
691908.0,50.0,45.0,22.0,106.0,691.908
691918.0,50.0,47.0,21.0,102.0,691.918
691928.0,49.0,45.0,22.0,116.0,691.928
691938.0,49.0,43.0,20.0,114.0,691.938
691948.0,49.0,44.0,25.0,105.0,691.948
691958.0,50.0,44.0,36.0,97.0,691.958
691968.0,49.0,44.0,33.0,99.0,691.968
691978.0,49.0,43.0,30.0,105.0,691.978
691988.0,47.0,42.0,26.0,106.0,691.988
691998.0,47.0,43.0,25.0,97.0,691.998
692008.0,49.0,43.0,21.0,95.0,692.008
692018.0,48.0,45.0,18.0,90.0,692.018
692028.0,48.0,45.0,17.0,85.0,692.028
692038.0,49.0,46.0,17.0,97.0,692.038
692048.0,49.0,44.0,18.0,88.0,692.048
692058.0,50.0,46.0,31.0,113.0,692.058
692068.0,48.0,46.0,29.0,113.0,692.068
692078.0,49.0,45.0,26.0,114.0,692.078
692088.0,49.0,45.0,23.0,110.0,692.088
692098.0,49.0,44.0,25.0,107.0,692.098
692108.0,49.0,46.0,26.0,112.0,692.108
692118.0,50.0,45.0,24.0,108.0,692.118
692128.0,50.0,45.0,21.0,111.0,692.128
692139.0,49.0,45.0,28.0,103.0,692.139
692149.0,52.0,48.0,32.0,103.0,692.149
692159.0,52.0,48.0,28.0,104.0,692.159
692169.0,53.0,48.0,26.0,103.0,692.169
692179.0,50.0,47.0,23.0,103.0,692.179
692189.0,52.0,49.0,22.0,97.0,692.189
692199.0,53.0,50.0,19.0,96.0,692.199
692209.0,54.0,51.0,18.0,92.0,692.209
692219.0,56.0,50.0,16.0,92.0,692.219
692229.0,56.0,51.0,15.0,89.0,692.229
692239.0,58.0,51.0,17.0,95.0,692.239
692249.0,58.0,50.0,16.0,93.0,692.249
692259.0,57.0,51.0,39.0,92.0,692.259
692269.0,56.0,52.0,41.0,103.0,692.269
692279.0,57.0,53.0,37.0,106.0,692.279
692289.0,58.0,52.0,32.0,98.0,692.289
692299.0,57.0,51.0,28.0,109.0,692.299
692310.0,57.0,50.0,26.0,106.0,692.31
692320.0,57.0,50.0,22.0,102.0,692.32
692330.0,57.0,49.0,23.0,104.0,692.33
692340.0,56.0,49.0,33.0,109.0,692.34
692350.0,57.0,50.0,33.0,106.0,692.35
692360.0,56.0,49.0,42.0,109.0,692.36
692370.0,56.0,51.0,36.0,109.0,692.37
692380.0,55.0,50.0,33.0,104.0,692.38
692390.0,56.0,52.0,32.0,94.0,692.39
692400.0,57.0,50.0,29.0,86.0,692.4
692410.0,56.0,51.0,25.0,79.0,692.41
692420.0,56.0,51.0,23.0,88.0,692.42
692430.0,55.0,50.0,20.0,87.0,692.43
692440.0,53.0,49.0,27.0,87.0,692.44
692450.0,54.0,49.0,34.0,87.0,692.45
692460.0,56.0,51.0,32.0,88.0,692.46
692470.0,57.0,50.0,30.0,84.0,692.47
692480.0,57.0,51.0,33.0,95.0,692.48
692490.0,56.0,51.0,32.0,97.0,692.49
692500.0,56.0,50.0,30.0,98.0,692.5
692510.0,54.0,53.0,26.0,99.0,692.51
692520.0,55.0,52.0,25.0,92.0,692.52
692530.0,55.0,53.0,31.0,98.0,692.53
692540.0,55.0,54.0,30.0,90.0,692.54
692550.0,55.0,52.0,27.0,92.0,692.55
692560.0,57.0,55.0,25.0,86.0,692.56
692570.0,56.0,53.0,31.0,84.0,692.57
692580.0,56.0,51.0,26.0,90.0,692.58
692590.0,56.0,50.0,25.0,97.0,692.59
692600.0,55.0,51.0,35.0,94.0,692.6
692610.0,56.0,51.0,36.0,91.0,692.61
692620.0,55.0,48.0,31.0,103.0,692.62
692630.0,55.0,47.0,29.0,97.0,692.63
692640.0,57.0,47.0,25.0,91.0,692.64
692651.0,54.0,48.0,22.0,91.0,692.651
692661.0,53.0,45.0,25.0,91.0,692.661
692671.0,53.0,47.0,24.0,95.0,692.671
692681.0,53.0,44.0,24.0,92.0,692.681
692691.0,54.0,46.0,30.0,84.0,692.691
692701.0,53.0,45.0,27.0,82.0,692.701
692711.0,53.0,43.0,25.0,90.0,692.711
692721.0,52.0,44.0,23.0,87.0,692.721
692731.0,52.0,41.0,24.0,89.0,692.731
692741.0,53.0,42.0,21.0,89.0,692.741
692751.0,52.0,40.0,24.0,90.0,692.751
692761.0,53.0,40.0,24.0,85.0,692.761
692771.0,53.0,41.0,22.0,86.0,692.771
692781.0,53.0,40.0,19.0,83.0,692.781
692791.0,54.0,43.0,26.0,88.0,692.791
692801.0,54.0,41.0,26.0,96.0,692.801
692811.0,55.0,43.0,23.0,95.0,692.811
692822.0,55.0,40.0,25.0,92.0,692.822
692832.0,55.0,39.0,21.0,91.0,692.832
692842.0,56.0,39.0,22.0,84.0,692.842
692852.0,59.0,39.0,19.0,81.0,692.852
692862.0,58.0,39.0,20.0,79.0,692.862
692872.0,60.0,39.0,33.0,84.0,692.872
692882.0,63.0,40.0,30.0,88.0,692.882
692892.0,63.0,38.0,26.0,81.0,692.892
692902.0,63.0,38.0,28.0,93.0,692.902
692912.0,64.0,40.0,26.0,88.0,692.912
692922.0,65.0,39.0,24.0,91.0,692.922
692932.0,64.0,39.0,28.0,93.0,692.932
692942.0,65.0,39.0,26.0,93.0,692.942
692952.0,64.0,40.0,24.0,91.0,692.952
692962.0,64.0,38.0,22.0,86.0,692.962
692972.0,65.0,39.0,25.0,98.0,692.972
692982.0,65.0,39.0,29.0,99.0,692.982
692992.0,66.0,38.0,28.0,106.0,692.992
693002.0,66.0,39.0,24.0,109.0,693.002
693012.0,67.0,38.0,23.0,102.0,693.012
693022.0,66.0,42.0,39.0,103.0,693.022
693032.0,68.0,41.0,34.0,98.0,693.032
693042.0,68.0,40.0,29.0,92.0,693.042
693052.0,68.0,40.0,28.0,94.0,693.052
693062.0,70.0,40.0,27.0,99.0,693.062
693072.0,70.0,40.0,27.0,96.0,693.072
693082.0,72.0,40.0,26.0,94.0,693.082
693092.0,72.0,43.0,22.0,96.0,693.092
693102.0,71.0,40.0,20.0,94.0,693.102
693112.0,71.0,40.0,23.0,112.0,693.112
693122.0,69.0,40.0,24.0,106.0,693.122
693132.0,71.0,42.0,27.0,104.0,693.132
693142.0,70.0,42.0,24.0,102.0,693.142
693152.0,69.0,41.0,22.0,99.0,693.152
693163.0,69.0,42.0,20.0,107.0,693.163
693173.0,70.0,38.0,18.0,104.0,693.173
693183.0,69.0,38.0,15.0,100.0,693.183
693193.0,67.0,39.0,21.0,93.0,693.193
693203.0,67.0,39.0,21.0,88.0,693.203
693213.0,66.0,42.0,30.0,99.0,693.213
693223.0,67.0,41.0,27.0,97.0,693.223
693233.0,67.0,42.0,27.0,101.0,693.233
693243.0,66.0,41.0,26.0,99.0,693.243
693253.0,66.0,40.0,23.0,99.0,693.253
693263.0,65.0,41.0,21.0,92.0,693.263
693273.0,64.0,40.0,20.0,89.0,693.273
693283.0,64.0,39.0,16.0,94.0,693.283
693293.0,64.0,39.0,16.0,98.0,693.293
693303.0,63.0,42.0,15.0,101.0,693.303
693313.0,63.0,42.0,23.0,108.0,693.313
693323.0,63.0,42.0,23.0,100.0,693.323
693334.0,63.0,40.0,23.0,106.0,693.334
693344.0,64.0,40.0,22.0,114.0,693.344
693354.0,63.0,40.0,20.0,112.0,693.354
693364.0,63.0,38.0,18.0,113.0,693.364
693374.0,60.0,40.0,17.0,106.0,693.374
693384.0,60.0,41.0,30.0,104.0,693.384
693394.0,59.0,41.0,27.0,110.0,693.394
693404.0,58.0,41.0,26.0,105.0,693.404
693414.0,59.0,41.0,25.0,103.0,693.414
693424.0,58.0,42.0,23.0,99.0,693.424
693434.0,57.0,41.0,21.0,93.0,693.434
693444.0,56.0,44.0,21.0,105.0,693.444
693454.0,56.0,43.0,20.0,105.0,693.454
693464.0,55.0,45.0,19.0,104.0,693.464
693474.0,53.0,47.0,23.0,103.0,693.474
693484.0,54.0,50.0,21.0,96.0,693.484
693494.0,53.0,50.0,24.0,95.0,693.494
693504.0,54.0,51.0,29.0,91.0,693.504
693514.0,54.0,51.0,24.0,93.0,693.514
693524.0,55.0,51.0,25.0,93.0,693.524
693534.0,57.0,50.0,24.0,101.0,693.534
693544.0,58.0,52.0,22.0,98.0,693.544
693554.0,59.0,53.0,27.0,93.0,693.554
693564.0,60.0,54.0,22.0,96.0,693.564
693574.0,61.0,55.0,27.0,95.0,693.574
693584.0,63.0,54.0,27.0,93.0,693.584
693594.0,64.0,53.0,25.0,86.0,693.594
693604.0,66.0,53.0,22.0,89.0,693.604
693614.0,65.0,53.0,21.0,85.0,693.614
693624.0,66.0,53.0,22.0,78.0,693.624
693634.0,65.0,55.0,21.0,81.0,693.634
693644.0,66.0,52.0,22.0,81.0,693.644
693654.0,66.0,54.0,24.0,95.0,693.654
693664.0,66.0,52.0,20.0,94.0,693.664
693675.0,65.0,54.0,18.0,98.0,693.675
693685.0,65.0,54.0,24.0,98.0,693.685
693695.0,67.0,53.0,22.0,94.0,693.695
693705.0,66.0,53.0,18.0,92.0,693.705
693715.0,66.0,52.0,17.0,83.0,693.715
693725.0,68.0,53.0,15.0,79.0,693.725
693735.0,67.0,54.0,22.0,80.0,693.735
693745.0,68.0,54.0,19.0,83.0,693.745
693755.0,68.0,55.0,18.0,88.0,693.755
693765.0,65.0,55.0,19.0,88.0,693.765
693775.0,66.0,55.0,26.0,87.0,693.775
693785.0,65.0,53.0,25.0,83.0,693.785
693795.0,64.0,55.0,22.0,88.0,693.795
693805.0,63.0,53.0,19.0,86.0,693.805
693815.0,63.0,54.0,19.0,83.0,693.815
693825.0,61.0,54.0,17.0,78.0,693.825
693835.0,62.0,55.0,16.0,82.0,693.835
693846.0,62.0,55.0,16.0,85.0,693.846
693856.0,61.0,55.0,19.0,97.0,693.856
693866.0,61.0,57.0,26.0,106.0,693.866
693876.0,62.0,54.0,24.0,97.0,693.876
693886.0,61.0,55.0,21.0,94.0,693.886
693896.0,59.0,56.0,24.0,92.0,693.896
693906.0,60.0,54.0,24.0,101.0,693.906
693916.0,59.0,55.0,25.0,103.0,693.916
693926.0,60.0,53.0,30.0,102.0,693.926
693936.0,61.0,54.0,27.0,97.0,693.936
693946.0,61.0,52.0,24.0,88.0,693.946
693956.0,59.0,53.0,35.0,82.0,693.956
693966.0,59.0,52.0,33.0,87.0,693.966
693976.0,60.0,50.0,30.0,89.0,693.976
693986.0,58.0,50.0,26.0,97.0,693.986
693996.0,57.0,50.0,28.0,91.0,693.996
694006.0,57.0,51.0,27.0,93.0,694.006
694016.0,55.0,50.0,23.0,91.0,694.016
694026.0,56.0,49.0,21.0,88.0,694.026
694036.0,56.0,48.0,19.0,90.0,694.036
694046.0,57.0,49.0,21.0,82.0,694.046
694056.0,55.0,47.0,20.0,78.0,694.056
694066.0,56.0,49.0,29.0,77.0,694.066
694076.0,54.0,47.0,29.0,74.0,694.076
694086.0,53.0,46.0,25.0,72.0,694.086
694096.0,53.0,46.0,25.0,70.0,694.096
694106.0,52.0,45.0,22.0,72.0,694.106
694116.0,54.0,45.0,25.0,76.0,694.116
694126.0,53.0,45.0,23.0,77.0,694.126
694136.0,53.0,46.0,21.0,76.0,694.136
694146.0,54.0,46.0,18.0,76.0,694.146
694156.0,53.0,46.0,17.0,80.0,694.156
694166.0,53.0,49.0,26.0,96.0,694.166
694176.0,53.0,48.0,27.0,95.0,694.176
694187.0,54.0,49.0,24.0,106.0,694.187
694197.0,53.0,50.0,22.0,103.0,694.197
694207.0,53.0,49.0,20.0,98.0,694.207
694217.0,54.0,51.0,23.0,105.0,694.217
694227.0,55.0,48.0,23.0,109.0,694.227
694237.0,55.0,48.0,20.0,109.0,694.237
694247.0,54.0,48.0,18.0,100.0,694.247
694257.0,53.0,50.0,20.0,97.0,694.257
694267.0,52.0,50.0,32.0,95.0,694.267
694277.0,52.0,49.0,33.0,91.0,694.277
694287.0,51.0,49.0,27.0,105.0,694.287
694297.0,49.0,48.0,27.0,104.0,694.297
694307.0,49.0,47.0,24.0,106.0,694.307
694317.0,49.0,47.0,21.0,100.0,694.317
694327.0,50.0,48.0,24.0,99.0,694.327
694337.0,51.0,48.0,23.0,100.0,694.337
694347.0,54.0,47.0,31.0,97.0,694.347
694358.0,54.0,47.0,26.0,94.0,694.358
694368.0,53.0,48.0,28.0,92.0,694.368
694378.0,53.0,48.0,25.0,90.0,694.378
694388.0,52.0,47.0,22.0,83.0,694.388
694398.0,53.0,47.0,20.0,85.0,694.398
694408.0,51.0,49.0,18.0,91.0,694.408
694418.0,51.0,49.0,17.0,89.0,694.418
694428.0,51.0,52.0,15.0,92.0,694.428
694438.0,49.0,51.0,18.0,85.0,694.438
694448.0,49.0,54.0,25.0,82.0,694.448
694458.0,49.0,52.0,36.0,77.0,694.458
694468.0,51.0,53.0,33.0,80.0,694.468
694478.0,50.0,54.0,28.0,77.0,694.478
694488.0,49.0,53.0,27.0,76.0,694.488
694498.0,48.0,53.0,25.0,78.0,694.498
694508.0,48.0,51.0,22.0,74.0,694.508
694518.0,48.0,53.0,19.0,82.0,694.518
694528.0,47.0,53.0,21.0,87.0,694.528
694538.0,47.0,53.0,20.0,91.0,694.538
694548.0,46.0,56.0,24.0,93.0,694.548
694558.0,48.0,53.0,31.0,100.0,694.558
694568.0,49.0,51.0,26.0,96.0,694.568
694578.0,49.0,50.0,24.0,98.0,694.578
694588.0,49.0,50.0,21.0,97.0,694.588
694598.0,49.0,48.0,20.0,92.0,694.598
694608.0,51.0,46.0,18.0,88.0,694.608
694618.0,51.0,47.0,15.0,90.0,694.618
694628.0,51.0,48.0,16.0,85.0,694.628
694638.0,53.0,49.0,16.0,91.0,694.638
694648.0,53.0,50.0,26.0,87.0,694.648
694658.0,55.0,49.0,36.0,84.0,694.658
694668.0,57.0,49.0,35.0,81.0,694.668
694678.0,58.0,49.0,32.0,82.0,694.678
694688.0,58.0,48.0,26.0,82.0,694.688
694699.0,59.0,47.0,24.0,76.0,694.699
694709.0,58.0,48.0,22.0,75.0,694.709
694719.0,57.0,47.0,19.0,81.0,694.719
694729.0,57.0,46.0,17.0,80.0,694.729
694739.0,56.0,46.0,17.0,77.0,694.739
694749.0,55.0,48.0,28.0,80.0,694.749
694759.0,54.0,48.0,30.0,75.0,694.759
694769.0,54.0,45.0,27.0,69.0,694.769
694779.0,54.0,47.0,24.0,76.0,694.779
694789.0,54.0,47.0,22.0,71.0,694.789
694799.0,53.0,48.0,19.0,67.0,694.799
694809.0,52.0,47.0,19.0,69.0,694.809
694819.0,53.0,47.0,17.0,66.0,694.819
694829.0,52.0,47.0,16.0,65.0,694.829
694839.0,52.0,49.0,20.0,61.0,694.839
694849.0,51.0,51.0,20.0,63.0,694.849
694859.0,51.0,51.0,21.0,80.0,694.859
694870.0,53.0,51.0,19.0,81.0,694.87
694880.0,53.0,51.0,19.0,89.0,694.88
694890.0,54.0,51.0,17.0,82.0,694.89
694900.0,55.0,51.0,16.0,79.0,694.9
694910.0,56.0,52.0,14.0,86.0,694.91
694920.0,56.0,51.0,12.0,82.0,694.92
694930.0,56.0,52.0,12.0,82.0,694.93
694940.0,56.0,53.0,14.0,80.0,694.94
694950.0,56.0,53.0,20.0,83.0,694.95
694960.0,54.0,54.0,21.0,85.0,694.96
694970.0,56.0,53.0,18.0,89.0,694.97
694980.0,56.0,52.0,20.0,89.0,694.98
694990.0,56.0,54.0,19.0,86.0,694.99
695000.0,57.0,54.0,16.0,81.0,695.0
695010.0,58.0,53.0,15.0,82.0,695.01
695020.0,57.0,53.0,15.0,80.0,695.02
695030.0,58.0,52.0,15.0,80.0,695.03
695040.0,57.0,52.0,14.0,77.0,695.04
695050.0,57.0,52.0,23.0,75.0,695.05
695060.0,57.0,51.0,19.0,76.0,695.06
695070.0,59.0,48.0,18.0,76.0,695.07
695080.0,58.0,48.0,18.0,74.0,695.08
695090.0,57.0,49.0,16.0,76.0,695.09
695100.0,58.0,47.0,18.0,81.0,695.1
695110.0,56.0,47.0,16.0,74.0,695.11
695120.0,57.0,45.0,15.0,69.0,695.12
695130.0,58.0,45.0,14.0,68.0,695.13
695140.0,57.0,45.0,15.0,64.0,695.14
695150.0,57.0,47.0,18.0,63.0,695.15
695160.0,57.0,47.0,17.0,64.0,695.16
695170.0,56.0,46.0,16.0,64.0,695.17
695180.0,54.0,48.0,14.0,65.0,695.18
695190.0,56.0,47.0,24.0,71.0,695.19
695200.0,56.0,49.0,22.0,71.0,695.2
695211.0,56.0,48.0,22.0,70.0,695.211
695221.0,55.0,49.0,27.0,69.0,695.221
695231.0,53.0,50.0,25.0,69.0,695.231
695241.0,53.0,50.0,23.0,76.0,695.241
695251.0,51.0,52.0,20.0,75.0,695.251
695261.0,52.0,55.0,27.0,76.0,695.261
695271.0,51.0,57.0,23.0,74.0,695.271
695281.0,51.0,59.0,22.0,74.0,695.281
695291.0,51.0,58.0,24.0,84.0,695.291
695301.0,49.0,61.0,28.0,91.0,695.301
695311.0,51.0,62.0,31.0,91.0,695.311
695321.0,48.0,61.0,28.0,96.0,695.321
695331.0,49.0,61.0,38.0,96.0,695.331
695341.0,48.0,63.0,34.0,93.0,695.341
695351.0,48.0,62.0,31.0,88.0,695.351
695361.0,48.0,62.0,27.0,83.0,695.361
695371.0,47.0,64.0,29.0,85.0,695.371
695382.0,48.0,64.0,32.0,85.0,695.382
695392.0,48.0,64.0,34.0,83.0,695.392
695402.0,49.0,63.0,30.0,83.0,695.402
695412.0,49.0,67.0,34.0,83.0,695.412
695422.0,49.0,64.0,30.0,82.0,695.422
695432.0,49.0,65.0,27.0,89.0,695.432
695442.0,49.0,65.0,25.0,88.0,695.442
695452.0,51.0,66.0,21.0,89.0,695.452
695462.0,50.0,66.0,19.0,88.0,695.462
695472.0,51.0,66.0,25.0,82.0,695.472
695482.0,50.0,67.0,21.0,89.0,695.482
695492.0,49.0,66.0,20.0,90.0,695.492
695502.0,48.0,68.0,23.0,95.0,695.502
695512.0,49.0,66.0,25.0,89.0,695.512
695522.0,49.0,67.0,27.0,98.0,695.522
695532.0,48.0,66.0,26.0,91.0,695.532
695542.0,48.0,64.0,23.0,90.0,695.542
695552.0,48.0,64.0,22.0,89.0,695.552
695562.0,49.0,64.0,28.0,82.0,695.562
695572.0,51.0,61.0,27.0,77.0,695.572
695582.0,52.0,62.0,24.0,73.0,695.582
695592.0,52.0,65.0,27.0,83.0,695.592
695602.0,53.0,64.0,37.0,84.0,695.602
695612.0,55.0,61.0,34.0,79.0,695.612
695622.0,56.0,62.0,35.0,78.0,695.622
695632.0,59.0,60.0,35.0,76.0,695.632
695642.0,61.0,59.0,32.0,73.0,695.642
695652.0,61.0,59.0,30.0,84.0,695.652
695662.0,63.0,58.0,37.0,81.0,695.662
695672.0,64.0,58.0,32.0,76.0,695.672
695682.0,66.0,59.0,29.0,75.0,695.682
695692.0,66.0,59.0,25.0,73.0,695.692
695702.0,65.0,58.0,23.0,80.0,695.702
695712.0,64.0,58.0,20.0,73.0,695.712
695723.0,64.0,59.0,20.0,75.0,695.723
695733.0,64.0,58.0,18.0,75.0,695.733
695743.0,62.0,58.0,18.0,77.0,695.743
695753.0,62.0,56.0,17.0,73.0,695.753
695763.0,60.0,59.0,16.0,76.0,695.763
695773.0,59.0,57.0,33.0,81.0,695.773
695783.0,57.0,57.0,28.0,89.0,695.783
695793.0,56.0,57.0,26.0,92.0,695.793
695803.0,57.0,55.0,24.0,93.0,695.803
695813.0,55.0,56.0,24.0,90.0,695.813
695823.0,54.0,53.0,22.0,81.0,695.823
695833.0,53.0,57.0,20.0,86.0,695.833
695843.0,52.0,56.0,19.0,86.0,695.843
695853.0,52.0,59.0,23.0,86.0,695.853
695863.0,54.0,57.0,28.0,86.0,695.863
695873.0,54.0,57.0,26.0,78.0,695.873
695883.0,52.0,58.0,24.0,76.0,695.883
695894.0,53.0,58.0,22.0,88.0,695.894
695904.0,54.0,60.0,27.0,97.0,695.904
695914.0,57.0,58.0,25.0,98.0,695.914
695924.0,58.0,56.0,21.0,90.0,695.924
695934.0,58.0,57.0,20.0,101.0,695.934
695944.0,60.0,56.0,19.0,92.0,695.944
695954.0,58.0,56.0,30.0,88.0,695.954
695964.0,59.0,55.0,28.0,86.0,695.964
695974.0,61.0,55.0,26.0,92.0,695.974
695984.0,61.0,52.0,23.0,89.0,695.984
695994.0,61.0,52.0,24.0,88.0,695.994
696004.0,61.0,52.0,23.0,88.0,696.004
696014.0,61.0,53.0,21.0,81.0,696.014
696024.0,58.0,52.0,20.0,84.0,696.024
696034.0,58.0,52.0,17.0,97.0,696.034
696044.0,57.0,52.0,15.0,94.0,696.044
696054.0,56.0,53.0,21.0,90.0,696.054
696064.0,57.0,53.0,23.0,86.0,696.064
696074.0,57.0,52.0,20.0,89.0,696.074
696084.0,57.0,53.0,20.0,83.0,696.084
696094.0,55.0,52.0,18.0,84.0,696.094
696104.0,56.0,51.0,17.0,84.0,696.104
696114.0,56.0,51.0,16.0,81.0,696.114
696124.0,57.0,50.0,26.0,82.0,696.124
696134.0,55.0,49.0,24.0,81.0,696.134
696144.0,54.0,48.0,22.0,80.0,696.144
696154.0,53.0,48.0,20.0,80.0,696.154
696164.0,52.0,49.0,20.0,78.0,696.164
696174.0,54.0,45.0,19.0,75.0,696.174
696184.0,51.0,47.0,19.0,71.0,696.184
696194.0,52.0,45.0,17.0,64.0,696.194
696204.0,52.0,44.0,18.0,69.0,696.204
696214.0,52.0,43.0,17.0,67.0,696.214
696224.0,53.0,44.0,23.0,69.0,696.224
696235.0,52.0,43.0,19.0,74.0,696.235
696245.0,53.0,41.0,18.0,78.0,696.245
696255.0,55.0,41.0,16.0,79.0,696.255
696265.0,56.0,40.0,16.0,78.0,696.265
696275.0,55.0,41.0,21.0,76.0,696.275
696285.0,57.0,40.0,22.0,77.0,696.285
696295.0,59.0,42.0,25.0,77.0,696.295
696305.0,58.0,42.0,26.0,78.0,696.305
696315.0,59.0,41.0,25.0,76.0,696.315
696325.0,58.0,42.0,22.0,73.0,696.325
696335.0,59.0,42.0,21.0,68.0,696.335
696345.0,57.0,44.0,18.0,72.0,696.345
696355.0,56.0,45.0,19.0,68.0,696.355
696365.0,57.0,43.0,16.0,67.0,696.365
696375.0,57.0,43.0,15.0,73.0,696.375
696385.0,58.0,44.0,14.0,75.0,696.385
696395.0,59.0,44.0,25.0,79.0,696.395
696406.0,58.0,42.0,22.0,72.0,696.406
696416.0,57.0,43.0,32.0,84.0,696.416
696426.0,60.0,41.0,29.0,87.0,696.426
696436.0,61.0,42.0,28.0,85.0,696.436
696446.0,62.0,41.0,27.0,83.0,696.446
696456.0,63.0,41.0,25.0,81.0,696.456
696466.0,64.0,44.0,33.0,87.0,696.466
696476.0,65.0,42.0,30.0,82.0,696.476
696486.0,66.0,43.0,28.0,76.0,696.486
696496.0,67.0,43.0,25.0,74.0,696.496
696506.0,68.0,42.0,28.0,79.0,696.506
696516.0,66.0,42.0,25.0,83.0,696.516
696526.0,69.0,41.0,24.0,79.0,696.526
696536.0,70.0,43.0,22.0,78.0,696.536
696546.0,69.0,45.0,41.0,79.0,696.546
696556.0,70.0,44.0,38.0,75.0,696.556
696566.0,70.0,43.0,32.0,69.0,696.566
696576.0,72.0,41.0,30.0,72.0,696.576
696586.0,68.0,41.0,28.0,76.0,696.586
696596.0,70.0,39.0,28.0,69.0,696.596
696606.0,71.0,40.0,26.0,70.0,696.606
696616.0,69.0,40.0,25.0,68.0,696.616
696626.0,68.0,39.0,24.0,69.0,696.626
696636.0,69.0,41.0,37.0,67.0,696.636
696646.0,69.0,39.0,32.0,72.0,696.646
696656.0,68.0,39.0,27.0,69.0,696.656
696666.0,66.0,37.0,26.0,64.0,696.666
696676.0,66.0,38.0,24.0,61.0,696.676
696686.0,65.0,37.0,23.0,64.0,696.686
696696.0,64.0,37.0,24.0,66.0,696.696
696706.0,63.0,40.0,25.0,68.0,696.706
696716.0,65.0,40.0,25.0,68.0,696.716
696726.0,63.0,39.0,22.0,73.0,696.726
696736.0,62.0,37.0,20.0,71.0,696.736
696747.0,62.0,41.0,19.0,79.0,696.747
696757.0,62.0,39.0,20.0,78.0,696.757
696767.0,64.0,39.0,19.0,77.0,696.767
696777.0,64.0,39.0,17.0,78.0,696.777
696787.0,66.0,39.0,16.0,75.0,696.787
696797.0,64.0,40.0,25.0,82.0,696.797
696807.0,65.0,41.0,23.0,78.0,696.807
696817.0,65.0,43.0,26.0,75.0,696.817
696827.0,65.0,42.0,23.0,74.0,696.827
696837.0,65.0,42.0,20.0,72.0,696.837
696847.0,64.0,44.0,19.0,68.0,696.847
696857.0,63.0,43.0,17.0,66.0,696.857
696867.0,62.0,43.0,14.0,71.0,696.867
696877.0,61.0,44.0,17.0,68.0,696.877
696887.0,61.0,44.0,15.0,67.0,696.887
696897.0,59.0,46.0,22.0,63.0,696.897
696907.0,61.0,44.0,20.0,69.0,696.907
696918.0,61.0,43.0,19.0,68.0,696.918
696928.0,61.0,42.0,20.0,69.0,696.928
696938.0,60.0,42.0,16.0,73.0,696.938
696948.0,60.0,44.0,16.0,73.0,696.948
696958.0,59.0,44.0,16.0,72.0,696.958
696968.0,60.0,43.0,16.0,68.0,696.968
696978.0,60.0,42.0,13.0,66.0,696.978
696988.0,60.0,42.0,14.0,72.0,696.988
696998.0,60.0,43.0,16.0,70.0,696.998
697008.0,58.0,44.0,32.0,70.0,697.008
697018.0,58.0,44.0,38.0,73.0,697.018
697028.0,58.0,44.0,35.0,72.0,697.028
697038.0,58.0,42.0,32.0,68.0,697.038
697048.0,59.0,42.0,29.0,66.0,697.048
697058.0,59.0,41.0,27.0,70.0,697.058
697068.0,59.0,40.0,24.0,71.0,697.068
697078.0,58.0,39.0,21.0,65.0,697.078
697088.0,58.0,38.0,21.0,66.0,697.088
697098.0,57.0,40.0,18.0,64.0,697.098
697108.0,57.0,40.0,30.0,64.0,697.108
697118.0,56.0,40.0,36.0,68.0,697.118
697128.0,57.0,41.0,33.0,69.0,697.128
697138.0,57.0,40.0,32.0,71.0,697.138
697148.0,54.0,39.0,26.0,72.0,697.148
697158.0,55.0,38.0,24.0,68.0,697.158
697168.0,53.0,39.0,21.0,67.0,697.168
697178.0,53.0,39.0,19.0,68.0,697.178
697188.0,53.0,39.0,21.0,72.0,697.188
697198.0,52.0,41.0,32.0,69.0,697.198
697208.0,53.0,40.0,29.0,69.0,697.208
697218.0,53.0,40.0,25.0,74.0,697.218
697228.0,52.0,39.0,22.0,71.0,697.228
697238.0,51.0,38.0,20.0,71.0,697.238
697248.0,51.0,38.0,17.0,70.0,697.248
697259.0,51.0,38.0,19.0,70.0,697.259
697269.0,51.0,39.0,26.0,71.0,697.269
697279.0,54.0,38.0,24.0,66.0,697.279
