time (ms),signal 0,signal 1,signal 2,signal3,time (sec)
707734.0,49.0,70.0,11.0,50.0,707.734
707744.0,48.0,71.0,16.0,48.0,707.744
707755.0,48.0,70.0,26.0,47.0,707.755
707765.0,49.0,67.0,22.0,49.0,707.765
707775.0,50.0,67.0,21.0,49.0,707.775
707785.0,50.0,68.0,18.0,54.0,707.785
707795.0,52.0,67.0,16.0,55.0,707.795
707805.0,54.0,67.0,16.0,56.0,707.805
707815.0,54.0,67.0,16.0,53.0,707.815
707825.0,53.0,69.0,22.0,52.0,707.825
707835.0,55.0,68.0,19.0,51.0,707.835
707845.0,55.0,68.0,18.0,51.0,707.845
707855.0,56.0,68.0,18.0,59.0,707.855
707865.0,58.0,69.0,27.0,56.0,707.865
707875.0,60.0,68.0,28.0,55.0,707.875
707885.0,59.0,70.0,30.0,54.0,707.885
707895.0,61.0,68.0,28.0,54.0,707.895
707905.0,60.0,69.0,27.0,56.0,707.905
707915.0,62.0,67.0,25.0,55.0,707.915
707926.0,61.0,66.0,20.0,55.0,707.926
707936.0,62.0,65.0,21.0,59.0,707.936
707946.0,63.0,64.0,22.0,60.0,707.946
707956.0,63.0,64.0,20.0,56.0,707.956
707966.0,63.0,63.0,31.0,57.0,707.966
707976.0,62.0,63.0,27.0,59.0,707.976
707986.0,62.0,61.0,26.0,55.0,707.986
707996.0,62.0,59.0,22.0,53.0,707.996
708006.0,63.0,59.0,20.0,53.0,708.006
708016.0,64.0,60.0,19.0,54.0,708.016
708026.0,64.0,59.0,19.0,54.0,708.026
708036.0,63.0,58.0,17.0,52.0,708.036
708046.0,64.0,58.0,17.0,50.0,708.046
708056.0,65.0,59.0,18.0,48.0,708.056
708066.0,67.0,58.0,15.0,50.0,708.066
708076.0,68.0,58.0,14.0,49.0,708.076
708086.0,66.0,58.0,12.0,55.0,708.086
708096.0,65.0,57.0,14.0,56.0,708.096
708106.0,66.0,56.0,12.0,56.0,708.106
708116.0,63.0,57.0,11.0,53.0,708.116
708126.0,62.0,56.0,12.0,51.0,708.126
708136.0,60.0,59.0,16.0,55.0,708.136
708146.0,61.0,57.0,23.0,53.0,708.146
708156.0,62.0,57.0,19.0,56.0,708.156
708166.0,63.0,58.0,19.0,56.0,708.166
708176.0,64.0,58.0,20.0,54.0,708.176
708186.0,63.0,60.0,18.0,51.0,708.186
708196.0,65.0,60.0,17.0,50.0,708.196
708206.0,65.0,61.0,16.0,47.0,708.206
708216.0,66.0,61.0,14.0,45.0,708.216
708226.0,66.0,61.0,12.0,44.0,708.226
708236.0,65.0,64.0,14.0,46.0,708.236
708246.0,65.0,66.0,27.0,51.0,708.246
708256.0,63.0,67.0,25.0,51.0,708.256
708267.0,65.0,66.0,25.0,53.0,708.267
708277.0,64.0,67.0,22.0,52.0,708.277
708287.0,64.0,67.0,19.0,51.0,708.287
708297.0,65.0,67.0,18.0,51.0,708.297
708307.0,66.0,68.0,19.0,52.0,708.307
708317.0,66.0,69.0,25.0,49.0,708.317
708327.0,66.0,70.0,21.0,50.0,708.327
708337.0,68.0,72.0,21.0,49.0,708.337
708347.0,66.0,73.0,20.0,50.0,708.347
708357.0,67.0,72.0,20.0,50.0,708.357
708367.0,66.0,72.0,18.0,48.0,708.367
708377.0,66.0,73.0,16.0,52.0,708.377
708387.0,66.0,71.0,14.0,49.0,708.387
708397.0,65.0,72.0,13.0,51.0,708.397
708407.0,64.0,70.0,13.0,50.0,708.407
708417.0,64.0,69.0,10.0,51.0,708.417
708427.0,62.0,69.0,10.0,66.0,708.427
708438.0,62.0,70.0,10.0,77.0,708.438
708448.0,63.0,71.0,9.0,73.0,708.448
708458.0,62.0,72.0,7.0,73.0,708.458
708468.0,61.0,77.0,8.0,89.0,708.468
708478.0,62.0,77.0,9.0,89.0,708.478
708488.0,60.0,89.0,7.0,87.0,708.488
708498.0,61.0,104.0,12.0,95.0,708.498
708508.0,61.0,103.0,14.0,101.0,708.508
708518.0,62.0,104.0,15.0,98.0,708.518
708528.0,60.0,100.0,15.0,90.0,708.528
708538.0,58.0,101.0,17.0,87.0,708.538
708548.0,61.0,112.0,38.0,83.0,708.548
708558.0,62.0,104.0,39.0,84.0,708.558
708568.0,62.0,110.0,38.0,80.0,708.568
708578.0,60.0,107.0,48.0,78.0,708.578
708588.0,59.0,102.0,48.0,74.0,708.588
708598.0,62.0,108.0,52.0,73.0,708.598
708608.0,60.0,113.0,58.0,78.0,708.608
708618.0,62.0,116.0,69.0,90.0,708.618
708628.0,64.0,111.0,73.0,110.0,708.628
708638.0,63.0,108.0,67.0,111.0,708.638
708648.0,63.0,101.0,61.0,114.0,708.648
708658.0,62.0,101.0,54.0,112.0,708.658
708668.0,60.0,107.0,56.0,107.0,708.668
708678.0,65.0,102.0,49.0,103.0,708.678
708688.0,70.0,111.0,52.0,96.0,708.688
708698.0,70.0,107.0,46.0,92.0,708.698
708708.0,67.0,101.0,44.0,94.0,708.708
708718.0,65.0,93.0,43.0,97.0,708.718
708728.0,63.0,85.0,38.0,102.0,708.728
708738.0,64.0,81.0,33.0,102.0,708.738
708748.0,69.0,82.0,33.0,99.0,708.748
708758.0,73.0,79.0,46.0,98.0,708.758
708768.0,73.0,78.0,44.0,102.0,708.768
708779.0,81.0,104.0,49.0,94.0,708.779
708789.0,79.0,111.0,44.0,101.0,708.789
708799.0,77.0,109.0,47.0,102.0,708.799
708809.0,75.0,100.0,45.0,98.0,708.809
708819.0,75.0,104.0,41.0,93.0,708.819
708829.0,73.0,102.0,56.0,88.0,708.829
708839.0,70.0,95.0,58.0,85.0,708.839
708849.0,70.0,93.0,90.0,85.0,708.849
708859.0,67.0,88.0,85.0,87.0,708.859
708869.0,64.0,83.0,81.0,86.0,708.869
708879.0,63.0,82.0,79.0,99.0,708.879
708889.0,63.0,85.0,81.0,96.0,708.889
708899.0,64.0,83.0,83.0,88.0,708.899
708909.0,67.0,83.0,88.0,87.0,708.909
708919.0,65.0,86.0,88.0,84.0,708.919
708929.0,67.0,88.0,82.0,87.0,708.929
708939.0,67.0,90.0,74.0,84.0,708.939
708950.0,68.0,92.0,120.0,98.0,708.95
708960.0,68.0,96.0,134.0,109.0,708.96
708970.0,68.0,97.0,137.0,107.0,708.97
708980.0,66.0,94.0,120.0,115.0,708.98
708990.0,63.0,93.0,106.0,115.0,708.99
709000.0,62.0,95.0,93.0,110.0,709.0
709010.0,59.0,94.0,83.0,104.0,709.01
709020.0,58.0,97.0,72.0,97.0,709.02
709030.0,55.0,96.0,64.0,89.0,709.03
709040.0,54.0,97.0,57.0,86.0,709.04
709050.0,54.0,100.0,65.0,82.0,709.05
709060.0,54.0,101.0,60.0,81.0,709.06
709070.0,53.0,103.0,61.0,80.0,709.07
709080.0,52.0,101.0,54.0,76.0,709.08
709090.0,53.0,103.0,50.0,73.0,709.09
709100.0,53.0,104.0,50.0,69.0,709.1
709110.0,55.0,101.0,44.0,67.0,709.11
709120.0,55.0,102.0,57.0,65.0,709.12
709130.0,55.0,101.0,53.0,64.0,709.13
709140.0,56.0,103.0,56.0,69.0,709.14
709150.0,58.0,102.0,53.0,64.0,709.15
709160.0,59.0,100.0,47.0,63.0,709.16
709170.0,57.0,101.0,45.0,64.0,709.17
709180.0,58.0,99.0,42.0,59.0,709.18
709190.0,56.0,100.0,36.0,55.0,709.19
709200.0,56.0,98.0,46.0,53.0,709.2
709210.0,56.0,97.0,42.0,52.0,709.21
709220.0,56.0,95.0,35.0,47.0,709.22
709230.0,55.0,93.0,33.0,45.0,709.23
709240.0,54.0,94.0,32.0,42.0,709.24
709250.0,53.0,93.0,29.0,41.0,709.25
709260.0,51.0,93.0,29.0,39.0,709.26
709270.0,50.0,91.0,29.0,38.0,709.27
709280.0,50.0,90.0,25.0,37.0,709.28
709291.0,50.0,89.0,43.0,39.0,709.291
709301.0,49.0,88.0,46.0,38.0,709.301
709311.0,51.0,86.0,45.0,39.0,709.311
709321.0,51.0,85.0,41.0,38.0,709.321
709331.0,50.0,84.0,34.0,37.0,709.331
709341.0,51.0,83.0,31.0,34.0,709.341
709351.0,50.0,84.0,27.0,35.0,709.351
709361.0,49.0,85.0,26.0,36.0,709.361
709371.0,50.0,89.0,37.0,43.0,709.371
709381.0,51.0,87.0,39.0,48.0,709.381
709391.0,52.0,86.0,34.0,46.0,709.391
709401.0,52.0,84.0,30.0,45.0,709.401
709411.0,52.0,83.0,26.0,48.0,709.411
709421.0,52.0,82.0,24.0,53.0,709.421
709431.0,51.0,82.0,21.0,51.0,709.431
709441.0,51.0,80.0,19.0,52.0,709.441
709451.0,49.0,81.0,20.0,51.0,709.451
709462.0,49.0,79.0,21.0,49.0,709.462
709472.0,48.0,78.0,18.0,45.0,709.472
709482.0,48.0,80.0,25.0,45.0,709.482
709492.0,47.0,78.0,27.0,44.0,709.492
709502.0,47.0,77.0,34.0,42.0,709.502
709512.0,47.0,77.0,37.0,43.0,709.512
709522.0,45.0,76.0,32.0,41.0,709.522
709532.0,46.0,75.0,30.0,40.0,709.532
709542.0,44.0,76.0,24.0,38.0,709.542
709552.0,45.0,78.0,23.0,37.0,709.552
709562.0,43.0,77.0,20.0,38.0,709.562
709572.0,42.0,77.0,17.0,40.0,709.572
709582.0,41.0,77.0,15.0,39.0,709.582
709592.0,42.0,79.0,19.0,40.0,709.592
709602.0,44.0,79.0,34.0,41.0,709.602
709612.0,42.0,78.0,35.0,44.0,709.612
709622.0,42.0,76.0,32.0,43.0,709.622
709632.0,42.0,76.0,30.0,43.0,709.632
709642.0,42.0,75.0,26.0,43.0,709.642
709652.0,42.0,75.0,24.0,42.0,709.652
709662.0,41.0,73.0,21.0,42.0,709.662
709672.0,43.0,73.0,21.0,40.0,709.672
709682.0,41.0,73.0,18.0,38.0,709.682
709692.0,40.0,72.0,16.0,37.0,709.692
709702.0,40.0,72.0,15.0,36.0,709.702
709712.0,40.0,72.0,14.0,34.0,709.712
709722.0,41.0,72.0,14.0,34.0,709.722
709732.0,41.0,72.0,13.0,33.0,709.732
709742.0,42.0,70.0,12.0,33.0,709.742
709752.0,42.0,70.0,10.0,32.0,709.752
709762.0,41.0,69.0,11.0,33.0,709.762
709772.0,43.0,69.0,9.0,36.0,709.772
709782.0,44.0,69.0,10.0,36.0,709.782
709792.0,44.0,66.0,9.0,38.0,709.792
709803.0,45.0,68.0,9.0,37.0,709.803
709813.0,47.0,67.0,8.0,47.0,709.813
709823.0,48.0,70.0,22.0,51.0,709.823
709833.0,47.0,68.0,21.0,57.0,709.833
709843.0,47.0,68.0,19.0,57.0,709.843
709853.0,46.0,66.0,17.0,55.0,709.853
709863.0,46.0,66.0,16.0,55.0,709.863
709873.0,46.0,66.0,15.0,57.0,709.873
709883.0,47.0,66.0,13.0,53.0,709.883
709893.0,45.0,68.0,11.0,51.0,709.893
709903.0,46.0,69.0,11.0,49.0,709.903
709913.0,45.0,69.0,11.0,47.0,709.913
709923.0,46.0,69.0,10.0,46.0,709.923
709933.0,46.0,68.0,9.0,45.0,709.933
709943.0,45.0,68.0,8.0,44.0,709.943
709953.0,46.0,69.0,9.0,41.0,709.953
709963.0,44.0,67.0,6.0,42.0,709.963
709974.0,44.0,65.0,7.0,43.0,709.974
709984.0,43.0,65.0,6.0,48.0,709.984
709994.0,44.0,64.0,6.0,44.0,709.994
710004.0,44.0,64.0,7.0,44.0,710.004
710014.0,44.0,63.0,8.0,43.0,710.014
710024.0,45.0,64.0,7.0,43.0,710.024
710034.0,44.0,64.0,6.0,43.0,710.034
710044.0,43.0,64.0,6.0,41.0,710.044
710054.0,43.0,63.0,5.0,40.0,710.054
710064.0,43.0,63.0,6.0,40.0,710.064
710074.0,43.0,62.0,7.0,39.0,710.074
710084.0,42.0,61.0,6.0,41.0,710.084
710094.0,42.0,60.0,6.0,40.0,710.094
710104.0,42.0,60.0,5.0,41.0,710.104
710114.0,42.0,59.0,7.0,43.0,710.114
710124.0,41.0,61.0,7.0,43.0,710.124
710134.0,41.0,60.0,7.0,41.0,710.134
710144.0,42.0,60.0,9.0,43.0,710.144
710154.0,43.0,59.0,7.0,42.0,710.154
710164.0,44.0,58.0,8.0,42.0,710.164
710174.0,44.0,58.0,6.0,41.0,710.174
710184.0,43.0,57.0,6.0,38.0,710.184
710194.0,43.0,58.0,5.0,37.0,710.194
710204.0,43.0,58.0,6.0,34.0,710.204
710214.0,44.0,58.0,6.0,34.0,710.214
710224.0,43.0,59.0,5.0,34.0,710.224
710234.0,46.0,60.0,9.0,37.0,710.234
710244.0,44.0,58.0,8.0,38.0,710.244
710254.0,45.0,57.0,8.0,39.0,710.254
710264.0,45.0,56.0,9.0,44.0,710.264
710274.0,44.0,54.0,7.0,42.0,710.274
710284.0,44.0,54.0,7.0,43.0,710.284
710294.0,44.0,55.0,9.0,43.0,710.294
710304.0,45.0,54.0,11.0,42.0,710.304
710315.0,44.0,53.0,9.0,41.0,710.315
710325.0,44.0,53.0,9.0,39.0,710.325
710335.0,43.0,55.0,9.0,38.0,710.335
710345.0,44.0,54.0,8.0,34.0,710.345
710355.0,45.0,53.0,8.0,36.0,710.355
710365.0,44.0,52.0,8.0,37.0,710.365
710375.0,46.0,54.0,11.0,35.0,710.375
710385.0,44.0,55.0,9.0,35.0,710.385
710395.0,44.0,55.0,8.0,33.0,710.395
710405.0,44.0,57.0,8.0,34.0,710.405
710415.0,43.0,56.0,8.0,34.0,710.415
710425.0,44.0,56.0,9.0,41.0,710.425
710435.0,45.0,60.0,13.0,46.0,710.435
710445.0,46.0,59.0,13.0,45.0,710.445
710455.0,47.0,65.0,30.0,58.0,710.455
710465.0,48.0,64.0,42.0,61.0,710.465
710475.0,49.0,61.0,39.0,79.0,710.475
710486.0,49.0,61.0,44.0,86.0,710.486
710496.0,53.0,66.0,64.0,113.0,710.496
710506.0,51.0,69.0,76.0,126.0,710.506
710516.0,57.0,75.0,132.0,210.0,710.516
710526.0,60.0,86.0,174.0,237.0,710.526
710536.0,69.0,83.0,169.0,262.0,710.536
710546.0,76.0,84.0,181.0,324.0,710.546
710556.0,80.0,90.0,201.0,351.0,710.556
710566.0,87.0,94.0,240.0,351.0,710.566
710576.0,95.0,94.0,238.0,332.0,710.576
710586.0,97.0,90.0,218.0,345.0,710.586
710596.0,106.0,87.0,220.0,367.0,710.596
710606.0,108.0,84.0,230.0,423.0,710.606
710616.0,119.0,81.0,231.0,404.0,710.616
710626.0,122.0,80.0,214.0,407.0,710.626
710636.0,128.0,79.0,217.0,395.0,710.636
710646.0,130.0,80.0,222.0,371.0,710.646
710656.0,136.0,78.0,209.0,370.0,710.656
710666.0,137.0,76.0,194.0,359.0,710.666
710676.0,139.0,76.0,176.0,358.0,710.676
710686.0,143.0,72.0,158.0,327.0,710.686
710696.0,144.0,71.0,150.0,346.0,710.696
710706.0,146.0,71.0,139.0,314.0,710.706
710716.0,141.0,75.0,127.0,300.0,710.716
710726.0,146.0,74.0,125.0,287.0,710.726
710736.0,144.0,76.0,120.0,330.0,710.736
710746.0,145.0,75.0,120.0,308.0,710.746
710756.0,145.0,76.0,111.0,295.0,710.756
710766.0,145.0,76.0,105.0,281.0,710.766
710776.0,142.0,75.0,97.0,258.0,710.776
710786.0,143.0,77.0,92.0,273.0,710.786
710796.0,144.0,79.0,92.0,251.0,710.796
710806.0,142.0,78.0,105.0,241.0,710.806
710816.0,143.0,77.0,104.0,243.0,710.816
710827.0,143.0,77.0,97.0,236.0,710.827
710837.0,141.0,76.0,89.0,254.0,710.837
710847.0,138.0,76.0,83.0,238.0,710.847
710857.0,137.0,76.0,79.0,234.0,710.857
710867.0,136.0,78.0,77.0,223.0,710.867
710877.0,132.0,78.0,88.0,230.0,710.877
710887.0,132.0,75.0,89.0,221.0,710.887
710897.0,132.0,74.0,83.0,209.0,710.897
710907.0,130.0,71.0,79.0,198.0,710.907
710917.0,127.0,71.0,73.0,185.0,710.917
710927.0,124.0,71.0,69.0,175.0,710.927
710937.0,124.0,69.0,63.0,171.0,710.937
710947.0,118.0,71.0,62.0,158.0,710.947
710957.0,118.0,68.0,62.0,160.0,710.957
710967.0,116.0,69.0,60.0,168.0,710.967
710977.0,114.0,68.0,67.0,168.0,710.977
710987.0,113.0,66.0,61.0,172.0,710.987
710998.0,111.0,67.0,56.0,158.0,710.998
711008.0,113.0,64.0,50.0,151.0,711.008
711018.0,108.0,68.0,59.0,168.0,711.018
711028.0,109.0,66.0,63.0,177.0,711.028
711038.0,109.0,66.0,62.0,174.0,711.038
711048.0,107.0,65.0,60.0,167.0,711.048
711058.0,108.0,63.0,56.0,170.0,711.058
711068.0,106.0,61.0,52.0,166.0,711.068
711078.0,106.0,59.0,48.0,168.0,711.078
711088.0,105.0,57.0,47.0,164.0,711.088
711098.0,101.0,60.0,58.0,160.0,711.098
711108.0,102.0,57.0,50.0,153.0,711.108
711118.0,101.0,55.0,49.0,162.0,711.118
711128.0,100.0,56.0,48.0,157.0,711.128
711138.0,97.0,55.0,49.0,152.0,711.138
711148.0,99.0,55.0,52.0,146.0,711.148
711158.0,96.0,53.0,50.0,146.0,711.158
711168.0,95.0,51.0,45.0,145.0,711.168
711178.0,90.0,52.0,46.0,160.0,711.178
711188.0,89.0,50.0,42.0,158.0,711.188
711198.0,88.0,48.0,55.0,147.0,711.198
711208.0,89.0,48.0,53.0,162.0,711.208
711218.0,88.0,48.0,47.0,156.0,711.218
711228.0,88.0,48.0,46.0,145.0,711.228
711238.0,88.0,49.0,45.0,139.0,711.238
711248.0,89.0,49.0,39.0,136.0,711.248
711258.0,89.0,47.0,36.0,124.0,711.258
711268.0,91.0,46.0,37.0,122.0,711.268
711278.0,91.0,44.0,32.0,118.0,711.278
711288.0,90.0,43.0,29.0,114.0,711.288
711298.0,90.0,42.0,28.0,109.0,711.298
711308.0,91.0,42.0,29.0,105.0,711.308
711318.0,90.0,41.0,25.0,108.0,711.318
711328.0,89.0,41.0,24.0,107.0,711.328
711339.0,89.0,40.0,30.0,104.0,711.339
711349.0,87.0,41.0,39.0,104.0,711.349
711359.0,88.0,41.0,47.0,118.0,711.359
711369.0,84.0,42.0,52.0,119.0,711.369
711379.0,86.0,41.0,48.0,121.0,711.379
711389.0,83.0,41.0,44.0,129.0,711.389
711399.0,83.0,40.0,40.0,122.0,711.399
711409.0,80.0,39.0,35.0,123.0,711.409
711419.0,77.0,39.0,37.0,116.0,711.419
711429.0,79.0,40.0,42.0,114.0,711.429
711439.0,73.0,40.0,40.0,106.0,711.439
711449.0,72.0,39.0,36.0,123.0,711.449
711459.0,70.0,38.0,34.0,118.0,711.459
711469.0,68.0,39.0,40.0,113.0,711.469
711479.0,67.0,39.0,40.0,116.0,711.479
711489.0,68.0,39.0,37.0,110.0,711.489
711499.0,69.0,38.0,33.0,107.0,711.499
711510.0,66.0,38.0,30.0,104.0,711.51
711520.0,67.0,37.0,27.0,104.0,711.52
711530.0,66.0,39.0,40.0,102.0,711.53
711540.0,67.0,38.0,39.0,116.0,711.54
711550.0,66.0,39.0,42.0,119.0,711.55
711560.0,67.0,39.0,46.0,111.0,711.56
711570.0,67.0,38.0,41.0,118.0,711.57
711580.0,64.0,39.0,42.0,118.0,711.58
711590.0,65.0,40.0,49.0,112.0,711.59
711600.0,63.0,40.0,43.0,111.0,711.6
711610.0,63.0,39.0,42.0,123.0,711.61
711620.0,63.0,38.0,37.0,121.0,711.62
711630.0,63.0,38.0,41.0,115.0,711.63
711640.0,65.0,37.0,37.0,113.0,711.64
711650.0,64.0,38.0,32.0,107.0,711.65
711660.0,63.0,37.0,33.0,105.0,711.66
711670.0,64.0,39.0,30.0,106.0,711.67
711680.0,63.0,39.0,29.0,106.0,711.68
711690.0,63.0,40.0,35.0,113.0,711.69
711700.0,63.0,40.0,36.0,110.0,711.7
711710.0,63.0,39.0,32.0,108.0,711.71
711720.0,62.0,40.0,28.0,108.0,711.72
711730.0,62.0,41.0,26.0,107.0,711.73
711740.0,60.0,40.0,25.0,105.0,711.74
711750.0,59.0,39.0,24.0,102.0,711.75
711760.0,59.0,39.0,25.0,96.0,711.76
711770.0,57.0,38.0,28.0,104.0,711.77
711780.0,58.0,39.0,41.0,111.0,711.78
711790.0,58.0,41.0,36.0,119.0,711.79
711800.0,59.0,40.0,34.0,115.0,711.8
711810.0,57.0,41.0,39.0,109.0,711.81
711820.0,57.0,39.0,34.0,105.0,711.82
711830.0,59.0,39.0,32.0,110.0,711.83
711840.0,60.0,39.0,28.0,112.0,711.84
711851.0,61.0,39.0,25.0,107.0,711.851
711861.0,59.0,39.0,22.0,103.0,711.861
711871.0,60.0,39.0,22.0,107.0,711.871
711881.0,57.0,40.0,23.0,111.0,711.881
711891.0,55.0,39.0,20.0,105.0,711.891
711901.0,54.0,38.0,19.0,103.0,711.901
711911.0,54.0,39.0,23.0,108.0,711.911
711921.0,55.0,38.0,22.0,104.0,711.921
711931.0,55.0,38.0,21.0,106.0,711.931
711941.0,55.0,39.0,20.0,105.0,711.941
711951.0,54.0,39.0,20.0,104.0,711.951
711961.0,54.0,38.0,20.0,96.0,711.961
711971.0,53.0,37.0,21.0,98.0,711.971
711981.0,53.0,38.0,19.0,105.0,711.981
711991.0,55.0,40.0,19.0,125.0,711.991
712001.0,55.0,40.0,17.0,119.0,712.001
712011.0,54.0,38.0,20.0,109.0,712.011
712022.0,54.0,38.0,18.0,100.0,712.022
712032.0,53.0,41.0,30.0,93.0,712.032
712042.0,57.0,40.0,35.0,91.0,712.042
712052.0,57.0,41.0,33.0,95.0,712.052
712062.0,58.0,41.0,30.0,96.0,712.062
712072.0,57.0,40.0,27.0,113.0,712.072
712082.0,58.0,39.0,25.0,113.0,712.082
712092.0,60.0,39.0,26.0,109.0,712.092
712102.0,62.0,38.0,27.0,105.0,712.102
712112.0,63.0,38.0,27.0,111.0,712.112
712122.0,63.0,40.0,25.0,121.0,712.122
712132.0,64.0,42.0,29.0,114.0,712.132
712142.0,61.0,45.0,46.0,134.0,712.142
712152.0,63.0,47.0,46.0,125.0,712.152
712162.0,62.0,51.0,41.0,126.0,712.162
712172.0,60.0,51.0,36.0,122.0,712.172
712182.0,59.0,52.0,34.0,117.0,712.182
712192.0,60.0,53.0,31.0,115.0,712.192
712202.0,59.0,52.0,27.0,110.0,712.202
712212.0,60.0,53.0,26.0,114.0,712.212
712222.0,62.0,54.0,25.0,112.0,712.222
712232.0,61.0,54.0,23.0,134.0,712.232
712242.0,59.0,53.0,26.0,127.0,712.242
712252.0,60.0,55.0,27.0,129.0,712.252
712262.0,57.0,55.0,31.0,129.0,712.262
712272.0,59.0,56.0,28.0,129.0,712.272
712282.0,58.0,57.0,25.0,123.0,712.282
712292.0,60.0,58.0,26.0,137.0,712.292
712302.0,58.0,59.0,23.0,131.0,712.302
712312.0,58.0,60.0,21.0,121.0,712.312
712322.0,59.0,61.0,19.0,117.0,712.322
712332.0,58.0,61.0,17.0,112.0,712.332
712342.0,57.0,59.0,15.0,113.0,712.342
712352.0,56.0,59.0,15.0,111.0,712.352
712363.0,55.0,57.0,17.0,103.0,712.363
712373.0,54.0,55.0,25.0,97.0,712.373
712383.0,55.0,56.0,39.0,91.0,712.383
712393.0,55.0,57.0,33.0,101.0,712.393
712403.0,55.0,56.0,31.0,98.0,712.403
712413.0,55.0,55.0,29.0,101.0,712.413
712423.0,53.0,54.0,28.0,98.0,712.423
712433.0,55.0,52.0,28.0,97.0,712.433
712443.0,55.0,52.0,25.0,97.0,712.443
712453.0,55.0,50.0,23.0,99.0,712.453
712463.0,55.0,48.0,28.0,101.0,712.463
712473.0,57.0,47.0,30.0,100.0,712.473
712483.0,58.0,47.0,38.0,94.0,712.483
712493.0,57.0,45.0,38.0,95.0,712.493
712503.0,57.0,43.0,34.0,99.0,712.503
712513.0,57.0,42.0,30.0,93.0,712.513
712523.0,59.0,40.0,26.0,86.0,712.523
712534.0,58.0,39.0,26.0,94.0,712.534
712544.0,57.0,40.0,25.0,107.0,712.544
712554.0,58.0,39.0,24.0,103.0,712.554
712564.0,58.0,40.0,27.0,111.0,712.564
712574.0,59.0,40.0,27.0,120.0,712.574
712584.0,58.0,39.0,24.0,131.0,712.584
712594.0,59.0,39.0,28.0,130.0,712.594
712604.0,60.0,39.0,25.0,128.0,712.604
712614.0,60.0,38.0,22.0,121.0,712.614
712624.0,62.0,37.0,22.0,131.0,712.624
712634.0,59.0,40.0,33.0,130.0,712.634
712644.0,59.0,39.0,29.0,135.0,712.644
712654.0,58.0,39.0,33.0,139.0,712.654
712664.0,59.0,38.0,33.0,138.0,712.664
712674.0,59.0,39.0,33.0,135.0,712.674
712684.0,58.0,38.0,30.0,130.0,712.684
712694.0,58.0,36.0,29.0,127.0,712.694
712704.0,57.0,37.0,25.0,125.0,712.704
712714.0,59.0,37.0,27.0,127.0,712.714
712724.0,58.0,37.0,24.0,120.0,712.724
712734.0,57.0,37.0,27.0,116.0,712.734
712744.0,56.0,38.0,32.0,145.0,712.744
712754.0,56.0,37.0,31.0,141.0,712.754
712764.0,56.0,37.0,31.0,128.0,712.764
712774.0,56.0,38.0,29.0,125.0,712.774
712784.0,54.0,40.0,31.0,125.0,712.784
712794.0,54.0,41.0,30.0,135.0,712.794
712804.0,54.0,42.0,39.0,130.0,712.804
712814.0,53.0,41.0,40.0,128.0,712.814
712824.0,53.0,42.0,39.0,122.0,712.824
712834.0,55.0,42.0,36.0,115.0,712.834
712844.0,53.0,42.0,32.0,119.0,712.844
712854.0,55.0,41.0,30.0,125.0,712.854
712864.0,56.0,41.0,27.0,126.0,712.864
712875.0,57.0,40.0,24.0,116.0,712.875
712885.0,58.0,40.0,23.0,107.0,712.885
712895.0,57.0,39.0,21.0,117.0,712.895
712905.0,58.0,38.0,19.0,119.0,712.905
712915.0,56.0,41.0,23.0,125.0,712.915
712925.0,57.0,41.0,25.0,127.0,712.925
712935.0,58.0,40.0,22.0,121.0,712.935
712945.0,57.0,40.0,20.0,110.0,712.945
712955.0,59.0,40.0,18.0,113.0,712.955
712965.0,57.0,39.0,20.0,108.0,712.965
712975.0,59.0,42.0,28.0,102.0,712.975
712985.0,57.0,41.0,34.0,97.0,712.985
712995.0,58.0,40.0,31.0,91.0,712.995
713005.0,58.0,40.0,27.0,91.0,713.005
713015.0,57.0,40.0,25.0,106.0,713.015
713025.0,56.0,40.0,22.0,105.0,713.025
713035.0,56.0,42.0,20.0,106.0,713.035
713046.0,56.0,46.0,28.0,124.0,713.046
713056.0,56.0,47.0,46.0,127.0,713.056
713066.0,58.0,46.0,46.0,125.0,713.066
713076.0,59.0,45.0,39.0,141.0,713.076
713086.0,60.0,47.0,34.0,131.0,713.086
713096.0,61.0,47.0,32.0,129.0,713.096
713106.0,61.0,46.0,28.0,126.0,713.106
713116.0,59.0,46.0,26.0,124.0,713.116
713126.0,58.0,45.0,22.0,118.0,713.126
713136.0,58.0,44.0,28.0,134.0,713.136
713146.0,56.0,46.0,28.0,131.0,713.146
713156.0,56.0,45.0,29.0,126.0,713.156
713166.0,55.0,45.0,30.0,121.0,713.166
713176.0,54.0,44.0,32.0,121.0,713.176
713186.0,54.0,44.0,38.0,120.0,713.186
713196.0,53.0,41.0,34.0,111.0,713.196
713206.0,53.0,40.0,30.0,107.0,713.206
713216.0,53.0,41.0,28.0,106.0,713.216
713226.0,54.0,41.0,34.0,111.0,713.226
713236.0,55.0,41.0,33.0,111.0,713.236
713246.0,57.0,41.0,29.0,110.0,713.246
713256.0,58.0,41.0,26.0,109.0,713.256
713266.0,56.0,44.0,33.0,112.0,713.266
713276.0,56.0,44.0,29.0,105.0,713.276
713286.0,54.0,47.0,28.0,111.0,713.286
713296.0,54.0,48.0,26.0,119.0,713.296
713306.0,54.0,50.0,24.0,119.0,713.306
713316.0,54.0,51.0,21.0,115.0,713.316
713326.0,57.0,51.0,20.0,123.0,713.326
713336.0,53.0,52.0,17.0,117.0,713.336
713346.0,53.0,52.0,15.0,112.0,713.346
713356.0,53.0,52.0,15.0,105.0,713.356
713366.0,52.0,54.0,23.0,100.0,713.366
713376.0,53.0,55.0,28.0,102.0,713.376
713387.0,53.0,53.0,27.0,111.0,713.387
713397.0,54.0,52.0,24.0,111.0,713.397
713407.0,54.0,51.0,21.0,107.0,713.407
713417.0,54.0,51.0,20.0,119.0,713.417
713427.0,55.0,52.0,17.0,109.0,713.427
713437.0,56.0,50.0,18.0,110.0,713.437
713447.0,56.0,52.0,17.0,111.0,713.447
713457.0,57.0,51.0,25.0,115.0,713.457
713467.0,59.0,50.0,22.0,117.0,713.467
713477.0,58.0,50.0,20.0,113.0,713.477
713487.0,60.0,51.0,21.0,110.0,713.487
713497.0,60.0,55.0,18.0,113.0,713.497
713507.0,61.0,56.0,16.0,112.0,713.507
713517.0,61.0,60.0,15.0,111.0,713.517
713527.0,61.0,60.0,14.0,114.0,713.527
713537.0,61.0,58.0,13.0,114.0,713.537
713547.0,61.0,60.0,14.0,110.0,713.547
713558.0,63.0,60.0,13.0,105.0,713.558
713568.0,62.0,61.0,13.0,115.0,713.568
713578.0,62.0,60.0,12.0,114.0,713.578
713588.0,61.0,59.0,11.0,107.0,713.588
713598.0,58.0,62.0,18.0,110.0,713.598
713608.0,58.0,59.0,22.0,115.0,713.608
713618.0,57.0,61.0,23.0,115.0,713.618
713628.0,58.0,61.0,21.0,117.0,713.628
713638.0,57.0,60.0,20.0,113.0,713.638
713648.0,57.0,60.0,18.0,106.0,713.648
713658.0,57.0,58.0,16.0,113.0,713.658
713668.0,55.0,57.0,15.0,111.0,713.668
713678.0,55.0,56.0,13.0,107.0,713.678
713688.0,54.0,57.0,12.0,112.0,713.688
713698.0,55.0,58.0,15.0,109.0,713.698
713708.0,54.0,58.0,15.0,109.0,713.708
713718.0,52.0,58.0,17.0,114.0,713.718
713728.0,52.0,60.0,29.0,122.0,713.728
713738.0,51.0,58.0,29.0,127.0,713.738
713748.0,50.0,58.0,27.0,126.0,713.748
713758.0,50.0,56.0,23.0,132.0,713.758
713768.0,51.0,55.0,22.0,127.0,713.768
713778.0,51.0,55.0,18.0,125.0,713.778
713788.0,51.0,56.0,18.0,118.0,713.788
713798.0,51.0,57.0,20.0,115.0,713.798
713808.0,51.0,57.0,19.0,116.0,713.808
713818.0,51.0,58.0,18.0,114.0,713.818
713828.0,49.0,59.0,15.0,116.0,713.828
713838.0,50.0,59.0,15.0,116.0,713.838
713848.0,49.0,61.0,14.0,109.0,713.848
713858.0,49.0,61.0,14.0,105.0,713.858
713868.0,49.0,62.0,22.0,102.0,713.868
713878.0,49.0,62.0,24.0,110.0,713.878
713888.0,50.0,59.0,23.0,110.0,713.888
713899.0,49.0,58.0,20.0,110.0,713.899
713909.0,50.0,57.0,18.0,108.0,713.909
713919.0,50.0,59.0,16.0,106.0,713.919
713929.0,51.0,60.0,15.0,106.0,713.929
713939.0,53.0,60.0,14.0,100.0,713.939
713949.0,54.0,61.0,16.0,98.0,713.949
713959.0,56.0,61.0,15.0,93.0,713.959
713969.0,56.0,61.0,15.0,99.0,713.969
713979.0,56.0,61.0,13.0,97.0,713.979
713989.0,57.0,62.0,12.0,98.0,713.989
713999.0,58.0,60.0,11.0,96.0,713.999
714009.0,58.0,61.0,12.0,100.0,714.009
714019.0,57.0,62.0,11.0,108.0,714.019
714029.0,57.0,62.0,13.0,104.0,714.029
714039.0,56.0,60.0,12.0,103.0,714.039
714049.0,56.0,60.0,12.0,99.0,714.049
714059.0,56.0,61.0,11.0,93.0,714.059
714070.0,55.0,59.0,10.0,100.0,714.07
714080.0,56.0,57.0,9.0,99.0,714.08
714090.0,56.0,54.0,8.0,92.0,714.09
714100.0,54.0,55.0,9.0,88.0,714.1
714110.0,56.0,52.0,11.0,82.0,714.11
714120.0,56.0,52.0,13.0,85.0,714.12
714130.0,55.0,51.0,11.0,88.0,714.13
714140.0,55.0,50.0,10.0,87.0,714.14
714150.0,53.0,49.0,9.0,85.0,714.15
714160.0,52.0,49.0,9.0,88.0,714.16
714170.0,51.0,50.0,10.0,91.0,714.17
714180.0,50.0,50.0,10.0,99.0,714.18
714190.0,50.0,50.0,16.0,106.0,714.19
714200.0,50.0,49.0,22.0,106.0,714.2
714210.0,50.0,49.0,20.0,96.0,714.21
714220.0,49.0,50.0,19.0,93.0,714.22
714230.0,49.0,50.0,17.0,88.0,714.23
714240.0,49.0,50.0,27.0,86.0,714.24
714250.0,50.0,49.0,22.0,97.0,714.25
714260.0,51.0,47.0,20.0,97.0,714.26
714270.0,51.0,49.0,24.0,131.0,714.27
714280.0,51.0,47.0,21.0,138.0,714.28
714290.0,53.0,45.0,20.0,132.0,714.29
714300.0,52.0,44.0,19.0,128.0,714.3
714310.0,52.0,44.0,17.0,132.0,714.31
714320.0,52.0,43.0,16.0,127.0,714.32
714330.0,53.0,41.0,15.0,120.0,714.33
714340.0,52.0,41.0,12.0,116.0,714.34
714350.0,53.0,44.0,24.0,112.0,714.35
714360.0,54.0,44.0,21.0,103.0,714.36
714370.0,53.0,44.0,23.0,103.0,714.37
714380.0,53.0,43.0,24.0,104.0,714.38
714390.0,55.0,43.0,23.0,101.0,714.39
714400.0,55.0,44.0,24.0,100.0,714.4
714411.0,55.0,44.0,20.0,99.0,714.411
714421.0,56.0,44.0,20.0,94.0,714.421
714431.0,57.0,45.0,17.0,91.0,714.431
714441.0,57.0,48.0,17.0,84.0,714.441
714451.0,58.0,51.0,15.0,83.0,714.451
714461.0,57.0,53.0,24.0,78.0,714.461
714471.0,58.0,53.0,34.0,73.0,714.471
714481.0,59.0,54.0,31.0,74.0,714.481
714491.0,61.0,54.0,29.0,87.0,714.491
714501.0,61.0,53.0,25.0,83.0,714.501
714511.0,61.0,52.0,22.0,81.0,714.511
714521.0,63.0,51.0,21.0,82.0,714.521
714531.0,62.0,50.0,18.0,92.0,714.531
714541.0,63.0,50.0,17.0,89.0,714.541
714551.0,59.0,52.0,16.0,92.0,714.551
714561.0,59.0,52.0,27.0,92.0,714.561
714571.0,60.0,50.0,28.0,88.0,714.571
714582.0,59.0,50.0,25.0,89.0,714.582
714592.0,59.0,48.0,21.0,90.0,714.592
714602.0,55.0,48.0,18.0,89.0,714.602
714612.0,54.0,47.0,18.0,93.0,714.612
714622.0,53.0,46.0,17.0,93.0,714.622
714632.0,53.0,44.0,18.0,111.0,714.632
714642.0,55.0,43.0,17.0,121.0,714.642
714652.0,54.0,42.0,17.0,116.0,714.652
714662.0,54.0,42.0,15.0,109.0,714.662
714672.0,54.0,42.0,13.0,107.0,714.672
714682.0,53.0,41.0,14.0,102.0,714.682
714692.0,51.0,42.0,11.0,100.0,714.692
714702.0,52.0,41.0,13.0,101.0,714.702
714712.0,53.0,41.0,13.0,99.0,714.712
714722.0,53.0,42.0,15.0,96.0,714.722
714732.0,55.0,43.0,15.0,95.0,714.732
714742.0,54.0,43.0,22.0,93.0,714.742
714752.0,57.0,43.0,21.0,95.0,714.752
714762.0,55.0,43.0,25.0,96.0,714.762
714772.0,56.0,42.0,22.0,95.0,714.772
714782.0,54.0,43.0,19.0,94.0,714.782
714792.0,55.0,43.0,19.0,89.0,714.792
714802.0,54.0,44.0,16.0,86.0,714.802
714812.0,53.0,44.0,16.0,96.0,714.812
714822.0,52.0,45.0,17.0,94.0,714.822
714832.0,51.0,49.0,31.0,105.0,714.832
714842.0,52.0,46.0,28.0,103.0,714.842
714852.0,51.0,46.0,26.0,109.0,714.852
714862.0,50.0,46.0,29.0,117.0,714.862
714872.0,51.0,45.0,26.0,113.0,714.872
714882.0,50.0,44.0,23.0,113.0,714.882
714892.0,51.0,43.0,22.0,106.0,714.892
714902.0,50.0,44.0,19.0,108.0,714.902
714912.0,50.0,42.0,23.0,105.0,714.912
714923.0,52.0,42.0,20.0,101.0,714.923
714933.0,53.0,41.0,21.0,100.0,714.933
714943.0,53.0,41.0,20.0,104.0,714.943
714953.0,52.0,41.0,19.0,102.0,714.953
714963.0,51.0,43.0,39.0,110.0,714.963
714973.0,54.0,43.0,35.0,110.0,714.973
714983.0,55.0,41.0,31.0,106.0,714.983
714993.0,54.0,41.0,29.0,101.0,714.993
715003.0,53.0,39.0,29.0,93.0,715.003
715013.0,53.0,39.0,25.0,87.0,715.013
715023.0,52.0,38.0,26.0,104.0,715.023
715033.0,53.0,38.0,25.0,104.0,715.033
715043.0,51.0,38.0,21.0,96.0,715.043
715053.0,53.0,37.0,19.0,89.0,715.053
715063.0,52.0,38.0,17.0,86.0,715.063
715073.0,53.0,37.0,16.0,93.0,715.073
715083.0,52.0,36.0,16.0,101.0,715.083
715094.0,53.0,36.0,16.0,102.0,715.094
715104.0,54.0,36.0,15.0,100.0,715.104
715114.0,53.0,38.0,13.0,93.0,715.114
715124.0,54.0,37.0,12.0,87.0,715.124
715134.0,55.0,38.0,12.0,89.0,715.134
715144.0,54.0,38.0,23.0,90.0,715.144
715154.0,56.0,39.0,21.0,89.0,715.154
715164.0,55.0,38.0,19.0,92.0,715.164
715174.0,54.0,37.0,17.0,101.0,715.174
715184.0,54.0,38.0,15.0,101.0,715.184
715194.0,54.0,38.0,19.0,96.0,715.194
715204.0,53.0,38.0,23.0,92.0,715.204
715214.0,53.0,38.0,20.0,93.0,715.214
715224.0,55.0,37.0,17.0,85.0,715.224
715234.0,54.0,37.0,17.0,85.0,715.234
715244.0,54.0,36.0,15.0,77.0,715.244
715254.0,53.0,37.0,14.0,73.0,715.254
715264.0,52.0,35.0,12.0,68.0,715.264
715274.0,52.0,34.0,11.0,66.0,715.274
715284.0,52.0,34.0,11.0,70.0,715.284
715294.0,51.0,34.0,9.0,70.0,715.294
715304.0,50.0,34.0,9.0,67.0,715.304
715314.0,50.0,33.0,8.0,68.0,715.314
715324.0,49.0,35.0,8.0,69.0,715.324
715334.0,50.0,34.0,8.0,80.0,715.334
715344.0,51.0,34.0,11.0,101.0,715.344
715354.0,51.0,35.0,10.0,95.0,715.354
715364.0,51.0,34.0,10.0,90.0,715.364
715374.0,50.0,35.0,11.0,84.0,715.374
715384.0,50.0,33.0,12.0,96.0,715.384
715394.0,50.0,34.0,10.0,99.0,715.394
715404.0,49.0,34.0,10.0,91.0,715.404
715414.0,48.0,36.0,13.0,82.0,715.414
715424.0,48.0,36.0,13.0,91.0,715.424
715435.0,48.0,36.0,11.0,94.0,715.435
715445.0,46.0,36.0,12.0,98.0,715.445
715455.0,46.0,36.0,13.0,97.0,715.455
715465.0,47.0,38.0,13.0,95.0,715.465
715475.0,47.0,38.0,12.0,92.0,715.475
715485.0,47.0,38.0,12.0,96.0,715.485
715495.0,47.0,38.0,12.0,91.0,715.495
715505.0,46.0,38.0,10.0,85.0,715.505
715515.0,44.0,40.0,10.0,89.0,715.515
715525.0,47.0,40.0,10.0,85.0,715.525
715535.0,47.0,42.0,11.0,86.0,715.535
715545.0,47.0,40.0,11.0,80.0,715.545
715555.0,46.0,42.0,12.0,86.0,715.555
715565.0,47.0,40.0,14.0,96.0,715.565
715575.0,47.0,41.0,13.0,104.0,715.575
715585.0,47.0,41.0,13.0,105.0,715.585
715595.0,48.0,40.0,12.0,97.0,715.595
715606.0,47.0,40.0,11.0,97.0,715.606
715616.0,48.0,40.0,11.0,100.0,715.616
715626.0,49.0,40.0,11.0,99.0,715.626
715636.0,50.0,39.0,10.0,90.0,715.636
715646.0,50.0,40.0,10.0,89.0,715.646
715656.0,51.0,39.0,9.0,90.0,715.656
715666.0,52.0,40.0,9.0,95.0,715.666
715676.0,50.0,41.0,7.0,90.0,715.676
715686.0,49.0,41.0,7.0,88.0,715.686
715696.0,49.0,43.0,7.0,87.0,715.696
715706.0,50.0,42.0,8.0,91.0,715.706
715716.0,49.0,43.0,6.0,93.0,715.716
715726.0,49.0,44.0,6.0,93.0,715.726
715736.0,49.0,44.0,9.0,85.0,715.736
715746.0,50.0,45.0,8.0,95.0,715.746
715756.0,49.0,44.0,9.0,92.0,715.756
715766.0,48.0,44.0,9.0,90.0,715.766
715776.0,49.0,44.0,11.0,96.0,715.776
715786.0,50.0,44.0,12.0,99.0,715.786
715796.0,50.0,45.0,12.0,103.0,715.796
715806.0,52.0,46.0,12.0,111.0,715.806
715816.0,53.0,49.0,13.0,111.0,715.816
715826.0,55.0,47.0,13.0,114.0,715.826
715836.0,57.0,48.0,12.0,116.0,715.836
715846.0,57.0,49.0,12.0,108.0,715.846
715856.0,59.0,49.0,10.0,103.0,715.856
715866.0,58.0,50.0,10.0,96.0,715.866
715876.0,58.0,49.0,12.0,93.0,715.876
715886.0,58.0,49.0,10.0,94.0,715.886
715896.0,60.0,48.0,11.0,96.0,715.896
715906.0,60.0,49.0,10.0,95.0,715.906
715916.0,58.0,49.0,10.0,95.0,715.916
715926.0,58.0,49.0,9.0,94.0,715.926
715936.0,55.0,50.0,7.0,94.0,715.936
715947.0,55.0,51.0,7.0,98.0,715.947
715957.0,55.0,51.0,7.0,95.0,715.957
715967.0,54.0,50.0,8.0,87.0,715.967
715977.0,53.0,49.0,7.0,92.0,715.977
715987.0,53.0,49.0,9.0,89.0,715.987
715997.0,54.0,48.0,8.0,98.0,715.997
716007.0,52.0,46.0,8.0,103.0,716.007
716017.0,53.0,45.0,9.0,100.0,716.017
716027.0,53.0,45.0,9.0,94.0,716.027
716037.0,54.0,43.0,8.0,86.0,716.037
716047.0,53.0,43.0,8.0,94.0,716.047
716057.0,52.0,43.0,9.0,102.0,716.057
716067.0,52.0,43.0,7.0,100.0,716.067
716077.0,53.0,44.0,7.0,101.0,716.077
716087.0,53.0,45.0,9.0,96.0,716.087
716097.0,53.0,46.0,11.0,90.0,716.097
716107.0,54.0,46.0,14.0,103.0,716.107
716118.0,54.0,46.0,13.0,100.0,716.118
716128.0,53.0,45.0,15.0,100.0,716.128
716138.0,53.0,44.0,15.0,112.0,716.138
716148.0,52.0,44.0,13.0,107.0,716.148
716158.0,55.0,42.0,12.0,115.0,716.158
716168.0,54.0,43.0,11.0,119.0,716.168
716178.0,53.0,42.0,13.0,113.0,716.178
716188.0,52.0,42.0,12.0,107.0,716.188
716198.0,53.0,42.0,14.0,108.0,716.198
716208.0,53.0,43.0,12.0,103.0,716.208
716218.0,54.0,43.0,12.0,109.0,716.218
716228.0,55.0,43.0,11.0,111.0,716.228
716238.0,54.0,44.0,10.0,111.0,716.238
716248.0,55.0,44.0,12.0,106.0,716.248
716258.0,57.0,43.0,11.0,115.0,716.258
716268.0,57.0,42.0,10.0,110.0,716.268
716278.0,55.0,42.0,9.0,106.0,716.278
716288.0,56.0,42.0,9.0,106.0,716.288
716298.0,55.0,43.0,8.0,101.0,716.298
716308.0,54.0,45.0,8.0,98.0,716.308
716318.0,53.0,45.0,7.0,92.0,716.318
716328.0,52.0,46.0,8.0,96.0,716.328
716338.0,53.0,45.0,9.0,99.0,716.338
716348.0,52.0,45.0,8.0,98.0,716.348
716358.0,50.0,47.0,7.0,94.0,716.358
716368.0,51.0,47.0,8.0,101.0,716.368
716378.0,49.0,51.0,7.0,99.0,716.378
716388.0,50.0,50.0,8.0,92.0,716.388
716398.0,49.0,52.0,8.0,90.0,716.398
716408.0,49.0,53.0,8.0,93.0,716.408
716418.0,50.0,52.0,6.0,87.0,716.418
716428.0,47.0,53.0,8.0,100.0,716.428
716438.0,48.0,52.0,8.0,104.0,716.438
716448.0,49.0,51.0,8.0,101.0,716.448
716459.0,48.0,50.0,9.0,95.0,716.459
716469.0,49.0,50.0,7.0,99.0,716.469
716479.0,50.0,50.0,8.0,94.0,716.479
716489.0,49.0,51.0,8.0,99.0,716.489
716499.0,49.0,52.0,8.0,92.0,716.499
716509.0,49.0,53.0,8.0,86.0,716.509
716519.0,50.0,54.0,8.0,88.0,716.519
716529.0,50.0,54.0,7.0,87.0,716.529
716539.0,48.0,54.0,7.0,92.0,716.539
716549.0,49.0,55.0,11.0,90.0,716.549
716559.0,48.0,54.0,10.0,92.0,716.559
716569.0,48.0,54.0,12.0,96.0,716.569
716579.0,48.0,56.0,12.0,94.0,716.579
716589.0,50.0,56.0,15.0,99.0,716.589
716599.0,51.0,56.0,15.0,94.0,716.599
716609.0,51.0,56.0,12.0,97.0,716.609
716619.0,51.0,56.0,13.0,89.0,716.619
716630.0,50.0,57.0,10.0,90.0,716.63
716640.0,50.0,58.0,9.0,93.0,716.64
716650.0,50.0,58.0,13.0,90.0,716.65
716660.0,51.0,58.0,12.0,90.0,716.66
716670.0,50.0,55.0,15.0,91.0,716.67
716680.0,50.0,56.0,14.0,89.0,716.68
716690.0,52.0,55.0,14.0,85.0,716.69
716700.0,50.0,55.0,12.0,83.0,716.7
716710.0,49.0,56.0,15.0,83.0,716.71
716720.0,49.0,55.0,13.0,81.0,716.72
716730.0,48.0,56.0,11.0,88.0,716.73
716740.0,48.0,56.0,11.0,84.0,716.74
716750.0,48.0,56.0,9.0,82.0,716.75
716760.0,49.0,58.0,10.0,91.0,716.76
716770.0,49.0,61.0,10.0,99.0,716.77
716780.0,50.0,62.0,9.0,93.0,716.78
716790.0,52.0,63.0,8.0,97.0,716.79
716800.0,51.0,65.0,11.0,94.0,716.8
716810.0,52.0,65.0,12.0,87.0,716.81
716820.0,53.0,65.0,11.0,86.0,716.82
716830.0,53.0,66.0,11.0,82.0,716.83
716840.0,52.0,66.0,10.0,81.0,716.84
716850.0,51.0,65.0,9.0,86.0,716.85
716860.0,51.0,65.0,9.0,89.0,716.86
716870.0,50.0,68.0,11.0,88.0,716.87
716880.0,50.0,68.0,11.0,87.0,716.88
716890.0,50.0,68.0,11.0,90.0,716.89
716900.0,51.0,69.0,11.0,91.0,716.9
716910.0,52.0,70.0,10.0,96.0,716.91
716920.0,53.0,69.0,10.0,93.0,716.92
716930.0,53.0,69.0,13.0,91.0,716.93
716940.0,52.0,70.0,13.0,87.0,716.94
716950.0,53.0,70.0,14.0,86.0,716.95
716960.0,54.0,69.0,13.0,82.0,716.96
716971.0,55.0,67.0,15.0,94.0,716.971
716981.0,57.0,67.0,14.0,92.0,716.981
716991.0,58.0,66.0,13.0,93.0,716.991
717001.0,60.0,68.0,12.0,87.0,717.001
717011.0,59.0,67.0,11.0,88.0,717.011
717021.0,61.0,68.0,13.0,92.0,717.021
717031.0,61.0,67.0,13.0,92.0,717.031
717041.0,62.0,66.0,13.0,89.0,717.041
717051.0,62.0,67.0,12.0,95.0,717.051
717061.0,62.0,67.0,11.0,93.0,717.061
717071.0,62.0,68.0,10.0,101.0,717.071
717081.0,62.0,68.0,10.0,97.0,717.081
717091.0,61.0,70.0,14.0,101.0,717.091
717101.0,63.0,68.0,17.0,103.0,717.101
717111.0,62.0,68.0,18.0,94.0,717.111
717121.0,64.0,66.0,14.0,97.0,717.121
717131.0,62.0,66.0,16.0,97.0,717.131
717142.0,62.0,65.0,15.0,102.0,717.142
717152.0,61.0,65.0,15.0,96.0,717.152
717162.0,62.0,64.0,14.0,102.0,717.162
717172.0,62.0,64.0,25.0,107.0,717.172
717182.0,63.0,62.0,22.0,106.0,717.182
717192.0,63.0,62.0,18.0,103.0,717.192
717202.0,61.0,63.0,19.0,103.0,717.202
717212.0,61.0,61.0,17.0,100.0,717.212
717222.0,60.0,60.0,14.0,91.0,717.222
717232.0,61.0,59.0,13.0,86.0,717.232
717242.0,59.0,59.0,12.0,80.0,717.242
717252.0,59.0,60.0,13.0,91.0,717.252
717262.0,59.0,59.0,16.0,94.0,717.262
717272.0,57.0,60.0,20.0,89.0,717.272
717282.0,57.0,60.0,18.0,89.0,717.282
717292.0,57.0,61.0,16.0,89.0,717.292
717302.0,58.0,60.0,15.0,84.0,717.302
717312.0,56.0,61.0,13.0,93.0,717.312
717322.0,56.0,60.0,14.0,87.0,717.322
717332.0,56.0,59.0,14.0,84.0,717.332
717342.0,54.0,59.0,13.0,88.0,717.342
717352.0,56.0,55.0,11.0,87.0,717.352
717362.0,56.0,53.0,10.0,90.0,717.362
717372.0,58.0,51.0,16.0,98.0,717.372
717382.0,57.0,50.0,14.0,92.0,717.382
717392.0,59.0,50.0,15.0,107.0,717.392
717402.0,59.0,50.0,13.0,102.0,717.402
717412.0,59.0,49.0,14.0,95.0,717.412
717422.0,59.0,47.0,14.0,99.0,717.422
717432.0,59.0,47.0,13.0,102.0,717.432
717442.0,59.0,46.0,12.0,94.0,717.442
717452.0,58.0,46.0,14.0,90.0,717.452
717462.0,59.0,46.0,15.0,101.0,717.462
717472.0,58.0,46.0,12.0,100.0,717.472
717483.0,57.0,46.0,13.0,96.0,717.483
717493.0,56.0,46.0,13.0,90.0,717.493
717503.0,55.0,48.0,15.0,92.0,717.503
717513.0,54.0,47.0,17.0,89.0,717.513
717523.0,54.0,47.0,15.0,85.0,717.523
717533.0,55.0,47.0,14.0,81.0,717.533
717543.0,53.0,47.0,12.0,82.0,717.543
717553.0,51.0,47.0,12.0,77.0,717.553
717563.0,50.0,47.0,13.0,84.0,717.563
717573.0,49.0,46.0,11.0,85.0,717.573
717583.0,49.0,46.0,11.0,88.0,717.583
717593.0,50.0,44.0,13.0,88.0,717.593
717603.0,51.0,43.0,13.0,88.0,717.603
717613.0,50.0,42.0,11.0,82.0,717.613
717623.0,50.0,42.0,11.0,88.0,717.623
717633.0,50.0,43.0,10.0,89.0,717.633
717643.0,50.0,44.0,10.0,94.0,717.643
717654.0,51.0,44.0,18.0,90.0,717.654
717664.0,51.0,44.0,17.0,88.0,717.664
717674.0,52.0,45.0,17.0,91.0,717.674
717684.0,52.0,45.0,15.0,82.0,717.684
717694.0,52.0,45.0,14.0,93.0,717.694
717704.0,52.0,45.0,14.0,89.0,717.704
717714.0,50.0,46.0,17.0,84.0,717.714
717724.0,51.0,44.0,15.0,84.0,717.724
717734.0,49.0,46.0,18.0,94.0,717.734
717744.0,52.0,45.0,19.0,95.0,717.744
717754.0,52.0,46.0,16.0,92.0,717.754
717764.0,52.0,45.0,15.0,97.0,717.764
