time (ms),signal 0,signal 1,signal 2,signal3,time (sec)
761585.0,50.0,47.0,39.0,62.0,761.585
761595.0,50.0,46.0,35.0,60.0,761.595
761605.0,49.0,47.0,36.0,61.0,761.605
761615.0,50.0,47.0,35.0,62.0,761.615
761625.0,52.0,49.0,31.0,60.0,761.625
761635.0,53.0,50.0,42.0,59.0,761.635
761645.0,53.0,50.0,40.0,57.0,761.645
761655.0,54.0,52.0,37.0,55.0,761.655
761665.0,55.0,51.0,34.0,56.0,761.665
761675.0,55.0,51.0,29.0,55.0,761.675
761686.0,55.0,53.0,26.0,55.0,761.686
761696.0,56.0,54.0,24.0,57.0,761.696
761706.0,56.0,55.0,25.0,62.0,761.706
761716.0,55.0,54.0,32.0,65.0,761.716
761726.0,55.0,59.0,33.0,63.0,761.726
761736.0,55.0,59.0,30.0,66.0,761.736
761746.0,54.0,59.0,26.0,64.0,761.746
761756.0,53.0,60.0,24.0,61.0,761.756
761766.0,52.0,61.0,23.0,61.0,761.766
761776.0,52.0,61.0,36.0,64.0,761.776
761786.0,53.0,61.0,35.0,62.0,761.786
761796.0,51.0,59.0,29.0,64.0,761.796
761806.0,52.0,59.0,39.0,63.0,761.806
761816.0,53.0,61.0,36.0,61.0,761.816
761826.0,52.0,59.0,32.0,59.0,761.826
761836.0,52.0,58.0,29.0,57.0,761.836
761846.0,53.0,58.0,26.0,62.0,761.846
761856.0,53.0,59.0,24.0,63.0,761.856
761866.0,53.0,59.0,23.0,65.0,761.866
761876.0,54.0,58.0,35.0,65.0,761.876
761886.0,54.0,58.0,34.0,64.0,761.886
761896.0,55.0,57.0,30.0,64.0,761.896
761906.0,55.0,55.0,39.0,65.0,761.906
761916.0,56.0,56.0,39.0,64.0,761.916
761926.0,56.0,54.0,36.0,62.0,761.926
761936.0,56.0,52.0,32.0,60.0,761.936
761946.0,58.0,52.0,32.0,60.0,761.946
761956.0,57.0,51.0,28.0,65.0,761.956
761966.0,56.0,51.0,28.0,64.0,761.966
761976.0,56.0,50.0,27.0,62.0,761.976
761986.0,56.0,50.0,38.0,62.0,761.986
761996.0,57.0,51.0,36.0,58.0,761.996
762006.0,56.0,51.0,32.0,60.0,762.006
762016.0,57.0,51.0,29.0,63.0,762.016
762027.0,58.0,51.0,24.0,60.0,762.027
762037.0,58.0,51.0,27.0,59.0,762.037
762047.0,57.0,51.0,25.0,60.0,762.047
762057.0,59.0,52.0,24.0,58.0,762.057
762067.0,58.0,53.0,21.0,52.0,762.067
762077.0,57.0,54.0,19.0,50.0,762.077
762087.0,57.0,52.0,25.0,49.0,762.087
762097.0,55.0,52.0,30.0,49.0,762.097
762107.0,56.0,52.0,27.0,52.0,762.107
762117.0,55.0,50.0,26.0,57.0,762.117
762127.0,56.0,51.0,25.0,58.0,762.127
762137.0,55.0,49.0,25.0,55.0,762.137
762147.0,55.0,48.0,23.0,55.0,762.147
762157.0,55.0,46.0,21.0,54.0,762.157
762167.0,55.0,47.0,30.0,52.0,762.167
762177.0,56.0,47.0,29.0,52.0,762.177
762187.0,58.0,47.0,26.0,59.0,762.187
762198.0,58.0,46.0,24.0,54.0,762.198
762208.0,60.0,46.0,21.0,55.0,762.208
762218.0,61.0,45.0,20.0,53.0,762.218
762228.0,61.0,44.0,19.0,54.0,762.228
762238.0,62.0,45.0,16.0,52.0,762.238
762248.0,62.0,43.0,17.0,50.0,762.248
762258.0,62.0,45.0,15.0,52.0,762.258
762268.0,60.0,43.0,19.0,50.0,762.268
762278.0,62.0,44.0,25.0,50.0,762.278
762288.0,61.0,45.0,22.0,50.0,762.288
762298.0,61.0,43.0,22.0,48.0,762.298
762308.0,58.0,44.0,22.0,50.0,762.308
762318.0,58.0,44.0,26.0,52.0,762.318
762328.0,60.0,43.0,26.0,58.0,762.328
762338.0,61.0,43.0,23.0,60.0,762.338
762348.0,62.0,41.0,20.0,58.0,762.348
762358.0,62.0,42.0,29.0,55.0,762.358
762368.0,64.0,42.0,37.0,55.0,762.368
762378.0,64.0,42.0,40.0,59.0,762.378
762388.0,66.0,41.0,36.0,61.0,762.388
762398.0,67.0,40.0,32.0,66.0,762.398
762408.0,69.0,39.0,31.0,68.0,762.408
762418.0,70.0,39.0,31.0,68.0,762.418
762428.0,69.0,38.0,27.0,66.0,762.428
762438.0,72.0,37.0,24.0,62.0,762.438
762448.0,70.0,40.0,36.0,61.0,762.448
762458.0,72.0,38.0,33.0,62.0,762.458
762468.0,71.0,38.0,29.0,62.0,762.468
762478.0,70.0,38.0,34.0,64.0,762.478
762488.0,69.0,38.0,37.0,66.0,762.488
762498.0,70.0,40.0,35.0,67.0,762.498
762508.0,73.0,41.0,33.0,72.0,762.508
762518.0,70.0,40.0,28.0,68.0,762.518
762528.0,69.0,40.0,25.0,69.0,762.528
762539.0,69.0,40.0,35.0,66.0,762.539
762549.0,67.0,41.0,31.0,66.0,762.549
762559.0,68.0,39.0,32.0,64.0,762.559
762569.0,65.0,39.0,28.0,63.0,762.569
762579.0,65.0,39.0,28.0,59.0,762.579
762589.0,63.0,40.0,27.0,61.0,762.589
762599.0,60.0,42.0,23.0,56.0,762.599
762609.0,59.0,46.0,21.0,55.0,762.609
762619.0,58.0,48.0,19.0,54.0,762.619
762629.0,57.0,55.0,21.0,55.0,762.629
762639.0,56.0,58.0,20.0,52.0,762.639
762649.0,58.0,59.0,18.0,50.0,762.649
762659.0,56.0,70.0,22.0,55.0,762.659
762669.0,58.0,87.0,27.0,56.0,762.669
762679.0,56.0,86.0,28.0,58.0,762.679
762689.0,57.0,80.0,32.0,56.0,762.689
762699.0,60.0,76.0,32.0,69.0,762.699
762710.0,60.0,73.0,29.0,70.0,762.71
762720.0,59.0,83.0,33.0,65.0,762.72
762730.0,58.0,81.0,28.0,65.0,762.73
762740.0,59.0,88.0,34.0,65.0,762.74
762750.0,61.0,85.0,30.0,69.0,762.75
762760.0,62.0,78.0,27.0,68.0,762.76
762770.0,61.0,73.0,26.0,66.0,762.77
762780.0,60.0,69.0,24.0,66.0,762.78
762790.0,59.0,72.0,32.0,67.0,762.79
762800.0,59.0,69.0,31.0,69.0,762.8
762810.0,58.0,68.0,31.0,69.0,762.81
762820.0,59.0,64.0,29.0,74.0,762.82
762830.0,58.0,63.0,29.0,74.0,762.83
762840.0,59.0,63.0,29.0,76.0,762.84
762850.0,59.0,61.0,33.0,77.0,762.85
762860.0,62.0,59.0,30.0,75.0,762.86
762870.0,62.0,61.0,44.0,74.0,762.87
762880.0,64.0,59.0,43.0,74.0,762.88
762890.0,62.0,59.0,38.0,79.0,762.89
762900.0,62.0,62.0,34.0,77.0,762.9
762910.0,62.0,62.0,30.0,73.0,762.91
762920.0,60.0,61.0,31.0,73.0,762.92
762930.0,61.0,60.0,29.0,71.0,762.93
762940.0,58.0,60.0,27.0,69.0,762.94
762950.0,60.0,62.0,51.0,67.0,762.95
762960.0,59.0,63.0,48.0,71.0,762.96
762970.0,60.0,67.0,44.0,71.0,762.97
762980.0,61.0,65.0,40.0,70.0,762.98
762990.0,60.0,63.0,36.0,70.0,762.99
763000.0,59.0,62.0,33.0,65.0,763.0
763010.0,59.0,62.0,29.0,65.0,763.01
763020.0,57.0,64.0,27.0,64.0,763.02
763030.0,56.0,65.0,29.0,71.0,763.03
763040.0,55.0,64.0,31.0,68.0,763.04
763051.0,56.0,64.0,45.0,76.0,763.051
763061.0,55.0,66.0,43.0,74.0,763.061
763071.0,55.0,65.0,40.0,73.0,763.071
763081.0,55.0,66.0,36.0,72.0,763.081
763091.0,55.0,64.0,31.0,69.0,763.091
763101.0,54.0,66.0,30.0,69.0,763.101
763111.0,54.0,72.0,36.0,66.0,763.111
763121.0,57.0,69.0,37.0,72.0,763.121
763131.0,55.0,69.0,34.0,70.0,763.131
763141.0,57.0,70.0,34.0,69.0,763.141
763151.0,56.0,71.0,30.0,71.0,763.151
763161.0,54.0,72.0,27.0,69.0,763.161
763171.0,54.0,79.0,35.0,68.0,763.171
763181.0,55.0,79.0,38.0,72.0,763.181
763191.0,56.0,79.0,35.0,74.0,763.191
763201.0,53.0,79.0,47.0,74.0,763.201
763211.0,56.0,77.0,43.0,75.0,763.211
763222.0,54.0,80.0,46.0,74.0,763.222
763232.0,55.0,77.0,44.0,74.0,763.232
763242.0,54.0,81.0,38.0,73.0,763.242
763252.0,56.0,76.0,35.0,70.0,763.252
763262.0,55.0,77.0,31.0,68.0,763.262
763272.0,55.0,80.0,31.0,70.0,763.272
763282.0,55.0,75.0,31.0,66.0,763.282
763292.0,54.0,75.0,30.0,63.0,763.292
763302.0,54.0,75.0,27.0,61.0,763.302
763312.0,54.0,78.0,26.0,57.0,763.312
763322.0,55.0,77.0,24.0,52.0,763.322
763332.0,53.0,74.0,21.0,50.0,763.332
763342.0,53.0,71.0,41.0,57.0,763.342
763352.0,53.0,68.0,37.0,58.0,763.352
763362.0,52.0,68.0,36.0,61.0,763.362
763372.0,51.0,66.0,32.0,59.0,763.372
763382.0,51.0,65.0,28.0,59.0,763.382
763392.0,50.0,64.0,27.0,53.0,763.392
763402.0,50.0,62.0,29.0,58.0,763.402
763412.0,49.0,62.0,31.0,61.0,763.412
763422.0,51.0,59.0,35.0,61.0,763.422
763432.0,50.0,62.0,32.0,62.0,763.432
763442.0,53.0,61.0,30.0,62.0,763.442
763452.0,51.0,62.0,25.0,65.0,763.452
763462.0,53.0,60.0,23.0,62.0,763.462
763472.0,54.0,56.0,21.0,56.0,763.472
763482.0,53.0,58.0,23.0,54.0,763.482
763492.0,53.0,58.0,25.0,51.0,763.492
763502.0,54.0,57.0,36.0,56.0,763.502
763512.0,53.0,56.0,31.0,53.0,763.512
763522.0,52.0,59.0,27.0,51.0,763.522
763532.0,51.0,58.0,28.0,50.0,763.532
763542.0,53.0,58.0,25.0,52.0,763.542
763552.0,53.0,55.0,23.0,51.0,763.552
763563.0,54.0,53.0,21.0,49.0,763.563
763573.0,54.0,54.0,20.0,49.0,763.573
763583.0,57.0,55.0,23.0,47.0,763.583
763593.0,58.0,55.0,34.0,57.0,763.593
763603.0,57.0,52.0,36.0,54.0,763.603
763613.0,56.0,52.0,33.0,52.0,763.613
763623.0,57.0,50.0,29.0,51.0,763.623
763633.0,58.0,50.0,27.0,49.0,763.633
763643.0,56.0,48.0,24.0,47.0,763.643
763653.0,58.0,49.0,31.0,50.0,763.653
763663.0,56.0,49.0,27.0,48.0,763.663
763673.0,56.0,50.0,43.0,46.0,763.673
763683.0,56.0,50.0,37.0,44.0,763.683
763693.0,56.0,51.0,36.0,46.0,763.693
763703.0,57.0,51.0,32.0,45.0,763.703
763713.0,56.0,50.0,28.0,42.0,763.713
763723.0,56.0,49.0,27.0,41.0,763.723
763734.0,55.0,53.0,27.0,45.0,763.734
763744.0,55.0,57.0,29.0,44.0,763.744
763754.0,55.0,58.0,33.0,45.0,763.754
763764.0,56.0,58.0,31.0,44.0,763.764
763774.0,57.0,55.0,27.0,42.0,763.774
763784.0,56.0,53.0,25.0,41.0,763.784
763794.0,55.0,51.0,22.0,44.0,763.794
763804.0,55.0,54.0,31.0,47.0,763.804
763814.0,56.0,52.0,27.0,48.0,763.814
763824.0,55.0,53.0,26.0,52.0,763.824
763834.0,56.0,52.0,24.0,50.0,763.834
763844.0,57.0,50.0,22.0,51.0,763.844
763854.0,55.0,51.0,22.0,49.0,763.854
763864.0,56.0,49.0,25.0,47.0,763.864
763874.0,56.0,48.0,22.0,46.0,763.874
763884.0,55.0,48.0,19.0,46.0,763.884
763894.0,56.0,52.0,18.0,45.0,763.894
763904.0,58.0,53.0,21.0,44.0,763.904
763914.0,59.0,53.0,22.0,44.0,763.914
763924.0,56.0,53.0,39.0,48.0,763.924
763934.0,59.0,49.0,44.0,49.0,763.934
763944.0,61.0,49.0,40.0,49.0,763.944
763954.0,61.0,49.0,36.0,44.0,763.954
763964.0,60.0,51.0,33.0,42.0,763.964
763974.0,64.0,62.0,33.0,42.0,763.974
763984.0,64.0,59.0,28.0,41.0,763.984
763994.0,64.0,58.0,28.0,41.0,763.994
764004.0,65.0,57.0,42.0,41.0,764.004
764014.0,65.0,55.0,47.0,44.0,764.014
764024.0,65.0,52.0,43.0,44.0,764.024
764034.0,65.0,56.0,39.0,46.0,764.034
764044.0,64.0,57.0,36.0,43.0,764.044
764054.0,64.0,55.0,32.0,46.0,764.054
764064.0,62.0,52.0,26.0,53.0,764.064
764075.0,63.0,49.0,24.0,51.0,764.075
764085.0,61.0,48.0,21.0,49.0,764.085
764095.0,60.0,45.0,20.0,46.0,764.095
764105.0,59.0,47.0,25.0,49.0,764.105
764115.0,58.0,55.0,34.0,47.0,764.115
764125.0,61.0,57.0,36.0,49.0,764.125
764135.0,60.0,56.0,32.0,50.0,764.135
764145.0,60.0,53.0,28.0,51.0,764.145
764155.0,57.0,55.0,25.0,50.0,764.155
764165.0,57.0,52.0,22.0,46.0,764.165
764175.0,55.0,53.0,21.0,47.0,764.175
764185.0,55.0,52.0,29.0,46.0,764.185
764195.0,53.0,53.0,33.0,58.0,764.195
764205.0,55.0,55.0,29.0,62.0,764.205
764215.0,55.0,53.0,28.0,60.0,764.215
764225.0,55.0,52.0,24.0,59.0,764.225
764235.0,56.0,56.0,23.0,55.0,764.235
764246.0,55.0,53.0,20.0,54.0,764.246
764256.0,53.0,53.0,19.0,51.0,764.256
764266.0,52.0,51.0,20.0,54.0,764.266
764276.0,51.0,51.0,18.0,50.0,764.276
764286.0,54.0,53.0,32.0,49.0,764.286
764296.0,54.0,54.0,28.0,48.0,764.296
764306.0,55.0,60.0,26.0,48.0,764.306
764316.0,54.0,58.0,24.0,46.0,764.316
764326.0,55.0,56.0,28.0,49.0,764.326
764336.0,56.0,54.0,24.0,51.0,764.336
764346.0,56.0,54.0,24.0,50.0,764.346
764356.0,57.0,53.0,30.0,53.0,764.356
764366.0,59.0,53.0,29.0,52.0,764.366
764376.0,58.0,53.0,31.0,49.0,764.376
764386.0,57.0,53.0,33.0,52.0,764.386
764396.0,60.0,56.0,30.0,52.0,764.396
764406.0,60.0,53.0,26.0,53.0,764.406
764416.0,57.0,50.0,23.0,50.0,764.416
764426.0,57.0,48.0,21.0,47.0,764.426
764436.0,56.0,49.0,21.0,48.0,764.436
764446.0,57.0,48.0,22.0,48.0,764.446
764456.0,57.0,47.0,22.0,51.0,764.456
764466.0,58.0,49.0,24.0,52.0,764.466
764476.0,58.0,51.0,21.0,50.0,764.476
764486.0,56.0,52.0,22.0,52.0,764.486
764496.0,59.0,50.0,32.0,59.0,764.496
764506.0,60.0,48.0,28.0,55.0,764.506
764516.0,59.0,46.0,26.0,55.0,764.516
764526.0,58.0,48.0,21.0,54.0,764.526
764536.0,60.0,51.0,22.0,50.0,764.536
764546.0,60.0,52.0,24.0,50.0,764.546
764556.0,58.0,51.0,30.0,48.0,764.556
764566.0,58.0,50.0,30.0,49.0,764.566
764576.0,59.0,53.0,42.0,51.0,764.576
764587.0,59.0,50.0,41.0,54.0,764.587
764597.0,59.0,51.0,37.0,50.0,764.597
764607.0,59.0,50.0,39.0,50.0,764.607
764617.0,60.0,50.0,39.0,49.0,764.617
764627.0,60.0,51.0,34.0,48.0,764.627
764637.0,62.0,49.0,31.0,50.0,764.637
764647.0,60.0,50.0,27.0,53.0,764.647
764657.0,59.0,52.0,34.0,54.0,764.657
764667.0,61.0,52.0,30.0,53.0,764.667
764677.0,60.0,52.0,29.0,51.0,764.677
764687.0,61.0,50.0,31.0,51.0,764.687
764697.0,60.0,49.0,27.0,50.0,764.697
764707.0,59.0,49.0,27.0,53.0,764.707
764717.0,57.0,49.0,25.0,52.0,764.717
764727.0,56.0,48.0,23.0,50.0,764.727
764737.0,56.0,49.0,20.0,51.0,764.737
764747.0,56.0,49.0,20.0,50.0,764.747
764758.0,54.0,51.0,29.0,50.0,764.758
764768.0,54.0,49.0,25.0,49.0,764.768
764778.0,54.0,49.0,27.0,53.0,764.778
764788.0,54.0,50.0,25.0,51.0,764.788
764798.0,54.0,48.0,25.0,50.0,764.798
764808.0,54.0,50.0,30.0,49.0,764.808
764818.0,54.0,50.0,27.0,48.0,764.818
764828.0,54.0,49.0,23.0,46.0,764.828
764838.0,54.0,50.0,39.0,48.0,764.838
764848.0,57.0,49.0,36.0,48.0,764.848
764858.0,56.0,51.0,38.0,54.0,764.858
764868.0,56.0,48.0,44.0,56.0,764.868
764878.0,57.0,48.0,37.0,55.0,764.878
764888.0,58.0,46.0,34.0,52.0,764.888
764898.0,57.0,51.0,46.0,54.0,764.898
764908.0,58.0,53.0,40.0,52.0,764.908
764918.0,60.0,52.0,35.0,53.0,764.918
764928.0,58.0,53.0,30.0,51.0,764.928
764938.0,59.0,51.0,31.0,50.0,764.938
764948.0,59.0,48.0,32.0,52.0,764.948
764958.0,60.0,49.0,44.0,55.0,764.958
764968.0,58.0,50.0,48.0,65.0,764.968
764978.0,65.0,53.0,49.0,124.0,764.978
764988.0,79.0,65.0,55.0,185.0,764.988
764998.0,99.0,78.0,120.0,267.0,764.998
765008.0,111.0,78.0,142.0,254.0,765.008
765018.0,118.0,76.0,133.0,256.0,765.018
765028.0,117.0,88.0,144.0,368.0,765.028
765038.0,118.0,87.0,147.0,399.0,765.038
765048.0,113.0,85.0,144.0,411.0,765.048
765058.0,111.0,84.0,137.0,402.0,765.058
765068.0,106.0,81.0,128.0,425.0,765.068
765078.0,102.0,79.0,119.0,422.0,765.078
765088.0,99.0,80.0,127.0,406.0,765.088
765099.0,102.0,88.0,141.0,392.0,765.099
765109.0,101.0,90.0,138.0,359.0,765.109
765119.0,97.0,89.0,129.0,341.0,765.119
765129.0,93.0,88.0,129.0,354.0,765.129
765139.0,95.0,91.0,128.0,343.0,765.139
765149.0,95.0,89.0,114.0,319.0,765.149
765159.0,92.0,88.0,102.0,304.0,765.159
765169.0,89.0,85.0,96.0,283.0,765.169
765179.0,86.0,86.0,97.0,262.0,765.179
765189.0,86.0,85.0,90.0,254.0,765.189
765199.0,86.0,85.0,115.0,303.0,765.199
765209.0,85.0,86.0,107.0,288.0,765.209
765219.0,86.0,86.0,101.0,290.0,765.219
765229.0,87.0,85.0,93.0,281.0,765.229
765239.0,86.0,83.0,103.0,261.0,765.239
765249.0,86.0,81.0,104.0,261.0,765.249
765259.0,86.0,83.0,107.0,261.0,765.259
765270.0,88.0,84.0,99.0,253.0,765.27
765280.0,84.0,79.0,92.0,246.0,765.28
765290.0,85.0,80.0,96.0,236.0,765.29
765300.0,89.0,84.0,87.0,222.0,765.3
765310.0,88.0,81.0,79.0,203.0,765.31
765320.0,86.0,80.0,96.0,203.0,765.32
765330.0,86.0,81.0,94.0,203.0,765.33
765340.0,86.0,81.0,82.0,192.0,765.34
765350.0,87.0,81.0,89.0,182.0,765.35
765360.0,85.0,78.0,88.0,178.0,765.36
765370.0,86.0,80.0,79.0,175.0,765.37
765380.0,85.0,78.0,79.0,184.0,765.38
765390.0,83.0,77.0,94.0,181.0,765.39
765400.0,86.0,81.0,92.0,174.0,765.4
765410.0,85.0,78.0,84.0,169.0,765.41
765420.0,85.0,79.0,89.0,188.0,765.42
765430.0,86.0,80.0,80.0,194.0,765.43
765440.0,85.0,77.0,81.0,187.0,765.44
765450.0,88.0,76.0,79.0,174.0,765.45
765460.0,87.0,75.0,74.0,174.0,765.46
765470.0,86.0,73.0,73.0,187.0,765.47
765480.0,90.0,75.0,83.0,202.0,765.48
765490.0,89.0,75.0,75.0,212.0,765.49
765500.0,87.0,72.0,66.0,212.0,765.5
765510.0,86.0,72.0,64.0,202.0,765.51
765520.0,86.0,70.0,68.0,214.0,765.52
765530.0,85.0,70.0,64.0,205.0,765.53
765540.0,83.0,70.0,60.0,211.0,765.54
765550.0,82.0,68.0,60.0,206.0,765.55
765560.0,80.0,69.0,54.0,186.0,765.56
765570.0,79.0,66.0,50.0,182.0,765.57
765580.0,79.0,64.0,45.0,186.0,765.58
765590.0,77.0,62.0,44.0,174.0,765.59
765600.0,77.0,61.0,42.0,162.0,765.6
765611.0,77.0,59.0,39.0,161.0,765.611
765621.0,78.0,57.0,36.0,180.0,765.621
765631.0,79.0,57.0,47.0,166.0,765.631
765641.0,77.0,53.0,44.0,160.0,765.641
765651.0,76.0,52.0,40.0,146.0,765.651
765661.0,76.0,50.0,38.0,147.0,765.661
765671.0,75.0,48.0,41.0,166.0,765.671
765681.0,75.0,48.0,41.0,179.0,765.681
765691.0,74.0,47.0,35.0,170.0,765.691
765701.0,72.0,48.0,48.0,159.0,765.701
765711.0,70.0,45.0,44.0,166.0,765.711
765721.0,69.0,45.0,41.0,158.0,765.721
765731.0,70.0,45.0,39.0,162.0,765.731
765741.0,68.0,44.0,34.0,157.0,765.741
765751.0,68.0,44.0,38.0,152.0,765.751
765761.0,68.0,45.0,46.0,144.0,765.761
765771.0,69.0,45.0,40.0,145.0,765.771
765782.0,67.0,44.0,35.0,139.0,765.782
765792.0,64.0,46.0,31.0,136.0,765.792
765802.0,67.0,45.0,30.0,129.0,765.802
765812.0,65.0,45.0,25.0,128.0,765.812
765822.0,65.0,45.0,26.0,119.0,765.822
765832.0,64.0,45.0,26.0,122.0,765.832
765842.0,63.0,45.0,26.0,130.0,765.842
765852.0,64.0,44.0,23.0,124.0,765.852
765862.0,63.0,47.0,35.0,122.0,765.862
765872.0,62.0,44.0,39.0,123.0,765.872
765882.0,63.0,45.0,38.0,129.0,765.882
765892.0,62.0,44.0,39.0,128.0,765.892
765902.0,63.0,43.0,35.0,125.0,765.902
765912.0,62.0,43.0,32.0,120.0,765.912
765922.0,63.0,42.0,30.0,119.0,765.922
765932.0,63.0,41.0,27.0,114.0,765.932
765942.0,64.0,43.0,38.0,106.0,765.942
765952.0,64.0,42.0,42.0,107.0,765.952
765962.0,63.0,41.0,39.0,110.0,765.962
765972.0,65.0,40.0,38.0,109.0,765.972
765982.0,64.0,40.0,33.0,101.0,765.982
765992.0,61.0,40.0,31.0,122.0,765.992
766002.0,61.0,40.0,29.0,132.0,766.002
766012.0,61.0,40.0,27.0,130.0,766.012
766022.0,59.0,43.0,28.0,119.0,766.022
766032.0,57.0,43.0,46.0,125.0,766.032
766042.0,58.0,43.0,43.0,124.0,766.042
766052.0,59.0,43.0,41.0,120.0,766.052
766062.0,58.0,42.0,37.0,112.0,766.062
766072.0,56.0,44.0,33.0,111.0,766.072
766082.0,56.0,42.0,35.0,111.0,766.082
766092.0,55.0,43.0,33.0,109.0,766.092
766102.0,53.0,45.0,36.0,101.0,766.102
766112.0,56.0,46.0,45.0,102.0,766.112
766123.0,55.0,46.0,39.0,106.0,766.123
766133.0,55.0,45.0,41.0,100.0,766.133
766143.0,55.0,46.0,40.0,99.0,766.143
766153.0,57.0,45.0,38.0,115.0,766.153
766163.0,56.0,47.0,36.0,118.0,766.163
766173.0,57.0,46.0,33.0,122.0,766.173
766183.0,57.0,47.0,36.0,114.0,766.183
766193.0,58.0,50.0,47.0,122.0,766.193
766203.0,57.0,48.0,41.0,122.0,766.203
766213.0,56.0,50.0,36.0,116.0,766.213
766223.0,56.0,51.0,34.0,117.0,766.223
766233.0,54.0,54.0,34.0,115.0,766.233
766243.0,52.0,55.0,30.0,113.0,766.243
766253.0,53.0,53.0,29.0,113.0,766.253
766263.0,54.0,54.0,26.0,104.0,766.263
766273.0,54.0,55.0,28.0,98.0,766.273
766283.0,54.0,55.0,31.0,109.0,766.283
766294.0,54.0,54.0,29.0,107.0,766.294
766304.0,52.0,53.0,28.0,103.0,766.304
766314.0,50.0,55.0,24.0,113.0,766.314
766324.0,52.0,55.0,22.0,109.0,766.324
766334.0,54.0,54.0,19.0,109.0,766.334
766344.0,53.0,54.0,25.0,113.0,766.344
766354.0,52.0,57.0,29.0,117.0,766.354
766364.0,54.0,58.0,47.0,113.0,766.364
766374.0,54.0,58.0,42.0,111.0,766.374
766384.0,55.0,59.0,39.0,109.0,766.384
766394.0,55.0,59.0,34.0,103.0,766.394
766404.0,56.0,59.0,30.0,97.0,766.404
766414.0,57.0,60.0,29.0,98.0,766.414
766424.0,58.0,61.0,25.0,94.0,766.424
766434.0,59.0,60.0,26.0,91.0,766.434
766444.0,56.0,62.0,23.0,86.0,766.444
766454.0,55.0,61.0,32.0,82.0,766.454
766464.0,55.0,61.0,38.0,77.0,766.464
766474.0,54.0,61.0,35.0,75.0,766.474
766484.0,54.0,60.0,34.0,78.0,766.484
766494.0,53.0,61.0,29.0,88.0,766.494
766504.0,54.0,62.0,28.0,97.0,766.504
766514.0,53.0,60.0,24.0,100.0,766.514
766524.0,53.0,61.0,21.0,96.0,766.524
766534.0,53.0,61.0,25.0,93.0,766.534
766544.0,53.0,62.0,42.0,88.0,766.544
766554.0,53.0,61.0,37.0,86.0,766.554
766564.0,53.0,61.0,36.0,82.0,766.564
766574.0,54.0,63.0,33.0,95.0,766.574
766584.0,52.0,63.0,28.0,97.0,766.584
766594.0,52.0,64.0,28.0,101.0,766.594
766604.0,53.0,61.0,25.0,98.0,766.604
766614.0,51.0,61.0,22.0,96.0,766.614
766624.0,52.0,64.0,24.0,96.0,766.624
766635.0,52.0,64.0,24.0,107.0,766.635
766645.0,52.0,62.0,23.0,100.0,766.645
766655.0,51.0,63.0,20.0,95.0,766.655
766665.0,51.0,62.0,22.0,91.0,766.665
766675.0,50.0,62.0,20.0,85.0,766.675
766685.0,50.0,61.0,18.0,90.0,766.685
766695.0,51.0,60.0,16.0,91.0,766.695
766705.0,51.0,60.0,15.0,95.0,766.705
766715.0,52.0,59.0,18.0,94.0,766.715
766725.0,52.0,63.0,25.0,90.0,766.725
766735.0,53.0,61.0,22.0,92.0,766.735
766745.0,53.0,61.0,25.0,91.0,766.745
766755.0,54.0,61.0,27.0,87.0,766.755
766765.0,55.0,59.0,23.0,88.0,766.765
766775.0,55.0,59.0,22.0,83.0,766.775
766785.0,57.0,58.0,24.0,78.0,766.785
766795.0,55.0,57.0,21.0,77.0,766.795
766806.0,55.0,59.0,19.0,75.0,766.806
766816.0,55.0,58.0,17.0,76.0,766.816
766826.0,54.0,61.0,24.0,80.0,766.826
766836.0,56.0,58.0,24.0,81.0,766.836
766846.0,55.0,57.0,21.0,79.0,766.846
766856.0,58.0,55.0,21.0,80.0,766.856
766866.0,58.0,54.0,22.0,78.0,766.866
766876.0,57.0,54.0,23.0,80.0,766.876
766886.0,59.0,53.0,23.0,84.0,766.886
766896.0,59.0,53.0,37.0,80.0,766.896
766906.0,60.0,51.0,38.0,80.0,766.906
766916.0,61.0,50.0,33.0,83.0,766.916
766926.0,63.0,51.0,34.0,83.0,766.926
766936.0,63.0,50.0,31.0,81.0,766.936
766946.0,63.0,48.0,27.0,81.0,766.946
766956.0,62.0,49.0,27.0,87.0,766.956
766966.0,63.0,47.0,26.0,98.0,766.966
766976.0,61.0,49.0,32.0,96.0,766.976
766986.0,63.0,47.0,36.0,92.0,766.986
766996.0,64.0,47.0,33.0,91.0,766.996
767006.0,64.0,47.0,30.0,86.0,767.006
767016.0,63.0,48.0,27.0,93.0,767.016
767026.0,64.0,48.0,24.0,94.0,767.026
767036.0,63.0,50.0,28.0,96.0,767.036
767046.0,62.0,52.0,32.0,94.0,767.046
767056.0,64.0,51.0,30.0,94.0,767.056
767066.0,65.0,52.0,27.0,86.0,767.066
767076.0,65.0,54.0,24.0,83.0,767.076
767086.0,65.0,55.0,21.0,79.0,767.086
767096.0,64.0,59.0,33.0,92.0,767.096
767106.0,64.0,60.0,36.0,92.0,767.106
767116.0,64.0,61.0,33.0,91.0,767.116
767126.0,63.0,62.0,29.0,100.0,767.126
767136.0,64.0,62.0,27.0,99.0,767.136
767147.0,63.0,61.0,28.0,97.0,767.147
767157.0,63.0,62.0,26.0,89.0,767.157
767167.0,62.0,64.0,33.0,89.0,767.167
767177.0,63.0,62.0,29.0,82.0,767.177
767187.0,63.0,60.0,27.0,76.0,767.187
767197.0,62.0,62.0,27.0,76.0,767.197
767207.0,65.0,62.0,29.0,74.0,767.207
767217.0,64.0,62.0,30.0,76.0,767.217
767227.0,63.0,61.0,27.0,71.0,767.227
767237.0,64.0,63.0,24.0,73.0,767.237
767247.0,62.0,64.0,24.0,77.0,767.247
767257.0,63.0,63.0,34.0,78.0,767.257
767267.0,64.0,63.0,33.0,78.0,767.267
767277.0,63.0,63.0,33.0,78.0,767.277
767287.0,64.0,62.0,30.0,78.0,767.287
767297.0,63.0,63.0,32.0,74.0,767.297
767307.0,62.0,61.0,30.0,73.0,767.307
767318.0,62.0,61.0,27.0,76.0,767.318
767328.0,62.0,61.0,25.0,75.0,767.328
767338.0,63.0,60.0,23.0,73.0,767.338
767348.0,64.0,60.0,21.0,69.0,767.348
767358.0,62.0,61.0,32.0,71.0,767.358
767368.0,64.0,60.0,33.0,74.0,767.368
767378.0,63.0,61.0,28.0,70.0,767.378
767388.0,61.0,62.0,28.0,77.0,767.388
767398.0,61.0,61.0,27.0,94.0,767.398
767408.0,61.0,62.0,25.0,89.0,767.408
767418.0,63.0,62.0,24.0,85.0,767.418
767428.0,62.0,62.0,20.0,79.0,767.428
767438.0,62.0,62.0,19.0,81.0,767.438
767448.0,62.0,63.0,26.0,83.0,767.448
767458.0,62.0,60.0,24.0,88.0,767.458
767468.0,62.0,59.0,23.0,92.0,767.468
767478.0,63.0,58.0,20.0,85.0,767.478
767488.0,63.0,58.0,24.0,83.0,767.488
767498.0,62.0,58.0,28.0,82.0,767.498
767508.0,62.0,57.0,26.0,81.0,767.508
767518.0,64.0,58.0,26.0,86.0,767.518
767528.0,64.0,58.0,24.0,84.0,767.528
767538.0,65.0,59.0,25.0,85.0,767.538
767548.0,65.0,60.0,21.0,79.0,767.548
767558.0,66.0,59.0,21.0,77.0,767.558
767568.0,66.0,58.0,16.0,75.0,767.568
767578.0,68.0,59.0,29.0,75.0,767.578
767588.0,66.0,61.0,33.0,80.0,767.588
767598.0,66.0,58.0,34.0,80.0,767.598
767608.0,65.0,58.0,37.0,83.0,767.608
767618.0,67.0,57.0,35.0,86.0,767.618
767628.0,68.0,56.0,31.0,81.0,767.628
767638.0,68.0,56.0,26.0,78.0,767.638
767648.0,68.0,56.0,25.0,80.0,767.648
767659.0,68.0,57.0,22.0,78.0,767.659
767669.0,67.0,60.0,30.0,80.0,767.669
767679.0,68.0,58.0,30.0,77.0,767.679
767689.0,69.0,58.0,42.0,76.0,767.689
767699.0,71.0,58.0,39.0,78.0,767.699
767709.0,69.0,59.0,37.0,76.0,767.709
767719.0,71.0,56.0,38.0,71.0,767.719
767729.0,71.0,56.0,37.0,74.0,767.729
767739.0,71.0,55.0,33.0,70.0,767.739
767749.0,70.0,55.0,32.0,67.0,767.749
767759.0,69.0,55.0,32.0,68.0,767.759
767769.0,69.0,55.0,32.0,69.0,767.769
767779.0,67.0,57.0,49.0,69.0,767.779
767789.0,69.0,55.0,45.0,68.0,767.789
767799.0,67.0,58.0,38.0,71.0,767.799
767809.0,65.0,60.0,37.0,66.0,767.809
767819.0,65.0,58.0,33.0,67.0,767.819
767830.0,64.0,59.0,33.0,66.0,767.83
767840.0,66.0,59.0,33.0,67.0,767.84
767850.0,66.0,56.0,29.0,63.0,767.85
767860.0,66.0,56.0,29.0,59.0,767.86
767870.0,67.0,56.0,37.0,60.0,767.87
767880.0,67.0,56.0,33.0,60.0,767.88
767890.0,69.0,53.0,32.0,60.0,767.89
767900.0,68.0,53.0,32.0,63.0,767.9
767910.0,69.0,53.0,31.0,62.0,767.91
767920.0,68.0,51.0,28.0,60.0,767.92
767930.0,67.0,51.0,26.0,61.0,767.93
767940.0,68.0,50.0,22.0,60.0,767.94
767950.0,67.0,48.0,20.0,58.0,767.95
767960.0,66.0,47.0,18.0,64.0,767.96
767970.0,65.0,49.0,29.0,65.0,767.97
767980.0,66.0,47.0,28.0,63.0,767.98
767990.0,65.0,46.0,24.0,63.0,767.99
768000.0,65.0,43.0,23.0,65.0,768.0
768010.0,64.0,43.0,20.0,63.0,768.01
768020.0,62.0,44.0,18.0,59.0,768.02
768030.0,61.0,44.0,17.0,55.0,768.03
768040.0,57.0,45.0,22.0,58.0,768.04
768050.0,59.0,45.0,25.0,62.0,768.05
768060.0,58.0,45.0,22.0,59.0,768.06
768070.0,58.0,43.0,20.0,61.0,768.07
768080.0,58.0,45.0,28.0,61.0,768.08
768090.0,58.0,45.0,25.0,58.0,768.09
768100.0,60.0,44.0,23.0,60.0,768.1
768110.0,60.0,44.0,21.0,57.0,768.11
768120.0,60.0,43.0,20.0,59.0,768.12
768130.0,58.0,43.0,16.0,61.0,768.13
768140.0,59.0,42.0,20.0,63.0,768.14
768150.0,59.0,42.0,19.0,61.0,768.15
768160.0,58.0,42.0,22.0,60.0,768.16
768171.0,60.0,42.0,20.0,66.0,768.171
768181.0,57.0,44.0,29.0,65.0,768.181
768191.0,60.0,43.0,29.0,59.0,768.191
768201.0,59.0,42.0,25.0,58.0,768.201
768211.0,60.0,40.0,23.0,55.0,768.211
768221.0,59.0,40.0,21.0,56.0,768.221
768231.0,61.0,39.0,18.0,54.0,768.231
768241.0,60.0,38.0,17.0,55.0,768.241
768251.0,61.0,38.0,15.0,56.0,768.251
768261.0,61.0,39.0,18.0,58.0,768.261
768271.0,60.0,39.0,18.0,64.0,768.271
768281.0,61.0,39.0,19.0,61.0,768.281
768291.0,60.0,43.0,38.0,62.0,768.291
768301.0,59.0,42.0,34.0,60.0,768.301
768311.0,60.0,41.0,31.0,57.0,768.311
768321.0,60.0,41.0,29.0,59.0,768.321
768331.0,60.0,41.0,28.0,60.0,768.331
768342.0,60.0,42.0,26.0,61.0,768.342
768352.0,60.0,41.0,24.0,61.0,768.352
768362.0,59.0,42.0,23.0,60.0,768.362
768372.0,60.0,42.0,24.0,60.0,768.372
768382.0,59.0,42.0,25.0,58.0,768.382
768392.0,59.0,41.0,23.0,55.0,768.392
768402.0,59.0,42.0,38.0,59.0,768.402
768412.0,58.0,42.0,34.0,57.0,768.412
768422.0,59.0,40.0,30.0,53.0,768.422
768432.0,58.0,39.0,26.0,51.0,768.432
768442.0,57.0,39.0,28.0,54.0,768.442
768452.0,56.0,39.0,27.0,55.0,768.452
768462.0,55.0,40.0,26.0,58.0,768.462
768472.0,56.0,40.0,23.0,59.0,768.472
768482.0,55.0,39.0,26.0,56.0,768.482
768492.0,55.0,39.0,24.0,56.0,768.492
768502.0,55.0,40.0,25.0,60.0,768.502
768512.0,55.0,41.0,32.0,62.0,768.512
768522.0,58.0,42.0,34.0,66.0,768.522
768532.0,57.0,40.0,31.0,64.0,768.532
768542.0,59.0,39.0,28.0,63.0,768.542
768552.0,58.0,39.0,24.0,61.0,768.552
768562.0,59.0,39.0,22.0,63.0,768.562
768572.0,59.0,39.0,23.0,64.0,768.572
768582.0,59.0,38.0,21.0,65.0,768.582
768592.0,60.0,37.0,19.0,67.0,768.592
768602.0,60.0,40.0,35.0,72.0,768.602
768612.0,61.0,40.0,31.0,66.0,768.612
768622.0,60.0,39.0,29.0,69.0,768.622
768632.0,60.0,38.0,27.0,73.0,768.632
768642.0,59.0,38.0,22.0,73.0,768.642
768652.0,59.0,37.0,22.0,70.0,768.652
768662.0,59.0,37.0,28.0,69.0,768.662
768672.0,60.0,37.0,30.0,69.0,768.672
768683.0,61.0,36.0,26.0,66.0,768.683
768693.0,60.0,37.0,22.0,64.0,768.693
768703.0,62.0,37.0,33.0,64.0,768.703
768713.0,65.0,38.0,29.0,68.0,768.713
768723.0,67.0,36.0,26.0,66.0,768.723
768733.0,67.0,39.0,31.0,66.0,768.733
768743.0,69.0,39.0,31.0,67.0,768.743
768753.0,70.0,41.0,30.0,67.0,768.753
768763.0,68.0,41.0,25.0,63.0,768.763
768773.0,71.0,39.0,24.0,63.0,768.773
768783.0,72.0,42.0,34.0,65.0,768.783
768793.0,73.0,40.0,31.0,64.0,768.793
768803.0,73.0,40.0,29.0,61.0,768.803
768813.0,73.0,40.0,29.0,66.0,768.813
768823.0,74.0,39.0,25.0,63.0,768.823
768833.0,72.0,39.0,27.0,61.0,768.833
768843.0,72.0,40.0,32.0,60.0,768.843
768854.0,72.0,40.0,30.0,61.0,768.854
768864.0,73.0,38.0,27.0,61.0,768.864
768874.0,72.0,42.0,36.0,59.0,768.874
768884.0,72.0,41.0,34.0,65.0,768.884
768894.0,72.0,40.0,32.0,63.0,768.894
768904.0,71.0,39.0,28.0,66.0,768.904
768914.0,72.0,39.0,28.0,63.0,768.914
768924.0,71.0,40.0,26.0,61.0,768.924
768934.0,70.0,40.0,38.0,60.0,768.934
768944.0,71.0,40.0,33.0,64.0,768.944
768954.0,71.0,41.0,38.0,65.0,768.954
768964.0,72.0,40.0,36.0,67.0,768.964
768974.0,71.0,39.0,32.0,66.0,768.974
768984.0,71.0,38.0,29.0,64.0,768.984
768994.0,70.0,39.0,26.0,62.0,768.994
769004.0,68.0,38.0,23.0,58.0,769.004
769014.0,66.0,41.0,25.0,63.0,769.014
769024.0,64.0,42.0,26.0,62.0,769.024
769034.0,65.0,41.0,23.0,60.0,769.034
769044.0,64.0,44.0,27.0,61.0,769.044
769054.0,66.0,43.0,31.0,63.0,769.054
769064.0,65.0,43.0,27.0,63.0,769.064
769074.0,64.0,44.0,30.0,66.0,769.074
769084.0,64.0,43.0,26.0,66.0,769.084
769094.0,65.0,43.0,25.0,64.0,769.094
769104.0,66.0,43.0,22.0,62.0,769.104
769114.0,65.0,43.0,20.0,59.0,769.114
769124.0,64.0,44.0,20.0,57.0,769.124
769134.0,66.0,44.0,18.0,58.0,769.134
769144.0,65.0,46.0,31.0,62.0,769.144
769154.0,64.0,45.0,32.0,66.0,769.154
769164.0,64.0,43.0,33.0,63.0,769.164
769174.0,65.0,43.0,28.0,65.0,769.174
769184.0,63.0,42.0,29.0,61.0,769.184
769195.0,63.0,41.0,28.0,57.0,769.195
769205.0,62.0,42.0,27.0,56.0,769.205
769215.0,62.0,40.0,24.0,58.0,769.215
769225.0,62.0,39.0,23.0,55.0,769.225
769235.0,61.0,39.0,34.0,54.0,769.235
769245.0,60.0,40.0,37.0,53.0,769.245
769255.0,60.0,42.0,35.0,56.0,769.255
769265.0,61.0,41.0,37.0,60.0,769.265
769275.0,59.0,42.0,36.0,64.0,769.275
769285.0,59.0,41.0,33.0,64.0,769.285
769295.0,58.0,39.0,30.0,63.0,769.295
769305.0,58.0,38.0,28.0,61.0,769.305
769315.0,56.0,41.0,40.0,59.0,769.315
769325.0,56.0,41.0,38.0,57.0,769.325
769335.0,57.0,40.0,33.0,53.0,769.335
769345.0,57.0,40.0,32.0,58.0,769.345
769355.0,57.0,40.0,36.0,58.0,769.355
769366.0,58.0,41.0,37.0,56.0,769.366
769376.0,57.0,41.0,34.0,55.0,769.376
769386.0,56.0,40.0,29.0,56.0,769.386
769396.0,58.0,40.0,26.0,55.0,769.396
769406.0,57.0,39.0,23.0,56.0,769.406
769416.0,56.0,38.0,20.0,54.0,769.416
769426.0,57.0,38.0,21.0,58.0,769.426
769436.0,57.0,37.0,20.0,57.0,769.436
769446.0,59.0,38.0,25.0,55.0,769.446
769456.0,60.0,38.0,21.0,54.0,769.456
769466.0,61.0,40.0,19.0,53.0,769.466
769476.0,60.0,40.0,17.0,58.0,769.476
769486.0,61.0,41.0,19.0,58.0,769.486
769496.0,60.0,42.0,32.0,56.0,769.496
769506.0,61.0,42.0,28.0,55.0,769.506
769516.0,61.0,42.0,25.0,54.0,769.516
769526.0,62.0,42.0,28.0,51.0,769.526
769536.0,63.0,42.0,26.0,57.0,769.536
769546.0,63.0,41.0,25.0,57.0,769.546
769556.0,62.0,41.0,22.0,55.0,769.556
769566.0,62.0,39.0,20.0,54.0,769.566
769576.0,60.0,38.0,20.0,52.0,769.576
769586.0,58.0,39.0,24.0,54.0,769.586
769596.0,59.0,42.0,37.0,59.0,769.596
769606.0,58.0,41.0,35.0,60.0,769.606
769616.0,58.0,40.0,33.0,59.0,769.616
769626.0,58.0,40.0,30.0,63.0,769.626
769636.0,58.0,38.0,28.0,62.0,769.636
769646.0,59.0,38.0,25.0,61.0,769.646
769656.0,58.0,38.0,25.0,59.0,769.656
769666.0,58.0,37.0,22.0,58.0,769.666
769676.0,55.0,37.0,21.0,57.0,769.676
769686.0,57.0,37.0,18.0,57.0,769.686
769696.0,57.0,37.0,19.0,55.0,769.696
769707.0,58.0,37.0,32.0,54.0,769.707
769717.0,57.0,38.0,33.0,52.0,769.717
769727.0,59.0,38.0,33.0,56.0,769.727
769737.0,59.0,38.0,33.0,58.0,769.737
769747.0,58.0,37.0,30.0,56.0,769.747
769757.0,59.0,37.0,27.0,57.0,769.757
769767.0,59.0,39.0,26.0,58.0,769.767
769777.0,59.0,38.0,23.0,58.0,769.777
769787.0,57.0,41.0,23.0,61.0,769.787
769797.0,57.0,42.0,26.0,66.0,769.797
769807.0,56.0,43.0,38.0,62.0,769.807
769817.0,56.0,44.0,34.0,59.0,769.817
769827.0,57.0,45.0,31.0,65.0,769.827
769837.0,58.0,47.0,29.0,61.0,769.837
769847.0,57.0,48.0,26.0,59.0,769.847
769857.0,55.0,50.0,25.0,60.0,769.857
769867.0,55.0,51.0,24.0,62.0,769.867
769878.0,53.0,53.0,20.0,59.0,769.878
769888.0,52.0,54.0,32.0,60.0,769.888
769898.0,55.0,53.0,29.0,58.0,769.898
769908.0,56.0,56.0,40.0,58.0,769.908
769918.0,59.0,52.0,35.0,60.0,769.918
769928.0,61.0,52.0,31.0,61.0,769.928
769938.0,63.0,51.0,29.0,57.0,769.938
769948.0,63.0,52.0,26.0,56.0,769.948
769958.0,63.0,52.0,25.0,57.0,769.958
769968.0,65.0,51.0,22.0,56.0,769.968
769978.0,65.0,52.0,19.0,52.0,769.978
769988.0,65.0,52.0,18.0,48.0,769.988
769998.0,65.0,51.0,15.0,47.0,769.998
770008.0,64.0,51.0,14.0,48.0,770.008
770018.0,65.0,51.0,12.0,49.0,770.018
770028.0,63.0,51.0,12.0,54.0,770.028
770038.0,65.0,49.0,13.0,52.0,770.038
770048.0,65.0,49.0,12.0,49.0,770.048
770058.0,64.0,48.0,11.0,47.0,770.058
770068.0,63.0,49.0,21.0,54.0,770.068
770078.0,62.0,49.0,22.0,54.0,770.078
770088.0,60.0,49.0,22.0,53.0,770.088
770098.0,60.0,49.0,21.0,52.0,770.098
770108.0,59.0,51.0,20.0,52.0,770.108
770118.0,59.0,52.0,18.0,52.0,770.118
770128.0,59.0,54.0,16.0,52.0,770.128
770138.0,59.0,54.0,15.0,57.0,770.138
770148.0,62.0,53.0,15.0,55.0,770.148
770158.0,61.0,54.0,14.0,55.0,770.158
770168.0,60.0,55.0,18.0,60.0,770.168
770178.0,61.0,54.0,19.0,61.0,770.178
770188.0,61.0,57.0,24.0,57.0,770.188
770198.0,61.0,56.0,39.0,57.0,770.198
770208.0,60.0,55.0,33.0,56.0,770.208
770219.0,62.0,54.0,33.0,58.0,770.219
770229.0,61.0,52.0,30.0,54.0,770.229
770239.0,60.0,51.0,29.0,58.0,770.239
770249.0,61.0,50.0,26.0,56.0,770.249
770259.0,61.0,51.0,22.0,58.0,770.259
770269.0,61.0,52.0,21.0,55.0,770.269
770279.0,60.0,53.0,24.0,56.0,770.279
770289.0,61.0,54.0,25.0,54.0,770.289
770299.0,60.0,54.0,22.0,52.0,770.299
770309.0,60.0,55.0,21.0,50.0,770.309
770319.0,60.0,55.0,19.0,54.0,770.319
770329.0,59.0,56.0,30.0,56.0,770.329
770339.0,60.0,55.0,31.0,54.0,770.339
770349.0,60.0,56.0,27.0,56.0,770.349
770359.0,61.0,56.0,27.0,60.0,770.359
770369.0,63.0,57.0,24.0,59.0,770.369
770379.0,62.0,56.0,21.0,57.0,770.379
770390.0,61.0,58.0,19.0,59.0,770.39
770400.0,61.0,58.0,16.0,60.0,770.4
770410.0,61.0,58.0,16.0,58.0,770.41
770420.0,60.0,59.0,13.0,57.0,770.42
770430.0,59.0,59.0,14.0,57.0,770.43
770440.0,60.0,60.0,32.0,56.0,770.44
770450.0,59.0,60.0,32.0,59.0,770.45
770460.0,59.0,61.0,29.0,59.0,770.46
770470.0,59.0,62.0,26.0,58.0,770.47
770480.0,59.0,61.0,29.0,57.0,770.48
770490.0,57.0,62.0,32.0,58.0,770.49
770500.0,59.0,62.0,32.0,59.0,770.5
770510.0,57.0,63.0,28.0,60.0,770.51
770520.0,58.0,63.0,29.0,62.0,770.52
770530.0,56.0,65.0,29.0,62.0,770.53
770540.0,58.0,63.0,35.0,59.0,770.54
770550.0,58.0,61.0,31.0,58.0,770.55
770560.0,58.0,63.0,27.0,60.0,770.56
770570.0,59.0,63.0,26.0,58.0,770.57
770580.0,59.0,64.0,22.0,56.0,770.58
770590.0,60.0,64.0,22.0,60.0,770.59
770600.0,60.0,62.0,20.0,60.0,770.6
770610.0,61.0,63.0,18.0,62.0,770.61
770620.0,60.0,60.0,17.0,62.0,770.62
770630.0,59.0,60.0,15.0,64.0,770.63
770640.0,59.0,59.0,17.0,63.0,770.64
770650.0,57.0,59.0,22.0,59.0,770.65
770660.0,56.0,59.0,27.0,64.0,770.66
770670.0,58.0,57.0,24.0,65.0,770.67
770680.0,59.0,57.0,22.0,61.0,770.68
770690.0,58.0,55.0,20.0,61.0,770.69
770700.0,57.0,54.0,19.0,58.0,770.7
770710.0,58.0,53.0,18.0,56.0,770.71
770720.0,56.0,53.0,16.0,53.0,770.72
770731.0,57.0,52.0,14.0,52.0,770.731
770741.0,56.0,53.0,20.0,57.0,770.741
770751.0,57.0,52.0,23.0,58.0,770.751
770761.0,58.0,53.0,22.0,57.0,770.761
770771.0,58.0,53.0,20.0,58.0,770.771
770781.0,59.0,53.0,18.0,55.0,770.781
770791.0,58.0,53.0,18.0,52.0,770.791
770801.0,59.0,52.0,15.0,56.0,770.801
770811.0,58.0,53.0,14.0,59.0,770.811
770821.0,57.0,53.0,18.0,59.0,770.821
770831.0,57.0,52.0,33.0,64.0,770.831
770841.0,56.0,52.0,33.0,63.0,770.841
770851.0,57.0,50.0,32.0,67.0,770.851
770861.0,58.0,48.0,28.0,66.0,770.861
770871.0,58.0,46.0,25.0,64.0,770.871
770881.0,58.0,47.0,22.0,61.0,770.881
770891.0,56.0,48.0,21.0,60.0,770.891
770902.0,56.0,46.0,20.0,56.0,770.902
770912.0,54.0,51.0,30.0,65.0,770.912
770922.0,57.0,48.0,31.0,72.0,770.922
770932.0,57.0,49.0,32.0,71.0,770.932
770942.0,56.0,49.0,28.0,69.0,770.942
770952.0,56.0,49.0,27.0,68.0,770.952
770962.0,56.0,50.0,28.0,67.0,770.962
770972.0,56.0,50.0,28.0,70.0,770.972
770982.0,56.0,53.0,29.0,71.0,770.982
770992.0,58.0,52.0,29.0,70.0,770.992
771002.0,59.0,52.0,26.0,71.0,771.002
771012.0,59.0,52.0,42.0,72.0,771.012
771022.0,61.0,51.0,38.0,69.0,771.022
771032.0,61.0,49.0,34.0,67.0,771.032
771042.0,61.0,50.0,29.0,70.0,771.042
771052.0,61.0,49.0,27.0,72.0,771.052
771062.0,61.0,51.0,25.0,70.0,771.062
771072.0,59.0,51.0,23.0,66.0,771.072
771082.0,60.0,49.0,22.0,67.0,771.082
771092.0,58.0,53.0,24.0,65.0,771.092
771102.0,59.0,52.0,33.0,64.0,771.102
771112.0,60.0,50.0,34.0,67.0,771.112
771122.0,59.0,52.0,31.0,72.0,771.122
771132.0,62.0,49.0,29.0,67.0,771.132
771142.0,60.0,50.0,24.0,63.0,771.142
771152.0,59.0,49.0,21.0,59.0,771.152
771162.0,58.0,50.0,20.0,57.0,771.162
771172.0,59.0,50.0,18.0,56.0,771.172
771182.0,58.0,52.0,21.0,59.0,771.182
771192.0,57.0,52.0,27.0,62.0,771.192
771202.0,58.0,52.0,24.0,58.0,771.202
771212.0,56.0,53.0,22.0,67.0,771.212
771222.0,57.0,51.0,19.0,65.0,771.222
771232.0,57.0,53.0,17.0,62.0,771.232
771243.0,57.0,51.0,15.0,57.0,771.243
771253.0,58.0,50.0,15.0,55.0,771.253
771263.0,57.0,49.0,14.0,55.0,771.263
771273.0,59.0,49.0,14.0,56.0,771.273
771283.0,58.0,48.0,12.0,61.0,771.283
771293.0,57.0,47.0,11.0,59.0,771.293
771303.0,57.0,48.0,29.0,63.0,771.303
771313.0,57.0,47.0,29.0,64.0,771.313
771323.0,58.0,46.0,25.0,66.0,771.323
771333.0,58.0,46.0,23.0,64.0,771.333
771343.0,59.0,45.0,23.0,62.0,771.343
771353.0,60.0,46.0,20.0,63.0,771.353
771363.0,59.0,46.0,18.0,64.0,771.363
771373.0,58.0,47.0,18.0,62.0,771.373
771383.0,57.0,47.0,16.0,62.0,771.383
771393.0,56.0,49.0,25.0,66.0,771.393
771403.0,55.0,49.0,24.0,67.0,771.403
771414.0,56.0,48.0,26.0,67.0,771.414
771424.0,55.0,49.0,23.0,67.0,771.424
771434.0,56.0,49.0,24.0,63.0,771.434
771444.0,57.0,53.0,21.0,69.0,771.444
771454.0,56.0,52.0,27.0,64.0,771.454
771464.0,57.0,52.0,25.0,63.0,771.464
771474.0,57.0,55.0,23.0,58.0,771.474
771484.0,59.0,56.0,21.0,56.0,771.484
771494.0,58.0,58.0,16.0,52.0,771.494
771504.0,58.0,61.0,19.0,56.0,771.504
771514.0,57.0,65.0,22.0,59.0,771.514
771524.0,57.0,64.0,34.0,64.0,771.524
771534.0,58.0,63.0,31.0,68.0,771.534
771544.0,57.0,65.0,29.0,72.0,771.544
771554.0,56.0,65.0,28.0,68.0,771.554
771564.0,54.0,66.0,23.0,68.0,771.564
771574.0,54.0,64.0,21.0,65.0,771.574
771584.0,54.0,64.0,21.0,65.0,771.584
771594.0,53.0,66.0,20.0,62.0,771.594
771604.0,53.0,65.0,30.0,60.0,771.604
771614.0,53.0,64.0,28.0,61.0,771.614
