time (ms),signal 0,signal 1,signal 2,signal3,time (sec)
731213.0,86.0,140.0,99.0,164.0,731.213
731223.0,88.0,140.0,88.0,165.0,731.223
731233.0,87.0,137.0,76.0,157.0,731.233
731243.0,87.0,135.0,72.0,143.0,731.243
731253.0,87.0,130.0,64.0,133.0,731.253
731264.0,87.0,129.0,73.0,132.0,731.264
731274.0,88.0,128.0,83.0,131.0,731.274
731284.0,88.0,126.0,72.0,141.0,731.284
731294.0,88.0,124.0,66.0,131.0,731.294
731304.0,89.0,122.0,62.0,126.0,731.304
731314.0,89.0,121.0,58.0,128.0,731.314
731324.0,89.0,118.0,50.0,138.0,731.324
731334.0,89.0,119.0,58.0,134.0,731.334
731344.0,89.0,118.0,53.0,135.0,731.344
731354.0,89.0,118.0,54.0,137.0,731.354
731364.0,86.0,117.0,47.0,124.0,731.364
731374.0,85.0,117.0,42.0,126.0,731.374
731384.0,85.0,115.0,45.0,123.0,731.384
731394.0,84.0,114.0,48.0,143.0,731.394
731404.0,83.0,112.0,54.0,141.0,731.404
731414.0,84.0,114.0,53.0,135.0,731.414
731424.0,83.0,114.0,45.0,148.0,731.424
731435.0,83.0,111.0,40.0,139.0,731.435
731445.0,82.0,108.0,36.0,130.0,731.445
731455.0,82.0,106.0,32.0,130.0,731.455
731465.0,81.0,102.0,34.0,124.0,731.465
731475.0,80.0,101.0,38.0,116.0,731.475
731485.0,79.0,101.0,43.0,110.0,731.485
731495.0,80.0,101.0,40.0,112.0,731.495
731505.0,81.0,102.0,35.0,112.0,731.505
731515.0,81.0,100.0,32.0,119.0,731.515
731525.0,83.0,99.0,30.0,115.0,731.525
731535.0,83.0,100.0,39.0,106.0,731.535
731545.0,85.0,102.0,39.0,101.0,731.545
731555.0,84.0,100.0,37.0,98.0,731.555
731565.0,85.0,102.0,35.0,97.0,731.565
731575.0,86.0,102.0,34.0,97.0,731.575
731585.0,85.0,100.0,40.0,100.0,731.585
731595.0,87.0,100.0,40.0,100.0,731.595
731606.0,90.0,101.0,43.0,94.0,731.606
731616.0,90.0,100.0,38.0,98.0,731.616
731626.0,89.0,97.0,44.0,94.0,731.626
731636.0,87.0,96.0,38.0,98.0,731.636
731646.0,87.0,96.0,42.0,108.0,731.646
731656.0,86.0,93.0,40.0,110.0,731.656
731666.0,85.0,93.0,43.0,118.0,731.666
731676.0,86.0,95.0,38.0,119.0,731.676
731686.0,86.0,94.0,34.0,117.0,731.686
731696.0,84.0,93.0,32.0,119.0,731.696
731706.0,84.0,94.0,29.0,116.0,731.706
731716.0,83.0,92.0,25.0,113.0,731.716
731726.0,81.0,92.0,24.0,117.0,731.726
731736.0,82.0,91.0,27.0,119.0,731.736
731746.0,81.0,92.0,24.0,112.0,731.746
731756.0,79.0,90.0,33.0,116.0,731.756
731766.0,78.0,89.0,31.0,115.0,731.766
731776.0,77.0,85.0,38.0,111.0,731.776
731786.0,76.0,86.0,41.0,104.0,731.786
731796.0,75.0,84.0,38.0,97.0,731.796
731806.0,76.0,84.0,36.0,111.0,731.806
731816.0,74.0,81.0,38.0,124.0,731.816
731826.0,75.0,83.0,42.0,136.0,731.826
731836.0,76.0,84.0,37.0,127.0,731.836
731846.0,75.0,84.0,33.0,118.0,731.846
731856.0,75.0,80.0,30.0,107.0,731.856
731866.0,74.0,79.0,32.0,107.0,731.866
731876.0,73.0,78.0,31.0,112.0,731.876
731886.0,73.0,74.0,38.0,108.0,731.886
731896.0,72.0,74.0,40.0,119.0,731.896
731906.0,73.0,74.0,35.0,121.0,731.906
731916.0,72.0,73.0,33.0,126.0,731.916
731926.0,72.0,72.0,36.0,125.0,731.926
731936.0,72.0,70.0,34.0,117.0,731.936
731947.0,72.0,69.0,30.0,111.0,731.947
731957.0,73.0,69.0,26.0,108.0,731.957
731967.0,71.0,67.0,23.0,113.0,731.967
731977.0,69.0,65.0,33.0,106.0,731.977
731987.0,69.0,64.0,32.0,101.0,731.987
731997.0,67.0,63.0,32.0,100.0,731.997
732007.0,67.0,63.0,29.0,99.0,732.007
732017.0,66.0,63.0,25.0,96.0,732.017
732027.0,64.0,62.0,27.0,95.0,732.027
732037.0,63.0,62.0,31.0,105.0,732.037
732047.0,64.0,63.0,27.0,100.0,732.047
732057.0,62.0,63.0,37.0,98.0,732.057
732067.0,63.0,62.0,32.0,92.0,732.067
732077.0,63.0,61.0,29.0,93.0,732.077
732087.0,63.0,60.0,29.0,98.0,732.087
732097.0,62.0,58.0,28.0,103.0,732.097
732107.0,62.0,58.0,32.0,102.0,732.107
732118.0,62.0,59.0,29.0,101.0,732.118
732128.0,61.0,58.0,26.0,97.0,732.128
732138.0,61.0,58.0,23.0,89.0,732.138
732148.0,59.0,55.0,29.0,103.0,732.148
732158.0,60.0,58.0,29.0,114.0,732.158
732168.0,60.0,58.0,28.0,110.0,732.168
732178.0,60.0,57.0,37.0,117.0,732.178
732188.0,60.0,57.0,31.0,115.0,732.188
732198.0,60.0,57.0,27.0,107.0,732.198
732208.0,60.0,56.0,25.0,113.0,732.208
732218.0,59.0,55.0,22.0,114.0,732.218
732228.0,58.0,54.0,20.0,106.0,732.228
732238.0,58.0,54.0,20.0,107.0,732.238
732248.0,59.0,54.0,19.0,101.0,732.248
732258.0,60.0,53.0,18.0,100.0,732.258
732268.0,59.0,51.0,18.0,108.0,732.268
732278.0,61.0,51.0,19.0,123.0,732.278
732288.0,63.0,52.0,18.0,118.0,732.288
732298.0,65.0,50.0,18.0,115.0,732.298
732308.0,65.0,48.0,15.0,108.0,732.308
732318.0,66.0,47.0,15.0,107.0,732.318
732328.0,66.0,47.0,28.0,115.0,732.328
732338.0,66.0,46.0,30.0,114.0,732.338
732348.0,66.0,44.0,27.0,108.0,732.348
732358.0,67.0,45.0,29.0,107.0,732.358
732368.0,68.0,43.0,29.0,106.0,732.368
732378.0,69.0,42.0,24.0,98.0,732.378
732388.0,69.0,46.0,32.0,132.0,732.388
732398.0,70.0,45.0,28.0,137.0,732.398
732408.0,67.0,43.0,25.0,126.0,732.408
732418.0,67.0,44.0,35.0,132.0,732.418
732428.0,66.0,43.0,34.0,135.0,732.428
732438.0,69.0,41.0,32.0,139.0,732.438
732448.0,70.0,42.0,33.0,127.0,732.448
732459.0,69.0,40.0,30.0,117.0,732.459
732469.0,71.0,40.0,30.0,132.0,732.469
732479.0,72.0,40.0,27.0,126.0,732.479
732489.0,72.0,42.0,41.0,133.0,732.489
732499.0,73.0,41.0,41.0,123.0,732.499
732509.0,75.0,41.0,39.0,112.0,732.509
732519.0,75.0,41.0,33.0,102.0,732.519
732529.0,77.0,43.0,33.0,111.0,732.529
732539.0,78.0,43.0,29.0,117.0,732.539
732549.0,77.0,44.0,26.0,118.0,732.549
732559.0,76.0,47.0,28.0,111.0,732.559
732569.0,77.0,46.0,25.0,100.0,732.569
732579.0,79.0,48.0,41.0,106.0,732.579
732589.0,79.0,48.0,39.0,101.0,732.589
732599.0,81.0,48.0,36.0,99.0,732.599
732609.0,80.0,50.0,31.0,95.0,732.609
732619.0,79.0,51.0,27.0,92.0,732.619
732630.0,79.0,52.0,24.0,88.0,732.63
732640.0,78.0,52.0,22.0,79.0,732.64
732650.0,79.0,53.0,21.0,82.0,732.65
732660.0,74.0,57.0,20.0,83.0,732.66
732670.0,73.0,60.0,25.0,79.0,732.67
732680.0,73.0,62.0,26.0,89.0,732.68
732690.0,74.0,72.0,38.0,90.0,732.69
732700.0,74.0,76.0,35.0,88.0,732.7
732710.0,76.0,78.0,33.0,81.0,732.71
732720.0,75.0,88.0,37.0,80.0,732.72
732730.0,74.0,108.0,48.0,81.0,732.73
732740.0,75.0,115.0,56.0,78.0,732.74
732750.0,75.0,110.0,55.0,73.0,732.75
732760.0,75.0,114.0,57.0,72.0,732.76
732770.0,76.0,110.0,52.0,71.0,732.77
732780.0,76.0,104.0,45.0,67.0,732.78
732790.0,77.0,98.0,40.0,67.0,732.79
732800.0,74.0,93.0,42.0,67.0,732.8
732810.0,73.0,89.0,39.0,73.0,732.81
732820.0,73.0,88.0,36.0,76.0,732.82
732830.0,73.0,87.0,39.0,71.0,732.83
732840.0,73.0,84.0,36.0,87.0,732.84
732850.0,71.0,88.0,33.0,86.0,732.85
732860.0,75.0,85.0,43.0,86.0,732.86
732870.0,76.0,81.0,42.0,103.0,732.87
732880.0,78.0,77.0,41.0,110.0,732.88
732890.0,78.0,76.0,44.0,111.0,732.89
732900.0,77.0,75.0,41.0,105.0,732.9
732910.0,78.0,76.0,37.0,103.0,732.91
732920.0,76.0,74.0,41.0,96.0,732.92
732930.0,75.0,73.0,37.0,94.0,732.93
732940.0,74.0,77.0,42.0,90.0,732.94
732950.0,74.0,79.0,45.0,89.0,732.95
732960.0,73.0,74.0,43.0,99.0,732.96
732971.0,74.0,73.0,37.0,96.0,732.971
732981.0,74.0,72.0,36.0,95.0,732.981
732991.0,73.0,74.0,33.0,92.0,732.991
733001.0,74.0,74.0,34.0,85.0,733.001
733011.0,71.0,72.0,44.0,82.0,733.011
733021.0,73.0,69.0,43.0,83.0,733.021
733031.0,72.0,69.0,40.0,81.0,733.031
733041.0,71.0,69.0,38.0,80.0,733.041
733051.0,71.0,68.0,35.0,77.0,733.051
733061.0,71.0,70.0,43.0,74.0,733.061
733071.0,72.0,67.0,40.0,72.0,733.071
733081.0,68.0,68.0,40.0,66.0,733.081
733091.0,68.0,67.0,39.0,70.0,733.091
733101.0,66.0,68.0,36.0,68.0,733.101
733111.0,66.0,68.0,35.0,68.0,733.111
733121.0,67.0,68.0,35.0,68.0,733.121
733131.0,65.0,72.0,37.0,69.0,733.131
733142.0,66.0,73.0,35.0,66.0,733.142
733152.0,64.0,72.0,33.0,67.0,733.152
733162.0,63.0,72.0,31.0,61.0,733.162
733172.0,63.0,73.0,29.0,61.0,733.172
733182.0,64.0,71.0,26.0,58.0,733.182
733192.0,63.0,70.0,27.0,59.0,733.192
733202.0,63.0,70.0,35.0,55.0,733.202
733212.0,63.0,70.0,35.0,57.0,733.212
733222.0,64.0,69.0,30.0,62.0,733.222
733232.0,65.0,67.0,30.0,59.0,733.232
733242.0,65.0,70.0,29.0,58.0,733.242
733252.0,66.0,70.0,29.0,59.0,733.252
733262.0,66.0,70.0,25.0,55.0,733.262
733272.0,66.0,71.0,30.0,56.0,733.272
733282.0,69.0,72.0,27.0,58.0,733.282
733292.0,68.0,71.0,26.0,58.0,733.292
733302.0,69.0,69.0,22.0,55.0,733.302
733312.0,69.0,71.0,22.0,54.0,733.312
733322.0,70.0,71.0,22.0,55.0,733.322
733332.0,71.0,70.0,25.0,58.0,733.332
733342.0,71.0,70.0,33.0,57.0,733.342
733352.0,72.0,67.0,32.0,58.0,733.352
733362.0,72.0,66.0,28.0,55.0,733.362
733372.0,72.0,66.0,25.0,54.0,733.372
733382.0,73.0,68.0,22.0,51.0,733.382
733392.0,71.0,68.0,23.0,54.0,733.392
733402.0,71.0,68.0,26.0,53.0,733.402
733412.0,69.0,69.0,32.0,53.0,733.412
733422.0,71.0,65.0,33.0,56.0,733.422
733432.0,70.0,64.0,28.0,52.0,733.432
733442.0,70.0,65.0,26.0,52.0,733.442
733452.0,69.0,63.0,24.0,54.0,733.452
733462.0,67.0,63.0,24.0,49.0,733.462
733472.0,67.0,61.0,23.0,46.0,733.472
733483.0,64.0,61.0,23.0,47.0,733.483
733493.0,65.0,59.0,27.0,47.0,733.493
733503.0,63.0,59.0,26.0,48.0,733.503
733513.0,61.0,58.0,25.0,47.0,733.513
733523.0,60.0,59.0,23.0,46.0,733.523
733533.0,60.0,55.0,23.0,45.0,733.533
733543.0,60.0,54.0,20.0,43.0,733.543
733553.0,59.0,57.0,33.0,49.0,733.553
733563.0,60.0,57.0,30.0,45.0,733.563
733573.0,59.0,56.0,26.0,45.0,733.573
733583.0,59.0,56.0,25.0,44.0,733.583
733593.0,60.0,56.0,24.0,48.0,733.593
733603.0,61.0,54.0,26.0,48.0,733.603
733613.0,61.0,54.0,24.0,48.0,733.613
733623.0,60.0,55.0,24.0,48.0,733.623
733633.0,62.0,54.0,30.0,51.0,733.633
733643.0,60.0,55.0,26.0,51.0,733.643
733654.0,60.0,54.0,26.0,49.0,733.654
733664.0,61.0,54.0,26.0,48.0,733.664
733674.0,59.0,57.0,23.0,48.0,733.674
733684.0,60.0,57.0,23.0,48.0,733.684
733694.0,61.0,57.0,23.0,47.0,733.694
733704.0,61.0,58.0,21.0,46.0,733.704
733714.0,60.0,59.0,31.0,47.0,733.714
733724.0,61.0,57.0,27.0,44.0,733.724
733734.0,61.0,60.0,28.0,44.0,733.734
733744.0,62.0,61.0,38.0,51.0,733.744
733754.0,64.0,58.0,34.0,52.0,733.754
733764.0,63.0,58.0,32.0,51.0,733.764
733774.0,65.0,57.0,40.0,51.0,733.774
733784.0,64.0,56.0,36.0,48.0,733.784
733794.0,63.0,55.0,33.0,46.0,733.794
733804.0,62.0,54.0,28.0,43.0,733.804
733814.0,61.0,52.0,25.0,39.0,733.814
733824.0,60.0,51.0,28.0,40.0,733.824
733834.0,61.0,53.0,41.0,46.0,733.834
733844.0,62.0,51.0,37.0,46.0,733.844
733854.0,60.0,53.0,50.0,54.0,733.854
733864.0,62.0,49.0,44.0,53.0,733.864
733874.0,62.0,48.0,38.0,49.0,733.874
733884.0,62.0,47.0,34.0,48.0,733.884
733894.0,63.0,46.0,30.0,44.0,733.894
733904.0,61.0,45.0,26.0,41.0,733.904
733914.0,61.0,42.0,24.0,39.0,733.914
733924.0,60.0,44.0,26.0,41.0,733.924
733934.0,60.0,45.0,35.0,49.0,733.934
733944.0,60.0,48.0,46.0,49.0,733.944
733954.0,59.0,45.0,41.0,49.0,733.954
733964.0,59.0,45.0,36.0,50.0,733.964
733974.0,58.0,45.0,32.0,51.0,733.974
733984.0,60.0,43.0,29.0,47.0,733.984
733995.0,58.0,43.0,24.0,45.0,733.995
734005.0,57.0,41.0,23.0,41.0,734.005
734015.0,56.0,44.0,34.0,46.0,734.015
734025.0,57.0,45.0,50.0,50.0,734.025
734035.0,56.0,44.0,47.0,51.0,734.035
734045.0,55.0,43.0,42.0,53.0,734.045
734055.0,55.0,43.0,38.0,51.0,734.055
734065.0,52.0,42.0,32.0,50.0,734.065
734075.0,53.0,41.0,29.0,48.0,734.075
734085.0,54.0,41.0,26.0,50.0,734.085
734095.0,55.0,41.0,24.0,49.0,734.095
734105.0,54.0,39.0,21.0,49.0,734.105
734115.0,53.0,42.0,21.0,47.0,734.115
734125.0,52.0,44.0,30.0,45.0,734.125
734135.0,52.0,44.0,42.0,51.0,734.135
734145.0,53.0,45.0,38.0,48.0,734.145
734155.0,54.0,52.0,36.0,80.0,734.155
734166.0,59.0,56.0,56.0,96.0,734.166
734176.0,63.0,56.0,61.0,104.0,734.176
734186.0,64.0,72.0,111.0,201.0,734.186
734196.0,90.0,83.0,174.0,306.0,734.196
734206.0,95.0,89.0,202.0,383.0,734.206
734216.0,105.0,99.0,215.0,477.0,734.216
734226.0,107.0,99.0,191.0,460.0,734.226
734236.0,105.0,92.0,168.0,462.0,734.236
734246.0,97.0,89.0,185.0,507.0,734.246
734256.0,96.0,87.0,206.0,498.0,734.256
734266.0,96.0,83.0,208.0,468.0,734.266
734276.0,92.0,87.0,210.0,488.0,734.276
734286.0,95.0,89.0,209.0,461.0,734.286
734296.0,92.0,87.0,220.0,427.0,734.296
734306.0,92.0,86.0,201.0,389.0,734.306
734316.0,89.0,84.0,178.0,390.0,734.316
734326.0,91.0,81.0,170.0,418.0,734.326
734336.0,91.0,81.0,152.0,393.0,734.336
734346.0,87.0,78.0,135.0,353.0,734.346
734356.0,89.0,77.0,127.0,333.0,734.356
734366.0,88.0,78.0,122.0,311.0,734.366
734376.0,86.0,73.0,131.0,318.0,734.376
734386.0,87.0,74.0,127.0,324.0,734.386
734396.0,87.0,72.0,115.0,304.0,734.396
734406.0,86.0,68.0,108.0,304.0,734.406
734416.0,86.0,68.0,103.0,298.0,734.416
734426.0,87.0,67.0,102.0,272.0,734.426
734436.0,83.0,63.0,96.0,260.0,734.436
734446.0,85.0,62.0,87.0,246.0,734.446
734456.0,86.0,60.0,79.0,223.0,734.456
734466.0,85.0,58.0,77.0,211.0,734.466
734476.0,87.0,55.0,75.0,203.0,734.476
734486.0,89.0,55.0,75.0,191.0,734.486
734496.0,88.0,53.0,88.0,193.0,734.496
734507.0,90.0,53.0,77.0,182.0,734.507
734517.0,90.0,52.0,67.0,178.0,734.517
734527.0,94.0,52.0,62.0,178.0,734.527
734537.0,95.0,51.0,58.0,199.0,734.537
734547.0,97.0,51.0,58.0,185.0,734.547
734557.0,96.0,53.0,70.0,178.0,734.557
734567.0,97.0,55.0,63.0,182.0,734.567
734577.0,98.0,54.0,58.0,169.0,734.577
734587.0,98.0,52.0,53.0,175.0,734.587
734597.0,100.0,54.0,48.0,166.0,734.597
734607.0,101.0,54.0,45.0,154.0,734.607
734617.0,101.0,57.0,59.0,150.0,734.617
734627.0,100.0,55.0,62.0,159.0,734.627
734637.0,104.0,54.0,58.0,166.0,734.637
734647.0,104.0,54.0,57.0,155.0,734.647
734657.0,102.0,50.0,50.0,148.0,734.657
734667.0,103.0,50.0,43.0,145.0,734.667
734678.0,102.0,49.0,41.0,137.0,734.678
734688.0,104.0,51.0,50.0,133.0,734.688
734698.0,100.0,50.0,48.0,141.0,734.698
734708.0,101.0,51.0,47.0,132.0,734.708
734718.0,103.0,53.0,43.0,134.0,734.718
734728.0,102.0,52.0,38.0,125.0,734.728
734738.0,100.0,50.0,33.0,136.0,734.738
734748.0,103.0,53.0,39.0,137.0,734.748
734758.0,103.0,52.0,36.0,133.0,734.758
734768.0,103.0,51.0,32.0,123.0,734.768
734778.0,100.0,49.0,37.0,135.0,734.778
734788.0,101.0,52.0,38.0,145.0,734.788
734798.0,99.0,49.0,34.0,146.0,734.798
734808.0,99.0,48.0,32.0,145.0,734.808
734818.0,97.0,47.0,33.0,161.0,734.818
734828.0,97.0,46.0,40.0,162.0,734.828
734838.0,94.0,45.0,34.0,155.0,734.838
734848.0,93.0,43.0,33.0,144.0,734.848
734858.0,92.0,45.0,30.0,148.0,734.858
734868.0,91.0,43.0,30.0,140.0,734.868
734878.0,90.0,43.0,29.0,132.0,734.878
734888.0,86.0,44.0,33.0,127.0,734.888
734898.0,89.0,46.0,55.0,129.0,734.898
734908.0,88.0,46.0,49.0,129.0,734.908
734918.0,88.0,43.0,45.0,124.0,734.918
734928.0,87.0,43.0,42.0,124.0,734.928
734938.0,87.0,45.0,46.0,135.0,734.938
734948.0,89.0,46.0,54.0,145.0,734.948
734958.0,89.0,45.0,47.0,140.0,734.958
734968.0,90.0,43.0,44.0,126.0,734.968
734978.0,86.0,44.0,42.0,136.0,734.978
734988.0,90.0,42.0,41.0,138.0,734.988
734998.0,90.0,42.0,35.0,138.0,734.998
735008.0,87.0,41.0,34.0,131.0,735.008
735019.0,85.0,42.0,46.0,128.0,735.019
735029.0,83.0,43.0,42.0,132.0,735.029
735039.0,82.0,42.0,37.0,126.0,735.039
735049.0,82.0,41.0,32.0,125.0,735.049
735059.0,82.0,41.0,31.0,115.0,735.059
735069.0,82.0,42.0,30.0,129.0,735.069
735079.0,80.0,40.0,26.0,128.0,735.079
735089.0,82.0,45.0,30.0,129.0,735.089
735099.0,83.0,44.0,29.0,121.0,735.099
735109.0,81.0,46.0,30.0,133.0,735.109
735119.0,81.0,46.0,30.0,138.0,735.119
735129.0,82.0,44.0,26.0,132.0,735.129
735139.0,80.0,43.0,23.0,121.0,735.139
735149.0,77.0,42.0,23.0,123.0,735.149
735159.0,76.0,45.0,34.0,122.0,735.159
735169.0,74.0,43.0,30.0,124.0,735.169
735179.0,74.0,42.0,28.0,117.0,735.179
735190.0,70.0,43.0,32.0,111.0,735.19
735200.0,72.0,42.0,34.0,129.0,735.2
735210.0,71.0,42.0,30.0,129.0,735.21
735220.0,70.0,40.0,28.0,122.0,735.22
735230.0,69.0,42.0,35.0,122.0,735.23
735240.0,72.0,44.0,33.0,127.0,735.24
735250.0,73.0,42.0,29.0,121.0,735.25
735260.0,71.0,42.0,27.0,121.0,735.26
735270.0,68.0,44.0,40.0,122.0,735.27
735280.0,69.0,45.0,41.0,133.0,735.28
735290.0,70.0,43.0,35.0,134.0,735.29
735300.0,69.0,44.0,32.0,129.0,735.3
735310.0,67.0,46.0,39.0,124.0,735.31
735320.0,67.0,46.0,42.0,120.0,735.32
735330.0,67.0,44.0,36.0,117.0,735.33
735340.0,66.0,45.0,33.0,125.0,735.34
735350.0,66.0,47.0,36.0,122.0,735.35
735360.0,66.0,46.0,40.0,124.0,735.36
735370.0,65.0,45.0,38.0,118.0,735.37
735380.0,69.0,45.0,41.0,109.0,735.38
735390.0,71.0,45.0,43.0,104.0,735.39
735400.0,70.0,44.0,36.0,100.0,735.4
735410.0,68.0,45.0,34.0,104.0,735.41
735420.0,68.0,45.0,37.0,103.0,735.42
735430.0,67.0,47.0,47.0,109.0,735.43
735440.0,67.0,46.0,43.0,108.0,735.44
735450.0,65.0,47.0,51.0,101.0,735.45
735460.0,65.0,46.0,48.0,93.0,735.46
735470.0,63.0,46.0,44.0,104.0,735.47
735480.0,63.0,45.0,42.0,99.0,735.48
735490.0,61.0,47.0,39.0,101.0,735.49
735500.0,61.0,45.0,35.0,106.0,735.5
735510.0,61.0,46.0,36.0,98.0,735.51
735520.0,63.0,45.0,33.0,91.0,735.52
735531.0,64.0,47.0,48.0,107.0,735.531
735541.0,62.0,47.0,46.0,99.0,735.541
735551.0,62.0,47.0,42.0,92.0,735.551
735561.0,61.0,48.0,42.0,93.0,735.561
735571.0,62.0,46.0,37.0,100.0,735.571
735581.0,61.0,46.0,35.0,98.0,735.581
735591.0,60.0,48.0,33.0,98.0,735.591
735601.0,61.0,47.0,30.0,90.0,735.601
735611.0,60.0,49.0,24.0,84.0,735.611
735621.0,61.0,47.0,24.0,79.0,735.621
735631.0,60.0,48.0,19.0,73.0,735.631
735641.0,59.0,50.0,18.0,74.0,735.641
735651.0,59.0,50.0,16.0,69.0,735.651
735661.0,57.0,51.0,18.0,69.0,735.661
735671.0,56.0,51.0,27.0,73.0,735.671
735681.0,54.0,50.0,24.0,76.0,735.681
735691.0,55.0,48.0,34.0,69.0,735.691
735702.0,54.0,49.0,34.0,89.0,735.702
735712.0,52.0,49.0,31.0,86.0,735.712
735722.0,52.0,48.0,27.0,84.0,735.722
735732.0,52.0,49.0,31.0,90.0,735.732
735742.0,51.0,48.0,31.0,98.0,735.742
735752.0,52.0,48.0,28.0,94.0,735.752
735762.0,53.0,47.0,35.0,89.0,735.762
735772.0,51.0,47.0,32.0,88.0,735.772
735782.0,52.0,46.0,28.0,84.0,735.782
735792.0,51.0,47.0,27.0,79.0,735.792
735802.0,50.0,48.0,35.0,91.0,735.802
735812.0,51.0,49.0,45.0,91.0,735.812
735822.0,52.0,47.0,40.0,87.0,735.822
735832.0,52.0,45.0,37.0,83.0,735.832
735842.0,50.0,45.0,33.0,85.0,735.842
735852.0,50.0,44.0,37.0,92.0,735.852
735862.0,50.0,44.0,36.0,91.0,735.862
735872.0,50.0,46.0,35.0,102.0,735.872
735882.0,54.0,46.0,47.0,105.0,735.882
735892.0,52.0,46.0,44.0,98.0,735.892
735902.0,54.0,47.0,39.0,96.0,735.902
735912.0,53.0,46.0,35.0,90.0,735.912
735922.0,52.0,48.0,35.0,87.0,735.922
735932.0,54.0,47.0,32.0,85.0,735.932
735942.0,53.0,47.0,31.0,94.0,735.942
735952.0,55.0,47.0,29.0,101.0,735.952
735962.0,54.0,47.0,26.0,107.0,735.962
735972.0,54.0,48.0,39.0,111.0,735.972
735982.0,54.0,47.0,34.0,108.0,735.982
735992.0,54.0,44.0,31.0,109.0,735.992
736002.0,53.0,43.0,28.0,107.0,736.002
736012.0,53.0,44.0,27.0,107.0,736.012
736022.0,53.0,43.0,27.0,103.0,736.022
736032.0,53.0,42.0,26.0,97.0,736.032
736043.0,55.0,47.0,37.0,100.0,736.043
736053.0,53.0,46.0,32.0,99.0,736.053
736063.0,52.0,46.0,29.0,98.0,736.063
736073.0,52.0,46.0,27.0,102.0,736.073
736083.0,51.0,45.0,27.0,98.0,736.083
736093.0,53.0,43.0,25.0,91.0,736.093
736103.0,51.0,44.0,24.0,96.0,736.103
736113.0,51.0,45.0,33.0,93.0,736.113
736123.0,51.0,47.0,41.0,97.0,736.123
736133.0,52.0,45.0,40.0,92.0,736.133
736143.0,52.0,43.0,36.0,90.0,736.143
736153.0,52.0,45.0,33.0,89.0,736.153
736163.0,53.0,44.0,32.0,95.0,736.163
736173.0,50.0,44.0,29.0,105.0,736.173
736183.0,51.0,45.0,43.0,107.0,736.183
736193.0,50.0,44.0,36.0,101.0,736.193
736203.0,50.0,42.0,32.0,103.0,736.203
736214.0,51.0,43.0,29.0,111.0,736.214
736224.0,49.0,44.0,28.0,105.0,736.224
736234.0,52.0,43.0,29.0,104.0,736.234
736244.0,52.0,45.0,26.0,106.0,736.244
736254.0,54.0,44.0,29.0,108.0,736.254
736264.0,54.0,43.0,26.0,102.0,736.264
736274.0,54.0,44.0,23.0,96.0,736.274
736284.0,54.0,46.0,29.0,94.0,736.284
736294.0,54.0,47.0,27.0,91.0,736.294
736304.0,53.0,46.0,25.0,85.0,736.304
736314.0,52.0,47.0,24.0,81.0,736.314
736324.0,53.0,47.0,28.0,79.0,736.324
736334.0,54.0,48.0,31.0,81.0,736.334
736344.0,54.0,48.0,40.0,92.0,736.344
736354.0,55.0,46.0,37.0,95.0,736.354
736364.0,56.0,44.0,33.0,92.0,736.364
736374.0,56.0,44.0,29.0,83.0,736.374
736384.0,55.0,44.0,26.0,79.0,736.384
736394.0,56.0,44.0,26.0,77.0,736.394
736404.0,55.0,45.0,23.0,84.0,736.404
736414.0,56.0,43.0,21.0,90.0,736.414
736424.0,56.0,44.0,20.0,84.0,736.424
736434.0,56.0,44.0,18.0,79.0,736.434
736444.0,58.0,46.0,28.0,76.0,736.444
736454.0,58.0,45.0,24.0,77.0,736.454
736464.0,60.0,45.0,23.0,72.0,736.464
736474.0,60.0,46.0,26.0,77.0,736.474
736484.0,62.0,46.0,32.0,92.0,736.484
736494.0,61.0,46.0,32.0,88.0,736.494
736504.0,60.0,48.0,41.0,84.0,736.504
736514.0,62.0,46.0,37.0,77.0,736.514
736524.0,60.0,46.0,35.0,80.0,736.524
736534.0,60.0,44.0,31.0,79.0,736.534
736544.0,60.0,44.0,33.0,74.0,736.544
736555.0,61.0,42.0,36.0,76.0,736.555
736565.0,60.0,41.0,32.0,71.0,736.565
736575.0,61.0,41.0,32.0,71.0,736.575
736585.0,60.0,41.0,28.0,69.0,736.585
736595.0,58.0,43.0,35.0,67.0,736.595
736605.0,61.0,43.0,33.0,63.0,736.605
736615.0,61.0,42.0,29.0,63.0,736.615
736625.0,62.0,42.0,27.0,67.0,736.625
736635.0,63.0,42.0,24.0,87.0,736.635
736645.0,65.0,42.0,22.0,80.0,736.645
736655.0,65.0,42.0,22.0,79.0,736.655
736665.0,63.0,44.0,23.0,78.0,736.665
736675.0,63.0,43.0,22.0,77.0,736.675
736685.0,63.0,46.0,32.0,76.0,736.685
736695.0,63.0,44.0,31.0,80.0,736.695
736705.0,64.0,43.0,29.0,73.0,736.705
736715.0,63.0,43.0,27.0,69.0,736.715
736726.0,63.0,43.0,24.0,72.0,736.726
736736.0,62.0,44.0,22.0,72.0,736.736
736746.0,62.0,43.0,20.0,70.0,736.746
736756.0,62.0,43.0,19.0,73.0,736.756
736766.0,62.0,44.0,34.0,70.0,736.766
736776.0,64.0,44.0,35.0,68.0,736.776
736786.0,65.0,41.0,34.0,64.0,736.786
736796.0,66.0,40.0,30.0,69.0,736.796
736806.0,62.0,42.0,31.0,76.0,736.806
736816.0,65.0,40.0,30.0,71.0,736.816
736826.0,62.0,41.0,26.0,69.0,736.826
736836.0,62.0,40.0,34.0,71.0,736.836
736846.0,64.0,41.0,37.0,75.0,736.846
736856.0,65.0,39.0,33.0,88.0,736.856
736866.0,67.0,38.0,31.0,83.0,736.866
736876.0,66.0,38.0,28.0,79.0,736.876
736886.0,66.0,37.0,24.0,79.0,736.886
736896.0,65.0,38.0,26.0,79.0,736.896
736906.0,64.0,38.0,23.0,80.0,736.906
736916.0,62.0,38.0,25.0,82.0,736.916
736926.0,62.0,38.0,29.0,78.0,736.926
736936.0,63.0,39.0,35.0,78.0,736.936
736946.0,61.0,39.0,31.0,73.0,736.946
736956.0,61.0,37.0,28.0,69.0,736.956
736966.0,60.0,39.0,28.0,70.0,736.966
736976.0,59.0,38.0,26.0,71.0,736.976
736986.0,60.0,39.0,24.0,76.0,736.986
736996.0,60.0,38.0,22.0,70.0,736.996
737006.0,60.0,38.0,22.0,71.0,737.006
737016.0,60.0,40.0,36.0,79.0,737.016
737026.0,62.0,39.0,34.0,77.0,737.026
737036.0,62.0,40.0,33.0,95.0,737.036
737046.0,63.0,37.0,29.0,88.0,737.046
737056.0,64.0,38.0,27.0,85.0,737.056
737067.0,65.0,39.0,27.0,83.0,737.067
737077.0,65.0,40.0,24.0,81.0,737.077
737087.0,65.0,41.0,38.0,81.0,737.087
737097.0,66.0,40.0,36.0,81.0,737.097
737107.0,65.0,41.0,35.0,85.0,737.107
737117.0,65.0,39.0,31.0,79.0,737.117
737127.0,64.0,38.0,27.0,80.0,737.127
737137.0,63.0,39.0,33.0,77.0,737.137
737147.0,65.0,39.0,30.0,72.0,737.147
737157.0,65.0,40.0,27.0,70.0,737.157
737167.0,66.0,40.0,27.0,69.0,737.167
737177.0,67.0,42.0,40.0,66.0,737.177
737187.0,68.0,39.0,36.0,62.0,737.187
737197.0,69.0,40.0,36.0,64.0,737.197
737207.0,70.0,39.0,35.0,60.0,737.207
737217.0,72.0,38.0,32.0,58.0,737.217
737227.0,72.0,38.0,28.0,61.0,737.227
737238.0,73.0,37.0,25.0,68.0,737.238
737248.0,74.0,38.0,21.0,73.0,737.248
737258.0,73.0,38.0,24.0,70.0,737.258
737268.0,74.0,39.0,24.0,72.0,737.268
737278.0,75.0,38.0,23.0,67.0,737.278
737288.0,74.0,38.0,21.0,65.0,737.288
737298.0,74.0,38.0,22.0,68.0,737.298
737308.0,73.0,38.0,23.0,68.0,737.308
737318.0,73.0,39.0,21.0,68.0,737.318
737328.0,73.0,38.0,23.0,68.0,737.328
737338.0,72.0,40.0,29.0,66.0,737.338
737348.0,72.0,42.0,28.0,64.0,737.348
737358.0,73.0,43.0,24.0,70.0,737.358
737368.0,72.0,42.0,22.0,72.0,737.368
737378.0,71.0,42.0,29.0,75.0,737.378
737388.0,71.0,44.0,27.0,74.0,737.388
737398.0,71.0,42.0,24.0,78.0,737.398
737408.0,70.0,42.0,26.0,77.0,737.408
737418.0,70.0,41.0,25.0,74.0,737.418
737428.0,71.0,41.0,39.0,70.0,737.428
737438.0,69.0,42.0,34.0,72.0,737.438
737448.0,69.0,42.0,34.0,71.0,737.448
737458.0,68.0,43.0,32.0,75.0,737.458
737468.0,69.0,42.0,30.0,70.0,737.468
737478.0,67.0,41.0,33.0,70.0,737.478
737488.0,68.0,41.0,35.0,69.0,737.488
737498.0,69.0,41.0,31.0,72.0,737.498
737508.0,66.0,41.0,27.0,72.0,737.508
737518.0,67.0,43.0,36.0,71.0,737.518
737528.0,66.0,43.0,33.0,69.0,737.528
737538.0,67.0,42.0,31.0,66.0,737.538
737548.0,65.0,43.0,31.0,71.0,737.548
737558.0,67.0,44.0,29.0,70.0,737.558
737568.0,69.0,47.0,27.0,75.0,737.568
737579.0,67.0,48.0,24.0,71.0,737.579
737589.0,67.0,48.0,22.0,69.0,737.589
737599.0,67.0,52.0,33.0,71.0,737.599
737609.0,67.0,50.0,30.0,74.0,737.609
737619.0,67.0,51.0,32.0,78.0,737.619
737629.0,67.0,51.0,32.0,72.0,737.629
737639.0,66.0,51.0,29.0,69.0,737.639
737649.0,66.0,54.0,26.0,79.0,737.649
737659.0,65.0,55.0,25.0,82.0,737.659
737669.0,66.0,57.0,23.0,77.0,737.669
737679.0,65.0,56.0,34.0,75.0,737.679
737689.0,67.0,58.0,29.0,74.0,737.689
737699.0,67.0,58.0,30.0,73.0,737.699
737709.0,65.0,57.0,29.0,75.0,737.709
737719.0,65.0,60.0,25.0,73.0,737.719
737729.0,65.0,61.0,25.0,82.0,737.729
737739.0,65.0,63.0,25.0,78.0,737.739
737750.0,63.0,62.0,34.0,76.0,737.75
737760.0,63.0,63.0,31.0,75.0,737.76
737770.0,61.0,63.0,29.0,70.0,737.77
737780.0,61.0,63.0,28.0,67.0,737.78
737790.0,60.0,63.0,25.0,65.0,737.79
737800.0,59.0,63.0,23.0,69.0,737.8
737810.0,59.0,65.0,24.0,72.0,737.81
737820.0,59.0,64.0,23.0,67.0,737.82
737830.0,59.0,66.0,23.0,64.0,737.83
737840.0,61.0,68.0,31.0,62.0,737.84
737850.0,61.0,70.0,28.0,59.0,737.85
737860.0,62.0,71.0,27.0,62.0,737.86
737870.0,61.0,71.0,26.0,66.0,737.87
737880.0,61.0,73.0,24.0,64.0,737.88
737890.0,59.0,70.0,27.0,70.0,737.89
737900.0,61.0,73.0,34.0,71.0,737.9
737910.0,61.0,75.0,34.0,69.0,737.91
737920.0,60.0,74.0,31.0,65.0,737.92
737930.0,60.0,75.0,30.0,69.0,737.93
737940.0,59.0,74.0,29.0,67.0,737.94
737950.0,58.0,76.0,26.0,66.0,737.95
737960.0,57.0,76.0,24.0,62.0,737.96
737970.0,56.0,77.0,21.0,67.0,737.97
737980.0,57.0,79.0,20.0,66.0,737.98
737990.0,58.0,78.0,33.0,92.0,737.99
738000.0,58.0,81.0,30.0,92.0,738.0
738010.0,58.0,80.0,28.0,88.0,738.01
738020.0,57.0,80.0,35.0,85.0,738.02
738030.0,59.0,79.0,35.0,80.0,738.03
738040.0,57.0,78.0,31.0,76.0,738.04
738050.0,59.0,80.0,27.0,71.0,738.05
738060.0,60.0,81.0,24.0,67.0,738.06
738070.0,58.0,79.0,22.0,64.0,738.07
738080.0,58.0,79.0,35.0,73.0,738.08
738091.0,56.0,78.0,35.0,74.0,738.091
738101.0,57.0,79.0,32.0,80.0,738.101
738111.0,57.0,81.0,29.0,78.0,738.111
738121.0,58.0,80.0,27.0,72.0,738.121
738131.0,57.0,80.0,31.0,71.0,738.131
738141.0,58.0,81.0,27.0,67.0,738.141
738151.0,58.0,81.0,26.0,67.0,738.151
738161.0,58.0,81.0,31.0,69.0,738.161
738171.0,59.0,82.0,30.0,70.0,738.171
738181.0,58.0,82.0,25.0,72.0,738.181
738191.0,57.0,82.0,25.0,69.0,738.191
738201.0,57.0,83.0,25.0,72.0,738.201
738211.0,55.0,82.0,30.0,76.0,738.211
738221.0,57.0,82.0,29.0,81.0,738.221
738231.0,55.0,84.0,26.0,78.0,738.231
738241.0,56.0,84.0,22.0,72.0,738.241
738251.0,54.0,83.0,20.0,67.0,738.251
738262.0,54.0,83.0,36.0,67.0,738.262
738272.0,55.0,85.0,32.0,68.0,738.272
738282.0,54.0,84.0,38.0,65.0,738.282
738292.0,54.0,84.0,35.0,64.0,738.292
738302.0,54.0,86.0,31.0,60.0,738.302
738312.0,53.0,84.0,28.0,62.0,738.312
738322.0,53.0,83.0,28.0,62.0,738.322
738332.0,54.0,82.0,26.0,62.0,738.332
738342.0,54.0,81.0,38.0,60.0,738.342
738352.0,56.0,82.0,37.0,62.0,738.352
738362.0,57.0,80.0,36.0,59.0,738.362
738372.0,58.0,81.0,32.0,55.0,738.372
738382.0,58.0,78.0,29.0,64.0,738.382
738392.0,58.0,78.0,26.0,65.0,738.392
738402.0,59.0,75.0,25.0,62.0,738.402
738412.0,60.0,75.0,46.0,66.0,738.412
738422.0,60.0,73.0,42.0,64.0,738.422
738432.0,61.0,72.0,38.0,61.0,738.432
738442.0,61.0,71.0,33.0,63.0,738.442
738452.0,60.0,70.0,30.0,60.0,738.452
738462.0,60.0,68.0,25.0,61.0,738.462
738472.0,60.0,67.0,25.0,59.0,738.472
738482.0,59.0,66.0,22.0,59.0,738.482
738492.0,58.0,66.0,19.0,62.0,738.492
738502.0,57.0,63.0,23.0,67.0,738.502
738512.0,56.0,62.0,39.0,72.0,738.512
738522.0,58.0,63.0,37.0,69.0,738.522
738532.0,58.0,63.0,32.0,68.0,738.532
738542.0,59.0,62.0,29.0,76.0,738.542
738552.0,59.0,62.0,26.0,74.0,738.552
738562.0,57.0,61.0,26.0,75.0,738.562
738572.0,58.0,61.0,25.0,72.0,738.572
738582.0,58.0,62.0,23.0,65.0,738.582
738592.0,57.0,61.0,22.0,64.0,738.592
738603.0,56.0,61.0,19.0,62.0,738.603
738613.0,57.0,61.0,30.0,64.0,738.613
738623.0,57.0,62.0,26.0,65.0,738.623
738633.0,56.0,60.0,23.0,69.0,738.633
738643.0,56.0,59.0,25.0,69.0,738.643
738653.0,56.0,58.0,28.0,63.0,738.653
738663.0,57.0,58.0,25.0,63.0,738.663
738673.0,57.0,57.0,21.0,69.0,738.673
738683.0,57.0,57.0,20.0,65.0,738.683
738693.0,57.0,55.0,19.0,60.0,738.693
738703.0,56.0,54.0,16.0,57.0,738.703
738713.0,55.0,52.0,19.0,60.0,738.713
738723.0,57.0,56.0,26.0,59.0,738.723
738733.0,56.0,54.0,25.0,55.0,738.733
738743.0,56.0,54.0,23.0,63.0,738.743
738753.0,56.0,53.0,24.0,62.0,738.753
738763.0,56.0,51.0,20.0,58.0,738.763
738774.0,58.0,52.0,18.0,56.0,738.774
738784.0,58.0,51.0,18.0,61.0,738.784
738794.0,59.0,52.0,18.0,60.0,738.794
738804.0,58.0,52.0,27.0,56.0,738.804
738814.0,60.0,52.0,24.0,54.0,738.814
738824.0,60.0,51.0,28.0,58.0,738.824
738834.0,60.0,51.0,26.0,63.0,738.834
738844.0,59.0,50.0,22.0,65.0,738.844
738854.0,58.0,48.0,20.0,63.0,738.854
738864.0,58.0,48.0,20.0,61.0,738.864
738874.0,59.0,49.0,27.0,60.0,738.874
738884.0,59.0,48.0,24.0,58.0,738.884
738894.0,59.0,49.0,33.0,56.0,738.894
738904.0,59.0,49.0,34.0,54.0,738.904
738914.0,58.0,50.0,30.0,57.0,738.914
738924.0,58.0,49.0,26.0,58.0,738.924
738934.0,58.0,49.0,27.0,58.0,738.934
738944.0,58.0,48.0,25.0,59.0,738.944
738954.0,57.0,48.0,23.0,57.0,738.954
738964.0,58.0,49.0,21.0,60.0,738.964
738974.0,57.0,49.0,20.0,58.0,738.974
738984.0,55.0,49.0,32.0,57.0,738.984
738994.0,55.0,49.0,30.0,57.0,738.994
739004.0,55.0,49.0,27.0,53.0,739.004
739014.0,54.0,50.0,24.0,53.0,739.014
739024.0,52.0,48.0,21.0,52.0,739.024
739034.0,51.0,47.0,23.0,50.0,739.034
739044.0,52.0,48.0,23.0,53.0,739.044
739054.0,51.0,48.0,26.0,54.0,739.054
739064.0,53.0,47.0,30.0,53.0,739.064
739074.0,54.0,48.0,26.0,51.0,739.074
739084.0,56.0,48.0,31.0,56.0,739.084
739094.0,57.0,49.0,33.0,54.0,739.094
739104.0,60.0,48.0,36.0,58.0,739.104
739115.0,62.0,48.0,31.0,56.0,739.115
739125.0,60.0,48.0,28.0,57.0,739.125
739135.0,63.0,47.0,26.0,55.0,739.135
739145.0,64.0,48.0,22.0,55.0,739.145
739155.0,63.0,46.0,23.0,58.0,739.155
739165.0,63.0,46.0,31.0,58.0,739.165
739175.0,61.0,45.0,32.0,57.0,739.175
739185.0,63.0,45.0,29.0,57.0,739.185
739195.0,62.0,46.0,28.0,55.0,739.195
739205.0,64.0,47.0,26.0,53.0,739.205
739215.0,62.0,48.0,24.0,50.0,739.215
739225.0,62.0,46.0,22.0,54.0,739.225
739235.0,60.0,48.0,25.0,57.0,739.235
739245.0,62.0,49.0,40.0,58.0,739.245
739255.0,63.0,48.0,38.0,55.0,739.255
739265.0,63.0,47.0,32.0,53.0,739.265
739275.0,63.0,45.0,28.0,51.0,739.275
739286.0,63.0,44.0,26.0,53.0,739.286
739296.0,63.0,43.0,24.0,52.0,739.296
739306.0,61.0,43.0,21.0,56.0,739.306
739316.0,64.0,44.0,32.0,56.0,739.316
739326.0,62.0,44.0,39.0,54.0,739.326
739336.0,62.0,44.0,37.0,53.0,739.336
739346.0,62.0,44.0,34.0,53.0,739.346
739356.0,60.0,42.0,31.0,54.0,739.356
739366.0,59.0,42.0,32.0,58.0,739.366
739376.0,59.0,41.0,28.0,57.0,739.376
739386.0,60.0,40.0,29.0,61.0,739.386
739396.0,58.0,41.0,34.0,60.0,739.396
739406.0,58.0,40.0,32.0,61.0,739.406
739416.0,59.0,38.0,29.0,60.0,739.416
739426.0,58.0,39.0,26.0,64.0,739.426
739436.0,58.0,36.0,23.0,60.0,739.436
739446.0,58.0,36.0,21.0,62.0,739.446
739456.0,58.0,38.0,23.0,59.0,739.456
739466.0,57.0,37.0,22.0,58.0,739.466
739476.0,55.0,38.0,35.0,60.0,739.476
739486.0,56.0,39.0,34.0,59.0,739.486
739496.0,57.0,39.0,32.0,62.0,739.496
739506.0,57.0,37.0,29.0,61.0,739.506
739516.0,58.0,37.0,27.0,64.0,739.516
739526.0,56.0,37.0,24.0,61.0,739.526
739536.0,55.0,37.0,22.0,61.0,739.536
739546.0,54.0,38.0,24.0,59.0,739.546
739556.0,54.0,40.0,36.0,57.0,739.556
739566.0,52.0,41.0,31.0,63.0,739.566
739576.0,52.0,39.0,28.0,60.0,739.576
739586.0,52.0,40.0,27.0,60.0,739.586
739596.0,53.0,38.0,29.0,59.0,739.596
739606.0,54.0,40.0,30.0,57.0,739.606
739616.0,53.0,41.0,32.0,54.0,739.616
739627.0,53.0,40.0,29.0,61.0,739.627
739637.0,53.0,40.0,25.0,62.0,739.637
739647.0,53.0,38.0,23.0,61.0,739.647
739657.0,52.0,41.0,27.0,62.0,739.657
739667.0,54.0,40.0,25.0,60.0,739.667
739677.0,52.0,41.0,26.0,58.0,739.677
739687.0,52.0,40.0,23.0,59.0,739.687
739697.0,53.0,41.0,27.0,59.0,739.697
739707.0,53.0,40.0,30.0,61.0,739.707
739717.0,53.0,41.0,30.0,61.0,739.717
739727.0,53.0,39.0,26.0,58.0,739.727
739737.0,56.0,39.0,25.0,55.0,739.737
739747.0,55.0,39.0,24.0,57.0,739.747
739757.0,56.0,38.0,22.0,59.0,739.757
739767.0,58.0,37.0,21.0,61.0,739.767
739777.0,59.0,38.0,19.0,63.0,739.777
739787.0,58.0,36.0,17.0,68.0,739.787
739798.0,59.0,39.0,29.0,81.0,739.798
739808.0,60.0,38.0,27.0,78.0,739.808
739818.0,58.0,38.0,36.0,79.0,739.818
739828.0,58.0,39.0,36.0,76.0,739.828
739838.0,57.0,37.0,33.0,75.0,739.838
739848.0,56.0,39.0,30.0,71.0,739.848
739858.0,58.0,40.0,36.0,71.0,739.858
739868.0,58.0,40.0,32.0,71.0,739.868
739878.0,57.0,39.0,28.0,75.0,739.878
739888.0,56.0,38.0,29.0,80.0,739.888
739898.0,55.0,39.0,27.0,80.0,739.898
739908.0,56.0,37.0,24.0,84.0,739.908
739918.0,54.0,39.0,25.0,98.0,739.918
739928.0,54.0,39.0,29.0,100.0,739.928
739938.0,56.0,38.0,27.0,99.0,739.938
739948.0,57.0,41.0,34.0,90.0,739.948
739958.0,58.0,41.0,32.0,87.0,739.958
739968.0,59.0,41.0,32.0,84.0,739.968
739978.0,60.0,41.0,29.0,79.0,739.978
739988.0,59.0,43.0,29.0,77.0,739.988
739998.0,57.0,44.0,26.0,78.0,739.998
740008.0,55.0,45.0,29.0,74.0,740.008
740018.0,56.0,45.0,26.0,72.0,740.018
740028.0,55.0,46.0,35.0,69.0,740.028
740038.0,54.0,46.0,31.0,68.0,740.038
740048.0,54.0,45.0,28.0,66.0,740.048
740058.0,55.0,45.0,26.0,75.0,740.058
740068.0,54.0,44.0,24.0,85.0,740.068
740078.0,53.0,44.0,24.0,82.0,740.078
740088.0,53.0,43.0,32.0,79.0,740.088
740098.0,53.0,43.0,38.0,79.0,740.098
740108.0,52.0,42.0,33.0,76.0,740.108
740118.0,55.0,41.0,30.0,74.0,740.118
740128.0,54.0,44.0,26.0,73.0,740.128
740139.0,55.0,42.0,25.0,76.0,740.139
740149.0,53.0,44.0,25.0,79.0,740.149
740159.0,55.0,46.0,34.0,75.0,740.159
740169.0,54.0,47.0,40.0,80.0,740.169
740179.0,57.0,46.0,39.0,83.0,740.179
740189.0,58.0,47.0,36.0,77.0,740.189
740199.0,58.0,48.0,31.0,74.0,740.199
740209.0,60.0,46.0,29.0,68.0,740.209
740219.0,61.0,48.0,27.0,71.0,740.219
740229.0,61.0,48.0,24.0,77.0,740.229
740239.0,61.0,48.0,20.0,73.0,740.239
740249.0,62.0,49.0,20.0,67.0,740.249
740259.0,62.0,49.0,20.0,69.0,740.259
740269.0,63.0,48.0,19.0,67.0,740.269
740279.0,63.0,46.0,18.0,64.0,740.279
740289.0,65.0,47.0,25.0,63.0,740.289
740299.0,67.0,45.0,25.0,64.0,740.299
740310.0,67.0,45.0,22.0,62.0,740.31
740320.0,67.0,44.0,18.0,61.0,740.32
740330.0,66.0,45.0,17.0,60.0,740.33
740340.0,67.0,45.0,16.0,58.0,740.34
740350.0,67.0,44.0,15.0,62.0,740.35
740360.0,66.0,47.0,14.0,68.0,740.36
740370.0,65.0,45.0,16.0,64.0,740.37
740380.0,64.0,46.0,26.0,63.0,740.38
740390.0,63.0,44.0,27.0,65.0,740.39
740400.0,62.0,43.0,27.0,85.0,740.4
740410.0,61.0,46.0,24.0,100.0,740.41
740420.0,61.0,45.0,36.0,125.0,740.42
740430.0,61.0,45.0,36.0,124.0,740.43
740440.0,63.0,44.0,36.0,123.0,740.44
740450.0,62.0,43.0,33.0,117.0,740.45
740460.0,63.0,42.0,30.0,112.0,740.46
740470.0,65.0,42.0,27.0,105.0,740.47
740480.0,64.0,44.0,24.0,105.0,740.48
740490.0,64.0,45.0,30.0,111.0,740.49
740500.0,65.0,47.0,31.0,105.0,740.5
740510.0,66.0,46.0,36.0,102.0,740.51
740520.0,64.0,47.0,41.0,108.0,740.52
740530.0,67.0,46.0,44.0,105.0,740.53
740540.0,67.0,45.0,38.0,102.0,740.54
740550.0,66.0,46.0,34.0,99.0,740.55
740560.0,66.0,46.0,30.0,92.0,740.56
740570.0,65.0,48.0,34.0,88.0,740.57
740580.0,65.0,50.0,32.0,93.0,740.58
740590.0,66.0,49.0,30.0,91.0,740.59
740600.0,65.0,53.0,35.0,85.0,740.6
740610.0,67.0,50.0,39.0,88.0,740.61
740620.0,67.0,49.0,38.0,89.0,740.62
740630.0,67.0,48.0,34.0,82.0,740.63
740640.0,65.0,49.0,37.0,79.0,740.64
740651.0,66.0,50.0,34.0,82.0,740.651
740661.0,66.0,49.0,31.0,80.0,740.661
740671.0,66.0,50.0,33.0,82.0,740.671
740681.0,66.0,52.0,31.0,87.0,740.681
740691.0,67.0,52.0,27.0,87.0,740.691
740701.0,68.0,52.0,38.0,85.0,740.701
740711.0,69.0,53.0,37.0,86.0,740.711
740721.0,70.0,52.0,40.0,88.0,740.721
740731.0,70.0,52.0,38.0,86.0,740.731
740741.0,69.0,52.0,34.0,82.0,740.741
740751.0,68.0,52.0,32.0,85.0,740.751
740761.0,70.0,51.0,29.0,90.0,740.761
740771.0,70.0,50.0,28.0,92.0,740.771
740781.0,71.0,53.0,39.0,90.0,740.781
740791.0,71.0,51.0,37.0,88.0,740.791
740801.0,69.0,53.0,32.0,89.0,740.801
740811.0,66.0,54.0,29.0,91.0,740.811
740822.0,67.0,55.0,31.0,95.0,740.822
740832.0,66.0,56.0,37.0,97.0,740.832
740842.0,66.0,54.0,33.0,94.0,740.842
740852.0,65.0,55.0,32.0,93.0,740.852
740862.0,67.0,56.0,32.0,95.0,740.862
740872.0,67.0,55.0,27.0,93.0,740.872
740882.0,66.0,60.0,34.0,92.0,740.882
740892.0,67.0,61.0,31.0,98.0,740.892
740902.0,66.0,63.0,29.0,100.0,740.902
740912.0,67.0,61.0,29.0,96.0,740.912
740922.0,67.0,63.0,33.0,98.0,740.922
740932.0,67.0,61.0,31.0,91.0,740.932
740942.0,64.0,60.0,26.0,85.0,740.942
740952.0,63.0,61.0,25.0,84.0,740.952
740962.0,61.0,59.0,22.0,79.0,740.962
740972.0,61.0,62.0,35.0,83.0,740.972
740982.0,62.0,58.0,33.0,85.0,740.982
740992.0,61.0,57.0,30.0,89.0,740.992
741002.0,61.0,55.0,27.0,83.0,741.002
741012.0,60.0,55.0,24.0,87.0,741.012
741022.0,58.0,56.0,21.0,81.0,741.022
741032.0,57.0,54.0,26.0,87.0,741.032
741042.0,56.0,54.0,28.0,85.0,741.042
741052.0,57.0,53.0,28.0,88.0,741.052
741062.0,56.0,53.0,27.0,81.0,741.062
741072.0,58.0,52.0,24.0,77.0,741.072
741082.0,57.0,54.0,21.0,78.0,741.082
741092.0,57.0,54.0,29.0,73.0,741.092
741102.0,56.0,52.0,27.0,79.0,741.102
741112.0,57.0,51.0,23.0,78.0,741.112
741122.0,56.0,49.0,34.0,74.0,741.122
741132.0,56.0,49.0,29.0,73.0,741.132
741142.0,57.0,48.0,28.0,74.0,741.142
741152.0,56.0,51.0,39.0,69.0,741.152
741163.0,56.0,48.0,39.0,73.0,741.163
741173.0,55.0,46.0,36.0,74.0,741.173
741183.0,56.0,45.0,32.0,70.0,741.183
741193.0,56.0,44.0,31.0,74.0,741.193
741203.0,55.0,46.0,27.0,75.0,741.203
741213.0,57.0,44.0,26.0,72.0,741.213
741223.0,57.0,45.0,24.0,69.0,741.223
741233.0,56.0,46.0,23.0,74.0,741.233
741243.0,56.0,48.0,33.0,87.0,741.243
