time (ms),signal 0,signal 1,signal 2,signal3,time (sec)
787876.0,61.0,38.0,9.0,114.0,787.876
787886.0,63.0,38.0,9.0,111.0,787.886
787896.0,63.0,38.0,12.0,111.0,787.896
787906.0,63.0,37.0,12.0,106.0,787.906
787916.0,63.0,37.0,11.0,99.0,787.916
787926.0,60.0,38.0,12.0,98.0,787.926
787936.0,59.0,37.0,14.0,95.0,787.936
787946.0,58.0,36.0,13.0,94.0,787.946
787956.0,57.0,36.0,12.0,87.0,787.956
787966.0,56.0,36.0,11.0,91.0,787.966
787976.0,57.0,35.0,9.0,87.0,787.976
787986.0,56.0,35.0,11.0,90.0,787.986
787996.0,54.0,36.0,13.0,85.0,787.996
788006.0,54.0,36.0,15.0,78.0,788.006
788016.0,55.0,36.0,13.0,74.0,788.016
788026.0,53.0,36.0,12.0,68.0,788.026
788036.0,54.0,37.0,11.0,69.0,788.036
788046.0,52.0,38.0,10.0,71.0,788.046
788056.0,52.0,38.0,13.0,69.0,788.056
788066.0,52.0,39.0,11.0,83.0,788.066
788076.0,51.0,38.0,11.0,86.0,788.076
788086.0,52.0,39.0,10.0,94.0,788.086
788096.0,52.0,39.0,10.0,100.0,788.096
788106.0,52.0,39.0,10.0,101.0,788.106
788116.0,51.0,39.0,8.0,105.0,788.116
788126.0,50.0,40.0,8.0,104.0,788.126
788136.0,52.0,39.0,8.0,104.0,788.136
788146.0,51.0,39.0,8.0,110.0,788.146
788156.0,52.0,39.0,10.0,115.0,788.156
788166.0,51.0,41.0,9.0,111.0,788.166
788176.0,52.0,41.0,10.0,107.0,788.176
788186.0,50.0,40.0,8.0,100.0,788.186
788196.0,48.0,42.0,8.0,95.0,788.196
788206.0,49.0,43.0,8.0,90.0,788.206
788216.0,50.0,41.0,7.0,88.0,788.216
788226.0,52.0,41.0,7.0,88.0,788.226
788236.0,53.0,41.0,7.0,107.0,788.236
788246.0,56.0,41.0,9.0,109.0,788.246
788256.0,55.0,40.0,6.0,103.0,788.256
788267.0,55.0,41.0,12.0,95.0,788.267
788277.0,54.0,43.0,11.0,96.0,788.277
788287.0,56.0,42.0,11.0,94.0,788.287
788297.0,56.0,40.0,10.0,95.0,788.297
788307.0,53.0,39.0,12.0,101.0,788.307
788317.0,56.0,39.0,12.0,103.0,788.317
788327.0,55.0,38.0,9.0,99.0,788.327
788337.0,55.0,37.0,9.0,91.0,788.337
788347.0,54.0,36.0,8.0,87.0,788.347
788357.0,53.0,35.0,8.0,84.0,788.357
788367.0,52.0,36.0,10.0,89.0,788.367
788377.0,53.0,36.0,11.0,102.0,788.377
788387.0,53.0,34.0,11.0,98.0,788.387
788397.0,52.0,35.0,10.0,94.0,788.397
788407.0,55.0,36.0,15.0,89.0,788.407
788417.0,56.0,36.0,13.0,89.0,788.417
788427.0,55.0,36.0,11.0,82.0,788.427
788438.0,54.0,37.0,11.0,77.0,788.438
788448.0,53.0,39.0,13.0,84.0,788.448
788458.0,52.0,39.0,12.0,81.0,788.458
788468.0,53.0,38.0,10.0,86.0,788.468
788478.0,52.0,40.0,11.0,84.0,788.478
788488.0,54.0,39.0,10.0,83.0,788.488
788498.0,54.0,38.0,9.0,80.0,788.498
788508.0,54.0,38.0,9.0,89.0,788.508
788518.0,52.0,38.0,8.0,91.0,788.518
788528.0,53.0,39.0,8.0,91.0,788.528
788538.0,50.0,40.0,7.0,95.0,788.538
788548.0,50.0,39.0,7.0,93.0,788.548
788558.0,51.0,41.0,7.0,96.0,788.558
788568.0,51.0,39.0,6.0,92.0,788.568
788578.0,52.0,39.0,6.0,94.0,788.578
788588.0,51.0,41.0,6.0,90.0,788.588
788598.0,51.0,45.0,8.0,89.0,788.598
788608.0,52.0,45.0,6.0,85.0,788.608
788618.0,52.0,46.0,6.0,87.0,788.618
788628.0,53.0,47.0,5.0,94.0,788.628
788638.0,53.0,47.0,6.0,98.0,788.638
788648.0,53.0,46.0,8.0,97.0,788.648
788658.0,53.0,46.0,8.0,96.0,788.658
788668.0,53.0,45.0,8.0,98.0,788.668
788678.0,52.0,47.0,10.0,117.0,788.678
788688.0,54.0,46.0,12.0,126.0,788.688
788698.0,52.0,45.0,10.0,117.0,788.698
788708.0,51.0,45.0,9.0,114.0,788.708
788718.0,52.0,44.0,9.0,110.0,788.718
788728.0,52.0,43.0,8.0,114.0,788.728
788738.0,52.0,43.0,9.0,108.0,788.738
788748.0,50.0,43.0,8.0,106.0,788.748
788758.0,50.0,43.0,8.0,103.0,788.758
788768.0,51.0,42.0,8.0,98.0,788.768
788779.0,51.0,41.0,7.0,92.0,788.779
788789.0,51.0,39.0,7.0,87.0,788.789
788799.0,51.0,40.0,8.0,87.0,788.799
788809.0,52.0,39.0,7.0,81.0,788.809
788819.0,51.0,38.0,6.0,80.0,788.819
788829.0,50.0,38.0,7.0,74.0,788.829
788839.0,48.0,40.0,6.0,71.0,788.839
788849.0,48.0,39.0,7.0,68.0,788.849
788859.0,48.0,39.0,6.0,68.0,788.859
788869.0,47.0,40.0,5.0,65.0,788.869
788879.0,48.0,40.0,5.0,59.0,788.879
788889.0,46.0,42.0,7.0,59.0,788.889
788899.0,46.0,41.0,7.0,55.0,788.899
788909.0,46.0,44.0,7.0,52.0,788.909
788919.0,46.0,42.0,6.0,48.0,788.919
788929.0,45.0,44.0,6.0,50.0,788.929
788939.0,45.0,49.0,9.0,50.0,788.939
788950.0,47.0,50.0,9.0,50.0,788.95
788960.0,46.0,56.0,8.0,55.0,788.96
788970.0,46.0,57.0,8.0,61.0,788.97
788980.0,45.0,59.0,8.0,67.0,788.98
788990.0,45.0,60.0,9.0,62.0,788.99
789000.0,45.0,65.0,11.0,67.0,789.0
789010.0,46.0,66.0,10.0,67.0,789.01
789020.0,47.0,66.0,9.0,78.0,789.02
789030.0,46.0,68.0,8.0,76.0,789.03
789040.0,46.0,69.0,9.0,75.0,789.04
789050.0,47.0,71.0,11.0,74.0,789.05
789060.0,50.0,70.0,14.0,67.0,789.06
789070.0,50.0,73.0,21.0,65.0,789.07
789080.0,51.0,76.0,24.0,62.0,789.08
789090.0,54.0,72.0,28.0,65.0,789.09
789100.0,53.0,74.0,26.0,61.0,789.1
789110.0,56.0,78.0,24.0,64.0,789.11
789120.0,57.0,75.0,20.0,66.0,789.12
789130.0,57.0,72.0,19.0,64.0,789.13
789140.0,56.0,70.0,17.0,60.0,789.14
789150.0,55.0,70.0,20.0,61.0,789.15
789160.0,54.0,71.0,18.0,58.0,789.16
789170.0,55.0,73.0,16.0,57.0,789.17
789180.0,56.0,69.0,15.0,58.0,789.18
789190.0,55.0,74.0,13.0,59.0,789.19
789200.0,57.0,73.0,14.0,58.0,789.2
789210.0,56.0,74.0,22.0,60.0,789.21
789220.0,55.0,70.0,21.0,61.0,789.22
789230.0,54.0,69.0,22.0,57.0,789.23
789240.0,54.0,66.0,20.0,63.0,789.24
789250.0,55.0,67.0,19.0,61.0,789.25
789260.0,56.0,73.0,17.0,64.0,789.26
789270.0,56.0,70.0,18.0,62.0,789.27
789280.0,57.0,67.0,16.0,65.0,789.28
789291.0,57.0,69.0,15.0,67.0,789.291
789301.0,57.0,69.0,16.0,66.0,789.301
789311.0,58.0,72.0,14.0,64.0,789.311
789321.0,58.0,68.0,13.0,65.0,789.321
789331.0,58.0,68.0,12.0,64.0,789.331
789341.0,58.0,68.0,13.0,60.0,789.341
789351.0,58.0,67.0,13.0,59.0,789.351
789361.0,59.0,65.0,12.0,55.0,789.361
789371.0,59.0,64.0,12.0,55.0,789.371
789381.0,56.0,62.0,9.0,57.0,789.381
789391.0,56.0,61.0,10.0,56.0,789.391
789401.0,55.0,62.0,9.0,54.0,789.401
789411.0,55.0,62.0,9.0,50.0,789.411
789421.0,53.0,63.0,9.0,47.0,789.421
789431.0,56.0,68.0,9.0,47.0,789.431
789441.0,55.0,64.0,9.0,47.0,789.441
789451.0,52.0,64.0,6.0,47.0,789.451
789462.0,51.0,60.0,7.0,47.0,789.462
789472.0,50.0,62.0,7.0,50.0,789.472
789482.0,49.0,60.0,6.0,46.0,789.482
789492.0,47.0,57.0,5.0,46.0,789.492
789502.0,47.0,56.0,7.0,48.0,789.502
789512.0,46.0,56.0,8.0,47.0,789.512
789522.0,46.0,56.0,7.0,45.0,789.522
789532.0,45.0,56.0,8.0,43.0,789.532
789542.0,47.0,59.0,8.0,45.0,789.542
789552.0,47.0,58.0,7.0,45.0,789.552
789562.0,47.0,59.0,15.0,44.0,789.562
789572.0,47.0,58.0,16.0,45.0,789.572
789582.0,46.0,57.0,14.0,43.0,789.582
789592.0,48.0,59.0,13.0,43.0,789.592
789602.0,48.0,56.0,12.0,44.0,789.602
789612.0,48.0,57.0,11.0,44.0,789.612
789622.0,47.0,54.0,11.0,42.0,789.622
789632.0,46.0,55.0,9.0,42.0,789.632
789642.0,46.0,53.0,9.0,44.0,789.642
789652.0,46.0,52.0,14.0,46.0,789.652
789662.0,46.0,51.0,12.0,45.0,789.662
789672.0,45.0,52.0,11.0,44.0,789.672
789682.0,47.0,56.0,10.0,45.0,789.682
789692.0,47.0,56.0,10.0,44.0,789.692
789702.0,48.0,58.0,9.0,43.0,789.702
789712.0,49.0,60.0,12.0,41.0,789.712
789722.0,48.0,60.0,16.0,41.0,789.722
789732.0,50.0,61.0,16.0,47.0,789.732
789742.0,50.0,56.0,14.0,45.0,789.742
789752.0,50.0,57.0,13.0,43.0,789.752
789762.0,49.0,58.0,13.0,43.0,789.762
789772.0,49.0,57.0,12.0,45.0,789.772
789782.0,49.0,56.0,13.0,44.0,789.782
789792.0,48.0,54.0,16.0,44.0,789.792
789803.0,47.0,53.0,18.0,45.0,789.803
789813.0,47.0,51.0,22.0,43.0,789.813
789823.0,48.0,52.0,21.0,49.0,789.823
789833.0,48.0,50.0,19.0,48.0,789.833
789843.0,48.0,52.0,17.0,49.0,789.843
789853.0,48.0,56.0,18.0,46.0,789.853
789863.0,49.0,56.0,16.0,45.0,789.863
789873.0,48.0,54.0,14.0,45.0,789.873
789883.0,49.0,53.0,13.0,44.0,789.883
789893.0,49.0,51.0,11.0,41.0,789.893
789903.0,50.0,49.0,13.0,42.0,789.903
789913.0,49.0,50.0,10.0,42.0,789.913
789923.0,49.0,49.0,11.0,41.0,789.923
789933.0,49.0,47.0,9.0,41.0,789.933
789943.0,47.0,48.0,9.0,39.0,789.943
789953.0,48.0,47.0,10.0,37.0,789.953
789963.0,48.0,48.0,9.0,37.0,789.963
789974.0,48.0,52.0,9.0,36.0,789.974
789984.0,47.0,56.0,7.0,35.0,789.984
789994.0,47.0,56.0,8.0,36.0,789.994
790004.0,49.0,55.0,8.0,36.0,790.004
790014.0,50.0,53.0,9.0,36.0,790.014
790024.0,51.0,52.0,8.0,37.0,790.024
790034.0,51.0,52.0,8.0,35.0,790.034
790044.0,53.0,53.0,8.0,35.0,790.044
790054.0,52.0,52.0,7.0,39.0,790.054
790064.0,53.0,51.0,11.0,40.0,790.064
790074.0,52.0,49.0,12.0,39.0,790.074
790084.0,53.0,48.0,11.0,38.0,790.084
790094.0,53.0,47.0,11.0,42.0,790.094
790104.0,52.0,47.0,10.0,40.0,790.104
790114.0,54.0,46.0,9.0,38.0,790.114
790124.0,54.0,51.0,9.0,39.0,790.124
790134.0,53.0,49.0,12.0,38.0,790.134
790144.0,53.0,52.0,9.0,36.0,790.144
790154.0,53.0,50.0,10.0,35.0,790.154
790164.0,52.0,48.0,9.0,38.0,790.164
790174.0,51.0,48.0,10.0,41.0,790.174
790184.0,51.0,46.0,11.0,40.0,790.184
790194.0,51.0,46.0,10.0,43.0,790.194
790204.0,52.0,43.0,10.0,41.0,790.204
790214.0,53.0,43.0,10.0,39.0,790.214
790224.0,52.0,43.0,12.0,40.0,790.224
790234.0,55.0,43.0,10.0,38.0,790.234
790244.0,54.0,46.0,10.0,39.0,790.244
790254.0,57.0,42.0,10.0,40.0,790.254
790264.0,56.0,50.0,9.0,43.0,790.264
790274.0,59.0,51.0,9.0,41.0,790.274
790284.0,59.0,50.0,8.0,39.0,790.284
790294.0,56.0,51.0,9.0,39.0,790.294
790304.0,60.0,50.0,8.0,38.0,790.304
790315.0,59.0,51.0,9.0,39.0,790.315
790325.0,61.0,50.0,8.0,39.0,790.325
790335.0,61.0,49.0,8.0,39.0,790.335
790345.0,61.0,47.0,9.0,42.0,790.345
790355.0,58.0,47.0,7.0,42.0,790.355
790365.0,57.0,49.0,7.0,44.0,790.365
790375.0,56.0,49.0,11.0,43.0,790.375
790385.0,56.0,51.0,11.0,43.0,790.385
790395.0,56.0,52.0,10.0,43.0,790.395
790405.0,54.0,53.0,9.0,42.0,790.405
790415.0,54.0,48.0,8.0,42.0,790.415
790425.0,54.0,50.0,9.0,46.0,790.425
790435.0,56.0,52.0,12.0,45.0,790.435
790445.0,54.0,49.0,9.0,44.0,790.445
790455.0,53.0,49.0,9.0,43.0,790.455
790465.0,53.0,46.0,11.0,44.0,790.465
790475.0,50.0,45.0,9.0,41.0,790.475
790486.0,50.0,45.0,15.0,41.0,790.486
790496.0,50.0,45.0,13.0,41.0,790.496
790506.0,49.0,48.0,11.0,39.0,790.506
790516.0,50.0,47.0,11.0,38.0,790.516
790526.0,49.0,48.0,11.0,38.0,790.526
790536.0,49.0,49.0,10.0,38.0,790.536
790546.0,50.0,48.0,11.0,40.0,790.546
790556.0,50.0,48.0,10.0,40.0,790.556
790566.0,50.0,49.0,10.0,40.0,790.566
790576.0,50.0,50.0,9.0,38.0,790.576
790586.0,51.0,48.0,9.0,36.0,790.586
790596.0,50.0,47.0,9.0,39.0,790.596
790606.0,50.0,47.0,12.0,39.0,790.606
790616.0,50.0,45.0,11.0,36.0,790.616
790626.0,51.0,46.0,11.0,35.0,790.626
790636.0,49.0,47.0,10.0,35.0,790.636
790646.0,48.0,47.0,9.0,33.0,790.646
790656.0,48.0,49.0,8.0,33.0,790.656
790666.0,48.0,49.0,8.0,32.0,790.666
790676.0,47.0,46.0,8.0,33.0,790.676
790686.0,46.0,46.0,12.0,34.0,790.686
790696.0,47.0,45.0,13.0,37.0,790.696
790706.0,46.0,43.0,10.0,36.0,790.706
790716.0,45.0,43.0,10.0,36.0,790.716
790726.0,46.0,42.0,9.0,34.0,790.726
790736.0,47.0,42.0,8.0,32.0,790.736
790746.0,47.0,41.0,8.0,32.0,790.746
790756.0,48.0,42.0,7.0,32.0,790.756
790766.0,48.0,42.0,9.0,35.0,790.766
790776.0,48.0,45.0,8.0,35.0,790.776
790786.0,48.0,47.0,7.0,35.0,790.786
790796.0,48.0,46.0,8.0,35.0,790.796
790806.0,48.0,47.0,7.0,33.0,790.806
790816.0,50.0,46.0,7.0,32.0,790.816
790827.0,49.0,47.0,5.0,32.0,790.827
790837.0,49.0,46.0,6.0,32.0,790.837
790847.0,48.0,46.0,4.0,34.0,790.847
790857.0,46.0,48.0,7.0,36.0,790.857
790867.0,46.0,47.0,9.0,37.0,790.867
790877.0,47.0,46.0,11.0,38.0,790.877
790887.0,48.0,46.0,10.0,36.0,790.887
790897.0,47.0,48.0,9.0,35.0,790.897
790907.0,47.0,49.0,9.0,35.0,790.907
790917.0,47.0,52.0,8.0,38.0,790.917
790927.0,47.0,52.0,9.0,40.0,790.927
790937.0,47.0,51.0,7.0,39.0,790.937
790947.0,47.0,50.0,8.0,38.0,790.947
790957.0,48.0,48.0,8.0,36.0,790.957
790967.0,47.0,49.0,12.0,36.0,790.967
790977.0,47.0,49.0,11.0,33.0,790.977
790987.0,47.0,49.0,8.0,34.0,790.987
790998.0,46.0,51.0,9.0,33.0,790.998
791008.0,47.0,50.0,8.0,35.0,791.008
791018.0,47.0,50.0,7.0,34.0,791.018
791028.0,48.0,48.0,7.0,36.0,791.028
791038.0,48.0,48.0,5.0,38.0,791.038
791048.0,50.0,51.0,8.0,39.0,791.048
791058.0,48.0,50.0,8.0,40.0,791.058
791068.0,50.0,49.0,9.0,41.0,791.068
791078.0,51.0,47.0,8.0,39.0,791.078
791088.0,51.0,48.0,8.0,38.0,791.088
791098.0,52.0,46.0,7.0,39.0,791.098
791108.0,52.0,45.0,7.0,41.0,791.108
791118.0,53.0,44.0,9.0,40.0,791.118
791128.0,55.0,43.0,6.0,39.0,791.128
791138.0,54.0,42.0,6.0,39.0,791.138
791148.0,56.0,43.0,7.0,39.0,791.148
791158.0,54.0,44.0,12.0,40.0,791.158
791168.0,57.0,43.0,13.0,41.0,791.168
791178.0,57.0,42.0,11.0,38.0,791.178
791188.0,61.0,46.0,11.0,36.0,791.188
791198.0,60.0,44.0,8.0,37.0,791.198
791208.0,63.0,43.0,9.0,35.0,791.208
791218.0,64.0,45.0,8.0,35.0,791.218
791228.0,63.0,44.0,9.0,33.0,791.228
791238.0,63.0,44.0,11.0,33.0,791.238
791248.0,65.0,44.0,12.0,33.0,791.248
791258.0,65.0,42.0,10.0,35.0,791.258
791268.0,65.0,42.0,8.0,37.0,791.268
791278.0,65.0,41.0,9.0,36.0,791.278
791288.0,67.0,41.0,8.0,37.0,791.288
791298.0,66.0,41.0,8.0,36.0,791.298
791308.0,68.0,41.0,7.0,34.0,791.308
791318.0,68.0,41.0,7.0,35.0,791.318
791328.0,68.0,41.0,13.0,35.0,791.328
791339.0,67.0,42.0,10.0,37.0,791.339
791349.0,66.0,42.0,12.0,41.0,791.349
791359.0,66.0,45.0,10.0,43.0,791.359
791369.0,67.0,46.0,9.0,41.0,791.369
791379.0,66.0,44.0,8.0,40.0,791.379
791389.0,64.0,43.0,8.0,38.0,791.389
791399.0,65.0,42.0,9.0,38.0,791.399
791409.0,62.0,41.0,6.0,36.0,791.409
791419.0,61.0,42.0,11.0,37.0,791.419
791429.0,61.0,41.0,14.0,36.0,791.429
791439.0,60.0,42.0,13.0,36.0,791.439
791449.0,62.0,42.0,11.0,36.0,791.449
791459.0,61.0,42.0,11.0,35.0,791.459
791469.0,61.0,44.0,10.0,34.0,791.469
791479.0,62.0,43.0,8.0,34.0,791.479
791489.0,59.0,45.0,8.0,32.0,791.489
791499.0,58.0,49.0,16.0,36.0,791.499
791510.0,57.0,50.0,17.0,34.0,791.51
791520.0,58.0,49.0,14.0,34.0,791.52
791530.0,56.0,50.0,13.0,33.0,791.53
791540.0,56.0,48.0,13.0,31.0,791.54
791550.0,56.0,46.0,10.0,31.0,791.55
791560.0,57.0,47.0,11.0,31.0,791.56
791570.0,57.0,47.0,9.0,31.0,791.57
791580.0,57.0,47.0,9.0,30.0,791.58
791590.0,56.0,46.0,14.0,36.0,791.59
791600.0,56.0,45.0,15.0,37.0,791.6
791610.0,58.0,45.0,17.0,35.0,791.61
791620.0,58.0,43.0,14.0,35.0,791.62
791630.0,58.0,42.0,13.0,33.0,791.63
791640.0,60.0,46.0,13.0,33.0,791.64
791650.0,59.0,45.0,12.0,32.0,791.65
791660.0,60.0,46.0,11.0,32.0,791.66
791670.0,60.0,46.0,11.0,33.0,791.67
791680.0,59.0,46.0,14.0,36.0,791.68
791690.0,58.0,47.0,16.0,36.0,791.69
791700.0,58.0,45.0,16.0,35.0,791.7
791710.0,58.0,44.0,14.0,35.0,791.71
791720.0,58.0,43.0,13.0,33.0,791.72
791730.0,58.0,43.0,12.0,33.0,791.73
791740.0,59.0,41.0,10.0,34.0,791.74
791750.0,59.0,41.0,14.0,34.0,791.75
791760.0,58.0,42.0,14.0,37.0,791.76
791770.0,60.0,42.0,14.0,35.0,791.77
791780.0,60.0,41.0,11.0,36.0,791.78
791790.0,59.0,41.0,10.0,36.0,791.79
791800.0,60.0,41.0,9.0,39.0,791.8
791810.0,59.0,41.0,9.0,37.0,791.81
791820.0,60.0,41.0,9.0,37.0,791.82
791830.0,58.0,42.0,7.0,39.0,791.83
791840.0,58.0,41.0,8.0,40.0,791.84
791851.0,58.0,42.0,8.0,39.0,791.851
791861.0,58.0,40.0,8.0,36.0,791.861
791871.0,57.0,40.0,7.0,35.0,791.871
791881.0,57.0,40.0,7.0,34.0,791.881
791891.0,58.0,40.0,7.0,35.0,791.891
791901.0,57.0,41.0,6.0,34.0,791.901
791911.0,56.0,41.0,9.0,33.0,791.911
791921.0,55.0,40.0,7.0,37.0,791.921
791931.0,55.0,39.0,7.0,35.0,791.931
791941.0,56.0,39.0,6.0,36.0,791.941
791951.0,56.0,42.0,7.0,35.0,791.951
791961.0,58.0,42.0,8.0,34.0,791.961
791971.0,56.0,42.0,6.0,34.0,791.971
791981.0,58.0,42.0,6.0,33.0,791.981
791991.0,58.0,47.0,6.0,34.0,791.991
792001.0,57.0,46.0,5.0,32.0,792.001
792011.0,56.0,48.0,7.0,33.0,792.011
792022.0,55.0,48.0,6.0,35.0,792.022
792032.0,56.0,48.0,6.0,33.0,792.032
792042.0,54.0,49.0,5.0,34.0,792.042
792052.0,54.0,50.0,6.0,33.0,792.052
792062.0,53.0,52.0,5.0,35.0,792.062
792072.0,53.0,51.0,5.0,34.0,792.072
792082.0,51.0,51.0,9.0,34.0,792.082
792092.0,50.0,51.0,9.0,35.0,792.092
792102.0,51.0,54.0,9.0,41.0,792.102
792112.0,52.0,54.0,7.0,43.0,792.112
792122.0,51.0,51.0,8.0,45.0,792.122
792132.0,49.0,50.0,7.0,53.0,792.132
792142.0,49.0,49.0,8.0,60.0,792.142
792152.0,48.0,55.0,10.0,127.0,792.152
792162.0,56.0,63.0,25.0,126.0,792.162
792172.0,61.0,65.0,28.0,171.0,792.172
792182.0,65.0,67.0,45.0,219.0,792.182
792192.0,71.0,69.0,50.0,228.0,792.192
792202.0,78.0,74.0,66.0,251.0,792.202
792212.0,80.0,72.0,90.0,295.0,792.212
792222.0,82.0,70.0,100.0,322.0,792.222
792232.0,80.0,68.0,107.0,310.0,792.232
792242.0,79.0,64.0,98.0,319.0,792.242
792252.0,79.0,62.0,96.0,310.0,792.252
792262.0,78.0,61.0,90.0,320.0,792.262
792272.0,80.0,63.0,91.0,355.0,792.272
792282.0,82.0,67.0,108.0,399.0,792.282
792292.0,80.0,68.0,113.0,385.0,792.292
792302.0,79.0,70.0,111.0,372.0,792.302
792312.0,79.0,70.0,111.0,337.0,792.312
792322.0,77.0,69.0,105.0,369.0,792.322
792332.0,84.0,71.0,109.0,371.0,792.332
792342.0,88.0,77.0,111.0,355.0,792.342
792352.0,87.0,76.0,116.0,332.0,792.352
792363.0,84.0,74.0,130.0,358.0,792.363
792373.0,85.0,75.0,133.0,347.0,792.373
792383.0,85.0,75.0,125.0,333.0,792.383
792393.0,82.0,71.0,111.0,317.0,792.393
792403.0,82.0,71.0,106.0,288.0,792.403
792413.0,82.0,70.0,100.0,284.0,792.413
792423.0,80.0,67.0,94.0,268.0,792.423
792433.0,79.0,65.0,90.0,256.0,792.433
792443.0,78.0,65.0,98.0,240.0,792.443
792453.0,78.0,65.0,91.0,240.0,792.453
792463.0,74.0,62.0,87.0,241.0,792.463
792473.0,74.0,60.0,80.0,230.0,792.473
792483.0,74.0,59.0,74.0,210.0,792.483
792493.0,72.0,54.0,69.0,204.0,792.493
792503.0,71.0,56.0,67.0,200.0,792.503
792513.0,69.0,54.0,76.0,188.0,792.513
792523.0,70.0,53.0,77.0,179.0,792.523
792534.0,71.0,51.0,75.0,178.0,792.534
792544.0,73.0,51.0,74.0,172.0,792.544
792554.0,72.0,53.0,71.0,177.0,792.554
792564.0,70.0,50.0,72.0,175.0,792.564
792574.0,75.0,50.0,74.0,175.0,792.574
792584.0,76.0,48.0,69.0,166.0,792.584
792594.0,76.0,48.0,66.0,165.0,792.594
792604.0,74.0,52.0,70.0,176.0,792.604
792614.0,74.0,49.0,72.0,181.0,792.614
792624.0,73.0,49.0,78.0,170.0,792.624
792634.0,71.0,50.0,72.0,170.0,792.634
792644.0,73.0,48.0,66.0,172.0,792.644
792654.0,73.0,50.0,59.0,158.0,792.654
792664.0,73.0,51.0,58.0,156.0,792.664
792674.0,70.0,52.0,54.0,151.0,792.674
792684.0,68.0,53.0,53.0,150.0,792.684
792694.0,68.0,52.0,46.0,144.0,792.694
792704.0,66.0,53.0,44.0,140.0,792.704
792714.0,65.0,53.0,48.0,133.0,792.714
792724.0,71.0,56.0,62.0,158.0,792.724
792734.0,74.0,53.0,56.0,155.0,792.734
792744.0,73.0,52.0,50.0,149.0,792.744
792754.0,73.0,51.0,44.0,135.0,792.754
792764.0,71.0,52.0,43.0,133.0,792.764
792774.0,71.0,52.0,39.0,138.0,792.774
792784.0,71.0,51.0,36.0,132.0,792.784
792794.0,69.0,52.0,33.0,123.0,792.794
792804.0,70.0,53.0,33.0,115.0,792.804
792814.0,68.0,56.0,40.0,122.0,792.814
792824.0,70.0,56.0,37.0,134.0,792.824
792834.0,70.0,57.0,33.0,135.0,792.834
792844.0,69.0,56.0,30.0,126.0,792.844
792854.0,67.0,61.0,28.0,115.0,792.854
792864.0,65.0,61.0,33.0,109.0,792.864
792875.0,65.0,61.0,31.0,105.0,792.875
792885.0,62.0,64.0,28.0,102.0,792.885
792895.0,61.0,65.0,32.0,97.0,792.895
792905.0,60.0,66.0,29.0,113.0,792.905
792915.0,59.0,68.0,29.0,118.0,792.915
792925.0,59.0,66.0,26.0,114.0,792.925
792935.0,59.0,66.0,24.0,105.0,792.935
792945.0,58.0,67.0,24.0,99.0,792.945
792955.0,58.0,66.0,28.0,94.0,792.955
792965.0,57.0,67.0,28.0,98.0,792.965
792975.0,57.0,65.0,24.0,91.0,792.975
792985.0,57.0,64.0,22.0,95.0,792.985
792995.0,57.0,62.0,19.0,95.0,792.995
793005.0,55.0,63.0,18.0,95.0,793.005
793015.0,54.0,63.0,17.0,94.0,793.015
793025.0,52.0,64.0,14.0,105.0,793.025
793035.0,54.0,63.0,14.0,104.0,793.035
793046.0,53.0,65.0,13.0,96.0,793.046
793056.0,53.0,64.0,12.0,88.0,793.056
793066.0,53.0,65.0,11.0,91.0,793.066
793076.0,52.0,70.0,16.0,100.0,793.076
793086.0,53.0,69.0,18.0,114.0,793.086
793096.0,52.0,71.0,22.0,114.0,793.096
793106.0,55.0,69.0,19.0,110.0,793.106
793116.0,56.0,72.0,17.0,117.0,793.116
793126.0,57.0,72.0,15.0,108.0,793.126
793136.0,57.0,72.0,13.0,104.0,793.136
793146.0,58.0,72.0,13.0,98.0,793.146
793156.0,58.0,72.0,11.0,92.0,793.156
793166.0,58.0,74.0,11.0,91.0,793.166
793176.0,60.0,75.0,15.0,97.0,793.176
793186.0,59.0,76.0,17.0,101.0,793.186
793196.0,59.0,74.0,18.0,96.0,793.196
793206.0,58.0,77.0,29.0,102.0,793.206
793216.0,61.0,74.0,36.0,109.0,793.216
793226.0,61.0,73.0,32.0,103.0,793.226
793236.0,60.0,73.0,28.0,102.0,793.236
793246.0,61.0,71.0,26.0,104.0,793.246
793256.0,59.0,72.0,23.0,109.0,793.256
793266.0,59.0,68.0,21.0,100.0,793.266
793276.0,58.0,67.0,18.0,94.0,793.276
793286.0,57.0,67.0,17.0,91.0,793.286
793296.0,58.0,65.0,14.0,86.0,793.296
793306.0,56.0,66.0,17.0,88.0,793.306
793316.0,56.0,65.0,18.0,91.0,793.316
793326.0,56.0,67.0,15.0,89.0,793.326
793336.0,55.0,66.0,15.0,86.0,793.336
793346.0,56.0,67.0,15.0,94.0,793.346
793356.0,56.0,65.0,14.0,88.0,793.356
793366.0,58.0,65.0,13.0,81.0,793.366
793376.0,58.0,65.0,12.0,74.0,793.376
793387.0,59.0,67.0,13.0,79.0,793.387
793397.0,61.0,66.0,14.0,78.0,793.397
793407.0,62.0,64.0,12.0,76.0,793.407
793417.0,63.0,62.0,11.0,77.0,793.417
793427.0,63.0,62.0,11.0,73.0,793.427
793437.0,62.0,62.0,9.0,69.0,793.437
793447.0,62.0,60.0,10.0,66.0,793.447
793457.0,61.0,59.0,10.0,79.0,793.457
793467.0,61.0,59.0,16.0,87.0,793.467
793477.0,61.0,56.0,15.0,88.0,793.477
793487.0,60.0,54.0,13.0,84.0,793.487
793497.0,59.0,53.0,13.0,88.0,793.497
793507.0,59.0,50.0,12.0,91.0,793.507
793517.0,57.0,49.0,11.0,87.0,793.517
793527.0,55.0,48.0,9.0,86.0,793.527
793537.0,54.0,49.0,9.0,88.0,793.537
793547.0,53.0,49.0,10.0,82.0,793.547
793558.0,51.0,49.0,8.0,84.0,793.558
793568.0,50.0,50.0,12.0,82.0,793.568
793578.0,49.0,49.0,10.0,82.0,793.578
793588.0,48.0,48.0,8.0,78.0,793.588
793598.0,48.0,47.0,9.0,72.0,793.598
793608.0,48.0,48.0,8.0,68.0,793.608
793618.0,48.0,47.0,7.0,64.0,793.618
793628.0,47.0,47.0,7.0,64.0,793.628
793638.0,48.0,48.0,7.0,64.0,793.638
793648.0,48.0,48.0,6.0,66.0,793.648
793658.0,46.0,48.0,6.0,64.0,793.658
793668.0,47.0,47.0,8.0,69.0,793.668
793678.0,47.0,47.0,7.0,79.0,793.678
793688.0,48.0,45.0,7.0,78.0,793.688
793698.0,48.0,44.0,6.0,74.0,793.698
793708.0,48.0,44.0,13.0,77.0,793.708
793718.0,49.0,43.0,10.0,73.0,793.718
793728.0,48.0,42.0,10.0,71.0,793.728
793738.0,48.0,41.0,10.0,69.0,793.738
793748.0,48.0,42.0,8.0,71.0,793.748
793758.0,48.0,40.0,9.0,70.0,793.758
793768.0,49.0,39.0,10.0,75.0,793.768
793778.0,49.0,40.0,14.0,70.0,793.778
793788.0,50.0,39.0,12.0,68.0,793.788
793798.0,50.0,39.0,12.0,69.0,793.798
793808.0,49.0,39.0,12.0,77.0,793.808
793818.0,48.0,42.0,10.0,81.0,793.818
793828.0,49.0,44.0,10.0,78.0,793.828
793838.0,49.0,46.0,9.0,74.0,793.838
793848.0,50.0,48.0,9.0,76.0,793.848
793858.0,49.0,49.0,8.0,76.0,793.858
793868.0,50.0,49.0,7.0,75.0,793.868
793878.0,50.0,49.0,7.0,75.0,793.878
793888.0,51.0,50.0,7.0,78.0,793.888
793899.0,52.0,46.0,6.0,78.0,793.899
793909.0,53.0,47.0,6.0,77.0,793.909
793919.0,53.0,48.0,14.0,75.0,793.919
793929.0,54.0,46.0,11.0,70.0,793.929
793939.0,54.0,46.0,11.0,66.0,793.939
793949.0,54.0,45.0,9.0,62.0,793.949
793959.0,54.0,44.0,10.0,59.0,793.959
793969.0,55.0,42.0,9.0,58.0,793.969
793979.0,56.0,43.0,8.0,56.0,793.979
793989.0,57.0,42.0,8.0,53.0,793.989
793999.0,57.0,42.0,6.0,53.0,793.999
794009.0,57.0,43.0,6.0,60.0,794.009
794019.0,58.0,44.0,6.0,59.0,794.019
794029.0,58.0,45.0,6.0,56.0,794.029
794039.0,59.0,44.0,7.0,58.0,794.039
794049.0,60.0,43.0,5.0,57.0,794.049
794059.0,61.0,42.0,7.0,55.0,794.059
794070.0,61.0,42.0,7.0,54.0,794.07
794080.0,61.0,40.0,7.0,52.0,794.08
794090.0,60.0,40.0,6.0,52.0,794.09
794100.0,58.0,41.0,6.0,54.0,794.1
794110.0,58.0,40.0,6.0,59.0,794.11
794120.0,57.0,41.0,5.0,73.0,794.12
794130.0,55.0,43.0,8.0,67.0,794.13
794140.0,56.0,41.0,6.0,70.0,794.14
794150.0,57.0,41.0,8.0,72.0,794.15
794160.0,57.0,42.0,7.0,71.0,794.16
794170.0,57.0,43.0,10.0,70.0,794.17
794180.0,58.0,42.0,12.0,78.0,794.18
794190.0,57.0,42.0,9.0,82.0,794.19
794200.0,57.0,42.0,10.0,77.0,794.2
794210.0,56.0,42.0,10.0,78.0,794.21
794220.0,55.0,43.0,9.0,75.0,794.22
794230.0,55.0,44.0,8.0,73.0,794.23
794240.0,54.0,45.0,10.0,69.0,794.24
794250.0,55.0,44.0,9.0,66.0,794.25
794260.0,53.0,44.0,8.0,68.0,794.26
794270.0,55.0,44.0,9.0,67.0,794.27
794280.0,54.0,43.0,8.0,66.0,794.28
794290.0,54.0,45.0,7.0,65.0,794.29
794300.0,53.0,46.0,7.0,71.0,794.3
794310.0,51.0,48.0,9.0,74.0,794.31
794320.0,51.0,48.0,8.0,76.0,794.32
794330.0,51.0,49.0,9.0,77.0,794.33
794340.0,53.0,50.0,8.0,73.0,794.34
794350.0,54.0,49.0,7.0,70.0,794.35
794360.0,55.0,49.0,7.0,73.0,794.36
794370.0,54.0,49.0,8.0,70.0,794.37
794380.0,54.0,49.0,8.0,66.0,794.38
794390.0,54.0,50.0,14.0,62.0,794.39
794400.0,52.0,49.0,12.0,62.0,794.4
794411.0,53.0,48.0,13.0,67.0,794.411
794421.0,52.0,48.0,10.0,72.0,794.421
794431.0,51.0,48.0,12.0,69.0,794.431
794441.0,52.0,47.0,12.0,66.0,794.441
794451.0,52.0,47.0,14.0,67.0,794.451
794461.0,53.0,45.0,13.0,63.0,794.461
794471.0,53.0,45.0,11.0,61.0,794.471
794481.0,54.0,45.0,12.0,63.0,794.481
794491.0,52.0,45.0,10.0,61.0,794.491
794501.0,54.0,44.0,10.0,59.0,794.501
794511.0,55.0,44.0,8.0,64.0,794.511
794521.0,53.0,46.0,8.0,64.0,794.521
794531.0,54.0,45.0,9.0,61.0,794.531
794541.0,53.0,47.0,8.0,58.0,794.541
794551.0,55.0,49.0,11.0,64.0,794.551
794561.0,56.0,48.0,10.0,76.0,794.561
794571.0,57.0,48.0,11.0,69.0,794.571
794582.0,59.0,47.0,14.0,76.0,794.582
794592.0,61.0,49.0,13.0,73.0,794.592
794602.0,62.0,48.0,12.0,74.0,794.602
794612.0,62.0,47.0,11.0,70.0,794.612
794622.0,64.0,48.0,12.0,69.0,794.622
794632.0,64.0,48.0,9.0,72.0,794.632
794642.0,65.0,47.0,11.0,73.0,794.642
794652.0,65.0,47.0,8.0,77.0,794.652
794662.0,64.0,48.0,8.0,72.0,794.662
794672.0,65.0,48.0,8.0,68.0,794.672
794682.0,65.0,47.0,8.0,64.0,794.682
794692.0,65.0,47.0,9.0,70.0,794.692
794702.0,63.0,48.0,7.0,76.0,794.702
794712.0,62.0,47.0,7.0,69.0,794.712
794722.0,63.0,46.0,7.0,69.0,794.722
794732.0,61.0,47.0,7.0,74.0,794.732
794742.0,60.0,47.0,7.0,74.0,794.742
794752.0,59.0,47.0,9.0,74.0,794.752
794762.0,60.0,46.0,11.0,72.0,794.762
794772.0,59.0,46.0,8.0,75.0,794.772
794782.0,59.0,46.0,8.0,75.0,794.782
794792.0,59.0,47.0,8.0,75.0,794.792
794802.0,59.0,49.0,9.0,71.0,794.802
794812.0,59.0,48.0,9.0,68.0,794.812
794822.0,59.0,48.0,8.0,64.0,794.822
794832.0,58.0,48.0,9.0,70.0,794.832
794842.0,58.0,49.0,8.0,69.0,794.842
794852.0,57.0,50.0,7.0,68.0,794.852
794862.0,55.0,52.0,7.0,71.0,794.862
794872.0,56.0,52.0,6.0,66.0,794.872
794882.0,55.0,52.0,7.0,63.0,794.882
794892.0,55.0,52.0,8.0,60.0,794.892
794902.0,56.0,54.0,7.0,59.0,794.902
794912.0,55.0,54.0,6.0,56.0,794.912
794923.0,56.0,54.0,7.0,59.0,794.923
794933.0,57.0,55.0,8.0,60.0,794.933
794943.0,56.0,56.0,7.0,61.0,794.943
794953.0,56.0,56.0,7.0,64.0,794.953
794963.0,56.0,56.0,7.0,63.0,794.963
794973.0,57.0,58.0,8.0,72.0,794.973
794983.0,56.0,59.0,6.0,69.0,794.983
794993.0,58.0,59.0,7.0,64.0,794.993
795003.0,57.0,61.0,7.0,63.0,795.003
795013.0,58.0,61.0,6.0,62.0,795.013
795023.0,57.0,60.0,7.0,60.0,795.023
795033.0,59.0,61.0,6.0,59.0,795.033
795043.0,60.0,62.0,6.0,57.0,795.043
795053.0,58.0,64.0,6.0,62.0,795.053
795063.0,60.0,61.0,7.0,60.0,795.063
795073.0,60.0,64.0,7.0,61.0,795.073
795083.0,59.0,64.0,6.0,61.0,795.083
795094.0,60.0,63.0,6.0,58.0,795.094
795104.0,59.0,66.0,5.0,57.0,795.104
795114.0,61.0,66.0,6.0,55.0,795.114
795124.0,60.0,67.0,6.0,58.0,795.124
795134.0,60.0,65.0,6.0,58.0,795.134
795144.0,60.0,67.0,7.0,58.0,795.144
795154.0,61.0,68.0,6.0,56.0,795.154
795164.0,62.0,67.0,6.0,53.0,795.164
795174.0,64.0,68.0,5.0,53.0,795.174
795184.0,65.0,69.0,6.0,56.0,795.184
795194.0,62.0,72.0,8.0,58.0,795.194
795204.0,62.0,72.0,7.0,64.0,795.204
795214.0,63.0,73.0,7.0,67.0,795.214
795224.0,63.0,73.0,8.0,64.0,795.224
795234.0,63.0,74.0,9.0,61.0,795.234
795244.0,64.0,75.0,8.0,62.0,795.244
795254.0,64.0,77.0,11.0,59.0,795.254
795264.0,61.0,78.0,9.0,58.0,795.264
795274.0,63.0,77.0,10.0,55.0,795.274
795284.0,63.0,77.0,8.0,54.0,795.284
795294.0,62.0,78.0,7.0,56.0,795.294
795304.0,62.0,78.0,9.0,58.0,795.304
795314.0,61.0,77.0,8.0,58.0,795.314
795324.0,63.0,77.0,8.0,54.0,795.324
795334.0,60.0,78.0,6.0,66.0,795.334
795344.0,61.0,77.0,8.0,69.0,795.344
795354.0,59.0,77.0,11.0,69.0,795.354
795364.0,59.0,76.0,10.0,66.0,795.364
795374.0,59.0,76.0,10.0,63.0,795.374
795384.0,57.0,78.0,12.0,60.0,795.384
795394.0,58.0,78.0,11.0,58.0,795.394
795404.0,56.0,78.0,12.0,61.0,795.404
795414.0,58.0,77.0,12.0,67.0,795.414
795424.0,57.0,79.0,10.0,68.0,795.424
795435.0,57.0,81.0,12.0,68.0,795.435
795445.0,59.0,81.0,16.0,76.0,795.445
795455.0,59.0,81.0,13.0,72.0,795.455
795465.0,61.0,82.0,13.0,71.0,795.465
795475.0,60.0,84.0,12.0,72.0,795.475
795485.0,62.0,85.0,12.0,69.0,795.485
795495.0,62.0,86.0,11.0,67.0,795.495
795505.0,62.0,88.0,11.0,64.0,795.505
795515.0,62.0,90.0,13.0,63.0,795.515
795525.0,61.0,91.0,11.0,68.0,795.525
795535.0,62.0,90.0,11.0,65.0,795.535
795545.0,61.0,91.0,10.0,65.0,795.545
795555.0,61.0,92.0,10.0,65.0,795.555
795565.0,61.0,90.0,7.0,64.0,795.565
795575.0,60.0,89.0,7.0,62.0,795.575
795585.0,58.0,89.0,7.0,64.0,795.585
795595.0,58.0,86.0,7.0,58.0,795.595
795606.0,57.0,86.0,7.0,56.0,795.606
795616.0,56.0,84.0,7.0,61.0,795.616
795626.0,57.0,83.0,11.0,63.0,795.626
795636.0,55.0,83.0,9.0,78.0,795.636
795646.0,55.0,80.0,9.0,79.0,795.646
795656.0,55.0,81.0,8.0,74.0,795.656
795666.0,56.0,81.0,8.0,70.0,795.666
795676.0,58.0,82.0,8.0,71.0,795.676
795686.0,56.0,84.0,8.0,67.0,795.686
795696.0,57.0,85.0,9.0,67.0,795.696
795706.0,57.0,87.0,8.0,65.0,795.706
795716.0,56.0,86.0,8.0,64.0,795.716
795726.0,56.0,87.0,7.0,61.0,795.726
795736.0,54.0,88.0,7.0,66.0,795.736
795746.0,54.0,88.0,8.0,65.0,795.746
795756.0,53.0,87.0,6.0,67.0,795.756
795766.0,52.0,87.0,6.0,69.0,795.766
795776.0,52.0,88.0,8.0,65.0,795.776
795786.0,53.0,85.0,8.0,63.0,795.786
795796.0,53.0,84.0,7.0,60.0,795.796
795806.0,51.0,84.0,8.0,61.0,795.806
795816.0,51.0,83.0,8.0,59.0,795.816
795826.0,49.0,85.0,10.0,67.0,795.826
795836.0,49.0,84.0,10.0,65.0,795.836
795846.0,48.0,85.0,10.0,65.0,795.846
795856.0,48.0,85.0,11.0,66.0,795.856
795866.0,47.0,85.0,10.0,65.0,795.866
795876.0,46.0,86.0,9.0,62.0,795.876
795886.0,46.0,86.0,9.0,59.0,795.886
795896.0,45.0,88.0,8.0,61.0,795.896
795906.0,46.0,88.0,9.0,64.0,795.906
795916.0,47.0,89.0,9.0,75.0,795.916
795926.0,47.0,90.0,11.0,70.0,795.926
795936.0,48.0,90.0,11.0,65.0,795.936
795947.0,49.0,90.0,11.0,69.0,795.947
795957.0,49.0,91.0,10.0,64.0,795.957
795967.0,48.0,92.0,12.0,61.0,795.967
795977.0,48.0,92.0,15.0,59.0,795.977
795987.0,47.0,94.0,14.0,59.0,795.987
795997.0,47.0,93.0,13.0,57.0,795.997
796007.0,47.0,93.0,12.0,54.0,796.007
796017.0,46.0,94.0,12.0,58.0,796.017
796027.0,47.0,93.0,10.0,63.0,796.027
796037.0,47.0,92.0,9.0,59.0,796.037
796047.0,47.0,91.0,10.0,59.0,796.047
796057.0,46.0,92.0,12.0,58.0,796.057
796067.0,46.0,92.0,13.0,60.0,796.067
796077.0,47.0,91.0,12.0,59.0,796.077
796087.0,46.0,91.0,13.0,58.0,796.087
796097.0,49.0,90.0,13.0,56.0,796.097
796107.0,48.0,89.0,11.0,65.0,796.107
796118.0,51.0,89.0,10.0,62.0,796.118
796128.0,51.0,89.0,10.0,65.0,796.128
796138.0,51.0,88.0,9.0,64.0,796.138
796148.0,53.0,89.0,9.0,63.0,796.148
796158.0,54.0,88.0,9.0,59.0,796.158
796168.0,54.0,89.0,8.0,61.0,796.168
796178.0,54.0,87.0,7.0,63.0,796.178
796188.0,56.0,85.0,7.0,63.0,796.188
796198.0,56.0,85.0,7.0,61.0,796.198
796208.0,57.0,85.0,6.0,56.0,796.208
796218.0,59.0,84.0,6.0,64.0,796.218
796228.0,61.0,83.0,7.0,63.0,796.228
796238.0,61.0,83.0,6.0,69.0,796.238
796248.0,60.0,84.0,6.0,68.0,796.248
796258.0,61.0,84.0,6.0,69.0,796.258
796268.0,63.0,84.0,8.0,77.0,796.268
796278.0,61.0,85.0,9.0,72.0,796.278
796288.0,62.0,84.0,9.0,73.0,796.288
796298.0,63.0,85.0,13.0,71.0,796.298
796308.0,63.0,85.0,13.0,65.0,796.308
796318.0,62.0,87.0,13.0,68.0,796.318
796328.0,63.0,85.0,13.0,65.0,796.328
796338.0,62.0,87.0,12.0,63.0,796.338
796348.0,63.0,86.0,11.0,58.0,796.348
796358.0,62.0,86.0,10.0,60.0,796.358
796368.0,62.0,86.0,9.0,62.0,796.368
796378.0,64.0,86.0,10.0,71.0,796.378
796388.0,61.0,87.0,10.0,72.0,796.388
796398.0,62.0,85.0,9.0,71.0,796.398
796408.0,63.0,86.0,14.0,70.0,796.408
796418.0,62.0,84.0,13.0,68.0,796.418
796428.0,62.0,84.0,12.0,67.0,796.428
796438.0,62.0,83.0,11.0,62.0,796.438
796448.0,64.0,82.0,11.0,66.0,796.448
796459.0,62.0,82.0,8.0,67.0,796.459
796469.0,62.0,83.0,15.0,68.0,796.469
796479.0,63.0,81.0,14.0,66.0,796.479
796489.0,61.0,80.0,13.0,70.0,796.489
796499.0,62.0,78.0,12.0,74.0,796.499
796509.0,61.0,77.0,11.0,68.0,796.509
796519.0,60.0,77.0,10.0,63.0,796.519
796529.0,59.0,77.0,7.0,64.0,796.529
796539.0,58.0,77.0,8.0,62.0,796.539
796549.0,58.0,79.0,15.0,67.0,796.549
796559.0,59.0,76.0,15.0,64.0,796.559
796569.0,60.0,76.0,13.0,60.0,796.569
796579.0,58.0,77.0,13.0,56.0,796.579
796589.0,57.0,76.0,11.0,54.0,796.589
796599.0,55.0,77.0,10.0,66.0,796.599
796609.0,56.0,75.0,9.0,65.0,796.609
796619.0,55.0,77.0,9.0,74.0,796.619
796630.0,56.0,74.0,10.0,74.0,796.63
796640.0,55.0,74.0,9.0,74.0,796.64
796650.0,55.0,73.0,10.0,71.0,796.65
796660.0,53.0,74.0,10.0,67.0,796.66
796670.0,52.0,74.0,8.0,62.0,796.67
796680.0,53.0,74.0,8.0,57.0,796.68
796690.0,51.0,77.0,7.0,56.0,796.69
796700.0,52.0,74.0,8.0,58.0,796.7
796710.0,52.0,74.0,7.0,59.0,796.71
796720.0,53.0,73.0,9.0,58.0,796.72
796730.0,53.0,72.0,8.0,63.0,796.73
796740.0,53.0,70.0,7.0,62.0,796.74
796750.0,53.0,68.0,9.0,68.0,796.75
796760.0,54.0,66.0,8.0,68.0,796.76
796770.0,53.0,62.0,8.0,66.0,796.77
796780.0,53.0,62.0,8.0,68.0,796.78
796790.0,55.0,61.0,8.0,65.0,796.79
796800.0,55.0,61.0,6.0,59.0,796.8
796810.0,54.0,61.0,6.0,64.0,796.81
796820.0,54.0,62.0,6.0,61.0,796.82
796830.0,55.0,62.0,8.0,62.0,796.83
796840.0,56.0,60.0,9.0,62.0,796.84
796850.0,57.0,60.0,9.0,62.0,796.85
796860.0,59.0,59.0,8.0,59.0,796.86
796870.0,58.0,61.0,7.0,54.0,796.87
796880.0,56.0,62.0,6.0,54.0,796.88
796890.0,55.0,63.0,7.0,52.0,796.89
796900.0,54.0,64.0,6.0,52.0,796.9
796910.0,53.0,63.0,6.0,52.0,796.91
796920.0,53.0,63.0,7.0,49.0,796.92
796930.0,53.0,63.0,8.0,53.0,796.93
796940.0,53.0,62.0,8.0,62.0,796.94
796950.0,54.0,60.0,7.0,59.0,796.95
796960.0,54.0,58.0,7.0,58.0,796.96
796971.0,53.0,59.0,7.0,59.0,796.971
796981.0,54.0,56.0,8.0,62.0,796.981
796991.0,55.0,55.0,6.0,60.0,796.991
797001.0,57.0,53.0,7.0,56.0,797.001
797011.0,58.0,52.0,6.0,63.0,797.011
797021.0,58.0,53.0,7.0,65.0,797.021
797031.0,61.0,51.0,7.0,68.0,797.031
797041.0,61.0,52.0,7.0,70.0,797.041
797051.0,62.0,52.0,7.0,70.0,797.051
797061.0,62.0,52.0,7.0,64.0,797.061
797071.0,63.0,53.0,7.0,61.0,797.071
797081.0,63.0,55.0,6.0,61.0,797.081
797091.0,62.0,57.0,7.0,59.0,797.091
797101.0,62.0,57.0,6.0,58.0,797.101
797111.0,61.0,60.0,7.0,59.0,797.111
797121.0,62.0,59.0,6.0,55.0,797.121
797131.0,63.0,60.0,5.0,52.0,797.131
797142.0,63.0,59.0,6.0,49.0,797.142
797152.0,61.0,62.0,8.0,47.0,797.152
797162.0,60.0,62.0,12.0,51.0,797.162
797172.0,60.0,61.0,11.0,65.0,797.172
797182.0,59.0,61.0,10.0,63.0,797.182
797192.0,61.0,59.0,10.0,60.0,797.192
797202.0,61.0,58.0,8.0,63.0,797.202
797212.0,61.0,58.0,9.0,59.0,797.212
797222.0,60.0,58.0,7.0,61.0,797.222
797232.0,59.0,58.0,6.0,64.0,797.232
797242.0,60.0,57.0,6.0,64.0,797.242
797252.0,59.0,58.0,11.0,66.0,797.252
797262.0,60.0,54.0,12.0,62.0,797.262
797272.0,58.0,56.0,11.0,62.0,797.272
797282.0,58.0,54.0,12.0,67.0,797.282
797292.0,56.0,53.0,16.0,64.0,797.292
797302.0,56.0,52.0,15.0,61.0,797.302
797312.0,56.0,51.0,14.0,65.0,797.312
797322.0,53.0,50.0,11.0,66.0,797.322
797332.0,53.0,47.0,11.0,66.0,797.332
797342.0,53.0,45.0,9.0,64.0,797.342
797352.0,52.0,44.0,11.0,61.0,797.352
797362.0,52.0,43.0,8.0,57.0,797.362
797372.0,49.0,42.0,9.0,55.0,797.372
797382.0,51.0,41.0,8.0,64.0,797.382
797392.0,50.0,40.0,7.0,70.0,797.392
797402.0,50.0,40.0,7.0,71.0,797.402
797412.0,51.0,40.0,5.0,70.0,797.412
797422.0,52.0,40.0,6.0,67.0,797.422
797432.0,52.0,40.0,6.0,63.0,797.432
797442.0,52.0,41.0,7.0,61.0,797.442
797452.0,54.0,39.0,7.0,61.0,797.452
797462.0,53.0,41.0,7.0,65.0,797.462
797472.0,53.0,40.0,7.0,64.0,797.472
797483.0,55.0,40.0,5.0,60.0,797.483
797493.0,56.0,40.0,7.0,57.0,797.493
797503.0,56.0,42.0,6.0,59.0,797.503
797513.0,57.0,42.0,5.0,60.0,797.513
797523.0,59.0,44.0,6.0,61.0,797.523
797533.0,61.0,45.0,5.0,59.0,797.533
797543.0,61.0,44.0,7.0,54.0,797.543
797553.0,61.0,44.0,5.0,57.0,797.553
797563.0,63.0,43.0,11.0,64.0,797.563
797573.0,62.0,43.0,9.0,62.0,797.573
797583.0,64.0,43.0,9.0,66.0,797.583
797593.0,64.0,44.0,10.0,69.0,797.593
797603.0,63.0,46.0,9.0,64.0,797.603
797613.0,63.0,46.0,8.0,58.0,797.613
797623.0,63.0,47.0,8.0,60.0,797.623
797633.0,63.0,47.0,8.0,64.0,797.633
797643.0,63.0,48.0,6.0,63.0,797.643
797654.0,60.0,49.0,6.0,61.0,797.654
797664.0,61.0,51.0,6.0,63.0,797.664
797674.0,61.0,49.0,5.0,64.0,797.674
797684.0,61.0,48.0,6.0,60.0,797.684
797694.0,60.0,48.0,5.0,57.0,797.694
797704.0,60.0,47.0,6.0,60.0,797.704
797714.0,58.0,46.0,4.0,63.0,797.714
797724.0,58.0,45.0,5.0,60.0,797.724
797734.0,58.0,46.0,5.0,56.0,797.734
797744.0,58.0,46.0,5.0,65.0,797.744
797754.0,58.0,44.0,4.0,64.0,797.754
797764.0,58.0,47.0,5.0,60.0,797.764
797774.0,61.0,48.0,5.0,64.0,797.774
797784.0,62.0,48.0,8.0,69.0,797.784
797794.0,62.0,48.0,13.0,67.0,797.794
797804.0,64.0,47.0,12.0,65.0,797.804
797814.0,64.0,48.0,11.0,64.0,797.814
797824.0,64.0,48.0,10.0,64.0,797.824
797834.0,64.0,48.0,10.0,65.0,797.834
797844.0,65.0,47.0,11.0,64.0,797.844
797854.0,64.0,48.0,10.0,60.0,797.854
797864.0,62.0,47.0,10.0,57.0,797.864
797874.0,62.0,47.0,10.0,60.0,797.874
797884.0,61.0,47.0,9.0,59.0,797.884
797894.0,60.0,46.0,9.0,58.0,797.894
797904.0,59.0,48.0,8.0,57.0,797.904
