time (ms),signal 0,signal 1,signal 2,signal3,time (sec)
829135.0,60.0,49.0,14.0,99.0,829.135
829145.0,61.0,51.0,15.0,107.0,829.145
829155.0,62.0,50.0,15.0,107.0,829.155
829165.0,62.0,51.0,15.0,104.0,829.165
829175.0,63.0,50.0,14.0,104.0,829.175
829185.0,66.0,52.0,12.0,104.0,829.185
829195.0,64.0,50.0,10.0,104.0,829.195
829205.0,66.0,50.0,10.0,98.0,829.205
829215.0,64.0,52.0,9.0,96.0,829.215
829225.0,62.0,50.0,9.0,92.0,829.225
829235.0,61.0,51.0,10.0,88.0,829.235
829245.0,60.0,51.0,10.0,88.0,829.245
829255.0,60.0,51.0,9.0,87.0,829.255
829265.0,58.0,52.0,18.0,111.0,829.265
829275.0,58.0,53.0,16.0,105.0,829.275
829285.0,57.0,54.0,14.0,122.0,829.285
829295.0,55.0,54.0,15.0,118.0,829.295
829305.0,56.0,56.0,13.0,121.0,829.305
829315.0,56.0,56.0,12.0,114.0,829.315
829325.0,57.0,56.0,11.0,111.0,829.325
829335.0,57.0,56.0,10.0,106.0,829.335
829345.0,57.0,54.0,10.0,108.0,829.345
829355.0,58.0,56.0,11.0,110.0,829.355
829365.0,58.0,55.0,11.0,107.0,829.365
829375.0,57.0,52.0,10.0,107.0,829.375
829385.0,59.0,55.0,11.0,103.0,829.385
829395.0,62.0,55.0,10.0,108.0,829.395
829405.0,61.0,54.0,10.0,104.0,829.405
829415.0,62.0,53.0,12.0,93.0,829.415
829425.0,61.0,54.0,11.0,87.0,829.425
829435.0,59.0,52.0,10.0,82.0,829.435
829445.0,58.0,52.0,9.0,86.0,829.445
829455.0,58.0,52.0,8.0,100.0,829.455
829465.0,57.0,53.0,12.0,96.0,829.465
829475.0,56.0,54.0,10.0,91.0,829.475
829485.0,56.0,54.0,10.0,85.0,829.485
829495.0,56.0,53.0,10.0,79.0,829.495
829505.0,55.0,53.0,10.0,74.0,829.505
829515.0,55.0,54.0,9.0,71.0,829.515
829526.0,54.0,53.0,9.0,68.0,829.526
829536.0,55.0,53.0,8.0,66.0,829.536
829546.0,54.0,54.0,7.0,62.0,829.546
829556.0,53.0,63.0,7.0,69.0,829.556
829566.0,55.0,72.0,7.0,66.0,829.566
829576.0,54.0,71.0,6.0,70.0,829.576
829586.0,55.0,70.0,18.0,69.0,829.586
829596.0,55.0,69.0,17.0,74.0,829.596
829606.0,55.0,67.0,15.0,82.0,829.606
829616.0,55.0,67.0,14.0,98.0,829.616
829626.0,56.0,65.0,16.0,97.0,829.626
829636.0,57.0,62.0,14.0,113.0,829.636
829646.0,57.0,60.0,13.0,113.0,829.646
829656.0,59.0,60.0,13.0,123.0,829.656
829666.0,60.0,57.0,12.0,130.0,829.666
829676.0,60.0,55.0,10.0,151.0,829.676
829686.0,58.0,54.0,10.0,147.0,829.686
829696.0,60.0,53.0,12.0,143.0,829.696
829706.0,60.0,52.0,12.0,135.0,829.706
829716.0,59.0,50.0,15.0,131.0,829.716
829726.0,61.0,51.0,13.0,125.0,829.726
829736.0,60.0,49.0,12.0,127.0,829.736
829746.0,62.0,48.0,11.0,130.0,829.746
829756.0,61.0,49.0,9.0,121.0,829.756
829766.0,60.0,49.0,10.0,111.0,829.766
829776.0,60.0,51.0,10.0,104.0,829.776
829786.0,61.0,51.0,9.0,105.0,829.786
829796.0,63.0,52.0,12.0,116.0,829.796
829806.0,62.0,52.0,11.0,110.0,829.806
829816.0,64.0,51.0,13.0,110.0,829.816
829826.0,63.0,50.0,11.0,103.0,829.826
829836.0,65.0,51.0,13.0,113.0,829.836
829846.0,63.0,50.0,11.0,116.0,829.846
829856.0,62.0,48.0,11.0,108.0,829.856
829867.0,62.0,48.0,11.0,99.0,829.867
829877.0,59.0,46.0,11.0,92.0,829.877
829887.0,60.0,45.0,13.0,97.0,829.887
829897.0,58.0,44.0,12.0,96.0,829.897
829907.0,57.0,43.0,11.0,101.0,829.907
829917.0,57.0,44.0,9.0,97.0,829.917
829927.0,54.0,42.0,9.0,94.0,829.927
829937.0,53.0,41.0,8.0,89.0,829.937
829947.0,52.0,40.0,8.0,85.0,829.947
829957.0,51.0,40.0,11.0,102.0,829.957
829967.0,49.0,41.0,11.0,101.0,829.967
829977.0,48.0,39.0,9.0,95.0,829.977
829987.0,47.0,39.0,9.0,90.0,829.987
829997.0,47.0,38.0,9.0,86.0,829.997
830007.0,46.0,38.0,10.0,82.0,830.007
830017.0,45.0,37.0,9.0,79.0,830.017
830027.0,45.0,35.0,9.0,74.0,830.027
830038.0,44.0,36.0,6.0,72.0,830.038
830048.0,44.0,36.0,7.0,68.0,830.048
830058.0,43.0,36.0,7.0,66.0,830.058
830068.0,43.0,34.0,8.0,71.0,830.068
830078.0,43.0,36.0,8.0,74.0,830.078
830088.0,43.0,36.0,8.0,78.0,830.088
830098.0,44.0,37.0,13.0,83.0,830.098
830108.0,42.0,36.0,11.0,82.0,830.108
830118.0,43.0,36.0,15.0,81.0,830.118
830128.0,42.0,37.0,14.0,82.0,830.128
830138.0,43.0,36.0,13.0,84.0,830.138
830148.0,44.0,35.0,16.0,84.0,830.148
830158.0,43.0,36.0,15.0,80.0,830.158
830168.0,44.0,37.0,17.0,77.0,830.168
830178.0,44.0,37.0,14.0,79.0,830.178
830188.0,43.0,36.0,13.0,77.0,830.188
830198.0,44.0,37.0,11.0,81.0,830.198
830208.0,43.0,36.0,11.0,79.0,830.208
830218.0,45.0,35.0,9.0,93.0,830.218
830228.0,45.0,36.0,15.0,93.0,830.228
830238.0,47.0,35.0,16.0,86.0,830.238
830248.0,46.0,35.0,14.0,79.0,830.248
830258.0,47.0,36.0,14.0,76.0,830.258
830268.0,47.0,37.0,14.0,80.0,830.268
830278.0,47.0,38.0,13.0,74.0,830.278
830288.0,46.0,38.0,12.0,68.0,830.288
830298.0,46.0,38.0,12.0,75.0,830.298
830308.0,46.0,37.0,11.0,76.0,830.308
830318.0,48.0,37.0,10.0,77.0,830.318
830328.0,48.0,37.0,10.0,73.0,830.328
830338.0,47.0,39.0,10.0,77.0,830.338
830348.0,47.0,39.0,9.0,78.0,830.348
830358.0,45.0,41.0,15.0,77.0,830.358
830368.0,45.0,42.0,17.0,78.0,830.368
830379.0,48.0,42.0,16.0,80.0,830.379
830389.0,46.0,43.0,14.0,82.0,830.389
830399.0,48.0,44.0,15.0,97.0,830.399
830409.0,49.0,45.0,15.0,97.0,830.409
830419.0,49.0,47.0,13.0,92.0,830.419
830429.0,49.0,48.0,12.0,90.0,830.429
830439.0,49.0,49.0,12.0,85.0,830.439
830449.0,52.0,49.0,11.0,83.0,830.449
830459.0,50.0,50.0,16.0,82.0,830.459
830469.0,50.0,51.0,20.0,79.0,830.469
830479.0,49.0,51.0,17.0,81.0,830.479
830489.0,49.0,50.0,15.0,77.0,830.489
830499.0,49.0,49.0,17.0,75.0,830.499
830509.0,47.0,49.0,15.0,79.0,830.509
830519.0,49.0,48.0,14.0,86.0,830.519
830529.0,48.0,49.0,12.0,95.0,830.529
830539.0,49.0,49.0,12.0,97.0,830.539
830550.0,50.0,53.0,11.0,100.0,830.55
830560.0,50.0,53.0,12.0,95.0,830.56
830570.0,49.0,56.0,11.0,91.0,830.57
830580.0,51.0,58.0,11.0,89.0,830.58
830590.0,50.0,58.0,9.0,85.0,830.59
830600.0,48.0,60.0,10.0,91.0,830.6
830610.0,51.0,59.0,9.0,93.0,830.61
830620.0,51.0,60.0,9.0,88.0,830.62
830630.0,52.0,59.0,9.0,83.0,830.63
830640.0,52.0,59.0,7.0,80.0,830.64
830650.0,52.0,59.0,8.0,91.0,830.65
830660.0,51.0,59.0,9.0,94.0,830.66
830670.0,52.0,59.0,12.0,95.0,830.67
830680.0,54.0,57.0,12.0,89.0,830.68
830690.0,51.0,57.0,11.0,86.0,830.69
830700.0,53.0,56.0,11.0,82.0,830.7
830710.0,54.0,55.0,9.0,81.0,830.71
830720.0,53.0,56.0,9.0,86.0,830.72
830730.0,54.0,56.0,8.0,88.0,830.73
830740.0,54.0,55.0,6.0,90.0,830.74
830750.0,55.0,55.0,7.0,83.0,830.75
830760.0,52.0,58.0,7.0,77.0,830.76
830770.0,53.0,54.0,7.0,73.0,830.77
830780.0,56.0,53.0,9.0,71.0,830.78
830790.0,55.0,52.0,10.0,71.0,830.79
830800.0,57.0,51.0,11.0,69.0,830.8
830810.0,56.0,51.0,14.0,70.0,830.81
830820.0,58.0,51.0,13.0,73.0,830.82
830830.0,59.0,49.0,11.0,72.0,830.83
830840.0,62.0,48.0,12.0,72.0,830.84
830850.0,64.0,47.0,11.0,79.0,830.85
830860.0,65.0,47.0,11.0,86.0,830.86
830870.0,68.0,46.0,10.0,89.0,830.87
830880.0,66.0,47.0,8.0,83.0,830.88
830891.0,68.0,47.0,8.0,77.0,830.891
830901.0,69.0,47.0,12.0,76.0,830.901
830911.0,68.0,48.0,11.0,77.0,830.911
830921.0,70.0,46.0,10.0,77.0,830.921
830931.0,71.0,46.0,9.0,73.0,830.931
830941.0,71.0,47.0,9.0,77.0,830.941
830951.0,69.0,54.0,7.0,86.0,830.951
830961.0,66.0,75.0,9.0,81.0,830.961
830971.0,68.0,90.0,11.0,90.0,830.971
830981.0,70.0,108.0,14.0,94.0,830.981
830991.0,81.0,117.0,14.0,94.0,830.991
831001.0,80.0,116.0,15.0,86.0,831.001
831011.0,93.0,135.0,25.0,109.0,831.011
831021.0,91.0,153.0,30.0,109.0,831.021
831031.0,150.0,229.0,77.0,180.0,831.031
831041.0,190.0,234.0,83.0,220.0,831.041
831051.0,185.0,244.0,75.0,226.0,831.051
831062.0,235.0,315.0,85.0,234.0,831.062
831072.0,249.0,348.0,84.0,261.0,831.072
831082.0,240.0,318.0,81.0,264.0,831.082
831092.0,282.0,311.0,82.0,299.0,831.092
831102.0,291.0,288.0,74.0,352.0,831.102
831112.0,282.0,295.0,97.0,397.0,831.112
831122.0,263.0,306.0,101.0,413.0,831.122
831132.0,238.0,321.0,105.0,416.0,831.132
831142.0,234.0,361.0,102.0,435.0,831.142
831152.0,241.0,426.0,112.0,427.0,831.152
831162.0,226.0,440.0,108.0,463.0,831.162
831172.0,230.0,420.0,99.0,472.0,831.172
831182.0,223.0,394.0,88.0,449.0,831.182
831192.0,229.0,396.0,81.0,418.0,831.192
831202.0,206.0,376.0,72.0,396.0,831.202
831212.0,192.0,360.0,73.0,408.0,831.212
831222.0,173.0,347.0,66.0,437.0,831.222
831232.0,162.0,334.0,57.0,409.0,831.232
831242.0,148.0,318.0,53.0,383.0,831.242
831252.0,142.0,313.0,48.0,350.0,831.252
831262.0,130.0,285.0,42.0,332.0,831.262
831272.0,119.0,269.0,41.0,323.0,831.272
831282.0,117.0,249.0,37.0,333.0,831.282
831292.0,109.0,232.0,33.0,304.0,831.292
831302.0,100.0,211.0,29.0,295.0,831.302
831312.0,95.0,208.0,27.0,279.0,831.312
831322.0,90.0,200.0,23.0,287.0,831.322
831332.0,87.0,184.0,22.0,290.0,831.332
831342.0,87.0,170.0,23.0,327.0,831.342
831352.0,84.0,162.0,21.0,333.0,831.352
831362.0,81.0,150.0,18.0,311.0,831.362
831372.0,76.0,145.0,16.0,289.0,831.372
831382.0,76.0,140.0,14.0,276.0,831.382
831392.0,72.0,134.0,13.0,269.0,831.392
831403.0,72.0,132.0,12.0,257.0,831.403
831413.0,68.0,124.0,11.0,251.0,831.413
831423.0,67.0,116.0,9.0,250.0,831.423
831433.0,65.0,112.0,9.0,231.0,831.433
831443.0,64.0,116.0,7.0,229.0,831.443
831453.0,62.0,112.0,8.0,235.0,831.453
831463.0,63.0,111.0,7.0,272.0,831.463
831473.0,62.0,108.0,6.0,258.0,831.473
831483.0,62.0,110.0,6.0,248.0,831.483
831493.0,60.0,109.0,6.0,237.0,831.493
831503.0,60.0,104.0,6.0,274.0,831.503
831513.0,56.0,102.0,6.0,273.0,831.513
831523.0,55.0,109.0,6.0,252.0,831.523
831533.0,56.0,110.0,6.0,243.0,831.533
831543.0,56.0,104.0,6.0,260.0,831.543
831553.0,54.0,103.0,5.0,269.0,831.553
831563.0,52.0,106.0,5.0,270.0,831.563
831574.0,52.0,112.0,5.0,253.0,831.574
831584.0,50.0,106.0,6.0,249.0,831.584
831594.0,49.0,105.0,5.0,246.0,831.594
831604.0,48.0,102.0,3.0,226.0,831.604
831614.0,47.0,98.0,5.0,226.0,831.614
831624.0,51.0,98.0,4.0,214.0,831.624
831634.0,52.0,101.0,5.0,200.0,831.634
831644.0,54.0,96.0,4.0,201.0,831.644
831654.0,53.0,113.0,4.0,199.0,831.654
831664.0,53.0,111.0,6.0,217.0,831.664
831674.0,53.0,107.0,5.0,218.0,831.674
831684.0,53.0,110.0,6.0,218.0,831.684
831694.0,52.0,103.0,7.0,227.0,831.694
831704.0,51.0,109.0,8.0,226.0,831.704
831714.0,53.0,111.0,7.0,225.0,831.714
831724.0,52.0,105.0,6.0,210.0,831.724
831734.0,53.0,104.0,6.0,208.0,831.734
831744.0,54.0,112.0,6.0,195.0,831.744
831754.0,53.0,114.0,6.0,196.0,831.754
831764.0,53.0,112.0,7.0,198.0,831.764
831774.0,54.0,107.0,7.0,212.0,831.774
831784.0,53.0,104.0,6.0,221.0,831.784
831794.0,53.0,108.0,6.0,200.0,831.794
831804.0,53.0,107.0,7.0,220.0,831.804
831814.0,53.0,103.0,6.0,216.0,831.814
831824.0,53.0,106.0,6.0,208.0,831.824
831834.0,53.0,105.0,5.0,197.0,831.834
831844.0,53.0,100.0,6.0,203.0,831.844
831854.0,54.0,97.0,6.0,193.0,831.854
831864.0,52.0,101.0,6.0,186.0,831.864
831874.0,53.0,100.0,5.0,175.0,831.874
831884.0,53.0,106.0,5.0,175.0,831.884
831894.0,52.0,101.0,5.0,170.0,831.894
831904.0,53.0,97.0,5.0,172.0,831.904
831915.0,52.0,100.0,6.0,180.0,831.915
831925.0,52.0,103.0,5.0,164.0,831.925
831935.0,52.0,98.0,5.0,150.0,831.935
831945.0,51.0,95.0,4.0,149.0,831.945
831955.0,52.0,101.0,5.0,155.0,831.955
831965.0,53.0,94.0,5.0,162.0,831.965
831975.0,52.0,93.0,5.0,169.0,831.975
831985.0,52.0,93.0,4.0,176.0,831.985
831995.0,51.0,105.0,4.0,178.0,831.995
832005.0,49.0,101.0,6.0,206.0,832.005
832015.0,50.0,101.0,6.0,209.0,832.015
832025.0,51.0,100.0,8.0,241.0,832.025
832035.0,54.0,96.0,9.0,258.0,832.035
832045.0,53.0,91.0,11.0,255.0,832.045
832055.0,52.0,95.0,11.0,280.0,832.055
832065.0,52.0,101.0,11.0,262.0,832.065
832075.0,50.0,100.0,9.0,261.0,832.075
832086.0,53.0,91.0,9.0,258.0,832.086
832096.0,53.0,89.0,8.0,239.0,832.096
832106.0,55.0,84.0,8.0,247.0,832.106
832116.0,54.0,82.0,7.0,231.0,832.116
832126.0,53.0,80.0,7.0,226.0,832.126
832136.0,52.0,85.0,7.0,228.0,832.136
832146.0,50.0,81.0,5.0,229.0,832.146
832156.0,52.0,77.0,6.0,246.0,832.156
832166.0,53.0,76.0,6.0,237.0,832.166
832176.0,51.0,75.0,7.0,252.0,832.176
832186.0,51.0,85.0,5.0,261.0,832.186
832196.0,50.0,82.0,7.0,240.0,832.196
832206.0,51.0,82.0,6.0,238.0,832.206
832216.0,49.0,79.0,6.0,221.0,832.216
832226.0,49.0,78.0,5.0,218.0,832.226
832236.0,49.0,77.0,5.0,229.0,832.236
832246.0,50.0,76.0,5.0,231.0,832.246
832256.0,51.0,75.0,5.0,235.0,832.256
832266.0,52.0,78.0,5.0,219.0,832.266
832276.0,55.0,81.0,5.0,245.0,832.276
832286.0,52.0,84.0,4.0,240.0,832.286
832296.0,56.0,79.0,5.0,221.0,832.296
832306.0,57.0,77.0,3.0,205.0,832.306
832316.0,57.0,74.0,5.0,198.0,832.316
832326.0,59.0,72.0,4.0,218.0,832.326
832336.0,59.0,71.0,5.0,213.0,832.336
832346.0,62.0,75.0,5.0,220.0,832.346
832356.0,58.0,79.0,6.0,218.0,832.356
832366.0,60.0,80.0,6.0,216.0,832.366
832376.0,61.0,81.0,5.0,225.0,832.376
832386.0,61.0,79.0,5.0,222.0,832.386
832396.0,61.0,87.0,5.0,207.0,832.396
832406.0,60.0,86.0,5.0,205.0,832.406
832416.0,59.0,83.0,4.0,206.0,832.416
832427.0,57.0,84.0,4.0,193.0,832.427
832437.0,56.0,80.0,5.0,240.0,832.437
832447.0,56.0,79.0,6.0,262.0,832.447
832457.0,55.0,77.0,6.0,244.0,832.457
832467.0,55.0,79.0,5.0,234.0,832.467
832477.0,56.0,74.0,6.0,251.0,832.477
832487.0,57.0,77.0,5.0,251.0,832.487
832497.0,56.0,77.0,6.0,250.0,832.497
832507.0,56.0,74.0,6.0,224.0,832.507
832517.0,58.0,74.0,6.0,206.0,832.517
832527.0,59.0,75.0,5.0,198.0,832.527
832537.0,59.0,76.0,4.0,189.0,832.537
832547.0,59.0,74.0,5.0,182.0,832.547
832557.0,58.0,75.0,5.0,169.0,832.557
832567.0,68.0,76.0,4.0,180.0,832.567
832577.0,64.0,72.0,6.0,176.0,832.577
832587.0,62.0,71.0,7.0,162.0,832.587
832598.0,62.0,70.0,21.0,148.0,832.598
832608.0,64.0,72.0,26.0,139.0,832.608
832618.0,67.0,72.0,35.0,132.0,832.618
832628.0,74.0,82.0,55.0,129.0,832.628
832638.0,74.0,88.0,54.0,130.0,832.638
832648.0,73.0,84.0,69.0,139.0,832.648
832658.0,80.0,83.0,81.0,162.0,832.658
832668.0,95.0,82.0,80.0,218.0,832.668
832678.0,103.0,84.0,101.0,239.0,832.678
832688.0,111.0,87.0,111.0,274.0,832.688
832698.0,130.0,85.0,157.0,283.0,832.698
832708.0,127.0,91.0,161.0,278.0,832.708
832718.0,130.0,89.0,152.0,280.0,832.718
832728.0,129.0,98.0,146.0,327.0,832.728
832738.0,133.0,110.0,187.0,341.0,832.738
832748.0,141.0,132.0,194.0,342.0,832.748
832758.0,145.0,149.0,197.0,319.0,832.758
832768.0,147.0,169.0,200.0,313.0,832.768
832778.0,146.0,192.0,227.0,321.0,832.778
832788.0,164.0,215.0,251.0,333.0,832.788
832798.0,167.0,232.0,230.0,323.0,832.798
832808.0,166.0,242.0,215.0,317.0,832.808
832818.0,157.0,245.0,209.0,318.0,832.818
832828.0,165.0,251.0,202.0,328.0,832.828
832838.0,167.0,256.0,215.0,316.0,832.838
832848.0,172.0,262.0,195.0,281.0,832.848
832858.0,166.0,259.0,179.0,315.0,832.858
832868.0,173.0,259.0,193.0,301.0,832.868
832878.0,168.0,256.0,192.0,282.0,832.878
832888.0,164.0,249.0,200.0,281.0,832.888
832898.0,164.0,249.0,199.0,264.0,832.898
832908.0,160.0,243.0,173.0,270.0,832.908
832918.0,154.0,237.0,155.0,259.0,832.918
832928.0,149.0,229.0,141.0,249.0,832.928
832939.0,147.0,226.0,128.0,250.0,832.939
832949.0,144.0,220.0,118.0,236.0,832.949
832959.0,144.0,216.0,106.0,217.0,832.959
832969.0,138.0,208.0,106.0,203.0,832.969
832979.0,138.0,205.0,97.0,200.0,832.979
832989.0,137.0,199.0,91.0,195.0,832.989
832999.0,136.0,194.0,84.0,185.0,832.999
833009.0,137.0,192.0,81.0,173.0,833.009
833019.0,138.0,188.0,71.0,161.0,833.019
833029.0,137.0,184.0,70.0,153.0,833.029
833039.0,134.0,179.0,61.0,170.0,833.039
833049.0,134.0,175.0,67.0,171.0,833.049
833059.0,134.0,175.0,76.0,161.0,833.059
833069.0,132.0,171.0,74.0,160.0,833.069
833079.0,132.0,169.0,70.0,162.0,833.079
833089.0,132.0,168.0,62.0,166.0,833.089
833099.0,132.0,168.0,65.0,163.0,833.099
833110.0,131.0,167.0,59.0,153.0,833.11
833120.0,129.0,166.0,52.0,140.0,833.12
833130.0,129.0,166.0,61.0,154.0,833.13
833140.0,133.0,167.0,55.0,140.0,833.14
833150.0,128.0,166.0,48.0,138.0,833.15
833160.0,130.0,164.0,43.0,132.0,833.16
833170.0,130.0,159.0,59.0,130.0,833.17
833180.0,129.0,157.0,58.0,127.0,833.18
833190.0,129.0,156.0,70.0,124.0,833.19
833200.0,129.0,155.0,64.0,123.0,833.2
833210.0,126.0,153.0,58.0,126.0,833.21
833220.0,125.0,151.0,50.0,124.0,833.22
833230.0,125.0,148.0,46.0,117.0,833.23
833240.0,123.0,146.0,42.0,113.0,833.24
833250.0,120.0,143.0,44.0,115.0,833.25
833260.0,119.0,140.0,40.0,109.0,833.26
833270.0,116.0,136.0,35.0,106.0,833.27
833280.0,114.0,131.0,41.0,112.0,833.28
833290.0,113.0,131.0,40.0,108.0,833.29
833300.0,112.0,129.0,36.0,100.0,833.3
833310.0,111.0,126.0,32.0,95.0,833.31
833320.0,109.0,122.0,36.0,102.0,833.32
833330.0,108.0,119.0,40.0,99.0,833.33
833340.0,107.0,119.0,36.0,97.0,833.34
833350.0,109.0,118.0,34.0,96.0,833.35
833360.0,107.0,115.0,45.0,101.0,833.36
833370.0,106.0,114.0,47.0,92.0,833.37
833380.0,108.0,116.0,43.0,93.0,833.38
833390.0,107.0,113.0,37.0,88.0,833.39
833400.0,107.0,111.0,34.0,83.0,833.4
833410.0,106.0,111.0,33.0,79.0,833.41
833420.0,105.0,109.0,29.0,73.0,833.42
833430.0,104.0,109.0,26.0,77.0,833.43
833440.0,104.0,106.0,27.0,86.0,833.44
833451.0,104.0,106.0,25.0,89.0,833.451
833461.0,100.0,104.0,42.0,95.0,833.461
833471.0,102.0,105.0,47.0,114.0,833.471
833481.0,101.0,105.0,41.0,124.0,833.481
833491.0,102.0,105.0,36.0,116.0,833.491
833501.0,102.0,106.0,32.0,110.0,833.501
833511.0,100.0,103.0,29.0,107.0,833.511
833521.0,100.0,101.0,27.0,105.0,833.521
833531.0,101.0,101.0,24.0,102.0,833.531
833541.0,101.0,98.0,21.0,98.0,833.541
833551.0,102.0,98.0,22.0,110.0,833.551
833561.0,99.0,95.0,32.0,105.0,833.561
833571.0,102.0,93.0,30.0,99.0,833.571
833581.0,98.0,93.0,36.0,93.0,833.581
833591.0,102.0,92.0,33.0,97.0,833.591
833601.0,109.0,92.0,31.0,98.0,833.601
833611.0,113.0,91.0,27.0,93.0,833.611
833622.0,111.0,91.0,31.0,105.0,833.622
833632.0,112.0,91.0,28.0,101.0,833.632
833642.0,111.0,91.0,25.0,104.0,833.642
833652.0,110.0,90.0,24.0,116.0,833.652
833662.0,108.0,88.0,21.0,116.0,833.662
833672.0,107.0,86.0,19.0,112.0,833.672
833682.0,106.0,85.0,20.0,107.0,833.682
833692.0,102.0,82.0,30.0,116.0,833.692
833702.0,103.0,81.0,32.0,118.0,833.702
833712.0,102.0,79.0,30.0,127.0,833.712
833722.0,106.0,78.0,26.0,116.0,833.722
833732.0,106.0,76.0,24.0,108.0,833.732
833742.0,104.0,75.0,21.0,109.0,833.742
833752.0,104.0,72.0,20.0,105.0,833.752
833762.0,103.0,71.0,20.0,102.0,833.762
833772.0,101.0,69.0,19.0,107.0,833.772
833782.0,100.0,67.0,19.0,101.0,833.782
833792.0,99.0,67.0,20.0,95.0,833.792
833802.0,97.0,65.0,22.0,96.0,833.802
833812.0,96.0,63.0,25.0,105.0,833.812
833822.0,97.0,63.0,28.0,111.0,833.822
833832.0,94.0,62.0,26.0,103.0,833.832
833842.0,95.0,61.0,23.0,96.0,833.842
833852.0,95.0,59.0,20.0,89.0,833.852
833862.0,100.0,55.0,21.0,85.0,833.862
833872.0,98.0,55.0,19.0,79.0,833.872
833882.0,101.0,54.0,19.0,78.0,833.882
833892.0,105.0,55.0,35.0,75.0,833.892
833902.0,102.0,54.0,32.0,71.0,833.902
833912.0,101.0,55.0,31.0,74.0,833.912
833922.0,98.0,53.0,32.0,89.0,833.922
833932.0,95.0,54.0,27.0,96.0,833.932
833942.0,92.0,54.0,24.0,94.0,833.942
833952.0,89.0,53.0,21.0,90.0,833.952
833963.0,87.0,53.0,19.0,86.0,833.963
833973.0,82.0,51.0,18.0,90.0,833.973
833983.0,80.0,51.0,22.0,85.0,833.983
833993.0,80.0,52.0,21.0,101.0,833.993
834003.0,77.0,51.0,31.0,104.0,834.003
834013.0,77.0,53.0,27.0,101.0,834.013
834023.0,75.0,51.0,25.0,100.0,834.023
834033.0,72.0,48.0,23.0,96.0,834.033
834043.0,70.0,48.0,24.0,96.0,834.043
834053.0,68.0,47.0,24.0,92.0,834.053
834063.0,67.0,49.0,22.0,95.0,834.063
834073.0,66.0,47.0,25.0,103.0,834.073
834083.0,64.0,47.0,36.0,113.0,834.083
834093.0,64.0,47.0,31.0,118.0,834.093
834103.0,67.0,47.0,29.0,110.0,834.103
834113.0,66.0,46.0,25.0,110.0,834.113
834123.0,66.0,45.0,26.0,101.0,834.123
834134.0,66.0,47.0,22.0,99.0,834.134
834144.0,67.0,46.0,21.0,104.0,834.144
834154.0,68.0,47.0,18.0,101.0,834.154
834164.0,67.0,45.0,17.0,102.0,834.164
834174.0,68.0,45.0,14.0,116.0,834.174
834184.0,66.0,44.0,14.0,109.0,834.184
834194.0,66.0,44.0,12.0,106.0,834.194
834204.0,66.0,46.0,10.0,115.0,834.204
834214.0,65.0,44.0,12.0,108.0,834.214
834224.0,64.0,46.0,14.0,109.0,834.224
834234.0,67.0,48.0,17.0,105.0,834.234
834244.0,70.0,50.0,17.0,107.0,834.244
834254.0,69.0,49.0,15.0,99.0,834.254
834264.0,70.0,47.0,13.0,96.0,834.264
834274.0,70.0,46.0,12.0,91.0,834.274
834284.0,70.0,47.0,12.0,86.0,834.284
834294.0,71.0,48.0,11.0,92.0,834.294
834304.0,72.0,47.0,10.0,87.0,834.304
834314.0,73.0,46.0,9.0,87.0,834.314
834324.0,72.0,47.0,23.0,85.0,834.324
834334.0,74.0,46.0,22.0,85.0,834.334
834344.0,73.0,46.0,21.0,84.0,834.344
834354.0,73.0,44.0,26.0,87.0,834.354
834364.0,75.0,44.0,27.0,89.0,834.364
834374.0,75.0,44.0,24.0,89.0,834.374
834384.0,76.0,43.0,22.0,91.0,834.384
834394.0,76.0,42.0,21.0,92.0,834.394
834404.0,78.0,41.0,19.0,97.0,834.404
834414.0,77.0,43.0,18.0,98.0,834.414
834424.0,76.0,42.0,22.0,110.0,834.424
834434.0,78.0,42.0,21.0,119.0,834.434
834444.0,78.0,42.0,19.0,114.0,834.444
834454.0,77.0,41.0,23.0,115.0,834.454
834464.0,76.0,41.0,25.0,111.0,834.464
834475.0,76.0,40.0,22.0,109.0,834.475
834485.0,75.0,39.0,20.0,107.0,834.485
834495.0,74.0,38.0,21.0,102.0,834.495
834505.0,75.0,40.0,26.0,99.0,834.505
834515.0,76.0,39.0,27.0,94.0,834.515
834525.0,76.0,38.0,24.0,90.0,834.525
834535.0,76.0,38.0,22.0,87.0,834.535
834545.0,76.0,39.0,19.0,95.0,834.545
834555.0,75.0,39.0,17.0,89.0,834.555
834565.0,74.0,37.0,15.0,93.0,834.565
834575.0,73.0,38.0,17.0,88.0,834.575
834585.0,73.0,40.0,20.0,90.0,834.585
834595.0,74.0,42.0,18.0,90.0,834.595
834605.0,71.0,43.0,28.0,84.0,834.605
834615.0,70.0,44.0,25.0,81.0,834.615
834625.0,69.0,42.0,23.0,87.0,834.625
834635.0,68.0,43.0,22.0,82.0,834.635
834646.0,67.0,43.0,19.0,78.0,834.646
834656.0,66.0,44.0,18.0,77.0,834.656
834666.0,67.0,43.0,16.0,81.0,834.666
834676.0,64.0,43.0,14.0,87.0,834.676
834686.0,62.0,43.0,22.0,101.0,834.686
834696.0,64.0,47.0,21.0,103.0,834.696
834706.0,63.0,47.0,18.0,95.0,834.706
834716.0,64.0,48.0,16.0,87.0,834.716
834726.0,61.0,46.0,15.0,83.0,834.726
834736.0,63.0,46.0,15.0,116.0,834.736
834746.0,62.0,46.0,13.0,112.0,834.746
834756.0,62.0,45.0,13.0,101.0,834.756
834766.0,62.0,47.0,12.0,93.0,834.766
834776.0,61.0,45.0,12.0,90.0,834.776
834786.0,61.0,44.0,11.0,99.0,834.786
834796.0,61.0,44.0,11.0,89.0,834.796
834806.0,61.0,43.0,10.0,91.0,834.806
834816.0,60.0,43.0,8.0,87.0,834.816
834826.0,57.0,43.0,25.0,85.0,834.826
834836.0,58.0,44.0,24.0,87.0,834.836
834846.0,59.0,42.0,21.0,90.0,834.846
834856.0,59.0,42.0,19.0,99.0,834.856
834866.0,59.0,41.0,21.0,94.0,834.866
834876.0,59.0,40.0,20.0,99.0,834.876
834886.0,58.0,40.0,16.0,96.0,834.886
834896.0,58.0,40.0,15.0,100.0,834.896
834906.0,57.0,41.0,17.0,105.0,834.906
834916.0,58.0,40.0,15.0,95.0,834.916
834926.0,58.0,40.0,14.0,87.0,834.926
834936.0,57.0,40.0,13.0,89.0,834.936
834946.0,58.0,40.0,13.0,87.0,834.946
834956.0,58.0,44.0,38.0,89.0,834.956
834966.0,60.0,43.0,33.0,99.0,834.966
834976.0,60.0,43.0,31.0,106.0,834.976
834987.0,60.0,41.0,28.0,104.0,834.987
834997.0,61.0,40.0,24.0,99.0,834.997
835007.0,63.0,40.0,21.0,94.0,835.007
835017.0,62.0,41.0,20.0,102.0,835.017
835027.0,63.0,41.0,17.0,114.0,835.027
835037.0,62.0,41.0,18.0,117.0,835.037
835047.0,62.0,41.0,23.0,109.0,835.047
835057.0,62.0,40.0,22.0,101.0,835.057
835067.0,63.0,40.0,33.0,96.0,835.067
835077.0,64.0,39.0,30.0,102.0,835.077
835087.0,64.0,38.0,26.0,99.0,835.087
835097.0,64.0,39.0,23.0,99.0,835.097
835107.0,63.0,40.0,23.0,93.0,835.107
835117.0,65.0,39.0,22.0,101.0,835.117
835127.0,64.0,39.0,19.0,108.0,835.127
835137.0,64.0,40.0,18.0,104.0,835.137
835147.0,62.0,41.0,17.0,100.0,835.147
835158.0,63.0,41.0,17.0,99.0,835.158
835168.0,62.0,41.0,16.0,103.0,835.168
835178.0,63.0,40.0,16.0,104.0,835.178
835188.0,60.0,42.0,15.0,101.0,835.188
835198.0,59.0,40.0,13.0,91.0,835.198
835208.0,58.0,39.0,12.0,91.0,835.208
835218.0,59.0,40.0,13.0,92.0,835.218
835228.0,61.0,40.0,14.0,88.0,835.228
835238.0,60.0,40.0,12.0,89.0,835.238
835248.0,60.0,39.0,12.0,89.0,835.248
835258.0,59.0,40.0,10.0,86.0,835.258
835268.0,59.0,40.0,9.0,87.0,835.268
835278.0,61.0,39.0,8.0,86.0,835.278
835288.0,60.0,41.0,9.0,82.0,835.288
835298.0,62.0,41.0,15.0,88.0,835.298
835308.0,62.0,41.0,14.0,82.0,835.308
835318.0,63.0,40.0,13.0,75.0,835.318
835328.0,64.0,40.0,11.0,71.0,835.328
835338.0,65.0,38.0,11.0,96.0,835.338
835348.0,65.0,38.0,10.0,95.0,835.348
835358.0,65.0,39.0,9.0,94.0,835.358
835368.0,65.0,38.0,8.0,90.0,835.368
835378.0,65.0,38.0,7.0,91.0,835.378
835388.0,65.0,37.0,7.0,93.0,835.388
835398.0,64.0,37.0,8.0,93.0,835.398
835408.0,64.0,36.0,12.0,87.0,835.408
835418.0,64.0,36.0,13.0,83.0,835.418
835428.0,63.0,36.0,13.0,76.0,835.428
835438.0,63.0,35.0,14.0,71.0,835.438
835448.0,62.0,37.0,12.0,68.0,835.448
835458.0,63.0,37.0,11.0,69.0,835.458
835468.0,62.0,39.0,15.0,89.0,835.468
835478.0,62.0,38.0,13.0,90.0,835.478
835488.0,61.0,38.0,13.0,83.0,835.488
835499.0,60.0,38.0,11.0,75.0,835.499
835509.0,60.0,37.0,10.0,72.0,835.509
835519.0,58.0,37.0,8.0,74.0,835.519
835529.0,58.0,36.0,10.0,71.0,835.529
835539.0,58.0,37.0,9.0,66.0,835.539
835549.0,59.0,36.0,10.0,66.0,835.549
835559.0,59.0,35.0,8.0,68.0,835.559
835569.0,59.0,36.0,9.0,68.0,835.569
835579.0,60.0,35.0,9.0,67.0,835.579
835589.0,58.0,37.0,10.0,70.0,835.589
835599.0,60.0,37.0,10.0,73.0,835.599
835609.0,60.0,39.0,9.0,77.0,835.609
835619.0,60.0,40.0,9.0,78.0,835.619
835629.0,61.0,40.0,8.0,73.0,835.629
835639.0,61.0,42.0,7.0,69.0,835.639
835649.0,61.0,41.0,8.0,78.0,835.649
835659.0,62.0,41.0,7.0,80.0,835.659
835670.0,62.0,41.0,10.0,74.0,835.67
835680.0,63.0,42.0,9.0,79.0,835.68
835690.0,64.0,39.0,9.0,80.0,835.69
835700.0,63.0,38.0,8.0,79.0,835.7
835710.0,63.0,37.0,8.0,78.0,835.71
835720.0,64.0,37.0,12.0,91.0,835.72
835730.0,63.0,37.0,11.0,110.0,835.73
835740.0,64.0,37.0,12.0,104.0,835.74
835750.0,62.0,37.0,10.0,102.0,835.75
835760.0,62.0,36.0,11.0,95.0,835.76
835770.0,62.0,36.0,11.0,87.0,835.77
835780.0,61.0,36.0,10.0,86.0,835.78
835790.0,63.0,35.0,10.0,83.0,835.79
835800.0,62.0,35.0,8.0,80.0,835.8
835810.0,63.0,35.0,9.0,80.0,835.81
835820.0,63.0,36.0,9.0,83.0,835.82
835830.0,63.0,34.0,8.0,76.0,835.83
835840.0,63.0,34.0,7.0,75.0,835.84
835850.0,61.0,34.0,8.0,73.0,835.85
835860.0,62.0,34.0,11.0,89.0,835.86
835870.0,62.0,34.0,8.0,84.0,835.87
835880.0,61.0,33.0,16.0,85.0,835.88
835890.0,61.0,36.0,15.0,81.0,835.89
835900.0,62.0,37.0,14.0,96.0,835.9
835910.0,61.0,36.0,13.0,101.0,835.91
835920.0,61.0,37.0,11.0,106.0,835.92
835930.0,62.0,36.0,12.0,98.0,835.93
835940.0,61.0,36.0,12.0,94.0,835.94
835950.0,61.0,36.0,13.0,88.0,835.95
835960.0,62.0,37.0,11.0,101.0,835.96
835970.0,60.0,36.0,11.0,98.0,835.97
835980.0,61.0,36.0,10.0,102.0,835.98
835990.0,62.0,37.0,9.0,100.0,835.99
836000.0,60.0,36.0,8.0,101.0,836.0
836011.0,60.0,37.0,7.0,102.0,836.011
836021.0,59.0,36.0,7.0,101.0,836.021
836031.0,58.0,38.0,9.0,100.0,836.031
836041.0,57.0,36.0,11.0,104.0,836.041
836051.0,56.0,37.0,13.0,98.0,836.051
836061.0,55.0,36.0,11.0,99.0,836.061
836071.0,56.0,37.0,10.0,95.0,836.071
836081.0,54.0,36.0,9.0,95.0,836.081
836091.0,54.0,36.0,20.0,98.0,836.091
836101.0,56.0,38.0,19.0,98.0,836.101
836111.0,55.0,36.0,17.0,104.0,836.111
836121.0,57.0,36.0,15.0,100.0,836.121
836131.0,57.0,35.0,15.0,93.0,836.131
836141.0,56.0,34.0,12.0,90.0,836.141
836151.0,56.0,36.0,16.0,97.0,836.151
836161.0,55.0,35.0,14.0,101.0,836.161
836171.0,54.0,35.0,12.0,104.0,836.171
836182.0,53.0,34.0,13.0,98.0,836.182
836192.0,55.0,35.0,15.0,101.0,836.192
836202.0,54.0,35.0,14.0,102.0,836.202
836212.0,55.0,35.0,14.0,110.0,836.212
836222.0,53.0,35.0,17.0,113.0,836.222
836232.0,55.0,35.0,20.0,111.0,836.232
836242.0,54.0,35.0,17.0,115.0,836.242
836252.0,53.0,37.0,20.0,109.0,836.252
836262.0,55.0,36.0,19.0,106.0,836.262
836272.0,55.0,37.0,18.0,98.0,836.272
836282.0,55.0,38.0,17.0,94.0,836.282
836292.0,54.0,38.0,14.0,88.0,836.292
836302.0,53.0,38.0,13.0,84.0,836.302
836312.0,54.0,39.0,15.0,99.0,836.312
836322.0,53.0,38.0,17.0,100.0,836.322
836332.0,52.0,39.0,18.0,91.0,836.332
836342.0,51.0,39.0,18.0,90.0,836.342
836352.0,51.0,38.0,17.0,85.0,836.352
836362.0,50.0,38.0,15.0,106.0,836.362
836372.0,51.0,37.0,15.0,102.0,836.372
836382.0,48.0,37.0,13.0,96.0,836.382
836392.0,47.0,36.0,13.0,92.0,836.392
836402.0,47.0,37.0,13.0,95.0,836.402
836412.0,47.0,38.0,13.0,95.0,836.412
836422.0,47.0,36.0,14.0,102.0,836.422
836432.0,48.0,37.0,16.0,119.0,836.432
836442.0,49.0,38.0,16.0,113.0,836.442
836452.0,50.0,39.0,13.0,111.0,836.452
836462.0,51.0,36.0,12.0,104.0,836.462
836472.0,52.0,36.0,12.0,103.0,836.472
836482.0,52.0,37.0,13.0,97.0,836.482
836492.0,54.0,35.0,15.0,105.0,836.492
836502.0,54.0,37.0,13.0,116.0,836.502
836512.0,54.0,37.0,13.0,105.0,836.512
836523.0,52.0,35.0,14.0,97.0,836.523
836533.0,51.0,34.0,15.0,98.0,836.533
836543.0,50.0,35.0,13.0,97.0,836.543
836553.0,49.0,34.0,13.0,93.0,836.553
836563.0,49.0,34.0,11.0,99.0,836.563
836573.0,47.0,34.0,10.0,102.0,836.573
836583.0,48.0,34.0,11.0,101.0,836.583
836593.0,46.0,37.0,10.0,97.0,836.593
836603.0,46.0,36.0,10.0,90.0,836.603
836613.0,46.0,36.0,9.0,85.0,836.613
836623.0,47.0,36.0,9.0,90.0,836.623
836633.0,48.0,37.0,8.0,91.0,836.633
836643.0,47.0,36.0,7.0,92.0,836.643
836653.0,48.0,36.0,7.0,89.0,836.653
836663.0,48.0,38.0,9.0,94.0,836.663
836673.0,49.0,36.0,14.0,101.0,836.673
836683.0,52.0,38.0,16.0,103.0,836.683
836694.0,52.0,37.0,15.0,102.0,836.694
836704.0,52.0,37.0,14.0,104.0,836.704
836714.0,50.0,36.0,10.0,102.0,836.714
836724.0,52.0,37.0,15.0,99.0,836.724
836734.0,52.0,39.0,14.0,97.0,836.734
836744.0,52.0,38.0,16.0,92.0,836.744
836754.0,52.0,39.0,17.0,87.0,836.754
836764.0,52.0,39.0,15.0,83.0,836.764
836774.0,52.0,38.0,14.0,99.0,836.774
836784.0,51.0,38.0,13.0,101.0,836.784
836794.0,52.0,39.0,16.0,94.0,836.794
836804.0,52.0,40.0,14.0,93.0,836.804
836814.0,52.0,40.0,14.0,96.0,836.814
836824.0,52.0,39.0,13.0,95.0,836.824
836834.0,53.0,39.0,12.0,92.0,836.834
836844.0,52.0,38.0,11.0,90.0,836.844
836854.0,52.0,38.0,10.0,86.0,836.854
836864.0,51.0,39.0,10.0,86.0,836.864
836874.0,52.0,39.0,10.0,93.0,836.874
836884.0,51.0,38.0,12.0,100.0,836.884
836894.0,52.0,39.0,10.0,108.0,836.894
836904.0,52.0,38.0,9.0,102.0,836.904
836914.0,53.0,38.0,10.0,100.0,836.914
836924.0,51.0,38.0,9.0,96.0,836.924
836934.0,51.0,37.0,10.0,94.0,836.934
836944.0,50.0,38.0,10.0,92.0,836.944
836954.0,50.0,36.0,11.0,86.0,836.954
836964.0,50.0,38.0,11.0,93.0,836.964
836974.0,49.0,38.0,9.0,90.0,836.974
836984.0,49.0,38.0,10.0,90.0,836.984
836994.0,48.0,39.0,10.0,88.0,836.994
837004.0,47.0,38.0,9.0,89.0,837.004
837014.0,47.0,41.0,10.0,90.0,837.014
837024.0,48.0,41.0,9.0,90.0,837.024
837035.0,49.0,42.0,9.0,91.0,837.035
837045.0,49.0,45.0,8.0,88.0,837.045
837055.0,48.0,47.0,12.0,88.0,837.055
837065.0,46.0,47.0,10.0,90.0,837.065
837075.0,47.0,47.0,15.0,85.0,837.075
837085.0,47.0,50.0,14.0,84.0,837.085
837095.0,47.0,49.0,13.0,80.0,837.095
837105.0,45.0,48.0,12.0,79.0,837.105
837115.0,47.0,46.0,11.0,80.0,837.115
837125.0,48.0,46.0,12.0,80.0,837.125
837135.0,48.0,45.0,13.0,76.0,837.135
837145.0,51.0,45.0,13.0,76.0,837.145
837155.0,51.0,44.0,12.0,76.0,837.155
837165.0,52.0,42.0,11.0,74.0,837.165
837175.0,53.0,42.0,11.0,76.0,837.175
837185.0,53.0,41.0,10.0,86.0,837.185
837195.0,55.0,41.0,13.0,81.0,837.195
837206.0,54.0,42.0,14.0,84.0,837.206
837216.0,56.0,44.0,11.0,89.0,837.216
837226.0,57.0,43.0,11.0,84.0,837.226
837236.0,57.0,42.0,11.0,78.0,837.236
837246.0,57.0,43.0,9.0,73.0,837.246
837256.0,56.0,42.0,9.0,70.0,837.256
837266.0,56.0,42.0,9.0,75.0,837.266
837276.0,54.0,42.0,12.0,78.0,837.276
837286.0,55.0,43.0,16.0,71.0,837.286
837296.0,56.0,43.0,15.0,73.0,837.296
837306.0,55.0,44.0,14.0,68.0,837.306
837316.0,55.0,46.0,12.0,64.0,837.316
837326.0,54.0,47.0,12.0,73.0,837.326
837336.0,55.0,48.0,12.0,91.0,837.336
837346.0,54.0,48.0,16.0,95.0,837.346
837356.0,57.0,49.0,16.0,95.0,837.356
837366.0,57.0,50.0,14.0,97.0,837.366
837376.0,59.0,49.0,13.0,93.0,837.376
837386.0,59.0,48.0,11.0,101.0,837.386
837396.0,59.0,48.0,11.0,100.0,837.396
837406.0,61.0,47.0,10.0,90.0,837.406
837416.0,60.0,46.0,8.0,89.0,837.416
837426.0,60.0,44.0,16.0,93.0,837.426
837436.0,63.0,45.0,18.0,96.0,837.436
837446.0,61.0,44.0,16.0,94.0,837.446
837456.0,61.0,43.0,15.0,89.0,837.456
837466.0,63.0,45.0,13.0,85.0,837.466
837476.0,65.0,45.0,12.0,83.0,837.476
837486.0,64.0,44.0,10.0,84.0,837.486
837496.0,64.0,42.0,13.0,89.0,837.496
837506.0,65.0,43.0,11.0,87.0,837.506
837516.0,65.0,40.0,11.0,96.0,837.516
837526.0,67.0,40.0,10.0,101.0,837.526
837536.0,67.0,39.0,9.0,96.0,837.536
837547.0,68.0,38.0,10.0,91.0,837.547
837557.0,67.0,37.0,9.0,89.0,837.557
837567.0,67.0,37.0,11.0,86.0,837.567
837577.0,69.0,39.0,11.0,82.0,837.577
837587.0,70.0,36.0,10.0,94.0,837.587
837597.0,71.0,37.0,10.0,94.0,837.597
837607.0,72.0,37.0,9.0,104.0,837.607
837617.0,73.0,35.0,9.0,110.0,837.617
837627.0,71.0,36.0,6.0,114.0,837.627
837637.0,70.0,36.0,7.0,107.0,837.637
837647.0,70.0,37.0,7.0,109.0,837.647
837657.0,70.0,36.0,10.0,103.0,837.657
837667.0,70.0,37.0,9.0,98.0,837.667
837677.0,71.0,37.0,10.0,98.0,837.677
837687.0,72.0,37.0,8.0,115.0,837.687
837697.0,70.0,36.0,8.0,112.0,837.697
837707.0,71.0,38.0,8.0,104.0,837.707
837718.0,70.0,38.0,10.0,105.0,837.718
837728.0,71.0,38.0,10.0,96.0,837.728
837738.0,69.0,38.0,9.0,109.0,837.738
837748.0,69.0,39.0,11.0,116.0,837.748
837758.0,68.0,39.0,10.0,109.0,837.758
837768.0,66.0,39.0,9.0,108.0,837.768
837778.0,65.0,37.0,8.0,104.0,837.778
837788.0,64.0,38.0,9.0,113.0,837.788
837798.0,62.0,36.0,9.0,108.0,837.798
837808.0,61.0,37.0,8.0,98.0,837.808
837818.0,61.0,37.0,8.0,90.0,837.818
837828.0,61.0,37.0,12.0,95.0,837.828
837838.0,58.0,36.0,10.0,94.0,837.838
837848.0,60.0,37.0,13.0,110.0,837.848
837858.0,60.0,39.0,11.0,116.0,837.858
837868.0,61.0,37.0,9.0,108.0,837.868
837878.0,62.0,38.0,9.0,101.0,837.878
837888.0,60.0,36.0,9.0,101.0,837.888
837898.0,61.0,35.0,9.0,110.0,837.898
837908.0,60.0,36.0,13.0,109.0,837.908
837918.0,61.0,35.0,14.0,109.0,837.918
837928.0,62.0,40.0,11.0,112.0,837.928
837938.0,61.0,38.0,13.0,103.0,837.938
837948.0,61.0,40.0,11.0,97.0,837.948
837958.0,62.0,40.0,11.0,95.0,837.958
837968.0,62.0,40.0,10.0,95.0,837.968
837978.0,62.0,42.0,8.0,92.0,837.978
837988.0,63.0,41.0,10.0,85.0,837.988
837998.0,64.0,43.0,11.0,85.0,837.998
838008.0,62.0,42.0,10.0,84.0,838.008
838018.0,63.0,43.0,10.0,92.0,838.018
838028.0,63.0,43.0,9.0,85.0,838.028
838038.0,64.0,45.0,9.0,79.0,838.038
838048.0,62.0,44.0,7.0,78.0,838.048
838059.0,62.0,45.0,8.0,77.0,838.059
838069.0,59.0,44.0,7.0,86.0,838.069
838079.0,60.0,44.0,7.0,82.0,838.079
838089.0,60.0,43.0,13.0,80.0,838.089
838099.0,61.0,42.0,12.0,85.0,838.099
838109.0,63.0,41.0,11.0,93.0,838.109
838119.0,62.0,40.0,10.0,98.0,838.119
838129.0,62.0,39.0,9.0,98.0,838.129
838139.0,62.0,39.0,9.0,99.0,838.139
838149.0,61.0,38.0,10.0,94.0,838.149
838159.0,62.0,39.0,9.0,91.0,838.159
838169.0,62.0,38.0,9.0,96.0,838.169
838179.0,63.0,37.0,9.0,99.0,838.179
838189.0,63.0,39.0,9.0,102.0,838.189
838199.0,63.0,38.0,9.0,98.0,838.199
838209.0,62.0,39.0,10.0,97.0,838.209
838219.0,61.0,36.0,12.0,92.0,838.219
838230.0,62.0,37.0,12.0,89.0,838.23
838240.0,62.0,37.0,11.0,94.0,838.24
838250.0,63.0,35.0,10.0,91.0,838.25
838260.0,64.0,36.0,8.0,93.0,838.26
838270.0,64.0,36.0,9.0,92.0,838.27
838280.0,64.0,37.0,10.0,88.0,838.28
838290.0,64.0,36.0,14.0,94.0,838.29
838300.0,66.0,36.0,12.0,102.0,838.3
838310.0,67.0,36.0,12.0,103.0,838.31
838320.0,68.0,35.0,11.0,103.0,838.32
838330.0,69.0,36.0,13.0,99.0,838.33
838340.0,70.0,36.0,12.0,113.0,838.34
838350.0,70.0,35.0,16.0,111.0,838.35
838360.0,72.0,37.0,14.0,108.0,838.36
838370.0,73.0,38.0,13.0,108.0,838.37
838380.0,72.0,38.0,13.0,103.0,838.38
838390.0,71.0,36.0,11.0,100.0,838.39
838400.0,71.0,36.0,9.0,98.0,838.4
838410.0,72.0,35.0,10.0,94.0,838.41
838420.0,70.0,36.0,11.0,91.0,838.42
838430.0,71.0,35.0,9.0,87.0,838.43
838440.0,71.0,35.0,9.0,92.0,838.44
838450.0,70.0,35.0,9.0,111.0,838.45
838460.0,72.0,35.0,10.0,115.0,838.46
838470.0,71.0,35.0,12.0,111.0,838.47
838480.0,70.0,34.0,12.0,113.0,838.48
838490.0,71.0,36.0,11.0,109.0,838.49
838500.0,70.0,35.0,14.0,109.0,838.5
838510.0,70.0,34.0,13.0,114.0,838.51
838520.0,70.0,35.0,14.0,114.0,838.52
838530.0,71.0,34.0,12.0,112.0,838.53
838540.0,70.0,35.0,14.0,105.0,838.54
838550.0,72.0,35.0,15.0,97.0,838.55
838560.0,72.0,35.0,13.0,106.0,838.56
838571.0,71.0,33.0,13.0,104.0,838.571
838581.0,72.0,34.0,12.0,96.0,838.581
838591.0,71.0,34.0,11.0,97.0,838.591
838601.0,73.0,35.0,11.0,94.0,838.601
838611.0,74.0,35.0,8.0,97.0,838.611
838621.0,74.0,35.0,10.0,97.0,838.621
838631.0,74.0,37.0,9.0,91.0,838.631
838641.0,75.0,36.0,9.0,96.0,838.641
838651.0,74.0,34.0,9.0,87.0,838.651
838661.0,76.0,36.0,9.0,85.0,838.661
838671.0,77.0,35.0,9.0,99.0,838.671
838681.0,74.0,36.0,7.0,90.0,838.681
838691.0,74.0,35.0,8.0,83.0,838.691
838701.0,71.0,37.0,8.0,89.0,838.701
838711.0,71.0,36.0,8.0,87.0,838.711
838721.0,71.0,36.0,6.0,88.0,838.721
838731.0,70.0,36.0,7.0,83.0,838.731
838742.0,70.0,37.0,7.0,83.0,838.742
838752.0,68.0,38.0,5.0,87.0,838.752
838762.0,69.0,38.0,7.0,83.0,838.762
838772.0,69.0,40.0,7.0,80.0,838.772
838782.0,69.0,39.0,8.0,80.0,838.782
838792.0,71.0,40.0,9.0,80.0,838.792
838802.0,72.0,41.0,10.0,78.0,838.802
838812.0,73.0,41.0,10.0,79.0,838.812
838822.0,72.0,42.0,10.0,78.0,838.822
838832.0,72.0,41.0,10.0,82.0,838.832
838842.0,71.0,42.0,10.0,108.0,838.842
838852.0,71.0,41.0,10.0,103.0,838.852
838862.0,71.0,43.0,9.0,99.0,838.862
838872.0,71.0,43.0,10.0,93.0,838.872
838882.0,69.0,45.0,9.0,94.0,838.882
838892.0,69.0,44.0,8.0,97.0,838.892
838902.0,67.0,43.0,7.0,117.0,838.902
838912.0,66.0,44.0,6.0,110.0,838.912
838922.0,65.0,46.0,10.0,102.0,838.922
838932.0,64.0,46.0,9.0,101.0,838.932
838942.0,63.0,47.0,8.0,95.0,838.942
838952.0,63.0,47.0,9.0,97.0,838.952
838962.0,62.0,47.0,9.0,95.0,838.962
838972.0,60.0,48.0,9.0,97.0,838.972
838982.0,60.0,50.0,8.0,95.0,838.982
838992.0,59.0,50.0,8.0,86.0,838.992
839002.0,58.0,52.0,9.0,81.0,839.002
839012.0,57.0,53.0,13.0,94.0,839.012
839022.0,57.0,54.0,13.0,91.0,839.022
839032.0,55.0,54.0,12.0,87.0,839.032
839042.0,55.0,53.0,12.0,81.0,839.042
839052.0,55.0,53.0,11.0,81.0,839.052
839062.0,54.0,50.0,10.0,78.0,839.062
839072.0,55.0,50.0,9.0,104.0,839.072
839083.0,54.0,48.0,9.0,100.0,839.083
839093.0,53.0,48.0,11.0,102.0,839.093
839103.0,55.0,46.0,10.0,99.0,839.103
839113.0,56.0,45.0,9.0,95.0,839.113
839123.0,58.0,45.0,9.0,91.0,839.123
839133.0,59.0,44.0,9.0,86.0,839.133
839143.0,61.0,42.0,7.0,88.0,839.143
839153.0,63.0,41.0,8.0,82.0,839.153
839163.0,64.0,40.0,8.0,84.0,839.163
