time (ms),signal 0,signal 1,signal 2,signal3,time (sec)
842729.0,54.0,46.0,16.0,100.0,842.729
842739.0,55.0,46.0,14.0,95.0,842.739
842749.0,58.0,47.0,12.0,96.0,842.749
842759.0,60.0,47.0,11.0,93.0,842.759
842769.0,62.0,46.0,11.0,96.0,842.769
842779.0,61.0,44.0,11.0,92.0,842.779
842789.0,62.0,45.0,9.0,96.0,842.789
842799.0,62.0,42.0,9.0,101.0,842.799
842809.0,62.0,42.0,12.0,101.0,842.809
842819.0,63.0,41.0,12.0,97.0,842.819
842829.0,61.0,40.0,16.0,100.0,842.829
842839.0,60.0,39.0,15.0,97.0,842.839
842849.0,60.0,38.0,15.0,102.0,842.849
842859.0,58.0,39.0,13.0,103.0,842.859
842869.0,59.0,37.0,14.0,99.0,842.869
842880.0,57.0,38.0,12.0,99.0,842.88
842890.0,58.0,37.0,12.0,93.0,842.89
842900.0,57.0,37.0,10.0,93.0,842.9
842910.0,57.0,38.0,12.0,90.0,842.91
842920.0,58.0,38.0,12.0,95.0,842.92
842930.0,57.0,37.0,12.0,101.0,842.93
842940.0,58.0,38.0,12.0,110.0,842.94
842950.0,58.0,36.0,10.0,104.0,842.95
842960.0,60.0,37.0,11.0,95.0,842.96
842970.0,59.0,37.0,9.0,90.0,842.97
842980.0,61.0,37.0,8.0,92.0,842.98
842990.0,61.0,36.0,9.0,94.0,842.99
843000.0,61.0,37.0,9.0,96.0,843.0
843010.0,63.0,35.0,10.0,105.0,843.01
843020.0,65.0,36.0,8.0,106.0,843.02
843030.0,67.0,36.0,8.0,102.0,843.03
843040.0,68.0,36.0,8.0,102.0,843.04
843051.0,67.0,35.0,7.0,100.0,843.051
843061.0,67.0,34.0,7.0,99.0,843.061
843071.0,67.0,34.0,8.0,102.0,843.071
843081.0,68.0,35.0,9.0,106.0,843.081
843091.0,68.0,35.0,6.0,102.0,843.091
843101.0,67.0,36.0,9.0,94.0,843.101
843111.0,66.0,37.0,9.0,104.0,843.111
843121.0,65.0,37.0,9.0,99.0,843.121
843131.0,63.0,39.0,10.0,93.0,843.131
843141.0,63.0,39.0,8.0,92.0,843.141
843151.0,61.0,39.0,8.0,90.0,843.151
843161.0,61.0,40.0,7.0,85.0,843.161
843171.0,60.0,40.0,9.0,82.0,843.171
843181.0,60.0,40.0,8.0,83.0,843.181
843191.0,60.0,40.0,7.0,87.0,843.191
843201.0,61.0,39.0,6.0,100.0,843.201
843211.0,61.0,40.0,7.0,106.0,843.211
843222.0,62.0,40.0,9.0,99.0,843.222
843232.0,60.0,40.0,7.0,90.0,843.232
843242.0,61.0,40.0,8.0,88.0,843.242
843252.0,59.0,41.0,8.0,84.0,843.252
843262.0,59.0,40.0,9.0,86.0,843.262
843272.0,60.0,40.0,9.0,87.0,843.272
843282.0,60.0,42.0,10.0,86.0,843.282
843292.0,60.0,43.0,11.0,82.0,843.292
843302.0,59.0,44.0,7.0,85.0,843.302
843312.0,58.0,46.0,13.0,83.0,843.312
843322.0,58.0,46.0,12.0,89.0,843.322
843332.0,59.0,47.0,12.0,86.0,843.332
843342.0,60.0,45.0,11.0,92.0,843.342
843352.0,59.0,45.0,10.0,92.0,843.352
843362.0,60.0,43.0,10.0,91.0,843.362
843372.0,58.0,43.0,9.0,88.0,843.372
843382.0,60.0,43.0,9.0,89.0,843.382
843392.0,60.0,44.0,8.0,96.0,843.392
843402.0,59.0,44.0,7.0,97.0,843.402
843412.0,58.0,46.0,13.0,90.0,843.412
843422.0,58.0,44.0,13.0,89.0,843.422
843432.0,58.0,43.0,13.0,89.0,843.432
843442.0,56.0,42.0,12.0,87.0,843.442
843452.0,55.0,43.0,11.0,87.0,843.452
843462.0,55.0,41.0,11.0,86.0,843.462
843472.0,55.0,40.0,9.0,80.0,843.472
843482.0,54.0,39.0,9.0,74.0,843.482
843492.0,54.0,41.0,9.0,68.0,843.492
843502.0,55.0,40.0,12.0,67.0,843.502
843512.0,52.0,40.0,10.0,64.0,843.512
843522.0,53.0,39.0,11.0,70.0,843.522
843532.0,52.0,39.0,9.0,68.0,843.532
843542.0,51.0,40.0,9.0,75.0,843.542
843552.0,52.0,38.0,9.0,81.0,843.552
843563.0,52.0,39.0,9.0,92.0,843.563
843573.0,54.0,39.0,9.0,91.0,843.573
843583.0,52.0,40.0,7.0,93.0,843.583
843593.0,52.0,41.0,11.0,93.0,843.593
843603.0,54.0,41.0,11.0,89.0,843.603
843613.0,54.0,42.0,10.0,82.0,843.613
843623.0,54.0,44.0,11.0,78.0,843.623
843633.0,54.0,44.0,10.0,90.0,843.633
843643.0,54.0,43.0,8.0,86.0,843.643
843653.0,55.0,43.0,7.0,93.0,843.653
843663.0,54.0,47.0,12.0,85.0,843.663
843673.0,55.0,47.0,11.0,87.0,843.673
843683.0,54.0,50.0,10.0,96.0,843.683
843693.0,54.0,50.0,13.0,98.0,843.693
843703.0,53.0,51.0,17.0,95.0,843.703
843713.0,54.0,53.0,17.0,94.0,843.713
843723.0,52.0,53.0,14.0,92.0,843.723
843734.0,54.0,52.0,13.0,84.0,843.734
843744.0,53.0,52.0,11.0,79.0,843.744
843754.0,52.0,53.0,11.0,88.0,843.754
843764.0,52.0,54.0,9.0,89.0,843.764
843774.0,52.0,52.0,9.0,104.0,843.774
843784.0,53.0,51.0,16.0,108.0,843.784
843794.0,53.0,53.0,17.0,104.0,843.794
843804.0,54.0,52.0,17.0,100.0,843.804
843814.0,54.0,53.0,14.0,100.0,843.814
843824.0,54.0,52.0,14.0,103.0,843.824
843834.0,55.0,51.0,11.0,99.0,843.834
843844.0,53.0,52.0,10.0,91.0,843.844
843854.0,56.0,53.0,13.0,91.0,843.854
843864.0,54.0,53.0,11.0,88.0,843.864
843874.0,54.0,54.0,12.0,84.0,843.874
843884.0,56.0,53.0,10.0,85.0,843.884
843894.0,57.0,52.0,12.0,87.0,843.894
843904.0,59.0,51.0,13.0,83.0,843.904
843914.0,59.0,51.0,12.0,85.0,843.914
843924.0,59.0,51.0,12.0,87.0,843.924
843934.0,59.0,53.0,10.0,87.0,843.934
843944.0,60.0,52.0,9.0,88.0,843.944
843954.0,60.0,52.0,9.0,87.0,843.954
843964.0,59.0,51.0,8.0,88.0,843.964
843974.0,60.0,49.0,8.0,87.0,843.974
843984.0,59.0,49.0,7.0,86.0,843.984
843994.0,59.0,50.0,9.0,83.0,843.994
844004.0,57.0,48.0,8.0,78.0,844.004
844014.0,55.0,48.0,8.0,72.0,844.014
844024.0,54.0,49.0,7.0,85.0,844.024
844034.0,53.0,49.0,7.0,90.0,844.034
844044.0,53.0,48.0,6.0,90.0,844.044
844054.0,52.0,48.0,5.0,87.0,844.054
844064.0,52.0,48.0,6.0,82.0,844.064
844075.0,51.0,48.0,6.0,94.0,844.075
844085.0,50.0,48.0,12.0,99.0,844.085
844095.0,50.0,48.0,11.0,99.0,844.095
844105.0,51.0,48.0,13.0,92.0,844.105
844115.0,53.0,48.0,13.0,94.0,844.115
844125.0,52.0,49.0,14.0,100.0,844.125
844135.0,54.0,48.0,14.0,96.0,844.135
844145.0,54.0,49.0,12.0,94.0,844.145
844155.0,54.0,51.0,14.0,89.0,844.155
844165.0,54.0,50.0,12.0,83.0,844.165
844175.0,56.0,50.0,11.0,86.0,844.175
844185.0,58.0,50.0,10.0,82.0,844.185
844195.0,58.0,51.0,9.0,83.0,844.195
844205.0,60.0,51.0,10.0,94.0,844.205
844215.0,58.0,51.0,8.0,95.0,844.215
844225.0,58.0,51.0,8.0,88.0,844.225
844235.0,58.0,52.0,13.0,83.0,844.235
844246.0,58.0,52.0,12.0,83.0,844.246
844256.0,60.0,49.0,12.0,87.0,844.256
844266.0,59.0,51.0,12.0,82.0,844.266
844276.0,59.0,52.0,15.0,90.0,844.276
844286.0,59.0,52.0,12.0,94.0,844.286
844296.0,58.0,53.0,12.0,90.0,844.296
844306.0,60.0,55.0,11.0,93.0,844.306
844316.0,59.0,57.0,11.0,88.0,844.316
844326.0,58.0,58.0,10.0,87.0,844.326
844336.0,57.0,59.0,11.0,88.0,844.336
844346.0,58.0,57.0,13.0,91.0,844.346
844356.0,58.0,57.0,10.0,96.0,844.356
844366.0,58.0,56.0,10.0,109.0,844.366
844376.0,58.0,56.0,21.0,110.0,844.376
844386.0,58.0,55.0,18.0,108.0,844.386
844396.0,58.0,54.0,19.0,108.0,844.396
844406.0,58.0,55.0,19.0,111.0,844.406
844416.0,57.0,53.0,17.0,103.0,844.416
844426.0,56.0,52.0,14.0,97.0,844.426
844436.0,56.0,52.0,15.0,92.0,844.436
844446.0,55.0,53.0,13.0,98.0,844.446
844456.0,56.0,55.0,13.0,92.0,844.456
844466.0,56.0,54.0,12.0,89.0,844.466
844476.0,57.0,54.0,11.0,88.0,844.476
844486.0,59.0,53.0,11.0,87.0,844.486
844496.0,58.0,53.0,10.0,86.0,844.496
844506.0,60.0,52.0,11.0,83.0,844.506
844516.0,61.0,51.0,10.0,88.0,844.516
844526.0,62.0,49.0,9.0,92.0,844.526
844536.0,63.0,48.0,9.0,93.0,844.536
844546.0,61.0,48.0,9.0,89.0,844.546
844556.0,63.0,47.0,12.0,87.0,844.556
844566.0,62.0,46.0,10.0,87.0,844.566
844576.0,62.0,46.0,9.0,89.0,844.576
844587.0,62.0,47.0,9.0,98.0,844.587
844597.0,60.0,46.0,15.0,89.0,844.597
844607.0,60.0,44.0,13.0,93.0,844.607
844617.0,57.0,45.0,12.0,87.0,844.617
844627.0,57.0,43.0,14.0,91.0,844.627
844637.0,57.0,44.0,12.0,94.0,844.637
844647.0,55.0,45.0,13.0,101.0,844.647
844657.0,55.0,43.0,12.0,105.0,844.657
844667.0,56.0,42.0,11.0,99.0,844.667
844677.0,55.0,40.0,11.0,96.0,844.677
844687.0,55.0,40.0,11.0,89.0,844.687
844697.0,55.0,39.0,11.0,97.0,844.697
844707.0,54.0,39.0,10.0,97.0,844.707
844717.0,55.0,38.0,11.0,99.0,844.717
844727.0,53.0,39.0,9.0,96.0,844.727
844737.0,52.0,38.0,9.0,90.0,844.737
844747.0,52.0,39.0,9.0,101.0,844.747
844758.0,51.0,39.0,9.0,99.0,844.758
844768.0,50.0,39.0,10.0,96.0,844.768
844778.0,50.0,41.0,10.0,91.0,844.778
844788.0,49.0,41.0,10.0,97.0,844.788
844798.0,50.0,43.0,10.0,95.0,844.798
844808.0,50.0,41.0,9.0,94.0,844.808
844818.0,50.0,41.0,8.0,89.0,844.818
844828.0,49.0,41.0,7.0,86.0,844.828
844838.0,50.0,42.0,11.0,81.0,844.838
844848.0,49.0,42.0,10.0,75.0,844.848
844858.0,49.0,43.0,10.0,85.0,844.858
844868.0,50.0,44.0,14.0,93.0,844.868
844878.0,51.0,43.0,12.0,111.0,844.878
844888.0,53.0,42.0,11.0,106.0,844.888
844898.0,51.0,43.0,10.0,98.0,844.898
844908.0,54.0,43.0,9.0,88.0,844.908
844918.0,54.0,42.0,10.0,91.0,844.918
844928.0,54.0,41.0,11.0,96.0,844.928
844938.0,54.0,43.0,14.0,96.0,844.938
844948.0,56.0,41.0,16.0,96.0,844.948
844958.0,55.0,39.0,14.0,88.0,844.958
844968.0,55.0,39.0,13.0,86.0,844.968
844978.0,57.0,39.0,13.0,88.0,844.978
844988.0,55.0,39.0,10.0,89.0,844.988
844998.0,55.0,39.0,10.0,85.0,844.998
845008.0,54.0,41.0,11.0,93.0,845.008
845018.0,53.0,42.0,11.0,90.0,845.018
845028.0,55.0,42.0,12.0,90.0,845.028
845038.0,53.0,44.0,13.0,89.0,845.038
845048.0,54.0,45.0,12.0,83.0,845.048
845058.0,54.0,47.0,12.0,88.0,845.058
845068.0,53.0,47.0,10.0,104.0,845.068
845078.0,52.0,47.0,12.0,106.0,845.078
845088.0,51.0,48.0,13.0,99.0,845.088
845099.0,51.0,48.0,13.0,93.0,845.099
845109.0,49.0,50.0,12.0,103.0,845.109
845119.0,51.0,50.0,11.0,102.0,845.119
845129.0,50.0,51.0,10.0,107.0,845.129
845139.0,49.0,51.0,10.0,102.0,845.139
845149.0,48.0,53.0,7.0,101.0,845.149
845159.0,48.0,53.0,10.0,114.0,845.159
845169.0,50.0,52.0,9.0,108.0,845.169
845179.0,48.0,53.0,9.0,108.0,845.179
845189.0,51.0,51.0,9.0,106.0,845.189
845199.0,48.0,50.0,10.0,97.0,845.199
845209.0,49.0,47.0,8.0,95.0,845.209
845219.0,50.0,47.0,8.0,101.0,845.219
845229.0,51.0,47.0,11.0,97.0,845.229
845239.0,51.0,46.0,10.0,97.0,845.239
845249.0,51.0,45.0,12.0,97.0,845.249
845259.0,51.0,43.0,11.0,94.0,845.259
845270.0,50.0,42.0,14.0,89.0,845.27
845280.0,51.0,41.0,13.0,87.0,845.28
845290.0,51.0,41.0,11.0,86.0,845.29
845300.0,51.0,40.0,13.0,97.0,845.3
845310.0,51.0,39.0,11.0,100.0,845.31
845320.0,51.0,38.0,11.0,97.0,845.32
845330.0,52.0,37.0,10.0,95.0,845.33
845340.0,52.0,37.0,10.0,91.0,845.34
845350.0,52.0,36.0,10.0,94.0,845.35
845360.0,51.0,38.0,9.0,100.0,845.36
845370.0,51.0,37.0,9.0,100.0,845.37
845380.0,51.0,36.0,9.0,95.0,845.38
845390.0,51.0,36.0,8.0,106.0,845.39
845400.0,51.0,35.0,8.0,107.0,845.4
845410.0,49.0,35.0,7.0,120.0,845.41
845420.0,48.0,36.0,7.0,113.0,845.42
845430.0,47.0,37.0,6.0,111.0,845.43
845440.0,46.0,38.0,13.0,104.0,845.44
845450.0,48.0,38.0,15.0,115.0,845.45
845460.0,48.0,38.0,13.0,104.0,845.46
845470.0,48.0,39.0,12.0,103.0,845.47
845480.0,48.0,42.0,12.0,100.0,845.48
845490.0,50.0,44.0,10.0,96.0,845.49
845500.0,50.0,47.0,10.0,107.0,845.5
845510.0,50.0,48.0,9.0,99.0,845.51
845520.0,50.0,50.0,8.0,93.0,845.52
845530.0,49.0,53.0,8.0,89.0,845.53
845540.0,53.0,53.0,8.0,86.0,845.54
845550.0,54.0,55.0,6.0,78.0,845.55
845560.0,54.0,57.0,7.0,85.0,845.56
845570.0,55.0,59.0,7.0,88.0,845.57
845580.0,56.0,59.0,6.0,86.0,845.58
845590.0,57.0,58.0,9.0,79.0,845.59
845600.0,57.0,57.0,8.0,77.0,845.6
845611.0,56.0,57.0,9.0,76.0,845.611
845621.0,54.0,58.0,6.0,78.0,845.621
845631.0,54.0,57.0,9.0,81.0,845.631
845641.0,56.0,56.0,8.0,80.0,845.641
845651.0,57.0,55.0,8.0,79.0,845.651
845661.0,57.0,54.0,8.0,81.0,845.661
845671.0,56.0,55.0,8.0,81.0,845.671
845681.0,58.0,53.0,8.0,75.0,845.681
845691.0,56.0,54.0,7.0,87.0,845.691
845701.0,55.0,54.0,8.0,91.0,845.701
845711.0,56.0,53.0,10.0,96.0,845.711
845721.0,55.0,52.0,9.0,98.0,845.721
845731.0,55.0,52.0,9.0,101.0,845.731
845741.0,55.0,51.0,8.0,100.0,845.741
845751.0,55.0,51.0,8.0,96.0,845.751
845761.0,54.0,50.0,8.0,97.0,845.761
845771.0,54.0,48.0,8.0,89.0,845.771
845782.0,54.0,49.0,8.0,87.0,845.782
845792.0,55.0,47.0,8.0,87.0,845.792
845802.0,55.0,46.0,8.0,95.0,845.802
845812.0,55.0,47.0,7.0,87.0,845.812
845822.0,55.0,47.0,7.0,90.0,845.822
845832.0,54.0,49.0,6.0,87.0,845.832
845842.0,55.0,49.0,8.0,85.0,845.842
845852.0,56.0,50.0,11.0,80.0,845.852
845862.0,55.0,50.0,13.0,84.0,845.862
845872.0,56.0,50.0,14.0,96.0,845.872
845882.0,58.0,50.0,16.0,116.0,845.882
845892.0,58.0,48.0,15.0,110.0,845.892
845902.0,58.0,48.0,12.0,102.0,845.902
845912.0,59.0,49.0,12.0,95.0,845.912
845922.0,59.0,50.0,11.0,111.0,845.922
845932.0,59.0,49.0,10.0,119.0,845.932
845942.0,58.0,50.0,14.0,113.0,845.942
845952.0,57.0,50.0,13.0,108.0,845.952
845962.0,58.0,50.0,16.0,100.0,845.962
845972.0,58.0,49.0,14.0,96.0,845.972
845982.0,58.0,49.0,13.0,101.0,845.982
845992.0,57.0,49.0,12.0,104.0,845.992
846002.0,58.0,49.0,12.0,104.0,846.002
846012.0,58.0,50.0,11.0,100.0,846.012
846022.0,58.0,51.0,9.0,98.0,846.022
846032.0,57.0,52.0,11.0,98.0,846.032
846042.0,57.0,52.0,11.0,97.0,846.042
846052.0,56.0,51.0,10.0,100.0,846.052
846062.0,54.0,53.0,10.0,96.0,846.062
846072.0,55.0,51.0,12.0,92.0,846.072
846082.0,56.0,48.0,11.0,90.0,846.082
846092.0,55.0,48.0,9.0,88.0,846.092
846102.0,54.0,47.0,9.0,88.0,846.102
846112.0,50.0,48.0,7.0,82.0,846.112
846123.0,50.0,47.0,8.0,95.0,846.123
846133.0,50.0,49.0,8.0,103.0,846.133
846143.0,48.0,47.0,9.0,100.0,846.143
846153.0,49.0,46.0,10.0,102.0,846.153
846163.0,49.0,45.0,10.0,99.0,846.163
846173.0,50.0,45.0,10.0,102.0,846.173
846183.0,49.0,47.0,9.0,97.0,846.183
846193.0,49.0,49.0,12.0,101.0,846.193
846203.0,50.0,49.0,10.0,101.0,846.203
846213.0,50.0,48.0,9.0,100.0,846.213
846223.0,52.0,47.0,8.0,94.0,846.223
846233.0,52.0,46.0,11.0,106.0,846.233
846243.0,53.0,46.0,11.0,101.0,846.243
846253.0,54.0,46.0,9.0,104.0,846.253
846263.0,55.0,45.0,9.0,101.0,846.263
846273.0,56.0,46.0,8.0,104.0,846.273
846283.0,57.0,44.0,8.0,96.0,846.283
846294.0,57.0,45.0,7.0,97.0,846.294
846304.0,57.0,46.0,7.0,96.0,846.304
846314.0,58.0,47.0,8.0,97.0,846.314
846324.0,58.0,45.0,12.0,93.0,846.324
846334.0,60.0,44.0,12.0,89.0,846.334
846344.0,59.0,45.0,11.0,85.0,846.344
846354.0,59.0,42.0,11.0,79.0,846.354
846364.0,58.0,42.0,10.0,80.0,846.364
846374.0,57.0,43.0,9.0,79.0,846.374
846384.0,60.0,42.0,9.0,80.0,846.384
846394.0,57.0,43.0,9.0,85.0,846.394
846404.0,57.0,44.0,8.0,95.0,846.404
846414.0,57.0,46.0,8.0,102.0,846.414
846424.0,58.0,45.0,10.0,96.0,846.424
846434.0,58.0,44.0,9.0,94.0,846.434
846444.0,57.0,45.0,9.0,85.0,846.444
846454.0,61.0,46.0,10.0,79.0,846.454
846464.0,58.0,46.0,8.0,72.0,846.464
846474.0,60.0,46.0,9.0,67.0,846.474
846484.0,59.0,47.0,8.0,65.0,846.484
846494.0,61.0,47.0,7.0,59.0,846.494
846504.0,62.0,47.0,7.0,58.0,846.504
846514.0,63.0,48.0,7.0,61.0,846.514
846524.0,64.0,49.0,8.0,72.0,846.524
846534.0,63.0,49.0,6.0,74.0,846.534
846544.0,63.0,49.0,6.0,72.0,846.544
846554.0,65.0,49.0,7.0,86.0,846.554
846564.0,66.0,50.0,8.0,83.0,846.564
846574.0,66.0,50.0,8.0,78.0,846.574
846584.0,65.0,49.0,9.0,79.0,846.584
846594.0,66.0,49.0,9.0,76.0,846.594
846604.0,64.0,50.0,6.0,71.0,846.604
846614.0,63.0,49.0,7.0,68.0,846.614
846624.0,62.0,55.0,6.0,65.0,846.624
846635.0,61.0,66.0,7.0,68.0,846.635
846645.0,75.0,103.0,17.0,99.0,846.645
846655.0,93.0,134.0,31.0,123.0,846.655
846665.0,116.0,131.0,36.0,130.0,846.665
846675.0,164.0,196.0,64.0,170.0,846.675
846685.0,189.0,214.0,71.0,187.0,846.685
846695.0,203.0,201.0,72.0,223.0,846.695
846705.0,206.0,247.0,74.0,207.0,846.705
846715.0,238.0,231.0,65.0,194.0,846.715
846725.0,248.0,242.0,64.0,215.0,846.725
846735.0,232.0,218.0,60.0,220.0,846.735
846745.0,231.0,226.0,67.0,212.0,846.745
846755.0,214.0,217.0,69.0,207.0,846.755
846765.0,196.0,215.0,60.0,195.0,846.765
846775.0,196.0,230.0,56.0,184.0,846.775
846785.0,222.0,243.0,59.0,221.0,846.785
846795.0,222.0,291.0,64.0,222.0,846.795
846806.0,216.0,292.0,58.0,259.0,846.806
846816.0,203.0,289.0,54.0,308.0,846.816
846826.0,192.0,309.0,50.0,366.0,846.826
846836.0,176.0,334.0,43.0,357.0,846.836
846846.0,160.0,312.0,39.0,319.0,846.846
846856.0,153.0,316.0,36.0,291.0,846.856
846866.0,143.0,315.0,33.0,276.0,846.866
846876.0,136.0,310.0,33.0,312.0,846.876
846886.0,125.0,313.0,35.0,316.0,846.886
846896.0,121.0,338.0,33.0,305.0,846.896
846906.0,120.0,323.0,32.0,300.0,846.906
846916.0,114.0,312.0,28.0,302.0,846.916
846926.0,106.0,303.0,25.0,285.0,846.926
846936.0,103.0,295.0,22.0,270.0,846.936
846946.0,100.0,286.0,19.0,259.0,846.946
846956.0,96.0,278.0,17.0,255.0,846.956
846966.0,90.0,271.0,15.0,257.0,846.966
846976.0,85.0,274.0,14.0,251.0,846.976
846986.0,82.0,271.0,13.0,242.0,846.986
846996.0,82.0,257.0,11.0,233.0,846.996
847006.0,79.0,249.0,11.0,242.0,847.006
847016.0,79.0,239.0,10.0,223.0,847.016
847026.0,75.0,233.0,9.0,216.0,847.026
847036.0,73.0,230.0,9.0,211.0,847.036
847046.0,70.0,221.0,7.0,201.0,847.046
847056.0,71.0,212.0,7.0,204.0,847.056
847066.0,70.0,215.0,8.0,185.0,847.066
847076.0,71.0,206.0,7.0,186.0,847.076
847086.0,70.0,199.0,9.0,179.0,847.086
847096.0,66.0,197.0,8.0,183.0,847.096
847106.0,63.0,189.0,10.0,209.0,847.106
847116.0,65.0,192.0,9.0,200.0,847.116
847126.0,65.0,191.0,8.0,190.0,847.126
847136.0,65.0,189.0,7.0,186.0,847.136
847147.0,64.0,178.0,12.0,182.0,847.147
847157.0,64.0,180.0,11.0,187.0,847.157
847167.0,62.0,172.0,10.0,181.0,847.167
847177.0,61.0,167.0,10.0,173.0,847.177
847187.0,61.0,166.0,9.0,163.0,847.187
847197.0,59.0,160.0,8.0,178.0,847.197
847207.0,57.0,158.0,8.0,193.0,847.207
847217.0,57.0,153.0,8.0,179.0,847.217
847227.0,56.0,151.0,7.0,172.0,847.227
847237.0,54.0,154.0,7.0,158.0,847.237
847247.0,54.0,161.0,8.0,181.0,847.247
847257.0,55.0,150.0,10.0,173.0,847.257
847267.0,54.0,144.0,9.0,160.0,847.267
847277.0,53.0,146.0,9.0,156.0,847.277
847287.0,52.0,143.0,9.0,184.0,847.287
847297.0,52.0,138.0,9.0,197.0,847.297
847307.0,52.0,136.0,8.0,204.0,847.307
847318.0,51.0,133.0,9.0,190.0,847.318
847328.0,51.0,134.0,8.0,183.0,847.328
847338.0,50.0,136.0,8.0,174.0,847.338
847348.0,51.0,135.0,7.0,183.0,847.348
847358.0,50.0,139.0,7.0,172.0,847.358
847368.0,51.0,137.0,6.0,161.0,847.368
847378.0,50.0,133.0,6.0,151.0,847.378
847388.0,52.0,131.0,5.0,141.0,847.388
847398.0,51.0,132.0,6.0,135.0,847.398
847408.0,51.0,131.0,6.0,153.0,847.408
847418.0,51.0,128.0,6.0,176.0,847.418
847428.0,49.0,131.0,6.0,171.0,847.428
847438.0,52.0,131.0,6.0,171.0,847.438
847448.0,52.0,126.0,6.0,198.0,847.448
847458.0,51.0,125.0,5.0,197.0,847.458
847468.0,50.0,122.0,5.0,190.0,847.468
847478.0,49.0,118.0,5.0,182.0,847.478
847488.0,49.0,117.0,5.0,166.0,847.488
847498.0,52.0,117.0,5.0,157.0,847.498
847508.0,51.0,117.0,6.0,164.0,847.508
847518.0,50.0,111.0,6.0,175.0,847.518
847528.0,50.0,108.0,7.0,179.0,847.528
847538.0,49.0,105.0,7.0,180.0,847.538
847548.0,49.0,102.0,6.0,192.0,847.548
847558.0,50.0,100.0,7.0,201.0,847.558
847568.0,49.0,100.0,7.0,218.0,847.568
847578.0,50.0,97.0,6.0,208.0,847.578
847588.0,50.0,100.0,5.0,209.0,847.588
847598.0,50.0,94.0,6.0,189.0,847.598
847608.0,49.0,101.0,5.0,176.0,847.608
847618.0,49.0,101.0,5.0,162.0,847.618
847628.0,49.0,103.0,5.0,170.0,847.628
847638.0,47.0,97.0,5.0,178.0,847.638
847648.0,48.0,95.0,5.0,160.0,847.648
847659.0,48.0,96.0,4.0,165.0,847.659
847669.0,47.0,92.0,5.0,165.0,847.669
847679.0,48.0,95.0,5.0,187.0,847.679
847689.0,46.0,88.0,6.0,180.0,847.689
847699.0,47.0,92.0,5.0,193.0,847.699
847709.0,45.0,90.0,5.0,195.0,847.709
847719.0,48.0,92.0,6.0,189.0,847.719
847729.0,48.0,97.0,4.0,187.0,847.729
847739.0,48.0,92.0,5.0,177.0,847.739
847749.0,46.0,90.0,5.0,167.0,847.749
847759.0,47.0,88.0,4.0,158.0,847.759
847769.0,47.0,83.0,5.0,147.0,847.769
847779.0,47.0,85.0,4.0,139.0,847.779
847789.0,46.0,90.0,5.0,134.0,847.789
847799.0,46.0,87.0,4.0,133.0,847.799
847809.0,48.0,87.0,4.0,129.0,847.809
847819.0,47.0,86.0,7.0,132.0,847.819
847830.0,46.0,86.0,6.0,132.0,847.83
847840.0,48.0,84.0,6.0,154.0,847.84
847850.0,47.0,80.0,6.0,142.0,847.85
847860.0,48.0,85.0,5.0,141.0,847.86
847870.0,46.0,95.0,9.0,142.0,847.87
847880.0,47.0,99.0,8.0,130.0,847.88
847890.0,47.0,93.0,8.0,131.0,847.89
847900.0,47.0,94.0,8.0,139.0,847.9
847910.0,48.0,91.0,7.0,141.0,847.91
847920.0,47.0,88.0,7.0,139.0,847.92
847930.0,50.0,86.0,6.0,136.0,847.93
847940.0,50.0,84.0,6.0,137.0,847.94
847950.0,49.0,93.0,6.0,140.0,847.95
847960.0,49.0,90.0,7.0,150.0,847.96
847970.0,50.0,90.0,8.0,155.0,847.97
847980.0,50.0,90.0,8.0,171.0,847.98
847990.0,48.0,90.0,8.0,207.0,847.99
848000.0,50.0,86.0,8.0,194.0,848.0
848010.0,49.0,85.0,6.0,188.0,848.01
848020.0,50.0,81.0,7.0,180.0,848.02
848030.0,51.0,77.0,6.0,179.0,848.03
848040.0,51.0,81.0,6.0,164.0,848.04
848050.0,51.0,81.0,7.0,153.0,848.05
848060.0,49.0,78.0,7.0,143.0,848.06
848070.0,50.0,82.0,7.0,136.0,848.07
848080.0,48.0,87.0,8.0,149.0,848.08
848090.0,49.0,87.0,9.0,166.0,848.09
848100.0,47.0,82.0,8.0,170.0,848.1
848110.0,47.0,79.0,9.0,171.0,848.11
848120.0,49.0,80.0,9.0,171.0,848.12
848130.0,49.0,81.0,8.0,165.0,848.13
848140.0,49.0,82.0,7.0,176.0,848.14
848150.0,48.0,82.0,6.0,183.0,848.15
848160.0,47.0,76.0,6.0,169.0,848.16
848171.0,49.0,74.0,10.0,163.0,848.171
848181.0,49.0,72.0,19.0,149.0,848.181
848191.0,55.0,86.0,60.0,158.0,848.191
848201.0,63.0,87.0,89.0,179.0,848.201
848211.0,68.0,91.0,150.0,210.0,848.211
848221.0,71.0,94.0,154.0,211.0,848.221
848231.0,79.0,97.0,170.0,201.0,848.231
848241.0,81.0,93.0,187.0,206.0,848.241
848251.0,93.0,96.0,170.0,214.0,848.251
848261.0,96.0,103.0,173.0,215.0,848.261
848271.0,97.0,101.0,182.0,232.0,848.271
848281.0,100.0,104.0,188.0,261.0,848.281
848291.0,106.0,114.0,182.0,248.0,848.291
848301.0,107.0,121.0,170.0,239.0,848.301
848311.0,113.0,145.0,178.0,252.0,848.311
848321.0,117.0,171.0,174.0,242.0,848.321
848331.0,119.0,195.0,155.0,252.0,848.331
848342.0,121.0,219.0,161.0,245.0,848.342
848352.0,127.0,243.0,150.0,235.0,848.352
848362.0,126.0,259.0,161.0,219.0,848.362
848372.0,131.0,273.0,159.0,208.0,848.372
848382.0,132.0,285.0,149.0,198.0,848.382
848392.0,135.0,291.0,136.0,203.0,848.392
848402.0,135.0,294.0,137.0,182.0,848.402
848412.0,137.0,297.0,128.0,172.0,848.412
848422.0,141.0,297.0,115.0,154.0,848.422
848432.0,139.0,293.0,113.0,156.0,848.432
848442.0,142.0,291.0,111.0,193.0,848.442
848452.0,140.0,288.0,110.0,184.0,848.452
848462.0,140.0,284.0,110.0,168.0,848.462
848472.0,139.0,280.0,103.0,158.0,848.472
848482.0,137.0,276.0,97.0,169.0,848.482
848492.0,135.0,270.0,87.0,173.0,848.492
848502.0,132.0,266.0,82.0,168.0,848.502
848512.0,132.0,262.0,73.0,161.0,848.512
848522.0,128.0,256.0,70.0,164.0,848.522
848532.0,123.0,249.0,93.0,168.0,848.532
848542.0,122.0,246.0,88.0,157.0,848.542
848552.0,120.0,242.0,85.0,146.0,848.552
848562.0,120.0,239.0,78.0,138.0,848.562
848572.0,117.0,236.0,71.0,130.0,848.572
848582.0,117.0,232.0,63.0,134.0,848.582
848592.0,114.0,227.0,58.0,135.0,848.592
848602.0,112.0,222.0,55.0,140.0,848.602
848612.0,111.0,220.0,56.0,136.0,848.612
848622.0,111.0,219.0,51.0,138.0,848.622
848632.0,110.0,216.0,46.0,132.0,848.632
848642.0,108.0,210.0,48.0,140.0,848.642
848652.0,108.0,206.0,49.0,139.0,848.652
848662.0,105.0,202.0,56.0,137.0,848.662
848672.0,104.0,195.0,56.0,129.0,848.672
848683.0,106.0,193.0,49.0,133.0,848.683
848693.0,105.0,188.0,43.0,123.0,848.693
848703.0,104.0,180.0,38.0,120.0,848.703
848713.0,101.0,175.0,44.0,123.0,848.713
848723.0,102.0,169.0,41.0,124.0,848.723
848733.0,101.0,167.0,39.0,124.0,848.733
848743.0,97.0,159.0,46.0,127.0,848.743
848753.0,97.0,158.0,45.0,126.0,848.753
848763.0,95.0,154.0,44.0,126.0,848.763
848773.0,96.0,152.0,39.0,115.0,848.773
848783.0,93.0,149.0,34.0,113.0,848.783
848793.0,90.0,145.0,30.0,108.0,848.793
848803.0,90.0,143.0,27.0,98.0,848.803
848813.0,90.0,140.0,27.0,91.0,848.813
848823.0,87.0,133.0,40.0,100.0,848.823
848833.0,87.0,134.0,39.0,94.0,848.833
848843.0,85.0,130.0,37.0,90.0,848.843
848854.0,85.0,129.0,32.0,98.0,848.854
848864.0,86.0,126.0,36.0,100.0,848.864
848874.0,83.0,121.0,40.0,100.0,848.874
848884.0,86.0,121.0,42.0,100.0,848.884
848894.0,83.0,116.0,41.0,101.0,848.894
848904.0,83.0,114.0,37.0,102.0,848.904
848914.0,84.0,112.0,36.0,131.0,848.914
848924.0,82.0,108.0,32.0,128.0,848.924
848934.0,82.0,106.0,33.0,117.0,848.934
848944.0,82.0,105.0,29.0,109.0,848.944
848954.0,80.0,101.0,38.0,112.0,848.954
848964.0,81.0,99.0,44.0,107.0,848.964
848974.0,82.0,100.0,41.0,120.0,848.974
848984.0,85.0,101.0,37.0,127.0,848.984
848994.0,82.0,97.0,38.0,119.0,848.994
849004.0,85.0,97.0,36.0,116.0,849.004
849014.0,85.0,95.0,31.0,119.0,849.014
849024.0,83.0,92.0,28.0,119.0,849.024
849034.0,83.0,89.0,34.0,122.0,849.034
849044.0,85.0,91.0,50.0,120.0,849.044
849054.0,85.0,89.0,44.0,115.0,849.054
849064.0,84.0,89.0,38.0,110.0,849.064
849074.0,84.0,87.0,34.0,107.0,849.074
849084.0,86.0,86.0,32.0,108.0,849.084
849094.0,84.0,84.0,28.0,106.0,849.094
849104.0,83.0,80.0,26.0,104.0,849.104
849114.0,85.0,82.0,27.0,111.0,849.114
849124.0,86.0,82.0,25.0,109.0,849.124
849134.0,85.0,83.0,21.0,116.0,849.134
849144.0,83.0,84.0,21.0,117.0,849.144
849154.0,83.0,84.0,19.0,111.0,849.154
849164.0,80.0,80.0,24.0,108.0,849.164
849174.0,80.0,80.0,21.0,124.0,849.174
849184.0,80.0,81.0,19.0,120.0,849.184
849195.0,79.0,79.0,21.0,118.0,849.195
849205.0,79.0,81.0,20.0,126.0,849.205
849215.0,79.0,81.0,18.0,131.0,849.215
849225.0,76.0,80.0,32.0,123.0,849.225
849235.0,77.0,81.0,31.0,119.0,849.235
849245.0,76.0,80.0,28.0,114.0,849.245
849255.0,77.0,81.0,25.0,108.0,849.255
849265.0,77.0,79.0,26.0,100.0,849.265
849275.0,75.0,78.0,23.0,95.0,849.275
849285.0,76.0,79.0,21.0,98.0,849.285
849295.0,77.0,79.0,23.0,107.0,849.295
849305.0,75.0,75.0,32.0,101.0,849.305
849315.0,79.0,77.0,29.0,106.0,849.315
849325.0,78.0,76.0,27.0,97.0,849.325
849335.0,79.0,73.0,28.0,97.0,849.335
849345.0,78.0,74.0,25.0,110.0,849.345
849355.0,79.0,74.0,23.0,103.0,849.355
849366.0,76.0,73.0,24.0,118.0,849.366
849376.0,76.0,71.0,21.0,113.0,849.376
849386.0,75.0,70.0,21.0,117.0,849.386
849396.0,72.0,70.0,30.0,112.0,849.396
849406.0,72.0,69.0,26.0,107.0,849.406
849416.0,70.0,70.0,24.0,103.0,849.416
849426.0,71.0,69.0,23.0,103.0,849.426
849436.0,71.0,71.0,22.0,101.0,849.436
849446.0,68.0,68.0,20.0,100.0,849.446
849456.0,68.0,68.0,18.0,101.0,849.456
849466.0,67.0,66.0,20.0,98.0,849.466
849476.0,69.0,67.0,26.0,91.0,849.476
849486.0,68.0,65.0,30.0,97.0,849.486
849496.0,71.0,67.0,29.0,114.0,849.496
849506.0,71.0,65.0,28.0,110.0,849.506
849516.0,72.0,65.0,25.0,108.0,849.516
849526.0,71.0,63.0,23.0,99.0,849.526
849536.0,69.0,60.0,21.0,112.0,849.536
849546.0,70.0,58.0,21.0,118.0,849.546
849556.0,70.0,58.0,32.0,113.0,849.556
849566.0,71.0,57.0,31.0,110.0,849.566
849576.0,70.0,57.0,31.0,104.0,849.576
849586.0,69.0,54.0,27.0,102.0,849.586
849596.0,70.0,54.0,25.0,106.0,849.596
849606.0,71.0,52.0,27.0,107.0,849.606
849616.0,71.0,52.0,24.0,101.0,849.616
849626.0,71.0,51.0,25.0,95.0,849.626
849636.0,70.0,49.0,23.0,89.0,849.636
849646.0,70.0,53.0,35.0,103.0,849.646
849656.0,69.0,52.0,34.0,118.0,849.656
849666.0,69.0,53.0,31.0,111.0,849.666
849676.0,68.0,53.0,28.0,107.0,849.676
849686.0,68.0,52.0,25.0,101.0,849.686
849696.0,68.0,53.0,24.0,119.0,849.696
849707.0,67.0,51.0,28.0,111.0,849.707
849717.0,67.0,55.0,39.0,108.0,849.717
849727.0,66.0,53.0,34.0,101.0,849.727
849737.0,65.0,54.0,30.0,95.0,849.737
849747.0,64.0,53.0,27.0,96.0,849.747
849757.0,64.0,52.0,24.0,108.0,849.757
849767.0,64.0,52.0,20.0,101.0,849.767
849777.0,65.0,51.0,21.0,106.0,849.777
849787.0,66.0,51.0,23.0,107.0,849.787
849797.0,65.0,50.0,36.0,102.0,849.797
849807.0,66.0,49.0,33.0,102.0,849.807
849817.0,67.0,49.0,29.0,106.0,849.817
849827.0,68.0,48.0,26.0,103.0,849.827
849837.0,68.0,47.0,23.0,102.0,849.837
849847.0,67.0,46.0,20.0,99.0,849.847
849857.0,66.0,47.0,18.0,98.0,849.857
849867.0,65.0,47.0,17.0,101.0,849.867
849878.0,65.0,47.0,23.0,104.0,849.878
849888.0,67.0,47.0,23.0,103.0,849.888
849898.0,69.0,48.0,31.0,102.0,849.898
849908.0,68.0,50.0,26.0,102.0,849.908
849918.0,71.0,51.0,24.0,102.0,849.918
849928.0,70.0,51.0,21.0,109.0,849.928
849938.0,70.0,52.0,19.0,109.0,849.938
849948.0,71.0,52.0,18.0,100.0,849.948
849958.0,71.0,53.0,17.0,100.0,849.958
849968.0,71.0,52.0,17.0,106.0,849.968
849978.0,68.0,52.0,18.0,104.0,849.978
849988.0,72.0,54.0,17.0,99.0,849.988
849998.0,70.0,54.0,14.0,105.0,849.998
850008.0,69.0,54.0,25.0,103.0,850.008
850018.0,69.0,55.0,23.0,112.0,850.018
850028.0,67.0,54.0,20.0,106.0,850.028
850038.0,67.0,52.0,21.0,124.0,850.038
850048.0,65.0,53.0,23.0,120.0,850.048
850058.0,64.0,52.0,24.0,113.0,850.058
850068.0,65.0,52.0,24.0,118.0,850.068
850078.0,65.0,52.0,21.0,110.0,850.078
850088.0,64.0,51.0,19.0,110.0,850.088
850098.0,64.0,51.0,17.0,108.0,850.098
850108.0,64.0,50.0,15.0,106.0,850.108
850118.0,63.0,49.0,17.0,110.0,850.118
850128.0,63.0,48.0,27.0,105.0,850.128
850138.0,63.0,49.0,27.0,113.0,850.138
850148.0,62.0,49.0,26.0,105.0,850.148
850158.0,63.0,48.0,23.0,112.0,850.158
850168.0,63.0,47.0,21.0,109.0,850.168
850178.0,63.0,46.0,19.0,102.0,850.178
850188.0,63.0,45.0,17.0,104.0,850.188
850198.0,64.0,45.0,17.0,95.0,850.198
850208.0,62.0,43.0,17.0,89.0,850.208
850219.0,63.0,42.0,15.0,86.0,850.219
850229.0,64.0,40.0,14.0,84.0,850.229
850239.0,64.0,40.0,13.0,91.0,850.239
850249.0,65.0,40.0,14.0,100.0,850.249
850259.0,64.0,41.0,15.0,103.0,850.259
850269.0,65.0,40.0,24.0,103.0,850.269
850279.0,66.0,39.0,20.0,100.0,850.279
850289.0,67.0,39.0,18.0,101.0,850.289
850299.0,69.0,38.0,19.0,95.0,850.299
850309.0,69.0,37.0,17.0,90.0,850.309
850319.0,70.0,38.0,16.0,94.0,850.319
850329.0,70.0,38.0,14.0,110.0,850.329
850339.0,70.0,37.0,15.0,101.0,850.339
850349.0,70.0,36.0,12.0,99.0,850.349
850359.0,70.0,36.0,12.0,97.0,850.359
850369.0,72.0,36.0,11.0,95.0,850.369
850379.0,70.0,36.0,19.0,104.0,850.379
850390.0,71.0,37.0,21.0,109.0,850.39
850400.0,70.0,38.0,22.0,101.0,850.4
850410.0,70.0,38.0,24.0,96.0,850.41
850420.0,68.0,38.0,20.0,96.0,850.42
850430.0,69.0,36.0,18.0,86.0,850.43
850440.0,69.0,36.0,16.0,93.0,850.44
850450.0,67.0,36.0,15.0,100.0,850.45
850460.0,66.0,34.0,13.0,95.0,850.46
850470.0,64.0,35.0,15.0,101.0,850.47
850480.0,65.0,39.0,26.0,99.0,850.48
850490.0,62.0,39.0,32.0,95.0,850.49
850500.0,64.0,38.0,30.0,98.0,850.5
850510.0,63.0,37.0,26.0,96.0,850.51
850520.0,64.0,38.0,23.0,93.0,850.52
850530.0,65.0,36.0,21.0,89.0,850.53
850540.0,62.0,36.0,18.0,96.0,850.54
850550.0,63.0,36.0,16.0,95.0,850.55
850560.0,63.0,37.0,16.0,97.0,850.56
850570.0,62.0,36.0,16.0,91.0,850.57
850580.0,62.0,36.0,15.0,88.0,850.58
850590.0,61.0,36.0,13.0,88.0,850.59
850600.0,61.0,35.0,13.0,101.0,850.6
850610.0,60.0,36.0,12.0,100.0,850.61
850620.0,61.0,37.0,11.0,96.0,850.62
850630.0,59.0,38.0,9.0,98.0,850.63
850640.0,58.0,38.0,12.0,97.0,850.64
850650.0,59.0,39.0,11.0,93.0,850.65
850660.0,59.0,39.0,10.0,101.0,850.66
850670.0,60.0,39.0,10.0,103.0,850.67
850680.0,60.0,39.0,8.0,105.0,850.68
850690.0,58.0,39.0,8.0,98.0,850.69
850700.0,58.0,40.0,8.0,99.0,850.7
850710.0,57.0,39.0,8.0,103.0,850.71
850720.0,56.0,38.0,13.0,99.0,850.72
850731.0,56.0,38.0,13.0,96.0,850.731
850741.0,55.0,37.0,14.0,95.0,850.741
850751.0,55.0,36.0,12.0,89.0,850.751
850761.0,55.0,35.0,11.0,95.0,850.761
850771.0,56.0,38.0,19.0,91.0,850.771
850781.0,56.0,37.0,18.0,95.0,850.781
850791.0,57.0,36.0,16.0,94.0,850.791
850801.0,57.0,36.0,15.0,93.0,850.801
850811.0,58.0,37.0,17.0,89.0,850.811
850821.0,57.0,36.0,14.0,90.0,850.821
850831.0,55.0,37.0,13.0,89.0,850.831
850841.0,55.0,37.0,11.0,109.0,850.841
850851.0,54.0,37.0,11.0,101.0,850.851
850861.0,54.0,37.0,14.0,99.0,850.861
850871.0,53.0,37.0,12.0,99.0,850.871
850881.0,53.0,37.0,13.0,94.0,850.881
850891.0,52.0,37.0,14.0,93.0,850.891
850902.0,52.0,37.0,12.0,115.0,850.902
850912.0,52.0,36.0,12.0,112.0,850.912
850922.0,53.0,36.0,11.0,106.0,850.922
850932.0,52.0,36.0,9.0,103.0,850.932
850942.0,52.0,36.0,9.0,97.0,850.942
850952.0,52.0,35.0,9.0,102.0,850.952
850962.0,51.0,36.0,10.0,109.0,850.962
850972.0,53.0,35.0,11.0,102.0,850.972
850982.0,52.0,38.0,9.0,102.0,850.982
850992.0,51.0,38.0,9.0,95.0,850.992
851002.0,51.0,38.0,10.0,94.0,851.002
851012.0,51.0,38.0,9.0,95.0,851.012
851022.0,51.0,37.0,8.0,90.0,851.022
851032.0,48.0,39.0,8.0,95.0,851.032
851042.0,48.0,37.0,15.0,101.0,851.042
851052.0,48.0,39.0,22.0,104.0,851.052
851062.0,49.0,39.0,25.0,99.0,851.062
851072.0,49.0,39.0,26.0,97.0,851.072
851082.0,49.0,37.0,21.0,107.0,851.082
851092.0,49.0,38.0,25.0,118.0,851.092
851102.0,50.0,39.0,22.0,123.0,851.102
851112.0,50.0,39.0,19.0,114.0,851.112
851122.0,49.0,38.0,17.0,118.0,851.122
851132.0,48.0,37.0,15.0,117.0,851.132
851142.0,49.0,38.0,15.0,114.0,851.142
851152.0,50.0,38.0,15.0,106.0,851.152
851162.0,51.0,35.0,15.0,102.0,851.162
851172.0,51.0,37.0,12.0,109.0,851.172
851182.0,52.0,37.0,12.0,104.0,851.182
851192.0,52.0,38.0,10.0,122.0,851.192
851202.0,52.0,38.0,9.0,118.0,851.202
851212.0,51.0,40.0,13.0,109.0,851.212
851222.0,50.0,41.0,14.0,113.0,851.222
851232.0,51.0,40.0,14.0,113.0,851.232
851243.0,49.0,39.0,12.0,113.0,851.243
851253.0,48.0,40.0,12.0,109.0,851.253
851263.0,48.0,40.0,12.0,105.0,851.263
851273.0,48.0,41.0,11.0,120.0,851.273
851283.0,47.0,41.0,9.0,118.0,851.283
851293.0,47.0,41.0,11.0,114.0,851.293
851303.0,47.0,42.0,11.0,107.0,851.303
851313.0,46.0,42.0,12.0,101.0,851.313
851323.0,48.0,41.0,12.0,103.0,851.323
851333.0,47.0,41.0,10.0,98.0,851.333
851343.0,46.0,41.0,11.0,100.0,851.343
851353.0,47.0,41.0,11.0,103.0,851.353
851363.0,45.0,40.0,9.0,100.0,851.363
851373.0,46.0,42.0,16.0,103.0,851.373
851383.0,45.0,41.0,15.0,108.0,851.383
851393.0,45.0,41.0,15.0,107.0,851.393
851403.0,44.0,40.0,13.0,105.0,851.403
851414.0,44.0,39.0,14.0,111.0,851.414
851424.0,45.0,39.0,15.0,108.0,851.424
851434.0,45.0,38.0,13.0,112.0,851.434
851444.0,45.0,37.0,12.0,110.0,851.444
851454.0,45.0,37.0,12.0,105.0,851.454
851464.0,47.0,37.0,14.0,108.0,851.464
851474.0,49.0,37.0,11.0,106.0,851.474
851484.0,51.0,36.0,10.0,105.0,851.484
851494.0,53.0,37.0,11.0,112.0,851.494
851504.0,55.0,37.0,10.0,118.0,851.504
851514.0,57.0,38.0,13.0,128.0,851.514
851524.0,55.0,38.0,12.0,119.0,851.524
851534.0,58.0,38.0,14.0,113.0,851.534
851544.0,56.0,40.0,10.0,113.0,851.544
851554.0,56.0,40.0,13.0,116.0,851.554
851564.0,57.0,39.0,12.0,110.0,851.564
851574.0,55.0,41.0,12.0,107.0,851.574
851584.0,57.0,41.0,15.0,112.0,851.584
851594.0,56.0,42.0,19.0,115.0,851.594
851604.0,58.0,40.0,17.0,113.0,851.604
851614.0,58.0,39.0,14.0,114.0,851.614
851624.0,59.0,39.0,14.0,120.0,851.624
851634.0,61.0,38.0,14.0,123.0,851.634
851644.0,59.0,39.0,13.0,123.0,851.644
851654.0,58.0,38.0,13.0,128.0,851.654
851664.0,57.0,37.0,10.0,122.0,851.664
851674.0,58.0,38.0,14.0,136.0,851.674
851684.0,55.0,39.0,12.0,134.0,851.684
851694.0,55.0,37.0,11.0,123.0,851.694
851704.0,54.0,38.0,10.0,117.0,851.704
851714.0,53.0,38.0,9.0,109.0,851.714
851724.0,56.0,38.0,11.0,102.0,851.724
851734.0,54.0,40.0,14.0,106.0,851.734
851744.0,55.0,40.0,12.0,101.0,851.744
851755.0,56.0,39.0,14.0,98.0,851.755
851765.0,58.0,39.0,13.0,90.0,851.765
851775.0,58.0,38.0,12.0,89.0,851.775
851785.0,61.0,38.0,11.0,89.0,851.785
851795.0,60.0,39.0,14.0,88.0,851.795
851805.0,60.0,40.0,12.0,86.0,851.805
851815.0,61.0,39.0,12.0,81.0,851.815
851825.0,61.0,41.0,10.0,81.0,851.825
851835.0,62.0,40.0,11.0,93.0,851.835
851845.0,61.0,42.0,11.0,95.0,851.845
851855.0,61.0,43.0,11.0,95.0,851.855
851865.0,64.0,43.0,11.0,95.0,851.865
851875.0,64.0,43.0,10.0,98.0,851.875
851885.0,65.0,43.0,20.0,95.0,851.885
851895.0,65.0,43.0,19.0,93.0,851.895
851905.0,65.0,43.0,18.0,90.0,851.905
851915.0,65.0,42.0,18.0,85.0,851.915
851926.0,65.0,41.0,17.0,90.0,851.926
851936.0,67.0,40.0,15.0,83.0,851.936
851946.0,66.0,39.0,14.0,83.0,851.946
851956.0,67.0,38.0,14.0,78.0,851.956
851966.0,66.0,39.0,13.0,79.0,851.966
851976.0,65.0,38.0,12.0,79.0,851.976
851986.0,64.0,38.0,13.0,78.0,851.986
851996.0,65.0,39.0,17.0,79.0,851.996
852006.0,66.0,39.0,16.0,77.0,852.006
852016.0,64.0,38.0,14.0,74.0,852.016
852026.0,62.0,37.0,12.0,74.0,852.026
852036.0,62.0,38.0,11.0,84.0,852.036
852046.0,62.0,36.0,11.0,92.0,852.046
852056.0,62.0,37.0,16.0,92.0,852.056
852066.0,61.0,38.0,19.0,91.0,852.066
852076.0,62.0,39.0,19.0,99.0,852.076
852086.0,60.0,38.0,16.0,98.0,852.086
852096.0,59.0,37.0,14.0,92.0,852.096
852106.0,59.0,39.0,15.0,97.0,852.106
852116.0,59.0,38.0,19.0,89.0,852.116
852126.0,58.0,38.0,17.0,86.0,852.126
852136.0,57.0,39.0,15.0,87.0,852.136
852146.0,59.0,39.0,15.0,105.0,852.146
852156.0,56.0,40.0,13.0,106.0,852.156
852166.0,57.0,39.0,12.0,103.0,852.166
852176.0,55.0,40.0,11.0,97.0,852.176
852186.0,55.0,40.0,10.0,96.0,852.186
852196.0,54.0,40.0,10.0,92.0,852.196
852206.0,52.0,40.0,8.0,97.0,852.206
852216.0,52.0,40.0,8.0,95.0,852.216
852226.0,50.0,43.0,8.0,98.0,852.226
852236.0,50.0,46.0,13.0,93.0,852.236
852246.0,50.0,50.0,11.0,100.0,852.246
852256.0,50.0,53.0,10.0,99.0,852.256
852267.0,51.0,56.0,13.0,99.0,852.267
852277.0,50.0,59.0,15.0,105.0,852.277
852287.0,51.0,60.0,13.0,99.0,852.287
852297.0,50.0,64.0,11.0,96.0,852.297
852307.0,49.0,66.0,12.0,101.0,852.307
852317.0,49.0,67.0,10.0,97.0,852.317
852327.0,48.0,67.0,13.0,95.0,852.327
852337.0,49.0,68.0,12.0,109.0,852.337
852347.0,49.0,69.0,13.0,109.0,852.347
852357.0,49.0,69.0,12.0,99.0,852.357
852367.0,50.0,69.0,12.0,106.0,852.367
852377.0,51.0,70.0,12.0,103.0,852.377
852387.0,50.0,72.0,17.0,99.0,852.387
852397.0,50.0,71.0,15.0,95.0,852.397
852407.0,50.0,72.0,14.0,102.0,852.407
852417.0,50.0,75.0,19.0,105.0,852.417
852427.0,52.0,77.0,19.0,97.0,852.427
852438.0,52.0,79.0,16.0,92.0,852.438
852448.0,52.0,81.0,15.0,85.0,852.448
852458.0,54.0,83.0,13.0,101.0,852.458
852468.0,56.0,83.0,13.0,97.0,852.468
852478.0,57.0,84.0,14.0,94.0,852.478
852488.0,58.0,87.0,15.0,108.0,852.488
852498.0,60.0,88.0,15.0,108.0,852.498
852508.0,58.0,92.0,14.0,108.0,852.508
852518.0,62.0,92.0,13.0,103.0,852.518
852528.0,62.0,93.0,10.0,108.0,852.528
852538.0,61.0,96.0,11.0,108.0,852.538
852548.0,62.0,96.0,11.0,100.0,852.548
852558.0,60.0,97.0,25.0,96.0,852.558
852568.0,60.0,96.0,22.0,90.0,852.568
852578.0,58.0,96.0,18.0,103.0,852.578
852588.0,59.0,95.0,18.0,107.0,852.588
852598.0,60.0,93.0,16.0,112.0,852.598
852608.0,60.0,94.0,17.0,106.0,852.608
852618.0,61.0,93.0,17.0,103.0,852.618
852628.0,59.0,93.0,15.0,98.0,852.628
852638.0,59.0,93.0,27.0,102.0,852.638
852648.0,59.0,91.0,25.0,122.0,852.648
852658.0,61.0,90.0,24.0,121.0,852.658
852668.0,60.0,90.0,21.0,113.0,852.668
852678.0,60.0,90.0,18.0,109.0,852.678
852688.0,59.0,92.0,17.0,106.0,852.688
852698.0,61.0,91.0,19.0,100.0,852.698
852708.0,62.0,88.0,17.0,98.0,852.708
852718.0,62.0,88.0,16.0,99.0,852.718
852728.0,62.0,85.0,16.0,97.0,852.728
852738.0,63.0,85.0,14.0,94.0,852.738
852748.0,63.0,83.0,13.0,86.0,852.748
852758.0,63.0,82.0,15.0,90.0,852.758
