time (ms),signal 0,signal 1,signal 2,signal3,time (sec)
856009.0,66.0,61.0,17.0,89.0,856.009
856019.0,66.0,60.0,16.0,88.0,856.019
856029.0,66.0,60.0,16.0,90.0,856.029
856039.0,65.0,58.0,15.0,98.0,856.039
856049.0,65.0,57.0,13.0,91.0,856.049
856059.0,65.0,57.0,13.0,87.0,856.059
856069.0,66.0,55.0,12.0,81.0,856.069
856079.0,64.0,56.0,14.0,83.0,856.079
856089.0,65.0,53.0,13.0,85.0,856.089
856099.0,65.0,52.0,13.0,91.0,856.099
856109.0,64.0,51.0,15.0,87.0,856.109
856119.0,65.0,50.0,13.0,84.0,856.119
856129.0,67.0,49.0,12.0,93.0,856.129
856139.0,69.0,48.0,12.0,93.0,856.139
856150.0,68.0,47.0,12.0,89.0,856.15
856160.0,68.0,47.0,14.0,83.0,856.16
856170.0,67.0,47.0,16.0,89.0,856.17
856180.0,67.0,46.0,19.0,84.0,856.18
856190.0,69.0,45.0,17.0,85.0,856.19
856200.0,68.0,43.0,15.0,98.0,856.2
856210.0,69.0,43.0,15.0,97.0,856.21
856220.0,68.0,42.0,12.0,97.0,856.22
856230.0,68.0,44.0,13.0,96.0,856.23
856240.0,66.0,44.0,14.0,88.0,856.24
856250.0,66.0,44.0,14.0,90.0,856.25
856260.0,66.0,45.0,16.0,89.0,856.26
856270.0,64.0,47.0,20.0,87.0,856.27
856280.0,66.0,45.0,19.0,91.0,856.28
856290.0,63.0,46.0,16.0,86.0,856.29
856300.0,63.0,45.0,19.0,91.0,856.3
856310.0,63.0,47.0,16.0,104.0,856.31
856320.0,64.0,46.0,16.0,111.0,856.32
856330.0,64.0,47.0,17.0,111.0,856.33
856340.0,64.0,48.0,20.0,105.0,856.34
856350.0,65.0,48.0,19.0,103.0,856.35
856360.0,64.0,47.0,18.0,105.0,856.36
856370.0,65.0,45.0,19.0,110.0,856.37
856380.0,66.0,46.0,17.0,120.0,856.38
856390.0,65.0,46.0,16.0,114.0,856.39
856400.0,64.0,47.0,14.0,108.0,856.4
856410.0,63.0,46.0,15.0,103.0,856.41
856420.0,64.0,47.0,16.0,106.0,856.42
856430.0,63.0,47.0,13.0,114.0,856.43
856440.0,63.0,45.0,13.0,116.0,856.44
856450.0,63.0,46.0,13.0,117.0,856.45
856460.0,63.0,47.0,12.0,118.0,856.46
856470.0,64.0,48.0,11.0,115.0,856.47
856480.0,63.0,49.0,12.0,118.0,856.48
856491.0,63.0,50.0,12.0,112.0,856.491
856501.0,61.0,52.0,21.0,113.0,856.501
856511.0,62.0,51.0,21.0,105.0,856.511
856521.0,64.0,50.0,20.0,110.0,856.521
856531.0,64.0,50.0,23.0,108.0,856.531
856541.0,64.0,50.0,21.0,107.0,856.541
856551.0,63.0,50.0,19.0,100.0,856.551
856561.0,63.0,49.0,17.0,99.0,856.561
856571.0,62.0,49.0,22.0,96.0,856.571
856581.0,63.0,48.0,22.0,97.0,856.581
856591.0,64.0,47.0,21.0,110.0,856.591
856601.0,65.0,47.0,20.0,108.0,856.601
856611.0,65.0,47.0,19.0,103.0,856.611
856621.0,65.0,47.0,19.0,102.0,856.621
856631.0,66.0,48.0,19.0,100.0,856.631
856641.0,68.0,48.0,18.0,94.0,856.641
856651.0,67.0,47.0,20.0,93.0,856.651
856662.0,69.0,47.0,19.0,94.0,856.662
856672.0,68.0,46.0,18.0,94.0,856.672
856682.0,69.0,46.0,17.0,90.0,856.682
856692.0,71.0,46.0,15.0,84.0,856.692
856702.0,70.0,47.0,18.0,86.0,856.702
856712.0,69.0,48.0,17.0,93.0,856.712
856722.0,68.0,49.0,17.0,96.0,856.722
856732.0,68.0,51.0,17.0,99.0,856.732
856742.0,69.0,50.0,16.0,99.0,856.742
856752.0,69.0,50.0,17.0,100.0,856.752
856762.0,69.0,49.0,17.0,99.0,856.762
856772.0,70.0,48.0,20.0,99.0,856.772
856782.0,68.0,49.0,18.0,93.0,856.782
856792.0,70.0,47.0,19.0,86.0,856.792
856802.0,69.0,49.0,16.0,86.0,856.802
856812.0,68.0,48.0,22.0,80.0,856.812
856822.0,68.0,50.0,25.0,77.0,856.822
856832.0,69.0,50.0,28.0,78.0,856.832
856842.0,70.0,48.0,26.0,83.0,856.842
856852.0,68.0,47.0,22.0,80.0,856.852
856862.0,68.0,47.0,23.0,81.0,856.862
856872.0,66.0,49.0,19.0,94.0,856.872
856882.0,66.0,48.0,20.0,96.0,856.882
856892.0,64.0,48.0,27.0,90.0,856.892
856902.0,64.0,48.0,26.0,85.0,856.902
856912.0,64.0,47.0,25.0,78.0,856.912
856922.0,63.0,48.0,27.0,77.0,856.922
856932.0,63.0,48.0,25.0,75.0,856.932
856942.0,64.0,50.0,22.0,81.0,856.942
856952.0,63.0,51.0,25.0,80.0,856.952
856962.0,62.0,55.0,26.0,92.0,856.962
856972.0,62.0,56.0,24.0,92.0,856.972
856982.0,61.0,58.0,22.0,90.0,856.982
856992.0,60.0,59.0,18.0,92.0,856.992
857003.0,57.0,61.0,17.0,89.0,857.003
857013.0,57.0,64.0,15.0,93.0,857.013
857023.0,54.0,66.0,18.0,86.0,857.023
857033.0,55.0,68.0,16.0,78.0,857.033
857043.0,55.0,70.0,16.0,75.0,857.043
857053.0,53.0,70.0,18.0,76.0,857.053
857063.0,52.0,72.0,16.0,74.0,857.063
857073.0,52.0,72.0,14.0,75.0,857.073
857083.0,53.0,76.0,13.0,95.0,857.083
857093.0,54.0,74.0,12.0,102.0,857.093
857103.0,54.0,75.0,12.0,99.0,857.103
857113.0,55.0,76.0,15.0,96.0,857.113
857123.0,58.0,77.0,18.0,104.0,857.123
857133.0,58.0,77.0,16.0,110.0,857.133
857143.0,59.0,79.0,27.0,107.0,857.143
857153.0,59.0,79.0,26.0,104.0,857.153
857163.0,61.0,77.0,23.0,97.0,857.163
857174.0,63.0,77.0,21.0,98.0,857.174
857184.0,64.0,78.0,21.0,93.0,857.184
857194.0,67.0,77.0,18.0,95.0,857.194
857204.0,66.0,78.0,18.0,93.0,857.204
857214.0,68.0,77.0,18.0,93.0,857.214
857224.0,67.0,78.0,18.0,94.0,857.224
857234.0,67.0,78.0,25.0,92.0,857.234
857244.0,68.0,78.0,27.0,89.0,857.244
857254.0,69.0,77.0,25.0,91.0,857.254
857264.0,68.0,78.0,22.0,93.0,857.264
857274.0,66.0,80.0,20.0,90.0,857.274
857284.0,67.0,79.0,19.0,85.0,857.284
857294.0,67.0,81.0,17.0,91.0,857.294
857304.0,67.0,82.0,15.0,93.0,857.304
857314.0,65.0,84.0,13.0,93.0,857.314
857324.0,67.0,81.0,13.0,88.0,857.324
857334.0,65.0,91.0,15.0,86.0,857.334
857344.0,61.0,95.0,15.0,85.0,857.344
857354.0,63.0,88.0,15.0,87.0,857.354
857364.0,61.0,105.0,16.0,91.0,857.364
857374.0,62.0,128.0,16.0,92.0,857.374
857384.0,66.0,129.0,14.0,86.0,857.384
857394.0,67.0,120.0,14.0,85.0,857.394
857404.0,67.0,112.0,12.0,80.0,857.404
857414.0,68.0,103.0,12.0,82.0,857.414
857424.0,69.0,97.0,13.0,91.0,857.424
857434.0,66.0,96.0,17.0,98.0,857.434
857444.0,67.0,90.0,15.0,98.0,857.444
857454.0,67.0,94.0,13.0,102.0,857.454
857464.0,67.0,111.0,13.0,98.0,857.464
857474.0,67.0,121.0,13.0,98.0,857.474
857484.0,72.0,173.0,21.0,94.0,857.484
857494.0,78.0,188.0,28.0,112.0,857.494
857504.0,91.0,195.0,32.0,131.0,857.504
857515.0,138.0,314.0,51.0,130.0,857.515
857525.0,150.0,306.0,49.0,139.0,857.525
857535.0,183.0,395.0,74.0,151.0,857.535
857545.0,218.0,415.0,68.0,162.0,857.545
857555.0,282.0,404.0,70.0,193.0,857.555
857565.0,271.0,425.0,64.0,185.0,857.565
857575.0,275.0,423.0,61.0,179.0,857.575
857585.0,278.0,394.0,68.0,224.0,857.585
857595.0,277.0,392.0,69.0,227.0,857.595
857605.0,259.0,369.0,63.0,240.0,857.605
857615.0,273.0,394.0,73.0,236.0,857.615
857625.0,259.0,464.0,84.0,315.0,857.625
857635.0,249.0,451.0,75.0,347.0,857.635
857645.0,252.0,495.0,68.0,325.0,857.645
857655.0,233.0,450.0,70.0,313.0,857.655
857665.0,244.0,432.0,62.0,296.0,857.665
857675.0,221.0,440.0,57.0,278.0,857.675
857686.0,206.0,427.0,50.0,271.0,857.686
857696.0,201.0,413.0,42.0,258.0,857.696
857706.0,187.0,407.0,41.0,249.0,857.706
857716.0,175.0,405.0,39.0,269.0,857.716
857726.0,161.0,387.0,34.0,263.0,857.726
857736.0,150.0,384.0,31.0,255.0,857.736
857746.0,139.0,362.0,27.0,251.0,857.746
857756.0,146.0,352.0,24.0,233.0,857.756
857766.0,138.0,342.0,22.0,225.0,857.766
857776.0,128.0,344.0,21.0,212.0,857.776
857786.0,118.0,324.0,18.0,211.0,857.786
857796.0,114.0,320.0,17.0,210.0,857.796
857806.0,107.0,315.0,17.0,227.0,857.806
857816.0,101.0,308.0,15.0,214.0,857.816
857826.0,102.0,294.0,14.0,206.0,857.826
857836.0,95.0,299.0,12.0,198.0,857.836
857846.0,90.0,286.0,11.0,187.0,857.846
857856.0,89.0,280.0,11.0,207.0,857.856
857866.0,83.0,274.0,11.0,214.0,857.866
857876.0,82.0,267.0,10.0,209.0,857.876
857886.0,79.0,264.0,9.0,209.0,857.886
857896.0,80.0,254.0,9.0,219.0,857.896
857906.0,78.0,239.0,7.0,206.0,857.906
857916.0,74.0,238.0,7.0,205.0,857.916
857926.0,72.0,226.0,6.0,194.0,857.926
857936.0,68.0,220.0,7.0,228.0,857.936
857946.0,69.0,215.0,6.0,221.0,857.946
857956.0,67.0,211.0,5.0,221.0,857.956
857966.0,66.0,206.0,7.0,220.0,857.966
857976.0,62.0,199.0,6.0,219.0,857.976
857986.0,61.0,193.0,6.0,213.0,857.986
857996.0,60.0,194.0,5.0,205.0,857.996
858006.0,59.0,184.0,5.0,192.0,858.006
858016.0,59.0,191.0,5.0,184.0,858.016
858027.0,60.0,184.0,5.0,183.0,858.027
858037.0,60.0,176.0,6.0,183.0,858.037
858047.0,58.0,177.0,4.0,180.0,858.047
858057.0,59.0,167.0,4.0,176.0,858.057
858067.0,58.0,171.0,4.0,180.0,858.067
858077.0,57.0,166.0,4.0,172.0,858.077
858087.0,56.0,170.0,5.0,174.0,858.087
858097.0,57.0,161.0,5.0,172.0,858.097
858107.0,56.0,160.0,5.0,159.0,858.107
858117.0,54.0,157.0,4.0,153.0,858.117
858127.0,54.0,153.0,4.0,152.0,858.127
858137.0,53.0,168.0,4.0,153.0,858.137
858147.0,55.0,173.0,5.0,160.0,858.147
858157.0,54.0,165.0,5.0,167.0,858.157
858167.0,53.0,161.0,4.0,158.0,858.167
858177.0,55.0,161.0,5.0,149.0,858.177
858187.0,52.0,156.0,4.0,141.0,858.187
858198.0,53.0,156.0,5.0,139.0,858.198
858208.0,52.0,156.0,3.0,131.0,858.208
858218.0,53.0,154.0,3.0,120.0,858.218
858228.0,52.0,155.0,4.0,114.0,858.228
858238.0,51.0,152.0,4.0,130.0,858.238
858248.0,52.0,158.0,4.0,135.0,858.248
858258.0,50.0,149.0,4.0,127.0,858.258
858268.0,51.0,147.0,4.0,129.0,858.268
858278.0,53.0,144.0,3.0,131.0,858.278
858288.0,51.0,140.0,3.0,128.0,858.288
858298.0,50.0,139.0,4.0,133.0,858.298
858308.0,49.0,134.0,4.0,130.0,858.308
858318.0,50.0,139.0,4.0,135.0,858.318
858328.0,48.0,136.0,4.0,144.0,858.328
858338.0,48.0,142.0,5.0,149.0,858.338
858348.0,47.0,137.0,4.0,154.0,858.348
858358.0,47.0,131.0,4.0,150.0,858.358
858368.0,46.0,129.0,5.0,155.0,858.368
858378.0,47.0,127.0,4.0,164.0,858.378
858388.0,47.0,137.0,5.0,162.0,858.388
858398.0,48.0,134.0,4.0,161.0,858.398
858408.0,52.0,129.0,4.0,169.0,858.408
858418.0,50.0,127.0,4.0,164.0,858.418
858428.0,50.0,130.0,4.0,150.0,858.428
858438.0,50.0,125.0,3.0,155.0,858.438
858448.0,49.0,125.0,4.0,159.0,858.448
858458.0,50.0,122.0,4.0,166.0,858.458
858468.0,48.0,119.0,3.0,154.0,858.468
858478.0,47.0,124.0,3.0,142.0,858.478
858488.0,48.0,126.0,3.0,138.0,858.488
858498.0,47.0,119.0,3.0,131.0,858.498
858508.0,46.0,116.0,3.0,123.0,858.508
858518.0,45.0,115.0,4.0,130.0,858.518
858528.0,48.0,117.0,4.0,127.0,858.528
858539.0,46.0,113.0,2.0,132.0,858.539
858549.0,46.0,112.0,3.0,150.0,858.549
858559.0,45.0,109.0,3.0,152.0,858.559
858569.0,46.0,105.0,4.0,138.0,858.569
858579.0,45.0,106.0,4.0,135.0,858.579
858589.0,44.0,104.0,4.0,131.0,858.589
858599.0,45.0,99.0,3.0,127.0,858.599
858609.0,44.0,104.0,4.0,124.0,858.609
858619.0,44.0,101.0,4.0,124.0,858.619
858629.0,45.0,99.0,3.0,131.0,858.629
858639.0,44.0,97.0,4.0,122.0,858.639
858649.0,45.0,94.0,3.0,129.0,858.649
858659.0,45.0,92.0,4.0,125.0,858.659
858669.0,45.0,91.0,3.0,123.0,858.669
858679.0,44.0,99.0,2.0,116.0,858.679
858689.0,45.0,103.0,4.0,129.0,858.689
858699.0,44.0,98.0,3.0,142.0,858.699
858710.0,43.0,93.0,4.0,139.0,858.71
858720.0,44.0,91.0,3.0,134.0,858.72
858730.0,44.0,88.0,4.0,131.0,858.73
858740.0,44.0,85.0,4.0,128.0,858.74
858750.0,44.0,83.0,3.0,124.0,858.75
858760.0,45.0,84.0,4.0,125.0,858.76
858770.0,44.0,84.0,3.0,124.0,858.77
858780.0,45.0,87.0,3.0,138.0,858.78
858790.0,45.0,81.0,4.0,149.0,858.79
858800.0,46.0,78.0,4.0,142.0,858.8
858810.0,46.0,75.0,4.0,140.0,858.81
858820.0,46.0,71.0,2.0,137.0,858.82
858830.0,45.0,69.0,4.0,133.0,858.83
858840.0,44.0,73.0,3.0,129.0,858.84
858850.0,45.0,78.0,4.0,124.0,858.85
858860.0,46.0,73.0,4.0,140.0,858.86
858870.0,45.0,77.0,4.0,133.0,858.87
858880.0,46.0,79.0,4.0,128.0,858.88
858890.0,44.0,74.0,2.0,128.0,858.89
858900.0,46.0,71.0,4.0,133.0,858.9
858910.0,46.0,69.0,3.0,125.0,858.91
858920.0,46.0,66.0,4.0,126.0,858.92
858930.0,45.0,67.0,5.0,119.0,858.93
858940.0,45.0,78.0,4.0,116.0,858.94
858950.0,45.0,77.0,3.0,115.0,858.95
858960.0,44.0,72.0,4.0,120.0,858.96
858970.0,45.0,75.0,3.0,117.0,858.97
858980.0,45.0,71.0,3.0,112.0,858.98
858990.0,44.0,72.0,3.0,106.0,858.99
859000.0,43.0,81.0,4.0,105.0,859.0
859010.0,44.0,76.0,4.0,104.0,859.01
859020.0,43.0,70.0,4.0,99.0,859.02
859030.0,42.0,66.0,3.0,105.0,859.03
859040.0,43.0,67.0,4.0,132.0,859.04
859051.0,42.0,67.0,3.0,133.0,859.051
859061.0,43.0,71.0,4.0,134.0,859.061
859071.0,45.0,70.0,3.0,138.0,859.071
859081.0,45.0,77.0,4.0,142.0,859.081
859091.0,46.0,78.0,4.0,144.0,859.091
859101.0,46.0,76.0,4.0,139.0,859.101
859111.0,46.0,70.0,4.0,132.0,859.111
859121.0,47.0,68.0,3.0,161.0,859.121
859131.0,46.0,64.0,4.0,155.0,859.131
859141.0,47.0,61.0,4.0,147.0,859.141
859151.0,45.0,68.0,5.0,132.0,859.151
859161.0,46.0,70.0,4.0,140.0,859.161
859171.0,46.0,66.0,4.0,136.0,859.171
859181.0,47.0,63.0,4.0,139.0,859.181
859191.0,48.0,62.0,4.0,139.0,859.191
859201.0,48.0,61.0,4.0,148.0,859.201
859211.0,49.0,67.0,4.0,146.0,859.211
859222.0,49.0,69.0,4.0,144.0,859.222
859232.0,50.0,67.0,4.0,146.0,859.232
859242.0,50.0,64.0,2.0,140.0,859.242
859252.0,51.0,60.0,4.0,155.0,859.252
859262.0,51.0,58.0,3.0,159.0,859.262
859272.0,51.0,54.0,4.0,162.0,859.272
859282.0,52.0,52.0,5.0,194.0,859.282
859292.0,51.0,52.0,5.0,193.0,859.292
859302.0,50.0,61.0,4.0,192.0,859.302
859312.0,50.0,63.0,4.0,179.0,859.312
859322.0,50.0,60.0,4.0,178.0,859.322
859332.0,48.0,57.0,4.0,179.0,859.332
859342.0,48.0,54.0,5.0,166.0,859.342
859352.0,47.0,54.0,4.0,153.0,859.352
859362.0,46.0,58.0,4.0,157.0,859.362
859372.0,46.0,64.0,4.0,152.0,859.372
859382.0,45.0,62.0,4.0,153.0,859.382
859392.0,46.0,59.0,4.0,152.0,859.392
859402.0,47.0,64.0,3.0,141.0,859.402
859412.0,47.0,64.0,4.0,132.0,859.412
859422.0,48.0,67.0,4.0,155.0,859.422
859432.0,46.0,64.0,5.0,155.0,859.432
859442.0,46.0,62.0,4.0,148.0,859.442
859452.0,45.0,65.0,4.0,137.0,859.452
859462.0,45.0,65.0,4.0,128.0,859.462
859472.0,45.0,63.0,4.0,140.0,859.472
859482.0,45.0,62.0,5.0,134.0,859.482
859492.0,45.0,63.0,5.0,137.0,859.492
859502.0,45.0,64.0,4.0,130.0,859.502
859512.0,46.0,61.0,4.0,133.0,859.512
859522.0,44.0,58.0,4.0,136.0,859.522
859532.0,46.0,59.0,4.0,141.0,859.532
859542.0,47.0,63.0,4.0,129.0,859.542
859552.0,48.0,64.0,4.0,120.0,859.552
859563.0,47.0,61.0,3.0,124.0,859.563
859573.0,48.0,59.0,5.0,127.0,859.573
859583.0,49.0,61.0,4.0,127.0,859.583
859593.0,48.0,62.0,4.0,146.0,859.593
859603.0,49.0,61.0,4.0,132.0,859.603
859613.0,49.0,63.0,3.0,137.0,859.613
859623.0,49.0,61.0,4.0,132.0,859.623
859633.0,50.0,58.0,5.0,135.0,859.633
859643.0,51.0,60.0,4.0,138.0,859.643
859653.0,52.0,61.0,4.0,147.0,859.653
859663.0,50.0,62.0,4.0,135.0,859.663
859673.0,52.0,61.0,4.0,133.0,859.673
859683.0,51.0,60.0,3.0,132.0,859.683
859693.0,51.0,56.0,3.0,132.0,859.693
859703.0,52.0,60.0,4.0,129.0,859.703
859713.0,53.0,60.0,5.0,124.0,859.713
859723.0,52.0,57.0,4.0,131.0,859.723
859734.0,50.0,55.0,4.0,123.0,859.734
859744.0,50.0,53.0,4.0,118.0,859.744
859754.0,50.0,52.0,3.0,112.0,859.754
859764.0,50.0,52.0,3.0,102.0,859.764
859774.0,50.0,51.0,4.0,99.0,859.774
859784.0,50.0,50.0,4.0,101.0,859.784
859794.0,51.0,48.0,4.0,105.0,859.794
859804.0,52.0,47.0,3.0,102.0,859.804
859814.0,50.0,47.0,3.0,135.0,859.814
859824.0,51.0,51.0,3.0,140.0,859.824
859834.0,51.0,56.0,3.0,137.0,859.834
859844.0,51.0,69.0,3.0,133.0,859.844
859854.0,52.0,67.0,5.0,138.0,859.854
859864.0,52.0,69.0,3.0,136.0,859.864
859874.0,52.0,67.0,2.0,132.0,859.874
859884.0,51.0,63.0,4.0,131.0,859.884
859894.0,51.0,61.0,3.0,135.0,859.894
859904.0,49.0,58.0,3.0,136.0,859.904
859914.0,50.0,73.0,3.0,140.0,859.914
859924.0,50.0,68.0,4.0,137.0,859.924
859934.0,49.0,63.0,4.0,139.0,859.934
859944.0,50.0,69.0,3.0,150.0,859.944
859954.0,51.0,68.0,3.0,149.0,859.954
859964.0,51.0,64.0,4.0,149.0,859.964
859974.0,51.0,72.0,4.0,174.0,859.974
859984.0,51.0,70.0,3.0,177.0,859.984
859994.0,52.0,66.0,4.0,172.0,859.994
860004.0,55.0,62.0,4.0,169.0,860.004
860014.0,54.0,60.0,4.0,154.0,860.014
860024.0,55.0,57.0,4.0,143.0,860.024
860034.0,56.0,57.0,3.0,148.0,860.034
860044.0,55.0,62.0,3.0,154.0,860.044
860054.0,55.0,58.0,7.0,140.0,860.054
860064.0,55.0,63.0,7.0,143.0,860.064
860075.0,57.0,65.0,9.0,158.0,860.075
860085.0,57.0,63.0,8.0,152.0,860.085
860095.0,57.0,64.0,8.0,150.0,860.095
860105.0,58.0,60.0,7.0,151.0,860.105
860115.0,59.0,55.0,7.0,164.0,860.115
860125.0,60.0,55.0,7.0,170.0,860.125
860135.0,58.0,60.0,7.0,168.0,860.135
860145.0,58.0,56.0,6.0,157.0,860.145
860155.0,57.0,60.0,5.0,153.0,860.155
860165.0,59.0,59.0,6.0,155.0,860.165
860175.0,59.0,70.0,5.0,147.0,860.175
860185.0,59.0,67.0,5.0,142.0,860.185
860195.0,57.0,63.0,4.0,141.0,860.195
860205.0,58.0,64.0,6.0,137.0,860.205
860215.0,59.0,64.0,4.0,131.0,860.215
860225.0,58.0,60.0,4.0,136.0,860.225
860235.0,57.0,57.0,4.0,137.0,860.235
860246.0,57.0,57.0,3.0,131.0,860.246
860256.0,57.0,63.0,4.0,122.0,860.256
860266.0,57.0,63.0,4.0,126.0,860.266
860276.0,57.0,59.0,5.0,126.0,860.276
860286.0,56.0,60.0,4.0,116.0,860.286
860296.0,54.0,62.0,3.0,112.0,860.296
860306.0,53.0,61.0,4.0,107.0,860.306
860316.0,52.0,59.0,3.0,101.0,860.316
860326.0,51.0,56.0,4.0,100.0,860.326
860336.0,51.0,52.0,3.0,109.0,860.336
860346.0,51.0,51.0,4.0,117.0,860.346
860356.0,52.0,49.0,4.0,112.0,860.356
860366.0,52.0,47.0,4.0,109.0,860.366
860376.0,51.0,45.0,4.0,109.0,860.376
860386.0,50.0,45.0,3.0,116.0,860.386
860396.0,50.0,58.0,4.0,126.0,860.396
860406.0,49.0,60.0,4.0,119.0,860.406
860416.0,48.0,58.0,5.0,120.0,860.416
860426.0,49.0,57.0,4.0,130.0,860.426
860436.0,49.0,54.0,4.0,129.0,860.436
860446.0,49.0,52.0,4.0,123.0,860.446
860456.0,51.0,63.0,3.0,122.0,860.456
860466.0,50.0,59.0,4.0,121.0,860.466
860476.0,52.0,63.0,4.0,133.0,860.476
860486.0,51.0,63.0,5.0,143.0,860.486
860496.0,51.0,61.0,4.0,133.0,860.496
860506.0,49.0,60.0,3.0,134.0,860.506
860516.0,48.0,61.0,4.0,125.0,860.516
860526.0,47.0,67.0,3.0,123.0,860.526
860536.0,46.0,66.0,3.0,120.0,860.536
860546.0,46.0,66.0,4.0,123.0,860.546
860556.0,47.0,62.0,4.0,121.0,860.556
860566.0,49.0,59.0,4.0,118.0,860.566
860576.0,48.0,59.0,2.0,117.0,860.576
860587.0,50.0,59.0,4.0,123.0,860.587
860597.0,51.0,58.0,3.0,124.0,860.597
860607.0,51.0,58.0,4.0,116.0,860.607
860617.0,52.0,61.0,4.0,111.0,860.617
860627.0,53.0,57.0,4.0,105.0,860.627
860637.0,53.0,59.0,4.0,97.0,860.637
860647.0,52.0,57.0,4.0,88.0,860.647
860657.0,51.0,55.0,3.0,88.0,860.657
860667.0,51.0,60.0,3.0,86.0,860.667
860677.0,52.0,60.0,3.0,87.0,860.677
860687.0,51.0,59.0,4.0,95.0,860.687
860697.0,53.0,65.0,4.0,121.0,860.697
860707.0,52.0,62.0,4.0,128.0,860.707
860717.0,52.0,63.0,4.0,136.0,860.717
860727.0,52.0,65.0,3.0,134.0,860.727
860737.0,52.0,65.0,3.0,137.0,860.737
860747.0,53.0,60.0,3.0,132.0,860.747
860758.0,52.0,60.0,3.0,126.0,860.758
860768.0,51.0,65.0,4.0,118.0,860.768
860778.0,50.0,66.0,4.0,112.0,860.778
860788.0,50.0,68.0,4.0,113.0,860.788
860798.0,51.0,70.0,4.0,159.0,860.798
860808.0,50.0,71.0,3.0,165.0,860.808
860818.0,49.0,68.0,4.0,149.0,860.818
860828.0,49.0,67.0,3.0,148.0,860.828
860838.0,51.0,66.0,4.0,160.0,860.838
860848.0,51.0,64.0,4.0,153.0,860.848
860858.0,50.0,69.0,4.0,158.0,860.858
860868.0,51.0,75.0,4.0,153.0,860.868
860878.0,50.0,73.0,3.0,143.0,860.878
860888.0,51.0,70.0,4.0,138.0,860.888
860898.0,52.0,68.0,4.0,140.0,860.898
860908.0,53.0,65.0,4.0,137.0,860.908
860918.0,53.0,64.0,4.0,127.0,860.918
860928.0,52.0,62.0,4.0,118.0,860.928
860938.0,53.0,61.0,3.0,126.0,860.938
860948.0,53.0,63.0,3.0,122.0,860.948
860958.0,54.0,60.0,4.0,126.0,860.958
860968.0,52.0,75.0,5.0,163.0,860.968
860978.0,53.0,72.0,6.0,156.0,860.978
860988.0,52.0,70.0,5.0,157.0,860.988
860998.0,50.0,69.0,6.0,152.0,860.998
861008.0,51.0,67.0,5.0,162.0,861.008
861018.0,50.0,67.0,5.0,173.0,861.018
861028.0,50.0,65.0,5.0,168.0,861.028
861038.0,49.0,64.0,5.0,169.0,861.038
861048.0,49.0,72.0,5.0,160.0,861.048
861058.0,51.0,78.0,5.0,149.0,861.058
861068.0,50.0,74.0,4.0,139.0,861.068
861078.0,52.0,71.0,4.0,134.0,861.078
861088.0,52.0,71.0,3.0,126.0,861.088
861099.0,53.0,70.0,4.0,130.0,861.099
861109.0,55.0,69.0,4.0,151.0,861.109
861119.0,57.0,70.0,5.0,144.0,861.119
861129.0,56.0,72.0,4.0,145.0,861.129
861139.0,56.0,76.0,4.0,133.0,861.139
861149.0,60.0,72.0,4.0,140.0,861.149
861159.0,60.0,78.0,3.0,161.0,861.159
861169.0,61.0,76.0,4.0,154.0,861.169
861179.0,62.0,74.0,4.0,144.0,861.179
861189.0,64.0,77.0,5.0,141.0,861.189
861199.0,64.0,79.0,4.0,134.0,861.199
861209.0,65.0,78.0,3.0,135.0,861.209
861219.0,64.0,78.0,4.0,137.0,861.219
861229.0,65.0,82.0,3.0,141.0,861.229
861239.0,65.0,76.0,4.0,130.0,861.239
861249.0,65.0,75.0,4.0,141.0,861.249
861259.0,63.0,74.0,5.0,152.0,861.259
861270.0,63.0,76.0,4.0,156.0,861.27
861280.0,62.0,77.0,4.0,152.0,861.28
861290.0,62.0,76.0,4.0,160.0,861.29
861300.0,60.0,75.0,3.0,154.0,861.3
861310.0,64.0,74.0,4.0,138.0,861.31
861320.0,61.0,78.0,4.0,130.0,861.32
861330.0,63.0,76.0,4.0,141.0,861.33
861340.0,63.0,74.0,4.0,139.0,861.34
861350.0,62.0,73.0,3.0,144.0,861.35
861360.0,61.0,69.0,4.0,141.0,861.36
861370.0,59.0,69.0,3.0,139.0,861.37
861380.0,58.0,66.0,4.0,152.0,861.38
861390.0,57.0,66.0,3.0,152.0,861.39
861400.0,58.0,66.0,4.0,139.0,861.4
861410.0,56.0,64.0,4.0,124.0,861.41
861420.0,55.0,63.0,4.0,120.0,861.42
861430.0,54.0,63.0,4.0,109.0,861.43
861440.0,53.0,61.0,3.0,99.0,861.44
861450.0,51.0,60.0,3.0,86.0,861.45
861460.0,49.0,58.0,3.0,85.0,861.46
861470.0,49.0,58.0,5.0,80.0,861.47
861480.0,48.0,58.0,4.0,76.0,861.48
861490.0,46.0,60.0,4.0,73.0,861.49
861500.0,47.0,63.0,5.0,69.0,861.5
861510.0,47.0,62.0,15.0,82.0,861.51
861520.0,51.0,65.0,44.0,94.0,861.52
861530.0,51.0,64.0,49.0,95.0,861.53
861540.0,53.0,61.0,71.0,98.0,861.54
861550.0,60.0,59.0,78.0,98.0,861.55
861560.0,67.0,62.0,98.0,108.0,861.56
861570.0,74.0,62.0,124.0,125.0,861.57
861580.0,73.0,63.0,171.0,153.0,861.58
861590.0,77.0,64.0,182.0,150.0,861.59
861600.0,92.0,72.0,236.0,210.0,861.6
861611.0,99.0,81.0,243.0,230.0,861.611
861621.0,107.0,81.0,240.0,265.0,861.621
861631.0,113.0,95.0,239.0,273.0,861.631
861641.0,119.0,111.0,242.0,281.0,861.641
861651.0,125.0,130.0,211.0,276.0,861.651
861661.0,132.0,150.0,191.0,265.0,861.661
861671.0,134.0,167.0,206.0,318.0,861.671
861681.0,141.0,194.0,227.0,307.0,861.681
861691.0,144.0,213.0,212.0,301.0,861.691
861701.0,147.0,228.0,206.0,283.0,861.701
861711.0,152.0,243.0,190.0,271.0,861.711
861721.0,153.0,257.0,169.0,258.0,861.721
861731.0,158.0,268.0,148.0,240.0,861.731
861741.0,153.0,274.0,140.0,254.0,861.741
861751.0,155.0,282.0,134.0,238.0,861.751
861761.0,152.0,284.0,120.0,222.0,861.761
861771.0,148.0,285.0,118.0,225.0,861.771
861782.0,148.0,288.0,122.0,210.0,861.782
861792.0,146.0,289.0,114.0,204.0,861.792
861802.0,144.0,290.0,109.0,201.0,861.802
861812.0,141.0,288.0,99.0,202.0,861.812
861822.0,137.0,286.0,89.0,200.0,861.822
861832.0,134.0,284.0,81.0,190.0,861.832
861842.0,130.0,282.0,74.0,170.0,861.842
861852.0,127.0,277.0,68.0,161.0,861.852
861862.0,123.0,274.0,78.0,160.0,861.862
861872.0,120.0,269.0,77.0,161.0,861.872
861882.0,117.0,268.0,75.0,170.0,861.882
861892.0,117.0,264.0,77.0,163.0,861.892
861902.0,117.0,261.0,65.0,153.0,861.902
861912.0,112.0,253.0,69.0,153.0,861.912
861922.0,113.0,251.0,70.0,143.0,861.922
861932.0,112.0,249.0,62.0,147.0,861.932
861942.0,109.0,242.0,64.0,146.0,861.942
861952.0,109.0,243.0,59.0,146.0,861.952
861962.0,107.0,236.0,54.0,136.0,861.962
861972.0,107.0,232.0,47.0,154.0,861.972
861982.0,105.0,228.0,45.0,144.0,861.982
861992.0,104.0,224.0,48.0,136.0,861.992
862002.0,103.0,221.0,54.0,138.0,862.002
862012.0,101.0,213.0,53.0,130.0,862.012
862022.0,101.0,209.0,47.0,136.0,862.022
862032.0,100.0,203.0,43.0,132.0,862.032
862042.0,100.0,199.0,39.0,127.0,862.042
862052.0,98.0,195.0,38.0,129.0,862.052
862062.0,97.0,189.0,34.0,125.0,862.062
862072.0,96.0,186.0,37.0,117.0,862.072
862082.0,94.0,182.0,43.0,113.0,862.082
862092.0,92.0,179.0,39.0,112.0,862.092
862102.0,89.0,175.0,34.0,111.0,862.102
862112.0,89.0,174.0,30.0,109.0,862.112
862123.0,86.0,170.0,28.0,111.0,862.123
862133.0,87.0,165.0,25.0,104.0,862.133
862143.0,83.0,162.0,26.0,111.0,862.143
862153.0,82.0,158.0,30.0,116.0,862.153
862163.0,83.0,157.0,27.0,120.0,862.163
862173.0,82.0,152.0,25.0,116.0,862.173
862183.0,82.0,149.0,43.0,116.0,862.183
862193.0,81.0,146.0,38.0,113.0,862.193
862203.0,82.0,144.0,35.0,112.0,862.203
862213.0,80.0,142.0,31.0,114.0,862.213
862223.0,81.0,138.0,31.0,115.0,862.223
862233.0,81.0,138.0,29.0,114.0,862.233
862243.0,81.0,136.0,27.0,110.0,862.243
862253.0,80.0,133.0,24.0,104.0,862.253
862263.0,78.0,131.0,34.0,100.0,862.263
862273.0,80.0,128.0,41.0,101.0,862.273
862283.0,79.0,127.0,40.0,104.0,862.283
862294.0,78.0,122.0,35.0,103.0,862.294
862304.0,77.0,121.0,31.0,107.0,862.304
862314.0,76.0,118.0,30.0,102.0,862.314
862324.0,76.0,117.0,25.0,102.0,862.324
862334.0,74.0,114.0,23.0,98.0,862.334
862344.0,73.0,111.0,21.0,91.0,862.344
862354.0,73.0,110.0,19.0,86.0,862.354
862364.0,72.0,105.0,16.0,85.0,862.364
862374.0,71.0,103.0,14.0,81.0,862.374
862384.0,70.0,100.0,14.0,77.0,862.384
862394.0,71.0,95.0,12.0,82.0,862.394
862404.0,71.0,91.0,11.0,78.0,862.404
862414.0,71.0,85.0,10.0,77.0,862.414
862424.0,72.0,86.0,14.0,87.0,862.424
862434.0,72.0,82.0,14.0,92.0,862.434
862444.0,74.0,80.0,20.0,102.0,862.444
862454.0,77.0,79.0,23.0,100.0,862.454
862464.0,78.0,77.0,21.0,106.0,862.464
862474.0,80.0,81.0,18.0,102.0,862.474
862484.0,81.0,79.0,17.0,104.0,862.484
862494.0,82.0,79.0,14.0,102.0,862.494
862504.0,83.0,77.0,13.0,99.0,862.504
862514.0,82.0,76.0,12.0,98.0,862.514
862524.0,81.0,74.0,13.0,102.0,862.524
862534.0,83.0,71.0,15.0,103.0,862.534
862544.0,82.0,71.0,18.0,113.0,862.544
862554.0,85.0,71.0,21.0,111.0,862.554
862564.0,84.0,69.0,28.0,110.0,862.564
862574.0,84.0,70.0,26.0,116.0,862.574
862584.0,85.0,70.0,23.0,108.0,862.584
862594.0,85.0,70.0,21.0,99.0,862.594
862604.0,85.0,69.0,18.0,96.0,862.604
862614.0,82.0,67.0,17.0,103.0,862.614
862624.0,84.0,69.0,16.0,100.0,862.624
862635.0,82.0,69.0,14.0,95.0,862.635
862645.0,81.0,72.0,13.0,96.0,862.645
862655.0,80.0,74.0,13.0,98.0,862.655
862665.0,78.0,73.0,13.0,103.0,862.665
862675.0,79.0,76.0,14.0,101.0,862.675
862685.0,78.0,74.0,12.0,97.0,862.685
862695.0,78.0,73.0,11.0,102.0,862.695
862705.0,78.0,75.0,10.0,107.0,862.705
862715.0,78.0,75.0,10.0,100.0,862.715
862725.0,78.0,74.0,9.0,101.0,862.725
862735.0,79.0,73.0,9.0,106.0,862.735
862745.0,79.0,72.0,8.0,103.0,862.745
862755.0,78.0,71.0,6.0,96.0,862.755
862765.0,76.0,68.0,8.0,104.0,862.765
862775.0,75.0,68.0,13.0,103.0,862.775
862785.0,75.0,65.0,12.0,95.0,862.785
862795.0,76.0,67.0,13.0,90.0,862.795
862806.0,76.0,65.0,16.0,98.0,862.806
862816.0,77.0,66.0,22.0,101.0,862.816
862826.0,76.0,66.0,20.0,98.0,862.826
862836.0,75.0,65.0,18.0,91.0,862.836
862846.0,75.0,66.0,16.0,105.0,862.846
862856.0,75.0,66.0,15.0,111.0,862.856
862866.0,75.0,63.0,14.0,118.0,862.866
862876.0,77.0,65.0,17.0,109.0,862.876
862886.0,78.0,63.0,16.0,101.0,862.886
862896.0,79.0,64.0,14.0,95.0,862.896
862906.0,79.0,62.0,14.0,88.0,862.906
862916.0,79.0,62.0,13.0,92.0,862.916
862926.0,80.0,60.0,13.0,108.0,862.926
862936.0,80.0,60.0,12.0,105.0,862.936
862946.0,80.0,58.0,11.0,100.0,862.946
862956.0,81.0,58.0,10.0,107.0,862.956
862966.0,81.0,57.0,9.0,112.0,862.966
862976.0,81.0,57.0,9.0,107.0,862.976
862986.0,80.0,57.0,8.0,106.0,862.986
862996.0,78.0,54.0,8.0,103.0,862.996
863006.0,79.0,53.0,8.0,104.0,863.006
863016.0,79.0,51.0,8.0,105.0,863.016
863026.0,80.0,51.0,7.0,99.0,863.026
863036.0,78.0,50.0,7.0,108.0,863.036
863046.0,80.0,49.0,7.0,108.0,863.046
863056.0,80.0,51.0,7.0,102.0,863.056
863066.0,79.0,48.0,6.0,96.0,863.066
863076.0,79.0,49.0,6.0,91.0,863.076
863086.0,78.0,46.0,6.0,89.0,863.086
863096.0,78.0,45.0,8.0,104.0,863.096
863106.0,76.0,45.0,7.0,106.0,863.106
863116.0,78.0,43.0,8.0,108.0,863.116
863126.0,79.0,45.0,9.0,100.0,863.126
863136.0,80.0,45.0,8.0,94.0,863.136
863147.0,80.0,44.0,7.0,94.0,863.147
863157.0,79.0,43.0,7.0,100.0,863.157
863167.0,77.0,41.0,6.0,99.0,863.167
863177.0,74.0,41.0,6.0,100.0,863.177
863187.0,74.0,41.0,6.0,97.0,863.187
863197.0,72.0,41.0,6.0,97.0,863.197
863207.0,73.0,38.0,6.0,96.0,863.207
863217.0,72.0,40.0,6.0,93.0,863.217
863227.0,72.0,43.0,9.0,94.0,863.227
863237.0,72.0,43.0,8.0,97.0,863.237
863247.0,70.0,41.0,8.0,101.0,863.247
863257.0,71.0,40.0,8.0,98.0,863.257
863267.0,70.0,41.0,9.0,96.0,863.267
863277.0,70.0,39.0,8.0,94.0,863.277
863287.0,69.0,38.0,8.0,90.0,863.287
863297.0,69.0,39.0,9.0,86.0,863.297
863307.0,70.0,38.0,8.0,92.0,863.307
863318.0,70.0,38.0,10.0,99.0,863.318
863328.0,70.0,40.0,11.0,96.0,863.328
863338.0,72.0,41.0,10.0,107.0,863.338
863348.0,71.0,39.0,9.0,111.0,863.348
863358.0,69.0,38.0,9.0,112.0,863.358
863368.0,69.0,38.0,9.0,128.0,863.368
863378.0,70.0,37.0,8.0,128.0,863.378
863388.0,68.0,37.0,7.0,116.0,863.388
863398.0,68.0,36.0,7.0,117.0,863.398
863408.0,68.0,36.0,7.0,113.0,863.408
863418.0,67.0,34.0,7.0,114.0,863.418
863428.0,65.0,36.0,7.0,117.0,863.428
863438.0,65.0,37.0,9.0,112.0,863.438
863448.0,64.0,36.0,8.0,110.0,863.448
863458.0,63.0,35.0,6.0,120.0,863.458
863468.0,62.0,35.0,7.0,114.0,863.468
863478.0,61.0,35.0,6.0,127.0,863.478
863488.0,61.0,34.0,6.0,116.0,863.488
863498.0,60.0,36.0,9.0,106.0,863.498
863508.0,61.0,37.0,9.0,101.0,863.508
863518.0,61.0,37.0,8.0,98.0,863.518
863528.0,60.0,38.0,6.0,95.0,863.528
863538.0,60.0,37.0,6.0,96.0,863.538
863548.0,59.0,38.0,6.0,93.0,863.548
863558.0,58.0,38.0,6.0,93.0,863.558
863568.0,58.0,37.0,5.0,97.0,863.568
863578.0,57.0,37.0,6.0,95.0,863.578
863588.0,58.0,37.0,8.0,95.0,863.588
863598.0,58.0,38.0,10.0,103.0,863.598
863608.0,59.0,38.0,10.0,105.0,863.608
863618.0,58.0,38.0,10.0,100.0,863.618
863628.0,60.0,38.0,10.0,102.0,863.628
863638.0,59.0,37.0,8.0,107.0,863.638
863648.0,60.0,36.0,8.0,112.0,863.648
863659.0,59.0,36.0,9.0,118.0,863.659
863669.0,59.0,35.0,12.0,113.0,863.669
863679.0,61.0,37.0,12.0,110.0,863.679
863689.0,61.0,40.0,10.0,107.0,863.689
863699.0,60.0,37.0,9.0,105.0,863.699
863709.0,61.0,40.0,9.0,99.0,863.709
863719.0,60.0,39.0,9.0,91.0,863.719
863729.0,60.0,40.0,8.0,97.0,863.729
863739.0,60.0,41.0,14.0,107.0,863.739
863749.0,60.0,40.0,13.0,109.0,863.749
863759.0,62.0,40.0,12.0,115.0,863.759
863769.0,64.0,40.0,13.0,112.0,863.769
863779.0,63.0,41.0,13.0,114.0,863.779
863789.0,64.0,41.0,13.0,136.0,863.789
863799.0,63.0,39.0,11.0,129.0,863.799
863809.0,64.0,40.0,10.0,125.0,863.809
863819.0,66.0,40.0,10.0,115.0,863.819
863830.0,64.0,40.0,13.0,112.0,863.83
863840.0,66.0,40.0,12.0,102.0,863.84
863850.0,65.0,41.0,13.0,135.0,863.85
863860.0,65.0,41.0,15.0,133.0,863.86
863870.0,63.0,39.0,13.0,131.0,863.87
863880.0,64.0,41.0,13.0,128.0,863.88
863890.0,66.0,41.0,12.0,119.0,863.89
863900.0,64.0,41.0,11.0,118.0,863.9
863910.0,65.0,39.0,11.0,117.0,863.91
863920.0,65.0,39.0,11.0,118.0,863.92
863930.0,66.0,38.0,14.0,120.0,863.93
863940.0,67.0,38.0,13.0,111.0,863.94
863950.0,67.0,37.0,14.0,115.0,863.95
863960.0,67.0,36.0,12.0,109.0,863.96
863970.0,68.0,36.0,10.0,107.0,863.97
863980.0,67.0,36.0,11.0,105.0,863.98
863990.0,67.0,36.0,9.0,97.0,863.99
864000.0,68.0,36.0,10.0,99.0,864.0
864010.0,67.0,35.0,11.0,119.0,864.01
864020.0,65.0,35.0,13.0,139.0,864.02
864030.0,65.0,36.0,16.0,134.0,864.03
864040.0,64.0,37.0,16.0,132.0,864.04
864050.0,66.0,37.0,15.0,121.0,864.05
864060.0,64.0,37.0,14.0,115.0,864.06
864070.0,64.0,36.0,13.0,110.0,864.07
864080.0,64.0,37.0,12.0,119.0,864.08
864090.0,63.0,36.0,10.0,121.0,864.09
864100.0,63.0,36.0,13.0,126.0,864.1
864110.0,62.0,37.0,11.0,123.0,864.11
864120.0,61.0,36.0,12.0,119.0,864.12
864130.0,60.0,37.0,11.0,118.0,864.13
864140.0,59.0,35.0,12.0,121.0,864.14
864150.0,59.0,36.0,18.0,118.0,864.15
864160.0,59.0,37.0,16.0,124.0,864.16
864171.0,59.0,37.0,15.0,126.0,864.171
864181.0,58.0,38.0,13.0,125.0,864.181
864191.0,57.0,38.0,12.0,141.0,864.191
864201.0,57.0,40.0,11.0,131.0,864.201
864211.0,58.0,39.0,10.0,130.0,864.211
864221.0,57.0,41.0,9.0,135.0,864.221
864231.0,58.0,41.0,8.0,126.0,864.231
864241.0,60.0,41.0,9.0,116.0,864.241
864251.0,59.0,43.0,10.0,134.0,864.251
864261.0,61.0,42.0,12.0,136.0,864.261
864271.0,60.0,40.0,11.0,133.0,864.271
864281.0,60.0,41.0,10.0,126.0,864.281
864291.0,58.0,39.0,9.0,126.0,864.291
864301.0,56.0,39.0,8.0,126.0,864.301
864311.0,57.0,37.0,9.0,147.0,864.311
864321.0,58.0,39.0,9.0,144.0,864.321
864331.0,57.0,36.0,10.0,144.0,864.331
864342.0,57.0,39.0,9.0,139.0,864.342
864352.0,57.0,37.0,9.0,146.0,864.352
864362.0,58.0,37.0,11.0,138.0,864.362
864372.0,57.0,38.0,10.0,130.0,864.372
864382.0,58.0,37.0,11.0,129.0,864.382
864392.0,59.0,38.0,10.0,145.0,864.392
864402.0,61.0,36.0,12.0,151.0,864.402
864412.0,62.0,37.0,11.0,141.0,864.412
864422.0,61.0,38.0,10.0,132.0,864.422
864432.0,62.0,38.0,9.0,132.0,864.432
864442.0,60.0,41.0,8.0,132.0,864.442
864452.0,60.0,41.0,12.0,129.0,864.452
864462.0,60.0,41.0,12.0,131.0,864.462
864472.0,59.0,41.0,11.0,130.0,864.472
864482.0,59.0,42.0,13.0,125.0,864.482
864492.0,58.0,41.0,13.0,122.0,864.492
864502.0,57.0,41.0,18.0,115.0,864.502
864512.0,55.0,41.0,16.0,116.0,864.512
864522.0,57.0,39.0,17.0,125.0,864.522
864532.0,57.0,40.0,15.0,119.0,864.532
864542.0,57.0,37.0,16.0,111.0,864.542
864552.0,57.0,37.0,13.0,112.0,864.552
864562.0,56.0,37.0,13.0,115.0,864.562
864572.0,56.0,36.0,14.0,119.0,864.572
864582.0,55.0,36.0,12.0,114.0,864.582
864592.0,57.0,36.0,13.0,115.0,864.592
864602.0,56.0,36.0,10.0,113.0,864.602
864612.0,57.0,38.0,11.0,120.0,864.612
864622.0,57.0,36.0,10.0,114.0,864.622
864632.0,57.0,37.0,9.0,112.0,864.632
864642.0,57.0,37.0,8.0,110.0,864.642
864652.0,58.0,38.0,7.0,116.0,864.652
864662.0,57.0,37.0,7.0,109.0,864.662
864672.0,59.0,39.0,8.0,110.0,864.672
864683.0,60.0,37.0,8.0,110.0,864.683
864693.0,60.0,39.0,7.0,111.0,864.693
864703.0,61.0,38.0,9.0,117.0,864.703
864713.0,60.0,37.0,7.0,114.0,864.713
864723.0,59.0,37.0,7.0,120.0,864.723
864733.0,60.0,37.0,11.0,129.0,864.733
864743.0,62.0,38.0,10.0,121.0,864.743
864753.0,63.0,38.0,10.0,126.0,864.753
864763.0,62.0,41.0,10.0,121.0,864.763
864773.0,63.0,39.0,9.0,110.0,864.773
864783.0,63.0,42.0,10.0,126.0,864.783
864793.0,62.0,43.0,10.0,120.0,864.793
864803.0,62.0,43.0,9.0,121.0,864.803
864813.0,61.0,45.0,8.0,129.0,864.813
864823.0,60.0,46.0,8.0,124.0,864.823
864833.0,61.0,46.0,9.0,127.0,864.833
864843.0,61.0,47.0,12.0,134.0,864.843
864854.0,60.0,48.0,16.0,129.0,864.854
864864.0,60.0,49.0,14.0,128.0,864.864
864874.0,63.0,47.0,12.0,126.0,864.874
864884.0,62.0,49.0,11.0,123.0,864.884
864894.0,62.0,49.0,11.0,121.0,864.894
864904.0,62.0,49.0,9.0,116.0,864.904
864914.0,62.0,50.0,9.0,112.0,864.914
864924.0,62.0,49.0,10.0,110.0,864.924
864934.0,62.0,49.0,11.0,107.0,864.934
864944.0,62.0,49.0,10.0,100.0,864.944
864954.0,61.0,50.0,9.0,99.0,864.954
864964.0,62.0,48.0,9.0,122.0,864.964
864974.0,63.0,49.0,10.0,122.0,864.974
864984.0,61.0,48.0,9.0,112.0,864.984
864994.0,62.0,49.0,10.0,116.0,864.994
865004.0,60.0,49.0,9.0,112.0,865.004
865014.0,59.0,49.0,10.0,113.0,865.014
865024.0,59.0,49.0,11.0,111.0,865.024
865034.0,61.0,48.0,11.0,111.0,865.034
865044.0,60.0,48.0,9.0,107.0,865.044
865054.0,60.0,49.0,10.0,107.0,865.054
865064.0,58.0,50.0,9.0,108.0,865.064
865074.0,59.0,50.0,8.0,112.0,865.074
865084.0,60.0,49.0,8.0,127.0,865.084
865094.0,59.0,50.0,9.0,120.0,865.094
865104.0,59.0,49.0,10.0,136.0,865.104
865114.0,57.0,50.0,11.0,128.0,865.114
865124.0,58.0,52.0,10.0,117.0,865.124
865134.0,60.0,52.0,9.0,105.0,865.134
865144.0,60.0,54.0,7.0,103.0,865.144
865154.0,63.0,52.0,9.0,98.0,865.154
865164.0,63.0,54.0,8.0,101.0,865.164
865174.0,64.0,55.0,8.0,104.0,865.174
865184.0,65.0,55.0,8.0,96.0,865.184
865195.0,66.0,56.0,11.0,99.0,865.195
865205.0,67.0,54.0,10.0,99.0,865.205
865215.0,67.0,54.0,8.0,101.0,865.215
865225.0,68.0,53.0,8.0,103.0,865.225
865235.0,67.0,54.0,7.0,102.0,865.235
865245.0,66.0,53.0,7.0,115.0,865.245
865255.0,65.0,54.0,13.0,110.0,865.255
865265.0,66.0,52.0,14.0,110.0,865.265
865275.0,67.0,51.0,12.0,104.0,865.275
865285.0,67.0,51.0,10.0,104.0,865.285
865295.0,67.0,51.0,10.0,106.0,865.295
865305.0,66.0,51.0,11.0,101.0,865.305
865315.0,66.0,48.0,11.0,103.0,865.315
865325.0,67.0,47.0,10.0,111.0,865.325
865335.0,68.0,48.0,10.0,103.0,865.335
865345.0,67.0,48.0,9.0,103.0,865.345
865355.0,66.0,50.0,9.0,99.0,865.355
865366.0,69.0,47.0,8.0,106.0,865.366
865376.0,69.0,49.0,8.0,107.0,865.376
865386.0,70.0,47.0,7.0,103.0,865.386
865396.0,69.0,48.0,8.0,101.0,865.396
865406.0,69.0,48.0,9.0,99.0,865.406
865416.0,70.0,47.0,8.0,105.0,865.416
865426.0,70.0,45.0,8.0,107.0,865.426
865436.0,68.0,44.0,9.0,102.0,865.436
865446.0,67.0,45.0,9.0,100.0,865.446
865456.0,67.0,42.0,9.0,102.0,865.456
865466.0,65.0,43.0,8.0,100.0,865.466
865476.0,65.0,42.0,10.0,101.0,865.476
865486.0,65.0,42.0,8.0,100.0,865.486
865496.0,62.0,43.0,8.0,96.0,865.496
865506.0,61.0,44.0,11.0,95.0,865.506
865516.0,59.0,45.0,11.0,102.0,865.516
865526.0,61.0,43.0,10.0,104.0,865.526
865536.0,61.0,45.0,11.0,99.0,865.536
865546.0,59.0,46.0,10.0,98.0,865.546
865556.0,60.0,45.0,8.0,95.0,865.556
865566.0,58.0,45.0,7.0,89.0,865.566
865576.0,57.0,46.0,7.0,91.0,865.576
865586.0,57.0,47.0,7.0,110.0,865.586
865596.0,56.0,46.0,8.0,113.0,865.596
865606.0,55.0,46.0,7.0,113.0,865.606
865616.0,56.0,46.0,8.0,110.0,865.616
865626.0,54.0,46.0,6.0,105.0,865.626
865636.0,52.0,47.0,6.0,94.0,865.636
865646.0,51.0,47.0,8.0,98.0,865.646
865656.0,51.0,48.0,7.0,94.0,865.656
865666.0,50.0,46.0,8.0,92.0,865.666
865676.0,49.0,49.0,13.0,111.0,865.676
865686.0,49.0,49.0,14.0,109.0,865.686
865696.0,49.0,48.0,12.0,103.0,865.696
865707.0,51.0,47.0,12.0,120.0,865.707
865717.0,50.0,47.0,10.0,117.0,865.717
865727.0,51.0,48.0,13.0,109.0,865.727
865737.0,50.0,48.0,13.0,110.0,865.737
865747.0,50.0,51.0,11.0,104.0,865.747
865757.0,50.0,50.0,11.0,99.0,865.757
865767.0,50.0,53.0,10.0,111.0,865.767
865777.0,49.0,53.0,12.0,102.0,865.777
865787.0,50.0,52.0,12.0,99.0,865.787
865797.0,51.0,52.0,10.0,93.0,865.797
865807.0,50.0,51.0,10.0,86.0,865.807
865817.0,50.0,51.0,9.0,83.0,865.817
865827.0,52.0,51.0,11.0,94.0,865.827
865837.0,50.0,51.0,9.0,100.0,865.837
865847.0,50.0,50.0,8.0,92.0,865.847
865857.0,52.0,51.0,8.0,88.0,865.857
865867.0,52.0,53.0,8.0,90.0,865.867
865878.0,54.0,52.0,7.0,87.0,865.878
865888.0,53.0,54.0,11.0,84.0,865.888
865898.0,55.0,52.0,15.0,91.0,865.898
865908.0,54.0,52.0,14.0,95.0,865.908
865918.0,55.0,51.0,18.0,88.0,865.918
865928.0,56.0,49.0,16.0,81.0,865.928
865938.0,54.0,49.0,15.0,84.0,865.938
865948.0,54.0,48.0,14.0,87.0,865.948
865958.0,53.0,47.0,12.0,82.0,865.958
865968.0,53.0,46.0,12.0,83.0,865.968
865978.0,52.0,46.0,12.0,80.0,865.978
865988.0,51.0,46.0,20.0,82.0,865.988
865998.0,52.0,45.0,18.0,78.0,865.998
866008.0,51.0,45.0,17.0,76.0,866.008
866018.0,53.0,44.0,17.0,85.0,866.018
866028.0,51.0,44.0,15.0,85.0,866.028
866038.0,52.0,43.0,15.0,82.0,866.038
