time (ms),signal 0,signal 1,signal 2,signal3,time (sec)
889918.0,176.0,218.0,54.0,116.0,889.918
889928.0,177.0,216.0,51.0,126.0,889.928
889938.0,176.0,215.0,49.0,118.0,889.938
889948.0,176.0,213.0,47.0,109.0,889.948
889958.0,173.0,211.0,42.0,118.0,889.958
889968.0,169.0,206.0,47.0,110.0,889.968
889978.0,167.0,207.0,51.0,127.0,889.978
889988.0,165.0,207.0,53.0,124.0,889.988
889998.0,162.0,204.0,52.0,121.0,889.998
890008.0,159.0,202.0,53.0,115.0,890.008
890018.0,155.0,200.0,49.0,111.0,890.018
890028.0,151.0,197.0,46.0,110.0,890.028
890038.0,146.0,194.0,49.0,115.0,890.038
890048.0,144.0,193.0,58.0,110.0,890.048
890058.0,139.0,193.0,56.0,129.0,890.058
890068.0,136.0,192.0,54.0,127.0,890.068
890078.0,133.0,190.0,50.0,115.0,890.078
890088.0,129.0,188.0,49.0,110.0,890.088
890098.0,124.0,185.0,48.0,107.0,890.098
890108.0,118.0,182.0,55.0,109.0,890.108
890118.0,114.0,179.0,61.0,110.0,890.118
890128.0,111.0,182.0,58.0,119.0,890.128
890138.0,109.0,182.0,56.0,117.0,890.138
890148.0,104.0,179.0,53.0,116.0,890.148
890158.0,101.0,177.0,57.0,113.0,890.158
890168.0,95.0,174.0,60.0,102.0,890.168
890178.0,91.0,172.0,59.0,115.0,890.178
890188.0,87.0,169.0,62.0,109.0,890.188
890198.0,84.0,167.0,54.0,112.0,890.198
890208.0,79.0,162.0,55.0,109.0,890.208
890218.0,76.0,163.0,60.0,100.0,890.218
890228.0,72.0,160.0,57.0,103.0,890.228
890238.0,69.0,157.0,51.0,102.0,890.238
890248.0,67.0,156.0,47.0,102.0,890.248
890258.0,64.0,153.0,45.0,109.0,890.258
890268.0,61.0,150.0,45.0,109.0,890.268
890278.0,58.0,146.0,44.0,98.0,890.278
890288.0,56.0,143.0,45.0,105.0,890.288
890298.0,56.0,141.0,45.0,107.0,890.298
890308.0,55.0,138.0,51.0,105.0,890.308
890318.0,52.0,135.0,48.0,112.0,890.318
890328.0,52.0,131.0,50.0,117.0,890.328
890338.0,51.0,130.0,46.0,113.0,890.338
890348.0,49.0,128.0,43.0,110.0,890.348
890358.0,48.0,126.0,41.0,104.0,890.358
890368.0,48.0,122.0,40.0,100.0,890.368
890378.0,49.0,119.0,36.0,98.0,890.378
890388.0,49.0,115.0,39.0,97.0,890.388
890398.0,49.0,111.0,43.0,99.0,890.398
890408.0,50.0,107.0,68.0,92.0,890.408
890418.0,49.0,106.0,66.0,93.0,890.418
890428.0,48.0,106.0,59.0,104.0,890.428
890438.0,48.0,105.0,58.0,109.0,890.438
890448.0,50.0,104.0,51.0,105.0,890.448
890458.0,52.0,103.0,49.0,107.0,890.458
890468.0,54.0,101.0,44.0,104.0,890.468
890478.0,57.0,101.0,41.0,96.0,890.478
890488.0,59.0,97.0,50.0,90.0,890.488
890498.0,63.0,94.0,63.0,90.0,890.498
890508.0,63.0,95.0,58.0,88.0,890.508
890518.0,66.0,93.0,56.0,83.0,890.518
890528.0,66.0,92.0,49.0,84.0,890.528
890539.0,69.0,90.0,60.0,92.0,890.539
890549.0,70.0,90.0,60.0,94.0,890.549
890559.0,71.0,88.0,54.0,100.0,890.559
890569.0,72.0,89.0,50.0,100.0,890.569
890579.0,75.0,86.0,47.0,101.0,890.579
890589.0,76.0,87.0,42.0,104.0,890.589
890599.0,77.0,85.0,37.0,102.0,890.599
890609.0,78.0,81.0,47.0,98.0,890.609
890619.0,79.0,83.0,57.0,101.0,890.619
890629.0,81.0,80.0,53.0,102.0,890.629
890639.0,82.0,79.0,47.0,104.0,890.639
890649.0,85.0,77.0,42.0,102.0,890.649
890659.0,84.0,76.0,40.0,111.0,890.659
890669.0,84.0,77.0,38.0,119.0,890.669
890679.0,87.0,74.0,45.0,118.0,890.679
890689.0,88.0,75.0,48.0,116.0,890.689
890699.0,90.0,72.0,51.0,109.0,890.699
890710.0,92.0,71.0,48.0,111.0,890.71
890720.0,93.0,73.0,46.0,107.0,890.72
890730.0,94.0,73.0,43.0,97.0,890.73
890740.0,95.0,74.0,39.0,95.0,890.74
890750.0,96.0,76.0,48.0,102.0,890.75
890760.0,97.0,79.0,51.0,108.0,890.76
890770.0,95.0,80.0,46.0,108.0,890.77
890780.0,97.0,79.0,40.0,102.0,890.78
890790.0,98.0,81.0,36.0,105.0,890.79
890800.0,100.0,81.0,35.0,108.0,890.8
890810.0,100.0,82.0,32.0,116.0,890.81
890820.0,100.0,83.0,32.0,124.0,890.82
890830.0,99.0,85.0,40.0,138.0,890.83
890840.0,99.0,84.0,38.0,129.0,890.84
890850.0,98.0,83.0,37.0,119.0,890.85
890860.0,99.0,81.0,37.0,125.0,890.86
890870.0,99.0,80.0,33.0,131.0,890.87
890880.0,98.0,79.0,32.0,129.0,890.88
890890.0,99.0,78.0,30.0,121.0,890.89
890900.0,99.0,77.0,29.0,117.0,890.9
890910.0,99.0,76.0,40.0,121.0,890.91
890920.0,99.0,75.0,35.0,117.0,890.92
890930.0,101.0,73.0,38.0,112.0,890.93
890940.0,100.0,73.0,34.0,113.0,890.94
890950.0,98.0,72.0,30.0,108.0,890.95
890960.0,100.0,72.0,27.0,100.0,890.96
890970.0,99.0,72.0,25.0,100.0,890.97
890980.0,100.0,69.0,27.0,101.0,890.98
890990.0,100.0,70.0,26.0,107.0,890.99
891000.0,101.0,68.0,30.0,107.0,891.0
891010.0,102.0,70.0,31.0,111.0,891.01
891020.0,102.0,70.0,28.0,113.0,891.02
891030.0,101.0,69.0,25.0,116.0,891.03
891040.0,102.0,71.0,24.0,114.0,891.04
891051.0,101.0,70.0,22.0,112.0,891.051
891061.0,102.0,69.0,20.0,108.0,891.061
891071.0,103.0,67.0,17.0,100.0,891.071
891081.0,103.0,66.0,16.0,93.0,891.081
891091.0,103.0,65.0,14.0,85.0,891.091
891101.0,106.0,61.0,13.0,85.0,891.101
891111.0,105.0,61.0,10.0,89.0,891.111
891121.0,105.0,60.0,11.0,82.0,891.121
891131.0,102.0,60.0,10.0,81.0,891.131
891141.0,104.0,58.0,10.0,78.0,891.141
891151.0,108.0,56.0,9.0,88.0,891.151
891161.0,107.0,57.0,7.0,97.0,891.161
891171.0,123.0,56.0,8.0,89.0,891.171
891181.0,126.0,61.0,7.0,86.0,891.181
891191.0,150.0,63.0,7.0,82.0,891.191
891201.0,155.0,66.0,6.0,87.0,891.201
891211.0,209.0,83.0,9.0,91.0,891.211
891222.0,220.0,86.0,8.0,89.0,891.222
891232.0,212.0,96.0,7.0,95.0,891.232
891242.0,205.0,93.0,10.0,89.0,891.242
891252.0,226.0,106.0,20.0,92.0,891.252
891262.0,248.0,124.0,22.0,94.0,891.262
891272.0,235.0,120.0,21.0,92.0,891.272
891282.0,237.0,121.0,19.0,95.0,891.282
891292.0,218.0,120.0,16.0,92.0,891.292
891302.0,206.0,113.0,15.0,98.0,891.302
891312.0,201.0,106.0,14.0,98.0,891.312
891322.0,192.0,105.0,16.0,110.0,891.322
891332.0,188.0,97.0,14.0,135.0,891.332
891342.0,180.0,92.0,13.0,132.0,891.342
891352.0,180.0,86.0,21.0,124.0,891.352
891362.0,174.0,81.0,22.0,126.0,891.362
891372.0,167.0,79.0,20.0,138.0,891.372
891382.0,163.0,77.0,22.0,137.0,891.382
891392.0,166.0,77.0,22.0,143.0,891.392
891402.0,161.0,76.0,21.0,142.0,891.402
891412.0,158.0,78.0,23.0,135.0,891.412
891422.0,154.0,82.0,21.0,140.0,891.422
891432.0,149.0,88.0,18.0,136.0,891.432
891442.0,147.0,93.0,16.0,145.0,891.442
891452.0,144.0,93.0,14.0,141.0,891.452
891462.0,143.0,93.0,14.0,135.0,891.462
891472.0,140.0,92.0,17.0,127.0,891.472
891482.0,138.0,92.0,15.0,125.0,891.482
891492.0,136.0,96.0,14.0,149.0,891.492
891502.0,132.0,98.0,12.0,147.0,891.502
891512.0,133.0,98.0,12.0,145.0,891.512
891522.0,136.0,99.0,12.0,149.0,891.522
891532.0,129.0,105.0,11.0,145.0,891.532
891542.0,129.0,105.0,9.0,145.0,891.542
891552.0,123.0,110.0,9.0,144.0,891.552
891563.0,121.0,113.0,10.0,139.0,891.563
891573.0,119.0,116.0,9.0,137.0,891.573
891583.0,118.0,117.0,7.0,132.0,891.583
891593.0,117.0,118.0,7.0,127.0,891.593
891603.0,114.0,120.0,7.0,126.0,891.603
891613.0,111.0,120.0,7.0,116.0,891.613
891623.0,112.0,120.0,9.0,114.0,891.623
891633.0,113.0,120.0,9.0,116.0,891.633
891643.0,112.0,120.0,8.0,115.0,891.643
891653.0,110.0,121.0,7.0,121.0,891.653
891663.0,111.0,120.0,8.0,117.0,891.663
891673.0,107.0,123.0,7.0,128.0,891.673
891683.0,105.0,121.0,7.0,129.0,891.683
891693.0,103.0,119.0,5.0,125.0,891.693
891703.0,101.0,120.0,6.0,120.0,891.703
891713.0,102.0,118.0,6.0,126.0,891.713
891723.0,100.0,116.0,6.0,123.0,891.723
891734.0,102.0,113.0,5.0,118.0,891.734
891744.0,101.0,112.0,5.0,120.0,891.744
891754.0,100.0,110.0,5.0,136.0,891.754
891764.0,99.0,106.0,4.0,131.0,891.764
891774.0,99.0,105.0,5.0,126.0,891.774
891784.0,101.0,102.0,4.0,133.0,891.784
891794.0,100.0,101.0,4.0,152.0,891.794
891804.0,98.0,100.0,4.0,146.0,891.804
891814.0,99.0,98.0,3.0,134.0,891.814
891824.0,100.0,92.0,4.0,129.0,891.824
891834.0,100.0,90.0,4.0,124.0,891.834
891844.0,104.0,83.0,5.0,128.0,891.844
891854.0,101.0,82.0,5.0,130.0,891.854
891864.0,106.0,81.0,4.0,134.0,891.864
891874.0,102.0,84.0,5.0,135.0,891.874
891884.0,100.0,84.0,5.0,154.0,891.884
891894.0,99.0,80.0,4.0,162.0,891.894
891904.0,99.0,79.0,4.0,174.0,891.904
891914.0,100.0,76.0,5.0,179.0,891.914
891924.0,102.0,71.0,5.0,178.0,891.924
891934.0,98.0,72.0,4.0,181.0,891.934
891944.0,98.0,71.0,5.0,190.0,891.944
891954.0,96.0,71.0,5.0,185.0,891.954
891964.0,95.0,67.0,5.0,183.0,891.964
891974.0,95.0,66.0,4.0,181.0,891.974
891984.0,96.0,62.0,5.0,173.0,891.984
891994.0,97.0,59.0,4.0,159.0,891.994
892004.0,97.0,58.0,4.0,156.0,892.004
892014.0,97.0,56.0,4.0,156.0,892.014
892024.0,95.0,57.0,3.0,161.0,892.024
892034.0,97.0,55.0,4.0,154.0,892.034
892044.0,97.0,53.0,3.0,142.0,892.044
892054.0,96.0,52.0,4.0,146.0,892.054
892064.0,96.0,49.0,3.0,147.0,892.064
892075.0,93.0,48.0,5.0,173.0,892.075
892085.0,94.0,47.0,3.0,169.0,892.085
892095.0,93.0,46.0,3.0,158.0,892.095
892105.0,91.0,44.0,4.0,151.0,892.105
892115.0,91.0,44.0,3.0,155.0,892.115
892125.0,91.0,42.0,3.0,160.0,892.125
892135.0,89.0,42.0,4.0,166.0,892.135
892145.0,86.0,42.0,4.0,154.0,892.145
892155.0,87.0,41.0,3.0,153.0,892.155
892165.0,88.0,43.0,3.0,146.0,892.165
892175.0,89.0,41.0,4.0,151.0,892.175
892185.0,86.0,40.0,4.0,144.0,892.185
892195.0,85.0,39.0,5.0,136.0,892.195
892205.0,86.0,39.0,3.0,131.0,892.205
892215.0,84.0,39.0,4.0,132.0,892.215
892225.0,83.0,39.0,4.0,131.0,892.225
892235.0,82.0,40.0,4.0,125.0,892.235
892246.0,80.0,39.0,4.0,116.0,892.246
892256.0,79.0,44.0,4.0,110.0,892.256
892266.0,79.0,47.0,5.0,113.0,892.266
892276.0,77.0,53.0,4.0,114.0,892.276
892286.0,75.0,57.0,4.0,121.0,892.286
892296.0,74.0,61.0,4.0,118.0,892.296
892306.0,74.0,65.0,3.0,127.0,892.306
892316.0,72.0,66.0,3.0,121.0,892.316
892326.0,70.0,69.0,3.0,124.0,892.326
892336.0,71.0,72.0,4.0,121.0,892.336
892346.0,69.0,72.0,4.0,126.0,892.346
892356.0,66.0,72.0,4.0,122.0,892.356
892366.0,68.0,72.0,3.0,130.0,892.366
892376.0,68.0,76.0,3.0,121.0,892.376
892386.0,68.0,75.0,4.0,113.0,892.386
892396.0,67.0,75.0,3.0,117.0,892.396
892406.0,65.0,74.0,4.0,116.0,892.406
892416.0,64.0,73.0,4.0,114.0,892.416
892426.0,63.0,75.0,4.0,112.0,892.426
892436.0,64.0,73.0,3.0,120.0,892.436
892446.0,65.0,74.0,3.0,116.0,892.446
892456.0,63.0,74.0,4.0,123.0,892.456
892466.0,61.0,73.0,3.0,122.0,892.466
892476.0,62.0,75.0,5.0,118.0,892.476
892486.0,62.0,75.0,3.0,111.0,892.486
892496.0,63.0,75.0,3.0,103.0,892.496
892506.0,64.0,76.0,4.0,103.0,892.506
892516.0,63.0,77.0,3.0,105.0,892.516
892526.0,63.0,76.0,4.0,110.0,892.526
892536.0,62.0,76.0,3.0,111.0,892.536
892546.0,63.0,75.0,3.0,102.0,892.546
892556.0,62.0,75.0,4.0,105.0,892.556
892566.0,60.0,76.0,3.0,106.0,892.566
892576.0,60.0,77.0,4.0,113.0,892.576
892587.0,58.0,78.0,4.0,117.0,892.587
892597.0,58.0,77.0,4.0,112.0,892.597
892607.0,57.0,78.0,3.0,104.0,892.607
892617.0,55.0,76.0,5.0,93.0,892.617
892627.0,54.0,77.0,3.0,92.0,892.627
892637.0,52.0,77.0,3.0,93.0,892.637
892647.0,55.0,76.0,3.0,103.0,892.647
892657.0,53.0,74.0,3.0,117.0,892.657
892667.0,51.0,72.0,4.0,113.0,892.667
892677.0,51.0,71.0,3.0,139.0,892.677
892687.0,51.0,70.0,3.0,135.0,892.687
892697.0,50.0,70.0,3.0,141.0,892.697
892707.0,49.0,67.0,4.0,130.0,892.707
892717.0,50.0,67.0,4.0,119.0,892.717
892727.0,49.0,67.0,3.0,119.0,892.727
892737.0,49.0,66.0,4.0,114.0,892.737
892747.0,49.0,69.0,4.0,123.0,892.747
892758.0,49.0,68.0,4.0,114.0,892.758
892768.0,49.0,71.0,4.0,120.0,892.768
892778.0,48.0,71.0,3.0,132.0,892.778
892788.0,48.0,71.0,4.0,143.0,892.788
892798.0,48.0,72.0,3.0,162.0,892.798
892808.0,50.0,72.0,4.0,154.0,892.808
892818.0,49.0,74.0,4.0,147.0,892.818
892828.0,50.0,75.0,5.0,147.0,892.828
892838.0,50.0,76.0,4.0,136.0,892.838
892848.0,48.0,76.0,4.0,137.0,892.848
892858.0,49.0,77.0,4.0,133.0,892.858
892868.0,48.0,76.0,3.0,130.0,892.868
892878.0,49.0,76.0,4.0,128.0,892.878
892888.0,48.0,76.0,3.0,121.0,892.888
892898.0,49.0,76.0,5.0,117.0,892.898
892908.0,48.0,75.0,4.0,122.0,892.908
892918.0,51.0,75.0,3.0,126.0,892.918
892928.0,51.0,73.0,4.0,129.0,892.928
892938.0,50.0,73.0,3.0,126.0,892.938
892948.0,49.0,72.0,4.0,117.0,892.948
892958.0,48.0,73.0,3.0,119.0,892.958
892968.0,48.0,73.0,5.0,118.0,892.968
892978.0,46.0,73.0,4.0,112.0,892.978
892988.0,46.0,74.0,3.0,112.0,892.988
892998.0,46.0,76.0,3.0,108.0,892.998
893008.0,46.0,79.0,3.0,108.0,893.008
893018.0,45.0,76.0,4.0,106.0,893.018
893028.0,47.0,77.0,4.0,110.0,893.028
893038.0,49.0,76.0,3.0,116.0,893.038
893048.0,48.0,76.0,4.0,126.0,893.048
893058.0,47.0,75.0,3.0,132.0,893.058
893068.0,48.0,76.0,4.0,123.0,893.068
893078.0,47.0,76.0,3.0,116.0,893.078
893088.0,46.0,77.0,3.0,109.0,893.088
893099.0,46.0,79.0,3.0,113.0,893.099
893109.0,46.0,78.0,4.0,111.0,893.109
893119.0,48.0,79.0,2.0,108.0,893.119
893129.0,47.0,80.0,3.0,110.0,893.129
893139.0,46.0,79.0,3.0,108.0,893.139
893149.0,46.0,78.0,3.0,111.0,893.149
893159.0,47.0,78.0,3.0,110.0,893.159
893169.0,45.0,76.0,3.0,112.0,893.169
893179.0,45.0,75.0,4.0,110.0,893.179
893189.0,45.0,75.0,3.0,107.0,893.189
893199.0,44.0,74.0,3.0,107.0,893.199
893209.0,45.0,73.0,3.0,122.0,893.209
893219.0,45.0,73.0,3.0,115.0,893.219
893229.0,45.0,72.0,3.0,118.0,893.229
893239.0,43.0,73.0,3.0,112.0,893.239
893249.0,45.0,72.0,5.0,110.0,893.249
893259.0,45.0,74.0,4.0,104.0,893.259
893270.0,45.0,71.0,5.0,105.0,893.27
893280.0,45.0,74.0,3.0,108.0,893.28
893290.0,47.0,71.0,3.0,149.0,893.29
893300.0,47.0,68.0,4.0,156.0,893.3
893310.0,47.0,67.0,5.0,146.0,893.31
893320.0,49.0,67.0,11.0,138.0,893.32
893330.0,49.0,66.0,10.0,132.0,893.33
893340.0,50.0,70.0,12.0,132.0,893.34
893350.0,61.0,84.0,47.0,141.0,893.35
893360.0,62.0,79.0,61.0,158.0,893.36
893370.0,62.0,90.0,103.0,182.0,893.37
893380.0,81.0,100.0,160.0,193.0,893.38
893390.0,95.0,102.0,186.0,206.0,893.39
893400.0,104.0,100.0,222.0,230.0,893.4
893410.0,111.0,101.0,219.0,276.0,893.41
893420.0,109.0,110.0,302.0,329.0,893.42
893430.0,128.0,105.0,307.0,322.0,893.43
893440.0,127.0,105.0,306.0,337.0,893.44
893450.0,132.0,104.0,311.0,378.0,893.45
893460.0,138.0,101.0,279.0,351.0,893.46
893470.0,136.0,105.0,266.0,382.0,893.47
893480.0,137.0,104.0,246.0,360.0,893.48
893490.0,137.0,103.0,225.0,388.0,893.49
893500.0,141.0,96.0,219.0,381.0,893.5
893510.0,141.0,93.0,201.0,344.0,893.51
893520.0,141.0,93.0,186.0,311.0,893.52
893530.0,137.0,98.0,167.0,333.0,893.53
893540.0,139.0,96.0,155.0,340.0,893.54
893550.0,137.0,95.0,144.0,306.0,893.55
893560.0,137.0,97.0,139.0,283.0,893.56
893570.0,136.0,98.0,126.0,262.0,893.57
893580.0,134.0,97.0,117.0,253.0,893.58
893590.0,133.0,96.0,114.0,237.0,893.59
893600.0,141.0,92.0,119.0,239.0,893.6
893611.0,140.0,87.0,105.0,227.0,893.611
893621.0,140.0,84.0,98.0,209.0,893.621
893631.0,138.0,83.0,93.0,193.0,893.631
893641.0,137.0,78.0,85.0,182.0,893.641
893651.0,135.0,74.0,81.0,195.0,893.651
893661.0,131.0,72.0,78.0,179.0,893.661
893671.0,127.0,74.0,84.0,182.0,893.671
893681.0,126.0,69.0,86.0,176.0,893.681
893691.0,121.0,66.0,79.0,189.0,893.691
893701.0,120.0,64.0,77.0,187.0,893.701
893711.0,117.0,63.0,71.0,174.0,893.711
893721.0,115.0,58.0,64.0,176.0,893.721
893731.0,111.0,57.0,64.0,174.0,893.731
893741.0,111.0,57.0,67.0,167.0,893.741
893751.0,110.0,55.0,66.0,180.0,893.751
893761.0,108.0,53.0,64.0,166.0,893.761
893771.0,108.0,51.0,59.0,163.0,893.771
893782.0,106.0,49.0,62.0,150.0,893.782
893792.0,105.0,46.0,61.0,174.0,893.792
893802.0,101.0,46.0,68.0,167.0,893.802
893812.0,100.0,45.0,65.0,155.0,893.812
893822.0,100.0,46.0,56.0,155.0,893.822
893832.0,97.0,44.0,56.0,146.0,893.832
893842.0,96.0,44.0,49.0,141.0,893.842
893852.0,95.0,44.0,45.0,141.0,893.852
893862.0,92.0,42.0,45.0,128.0,893.862
893872.0,90.0,44.0,52.0,132.0,893.872
893882.0,91.0,44.0,48.0,133.0,893.882
893892.0,92.0,45.0,44.0,133.0,893.892
893902.0,90.0,43.0,51.0,133.0,893.902
893912.0,88.0,44.0,46.0,131.0,893.912
893922.0,87.0,44.0,43.0,135.0,893.922
893932.0,86.0,42.0,40.0,141.0,893.932
893942.0,83.0,44.0,47.0,129.0,893.942
893952.0,85.0,46.0,47.0,128.0,893.952
893962.0,81.0,43.0,40.0,119.0,893.962
893972.0,80.0,42.0,36.0,109.0,893.972
893982.0,79.0,41.0,32.0,111.0,893.982
893992.0,75.0,41.0,29.0,109.0,893.992
894002.0,75.0,38.0,26.0,106.0,894.002
894012.0,73.0,38.0,23.0,98.0,894.012
894022.0,72.0,37.0,22.0,97.0,894.022
894032.0,71.0,37.0,21.0,96.0,894.032
894042.0,69.0,37.0,20.0,99.0,894.042
894052.0,69.0,37.0,23.0,96.0,894.052
894062.0,67.0,38.0,35.0,98.0,894.062
894072.0,70.0,40.0,36.0,111.0,894.072
894082.0,70.0,41.0,34.0,123.0,894.082
894092.0,69.0,42.0,31.0,128.0,894.092
894102.0,70.0,44.0,27.0,134.0,894.102
894112.0,68.0,44.0,24.0,141.0,894.112
894123.0,69.0,45.0,21.0,132.0,894.123
894133.0,67.0,43.0,20.0,121.0,894.133
894143.0,66.0,44.0,24.0,114.0,894.143
894153.0,66.0,45.0,31.0,129.0,894.153
894163.0,66.0,43.0,39.0,120.0,894.163
894173.0,63.0,45.0,34.0,119.0,894.173
894183.0,63.0,45.0,30.0,113.0,894.183
894193.0,62.0,47.0,33.0,118.0,894.193
894203.0,62.0,49.0,31.0,116.0,894.203
894213.0,61.0,50.0,31.0,112.0,894.213
894223.0,59.0,49.0,29.0,120.0,894.223
894233.0,61.0,48.0,27.0,120.0,894.233
894243.0,59.0,47.0,37.0,111.0,894.243
894253.0,60.0,47.0,36.0,113.0,894.253
894263.0,58.0,47.0,35.0,115.0,894.263
894273.0,60.0,50.0,50.0,119.0,894.273
894283.0,62.0,48.0,46.0,114.0,894.283
894294.0,62.0,47.0,40.0,111.0,894.294
894304.0,63.0,46.0,35.0,103.0,894.304
894314.0,62.0,45.0,30.0,111.0,894.314
894324.0,60.0,45.0,27.0,109.0,894.324
894334.0,59.0,44.0,30.0,108.0,894.334
894344.0,57.0,45.0,30.0,126.0,894.344
894354.0,55.0,46.0,34.0,129.0,894.354
894364.0,57.0,49.0,31.0,124.0,894.364
894374.0,59.0,51.0,28.0,119.0,894.374
894384.0,58.0,52.0,24.0,110.0,894.384
894394.0,57.0,50.0,21.0,116.0,894.394
894404.0,56.0,49.0,32.0,118.0,894.404
894414.0,54.0,50.0,29.0,115.0,894.414
894424.0,54.0,50.0,34.0,119.0,894.424
894434.0,53.0,51.0,33.0,111.0,894.434
894444.0,54.0,50.0,36.0,107.0,894.444
894454.0,55.0,51.0,33.0,112.0,894.454
894464.0,53.0,50.0,31.0,114.0,894.464
894474.0,53.0,50.0,35.0,109.0,894.474
894484.0,52.0,50.0,30.0,105.0,894.484
894494.0,53.0,48.0,30.0,96.0,894.494
894504.0,53.0,48.0,28.0,91.0,894.504
894514.0,54.0,48.0,31.0,92.0,894.514
894524.0,52.0,46.0,30.0,111.0,894.524
894534.0,53.0,47.0,27.0,135.0,894.534
894544.0,53.0,46.0,23.0,129.0,894.544
894554.0,51.0,46.0,21.0,127.0,894.554
894564.0,50.0,44.0,19.0,124.0,894.564
894574.0,50.0,43.0,16.0,119.0,894.574
894584.0,49.0,41.0,15.0,120.0,894.584
894594.0,48.0,41.0,20.0,122.0,894.594
894604.0,49.0,42.0,20.0,115.0,894.604
894614.0,48.0,41.0,18.0,107.0,894.614
894624.0,48.0,41.0,18.0,113.0,894.624
894635.0,50.0,39.0,16.0,110.0,894.635
894645.0,49.0,40.0,15.0,107.0,894.645
894655.0,49.0,38.0,13.0,112.0,894.655
894665.0,49.0,40.0,22.0,106.0,894.665
894675.0,50.0,39.0,25.0,115.0,894.675
894685.0,51.0,39.0,22.0,111.0,894.685
894695.0,51.0,39.0,19.0,107.0,894.695
894705.0,51.0,38.0,19.0,117.0,894.705
894715.0,50.0,40.0,28.0,116.0,894.715
894725.0,51.0,40.0,31.0,111.0,894.725
894735.0,53.0,39.0,27.0,109.0,894.735
894745.0,54.0,42.0,34.0,103.0,894.745
894755.0,55.0,41.0,30.0,98.0,894.755
894765.0,55.0,41.0,27.0,94.0,894.765
894775.0,54.0,38.0,27.0,114.0,894.775
894785.0,53.0,40.0,24.0,124.0,894.785
894795.0,53.0,37.0,22.0,114.0,894.795
894806.0,51.0,37.0,18.0,109.0,894.806
894816.0,52.0,37.0,17.0,106.0,894.816
894826.0,52.0,37.0,18.0,100.0,894.826
894836.0,52.0,38.0,16.0,97.0,894.836
894846.0,53.0,36.0,16.0,114.0,894.846
894856.0,53.0,37.0,13.0,113.0,894.856
894866.0,53.0,36.0,13.0,103.0,894.866
894876.0,53.0,36.0,12.0,104.0,894.876
894886.0,53.0,36.0,15.0,99.0,894.886
894896.0,53.0,37.0,20.0,93.0,894.896
894906.0,51.0,38.0,19.0,107.0,894.906
894916.0,52.0,36.0,19.0,103.0,894.916
894926.0,52.0,39.0,27.0,110.0,894.926
894936.0,53.0,37.0,27.0,105.0,894.936
894946.0,53.0,37.0,23.0,103.0,894.946
894956.0,54.0,40.0,32.0,104.0,894.956
894966.0,54.0,39.0,27.0,97.0,894.966
894976.0,54.0,39.0,25.0,106.0,894.976
894986.0,55.0,38.0,21.0,103.0,894.986
894996.0,56.0,41.0,19.0,100.0,894.996
895006.0,57.0,42.0,18.0,95.0,895.006
895016.0,56.0,43.0,18.0,89.0,895.016
895026.0,57.0,45.0,19.0,86.0,895.026
895036.0,57.0,45.0,20.0,85.0,895.036
895046.0,57.0,44.0,27.0,83.0,895.046
895056.0,57.0,44.0,26.0,94.0,895.056
895066.0,58.0,45.0,23.0,109.0,895.066
895076.0,57.0,46.0,21.0,107.0,895.076
895086.0,56.0,46.0,17.0,103.0,895.086
895096.0,55.0,47.0,18.0,102.0,895.096
895106.0,55.0,47.0,16.0,100.0,895.106
895116.0,55.0,46.0,14.0,107.0,895.116
895126.0,55.0,46.0,13.0,103.0,895.126
895136.0,56.0,48.0,12.0,103.0,895.136
895147.0,56.0,48.0,30.0,101.0,895.147
895157.0,55.0,48.0,26.0,103.0,895.157
895167.0,54.0,45.0,23.0,115.0,895.167
895177.0,55.0,44.0,22.0,115.0,895.177
895187.0,54.0,44.0,19.0,118.0,895.187
895197.0,53.0,42.0,17.0,108.0,895.197
895207.0,53.0,41.0,20.0,106.0,895.207
895217.0,54.0,39.0,18.0,98.0,895.217
895227.0,53.0,40.0,17.0,100.0,895.227
895237.0,52.0,40.0,15.0,101.0,895.237
895247.0,52.0,39.0,15.0,100.0,895.247
895257.0,51.0,39.0,16.0,105.0,895.257
895267.0,50.0,39.0,15.0,108.0,895.267
895277.0,49.0,41.0,25.0,107.0,895.277
895287.0,50.0,40.0,25.0,114.0,895.287
895297.0,49.0,41.0,21.0,107.0,895.297
895307.0,49.0,40.0,20.0,100.0,895.307
895318.0,50.0,39.0,17.0,106.0,895.318
895328.0,51.0,40.0,15.0,110.0,895.328
895338.0,51.0,39.0,14.0,122.0,895.338
895348.0,53.0,38.0,13.0,128.0,895.348
895358.0,53.0,39.0,19.0,123.0,895.358
895368.0,54.0,40.0,28.0,114.0,895.368
895378.0,55.0,39.0,26.0,112.0,895.378
895388.0,55.0,40.0,23.0,108.0,895.388
895398.0,55.0,40.0,24.0,100.0,895.398
895408.0,57.0,38.0,22.0,100.0,895.408
895418.0,57.0,38.0,20.0,107.0,895.418
895428.0,60.0,38.0,18.0,116.0,895.428
895438.0,62.0,38.0,16.0,113.0,895.438
895448.0,62.0,38.0,15.0,108.0,895.448
895458.0,62.0,37.0,14.0,104.0,895.458
895468.0,62.0,37.0,13.0,115.0,895.468
895478.0,62.0,35.0,11.0,119.0,895.478
895488.0,61.0,35.0,13.0,114.0,895.488
895498.0,61.0,38.0,30.0,116.0,895.498
895508.0,59.0,38.0,34.0,120.0,895.508
895518.0,59.0,38.0,36.0,116.0,895.518
895528.0,59.0,39.0,33.0,112.0,895.528
895538.0,60.0,38.0,32.0,106.0,895.538
895548.0,60.0,38.0,30.0,106.0,895.548
895558.0,60.0,37.0,25.0,99.0,895.558
895568.0,61.0,37.0,23.0,93.0,895.568
895578.0,59.0,38.0,20.0,91.0,895.578
895588.0,59.0,39.0,18.0,87.0,895.588
895598.0,58.0,41.0,16.0,88.0,895.598
895608.0,58.0,41.0,16.0,90.0,895.608
895618.0,59.0,41.0,15.0,84.0,895.618
895628.0,58.0,45.0,21.0,84.0,895.628
895638.0,59.0,43.0,21.0,82.0,895.638
895648.0,58.0,42.0,17.0,87.0,895.648
895659.0,58.0,42.0,15.0,98.0,895.659
895669.0,59.0,41.0,14.0,96.0,895.669
895679.0,58.0,42.0,13.0,93.0,895.679
895689.0,59.0,40.0,11.0,91.0,895.689
895699.0,58.0,41.0,11.0,88.0,895.699
895709.0,59.0,41.0,13.0,82.0,895.709
895719.0,59.0,42.0,28.0,81.0,895.719
895729.0,59.0,41.0,23.0,77.0,895.729
895739.0,59.0,40.0,21.0,77.0,895.739
895749.0,60.0,40.0,18.0,72.0,895.749
895759.0,59.0,39.0,17.0,82.0,895.759
895769.0,57.0,39.0,15.0,79.0,895.769
895779.0,59.0,39.0,17.0,85.0,895.779
895789.0,57.0,38.0,15.0,84.0,895.789
895799.0,55.0,37.0,18.0,81.0,895.799
895809.0,57.0,39.0,32.0,77.0,895.809
895819.0,57.0,40.0,31.0,80.0,895.819
895830.0,57.0,38.0,30.0,94.0,895.83
895840.0,59.0,38.0,28.0,91.0,895.84
895850.0,60.0,38.0,25.0,95.0,895.85
895860.0,60.0,36.0,21.0,91.0,895.86
895870.0,60.0,36.0,20.0,91.0,895.87
895880.0,60.0,35.0,17.0,91.0,895.88
895890.0,58.0,37.0,16.0,88.0,895.89
895900.0,57.0,36.0,17.0,92.0,895.9
895910.0,56.0,36.0,21.0,93.0,895.91
895920.0,56.0,36.0,29.0,98.0,895.92
895930.0,56.0,35.0,34.0,98.0,895.93
895940.0,55.0,36.0,31.0,96.0,895.94
895950.0,57.0,35.0,27.0,97.0,895.95
895960.0,54.0,36.0,24.0,102.0,895.96
895970.0,56.0,36.0,22.0,108.0,895.97
895980.0,56.0,36.0,19.0,105.0,895.98
895990.0,55.0,36.0,18.0,100.0,895.99
896000.0,56.0,38.0,29.0,98.0,896.0
896010.0,57.0,38.0,27.0,97.0,896.01
896020.0,56.0,37.0,24.0,108.0,896.02
896030.0,54.0,37.0,26.0,125.0,896.03
896040.0,56.0,37.0,23.0,122.0,896.04
896050.0,55.0,37.0,20.0,121.0,896.05
896060.0,55.0,36.0,19.0,118.0,896.06
896070.0,55.0,37.0,21.0,107.0,896.07
896080.0,57.0,36.0,19.0,98.0,896.08
896090.0,56.0,35.0,17.0,89.0,896.09
896100.0,56.0,38.0,19.0,82.0,896.1
896110.0,55.0,38.0,25.0,94.0,896.11
896120.0,56.0,39.0,24.0,97.0,896.12
896130.0,56.0,38.0,23.0,99.0,896.13
896140.0,56.0,38.0,20.0,95.0,896.14
896150.0,54.0,37.0,17.0,89.0,896.15
896160.0,55.0,37.0,18.0,93.0,896.16
896171.0,55.0,38.0,15.0,93.0,896.171
896181.0,55.0,37.0,20.0,88.0,896.181
896191.0,53.0,37.0,19.0,100.0,896.191
896201.0,55.0,38.0,31.0,94.0,896.201
896211.0,57.0,39.0,26.0,87.0,896.211
896221.0,58.0,39.0,24.0,85.0,896.221
896231.0,57.0,39.0,24.0,82.0,896.231
896241.0,58.0,39.0,22.0,77.0,896.241
896251.0,58.0,38.0,19.0,71.0,896.251
896261.0,57.0,38.0,17.0,88.0,896.261
896271.0,59.0,38.0,17.0,90.0,896.271
896281.0,58.0,36.0,14.0,94.0,896.281
896291.0,58.0,36.0,16.0,88.0,896.291
896301.0,58.0,37.0,20.0,101.0,896.301
896311.0,58.0,38.0,18.0,99.0,896.311
896321.0,57.0,36.0,18.0,98.0,896.321
896331.0,57.0,37.0,15.0,96.0,896.331
896342.0,57.0,36.0,15.0,89.0,896.342
896352.0,56.0,36.0,12.0,89.0,896.352
896362.0,55.0,35.0,12.0,83.0,896.362
896372.0,57.0,35.0,11.0,86.0,896.372
896382.0,58.0,36.0,12.0,95.0,896.382
896392.0,58.0,36.0,13.0,87.0,896.392
896402.0,56.0,38.0,16.0,86.0,896.402
896412.0,59.0,38.0,21.0,83.0,896.412
896422.0,60.0,38.0,18.0,76.0,896.422
896432.0,60.0,38.0,17.0,70.0,896.432
896442.0,60.0,37.0,16.0,65.0,896.442
896452.0,59.0,37.0,14.0,62.0,896.452
896462.0,60.0,36.0,13.0,59.0,896.462
896472.0,60.0,36.0,11.0,60.0,896.472
896482.0,61.0,35.0,11.0,57.0,896.482
896492.0,62.0,35.0,10.0,55.0,896.492
896502.0,61.0,37.0,22.0,64.0,896.502
896512.0,63.0,37.0,30.0,67.0,896.512
896522.0,63.0,39.0,30.0,64.0,896.522
896532.0,64.0,36.0,26.0,60.0,896.532
896542.0,65.0,37.0,23.0,55.0,896.542
896552.0,65.0,37.0,21.0,51.0,896.552
896562.0,64.0,37.0,18.0,50.0,896.562
896572.0,64.0,37.0,16.0,56.0,896.572
896582.0,65.0,37.0,15.0,60.0,896.582
896592.0,62.0,38.0,16.0,63.0,896.592
896602.0,65.0,37.0,16.0,67.0,896.602
896612.0,65.0,38.0,21.0,67.0,896.612
896622.0,66.0,38.0,23.0,67.0,896.622
896632.0,66.0,37.0,20.0,64.0,896.632
896642.0,65.0,36.0,18.0,59.0,896.642
896652.0,65.0,36.0,16.0,54.0,896.652
896662.0,65.0,35.0,15.0,56.0,896.662
896672.0,65.0,36.0,15.0,66.0,896.672
896683.0,65.0,36.0,15.0,66.0,896.683
896693.0,65.0,36.0,17.0,67.0,896.693
896703.0,66.0,36.0,16.0,67.0,896.703
896713.0,66.0,36.0,18.0,81.0,896.713
896723.0,67.0,37.0,19.0,86.0,896.723
896733.0,67.0,38.0,17.0,82.0,896.733
896743.0,66.0,36.0,16.0,87.0,896.743
896753.0,65.0,36.0,13.0,79.0,896.753
896763.0,64.0,36.0,14.0,74.0,896.763
896773.0,62.0,36.0,12.0,71.0,896.773
896783.0,61.0,35.0,11.0,65.0,896.783
896793.0,61.0,36.0,10.0,65.0,896.793
896803.0,61.0,37.0,9.0,74.0,896.803
896813.0,59.0,36.0,9.0,94.0,896.813
896823.0,57.0,38.0,13.0,100.0,896.823
896833.0,59.0,40.0,18.0,106.0,896.833
896843.0,59.0,40.0,16.0,109.0,896.843
896854.0,59.0,39.0,15.0,106.0,896.854
896864.0,58.0,39.0,14.0,98.0,896.864
896874.0,58.0,38.0,11.0,92.0,896.874
896884.0,58.0,36.0,11.0,84.0,896.884
896894.0,58.0,37.0,9.0,90.0,896.894
896904.0,59.0,38.0,11.0,92.0,896.904
896914.0,58.0,37.0,9.0,87.0,896.914
896924.0,58.0,39.0,16.0,81.0,896.924
896934.0,57.0,39.0,18.0,79.0,896.934
896944.0,58.0,39.0,16.0,76.0,896.944
896954.0,61.0,38.0,15.0,86.0,896.954
896964.0,60.0,38.0,15.0,92.0,896.964
896974.0,61.0,37.0,15.0,104.0,896.974
896984.0,60.0,36.0,12.0,101.0,896.984
896994.0,59.0,38.0,12.0,96.0,896.994
897004.0,58.0,37.0,11.0,89.0,897.004
897014.0,59.0,39.0,9.0,88.0,897.014
897024.0,60.0,38.0,9.0,87.0,897.024
897034.0,60.0,39.0,23.0,84.0,897.034
897044.0,62.0,39.0,21.0,86.0,897.044
897054.0,63.0,39.0,18.0,92.0,897.054
897064.0,62.0,38.0,18.0,83.0,897.064
897074.0,61.0,38.0,16.0,83.0,897.074
897084.0,62.0,39.0,14.0,80.0,897.084
897094.0,61.0,39.0,21.0,82.0,897.094
897104.0,61.0,38.0,20.0,79.0,897.104
897114.0,61.0,37.0,20.0,85.0,897.114
897124.0,62.0,38.0,17.0,84.0,897.124
897134.0,60.0,37.0,16.0,84.0,897.134
897144.0,61.0,37.0,16.0,82.0,897.144
897154.0,61.0,37.0,15.0,87.0,897.154
897164.0,61.0,36.0,14.0,87.0,897.164
897174.0,61.0,35.0,12.0,85.0,897.174
897184.0,61.0,36.0,12.0,87.0,897.184
897195.0,61.0,36.0,10.0,89.0,897.195
897205.0,62.0,37.0,18.0,83.0,897.205
897215.0,63.0,37.0,18.0,81.0,897.215
897225.0,63.0,38.0,16.0,80.0,897.225
897235.0,64.0,38.0,16.0,87.0,897.235
897245.0,62.0,38.0,17.0,94.0,897.245
897255.0,63.0,38.0,20.0,91.0,897.255
897265.0,63.0,38.0,17.0,83.0,897.265
897275.0,62.0,37.0,16.0,79.0,897.275
897285.0,63.0,37.0,14.0,78.0,897.285
897295.0,61.0,39.0,15.0,97.0,897.295
897305.0,60.0,38.0,15.0,96.0,897.305
897315.0,60.0,38.0,21.0,94.0,897.315
897325.0,61.0,37.0,20.0,88.0,897.325
897335.0,60.0,37.0,16.0,85.0,897.335
897345.0,58.0,37.0,15.0,83.0,897.345
897355.0,59.0,36.0,14.0,82.0,897.355
897366.0,59.0,37.0,17.0,88.0,897.366
897376.0,58.0,36.0,16.0,82.0,897.376
897386.0,58.0,35.0,14.0,85.0,897.386
897396.0,59.0,35.0,14.0,78.0,897.396
897406.0,57.0,35.0,11.0,76.0,897.406
897416.0,56.0,36.0,17.0,79.0,897.416
897426.0,56.0,37.0,18.0,85.0,897.426
897436.0,55.0,37.0,17.0,90.0,897.436
897446.0,56.0,37.0,18.0,90.0,897.446
897456.0,57.0,36.0,15.0,84.0,897.456
897466.0,58.0,37.0,14.0,79.0,897.466
897476.0,56.0,36.0,12.0,78.0,897.476
897486.0,56.0,35.0,12.0,81.0,897.486
897496.0,57.0,36.0,11.0,77.0,897.496
897506.0,55.0,35.0,10.0,72.0,897.506
897516.0,55.0,36.0,11.0,72.0,897.516
897526.0,53.0,37.0,11.0,73.0,897.526
897536.0,54.0,37.0,14.0,74.0,897.536
897546.0,54.0,37.0,18.0,74.0,897.546
897556.0,54.0,37.0,18.0,73.0,897.556
897566.0,54.0,36.0,16.0,72.0,897.566
897576.0,53.0,37.0,16.0,74.0,897.576
897586.0,53.0,36.0,15.0,73.0,897.586
897596.0,51.0,36.0,17.0,68.0,897.596
897606.0,53.0,37.0,17.0,68.0,897.606
897616.0,53.0,37.0,15.0,65.0,897.616
897626.0,54.0,41.0,27.0,67.0,897.626
897636.0,57.0,40.0,24.0,77.0,897.636
897646.0,57.0,40.0,21.0,84.0,897.646
897656.0,58.0,39.0,19.0,76.0,897.656
897666.0,57.0,41.0,17.0,76.0,897.666
897676.0,59.0,41.0,16.0,71.0,897.676
897686.0,57.0,43.0,15.0,72.0,897.686
897696.0,55.0,43.0,14.0,71.0,897.696
897707.0,55.0,44.0,13.0,103.0,897.707
897717.0,57.0,42.0,12.0,109.0,897.717
897727.0,57.0,42.0,12.0,100.0,897.727
897737.0,59.0,42.0,10.0,95.0,897.737
897747.0,58.0,43.0,11.0,91.0,897.747
897757.0,58.0,43.0,10.0,87.0,897.757
897767.0,58.0,43.0,8.0,80.0,897.767
897777.0,57.0,45.0,13.0,75.0,897.777
897787.0,57.0,46.0,29.0,78.0,897.787
897797.0,59.0,44.0,25.0,82.0,897.797
897807.0,58.0,44.0,21.0,84.0,897.807
897817.0,58.0,43.0,20.0,82.0,897.817
897827.0,57.0,44.0,18.0,81.0,897.827
897837.0,57.0,44.0,17.0,81.0,897.837
897847.0,56.0,43.0,15.0,82.0,897.847
897857.0,54.0,44.0,13.0,80.0,897.857
897867.0,54.0,42.0,13.0,80.0,897.867
897878.0,54.0,42.0,11.0,74.0,897.878
897888.0,54.0,40.0,11.0,69.0,897.888
897898.0,54.0,40.0,8.0,68.0,897.898
897908.0,52.0,40.0,8.0,64.0,897.908
897918.0,52.0,42.0,18.0,63.0,897.918
897928.0,50.0,42.0,16.0,61.0,897.928
897938.0,51.0,42.0,15.0,56.0,897.938
897948.0,50.0,44.0,13.0,52.0,897.948
897958.0,50.0,46.0,15.0,51.0,897.958
897968.0,51.0,45.0,13.0,52.0,897.968
897978.0,52.0,47.0,11.0,49.0,897.978
897988.0,52.0,45.0,11.0,47.0,897.988
897998.0,51.0,48.0,19.0,51.0,897.998
898008.0,55.0,46.0,19.0,48.0,898.008
898018.0,54.0,46.0,16.0,51.0,898.018
898028.0,57.0,45.0,15.0,55.0,898.028
898038.0,56.0,44.0,13.0,61.0,898.038
898048.0,57.0,45.0,12.0,61.0,898.048
898058.0,58.0,45.0,11.0,61.0,898.058
898068.0,59.0,45.0,10.0,76.0,898.068
898078.0,60.0,46.0,9.0,74.0,898.078
898088.0,60.0,46.0,9.0,72.0,898.088
898098.0,61.0,47.0,9.0,69.0,898.098
898108.0,62.0,47.0,10.0,67.0,898.108
898118.0,61.0,50.0,10.0,68.0,898.118
898128.0,61.0,49.0,21.0,69.0,898.128
898138.0,61.0,50.0,19.0,70.0,898.138
898148.0,61.0,48.0,17.0,70.0,898.148
898158.0,61.0,48.0,17.0,79.0,898.158
898168.0,61.0,47.0,15.0,75.0,898.168
898178.0,62.0,47.0,13.0,74.0,898.178
898188.0,60.0,48.0,12.0,70.0,898.188
898198.0,60.0,48.0,11.0,65.0,898.198
898208.0,58.0,50.0,10.0,66.0,898.208
898219.0,58.0,50.0,11.0,71.0,898.219
898229.0,58.0,51.0,20.0,79.0,898.229
898239.0,59.0,51.0,22.0,83.0,898.239
898249.0,58.0,54.0,19.0,85.0,898.249
898259.0,58.0,54.0,18.0,85.0,898.259
898269.0,59.0,54.0,16.0,80.0,898.269
898279.0,59.0,56.0,14.0,82.0,898.279
898289.0,57.0,57.0,14.0,78.0,898.289
898299.0,56.0,58.0,12.0,73.0,898.299
898309.0,57.0,58.0,11.0,78.0,898.309
898319.0,57.0,58.0,10.0,77.0,898.319
898329.0,55.0,58.0,9.0,78.0,898.329
898339.0,55.0,61.0,15.0,82.0,898.339
898349.0,54.0,59.0,19.0,79.0,898.349
898359.0,54.0,58.0,18.0,78.0,898.359
898369.0,53.0,58.0,15.0,78.0,898.369
898379.0,54.0,59.0,15.0,74.0,898.379
898390.0,52.0,60.0,12.0,68.0,898.39
898400.0,52.0,61.0,11.0,65.0,898.4
898410.0,51.0,62.0,10.0,60.0,898.41
898420.0,50.0,64.0,9.0,60.0,898.42
898430.0,49.0,65.0,18.0,55.0,898.43
898440.0,51.0,65.0,19.0,55.0,898.44
898450.0,51.0,65.0,18.0,53.0,898.45
898460.0,50.0,64.0,17.0,50.0,898.46
898470.0,48.0,64.0,15.0,52.0,898.47
898480.0,48.0,63.0,14.0,60.0,898.48
898490.0,49.0,61.0,13.0,64.0,898.49
898500.0,51.0,58.0,13.0,66.0,898.5
898510.0,51.0,57.0,11.0,68.0,898.51
898520.0,52.0,54.0,10.0,70.0,898.52
898530.0,53.0,53.0,9.0,70.0,898.53
898540.0,52.0,54.0,7.0,65.0,898.54
898550.0,53.0,54.0,8.0,63.0,898.55
898560.0,54.0,57.0,7.0,62.0,898.56
898570.0,54.0,60.0,13.0,60.0,898.57
898580.0,53.0,58.0,13.0,68.0,898.58
898590.0,54.0,59.0,13.0,71.0,898.59
898600.0,55.0,57.0,10.0,72.0,898.6
898610.0,54.0,57.0,10.0,72.0,898.61
898620.0,56.0,56.0,9.0,69.0,898.62
898630.0,57.0,56.0,10.0,72.0,898.63
898640.0,58.0,54.0,11.0,67.0,898.64
898650.0,59.0,53.0,10.0,70.0,898.65
898660.0,61.0,51.0,10.0,67.0,898.66
898670.0,61.0,50.0,9.0,65.0,898.67
898680.0,62.0,48.0,8.0,65.0,898.68
898690.0,63.0,49.0,17.0,73.0,898.69
898700.0,62.0,47.0,18.0,78.0,898.7
898710.0,61.0,46.0,20.0,72.0,898.71
898720.0,60.0,46.0,17.0,74.0,898.72
898731.0,60.0,46.0,18.0,71.0,898.731
898741.0,60.0,45.0,15.0,74.0,898.741
898751.0,60.0,45.0,15.0,74.0,898.751
898761.0,61.0,44.0,14.0,74.0,898.761
898771.0,61.0,44.0,11.0,73.0,898.771
898781.0,60.0,45.0,18.0,74.0,898.781
898791.0,61.0,45.0,17.0,74.0,898.791
898801.0,63.0,48.0,24.0,77.0,898.801
898811.0,63.0,47.0,28.0,74.0,898.811
898821.0,64.0,47.0,26.0,81.0,898.821
898831.0,64.0,47.0,23.0,88.0,898.831
898841.0,64.0,48.0,21.0,80.0,898.841
898851.0,62.0,50.0,20.0,79.0,898.851
898861.0,64.0,51.0,17.0,80.0,898.861
898871.0,64.0,50.0,17.0,77.0,898.871
898881.0,63.0,50.0,14.0,78.0,898.881
898891.0,62.0,50.0,13.0,75.0,898.891
898902.0,61.0,51.0,13.0,75.0,898.902
898912.0,60.0,54.0,27.0,82.0,898.912
898922.0,62.0,52.0,32.0,74.0,898.922
898932.0,63.0,53.0,27.0,77.0,898.932
898942.0,64.0,54.0,26.0,82.0,898.942
898952.0,64.0,55.0,22.0,83.0,898.952
898962.0,64.0,56.0,20.0,93.0,898.962
898972.0,65.0,57.0,18.0,96.0,898.972
898982.0,65.0,59.0,16.0,97.0,898.982
898992.0,64.0,58.0,16.0,100.0,898.992
899002.0,64.0,59.0,15.0,98.0,899.002
899012.0,65.0,58.0,16.0,90.0,899.012
899022.0,62.0,60.0,19.0,87.0,899.022
899032.0,63.0,58.0,25.0,85.0,899.032
899042.0,62.0,59.0,22.0,91.0,899.042
899052.0,61.0,59.0,19.0,88.0,899.052
899062.0,60.0,58.0,19.0,99.0,899.062
899072.0,59.0,61.0,16.0,102.0,899.072
899082.0,58.0,60.0,16.0,99.0,899.082
899092.0,58.0,61.0,14.0,90.0,899.092
899102.0,55.0,63.0,12.0,83.0,899.102
899112.0,55.0,63.0,11.0,87.0,899.112
899122.0,54.0,63.0,10.0,81.0,899.122
899132.0,54.0,62.0,11.0,84.0,899.132
899142.0,54.0,63.0,11.0,84.0,899.142
899152.0,55.0,63.0,21.0,87.0,899.152
899162.0,55.0,62.0,19.0,89.0,899.162
899172.0,54.0,60.0,17.0,84.0,899.172
899182.0,54.0,60.0,16.0,88.0,899.182
899192.0,54.0,60.0,14.0,85.0,899.192
899202.0,54.0,58.0,13.0,84.0,899.202
899212.0,55.0,57.0,12.0,79.0,899.212
899222.0,55.0,56.0,11.0,81.0,899.222
899232.0,56.0,55.0,10.0,84.0,899.232
899243.0,56.0,53.0,11.0,89.0,899.243
899253.0,58.0,53.0,10.0,94.0,899.253
899263.0,58.0,54.0,9.0,90.0,899.263
899273.0,58.0,52.0,13.0,87.0,899.273
899283.0,59.0,51.0,21.0,89.0,899.283
899293.0,59.0,51.0,21.0,89.0,899.293
899303.0,58.0,50.0,18.0,92.0,899.303
899313.0,58.0,48.0,17.0,89.0,899.313
899323.0,58.0,46.0,16.0,98.0,899.323
899333.0,60.0,45.0,16.0,97.0,899.333
899343.0,61.0,42.0,14.0,95.0,899.343
899353.0,62.0,43.0,13.0,91.0,899.353
899363.0,61.0,43.0,12.0,86.0,899.363
899373.0,59.0,43.0,10.0,83.0,899.373
899383.0,59.0,46.0,20.0,77.0,899.383
899393.0,58.0,47.0,26.0,79.0,899.393
899403.0,57.0,47.0,31.0,92.0,899.403
899414.0,57.0,44.0,29.0,88.0,899.414
899424.0,56.0,44.0,25.0,97.0,899.424
899434.0,55.0,44.0,24.0,99.0,899.434
899444.0,52.0,45.0,21.0,93.0,899.444
899454.0,51.0,45.0,18.0,101.0,899.454
899464.0,51.0,45.0,16.0,106.0,899.464
899474.0,50.0,48.0,16.0,100.0,899.474
899484.0,51.0,46.0,16.0,98.0,899.484
899494.0,49.0,50.0,23.0,98.0,899.494
899504.0,50.0,48.0,31.0,98.0,899.504
899514.0,50.0,48.0,28.0,93.0,899.514
899524.0,48.0,49.0,24.0,89.0,899.524
899534.0,49.0,49.0,21.0,83.0,899.534
899544.0,50.0,50.0,19.0,78.0,899.544
899554.0,49.0,48.0,18.0,72.0,899.554
899564.0,48.0,49.0,15.0,68.0,899.564
899574.0,49.0,49.0,15.0,73.0,899.574
899584.0,48.0,48.0,13.0,75.0,899.584
899594.0,48.0,47.0,13.0,83.0,899.594
899604.0,49.0,45.0,12.0,79.0,899.604
899614.0,50.0,47.0,11.0,75.0,899.614
899624.0,50.0,44.0,11.0,74.0,899.624
899634.0,51.0,47.0,23.0,82.0,899.634
899644.0,51.0,45.0,23.0,80.0,899.644
899654.0,49.0,45.0,20.0,87.0,899.654
899664.0,49.0,44.0,17.0,81.0,899.664
899674.0,48.0,44.0,16.0,79.0,899.674
899684.0,47.0,44.0,15.0,74.0,899.684
899694.0,47.0,42.0,15.0,83.0,899.694
899704.0,48.0,42.0,14.0,86.0,899.704
899714.0,49.0,41.0,13.0,81.0,899.714
899724.0,49.0,42.0,10.0,90.0,899.724
899734.0,50.0,41.0,10.0,91.0,899.734
899744.0,51.0,40.0,9.0,89.0,899.744
899755.0,51.0,41.0,11.0,88.0,899.755
899765.0,54.0,39.0,11.0,89.0,899.765
899775.0,55.0,39.0,9.0,85.0,899.775
899785.0,56.0,39.0,12.0,87.0,899.785
899795.0,56.0,40.0,24.0,91.0,899.795
899805.0,57.0,39.0,23.0,86.0,899.805
899815.0,57.0,39.0,21.0,87.0,899.815
899825.0,57.0,38.0,19.0,80.0,899.825
899835.0,58.0,36.0,18.0,78.0,899.835
899845.0,57.0,37.0,17.0,84.0,899.845
899855.0,59.0,36.0,15.0,82.0,899.855
899865.0,59.0,36.0,14.0,86.0,899.865
899875.0,58.0,35.0,12.0,81.0,899.875
899885.0,61.0,35.0,11.0,81.0,899.885
899895.0,59.0,36.0,11.0,78.0,899.895
899905.0,62.0,35.0,10.0,80.0,899.905
899915.0,63.0,34.0,9.0,75.0,899.915
899926.0,65.0,34.0,12.0,70.0,899.926
899936.0,64.0,36.0,12.0,65.0,899.936
899946.0,65.0,35.0,11.0,63.0,899.946
