time (ms),signal 0,signal 1,signal 2,signal3,time (sec)
956707.0,52.0,39.0,6.0,45.0,956.707
956717.0,53.0,40.0,7.0,45.0,956.717
956727.0,51.0,41.0,7.0,44.0,956.727
956737.0,52.0,40.0,8.0,46.0,956.737
956747.0,53.0,40.0,7.0,47.0,956.747
956758.0,54.0,40.0,6.0,47.0,956.758
956768.0,55.0,41.0,6.0,51.0,956.768
956778.0,54.0,43.0,6.0,53.0,956.778
956788.0,55.0,45.0,6.0,53.0,956.788
956798.0,57.0,46.0,5.0,53.0,956.798
956808.0,57.0,46.0,6.0,54.0,956.808
956818.0,57.0,47.0,5.0,55.0,956.818
956828.0,58.0,46.0,7.0,53.0,956.828
956838.0,57.0,46.0,5.0,55.0,956.838
956848.0,56.0,47.0,4.0,54.0,956.848
956858.0,56.0,47.0,5.0,53.0,956.858
956868.0,57.0,49.0,5.0,55.0,956.868
956878.0,56.0,49.0,5.0,52.0,956.878
956888.0,55.0,51.0,6.0,54.0,956.888
956898.0,56.0,49.0,7.0,55.0,956.898
956908.0,55.0,50.0,5.0,54.0,956.908
956918.0,55.0,50.0,4.0,50.0,956.918
956928.0,58.0,49.0,4.0,53.0,956.928
956938.0,58.0,50.0,5.0,56.0,956.938
956948.0,59.0,50.0,5.0,51.0,956.948
956958.0,58.0,52.0,4.0,51.0,956.958
956968.0,58.0,52.0,6.0,50.0,956.968
956978.0,59.0,51.0,5.0,50.0,956.978
956988.0,58.0,52.0,4.0,54.0,956.988
956998.0,58.0,49.0,4.0,52.0,956.998
957008.0,58.0,51.0,3.0,51.0,957.008
957018.0,57.0,50.0,4.0,48.0,957.018
957028.0,56.0,49.0,5.0,51.0,957.028
957038.0,56.0,49.0,6.0,51.0,957.038
957048.0,56.0,49.0,5.0,51.0,957.048
957058.0,54.0,48.0,4.0,55.0,957.058
957068.0,55.0,47.0,5.0,55.0,957.068
957078.0,54.0,47.0,5.0,59.0,957.078
957088.0,55.0,44.0,4.0,62.0,957.088
957099.0,55.0,44.0,4.0,60.0,957.099
957109.0,55.0,43.0,4.0,60.0,957.109
957119.0,56.0,43.0,4.0,60.0,957.119
957129.0,55.0,44.0,4.0,62.0,957.129
957139.0,56.0,44.0,5.0,60.0,957.139
957149.0,57.0,44.0,5.0,60.0,957.149
957159.0,57.0,42.0,5.0,60.0,957.159
957169.0,57.0,43.0,7.0,59.0,957.169
957179.0,56.0,42.0,7.0,59.0,957.179
957189.0,55.0,43.0,6.0,57.0,957.189
957199.0,54.0,43.0,6.0,56.0,957.199
957209.0,53.0,42.0,6.0,56.0,957.209
957219.0,54.0,44.0,6.0,59.0,957.219
957229.0,54.0,42.0,7.0,58.0,957.229
957239.0,55.0,40.0,5.0,57.0,957.239
957249.0,57.0,39.0,7.0,55.0,957.249
957259.0,58.0,39.0,6.0,53.0,957.259
957270.0,59.0,38.0,6.0,52.0,957.27
957280.0,58.0,38.0,6.0,49.0,957.28
957290.0,59.0,39.0,7.0,49.0,957.29
957300.0,60.0,38.0,7.0,46.0,957.3
957310.0,60.0,38.0,5.0,47.0,957.31
957320.0,60.0,41.0,6.0,46.0,957.32
957330.0,60.0,42.0,8.0,43.0,957.33
957340.0,60.0,42.0,7.0,44.0,957.34
957350.0,61.0,42.0,8.0,44.0,957.35
957360.0,62.0,44.0,8.0,44.0,957.36
957370.0,64.0,42.0,12.0,46.0,957.37
957380.0,65.0,40.0,11.0,43.0,957.38
957390.0,67.0,39.0,11.0,43.0,957.39
957400.0,68.0,38.0,12.0,42.0,957.4
957410.0,70.0,38.0,11.0,42.0,957.41
957420.0,72.0,37.0,10.0,41.0,957.42
957430.0,72.0,40.0,11.0,41.0,957.43
957440.0,71.0,39.0,11.0,39.0,957.44
957450.0,72.0,41.0,20.0,41.0,957.45
957460.0,72.0,41.0,20.0,47.0,957.46
957470.0,72.0,40.0,17.0,47.0,957.47
957480.0,70.0,39.0,14.0,45.0,957.48
957490.0,69.0,39.0,17.0,44.0,957.49
957500.0,69.0,39.0,15.0,43.0,957.5
957510.0,70.0,37.0,15.0,42.0,957.51
957520.0,68.0,36.0,15.0,44.0,957.52
957530.0,67.0,36.0,14.0,44.0,957.53
957540.0,67.0,35.0,13.0,45.0,957.54
957550.0,66.0,36.0,12.0,43.0,957.55
957560.0,64.0,37.0,12.0,41.0,957.56
957570.0,64.0,37.0,12.0,40.0,957.57
957580.0,64.0,36.0,13.0,39.0,957.58
957590.0,64.0,37.0,12.0,40.0,957.59
957600.0,64.0,37.0,12.0,47.0,957.6
957611.0,64.0,38.0,12.0,48.0,957.611
957621.0,64.0,38.0,11.0,47.0,957.621
957631.0,63.0,37.0,10.0,45.0,957.631
957641.0,63.0,39.0,10.0,46.0,957.641
957651.0,62.0,38.0,10.0,44.0,957.651
957661.0,62.0,40.0,9.0,43.0,957.661
957671.0,63.0,38.0,10.0,46.0,957.671
957681.0,63.0,40.0,9.0,49.0,957.681
957691.0,60.0,40.0,9.0,46.0,957.691
957701.0,60.0,40.0,9.0,45.0,957.701
957711.0,61.0,43.0,9.0,44.0,957.711
957721.0,62.0,40.0,9.0,40.0,957.721
957731.0,63.0,42.0,8.0,42.0,957.731
957741.0,64.0,43.0,9.0,40.0,957.741
957751.0,63.0,43.0,8.0,46.0,957.751
957761.0,62.0,43.0,7.0,48.0,957.761
957771.0,62.0,43.0,8.0,46.0,957.771
957782.0,63.0,43.0,10.0,47.0,957.782
957792.0,64.0,40.0,9.0,46.0,957.792
957802.0,64.0,42.0,9.0,46.0,957.802
957812.0,65.0,43.0,8.0,43.0,957.812
957822.0,64.0,43.0,8.0,45.0,957.822
957832.0,64.0,43.0,8.0,46.0,957.832
957842.0,66.0,41.0,9.0,47.0,957.842
957852.0,66.0,42.0,8.0,47.0,957.852
957862.0,67.0,41.0,7.0,46.0,957.862
957872.0,68.0,41.0,7.0,46.0,957.872
957882.0,71.0,42.0,7.0,44.0,957.882
957892.0,72.0,43.0,8.0,42.0,957.892
957902.0,71.0,45.0,7.0,40.0,957.902
957912.0,72.0,45.0,7.0,39.0,957.912
957922.0,72.0,45.0,7.0,41.0,957.922
957932.0,72.0,44.0,7.0,38.0,957.932
957942.0,73.0,45.0,5.0,39.0,957.942
957952.0,74.0,44.0,7.0,38.0,957.952
957962.0,75.0,47.0,6.0,37.0,957.962
957972.0,76.0,48.0,6.0,37.0,957.972
957982.0,76.0,47.0,7.0,40.0,957.982
957992.0,74.0,51.0,6.0,48.0,957.992
958002.0,75.0,50.0,6.0,46.0,958.002
958012.0,72.0,51.0,8.0,46.0,958.012
958022.0,73.0,52.0,9.0,47.0,958.022
958032.0,73.0,54.0,8.0,45.0,958.032
958042.0,71.0,56.0,7.0,44.0,958.042
958052.0,71.0,57.0,8.0,43.0,958.052
958062.0,71.0,59.0,7.0,42.0,958.062
958072.0,70.0,58.0,6.0,40.0,958.072
958082.0,70.0,58.0,7.0,43.0,958.082
958092.0,70.0,57.0,7.0,45.0,958.092
958102.0,69.0,57.0,6.0,48.0,958.102
958112.0,67.0,56.0,5.0,45.0,958.112
958123.0,65.0,56.0,6.0,47.0,958.123
958133.0,65.0,54.0,5.0,47.0,958.133
958143.0,64.0,54.0,6.0,45.0,958.143
958153.0,61.0,54.0,5.0,44.0,958.153
958163.0,60.0,53.0,7.0,43.0,958.163
958173.0,59.0,51.0,6.0,44.0,958.173
958183.0,58.0,51.0,6.0,41.0,958.183
958193.0,57.0,49.0,5.0,41.0,958.193
958203.0,57.0,53.0,8.0,40.0,958.203
958213.0,59.0,50.0,8.0,39.0,958.213
958223.0,59.0,50.0,7.0,41.0,958.223
958233.0,61.0,49.0,8.0,40.0,958.233
958243.0,62.0,50.0,8.0,40.0,958.243
958253.0,62.0,49.0,7.0,39.0,958.253
958263.0,63.0,49.0,7.0,37.0,958.263
958273.0,63.0,51.0,7.0,38.0,958.273
958283.0,63.0,48.0,7.0,36.0,958.283
958294.0,63.0,48.0,8.0,40.0,958.294
958304.0,65.0,46.0,8.0,40.0,958.304
958314.0,64.0,46.0,8.0,39.0,958.314
958324.0,64.0,46.0,8.0,39.0,958.324
958334.0,65.0,46.0,7.0,37.0,958.334
958344.0,65.0,47.0,7.0,40.0,958.344
958354.0,64.0,46.0,6.0,39.0,958.354
958364.0,63.0,46.0,5.0,40.0,958.364
958374.0,63.0,46.0,7.0,39.0,958.374
958384.0,63.0,46.0,6.0,39.0,958.384
958394.0,62.0,47.0,6.0,38.0,958.394
958404.0,61.0,45.0,7.0,40.0,958.404
958414.0,61.0,46.0,6.0,38.0,958.414
958424.0,60.0,44.0,6.0,36.0,958.424
958434.0,60.0,43.0,5.0,36.0,958.434
958444.0,59.0,42.0,6.0,37.0,958.444
958454.0,58.0,43.0,5.0,36.0,958.454
958464.0,55.0,43.0,5.0,35.0,958.464
958474.0,55.0,44.0,5.0,33.0,958.474
958484.0,54.0,44.0,5.0,33.0,958.484
958494.0,53.0,45.0,5.0,34.0,958.494
958504.0,53.0,46.0,7.0,38.0,958.504
958514.0,53.0,45.0,7.0,37.0,958.514
958524.0,54.0,45.0,7.0,37.0,958.524
958534.0,54.0,45.0,6.0,37.0,958.534
958544.0,55.0,42.0,6.0,37.0,958.544
958554.0,55.0,44.0,6.0,37.0,958.554
958564.0,55.0,44.0,6.0,36.0,958.564
958574.0,55.0,45.0,5.0,36.0,958.574
958584.0,55.0,48.0,15.0,39.0,958.584
958594.0,56.0,46.0,14.0,39.0,958.594
958604.0,55.0,48.0,12.0,39.0,958.604
958614.0,56.0,47.0,12.0,37.0,958.614
958624.0,56.0,50.0,13.0,44.0,958.624
958635.0,56.0,48.0,12.0,42.0,958.635
958645.0,57.0,50.0,10.0,43.0,958.645
958655.0,59.0,49.0,10.0,43.0,958.655
958665.0,59.0,49.0,9.0,43.0,958.665
958675.0,59.0,49.0,9.0,45.0,958.675
958685.0,59.0,47.0,8.0,47.0,958.685
958695.0,59.0,48.0,8.0,48.0,958.695
958705.0,60.0,46.0,7.0,44.0,958.705
958715.0,60.0,47.0,7.0,42.0,958.715
958725.0,60.0,48.0,7.0,40.0,958.725
958735.0,62.0,48.0,6.0,39.0,958.735
958745.0,62.0,48.0,7.0,42.0,958.745
958755.0,64.0,45.0,7.0,41.0,958.755
958765.0,67.0,46.0,7.0,41.0,958.765
958775.0,66.0,44.0,6.0,38.0,958.775
958785.0,68.0,43.0,6.0,39.0,958.785
958795.0,68.0,42.0,6.0,38.0,958.795
958806.0,66.0,41.0,5.0,36.0,958.806
958816.0,66.0,40.0,5.0,37.0,958.816
958826.0,68.0,39.0,5.0,37.0,958.826
958836.0,67.0,38.0,6.0,38.0,958.836
958846.0,68.0,38.0,5.0,38.0,958.846
958856.0,69.0,38.0,5.0,37.0,958.856
958866.0,68.0,39.0,6.0,39.0,958.866
958876.0,66.0,40.0,5.0,39.0,958.876
958886.0,64.0,40.0,5.0,38.0,958.886
958896.0,65.0,39.0,6.0,37.0,958.896
958906.0,65.0,40.0,6.0,36.0,958.906
958916.0,64.0,40.0,6.0,35.0,958.916
958926.0,63.0,40.0,5.0,36.0,958.926
958936.0,64.0,40.0,5.0,39.0,958.936
958946.0,64.0,39.0,4.0,40.0,958.946
958956.0,63.0,39.0,4.0,40.0,958.956
958966.0,64.0,39.0,4.0,38.0,958.966
958976.0,64.0,41.0,4.0,37.0,958.976
958986.0,63.0,39.0,4.0,35.0,958.986
958996.0,63.0,41.0,14.0,43.0,958.996
959006.0,64.0,41.0,18.0,42.0,959.006
959016.0,66.0,40.0,14.0,40.0,959.016
959026.0,65.0,39.0,13.0,45.0,959.026
959036.0,65.0,37.0,12.0,43.0,959.036
959046.0,64.0,38.0,11.0,43.0,959.046
959056.0,63.0,36.0,10.0,40.0,959.056
959066.0,62.0,37.0,9.0,47.0,959.066
959076.0,61.0,35.0,9.0,47.0,959.076
959086.0,62.0,34.0,8.0,46.0,959.086
959096.0,60.0,35.0,9.0,49.0,959.096
959106.0,62.0,35.0,12.0,47.0,959.106
959116.0,62.0,35.0,11.0,47.0,959.116
959126.0,61.0,34.0,10.0,50.0,959.126
959136.0,61.0,34.0,9.0,49.0,959.136
959147.0,60.0,34.0,9.0,46.0,959.147
959157.0,60.0,35.0,7.0,45.0,959.157
959167.0,60.0,36.0,7.0,46.0,959.167
959177.0,60.0,35.0,7.0,45.0,959.177
959187.0,60.0,34.0,6.0,46.0,959.187
959197.0,60.0,34.0,7.0,50.0,959.197
959207.0,61.0,35.0,7.0,49.0,959.207
959217.0,61.0,35.0,9.0,48.0,959.217
959227.0,62.0,36.0,7.0,46.0,959.227
959237.0,62.0,37.0,6.0,44.0,959.237
959247.0,60.0,37.0,6.0,42.0,959.247
959257.0,59.0,38.0,6.0,46.0,959.257
959267.0,59.0,36.0,6.0,44.0,959.267
959277.0,59.0,36.0,5.0,44.0,959.277
959287.0,58.0,37.0,7.0,43.0,959.287
959297.0,58.0,38.0,6.0,41.0,959.297
959307.0,57.0,38.0,5.0,43.0,959.307
959318.0,56.0,39.0,6.0,42.0,959.318
959328.0,57.0,40.0,6.0,41.0,959.328
959338.0,57.0,38.0,6.0,44.0,959.338
959348.0,56.0,39.0,5.0,41.0,959.348
959358.0,55.0,41.0,6.0,43.0,959.358
959368.0,53.0,41.0,6.0,43.0,959.368
959378.0,52.0,41.0,6.0,42.0,959.378
959388.0,53.0,42.0,6.0,45.0,959.388
959398.0,53.0,43.0,5.0,45.0,959.398
959408.0,53.0,44.0,6.0,44.0,959.408
959418.0,53.0,43.0,4.0,45.0,959.418
959428.0,54.0,43.0,5.0,43.0,959.428
959438.0,53.0,43.0,4.0,42.0,959.438
959448.0,52.0,43.0,4.0,45.0,959.448
959458.0,54.0,43.0,5.0,42.0,959.458
959468.0,54.0,43.0,3.0,42.0,959.468
959478.0,54.0,42.0,4.0,40.0,959.478
959488.0,53.0,43.0,4.0,39.0,959.488
959498.0,55.0,42.0,5.0,37.0,959.498
959508.0,54.0,43.0,4.0,36.0,959.508
959518.0,52.0,44.0,6.0,38.0,959.518
959528.0,52.0,43.0,6.0,41.0,959.528
959538.0,54.0,43.0,5.0,42.0,959.538
959548.0,54.0,40.0,5.0,44.0,959.548
959558.0,53.0,42.0,5.0,42.0,959.558
959568.0,55.0,41.0,5.0,41.0,959.568
959578.0,54.0,40.0,6.0,40.0,959.578
959588.0,55.0,39.0,6.0,43.0,959.588
959598.0,55.0,37.0,6.0,41.0,959.598
959608.0,54.0,39.0,6.0,43.0,959.608
959618.0,54.0,38.0,6.0,40.0,959.618
959628.0,54.0,38.0,5.0,40.0,959.628
959638.0,54.0,41.0,6.0,39.0,959.638
959648.0,55.0,42.0,5.0,38.0,959.648
959659.0,54.0,42.0,4.0,37.0,959.659
959669.0,55.0,41.0,5.0,38.0,959.669
959679.0,55.0,43.0,3.0,37.0,959.679
959689.0,57.0,42.0,6.0,39.0,959.689
959699.0,58.0,41.0,7.0,39.0,959.699
959709.0,58.0,41.0,5.0,41.0,959.709
959719.0,58.0,42.0,4.0,41.0,959.719
959729.0,60.0,42.0,4.0,40.0,959.729
959739.0,60.0,44.0,5.0,41.0,959.739
959749.0,60.0,45.0,3.0,41.0,959.749
959759.0,62.0,44.0,4.0,38.0,959.759
959769.0,64.0,44.0,5.0,41.0,959.769
959779.0,64.0,44.0,6.0,39.0,959.779
959789.0,63.0,43.0,4.0,38.0,959.789
959799.0,62.0,44.0,4.0,37.0,959.799
959809.0,61.0,43.0,5.0,37.0,959.809
959819.0,61.0,44.0,3.0,37.0,959.819
959830.0,60.0,42.0,4.0,36.0,959.83
959840.0,60.0,43.0,4.0,36.0,959.84
959850.0,61.0,41.0,5.0,37.0,959.85
959860.0,60.0,42.0,4.0,37.0,959.86
959870.0,59.0,44.0,4.0,37.0,959.87
959880.0,61.0,43.0,4.0,37.0,959.88
959890.0,59.0,44.0,4.0,42.0,959.89
959900.0,59.0,43.0,6.0,40.0,959.9
959910.0,58.0,42.0,5.0,41.0,959.91
959920.0,57.0,41.0,6.0,41.0,959.92
959930.0,57.0,41.0,5.0,42.0,959.93
959940.0,55.0,41.0,5.0,44.0,959.94
959950.0,54.0,41.0,5.0,44.0,959.95
959960.0,53.0,43.0,6.0,44.0,959.96
959970.0,55.0,42.0,7.0,42.0,959.97
959980.0,54.0,43.0,5.0,44.0,959.98
959990.0,54.0,43.0,7.0,44.0,959.99
960000.0,54.0,43.0,6.0,46.0,960.0
960010.0,52.0,42.0,6.0,44.0,960.01
960020.0,53.0,44.0,5.0,43.0,960.02
960030.0,51.0,44.0,3.0,44.0,960.03
960040.0,50.0,44.0,5.0,44.0,960.04
960050.0,50.0,43.0,4.0,43.0,960.05
960060.0,51.0,43.0,5.0,41.0,960.06
960070.0,51.0,45.0,4.0,41.0,960.07
960080.0,50.0,46.0,6.0,43.0,960.08
960090.0,52.0,45.0,7.0,42.0,960.09
960100.0,53.0,46.0,7.0,42.0,960.1
960110.0,54.0,43.0,6.0,40.0,960.11
960120.0,54.0,44.0,6.0,41.0,960.12
960130.0,55.0,43.0,6.0,41.0,960.13
960140.0,57.0,43.0,6.0,41.0,960.14
960150.0,56.0,44.0,6.0,41.0,960.15
960160.0,57.0,43.0,5.0,40.0,960.16
960171.0,56.0,43.0,5.0,43.0,960.171
960181.0,57.0,42.0,5.0,42.0,960.181
960191.0,56.0,43.0,5.0,41.0,960.191
960201.0,57.0,43.0,6.0,42.0,960.201
960211.0,73.0,48.0,4.0,48.0,960.211
960221.0,74.0,49.0,4.0,50.0,960.221
960231.0,95.0,53.0,5.0,56.0,960.231
960241.0,91.0,52.0,3.0,58.0,960.241
960251.0,96.0,52.0,4.0,54.0,960.251
960261.0,131.0,61.0,4.0,56.0,960.261
960271.0,166.0,68.0,5.0,59.0,960.271
960281.0,192.0,73.0,6.0,65.0,960.281
960291.0,188.0,77.0,6.0,71.0,960.291
960301.0,236.0,94.0,12.0,103.0,960.301
960311.0,268.0,108.0,11.0,112.0,960.311
960321.0,296.0,117.0,24.0,149.0,960.321
960331.0,327.0,121.0,27.0,160.0,960.331
960342.0,319.0,125.0,24.0,165.0,960.342
960352.0,382.0,139.0,28.0,190.0,960.352
960362.0,357.0,145.0,33.0,176.0,960.362
960372.0,351.0,161.0,36.0,181.0,960.372
960382.0,352.0,160.0,32.0,201.0,960.382
960392.0,337.0,153.0,31.0,203.0,960.392
960402.0,324.0,148.0,35.0,207.0,960.402
960412.0,311.0,152.0,41.0,231.0,960.412
960422.0,296.0,154.0,51.0,231.0,960.422
960432.0,274.0,159.0,56.0,228.0,960.432
960442.0,249.0,174.0,68.0,295.0,960.442
960452.0,227.0,178.0,65.0,293.0,960.452
960462.0,206.0,178.0,72.0,272.0,960.462
960472.0,189.0,187.0,88.0,276.0,960.472
960482.0,191.0,206.0,115.0,267.0,960.482
960492.0,188.0,205.0,129.0,258.0,960.492
960502.0,174.0,207.0,150.0,244.0,960.502
960512.0,162.0,205.0,166.0,225.0,960.512
960522.0,149.0,203.0,183.0,222.0,960.522
960532.0,139.0,200.0,205.0,236.0,960.532
960542.0,129.0,202.0,229.0,292.0,960.542
960552.0,119.0,196.0,231.0,286.0,960.552
960562.0,124.0,204.0,238.0,268.0,960.562
960572.0,126.0,196.0,240.0,298.0,960.572
960582.0,118.0,189.0,241.0,289.0,960.582
960592.0,113.0,189.0,246.0,283.0,960.592
960602.0,110.0,188.0,255.0,255.0,960.602
960612.0,104.0,180.0,249.0,247.0,960.612
960622.0,102.0,179.0,250.0,234.0,960.622
960632.0,108.0,177.0,249.0,223.0,960.632
960642.0,102.0,173.0,243.0,222.0,960.642
960652.0,97.0,169.0,237.0,216.0,960.652
960662.0,102.0,175.0,240.0,231.0,960.662
960672.0,97.0,171.0,231.0,213.0,960.672
960683.0,94.0,166.0,221.0,209.0,960.683
960693.0,89.0,159.0,211.0,214.0,960.693
960703.0,89.0,156.0,201.0,214.0,960.703
960713.0,88.0,152.0,195.0,200.0,960.713
960723.0,86.0,149.0,190.0,193.0,960.723
960733.0,84.0,147.0,184.0,189.0,960.733
960743.0,82.0,146.0,182.0,191.0,960.743
960753.0,79.0,143.0,170.0,181.0,960.753
960763.0,78.0,141.0,164.0,172.0,960.763
960773.0,78.0,139.0,159.0,184.0,960.773
960783.0,79.0,137.0,155.0,195.0,960.783
960793.0,79.0,139.0,148.0,191.0,960.793
960803.0,83.0,136.0,138.0,185.0,960.803
960813.0,84.0,132.0,130.0,179.0,960.813
960823.0,87.0,134.0,124.0,176.0,960.823
960833.0,86.0,131.0,118.0,194.0,960.833
960843.0,87.0,132.0,114.0,182.0,960.843
960854.0,85.0,127.0,105.0,186.0,960.854
960864.0,82.0,124.0,103.0,173.0,960.864
960874.0,84.0,126.0,99.0,168.0,960.874
960884.0,81.0,124.0,90.0,172.0,960.884
960894.0,81.0,121.0,84.0,176.0,960.894
960904.0,81.0,121.0,84.0,166.0,960.904
960914.0,82.0,122.0,86.0,156.0,960.914
960924.0,81.0,123.0,86.0,158.0,960.924
960934.0,81.0,117.0,78.0,158.0,960.934
960944.0,80.0,114.0,71.0,155.0,960.944
960954.0,79.0,111.0,66.0,162.0,960.954
960964.0,76.0,110.0,64.0,153.0,960.964
960974.0,82.0,111.0,64.0,151.0,960.974
960984.0,82.0,107.0,65.0,144.0,960.984
960994.0,82.0,107.0,61.0,141.0,960.994
961004.0,81.0,102.0,57.0,137.0,961.004
961014.0,80.0,103.0,54.0,138.0,961.014
961024.0,78.0,101.0,55.0,131.0,961.024
961034.0,74.0,100.0,50.0,134.0,961.034
961044.0,75.0,99.0,50.0,131.0,961.044
961054.0,72.0,97.0,48.0,124.0,961.054
961064.0,74.0,96.0,46.0,130.0,961.064
961074.0,72.0,93.0,42.0,131.0,961.074
961084.0,70.0,93.0,38.0,128.0,961.084
961094.0,70.0,92.0,36.0,122.0,961.094
961104.0,68.0,91.0,35.0,119.0,961.104
961114.0,69.0,93.0,40.0,113.0,961.114
961124.0,68.0,90.0,36.0,115.0,961.124
961134.0,66.0,90.0,36.0,116.0,961.134
961144.0,65.0,83.0,32.0,107.0,961.144
961154.0,64.0,83.0,36.0,102.0,961.154
961164.0,65.0,82.0,35.0,107.0,961.164
961174.0,64.0,81.0,37.0,111.0,961.174
961184.0,64.0,79.0,33.0,127.0,961.184
961195.0,65.0,77.0,33.0,122.0,961.195
961205.0,63.0,75.0,30.0,131.0,961.205
961215.0,63.0,74.0,34.0,136.0,961.215
961225.0,63.0,75.0,30.0,134.0,961.225
961235.0,60.0,71.0,29.0,135.0,961.235
961245.0,59.0,70.0,28.0,146.0,961.245
961255.0,59.0,70.0,27.0,145.0,961.255
961265.0,63.0,68.0,26.0,135.0,961.265
961275.0,71.0,67.0,25.0,127.0,961.275
961285.0,70.0,65.0,26.0,125.0,961.285
961295.0,68.0,64.0,25.0,119.0,961.295
961305.0,66.0,66.0,27.0,116.0,961.305
961315.0,66.0,68.0,28.0,108.0,961.315
961325.0,65.0,68.0,28.0,106.0,961.325
961335.0,66.0,66.0,26.0,103.0,961.335
961345.0,66.0,71.0,33.0,125.0,961.345
961355.0,67.0,71.0,32.0,142.0,961.355
961366.0,68.0,74.0,30.0,160.0,961.366
961376.0,65.0,74.0,30.0,150.0,961.376
961386.0,65.0,76.0,27.0,147.0,961.386
961396.0,63.0,77.0,30.0,137.0,961.396
961406.0,61.0,76.0,30.0,131.0,961.406
961416.0,64.0,78.0,33.0,125.0,961.416
961426.0,63.0,77.0,31.0,112.0,961.426
961436.0,60.0,78.0,34.0,101.0,961.436
961446.0,64.0,80.0,38.0,102.0,961.446
961456.0,61.0,76.0,37.0,97.0,961.456
961466.0,60.0,75.0,39.0,95.0,961.466
961476.0,61.0,74.0,39.0,97.0,961.476
961486.0,60.0,72.0,40.0,90.0,961.486
961496.0,58.0,72.0,42.0,91.0,961.496
961506.0,56.0,69.0,41.0,94.0,961.506
961516.0,54.0,66.0,40.0,91.0,961.516
961526.0,54.0,65.0,45.0,95.0,961.526
961536.0,54.0,64.0,49.0,98.0,961.536
961546.0,53.0,65.0,52.0,103.0,961.546
961556.0,53.0,62.0,51.0,99.0,961.556
961566.0,55.0,63.0,51.0,95.0,961.566
961576.0,55.0,64.0,55.0,95.0,961.576
961586.0,54.0,63.0,56.0,101.0,961.586
961596.0,56.0,62.0,54.0,104.0,961.596
961606.0,59.0,62.0,54.0,107.0,961.606
961616.0,59.0,62.0,53.0,104.0,961.616
961626.0,57.0,63.0,57.0,96.0,961.626
961636.0,58.0,63.0,59.0,94.0,961.636
961646.0,56.0,63.0,55.0,93.0,961.646
961656.0,55.0,63.0,59.0,98.0,961.656
961666.0,54.0,62.0,58.0,94.0,961.666
961676.0,57.0,64.0,63.0,98.0,961.676
961686.0,56.0,62.0,59.0,102.0,961.686
961696.0,56.0,61.0,59.0,100.0,961.696
961707.0,58.0,61.0,61.0,97.0,961.707
961717.0,58.0,62.0,61.0,93.0,961.717
961727.0,58.0,61.0,63.0,102.0,961.727
961737.0,57.0,64.0,69.0,134.0,961.737
961747.0,58.0,63.0,71.0,127.0,961.747
961757.0,58.0,64.0,78.0,115.0,961.757
961767.0,57.0,63.0,84.0,118.0,961.767
961777.0,55.0,60.0,83.0,112.0,961.777
961787.0,54.0,58.0,90.0,111.0,961.787
961797.0,57.0,59.0,88.0,114.0,961.797
961807.0,57.0,61.0,95.0,105.0,961.807
961817.0,58.0,59.0,98.0,95.0,961.817
961827.0,57.0,61.0,106.0,104.0,961.827
961837.0,56.0,63.0,116.0,107.0,961.837
961847.0,56.0,61.0,108.0,108.0,961.847
961857.0,55.0,61.0,110.0,107.0,961.857
961867.0,54.0,58.0,115.0,103.0,961.867
961878.0,53.0,59.0,119.0,97.0,961.878
961888.0,53.0,61.0,126.0,101.0,961.888
961898.0,53.0,61.0,129.0,98.0,961.898
961908.0,53.0,59.0,128.0,92.0,961.908
961918.0,51.0,60.0,129.0,89.0,961.918
961928.0,51.0,61.0,134.0,89.0,961.928
961938.0,51.0,60.0,135.0,82.0,961.938
961948.0,53.0,60.0,136.0,87.0,961.948
961958.0,53.0,60.0,139.0,87.0,961.958
961968.0,54.0,59.0,138.0,84.0,961.968
961978.0,54.0,59.0,138.0,77.0,961.978
961988.0,53.0,59.0,141.0,74.0,961.988
961998.0,51.0,61.0,143.0,85.0,961.998
962008.0,51.0,58.0,141.0,107.0,962.008
962018.0,52.0,60.0,140.0,106.0,962.018
962028.0,52.0,61.0,143.0,109.0,962.028
962038.0,52.0,61.0,142.0,110.0,962.038
962048.0,51.0,60.0,147.0,115.0,962.048
962058.0,54.0,60.0,148.0,115.0,962.058
962068.0,54.0,59.0,144.0,107.0,962.068
962078.0,53.0,57.0,142.0,99.0,962.078
962088.0,52.0,60.0,144.0,95.0,962.088
962098.0,51.0,61.0,149.0,87.0,962.098
962108.0,51.0,61.0,152.0,95.0,962.108
962118.0,50.0,62.0,159.0,101.0,962.118
962128.0,51.0,59.0,155.0,100.0,962.128
962138.0,50.0,60.0,155.0,96.0,962.138
962148.0,51.0,60.0,155.0,96.0,962.148
962158.0,51.0,62.0,160.0,92.0,962.158
962168.0,51.0,62.0,162.0,96.0,962.168
962178.0,51.0,61.0,159.0,103.0,962.178
962188.0,52.0,59.0,156.0,98.0,962.188
962198.0,56.0,59.0,153.0,98.0,962.198
962208.0,53.0,61.0,157.0,99.0,962.208
962219.0,56.0,62.0,160.0,93.0,962.219
962229.0,55.0,62.0,159.0,91.0,962.229
962239.0,53.0,62.0,164.0,95.0,962.239
962249.0,55.0,63.0,162.0,94.0,962.249
962259.0,58.0,64.0,163.0,96.0,962.259
962269.0,58.0,64.0,162.0,101.0,962.269
962279.0,58.0,65.0,163.0,96.0,962.279
962289.0,57.0,65.0,167.0,97.0,962.289
962299.0,56.0,67.0,172.0,93.0,962.299
962309.0,60.0,67.0,172.0,93.0,962.309
962319.0,57.0,67.0,174.0,89.0,962.319
962329.0,56.0,67.0,174.0,88.0,962.329
962339.0,57.0,69.0,181.0,93.0,962.339
962349.0,58.0,68.0,172.0,95.0,962.349
962359.0,58.0,67.0,172.0,91.0,962.359
962369.0,57.0,69.0,170.0,104.0,962.369
962379.0,57.0,69.0,171.0,104.0,962.379
962390.0,57.0,69.0,171.0,101.0,962.39
962400.0,57.0,68.0,170.0,103.0,962.4
962410.0,58.0,69.0,173.0,96.0,962.41
962420.0,56.0,68.0,175.0,88.0,962.42
962430.0,58.0,67.0,176.0,87.0,962.43
962440.0,56.0,68.0,177.0,85.0,962.44
962450.0,56.0,70.0,178.0,83.0,962.45
962460.0,62.0,69.0,175.0,89.0,962.46
962470.0,61.0,66.0,175.0,99.0,962.47
962480.0,62.0,67.0,176.0,101.0,962.48
962490.0,62.0,67.0,176.0,97.0,962.49
962500.0,62.0,66.0,176.0,89.0,962.5
962510.0,62.0,68.0,177.0,85.0,962.51
962520.0,62.0,68.0,181.0,91.0,962.52
962530.0,59.0,67.0,175.0,95.0,962.53
962540.0,60.0,67.0,173.0,93.0,962.54
962550.0,58.0,67.0,176.0,104.0,962.55
962560.0,58.0,68.0,178.0,104.0,962.56
962570.0,60.0,64.0,178.0,100.0,962.57
962580.0,58.0,64.0,175.0,97.0,962.58
962590.0,56.0,64.0,176.0,98.0,962.59
962600.0,55.0,65.0,177.0,97.0,962.6
962610.0,54.0,64.0,175.0,92.0,962.61
962620.0,54.0,63.0,177.0,100.0,962.62
962630.0,53.0,65.0,176.0,101.0,962.63
962640.0,53.0,68.0,180.0,92.0,962.64
962650.0,53.0,67.0,180.0,95.0,962.65
962660.0,53.0,68.0,182.0,104.0,962.66
962670.0,54.0,67.0,174.0,120.0,962.67
962680.0,53.0,67.0,173.0,115.0,962.68
962690.0,52.0,66.0,172.0,119.0,962.69
962700.0,53.0,67.0,169.0,156.0,962.7
962710.0,52.0,70.0,169.0,144.0,962.71
962720.0,51.0,69.0,161.0,143.0,962.72
962731.0,51.0,69.0,159.0,143.0,962.731
962741.0,51.0,71.0,158.0,147.0,962.741
962751.0,48.0,74.0,159.0,141.0,962.751
962761.0,49.0,77.0,163.0,136.0,962.761
962771.0,49.0,79.0,157.0,128.0,962.771
962781.0,50.0,77.0,152.0,121.0,962.781
962791.0,51.0,78.0,153.0,116.0,962.791
962801.0,55.0,79.0,150.0,118.0,962.801
962811.0,54.0,78.0,146.0,117.0,962.811
962821.0,52.0,79.0,149.0,113.0,962.821
962831.0,53.0,79.0,151.0,120.0,962.831
962841.0,52.0,79.0,150.0,115.0,962.841
962851.0,51.0,78.0,149.0,116.0,962.851
962861.0,53.0,81.0,150.0,118.0,962.861
962871.0,52.0,79.0,153.0,109.0,962.871
962881.0,51.0,80.0,152.0,101.0,962.881
962891.0,50.0,79.0,154.0,105.0,962.891
962902.0,52.0,79.0,154.0,101.0,962.902
962912.0,51.0,78.0,157.0,104.0,962.912
962922.0,51.0,76.0,160.0,102.0,962.922
962932.0,51.0,75.0,160.0,115.0,962.932
962942.0,50.0,73.0,160.0,126.0,962.942
962952.0,52.0,73.0,158.0,128.0,962.952
962962.0,52.0,72.0,151.0,130.0,962.962
962972.0,51.0,72.0,155.0,121.0,962.972
962982.0,51.0,76.0,157.0,115.0,962.982
962992.0,53.0,83.0,195.0,153.0,962.992
963002.0,54.0,90.0,214.0,168.0,963.002
963012.0,65.0,112.0,255.0,223.0,963.012
963022.0,63.0,106.0,325.0,256.0,963.022
963032.0,71.0,123.0,385.0,329.0,963.032
963042.0,72.0,127.0,398.0,370.0,963.042
963052.0,76.0,125.0,443.0,420.0,963.052
963062.0,89.0,153.0,540.0,522.0,963.062
963072.0,96.0,161.0,546.0,560.0,963.072
963082.0,94.0,153.0,576.0,569.0,963.082
963092.0,101.0,155.0,615.0,574.0,963.092
963102.0,103.0,146.0,616.0,518.0,963.102
963112.0,117.0,140.0,599.0,515.0,963.112
963122.0,118.0,141.0,598.0,518.0,963.122
963132.0,123.0,142.0,623.0,535.0,963.132
963142.0,135.0,143.0,634.0,527.0,963.142
963152.0,147.0,139.0,645.0,525.0,963.152
963162.0,157.0,136.0,585.0,545.0,963.162
963172.0,162.0,127.0,545.0,531.0,963.172
963182.0,163.0,122.0,489.0,510.0,963.182
963192.0,166.0,120.0,437.0,482.0,963.192
963202.0,169.0,119.0,393.0,446.0,963.202
963212.0,169.0,114.0,355.0,438.0,963.212
963222.0,169.0,109.0,312.0,448.0,963.222
963232.0,176.0,114.0,274.0,398.0,963.232
963243.0,178.0,112.0,240.0,401.0,963.243
963253.0,180.0,110.0,209.0,396.0,963.253
963263.0,180.0,108.0,190.0,394.0,963.263
963273.0,179.0,104.0,172.0,386.0,963.273
963283.0,180.0,105.0,172.0,374.0,963.283
963293.0,180.0,106.0,156.0,378.0,963.293
963303.0,177.0,106.0,155.0,372.0,963.303
963313.0,180.0,111.0,140.0,349.0,963.313
963323.0,178.0,112.0,125.0,349.0,963.323
963333.0,177.0,116.0,117.0,343.0,963.333
963343.0,176.0,120.0,102.0,319.0,963.343
963353.0,173.0,121.0,104.0,322.0,963.353
963363.0,173.0,125.0,98.0,322.0,963.363
963373.0,172.0,127.0,91.0,313.0,963.373
963383.0,165.0,125.0,93.0,309.0,963.383
963393.0,166.0,129.0,99.0,301.0,963.393
963403.0,159.0,123.0,104.0,316.0,963.403
963414.0,162.0,127.0,106.0,293.0,963.414
963424.0,161.0,128.0,97.0,276.0,963.424
963434.0,159.0,126.0,88.0,280.0,963.434
963444.0,159.0,126.0,85.0,258.0,963.444
963454.0,155.0,125.0,84.0,259.0,963.454
963464.0,151.0,122.0,86.0,271.0,963.464
963474.0,148.0,120.0,94.0,261.0,963.474
963484.0,148.0,119.0,102.0,244.0,963.484
963494.0,146.0,119.0,101.0,235.0,963.494
963504.0,143.0,116.0,104.0,236.0,963.504
963514.0,144.0,117.0,95.0,226.0,963.514
963524.0,140.0,115.0,94.0,225.0,963.524
963534.0,139.0,116.0,93.0,213.0,963.534
963544.0,137.0,118.0,90.0,230.0,963.544
963554.0,131.0,113.0,93.0,225.0,963.554
963564.0,131.0,116.0,96.0,205.0,963.564
963574.0,129.0,115.0,94.0,197.0,963.574
963584.0,128.0,116.0,99.0,194.0,963.584
963594.0,126.0,114.0,94.0,193.0,963.594
963604.0,123.0,111.0,96.0,187.0,963.604
963614.0,123.0,110.0,94.0,199.0,963.614
963624.0,120.0,107.0,87.0,196.0,963.624
963634.0,119.0,105.0,85.0,190.0,963.634
963644.0,116.0,101.0,95.0,189.0,963.644
963654.0,116.0,100.0,107.0,178.0,963.654
963664.0,114.0,98.0,99.0,190.0,963.664
963674.0,113.0,97.0,104.0,185.0,963.674
963684.0,110.0,97.0,107.0,182.0,963.684
963694.0,108.0,96.0,105.0,175.0,963.694
963704.0,108.0,95.0,104.0,164.0,963.704
963714.0,106.0,94.0,110.0,163.0,963.714
963724.0,104.0,94.0,105.0,166.0,963.724
963734.0,102.0,96.0,108.0,172.0,963.734
963744.0,104.0,96.0,108.0,171.0,963.744
963755.0,101.0,96.0,102.0,171.0,963.755
963765.0,101.0,98.0,100.0,159.0,963.765
963775.0,101.0,98.0,102.0,160.0,963.775
963785.0,98.0,98.0,101.0,150.0,963.785
963795.0,96.0,97.0,99.0,152.0,963.795
963805.0,93.0,94.0,104.0,143.0,963.805
963815.0,94.0,96.0,112.0,147.0,963.815
963825.0,95.0,94.0,112.0,145.0,963.825
963835.0,93.0,94.0,109.0,146.0,963.835
963845.0,93.0,93.0,111.0,137.0,963.845
963855.0,91.0,92.0,108.0,127.0,963.855
963865.0,93.0,93.0,106.0,136.0,963.865
963875.0,90.0,90.0,119.0,128.0,963.875
963885.0,89.0,88.0,112.0,121.0,963.885
963895.0,90.0,88.0,118.0,125.0,963.895
963905.0,87.0,83.0,113.0,115.0,963.905
963915.0,89.0,82.0,113.0,110.0,963.915
963926.0,87.0,79.0,103.0,117.0,963.926
963936.0,89.0,79.0,104.0,107.0,963.936
963946.0,87.0,77.0,103.0,110.0,963.946
963956.0,86.0,74.0,109.0,106.0,963.956
963966.0,86.0,75.0,96.0,123.0,963.966
963976.0,86.0,75.0,97.0,118.0,963.976
963986.0,86.0,73.0,97.0,121.0,963.986
963996.0,86.0,74.0,107.0,111.0,963.996
964006.0,87.0,74.0,100.0,103.0,964.006
964016.0,84.0,73.0,96.0,107.0,964.016
964026.0,84.0,72.0,96.0,97.0,964.026
964036.0,81.0,71.0,94.0,97.0,964.036
964046.0,81.0,70.0,86.0,92.0,964.046
964056.0,81.0,71.0,81.0,98.0,964.056
964066.0,80.0,70.0,75.0,98.0,964.066
964076.0,81.0,69.0,74.0,93.0,964.076
964086.0,78.0,68.0,82.0,101.0,964.086
964096.0,78.0,69.0,88.0,97.0,964.096
964106.0,78.0,71.0,84.0,97.0,964.106
964116.0,79.0,70.0,80.0,91.0,964.116
964126.0,77.0,69.0,84.0,97.0,964.126
964136.0,76.0,69.0,83.0,97.0,964.136
964146.0,76.0,67.0,86.0,98.0,964.146
964156.0,75.0,66.0,90.0,94.0,964.156
964166.0,76.0,64.0,92.0,87.0,964.166
964176.0,77.0,63.0,88.0,96.0,964.176
964186.0,74.0,59.0,92.0,91.0,964.186
964196.0,76.0,58.0,88.0,93.0,964.196
964206.0,76.0,58.0,83.0,97.0,964.206
964216.0,76.0,56.0,79.0,94.0,964.216
964226.0,73.0,54.0,77.0,104.0,964.226
964236.0,75.0,56.0,82.0,109.0,964.236
964246.0,74.0,57.0,84.0,107.0,964.246
964256.0,73.0,57.0,82.0,100.0,964.256
964267.0,73.0,57.0,76.0,100.0,964.267
964277.0,72.0,57.0,79.0,94.0,964.277
964287.0,71.0,56.0,73.0,91.0,964.287
964297.0,69.0,57.0,66.0,87.0,964.297
964307.0,68.0,57.0,64.0,85.0,964.307
964317.0,66.0,57.0,68.0,84.0,964.317
964327.0,65.0,55.0,66.0,91.0,964.327
964337.0,66.0,56.0,76.0,88.0,964.337
964347.0,67.0,58.0,76.0,83.0,964.347
964357.0,67.0,56.0,75.0,90.0,964.357
964367.0,66.0,55.0,74.0,91.0,964.367
964377.0,68.0,56.0,71.0,93.0,964.377
964387.0,67.0,56.0,73.0,90.0,964.387
964397.0,66.0,55.0,70.0,84.0,964.397
964407.0,66.0,54.0,71.0,80.0,964.407
964417.0,65.0,54.0,65.0,75.0,964.417
964427.0,66.0,54.0,67.0,72.0,964.427
964438.0,64.0,53.0,68.0,78.0,964.438
964448.0,66.0,53.0,65.0,83.0,964.448
964458.0,68.0,55.0,77.0,84.0,964.458
964468.0,70.0,56.0,80.0,78.0,964.468
964478.0,71.0,54.0,80.0,79.0,964.478
964488.0,71.0,54.0,78.0,82.0,964.488
964498.0,73.0,53.0,76.0,81.0,964.498
964508.0,71.0,54.0,80.0,77.0,964.508
964518.0,70.0,53.0,77.0,86.0,964.518
964528.0,70.0,53.0,76.0,84.0,964.528
964538.0,68.0,54.0,77.0,80.0,964.538
964548.0,67.0,54.0,71.0,77.0,964.548
964558.0,65.0,53.0,73.0,76.0,964.558
964568.0,66.0,50.0,72.0,72.0,964.568
964578.0,64.0,49.0,72.0,75.0,964.578
964588.0,64.0,48.0,71.0,75.0,964.588
964598.0,63.0,48.0,74.0,73.0,964.598
964608.0,62.0,46.0,74.0,94.0,964.608
964618.0,62.0,46.0,73.0,95.0,964.618
964628.0,61.0,47.0,72.0,90.0,964.628
964638.0,59.0,45.0,74.0,88.0,964.638
964648.0,59.0,46.0,84.0,87.0,964.648
964658.0,60.0,47.0,90.0,87.0,964.658
964668.0,60.0,46.0,87.0,83.0,964.668
964678.0,59.0,47.0,88.0,82.0,964.678
964688.0,57.0,46.0,87.0,75.0,964.688
964698.0,56.0,46.0,88.0,77.0,964.698
964708.0,59.0,46.0,94.0,78.0,964.708
964718.0,56.0,44.0,96.0,75.0,964.718
964728.0,55.0,44.0,89.0,77.0,964.728
964738.0,56.0,45.0,86.0,74.0,964.738
964748.0,56.0,46.0,89.0,74.0,964.748
964758.0,56.0,46.0,83.0,72.0,964.758
964768.0,57.0,46.0,83.0,71.0,964.768
964779.0,59.0,47.0,84.0,70.0,964.779
964789.0,56.0,47.0,80.0,69.0,964.789
964799.0,58.0,49.0,86.0,64.0,964.799
964809.0,60.0,51.0,83.0,67.0,964.809
964819.0,59.0,49.0,75.0,64.0,964.819
964829.0,58.0,47.0,88.0,65.0,964.829
964839.0,59.0,46.0,77.0,74.0,964.839
964849.0,62.0,47.0,77.0,77.0,964.849
964859.0,60.0,46.0,70.0,74.0,964.859
964869.0,61.0,46.0,75.0,77.0,964.869
964879.0,60.0,47.0,77.0,79.0,964.879
964889.0,61.0,48.0,88.0,84.0,964.889
964899.0,60.0,46.0,86.0,85.0,964.899
964909.0,59.0,46.0,87.0,82.0,964.909
964919.0,59.0,47.0,83.0,90.0,964.919
964929.0,58.0,46.0,74.0,87.0,964.929
964939.0,57.0,45.0,70.0,89.0,964.939
964950.0,57.0,46.0,73.0,93.0,964.95
964960.0,56.0,46.0,80.0,94.0,964.96
964970.0,55.0,44.0,81.0,90.0,964.97
964980.0,55.0,45.0,77.0,84.0,964.98
964990.0,54.0,44.0,73.0,77.0,964.99
965000.0,52.0,45.0,75.0,79.0,965.0
965010.0,52.0,44.0,72.0,77.0,965.01
965020.0,51.0,44.0,69.0,88.0,965.02
965030.0,50.0,44.0,69.0,94.0,965.03
965040.0,50.0,44.0,69.0,86.0,965.04
965050.0,49.0,44.0,65.0,82.0,965.05
965060.0,51.0,43.0,72.0,83.0,965.06
965070.0,50.0,45.0,74.0,76.0,965.07
965080.0,52.0,45.0,71.0,71.0,965.08
965090.0,50.0,45.0,68.0,73.0,965.09
965100.0,51.0,47.0,65.0,76.0,965.1
965110.0,52.0,48.0,61.0,80.0,965.11
965120.0,51.0,50.0,69.0,81.0,965.12
965130.0,53.0,51.0,65.0,77.0,965.13
965140.0,56.0,54.0,62.0,74.0,965.14
965150.0,55.0,52.0,63.0,68.0,965.15
965160.0,56.0,54.0,69.0,70.0,965.16
965170.0,56.0,55.0,65.0,71.0,965.17
965180.0,55.0,54.0,63.0,67.0,965.18
965190.0,55.0,55.0,57.0,66.0,965.19
965200.0,54.0,54.0,56.0,66.0,965.2
965210.0,53.0,55.0,52.0,67.0,965.21
965220.0,52.0,55.0,50.0,77.0,965.22
965230.0,52.0,55.0,48.0,79.0,965.23
965240.0,51.0,55.0,43.0,76.0,965.24
965250.0,52.0,55.0,43.0,75.0,965.25
965260.0,50.0,52.0,41.0,72.0,965.26
965270.0,51.0,50.0,41.0,74.0,965.27
965280.0,52.0,51.0,38.0,76.0,965.28
965291.0,52.0,49.0,38.0,75.0,965.291
965301.0,53.0,49.0,37.0,71.0,965.301
965311.0,53.0,47.0,33.0,66.0,965.311
965321.0,52.0,44.0,32.0,63.0,965.321
965331.0,51.0,42.0,33.0,61.0,965.331
965341.0,52.0,42.0,37.0,61.0,965.341
965351.0,52.0,40.0,40.0,60.0,965.351
965361.0,52.0,41.0,38.0,60.0,965.361
965371.0,53.0,41.0,36.0,62.0,965.371
965381.0,54.0,39.0,34.0,58.0,965.381
965391.0,54.0,38.0,34.0,52.0,965.391
965401.0,53.0,37.0,33.0,49.0,965.401
965411.0,53.0,37.0,34.0,47.0,965.411
965421.0,52.0,36.0,33.0,45.0,965.421
965431.0,54.0,35.0,35.0,43.0,965.431
965441.0,53.0,36.0,38.0,44.0,965.441
965451.0,53.0,36.0,41.0,52.0,965.451
965462.0,54.0,36.0,42.0,55.0,965.462
965472.0,55.0,36.0,39.0,60.0,965.472
965482.0,55.0,35.0,42.0,58.0,965.482
965492.0,55.0,35.0,39.0,57.0,965.492
965502.0,54.0,35.0,45.0,57.0,965.502
965512.0,55.0,35.0,44.0,57.0,965.512
965522.0,55.0,34.0,42.0,58.0,965.522
965532.0,53.0,34.0,42.0,59.0,965.532
965542.0,51.0,35.0,40.0,59.0,965.542
965552.0,51.0,36.0,49.0,57.0,965.552
965562.0,51.0,35.0,48.0,55.0,965.562
965572.0,50.0,36.0,50.0,54.0,965.572
965582.0,50.0,36.0,47.0,58.0,965.582
965592.0,48.0,36.0,46.0,55.0,965.592
965602.0,48.0,36.0,44.0,54.0,965.602
965612.0,47.0,37.0,45.0,53.0,965.612
965622.0,49.0,37.0,43.0,53.0,965.622
965632.0,48.0,36.0,40.0,53.0,965.632
965642.0,48.0,37.0,40.0,51.0,965.642
965652.0,47.0,37.0,46.0,51.0,965.652
965662.0,46.0,39.0,45.0,58.0,965.662
965672.0,47.0,38.0,43.0,61.0,965.672
965682.0,47.0,38.0,41.0,63.0,965.682
965692.0,49.0,37.0,40.0,63.0,965.692
965702.0,48.0,36.0,40.0,63.0,965.702
965712.0,48.0,36.0,40.0,68.0,965.712
965722.0,48.0,35.0,43.0,64.0,965.722
965732.0,49.0,36.0,40.0,59.0,965.732
965742.0,50.0,34.0,39.0,63.0,965.742
965752.0,49.0,36.0,37.0,67.0,965.752
965762.0,51.0,36.0,39.0,68.0,965.762
965772.0,53.0,35.0,42.0,65.0,965.772
965782.0,53.0,36.0,39.0,62.0,965.782
965792.0,55.0,36.0,38.0,61.0,965.792
965803.0,57.0,35.0,34.0,60.0,965.803
965813.0,58.0,36.0,34.0,62.0,965.813
965823.0,60.0,36.0,39.0,64.0,965.823
965833.0,62.0,35.0,37.0,65.0,965.833
965843.0,62.0,35.0,34.0,61.0,965.843
965853.0,64.0,35.0,32.0,58.0,965.853
965863.0,63.0,35.0,35.0,71.0,965.863
965873.0,62.0,35.0,37.0,71.0,965.873
965883.0,63.0,34.0,40.0,71.0,965.883
965893.0,63.0,36.0,41.0,68.0,965.893
965903.0,63.0,35.0,39.0,66.0,965.903
965913.0,62.0,35.0,35.0,66.0,965.913
965923.0,59.0,36.0,39.0,68.0,965.923
965933.0,60.0,35.0,36.0,67.0,965.933
965943.0,58.0,37.0,33.0,69.0,965.943
965953.0,57.0,36.0,32.0,66.0,965.953
965963.0,57.0,36.0,32.0,64.0,965.963
965974.0,57.0,38.0,32.0,63.0,965.974
965984.0,58.0,38.0,30.0,66.0,965.984
965994.0,58.0,38.0,28.0,68.0,965.994
966004.0,57.0,39.0,33.0,69.0,966.004
966014.0,58.0,39.0,29.0,70.0,966.014
966024.0,58.0,40.0,31.0,71.0,966.024
966034.0,59.0,39.0,32.0,74.0,966.034
966044.0,59.0,38.0,32.0,75.0,966.044
966054.0,57.0,39.0,30.0,71.0,966.054
966064.0,58.0,38.0,30.0,68.0,966.064
966074.0,58.0,37.0,35.0,65.0,966.074
966084.0,58.0,38.0,34.0,67.0,966.084
966094.0,58.0,36.0,32.0,62.0,966.094
966104.0,57.0,39.0,35.0,63.0,966.104
966114.0,59.0,37.0,38.0,59.0,966.114
966124.0,58.0,37.0,34.0,60.0,966.124
966134.0,55.0,37.0,31.0,60.0,966.134
966144.0,56.0,35.0,28.0,58.0,966.144
966154.0,54.0,37.0,35.0,61.0,966.154
966164.0,55.0,36.0,34.0,66.0,966.164
966174.0,55.0,36.0,33.0,63.0,966.174
966184.0,56.0,36.0,31.0,64.0,966.184
966194.0,53.0,35.0,29.0,62.0,966.194
966204.0,54.0,36.0,26.0,64.0,966.204
966214.0,53.0,35.0,23.0,59.0,966.214
966224.0,53.0,35.0,21.0,58.0,966.224
966234.0,54.0,35.0,26.0,57.0,966.234
966244.0,53.0,34.0,23.0,57.0,966.244
966254.0,52.0,34.0,26.0,55.0,966.254
966264.0,52.0,34.0,22.0,53.0,966.264
966274.0,49.0,35.0,20.0,58.0,966.274
966284.0,49.0,35.0,21.0,63.0,966.284
966294.0,49.0,37.0,19.0,65.0,966.294
966304.0,49.0,35.0,19.0,66.0,966.304
966315.0,48.0,34.0,23.0,66.0,966.315
966325.0,50.0,34.0,25.0,64.0,966.325
966335.0,49.0,35.0,24.0,63.0,966.335
966345.0,48.0,34.0,28.0,60.0,966.345
966355.0,48.0,35.0,25.0,65.0,966.355
966365.0,48.0,35.0,24.0,61.0,966.365
966375.0,48.0,34.0,27.0,60.0,966.375
966385.0,49.0,36.0,27.0,58.0,966.385
966395.0,51.0,35.0,27.0,63.0,966.395
966405.0,50.0,35.0,27.0,59.0,966.405
966415.0,50.0,36.0,26.0,59.0,966.415
966425.0,51.0,36.0,26.0,60.0,966.425
966435.0,51.0,37.0,24.0,57.0,966.435
966445.0,50.0,34.0,24.0,58.0,966.445
966455.0,49.0,36.0,25.0,57.0,966.455
966465.0,49.0,36.0,27.0,58.0,966.465
966475.0,48.0,36.0,28.0,63.0,966.475
966486.0,48.0,35.0,26.0,62.0,966.486
966496.0,48.0,36.0,29.0,64.0,966.496
966506.0,49.0,37.0,26.0,60.0,966.506
966516.0,49.0,36.0,30.0,55.0,966.516
966526.0,50.0,36.0,28.0,56.0,966.526
966536.0,50.0,37.0,25.0,54.0,966.536
966546.0,51.0,36.0,22.0,57.0,966.546
966556.0,50.0,37.0,22.0,58.0,966.556
966566.0,51.0,37.0,26.0,56.0,966.566
966576.0,52.0,38.0,23.0,54.0,966.576
966586.0,52.0,38.0,22.0,54.0,966.586
966596.0,52.0,38.0,21.0,54.0,966.596
966606.0,53.0,39.0,23.0,53.0,966.606
966616.0,53.0,37.0,21.0,52.0,966.616
966626.0,53.0,37.0,21.0,49.0,966.626
966636.0,52.0,37.0,19.0,45.0,966.636
966646.0,51.0,38.0,19.0,49.0,966.646
966656.0,51.0,36.0,19.0,49.0,966.656
966666.0,51.0,37.0,17.0,47.0,966.666
966676.0,50.0,37.0,17.0,50.0,966.676
966686.0,49.0,37.0,16.0,52.0,966.686
966696.0,48.0,36.0,18.0,53.0,966.696
966706.0,48.0,37.0,16.0,63.0,966.706
966716.0,47.0,37.0,17.0,63.0,966.716
966726.0,47.0,36.0,16.0,60.0,966.726
966736.0,45.0,35.0,15.0,57.0,966.736
