time (ms),signal 0,signal 1,signal 2,signal3,time (sec)
941948.0,54.0,38.0,4.0,47.0,941.948
941958.0,54.0,37.0,4.0,46.0,941.958
941968.0,54.0,37.0,4.0,46.0,941.968
941978.0,55.0,36.0,3.0,44.0,941.978
941988.0,56.0,36.0,4.0,44.0,941.988
941998.0,55.0,35.0,3.0,42.0,941.998
942008.0,57.0,35.0,4.0,43.0,942.008
942018.0,56.0,34.0,4.0,42.0,942.018
942028.0,55.0,36.0,4.0,41.0,942.028
942038.0,59.0,36.0,4.0,43.0,942.038
942048.0,59.0,36.0,3.0,40.0,942.048
942058.0,58.0,37.0,4.0,43.0,942.058
942068.0,57.0,38.0,4.0,46.0,942.068
942078.0,56.0,41.0,4.0,43.0,942.078
942088.0,58.0,42.0,4.0,42.0,942.088
942098.0,57.0,45.0,3.0,41.0,942.098
942108.0,55.0,47.0,5.0,44.0,942.108
942118.0,57.0,46.0,4.0,42.0,942.118
942128.0,57.0,46.0,5.0,42.0,942.128
942138.0,56.0,46.0,4.0,46.0,942.138
942148.0,57.0,48.0,5.0,47.0,942.148
942158.0,54.0,50.0,4.0,50.0,942.158
942168.0,55.0,51.0,4.0,48.0,942.168
942178.0,54.0,52.0,4.0,49.0,942.178
942188.0,54.0,52.0,3.0,49.0,942.188
942198.0,54.0,52.0,4.0,50.0,942.198
942208.0,53.0,54.0,4.0,51.0,942.208
942218.0,55.0,51.0,4.0,49.0,942.218
942228.0,53.0,52.0,2.0,49.0,942.228
942238.0,53.0,50.0,3.0,49.0,942.238
942248.0,52.0,49.0,3.0,52.0,942.248
942258.0,52.0,50.0,3.0,54.0,942.258
942268.0,53.0,50.0,4.0,54.0,942.268
942278.0,51.0,48.0,3.0,50.0,942.278
942288.0,52.0,48.0,5.0,51.0,942.288
942298.0,51.0,46.0,4.0,51.0,942.298
942308.0,50.0,45.0,4.0,54.0,942.308
942318.0,51.0,45.0,4.0,57.0,942.318
942328.0,51.0,44.0,3.0,58.0,942.328
942338.0,54.0,43.0,4.0,54.0,942.338
942348.0,53.0,44.0,3.0,63.0,942.348
942358.0,55.0,44.0,5.0,75.0,942.358
942368.0,56.0,43.0,4.0,89.0,942.368
942379.0,55.0,43.0,4.0,87.0,942.379
942389.0,58.0,41.0,4.0,89.0,942.389
942399.0,59.0,44.0,5.0,85.0,942.399
942409.0,59.0,42.0,5.0,79.0,942.409
942419.0,59.0,43.0,4.0,79.0,942.419
942429.0,61.0,42.0,7.0,78.0,942.429
942439.0,60.0,42.0,4.0,73.0,942.439
942449.0,58.0,43.0,5.0,69.0,942.449
942459.0,60.0,42.0,4.0,73.0,942.459
942469.0,59.0,42.0,5.0,70.0,942.469
942479.0,58.0,40.0,5.0,65.0,942.479
942489.0,57.0,39.0,4.0,68.0,942.489
942499.0,57.0,39.0,5.0,65.0,942.499
942509.0,56.0,39.0,4.0,66.0,942.509
942519.0,55.0,39.0,4.0,66.0,942.519
942529.0,56.0,39.0,4.0,68.0,942.529
942539.0,57.0,40.0,4.0,64.0,942.539
942550.0,57.0,40.0,5.0,63.0,942.55
942560.0,57.0,40.0,4.0,64.0,942.56
942570.0,60.0,40.0,6.0,64.0,942.57
942580.0,60.0,40.0,4.0,60.0,942.58
942590.0,61.0,40.0,4.0,63.0,942.59
942600.0,62.0,39.0,4.0,61.0,942.6
942610.0,62.0,39.0,5.0,61.0,942.61
942620.0,62.0,38.0,5.0,62.0,942.62
942630.0,61.0,38.0,4.0,61.0,942.63
942640.0,63.0,39.0,5.0,57.0,942.64
942650.0,61.0,39.0,4.0,55.0,942.65
942660.0,60.0,37.0,4.0,53.0,942.66
942670.0,60.0,37.0,4.0,55.0,942.67
942680.0,59.0,37.0,3.0,54.0,942.68
942690.0,60.0,36.0,4.0,72.0,942.69
942700.0,60.0,36.0,3.0,70.0,942.7
942710.0,60.0,37.0,4.0,70.0,942.71
942720.0,59.0,37.0,3.0,72.0,942.72
942730.0,58.0,38.0,4.0,69.0,942.73
942740.0,59.0,37.0,4.0,66.0,942.74
942750.0,59.0,38.0,4.0,63.0,942.75
942760.0,58.0,38.0,4.0,66.0,942.76
942770.0,60.0,38.0,5.0,64.0,942.77
942780.0,61.0,37.0,5.0,64.0,942.78
942790.0,62.0,38.0,4.0,68.0,942.79
942800.0,62.0,37.0,4.0,66.0,942.8
942810.0,62.0,36.0,4.0,65.0,942.81
942820.0,62.0,37.0,5.0,68.0,942.82
942830.0,62.0,36.0,5.0,70.0,942.83
942840.0,63.0,37.0,4.0,72.0,942.84
942850.0,63.0,36.0,6.0,71.0,942.85
942860.0,62.0,36.0,4.0,68.0,942.86
942870.0,62.0,35.0,4.0,65.0,942.87
942880.0,62.0,37.0,4.0,63.0,942.88
942891.0,63.0,38.0,3.0,58.0,942.891
942901.0,61.0,38.0,4.0,55.0,942.901
942911.0,60.0,39.0,4.0,63.0,942.911
942921.0,61.0,40.0,6.0,63.0,942.921
942931.0,60.0,40.0,6.0,66.0,942.931
942941.0,61.0,41.0,6.0,67.0,942.941
942951.0,60.0,41.0,5.0,64.0,942.951
942961.0,61.0,40.0,5.0,66.0,942.961
942971.0,60.0,41.0,5.0,66.0,942.971
942981.0,61.0,43.0,5.0,63.0,942.981
942991.0,63.0,43.0,5.0,67.0,942.991
943001.0,62.0,44.0,5.0,71.0,943.001
943011.0,62.0,44.0,5.0,65.0,943.011
943021.0,62.0,45.0,5.0,68.0,943.021
943031.0,61.0,45.0,5.0,67.0,943.031
943041.0,61.0,44.0,4.0,65.0,943.041
943051.0,59.0,45.0,4.0,63.0,943.051
943062.0,61.0,45.0,5.0,60.0,943.062
943072.0,60.0,43.0,4.0,63.0,943.072
943082.0,61.0,44.0,4.0,63.0,943.082
943092.0,61.0,44.0,4.0,69.0,943.092
943102.0,60.0,46.0,4.0,62.0,943.102
943112.0,59.0,46.0,5.0,58.0,943.112
943122.0,59.0,47.0,4.0,56.0,943.122
943132.0,61.0,47.0,6.0,59.0,943.132
943142.0,58.0,48.0,6.0,56.0,943.142
943152.0,57.0,47.0,5.0,60.0,943.152
943162.0,57.0,47.0,5.0,67.0,943.162
943172.0,56.0,47.0,4.0,64.0,943.172
943182.0,56.0,46.0,5.0,66.0,943.182
943192.0,56.0,45.0,5.0,69.0,943.192
943202.0,58.0,46.0,7.0,67.0,943.202
943212.0,57.0,46.0,6.0,64.0,943.212
943222.0,57.0,48.0,6.0,64.0,943.222
943232.0,55.0,49.0,5.0,64.0,943.232
943242.0,55.0,50.0,5.0,60.0,943.242
943252.0,57.0,50.0,5.0,62.0,943.252
943262.0,56.0,51.0,4.0,62.0,943.262
943272.0,56.0,51.0,5.0,62.0,943.272
943282.0,56.0,52.0,4.0,61.0,943.282
943292.0,57.0,53.0,4.0,68.0,943.292
943302.0,58.0,55.0,5.0,75.0,943.302
943312.0,59.0,57.0,5.0,74.0,943.312
943322.0,61.0,58.0,4.0,68.0,943.322
943332.0,60.0,60.0,4.0,70.0,943.332
943342.0,62.0,60.0,5.0,66.0,943.342
943352.0,63.0,60.0,4.0,69.0,943.352
943362.0,62.0,61.0,4.0,80.0,943.362
943372.0,63.0,61.0,6.0,77.0,943.372
943382.0,62.0,62.0,8.0,72.0,943.382
943392.0,63.0,60.0,8.0,71.0,943.392
943403.0,64.0,60.0,7.0,68.0,943.403
943413.0,64.0,58.0,8.0,65.0,943.413
943423.0,64.0,55.0,6.0,77.0,943.423
943433.0,63.0,54.0,7.0,73.0,943.433
943443.0,63.0,54.0,6.0,77.0,943.443
943453.0,62.0,53.0,6.0,77.0,943.453
943463.0,63.0,52.0,6.0,74.0,943.463
943473.0,63.0,51.0,7.0,71.0,943.473
943483.0,65.0,50.0,7.0,66.0,943.483
943493.0,65.0,50.0,6.0,67.0,943.493
943503.0,65.0,51.0,5.0,64.0,943.503
943513.0,65.0,51.0,6.0,75.0,943.513
943523.0,65.0,50.0,5.0,71.0,943.523
943533.0,66.0,50.0,5.0,66.0,943.533
943543.0,65.0,49.0,5.0,67.0,943.543
943553.0,66.0,47.0,6.0,65.0,943.553
943563.0,64.0,47.0,4.0,61.0,943.563
943574.0,63.0,47.0,5.0,72.0,943.574
943584.0,61.0,47.0,5.0,76.0,943.584
943594.0,61.0,49.0,6.0,70.0,943.594
943604.0,60.0,48.0,6.0,65.0,943.604
943614.0,59.0,49.0,5.0,63.0,943.614
943624.0,59.0,48.0,7.0,60.0,943.624
943634.0,60.0,47.0,4.0,56.0,943.634
943644.0,59.0,48.0,5.0,61.0,943.644
943654.0,60.0,47.0,5.0,62.0,943.654
943664.0,59.0,47.0,3.0,65.0,943.664
943674.0,61.0,45.0,4.0,62.0,943.674
943684.0,60.0,47.0,4.0,56.0,943.684
943694.0,60.0,46.0,6.0,56.0,943.694
943704.0,60.0,47.0,6.0,58.0,943.704
943714.0,58.0,47.0,6.0,61.0,943.714
943724.0,58.0,47.0,6.0,61.0,943.724
943734.0,57.0,46.0,5.0,62.0,943.734
943744.0,56.0,45.0,5.0,66.0,943.744
943754.0,54.0,46.0,6.0,62.0,943.754
943764.0,55.0,46.0,7.0,61.0,943.764
943774.0,54.0,46.0,6.0,71.0,943.774
943784.0,54.0,46.0,6.0,67.0,943.784
943794.0,55.0,47.0,5.0,67.0,943.794
943804.0,55.0,50.0,5.0,67.0,943.804
943814.0,56.0,48.0,4.0,64.0,943.814
943824.0,57.0,48.0,5.0,68.0,943.824
943834.0,59.0,47.0,5.0,71.0,943.834
943844.0,60.0,48.0,4.0,77.0,943.844
943854.0,63.0,48.0,4.0,79.0,943.854
943864.0,63.0,49.0,4.0,77.0,943.864
943874.0,66.0,50.0,3.0,71.0,943.874
943884.0,67.0,50.0,4.0,66.0,943.884
943894.0,67.0,50.0,4.0,62.0,943.894
943904.0,70.0,50.0,5.0,58.0,943.904
943915.0,68.0,49.0,4.0,57.0,943.915
943925.0,67.0,49.0,4.0,73.0,943.925
943935.0,69.0,47.0,4.0,72.0,943.935
943945.0,69.0,45.0,3.0,70.0,943.945
943955.0,69.0,44.0,4.0,66.0,943.955
943965.0,69.0,45.0,4.0,63.0,943.965
943975.0,71.0,43.0,4.0,62.0,943.975
943985.0,70.0,43.0,4.0,64.0,943.985
943995.0,70.0,43.0,4.0,69.0,943.995
944005.0,70.0,44.0,4.0,72.0,944.005
944015.0,71.0,44.0,3.0,72.0,944.015
944025.0,71.0,42.0,4.0,66.0,944.025
944035.0,72.0,42.0,4.0,71.0,944.035
944045.0,74.0,43.0,4.0,78.0,944.045
944055.0,75.0,43.0,2.0,71.0,944.055
944065.0,76.0,46.0,3.0,67.0,944.065
944075.0,78.0,47.0,3.0,64.0,944.075
944086.0,73.0,49.0,3.0,65.0,944.086
944096.0,70.0,50.0,3.0,74.0,944.096
944106.0,83.0,52.0,4.0,83.0,944.106
944116.0,103.0,67.0,10.0,107.0,944.116
944126.0,148.0,74.0,12.0,125.0,944.126
944136.0,173.0,83.0,21.0,137.0,944.136
944146.0,219.0,126.0,30.0,167.0,944.146
944156.0,231.0,137.0,26.0,189.0,944.156
944166.0,273.0,142.0,33.0,194.0,944.166
944176.0,310.0,138.0,41.0,209.0,944.176
944186.0,320.0,141.0,50.0,238.0,944.186
944196.0,294.0,150.0,48.0,264.0,944.196
944206.0,303.0,154.0,58.0,291.0,944.206
944216.0,316.0,155.0,51.0,293.0,944.216
944226.0,287.0,168.0,60.0,281.0,944.226
944236.0,264.0,165.0,62.0,268.0,944.236
944246.0,261.0,168.0,61.0,268.0,944.246
944256.0,265.0,185.0,76.0,255.0,944.256
944266.0,263.0,179.0,88.0,291.0,944.266
944276.0,248.0,180.0,102.0,302.0,944.276
944286.0,225.0,188.0,133.0,290.0,944.286
944296.0,225.0,200.0,169.0,278.0,944.296
944306.0,211.0,194.0,193.0,263.0,944.306
944316.0,200.0,201.0,228.0,256.0,944.316
944326.0,190.0,200.0,256.0,243.0,944.326
944336.0,183.0,201.0,270.0,251.0,944.336
944346.0,181.0,203.0,284.0,241.0,944.346
944356.0,171.0,204.0,292.0,230.0,944.356
944366.0,158.0,198.0,297.0,216.0,944.366
944376.0,154.0,196.0,300.0,252.0,944.376
944386.0,151.0,197.0,297.0,256.0,944.386
944396.0,146.0,197.0,295.0,238.0,944.396
944406.0,146.0,198.0,294.0,228.0,944.406
944416.0,142.0,196.0,285.0,215.0,944.416
944427.0,141.0,195.0,278.0,224.0,944.427
944437.0,137.0,192.0,267.0,272.0,944.437
944447.0,135.0,193.0,255.0,270.0,944.447
944457.0,133.0,196.0,246.0,258.0,944.457
944467.0,135.0,193.0,235.0,254.0,944.467
944477.0,134.0,196.0,227.0,243.0,944.477
944487.0,128.0,192.0,218.0,243.0,944.487
944497.0,122.0,189.0,207.0,266.0,944.497
944507.0,120.0,191.0,202.0,256.0,944.507
944517.0,126.0,192.0,194.0,255.0,944.517
944527.0,121.0,187.0,184.0,245.0,944.527
944537.0,120.0,185.0,181.0,255.0,944.537
944547.0,116.0,182.0,174.0,246.0,944.547
944557.0,110.0,179.0,168.0,241.0,944.557
944567.0,112.0,180.0,161.0,237.0,944.567
944577.0,109.0,177.0,153.0,224.0,944.577
944587.0,113.0,179.0,149.0,221.0,944.587
944598.0,108.0,175.0,143.0,220.0,944.598
944608.0,104.0,171.0,135.0,221.0,944.608
944618.0,100.0,171.0,124.0,234.0,944.618
944628.0,97.0,168.0,115.0,228.0,944.628
944638.0,98.0,164.0,104.0,232.0,944.638
944648.0,94.0,160.0,95.0,231.0,944.648
944658.0,90.0,156.0,85.0,230.0,944.658
944668.0,89.0,158.0,79.0,216.0,944.668
944678.0,88.0,156.0,75.0,217.0,944.678
944688.0,83.0,152.0,67.0,223.0,944.688
944698.0,82.0,153.0,61.0,209.0,944.698
944708.0,80.0,149.0,53.0,211.0,944.708
944718.0,78.0,149.0,49.0,199.0,944.718
944728.0,77.0,146.0,45.0,203.0,944.728
944738.0,77.0,145.0,40.0,203.0,944.738
944748.0,75.0,142.0,35.0,201.0,944.748
944758.0,73.0,144.0,32.0,197.0,944.758
944768.0,74.0,142.0,31.0,203.0,944.768
944778.0,77.0,142.0,29.0,218.0,944.778
944788.0,74.0,137.0,26.0,225.0,944.788
944798.0,73.0,137.0,23.0,215.0,944.798
944808.0,71.0,135.0,21.0,195.0,944.808
944818.0,71.0,133.0,21.0,195.0,944.818
944828.0,68.0,132.0,18.0,194.0,944.828
944838.0,68.0,131.0,16.0,205.0,944.838
944848.0,65.0,131.0,15.0,204.0,944.848
944858.0,63.0,129.0,14.0,190.0,944.858
944868.0,62.0,124.0,14.0,174.0,944.868
944878.0,62.0,123.0,13.0,175.0,944.878
944888.0,63.0,123.0,14.0,167.0,944.888
944898.0,61.0,121.0,12.0,159.0,944.898
944908.0,60.0,118.0,12.0,155.0,944.908
944918.0,62.0,117.0,12.0,157.0,944.918
944928.0,59.0,114.0,14.0,173.0,944.928
944939.0,60.0,113.0,15.0,176.0,944.939
944949.0,61.0,114.0,13.0,180.0,944.949
944959.0,61.0,112.0,22.0,198.0,944.959
944969.0,60.0,109.0,22.0,199.0,944.969
944979.0,59.0,112.0,23.0,193.0,944.979
944989.0,58.0,111.0,21.0,184.0,944.989
944999.0,57.0,111.0,23.0,177.0,944.999
945009.0,57.0,108.0,21.0,170.0,945.009
945019.0,57.0,108.0,20.0,176.0,945.019
945029.0,59.0,108.0,19.0,176.0,945.029
945039.0,60.0,108.0,20.0,175.0,945.039
945049.0,58.0,107.0,20.0,170.0,945.049
945059.0,58.0,105.0,20.0,172.0,945.059
945069.0,58.0,107.0,22.0,172.0,945.069
945079.0,56.0,106.0,22.0,177.0,945.079
945089.0,55.0,103.0,23.0,181.0,945.089
945099.0,56.0,101.0,25.0,188.0,945.099
945110.0,54.0,101.0,24.0,182.0,945.11
945120.0,56.0,101.0,26.0,178.0,945.12
945130.0,55.0,99.0,26.0,172.0,945.13
945140.0,57.0,98.0,26.0,160.0,945.14
945150.0,61.0,99.0,25.0,153.0,945.15
945160.0,59.0,97.0,24.0,173.0,945.16
945170.0,58.0,96.0,28.0,178.0,945.17
945180.0,61.0,95.0,30.0,171.0,945.18
945190.0,59.0,96.0,34.0,175.0,945.19
945200.0,62.0,97.0,37.0,167.0,945.2
945210.0,62.0,96.0,38.0,152.0,945.21
945220.0,62.0,98.0,39.0,150.0,945.22
945230.0,61.0,96.0,39.0,155.0,945.23
945240.0,61.0,95.0,39.0,163.0,945.24
945250.0,63.0,94.0,42.0,164.0,945.25
945260.0,64.0,94.0,41.0,153.0,945.26
945270.0,63.0,93.0,40.0,161.0,945.27
945280.0,62.0,93.0,42.0,180.0,945.28
945290.0,62.0,88.0,44.0,177.0,945.29
945300.0,61.0,88.0,43.0,204.0,945.3
945310.0,60.0,86.0,44.0,197.0,945.31
945320.0,57.0,84.0,43.0,191.0,945.32
945330.0,58.0,83.0,42.0,186.0,945.33
945340.0,59.0,80.0,44.0,200.0,945.34
945350.0,57.0,81.0,44.0,217.0,945.35
945360.0,59.0,79.0,44.0,200.0,945.36
945370.0,58.0,77.0,40.0,214.0,945.37
945380.0,58.0,74.0,43.0,229.0,945.38
945390.0,57.0,75.0,44.0,216.0,945.39
945400.0,56.0,72.0,43.0,197.0,945.4
945410.0,56.0,69.0,42.0,178.0,945.41
945420.0,54.0,72.0,41.0,172.0,945.42
945430.0,58.0,71.0,39.0,167.0,945.43
945440.0,63.0,69.0,39.0,165.0,945.44
945451.0,61.0,70.0,42.0,154.0,945.451
945461.0,60.0,72.0,42.0,158.0,945.461
945471.0,59.0,69.0,40.0,165.0,945.471
945481.0,60.0,69.0,40.0,177.0,945.481
945491.0,58.0,68.0,39.0,170.0,945.491
945501.0,57.0,74.0,39.0,172.0,945.501
945511.0,58.0,72.0,40.0,192.0,945.511
945521.0,58.0,72.0,43.0,187.0,945.521
945531.0,57.0,71.0,42.0,178.0,945.531
945541.0,55.0,74.0,40.0,173.0,945.541
945551.0,55.0,73.0,39.0,197.0,945.551
945561.0,58.0,75.0,38.0,209.0,945.561
945571.0,56.0,71.0,38.0,209.0,945.571
945581.0,56.0,75.0,37.0,203.0,945.581
945591.0,55.0,73.0,41.0,201.0,945.591
945601.0,55.0,75.0,39.0,213.0,945.601
945611.0,55.0,73.0,40.0,223.0,945.611
945622.0,55.0,72.0,38.0,263.0,945.622
945632.0,55.0,74.0,40.0,246.0,945.632
945642.0,56.0,70.0,36.0,226.0,945.642
945652.0,54.0,70.0,35.0,208.0,945.652
945662.0,54.0,70.0,33.0,212.0,945.662
945672.0,56.0,70.0,32.0,199.0,945.672
945682.0,56.0,71.0,33.0,206.0,945.682
945692.0,54.0,69.0,31.0,200.0,945.692
945702.0,52.0,71.0,28.0,184.0,945.702
945712.0,54.0,70.0,27.0,183.0,945.712
945722.0,54.0,73.0,26.0,192.0,945.722
945732.0,54.0,73.0,28.0,197.0,945.732
945742.0,53.0,72.0,25.0,191.0,945.742
945752.0,52.0,72.0,22.0,188.0,945.752
945762.0,53.0,73.0,20.0,186.0,945.762
945772.0,54.0,73.0,19.0,176.0,945.772
945782.0,54.0,72.0,18.0,163.0,945.782
945792.0,54.0,76.0,16.0,181.0,945.792
945802.0,53.0,73.0,15.0,180.0,945.802
945812.0,51.0,75.0,13.0,185.0,945.812
945822.0,51.0,75.0,13.0,211.0,945.822
945832.0,52.0,75.0,13.0,241.0,945.832
945842.0,53.0,76.0,11.0,227.0,945.842
945852.0,55.0,77.0,11.0,234.0,945.852
945862.0,55.0,75.0,11.0,226.0,945.862
945872.0,55.0,72.0,11.0,231.0,945.872
945882.0,53.0,74.0,10.0,216.0,945.882
945892.0,53.0,71.0,10.0,203.0,945.892
945902.0,56.0,75.0,9.0,194.0,945.902
945912.0,57.0,73.0,7.0,206.0,945.912
945922.0,56.0,73.0,8.0,199.0,945.922
945932.0,55.0,74.0,8.0,209.0,945.932
945942.0,54.0,72.0,8.0,199.0,945.942
945952.0,52.0,72.0,6.0,224.0,945.952
945963.0,52.0,70.0,7.0,220.0,945.963
945973.0,51.0,72.0,6.0,205.0,945.973
945983.0,51.0,70.0,6.0,186.0,945.983
945993.0,51.0,70.0,6.0,175.0,945.993
946003.0,51.0,70.0,5.0,171.0,946.003
946013.0,50.0,69.0,6.0,171.0,946.013
946023.0,50.0,69.0,4.0,161.0,946.023
946033.0,52.0,68.0,4.0,148.0,946.033
946043.0,52.0,70.0,4.0,168.0,946.043
946053.0,50.0,69.0,5.0,168.0,946.053
946063.0,53.0,70.0,6.0,175.0,946.063
946073.0,53.0,67.0,5.0,173.0,946.073
946083.0,52.0,66.0,5.0,174.0,946.083
946093.0,51.0,67.0,5.0,189.0,946.093
946103.0,52.0,68.0,5.0,181.0,946.103
946113.0,55.0,66.0,5.0,192.0,946.113
946123.0,56.0,67.0,5.0,176.0,946.123
946134.0,54.0,67.0,5.0,186.0,946.134
946144.0,53.0,68.0,4.0,187.0,946.144
946154.0,53.0,64.0,4.0,170.0,946.154
946164.0,53.0,63.0,4.0,172.0,946.164
946174.0,51.0,63.0,4.0,163.0,946.174
946184.0,51.0,63.0,4.0,167.0,946.184
946194.0,50.0,64.0,6.0,164.0,946.194
946204.0,51.0,61.0,6.0,160.0,946.204
946214.0,51.0,61.0,5.0,164.0,946.214
946224.0,53.0,61.0,7.0,222.0,946.224
946234.0,52.0,59.0,5.0,215.0,946.234
946244.0,52.0,61.0,6.0,237.0,946.244
946254.0,53.0,60.0,6.0,215.0,946.254
946264.0,53.0,62.0,7.0,223.0,946.264
946274.0,52.0,60.0,6.0,220.0,946.274
946284.0,51.0,63.0,6.0,202.0,946.284
946294.0,52.0,63.0,7.0,206.0,946.294
946304.0,51.0,66.0,8.0,251.0,946.304
946314.0,51.0,64.0,7.0,233.0,946.314
946324.0,51.0,65.0,8.0,218.0,946.324
946334.0,49.0,65.0,8.0,198.0,946.334
946344.0,49.0,64.0,7.0,201.0,946.344
946354.0,48.0,63.0,7.0,195.0,946.354
946364.0,49.0,64.0,9.0,182.0,946.364
946374.0,49.0,65.0,10.0,168.0,946.374
946384.0,50.0,63.0,13.0,182.0,946.384
946394.0,51.0,61.0,12.0,176.0,946.394
946404.0,52.0,62.0,10.0,174.0,946.404
946414.0,52.0,63.0,14.0,167.0,946.414
946424.0,53.0,64.0,15.0,159.0,946.424
946434.0,57.0,61.0,18.0,187.0,946.434
946444.0,58.0,60.0,18.0,196.0,946.444
946454.0,55.0,60.0,17.0,193.0,946.454
946464.0,56.0,61.0,20.0,198.0,946.464
946475.0,56.0,60.0,22.0,188.0,946.475
946485.0,58.0,58.0,25.0,228.0,946.485
946495.0,57.0,60.0,23.0,228.0,946.495
946505.0,56.0,58.0,26.0,232.0,946.505
946515.0,56.0,56.0,24.0,235.0,946.515
946525.0,54.0,55.0,26.0,216.0,946.525
946535.0,54.0,56.0,28.0,208.0,946.535
946545.0,54.0,56.0,28.0,209.0,946.545
946555.0,53.0,55.0,29.0,242.0,946.555
946565.0,55.0,58.0,28.0,249.0,946.565
946575.0,54.0,57.0,27.0,228.0,946.575
946585.0,52.0,58.0,26.0,226.0,946.585
946595.0,52.0,57.0,27.0,205.0,946.595
946605.0,52.0,57.0,30.0,196.0,946.605
946615.0,50.0,56.0,30.0,247.0,946.615
946625.0,50.0,58.0,30.0,226.0,946.625
946635.0,52.0,57.0,28.0,204.0,946.635
946646.0,52.0,58.0,30.0,182.0,946.646
946656.0,54.0,58.0,29.0,169.0,946.656
946666.0,54.0,59.0,32.0,177.0,946.666
946676.0,53.0,58.0,30.0,183.0,946.676
946686.0,53.0,61.0,31.0,181.0,946.686
946696.0,55.0,58.0,30.0,200.0,946.696
946706.0,55.0,60.0,29.0,191.0,946.706
946716.0,57.0,61.0,29.0,176.0,946.716
946726.0,55.0,59.0,27.0,174.0,946.726
946736.0,57.0,59.0,26.0,179.0,946.736
946746.0,57.0,61.0,26.0,172.0,946.746
946756.0,56.0,61.0,26.0,160.0,946.756
946766.0,54.0,60.0,24.0,156.0,946.766
946776.0,53.0,61.0,27.0,150.0,946.776
946786.0,53.0,60.0,27.0,155.0,946.786
946796.0,54.0,59.0,22.0,146.0,946.796
946806.0,53.0,56.0,21.0,143.0,946.806
946816.0,53.0,59.0,21.0,133.0,946.816
946826.0,51.0,57.0,22.0,131.0,946.826
946836.0,51.0,55.0,22.0,126.0,946.836
946846.0,52.0,54.0,21.0,128.0,946.846
946856.0,52.0,52.0,21.0,139.0,946.856
946866.0,55.0,56.0,22.0,137.0,946.866
946876.0,54.0,57.0,22.0,141.0,946.876
946886.0,53.0,55.0,22.0,157.0,946.886
946896.0,55.0,54.0,23.0,200.0,946.896
946906.0,54.0,52.0,23.0,201.0,946.906
946916.0,54.0,51.0,21.0,192.0,946.916
946926.0,55.0,50.0,24.0,179.0,946.926
946936.0,55.0,50.0,24.0,161.0,946.936
946946.0,52.0,50.0,26.0,164.0,946.946
946956.0,57.0,50.0,26.0,194.0,946.956
946966.0,54.0,48.0,25.0,191.0,946.966
946976.0,53.0,48.0,27.0,178.0,946.976
946987.0,54.0,49.0,27.0,165.0,946.987
946997.0,53.0,47.0,32.0,180.0,946.997
947007.0,52.0,46.0,28.0,199.0,947.007
947017.0,54.0,47.0,29.0,190.0,947.017
947027.0,56.0,47.0,29.0,186.0,947.027
947037.0,55.0,47.0,30.0,184.0,947.037
947047.0,56.0,46.0,31.0,182.0,947.047
947057.0,57.0,44.0,29.0,179.0,947.057
947067.0,56.0,45.0,26.0,172.0,947.067
947077.0,57.0,44.0,30.0,159.0,947.077
947087.0,56.0,43.0,29.0,151.0,947.087
947097.0,56.0,42.0,30.0,141.0,947.097
947107.0,55.0,44.0,35.0,151.0,947.107
947117.0,56.0,44.0,36.0,148.0,947.117
947127.0,54.0,43.0,37.0,139.0,947.127
947137.0,55.0,42.0,40.0,124.0,947.137
947147.0,54.0,45.0,43.0,117.0,947.147
947158.0,54.0,44.0,46.0,119.0,947.158
947168.0,54.0,44.0,47.0,122.0,947.168
947178.0,57.0,44.0,52.0,165.0,947.178
947188.0,60.0,44.0,47.0,174.0,947.188
947198.0,60.0,45.0,47.0,173.0,947.198
947208.0,61.0,43.0,48.0,163.0,947.208
947218.0,60.0,44.0,45.0,167.0,947.218
947228.0,58.0,44.0,45.0,153.0,947.228
947238.0,60.0,43.0,44.0,148.0,947.238
947248.0,60.0,42.0,44.0,136.0,947.248
947258.0,61.0,42.0,47.0,130.0,947.258
947268.0,61.0,44.0,46.0,127.0,947.268
947278.0,61.0,44.0,45.0,120.0,947.278
947288.0,64.0,43.0,42.0,123.0,947.288
947298.0,65.0,43.0,41.0,131.0,947.298
947308.0,66.0,44.0,41.0,141.0,947.308
947318.0,66.0,45.0,39.0,151.0,947.318
947328.0,65.0,44.0,37.0,141.0,947.328
947338.0,62.0,43.0,32.0,140.0,947.338
947348.0,61.0,42.0,34.0,126.0,947.348
947358.0,60.0,42.0,30.0,115.0,947.358
947368.0,59.0,45.0,32.0,107.0,947.368
947378.0,58.0,43.0,29.0,112.0,947.378
947388.0,57.0,45.0,35.0,110.0,947.388
947398.0,56.0,47.0,33.0,105.0,947.398
947408.0,58.0,63.0,89.0,155.0,947.408
947418.0,62.0,76.0,168.0,203.0,947.418
947428.0,67.0,76.0,166.0,198.0,947.428
947438.0,68.0,73.0,164.0,184.0,947.438
947448.0,69.0,69.0,171.0,167.0,947.448
947458.0,73.0,68.0,168.0,162.0,947.458
947468.0,69.0,72.0,176.0,172.0,947.468
947478.0,67.0,84.0,233.0,241.0,947.478
947488.0,68.0,89.0,256.0,271.0,947.488
947499.0,70.0,87.0,252.0,277.0,947.499
947509.0,70.0,94.0,361.0,321.0,947.509
947519.0,87.0,97.0,457.0,354.0,947.519
947529.0,97.0,104.0,495.0,382.0,947.529
947539.0,109.0,109.0,479.0,392.0,947.539
947549.0,116.0,108.0,460.0,424.0,947.549
947559.0,127.0,107.0,434.0,404.0,947.559
947569.0,128.0,101.0,447.0,417.0,947.569
947579.0,137.0,105.0,441.0,401.0,947.579
947589.0,146.0,115.0,415.0,390.0,947.589
947599.0,146.0,115.0,379.0,398.0,947.599
947609.0,150.0,119.0,352.0,386.0,947.609
947619.0,149.0,117.0,352.0,365.0,947.619
947629.0,152.0,120.0,331.0,363.0,947.629
947639.0,152.0,120.0,306.0,341.0,947.639
947649.0,154.0,119.0,289.0,322.0,947.649
947659.0,158.0,123.0,260.0,309.0,947.659
947670.0,159.0,122.0,228.0,294.0,947.67
947680.0,160.0,118.0,220.0,278.0,947.68
947690.0,163.0,119.0,232.0,299.0,947.69
947700.0,166.0,123.0,210.0,306.0,947.7
947710.0,167.0,125.0,182.0,289.0,947.71
947720.0,166.0,125.0,172.0,272.0,947.72
947730.0,167.0,125.0,152.0,247.0,947.73
947740.0,166.0,128.0,135.0,229.0,947.74
947750.0,165.0,124.0,147.0,222.0,947.75
947760.0,164.0,123.0,135.0,211.0,947.76
947770.0,167.0,126.0,134.0,201.0,947.77
947780.0,167.0,125.0,124.0,185.0,947.78
947790.0,166.0,123.0,117.0,172.0,947.79
947800.0,165.0,123.0,108.0,159.0,947.8
947810.0,162.0,123.0,100.0,160.0,947.81
947820.0,162.0,124.0,89.0,170.0,947.82
947830.0,160.0,124.0,77.0,161.0,947.83
947840.0,159.0,122.0,73.0,151.0,947.84
947850.0,158.0,122.0,82.0,142.0,947.85
947860.0,156.0,122.0,86.0,137.0,947.86
947870.0,154.0,120.0,76.0,126.0,947.87
947880.0,152.0,117.0,74.0,115.0,947.88
947890.0,152.0,116.0,70.0,116.0,947.89
947900.0,148.0,113.0,75.0,116.0,947.9
947910.0,150.0,113.0,70.0,115.0,947.91
947920.0,149.0,111.0,62.0,108.0,947.92
947930.0,146.0,108.0,65.0,103.0,947.93
947940.0,146.0,107.0,63.0,100.0,947.94
947950.0,143.0,105.0,59.0,99.0,947.95
947960.0,143.0,103.0,57.0,97.0,947.96
947970.0,143.0,104.0,53.0,103.0,947.97
947980.0,141.0,102.0,66.0,102.0,947.98
947990.0,141.0,103.0,63.0,103.0,947.99
948000.0,138.0,104.0,57.0,101.0,948.0
948011.0,139.0,104.0,52.0,97.0,948.011
948021.0,138.0,105.0,63.0,103.0,948.021
948031.0,138.0,101.0,57.0,96.0,948.031
948041.0,136.0,101.0,53.0,99.0,948.041
948051.0,134.0,99.0,72.0,108.0,948.051
948061.0,133.0,99.0,66.0,103.0,948.061
948071.0,132.0,99.0,61.0,108.0,948.071
948081.0,131.0,98.0,60.0,104.0,948.081
948091.0,129.0,97.0,55.0,113.0,948.091
948101.0,128.0,94.0,56.0,110.0,948.101
948111.0,127.0,92.0,56.0,109.0,948.111
948121.0,129.0,94.0,50.0,113.0,948.121
948131.0,127.0,92.0,60.0,115.0,948.131
948141.0,125.0,93.0,57.0,120.0,948.141
948151.0,124.0,92.0,52.0,138.0,948.151
948161.0,122.0,91.0,58.0,140.0,948.161
948171.0,121.0,92.0,54.0,127.0,948.171
948182.0,121.0,91.0,51.0,131.0,948.182
948192.0,120.0,91.0,51.0,136.0,948.192
948202.0,118.0,91.0,46.0,136.0,948.202
948212.0,114.0,90.0,42.0,140.0,948.212
948222.0,112.0,89.0,40.0,147.0,948.222
948232.0,108.0,89.0,48.0,157.0,948.232
948242.0,107.0,86.0,56.0,176.0,948.242
948252.0,108.0,87.0,65.0,172.0,948.252
948262.0,108.0,87.0,72.0,164.0,948.262
948272.0,108.0,88.0,64.0,165.0,948.272
948282.0,108.0,88.0,58.0,166.0,948.282
948292.0,107.0,88.0,53.0,169.0,948.292
948302.0,106.0,90.0,47.0,173.0,948.302
948312.0,104.0,88.0,45.0,173.0,948.312
948322.0,103.0,90.0,41.0,180.0,948.322
948332.0,103.0,90.0,41.0,183.0,948.332
948342.0,103.0,90.0,40.0,183.0,948.342
948352.0,101.0,88.0,47.0,188.0,948.352
948362.0,100.0,85.0,52.0,192.0,948.362
948372.0,102.0,88.0,55.0,191.0,948.372
948382.0,101.0,86.0,57.0,185.0,948.382
948392.0,102.0,85.0,51.0,189.0,948.392
948402.0,101.0,83.0,47.0,186.0,948.402
948412.0,101.0,82.0,48.0,183.0,948.412
948422.0,100.0,80.0,47.0,182.0,948.422
948432.0,101.0,77.0,44.0,181.0,948.432
948442.0,100.0,77.0,46.0,188.0,948.442
948452.0,99.0,74.0,49.0,189.0,948.452
948462.0,96.0,71.0,46.0,203.0,948.462
948472.0,97.0,71.0,44.0,187.0,948.472
948482.0,96.0,69.0,48.0,182.0,948.482
948492.0,96.0,69.0,57.0,179.0,948.492
948502.0,97.0,69.0,57.0,177.0,948.502
948512.0,96.0,67.0,54.0,175.0,948.512
948523.0,97.0,66.0,49.0,171.0,948.523
948533.0,95.0,65.0,47.0,178.0,948.533
948543.0,94.0,65.0,45.0,179.0,948.543
948553.0,93.0,63.0,48.0,184.0,948.553
948563.0,92.0,65.0,46.0,168.0,948.563
948573.0,92.0,65.0,45.0,163.0,948.573
948583.0,91.0,66.0,44.0,160.0,948.583
948593.0,89.0,64.0,46.0,157.0,948.593
948603.0,88.0,66.0,62.0,153.0,948.603
948613.0,89.0,66.0,59.0,146.0,948.613
948623.0,88.0,66.0,60.0,144.0,948.623
948633.0,87.0,65.0,54.0,142.0,948.633
948643.0,87.0,63.0,54.0,144.0,948.643
948653.0,85.0,63.0,51.0,146.0,948.653
948663.0,84.0,61.0,47.0,150.0,948.663
948673.0,84.0,62.0,55.0,142.0,948.673
948683.0,85.0,63.0,48.0,134.0,948.683
948694.0,86.0,64.0,58.0,134.0,948.694
948704.0,85.0,65.0,56.0,131.0,948.704
948714.0,85.0,65.0,55.0,129.0,948.714
948724.0,85.0,66.0,54.0,122.0,948.724
948734.0,85.0,65.0,49.0,116.0,948.734
948744.0,84.0,63.0,47.0,120.0,948.744
948754.0,83.0,64.0,45.0,122.0,948.754
948764.0,82.0,62.0,48.0,129.0,948.764
948774.0,81.0,61.0,44.0,124.0,948.774
948784.0,81.0,61.0,46.0,115.0,948.784
948794.0,81.0,61.0,46.0,109.0,948.794
948804.0,81.0,64.0,41.0,107.0,948.804
948814.0,81.0,65.0,37.0,108.0,948.814
948824.0,80.0,66.0,37.0,102.0,948.824
948834.0,79.0,65.0,36.0,106.0,948.834
948844.0,77.0,65.0,39.0,108.0,948.844
948854.0,76.0,64.0,40.0,106.0,948.854
948864.0,78.0,65.0,40.0,100.0,948.864
948874.0,77.0,64.0,38.0,98.0,948.874
948884.0,79.0,62.0,41.0,106.0,948.884
948894.0,81.0,61.0,39.0,100.0,948.894
948904.0,82.0,59.0,38.0,92.0,948.904
948914.0,81.0,58.0,37.0,89.0,948.914
948924.0,80.0,55.0,44.0,89.0,948.924
948934.0,83.0,56.0,41.0,91.0,948.934
948944.0,83.0,54.0,38.0,85.0,948.944
948954.0,83.0,55.0,39.0,82.0,948.954
948964.0,83.0,53.0,38.0,83.0,948.964
948974.0,82.0,51.0,37.0,75.0,948.974
948984.0,80.0,51.0,38.0,74.0,948.984
948994.0,80.0,49.0,39.0,69.0,948.994
949004.0,80.0,50.0,35.0,75.0,949.004
949014.0,79.0,48.0,33.0,72.0,949.014
949024.0,79.0,48.0,33.0,69.0,949.024
949035.0,76.0,46.0,43.0,77.0,949.035
949045.0,76.0,47.0,45.0,72.0,949.045
949055.0,74.0,45.0,39.0,67.0,949.055
949065.0,76.0,45.0,46.0,64.0,949.065
949075.0,76.0,47.0,51.0,65.0,949.075
949085.0,77.0,46.0,51.0,64.0,949.085
949095.0,79.0,46.0,47.0,63.0,949.095
949105.0,79.0,46.0,45.0,63.0,949.105
949115.0,84.0,45.0,40.0,61.0,949.115
949125.0,87.0,44.0,36.0,64.0,949.125
949135.0,88.0,43.0,40.0,61.0,949.135
949145.0,88.0,44.0,38.0,65.0,949.145
949155.0,88.0,42.0,35.0,62.0,949.155
949165.0,87.0,43.0,34.0,62.0,949.165
949175.0,84.0,42.0,34.0,61.0,949.175
949185.0,84.0,41.0,34.0,63.0,949.185
949195.0,82.0,40.0,36.0,60.0,949.195
949206.0,80.0,40.0,37.0,57.0,949.206
949216.0,80.0,41.0,34.0,63.0,949.216
949226.0,80.0,42.0,33.0,60.0,949.226
949236.0,79.0,42.0,32.0,57.0,949.236
949246.0,77.0,43.0,30.0,53.0,949.246
949256.0,75.0,42.0,33.0,57.0,949.256
949266.0,74.0,41.0,30.0,56.0,949.266
949276.0,74.0,40.0,29.0,52.0,949.276
949286.0,73.0,41.0,33.0,53.0,949.286
949296.0,72.0,39.0,35.0,49.0,949.296
949306.0,72.0,38.0,32.0,48.0,949.306
949316.0,72.0,39.0,30.0,57.0,949.316
949326.0,72.0,39.0,35.0,58.0,949.326
949336.0,69.0,39.0,37.0,55.0,949.336
949346.0,70.0,37.0,36.0,56.0,949.346
949356.0,70.0,39.0,38.0,58.0,949.356
949366.0,69.0,37.0,43.0,54.0,949.366
949376.0,68.0,37.0,41.0,53.0,949.376
949386.0,67.0,36.0,37.0,51.0,949.386
949396.0,65.0,37.0,45.0,49.0,949.396
949406.0,66.0,38.0,42.0,51.0,949.406
949416.0,67.0,39.0,41.0,52.0,949.416
949426.0,67.0,38.0,38.0,53.0,949.426
949436.0,68.0,38.0,38.0,54.0,949.436
949446.0,69.0,38.0,36.0,64.0,949.446
949456.0,68.0,37.0,36.0,63.0,949.456
949466.0,67.0,37.0,35.0,59.0,949.466
949476.0,68.0,36.0,30.0,57.0,949.476
949486.0,67.0,36.0,40.0,57.0,949.486
949496.0,67.0,37.0,40.0,57.0,949.496
949506.0,66.0,36.0,36.0,53.0,949.506
949516.0,67.0,36.0,33.0,53.0,949.516
949526.0,67.0,35.0,33.0,51.0,949.526
949536.0,68.0,35.0,33.0,51.0,949.536
949547.0,66.0,35.0,28.0,53.0,949.547
949557.0,64.0,35.0,30.0,53.0,949.557
949567.0,64.0,36.0,33.0,52.0,949.567
949577.0,65.0,35.0,31.0,52.0,949.577
949587.0,65.0,35.0,31.0,49.0,949.587
949597.0,62.0,38.0,35.0,55.0,949.597
949607.0,64.0,38.0,38.0,57.0,949.607
949617.0,63.0,37.0,32.0,53.0,949.617
949627.0,63.0,36.0,34.0,54.0,949.627
949637.0,62.0,37.0,34.0,53.0,949.637
949647.0,61.0,37.0,35.0,50.0,949.647
949657.0,61.0,36.0,30.0,50.0,949.657
949667.0,61.0,36.0,29.0,53.0,949.667
949677.0,60.0,34.0,28.0,52.0,949.677
949687.0,62.0,35.0,26.0,55.0,949.687
949697.0,61.0,35.0,28.0,59.0,949.697
949707.0,61.0,36.0,25.0,64.0,949.707
949718.0,60.0,35.0,28.0,60.0,949.718
949728.0,61.0,34.0,25.0,62.0,949.728
949738.0,61.0,34.0,22.0,59.0,949.738
949748.0,62.0,34.0,20.0,58.0,949.748
949758.0,60.0,34.0,18.0,61.0,949.758
949768.0,61.0,34.0,20.0,59.0,949.768
949778.0,59.0,35.0,17.0,58.0,949.778
949788.0,58.0,34.0,16.0,55.0,949.788
949798.0,58.0,35.0,14.0,58.0,949.798
949808.0,57.0,35.0,21.0,62.0,949.808
949818.0,58.0,36.0,24.0,64.0,949.818
949828.0,58.0,37.0,26.0,69.0,949.828
949838.0,59.0,36.0,24.0,66.0,949.838
949848.0,57.0,35.0,22.0,63.0,949.848
949858.0,57.0,36.0,21.0,68.0,949.858
949868.0,56.0,36.0,19.0,70.0,949.868
949878.0,53.0,36.0,20.0,67.0,949.878
949888.0,52.0,35.0,22.0,62.0,949.888
949898.0,52.0,38.0,28.0,71.0,949.898
949908.0,52.0,37.0,28.0,70.0,949.908
949918.0,54.0,39.0,30.0,67.0,949.918
949928.0,55.0,36.0,26.0,64.0,949.928
949938.0,57.0,37.0,24.0,65.0,949.938
949948.0,56.0,36.0,21.0,62.0,949.948
949958.0,56.0,35.0,24.0,63.0,949.958
949968.0,56.0,36.0,20.0,64.0,949.968
949978.0,56.0,36.0,20.0,63.0,949.978
949988.0,58.0,37.0,20.0,60.0,949.988
949998.0,59.0,36.0,19.0,60.0,949.998
950008.0,59.0,35.0,21.0,56.0,950.008
950018.0,59.0,36.0,19.0,61.0,950.018
950028.0,61.0,35.0,19.0,59.0,950.028
950038.0,60.0,36.0,18.0,63.0,950.038
950048.0,61.0,36.0,17.0,65.0,950.048
950059.0,61.0,37.0,15.0,67.0,950.059
950069.0,61.0,36.0,15.0,66.0,950.069
950079.0,61.0,36.0,14.0,62.0,950.079
950089.0,60.0,36.0,13.0,57.0,950.089
950099.0,63.0,37.0,13.0,55.0,950.099
950109.0,61.0,35.0,13.0,55.0,950.109
950119.0,62.0,35.0,15.0,59.0,950.119
950129.0,62.0,37.0,15.0,57.0,950.129
950139.0,63.0,36.0,13.0,56.0,950.139
950149.0,63.0,36.0,12.0,53.0,950.149
950159.0,62.0,36.0,13.0,51.0,950.159
950169.0,64.0,37.0,12.0,48.0,950.169
950179.0,64.0,37.0,10.0,51.0,950.179
950189.0,64.0,37.0,11.0,55.0,950.189
950199.0,62.0,37.0,11.0,55.0,950.199
950209.0,61.0,36.0,10.0,54.0,950.209
950219.0,60.0,36.0,10.0,51.0,950.219
950230.0,59.0,37.0,9.0,53.0,950.23
950240.0,60.0,35.0,9.0,54.0,950.24
950250.0,58.0,36.0,8.0,58.0,950.25
950260.0,57.0,35.0,8.0,55.0,950.26
950270.0,58.0,36.0,9.0,54.0,950.27
950280.0,56.0,35.0,9.0,54.0,950.28
950290.0,56.0,34.0,8.0,55.0,950.29
950300.0,56.0,35.0,9.0,54.0,950.3
950310.0,58.0,35.0,9.0,51.0,950.31
950320.0,58.0,35.0,7.0,52.0,950.32
950330.0,57.0,36.0,8.0,53.0,950.33
950340.0,58.0,37.0,8.0,58.0,950.34
950350.0,58.0,36.0,7.0,56.0,950.35
950360.0,58.0,35.0,7.0,57.0,950.36
950370.0,57.0,36.0,9.0,56.0,950.37
950380.0,60.0,35.0,11.0,54.0,950.38
950390.0,60.0,35.0,8.0,55.0,950.39
950400.0,62.0,35.0,8.0,56.0,950.4
950410.0,62.0,35.0,7.0,55.0,950.41
950420.0,64.0,34.0,7.0,56.0,950.42
950430.0,64.0,34.0,7.0,52.0,950.43
950440.0,63.0,34.0,7.0,50.0,950.44
950450.0,63.0,35.0,8.0,51.0,950.45
950460.0,62.0,36.0,6.0,56.0,950.46
950470.0,63.0,36.0,6.0,53.0,950.47
950480.0,61.0,36.0,7.0,59.0,950.48
950490.0,62.0,36.0,6.0,61.0,950.49
950500.0,63.0,36.0,6.0,59.0,950.5
950510.0,63.0,36.0,5.0,62.0,950.51
950520.0,65.0,35.0,6.0,59.0,950.52
950530.0,63.0,34.0,4.0,61.0,950.53
950540.0,66.0,34.0,5.0,61.0,950.54
950550.0,65.0,35.0,4.0,64.0,950.55
950560.0,67.0,35.0,6.0,64.0,950.56
950571.0,67.0,34.0,6.0,63.0,950.571
950581.0,67.0,35.0,7.0,62.0,950.581
950591.0,69.0,35.0,8.0,69.0,950.591
950601.0,68.0,36.0,6.0,70.0,950.601
950611.0,67.0,36.0,7.0,67.0,950.611
950621.0,67.0,37.0,6.0,69.0,950.621
950631.0,66.0,38.0,6.0,66.0,950.631
950641.0,66.0,38.0,5.0,65.0,950.641
950651.0,65.0,38.0,5.0,65.0,950.651
950661.0,66.0,38.0,6.0,66.0,950.661
950671.0,64.0,38.0,4.0,65.0,950.671
950681.0,63.0,38.0,5.0,63.0,950.681
950691.0,63.0,37.0,5.0,64.0,950.691
950701.0,62.0,36.0,5.0,62.0,950.701
950711.0,59.0,38.0,6.0,61.0,950.711
950721.0,58.0,36.0,5.0,61.0,950.721
950731.0,59.0,36.0,6.0,63.0,950.731
950742.0,55.0,37.0,6.0,62.0,950.742
950752.0,56.0,37.0,6.0,64.0,950.752
950762.0,55.0,37.0,6.0,63.0,950.762
950772.0,56.0,36.0,6.0,67.0,950.772
950782.0,54.0,36.0,5.0,67.0,950.782
950792.0,53.0,36.0,5.0,68.0,950.792
950802.0,55.0,36.0,6.0,65.0,950.802
950812.0,52.0,36.0,4.0,65.0,950.812
950822.0,52.0,36.0,10.0,64.0,950.822
950832.0,52.0,37.0,10.0,66.0,950.832
950842.0,51.0,37.0,14.0,64.0,950.842
950852.0,53.0,36.0,14.0,66.0,950.852
950862.0,53.0,37.0,12.0,67.0,950.862
950872.0,54.0,37.0,11.0,66.0,950.872
950882.0,54.0,38.0,10.0,63.0,950.882
950892.0,55.0,38.0,9.0,62.0,950.892
950902.0,54.0,39.0,9.0,61.0,950.902
950912.0,55.0,40.0,8.0,63.0,950.912
950922.0,55.0,39.0,8.0,63.0,950.922
950932.0,56.0,39.0,8.0,63.0,950.932
950942.0,56.0,39.0,9.0,62.0,950.942
950952.0,55.0,39.0,8.0,62.0,950.952
950962.0,56.0,39.0,9.0,63.0,950.962
950972.0,56.0,38.0,8.0,65.0,950.972
950982.0,57.0,38.0,7.0,62.0,950.982
950992.0,58.0,38.0,7.0,69.0,950.992
951002.0,57.0,38.0,7.0,73.0,951.002
951012.0,59.0,38.0,7.0,76.0,951.012
951022.0,58.0,37.0,6.0,75.0,951.022
951032.0,58.0,37.0,5.0,73.0,951.032
951042.0,59.0,37.0,5.0,75.0,951.042
951052.0,58.0,37.0,5.0,72.0,951.052
951062.0,58.0,36.0,7.0,75.0,951.062
951072.0,56.0,40.0,11.0,79.0,951.072
951083.0,58.0,39.0,11.0,78.0,951.083
951093.0,56.0,39.0,8.0,78.0,951.093
951103.0,55.0,38.0,9.0,76.0,951.103
951113.0,55.0,37.0,9.0,74.0,951.113
951123.0,54.0,36.0,8.0,71.0,951.123
951133.0,55.0,36.0,8.0,70.0,951.133
951143.0,53.0,36.0,7.0,69.0,951.143
951153.0,54.0,35.0,9.0,69.0,951.153
951163.0,53.0,36.0,7.0,66.0,951.163
951173.0,53.0,35.0,8.0,68.0,951.173
951183.0,54.0,36.0,8.0,70.0,951.183
951193.0,53.0,34.0,7.0,70.0,951.193
951203.0,53.0,34.0,8.0,66.0,951.203
951213.0,53.0,33.0,6.0,64.0,951.213
951223.0,56.0,33.0,8.0,69.0,951.223
951233.0,54.0,34.0,6.0,71.0,951.233
951243.0,55.0,33.0,6.0,68.0,951.243
951254.0,55.0,35.0,7.0,76.0,951.254
951264.0,56.0,35.0,5.0,72.0,951.264
951274.0,56.0,35.0,6.0,74.0,951.274
951284.0,55.0,35.0,6.0,76.0,951.284
951294.0,56.0,35.0,7.0,73.0,951.294
951304.0,54.0,36.0,6.0,75.0,951.304
951314.0,55.0,36.0,7.0,72.0,951.314
951324.0,53.0,36.0,6.0,73.0,951.324
951334.0,53.0,36.0,7.0,68.0,951.334
951344.0,52.0,34.0,6.0,68.0,951.344
951354.0,53.0,35.0,5.0,66.0,951.354
951364.0,54.0,34.0,7.0,63.0,951.364
951374.0,52.0,35.0,10.0,61.0,951.374
951384.0,53.0,35.0,11.0,58.0,951.384
951394.0,54.0,36.0,10.0,57.0,951.394
951404.0,54.0,36.0,9.0,59.0,951.404
951414.0,55.0,36.0,8.0,55.0,951.414
951424.0,56.0,36.0,7.0,57.0,951.424
951434.0,57.0,35.0,8.0,57.0,951.434
951444.0,56.0,35.0,6.0,58.0,951.444
951454.0,57.0,34.0,6.0,56.0,951.454
951464.0,57.0,35.0,6.0,61.0,951.464
951474.0,56.0,35.0,6.0,60.0,951.474
951484.0,56.0,35.0,6.0,59.0,951.484
951494.0,54.0,36.0,7.0,61.0,951.494
951504.0,56.0,35.0,8.0,64.0,951.504
951514.0,54.0,36.0,6.0,64.0,951.514
951524.0,53.0,35.0,6.0,61.0,951.524
951534.0,51.0,35.0,11.0,61.0,951.534
951544.0,52.0,36.0,9.0,62.0,951.544
951554.0,51.0,36.0,9.0,62.0,951.554
951564.0,51.0,36.0,9.0,68.0,951.564
951574.0,52.0,36.0,11.0,66.0,951.574
951584.0,51.0,37.0,8.0,64.0,951.584
951595.0,51.0,36.0,10.0,65.0,951.595
951605.0,50.0,36.0,9.0,66.0,951.605
951615.0,50.0,36.0,9.0,66.0,951.615
951625.0,49.0,37.0,9.0,63.0,951.625
951635.0,50.0,36.0,8.0,62.0,951.635
951645.0,52.0,36.0,9.0,63.0,951.645
951655.0,52.0,36.0,7.0,68.0,951.655
951665.0,53.0,35.0,7.0,69.0,951.665
951675.0,52.0,36.0,7.0,67.0,951.675
951685.0,52.0,36.0,7.0,63.0,951.685
951695.0,51.0,34.0,8.0,62.0,951.695
951705.0,51.0,35.0,7.0,63.0,951.705
951715.0,52.0,35.0,10.0,64.0,951.715
951725.0,52.0,36.0,9.0,72.0,951.725
951735.0,53.0,35.0,9.0,78.0,951.735
951745.0,52.0,36.0,8.0,74.0,951.745
951755.0,53.0,37.0,7.0,71.0,951.755
951766.0,53.0,36.0,8.0,71.0,951.766
951776.0,53.0,35.0,7.0,68.0,951.776
951786.0,55.0,35.0,9.0,71.0,951.786
951796.0,54.0,35.0,7.0,71.0,951.796
951806.0,55.0,36.0,7.0,68.0,951.806
951816.0,56.0,36.0,10.0,68.0,951.816
951826.0,54.0,36.0,13.0,65.0,951.826
951836.0,54.0,34.0,13.0,66.0,951.836
951846.0,54.0,35.0,12.0,66.0,951.846
951856.0,54.0,34.0,12.0,62.0,951.856
951866.0,55.0,36.0,10.0,67.0,951.866
951876.0,57.0,36.0,10.0,62.0,951.876
951886.0,57.0,37.0,10.0,62.0,951.886
951896.0,56.0,36.0,8.0,59.0,951.896
951906.0,59.0,35.0,8.0,54.0,951.906
951916.0,57.0,35.0,7.0,53.0,951.916
951926.0,59.0,35.0,8.0,53.0,951.926
951936.0,58.0,36.0,7.0,54.0,951.936
951946.0,59.0,37.0,7.0,54.0,951.946
951956.0,60.0,40.0,7.0,57.0,951.956
951966.0,59.0,41.0,6.0,55.0,951.966
951976.0,58.0,39.0,6.0,55.0,951.976
