time (ms),signal 0,signal 1,signal 2,signal3,time (sec)
988698.0,64.0,46.0,30.0,57.0,988.698
988708.0,64.0,47.0,27.0,57.0,988.708
988718.0,63.0,46.0,27.0,55.0,988.718
988728.0,64.0,46.0,25.0,56.0,988.728
988738.0,63.0,46.0,22.0,58.0,988.738
988748.0,63.0,46.0,21.0,53.0,988.748
988758.0,61.0,47.0,22.0,62.0,988.758
988768.0,61.0,49.0,31.0,67.0,988.768
988778.0,62.0,48.0,37.0,69.0,988.778
988788.0,63.0,46.0,33.0,66.0,988.788
988798.0,62.0,46.0,30.0,62.0,988.798
988808.0,61.0,45.0,27.0,60.0,988.808
988818.0,62.0,43.0,26.0,63.0,988.818
988828.0,60.0,44.0,25.0,66.0,988.828
988838.0,60.0,41.0,23.0,65.0,988.838
988848.0,61.0,41.0,21.0,63.0,988.848
988858.0,61.0,40.0,21.0,60.0,988.858
988868.0,61.0,39.0,24.0,59.0,988.868
988878.0,60.0,39.0,33.0,58.0,988.878
988888.0,62.0,39.0,29.0,61.0,988.888
988898.0,61.0,38.0,26.0,61.0,988.898
988908.0,64.0,37.0,24.0,58.0,988.908
988918.0,65.0,38.0,22.0,57.0,988.918
988928.0,65.0,39.0,36.0,58.0,988.928
988938.0,66.0,38.0,32.0,58.0,988.938
988948.0,65.0,39.0,28.0,59.0,988.948
988958.0,66.0,39.0,25.0,58.0,988.958
988968.0,65.0,39.0,23.0,55.0,988.968
988978.0,67.0,37.0,24.0,57.0,988.978
988988.0,68.0,38.0,21.0,58.0,988.988
988998.0,68.0,38.0,19.0,54.0,988.998
989008.0,69.0,39.0,17.0,53.0,989.008
989018.0,68.0,43.0,27.0,54.0,989.018
989028.0,68.0,45.0,28.0,53.0,989.028
989038.0,68.0,44.0,24.0,54.0,989.038
989048.0,68.0,45.0,24.0,49.0,989.048
989058.0,67.0,46.0,23.0,50.0,989.058
989068.0,67.0,46.0,21.0,50.0,989.068
989078.0,66.0,48.0,20.0,49.0,989.078
989088.0,67.0,50.0,17.0,51.0,989.088
989099.0,66.0,50.0,21.0,56.0,989.099
989109.0,66.0,49.0,22.0,52.0,989.109
989119.0,67.0,48.0,19.0,52.0,989.119
989129.0,66.0,49.0,18.0,51.0,989.129
989139.0,66.0,48.0,16.0,48.0,989.139
989149.0,64.0,50.0,19.0,48.0,989.149
989159.0,64.0,48.0,29.0,52.0,989.159
989169.0,63.0,48.0,26.0,52.0,989.169
989179.0,62.0,47.0,22.0,52.0,989.179
989189.0,62.0,46.0,21.0,50.0,989.189
989199.0,61.0,45.0,19.0,53.0,989.199
989209.0,60.0,44.0,19.0,50.0,989.209
989219.0,61.0,44.0,17.0,50.0,989.219
989229.0,61.0,43.0,16.0,50.0,989.229
989239.0,62.0,43.0,16.0,49.0,989.239
989249.0,63.0,44.0,14.0,49.0,989.249
989259.0,62.0,45.0,27.0,53.0,989.259
989270.0,65.0,45.0,31.0,56.0,989.27
989280.0,65.0,44.0,28.0,52.0,989.28
989290.0,65.0,45.0,26.0,55.0,989.29
989300.0,64.0,45.0,24.0,55.0,989.3
989310.0,65.0,43.0,21.0,55.0,989.31
989320.0,64.0,43.0,19.0,56.0,989.32
989330.0,63.0,44.0,17.0,56.0,989.33
989340.0,63.0,46.0,19.0,61.0,989.34
989350.0,64.0,47.0,31.0,59.0,989.35
989360.0,63.0,47.0,27.0,58.0,989.36
989370.0,63.0,47.0,31.0,59.0,989.37
989380.0,64.0,46.0,31.0,57.0,989.38
989390.0,64.0,46.0,26.0,58.0,989.39
989400.0,65.0,47.0,25.0,56.0,989.4
989410.0,64.0,47.0,22.0,56.0,989.41
989420.0,65.0,47.0,22.0,65.0,989.42
989430.0,66.0,47.0,20.0,63.0,989.43
989440.0,65.0,51.0,26.0,65.0,989.44
989450.0,67.0,48.0,26.0,61.0,989.45
989460.0,67.0,49.0,22.0,60.0,989.46
989470.0,67.0,49.0,20.0,60.0,989.47
989480.0,66.0,53.0,18.0,57.0,989.48
989490.0,65.0,53.0,16.0,56.0,989.49
989500.0,64.0,53.0,15.0,52.0,989.5
989510.0,62.0,56.0,15.0,53.0,989.51
989520.0,61.0,54.0,15.0,55.0,989.52
989530.0,59.0,54.0,13.0,54.0,989.53
989540.0,59.0,53.0,12.0,53.0,989.54
989550.0,58.0,57.0,11.0,50.0,989.55
989560.0,57.0,56.0,10.0,46.0,989.56
989570.0,57.0,56.0,13.0,47.0,989.57
989580.0,57.0,59.0,29.0,45.0,989.58
989590.0,60.0,57.0,28.0,48.0,989.59
989600.0,62.0,55.0,26.0,49.0,989.6
989611.0,62.0,55.0,24.0,57.0,989.611
989621.0,63.0,53.0,21.0,57.0,989.621
989631.0,63.0,52.0,20.0,54.0,989.631
989641.0,62.0,51.0,17.0,66.0,989.641
989651.0,63.0,50.0,24.0,76.0,989.651
989661.0,62.0,48.0,22.0,84.0,989.661
989671.0,64.0,48.0,18.0,84.0,989.671
989681.0,66.0,46.0,18.0,81.0,989.681
989691.0,65.0,47.0,29.0,83.0,989.691
989701.0,67.0,45.0,30.0,82.0,989.701
989711.0,68.0,44.0,25.0,78.0,989.711
989721.0,68.0,44.0,22.0,74.0,989.721
989731.0,68.0,45.0,21.0,71.0,989.731
989741.0,65.0,45.0,17.0,76.0,989.741
989751.0,65.0,45.0,17.0,87.0,989.751
989761.0,65.0,44.0,19.0,95.0,989.761
989771.0,64.0,47.0,30.0,94.0,989.771
989782.0,63.0,45.0,29.0,90.0,989.782
989792.0,61.0,46.0,28.0,92.0,989.792
989802.0,63.0,45.0,31.0,89.0,989.802
989812.0,62.0,45.0,27.0,81.0,989.812
989822.0,63.0,45.0,24.0,80.0,989.822
989832.0,62.0,46.0,22.0,81.0,989.832
989842.0,63.0,45.0,20.0,76.0,989.842
989852.0,63.0,44.0,17.0,73.0,989.852
989862.0,61.0,43.0,15.0,77.0,989.862
989872.0,62.0,42.0,18.0,78.0,989.872
989882.0,62.0,44.0,22.0,87.0,989.882
989892.0,61.0,41.0,18.0,83.0,989.892
989902.0,61.0,41.0,16.0,84.0,989.902
989912.0,61.0,40.0,17.0,77.0,989.912
989922.0,63.0,39.0,15.0,73.0,989.922
989932.0,64.0,38.0,14.0,69.0,989.932
989942.0,66.0,39.0,15.0,75.0,989.942
989952.0,66.0,38.0,15.0,76.0,989.952
989962.0,67.0,40.0,17.0,73.0,989.962
989972.0,67.0,41.0,26.0,70.0,989.972
989982.0,67.0,40.0,23.0,70.0,989.982
989992.0,67.0,40.0,21.0,73.0,989.992
990002.0,64.0,42.0,21.0,72.0,990.002
990012.0,65.0,41.0,24.0,79.0,990.012
990022.0,62.0,40.0,20.0,79.0,990.022
990032.0,61.0,38.0,19.0,75.0,990.032
990042.0,63.0,38.0,18.0,74.0,990.042
990052.0,61.0,38.0,19.0,69.0,990.052
990062.0,58.0,38.0,18.0,63.0,990.062
990072.0,57.0,38.0,17.0,61.0,990.072
990082.0,57.0,38.0,26.0,72.0,990.082
990092.0,58.0,38.0,22.0,77.0,990.092
990102.0,58.0,37.0,20.0,76.0,990.102
990112.0,55.0,37.0,18.0,80.0,990.112
990123.0,54.0,36.0,16.0,78.0,990.123
990133.0,53.0,35.0,17.0,76.0,990.133
990143.0,52.0,36.0,16.0,71.0,990.143
990153.0,52.0,35.0,15.0,70.0,990.153
990163.0,50.0,36.0,16.0,68.0,990.163
990173.0,52.0,35.0,15.0,69.0,990.173
990183.0,51.0,35.0,13.0,68.0,990.183
990193.0,50.0,38.0,25.0,68.0,990.193
990203.0,52.0,36.0,22.0,67.0,990.203
990213.0,51.0,37.0,19.0,72.0,990.213
990223.0,53.0,39.0,21.0,73.0,990.223
990233.0,53.0,39.0,18.0,74.0,990.233
990243.0,51.0,41.0,18.0,81.0,990.243
990253.0,51.0,42.0,17.0,80.0,990.253
990263.0,50.0,43.0,16.0,76.0,990.263
990273.0,49.0,42.0,16.0,75.0,990.273
990283.0,49.0,44.0,21.0,72.0,990.283
990294.0,49.0,42.0,20.0,67.0,990.294
990304.0,47.0,43.0,18.0,67.0,990.304
990314.0,48.0,43.0,16.0,64.0,990.314
990324.0,47.0,44.0,16.0,66.0,990.324
990334.0,47.0,45.0,15.0,71.0,990.334
990344.0,47.0,43.0,16.0,73.0,990.344
990354.0,47.0,42.0,15.0,74.0,990.354
990364.0,49.0,42.0,14.0,68.0,990.364
990374.0,46.0,42.0,12.0,72.0,990.374
990384.0,47.0,41.0,12.0,67.0,990.384
990394.0,46.0,41.0,10.0,69.0,990.394
990404.0,46.0,40.0,11.0,66.0,990.404
990414.0,45.0,39.0,12.0,64.0,990.414
990424.0,46.0,42.0,27.0,64.0,990.424
990434.0,47.0,40.0,25.0,61.0,990.434
990444.0,46.0,40.0,22.0,68.0,990.444
990454.0,48.0,38.0,20.0,67.0,990.454
990464.0,49.0,38.0,18.0,64.0,990.464
990474.0,51.0,38.0,17.0,64.0,990.474
990484.0,51.0,37.0,15.0,62.0,990.484
990494.0,51.0,39.0,19.0,58.0,990.494
990504.0,53.0,38.0,26.0,55.0,990.504
990514.0,53.0,38.0,25.0,58.0,990.514
990524.0,53.0,38.0,22.0,57.0,990.524
990534.0,54.0,41.0,35.0,60.0,990.534
990544.0,53.0,40.0,31.0,55.0,990.544
990554.0,53.0,39.0,28.0,57.0,990.554
990564.0,51.0,39.0,25.0,54.0,990.564
990574.0,51.0,38.0,25.0,54.0,990.574
990584.0,48.0,38.0,20.0,55.0,990.584
990594.0,47.0,37.0,21.0,55.0,990.594
990604.0,46.0,37.0,18.0,53.0,990.604
990614.0,45.0,36.0,19.0,56.0,990.614
990624.0,45.0,37.0,20.0,57.0,990.624
990635.0,44.0,36.0,20.0,60.0,990.635
990645.0,47.0,37.0,23.0,59.0,990.645
990655.0,46.0,37.0,22.0,63.0,990.655
990665.0,47.0,40.0,25.0,61.0,990.665
990675.0,46.0,40.0,22.0,65.0,990.675
990685.0,47.0,41.0,21.0,64.0,990.685
990695.0,48.0,40.0,19.0,65.0,990.695
990705.0,47.0,41.0,17.0,63.0,990.705
990715.0,49.0,40.0,18.0,65.0,990.715
990725.0,49.0,39.0,16.0,64.0,990.725
990735.0,48.0,39.0,15.0,69.0,990.735
990745.0,51.0,39.0,14.0,68.0,990.745
990755.0,51.0,38.0,13.0,66.0,990.755
990765.0,53.0,36.0,12.0,64.0,990.765
990775.0,52.0,38.0,17.0,62.0,990.775
990785.0,53.0,38.0,20.0,61.0,990.785
990795.0,53.0,38.0,20.0,59.0,990.795
990806.0,53.0,38.0,18.0,60.0,990.806
990816.0,53.0,38.0,16.0,57.0,990.816
990826.0,53.0,38.0,15.0,55.0,990.826
990836.0,54.0,38.0,15.0,51.0,990.836
990846.0,53.0,37.0,13.0,50.0,990.846
990856.0,53.0,36.0,15.0,48.0,990.856
990866.0,54.0,37.0,14.0,53.0,990.866
990876.0,55.0,37.0,12.0,52.0,990.876
990886.0,58.0,38.0,14.0,77.0,990.886
990896.0,59.0,38.0,13.0,77.0,990.896
990906.0,60.0,39.0,17.0,76.0,990.906
990916.0,63.0,39.0,15.0,73.0,990.916
990926.0,64.0,39.0,18.0,69.0,990.926
990936.0,64.0,38.0,17.0,70.0,990.936
990946.0,65.0,38.0,16.0,68.0,990.946
990956.0,67.0,39.0,14.0,67.0,990.956
990966.0,67.0,38.0,16.0,77.0,990.966
990976.0,67.0,39.0,18.0,77.0,990.976
990986.0,65.0,40.0,29.0,78.0,990.986
990996.0,67.0,39.0,26.0,75.0,990.996
991006.0,64.0,40.0,22.0,74.0,991.006
991016.0,63.0,39.0,20.0,71.0,991.016
991026.0,63.0,38.0,18.0,67.0,991.026
991036.0,63.0,38.0,17.0,67.0,991.036
991046.0,63.0,36.0,15.0,64.0,991.046
991056.0,61.0,38.0,14.0,69.0,991.056
991066.0,64.0,38.0,17.0,68.0,991.066
991076.0,64.0,41.0,28.0,71.0,991.076
991086.0,64.0,40.0,25.0,71.0,991.086
991096.0,64.0,39.0,26.0,71.0,991.096
991106.0,63.0,38.0,23.0,77.0,991.106
991116.0,65.0,38.0,20.0,72.0,991.116
991126.0,64.0,38.0,20.0,76.0,991.126
991136.0,66.0,38.0,19.0,73.0,991.136
991147.0,67.0,37.0,18.0,71.0,991.147
991157.0,68.0,38.0,17.0,69.0,991.157
991167.0,68.0,39.0,26.0,71.0,991.167
991177.0,67.0,38.0,26.0,74.0,991.177
991187.0,67.0,36.0,23.0,70.0,991.187
991197.0,67.0,38.0,21.0,72.0,991.197
991207.0,67.0,37.0,20.0,75.0,991.207
991217.0,66.0,37.0,18.0,83.0,991.217
991227.0,63.0,36.0,19.0,80.0,991.227
991237.0,65.0,37.0,18.0,79.0,991.237
991247.0,66.0,38.0,19.0,84.0,991.247
991257.0,66.0,38.0,18.0,86.0,991.257
991267.0,66.0,39.0,16.0,84.0,991.267
991277.0,67.0,38.0,16.0,84.0,991.277
991287.0,68.0,39.0,16.0,90.0,991.287
991297.0,68.0,39.0,19.0,90.0,991.297
991307.0,68.0,39.0,22.0,91.0,991.307
991318.0,67.0,40.0,24.0,84.0,991.318
991328.0,67.0,40.0,30.0,82.0,991.328
991338.0,65.0,41.0,27.0,79.0,991.338
991348.0,67.0,40.0,23.0,72.0,991.348
991358.0,63.0,40.0,22.0,74.0,991.358
991368.0,63.0,40.0,22.0,78.0,991.368
991378.0,64.0,41.0,19.0,81.0,991.378
991388.0,64.0,41.0,19.0,77.0,991.388
991398.0,64.0,42.0,23.0,78.0,991.398
991408.0,64.0,43.0,30.0,77.0,991.408
991418.0,63.0,41.0,32.0,80.0,991.418
991428.0,65.0,43.0,28.0,77.0,991.428
991438.0,63.0,42.0,24.0,89.0,991.438
991448.0,63.0,41.0,23.0,88.0,991.448
991458.0,61.0,40.0,19.0,83.0,991.458
991468.0,60.0,39.0,21.0,82.0,991.468
991478.0,60.0,38.0,17.0,87.0,991.478
991488.0,60.0,37.0,16.0,96.0,991.488
991498.0,59.0,39.0,26.0,93.0,991.498
991508.0,58.0,38.0,25.0,91.0,991.508
991518.0,59.0,37.0,27.0,92.0,991.518
991528.0,59.0,38.0,23.0,89.0,991.528
991538.0,58.0,37.0,21.0,91.0,991.538
991548.0,56.0,37.0,20.0,89.0,991.548
991558.0,58.0,38.0,21.0,88.0,991.558
991568.0,58.0,39.0,24.0,91.0,991.568
991578.0,57.0,38.0,22.0,93.0,991.578
991588.0,58.0,37.0,19.0,91.0,991.588
991598.0,59.0,38.0,17.0,99.0,991.598
991608.0,58.0,36.0,21.0,98.0,991.608
991618.0,56.0,44.0,37.0,99.0,991.618
991628.0,57.0,49.0,33.0,101.0,991.628
991638.0,56.0,48.0,29.0,99.0,991.638
991648.0,55.0,58.0,28.0,94.0,991.648
991659.0,57.0,65.0,25.0,92.0,991.659
991669.0,56.0,67.0,22.0,101.0,991.669
991679.0,55.0,65.0,20.0,102.0,991.679
991689.0,53.0,67.0,17.0,105.0,991.689
991699.0,53.0,66.0,16.0,110.0,991.699
991709.0,51.0,65.0,14.0,101.0,991.709
991719.0,52.0,64.0,14.0,100.0,991.719
991729.0,51.0,61.0,12.0,97.0,991.729
991739.0,51.0,62.0,13.0,92.0,991.739
991749.0,52.0,61.0,12.0,88.0,991.749
991759.0,53.0,66.0,12.0,82.0,991.759
991769.0,56.0,103.0,33.0,91.0,991.769
991779.0,58.0,104.0,32.0,85.0,991.779
991789.0,58.0,125.0,36.0,79.0,991.789
991799.0,63.0,157.0,41.0,86.0,991.799
991809.0,70.0,144.0,38.0,86.0,991.809
991819.0,67.0,147.0,34.0,89.0,991.819
991830.0,66.0,166.0,41.0,101.0,991.83
991840.0,70.0,238.0,58.0,96.0,991.84
991850.0,72.0,269.0,50.0,104.0,991.85
991860.0,86.0,332.0,70.0,103.0,991.86
991870.0,84.0,302.0,64.0,103.0,991.87
991880.0,87.0,279.0,55.0,99.0,991.88
991890.0,86.0,260.0,54.0,96.0,991.89
991900.0,91.0,319.0,68.0,95.0,991.9
991910.0,93.0,321.0,68.0,100.0,991.91
991920.0,92.0,301.0,59.0,100.0,991.92
991930.0,102.0,346.0,64.0,104.0,991.93
991940.0,102.0,343.0,65.0,109.0,991.94
991950.0,94.0,334.0,59.0,113.0,991.95
991960.0,89.0,342.0,54.0,109.0,991.96
991970.0,83.0,346.0,73.0,116.0,991.97
991980.0,83.0,357.0,77.0,148.0,991.98
991990.0,82.0,376.0,84.0,141.0,991.99
992000.0,89.0,382.0,79.0,148.0,992.0
992010.0,93.0,347.0,84.0,152.0,992.01
992020.0,89.0,340.0,77.0,164.0,992.02
992030.0,86.0,342.0,70.0,153.0,992.03
992040.0,88.0,336.0,65.0,154.0,992.04
992050.0,91.0,349.0,70.0,152.0,992.05
992060.0,93.0,338.0,70.0,162.0,992.06
992070.0,90.0,347.0,72.0,162.0,992.07
992080.0,87.0,328.0,78.0,159.0,992.08
992090.0,84.0,315.0,71.0,151.0,992.09
992100.0,80.0,306.0,62.0,134.0,992.1
992110.0,79.0,317.0,70.0,122.0,992.11
992120.0,83.0,304.0,65.0,134.0,992.12
992130.0,87.0,292.0,58.0,136.0,992.13
992140.0,86.0,290.0,54.0,140.0,992.14
992150.0,97.0,306.0,51.0,136.0,992.15
992160.0,94.0,289.0,54.0,134.0,992.16
992171.0,87.0,279.0,53.0,122.0,992.171
992181.0,83.0,274.0,48.0,126.0,992.181
992191.0,78.0,273.0,42.0,119.0,992.191
992201.0,76.0,272.0,50.0,130.0,992.201
992211.0,74.0,258.0,44.0,136.0,992.211
992221.0,75.0,257.0,44.0,128.0,992.221
992231.0,77.0,257.0,42.0,124.0,992.231
992241.0,74.0,265.0,40.0,120.0,992.241
992251.0,71.0,243.0,36.0,110.0,992.251
992261.0,71.0,252.0,57.0,112.0,992.261
992271.0,71.0,247.0,52.0,107.0,992.271
992281.0,70.0,235.0,51.0,103.0,992.281
992291.0,71.0,229.0,49.0,107.0,992.291
992301.0,68.0,224.0,52.0,106.0,992.301
992311.0,65.0,218.0,45.0,100.0,992.311
992321.0,63.0,217.0,39.0,98.0,992.321
992331.0,59.0,212.0,40.0,102.0,992.331
992342.0,58.0,208.0,35.0,103.0,992.342
992352.0,61.0,214.0,31.0,117.0,992.352
992362.0,60.0,213.0,29.0,129.0,992.362
992372.0,59.0,204.0,27.0,119.0,992.372
992382.0,60.0,212.0,27.0,110.0,992.382
992392.0,59.0,205.0,24.0,108.0,992.392
992402.0,60.0,204.0,44.0,101.0,992.402
992412.0,59.0,202.0,48.0,105.0,992.412
992422.0,60.0,196.0,42.0,110.0,992.422
992432.0,61.0,194.0,37.0,109.0,992.432
992442.0,57.0,192.0,32.0,105.0,992.442
992452.0,57.0,188.0,28.0,102.0,992.452
992462.0,56.0,189.0,31.0,99.0,992.462
992472.0,55.0,183.0,28.0,91.0,992.472
992482.0,56.0,185.0,27.0,99.0,992.482
992492.0,60.0,188.0,30.0,98.0,992.492
992502.0,60.0,181.0,27.0,91.0,992.502
992512.0,65.0,191.0,46.0,91.0,992.512
992522.0,68.0,192.0,42.0,88.0,992.522
992532.0,69.0,188.0,36.0,86.0,992.532
992542.0,66.0,182.0,35.0,83.0,992.542
992552.0,65.0,175.0,31.0,78.0,992.552
992562.0,66.0,176.0,30.0,93.0,992.562
992572.0,65.0,171.0,27.0,101.0,992.572
992582.0,65.0,177.0,23.0,94.0,992.582
992592.0,63.0,173.0,20.0,109.0,992.592
992602.0,63.0,165.0,21.0,110.0,992.602
992612.0,62.0,165.0,20.0,106.0,992.612
992622.0,65.0,166.0,21.0,102.0,992.622
992632.0,64.0,189.0,20.0,95.0,992.632
992642.0,66.0,177.0,18.0,96.0,992.642
992652.0,64.0,172.0,20.0,108.0,992.652
992662.0,67.0,174.0,19.0,99.0,992.662
992672.0,64.0,165.0,17.0,97.0,992.672
992683.0,61.0,160.0,16.0,90.0,992.683
992693.0,60.0,159.0,16.0,92.0,992.693
992703.0,59.0,161.0,15.0,98.0,992.703
992713.0,59.0,155.0,14.0,89.0,992.713
992723.0,58.0,159.0,12.0,92.0,992.723
992733.0,58.0,164.0,12.0,88.0,992.733
992743.0,59.0,156.0,11.0,84.0,992.743
992753.0,60.0,167.0,15.0,94.0,992.753
992763.0,59.0,166.0,16.0,99.0,992.763
992773.0,61.0,160.0,15.0,100.0,992.773
992783.0,60.0,156.0,13.0,91.0,992.783
992793.0,58.0,153.0,12.0,94.0,992.793
992803.0,57.0,148.0,10.0,94.0,992.803
992813.0,58.0,148.0,11.0,96.0,992.813
992823.0,57.0,150.0,11.0,99.0,992.823
992833.0,58.0,147.0,10.0,102.0,992.833
992843.0,56.0,144.0,14.0,111.0,992.843
992854.0,58.0,157.0,21.0,127.0,992.854
992864.0,59.0,154.0,19.0,132.0,992.864
992874.0,58.0,147.0,18.0,122.0,992.874
992884.0,57.0,142.0,16.0,122.0,992.884
992894.0,57.0,139.0,14.0,116.0,992.894
992904.0,57.0,134.0,14.0,121.0,992.904
992914.0,55.0,137.0,13.0,121.0,992.914
992924.0,60.0,134.0,14.0,113.0,992.924
992934.0,63.0,138.0,16.0,117.0,992.934
992944.0,63.0,136.0,14.0,113.0,992.944
992954.0,61.0,134.0,14.0,121.0,992.954
992964.0,60.0,130.0,13.0,129.0,992.964
992974.0,60.0,126.0,14.0,127.0,992.974
992984.0,57.0,125.0,12.0,124.0,992.984
992994.0,59.0,131.0,11.0,123.0,992.994
993004.0,61.0,137.0,10.0,116.0,993.004
993014.0,64.0,131.0,9.0,109.0,993.014
993024.0,63.0,131.0,8.0,117.0,993.024
993034.0,61.0,129.0,9.0,114.0,993.034
993044.0,62.0,125.0,11.0,110.0,993.044
993054.0,58.0,125.0,11.0,111.0,993.054
993064.0,59.0,127.0,10.0,106.0,993.064
993074.0,60.0,122.0,8.0,100.0,993.074
993084.0,60.0,125.0,8.0,100.0,993.084
993094.0,58.0,126.0,9.0,96.0,993.094
993104.0,57.0,124.0,8.0,101.0,993.104
993114.0,58.0,123.0,8.0,106.0,993.114
993124.0,55.0,119.0,7.0,101.0,993.124
993134.0,54.0,121.0,7.0,101.0,993.134
993144.0,53.0,127.0,8.0,96.0,993.144
993154.0,54.0,120.0,8.0,98.0,993.154
993164.0,56.0,122.0,9.0,105.0,993.164
993174.0,60.0,123.0,12.0,101.0,993.174
993184.0,60.0,118.0,16.0,109.0,993.184
993195.0,58.0,114.0,14.0,104.0,993.195
993205.0,59.0,117.0,12.0,96.0,993.205
993215.0,57.0,117.0,12.0,94.0,993.215
993225.0,56.0,118.0,11.0,108.0,993.225
993235.0,56.0,118.0,11.0,108.0,993.235
993245.0,55.0,114.0,10.0,105.0,993.245
993255.0,57.0,110.0,9.0,109.0,993.255
993265.0,55.0,109.0,8.0,104.0,993.265
993275.0,57.0,115.0,11.0,105.0,993.275
993285.0,58.0,110.0,10.0,106.0,993.285
993295.0,56.0,106.0,11.0,109.0,993.295
993305.0,55.0,106.0,11.0,100.0,993.305
993315.0,53.0,104.0,11.0,99.0,993.315
993325.0,54.0,105.0,9.0,94.0,993.325
993335.0,52.0,106.0,8.0,96.0,993.335
993345.0,53.0,105.0,9.0,91.0,993.345
993355.0,53.0,114.0,10.0,98.0,993.355
993366.0,54.0,105.0,10.0,92.0,993.366
993376.0,55.0,108.0,9.0,89.0,993.376
993386.0,55.0,108.0,11.0,88.0,993.386
993396.0,55.0,106.0,10.0,90.0,993.396
993406.0,56.0,101.0,10.0,91.0,993.406
993416.0,54.0,98.0,9.0,86.0,993.416
993426.0,53.0,98.0,9.0,89.0,993.426
993436.0,51.0,100.0,8.0,95.0,993.436
993446.0,53.0,97.0,7.0,92.0,993.446
993456.0,52.0,99.0,7.0,88.0,993.456
993466.0,53.0,95.0,7.0,87.0,993.466
993476.0,53.0,93.0,6.0,94.0,993.476
993486.0,51.0,100.0,6.0,99.0,993.486
993496.0,52.0,100.0,6.0,93.0,993.496
993506.0,51.0,95.0,7.0,84.0,993.506
993516.0,54.0,107.0,7.0,79.0,993.516
993526.0,55.0,104.0,8.0,76.0,993.526
993536.0,55.0,106.0,7.0,74.0,993.536
993546.0,55.0,104.0,6.0,71.0,993.546
993556.0,55.0,110.0,6.0,73.0,993.556
993566.0,57.0,106.0,6.0,71.0,993.566
993576.0,57.0,108.0,9.0,76.0,993.576
993586.0,56.0,116.0,8.0,74.0,993.586
993596.0,57.0,112.0,8.0,82.0,993.596
993606.0,58.0,110.0,10.0,82.0,993.606
993616.0,59.0,113.0,9.0,87.0,993.616
993626.0,60.0,108.0,8.0,96.0,993.626
993636.0,59.0,117.0,11.0,102.0,993.636
993646.0,59.0,108.0,11.0,100.0,993.646
993656.0,59.0,106.0,10.0,101.0,993.656
993666.0,57.0,106.0,10.0,99.0,993.666
993676.0,58.0,108.0,9.0,103.0,993.676
993686.0,57.0,110.0,9.0,102.0,993.686
993696.0,60.0,105.0,9.0,113.0,993.696
993707.0,59.0,112.0,8.0,118.0,993.707
993717.0,61.0,116.0,10.0,117.0,993.717
993727.0,62.0,113.0,9.0,110.0,993.727
993737.0,61.0,109.0,9.0,104.0,993.737
993747.0,64.0,109.0,10.0,102.0,993.747
993757.0,63.0,106.0,10.0,101.0,993.757
993767.0,64.0,101.0,9.0,105.0,993.767
993777.0,64.0,105.0,8.0,107.0,993.777
993787.0,64.0,103.0,9.0,101.0,993.787
993797.0,63.0,100.0,8.0,98.0,993.797
993807.0,61.0,103.0,7.0,97.0,993.807
993817.0,62.0,99.0,7.0,99.0,993.817
993827.0,62.0,106.0,6.0,95.0,993.827
993837.0,61.0,103.0,7.0,92.0,993.837
993847.0,62.0,104.0,6.0,101.0,993.847
993857.0,61.0,100.0,7.0,102.0,993.857
993867.0,60.0,98.0,8.0,100.0,993.867
993878.0,60.0,104.0,8.0,104.0,993.878
993888.0,60.0,96.0,7.0,104.0,993.888
993898.0,58.0,98.0,6.0,100.0,993.898
993908.0,58.0,100.0,6.0,95.0,993.908
993918.0,62.0,99.0,7.0,89.0,993.918
993928.0,62.0,97.0,6.0,83.0,993.928
993938.0,62.0,97.0,5.0,76.0,993.938
993948.0,61.0,96.0,7.0,75.0,993.948
993958.0,61.0,97.0,8.0,85.0,993.958
993968.0,60.0,106.0,6.0,85.0,993.968
993978.0,64.0,102.0,7.0,77.0,993.978
993988.0,65.0,98.0,6.0,85.0,993.988
993998.0,65.0,96.0,6.0,87.0,993.998
994008.0,64.0,96.0,7.0,82.0,994.008
994018.0,64.0,95.0,9.0,80.0,994.018
994028.0,65.0,91.0,8.0,78.0,994.028
994038.0,64.0,95.0,8.0,85.0,994.038
994048.0,63.0,96.0,8.0,79.0,994.048
994058.0,64.0,94.0,9.0,81.0,994.058
994068.0,64.0,94.0,9.0,81.0,994.068
994078.0,65.0,91.0,10.0,83.0,994.078
994088.0,63.0,89.0,8.0,80.0,994.088
994098.0,64.0,86.0,9.0,77.0,994.098
994108.0,62.0,81.0,10.0,76.0,994.108
994118.0,60.0,81.0,10.0,81.0,994.118
994128.0,61.0,81.0,10.0,100.0,994.128
994138.0,60.0,84.0,10.0,102.0,994.138
994148.0,61.0,88.0,12.0,101.0,994.148
994158.0,64.0,83.0,11.0,95.0,994.158
994168.0,65.0,78.0,11.0,88.0,994.168
994178.0,63.0,75.0,10.0,82.0,994.178
994188.0,63.0,72.0,10.0,76.0,994.188
994198.0,65.0,69.0,13.0,74.0,994.198
994208.0,65.0,67.0,16.0,75.0,994.208
994219.0,65.0,65.0,16.0,74.0,994.219
994229.0,65.0,63.0,15.0,69.0,994.229
994239.0,68.0,61.0,18.0,82.0,994.239
994249.0,66.0,60.0,17.0,81.0,994.249
994259.0,70.0,57.0,20.0,81.0,994.259
994269.0,71.0,55.0,24.0,79.0,994.269
994279.0,73.0,56.0,24.0,84.0,994.279
994289.0,75.0,54.0,27.0,82.0,994.289
994299.0,76.0,54.0,26.0,90.0,994.299
994309.0,76.0,58.0,40.0,94.0,994.309
994319.0,80.0,66.0,38.0,96.0,994.319
994329.0,82.0,68.0,48.0,97.0,994.329
994339.0,87.0,72.0,46.0,103.0,994.339
994349.0,89.0,85.0,53.0,106.0,994.349
994359.0,92.0,97.0,55.0,113.0,994.359
994369.0,93.0,110.0,65.0,123.0,994.369
994379.0,99.0,127.0,70.0,163.0,994.379
994390.0,110.0,148.0,76.0,210.0,994.39
994400.0,111.0,169.0,75.0,233.0,994.4
994410.0,114.0,192.0,80.0,234.0,994.41
994420.0,118.0,209.0,95.0,224.0,994.42
994430.0,121.0,222.0,107.0,228.0,994.43
994440.0,124.0,237.0,111.0,222.0,994.44
994450.0,126.0,245.0,104.0,223.0,994.45
994460.0,126.0,251.0,98.0,218.0,994.46
994470.0,126.0,255.0,101.0,210.0,994.47
994480.0,127.0,263.0,104.0,202.0,994.48
994490.0,127.0,268.0,105.0,190.0,994.49
994500.0,129.0,269.0,96.0,183.0,994.5
994510.0,130.0,269.0,93.0,180.0,994.51
994520.0,129.0,269.0,122.0,191.0,994.52
994530.0,128.0,272.0,106.0,190.0,994.53
994540.0,127.0,268.0,109.0,185.0,994.54
994550.0,127.0,268.0,103.0,180.0,994.55
994560.0,125.0,264.0,102.0,184.0,994.56
994570.0,123.0,258.0,104.0,183.0,994.57
994580.0,121.0,255.0,99.0,187.0,994.58
994590.0,119.0,252.0,89.0,180.0,994.59
994600.0,118.0,249.0,91.0,168.0,994.6
994610.0,116.0,244.0,91.0,167.0,994.61
994620.0,115.0,242.0,90.0,168.0,994.62
994630.0,112.0,237.0,92.0,158.0,994.63
994640.0,110.0,231.0,91.0,151.0,994.64
994650.0,109.0,230.0,83.0,148.0,994.65
994660.0,109.0,225.0,80.0,136.0,994.66
994670.0,108.0,222.0,77.0,130.0,994.67
994680.0,109.0,219.0,73.0,124.0,994.68
994690.0,105.0,213.0,72.0,119.0,994.69
994700.0,107.0,214.0,74.0,128.0,994.7
994710.0,105.0,210.0,78.0,143.0,994.71
994720.0,104.0,208.0,77.0,147.0,994.72
994731.0,102.0,205.0,80.0,146.0,994.731
994741.0,101.0,201.0,86.0,144.0,994.741
994751.0,102.0,202.0,89.0,143.0,994.751
994761.0,98.0,197.0,91.0,151.0,994.761
994771.0,98.0,196.0,83.0,160.0,994.771
994781.0,96.0,193.0,77.0,152.0,994.781
994791.0,93.0,190.0,69.0,143.0,994.791
994801.0,95.0,189.0,65.0,138.0,994.801
994811.0,94.0,187.0,60.0,129.0,994.811
994821.0,90.0,182.0,63.0,139.0,994.821
994831.0,89.0,180.0,62.0,149.0,994.831
994841.0,89.0,178.0,57.0,160.0,994.841
994851.0,88.0,175.0,54.0,144.0,994.851
994861.0,88.0,175.0,62.0,142.0,994.861
994871.0,88.0,171.0,71.0,173.0,994.871
994881.0,87.0,169.0,70.0,160.0,994.881
994891.0,88.0,169.0,63.0,164.0,994.891
994902.0,88.0,167.0,55.0,151.0,994.902
994912.0,85.0,162.0,57.0,146.0,994.912
994922.0,86.0,160.0,59.0,179.0,994.922
994932.0,85.0,159.0,53.0,172.0,994.932
994942.0,87.0,157.0,61.0,161.0,994.942
994952.0,85.0,155.0,67.0,152.0,994.952
994962.0,84.0,150.0,74.0,152.0,994.962
994972.0,85.0,148.0,73.0,153.0,994.972
994982.0,86.0,146.0,67.0,158.0,994.982
994992.0,85.0,143.0,64.0,161.0,994.992
995002.0,83.0,142.0,64.0,146.0,995.002
995012.0,83.0,139.0,67.0,134.0,995.012
995022.0,82.0,134.0,74.0,153.0,995.022
995032.0,84.0,133.0,68.0,147.0,995.032
995042.0,83.0,131.0,61.0,140.0,995.042
995052.0,82.0,129.0,54.0,134.0,995.052
995062.0,79.0,124.0,59.0,128.0,995.062
995072.0,78.0,125.0,72.0,130.0,995.072
995082.0,78.0,120.0,69.0,122.0,995.082
995092.0,77.0,118.0,60.0,112.0,995.092
995102.0,74.0,113.0,53.0,131.0,995.102
995112.0,74.0,110.0,53.0,147.0,995.112
995122.0,74.0,109.0,52.0,143.0,995.122
995132.0,75.0,108.0,47.0,134.0,995.132
995142.0,74.0,104.0,45.0,129.0,995.142
995152.0,74.0,102.0,57.0,144.0,995.152
995162.0,74.0,103.0,50.0,149.0,995.162
995172.0,73.0,103.0,45.0,143.0,995.172
995182.0,74.0,104.0,40.0,133.0,995.182
995192.0,71.0,103.0,44.0,143.0,995.192
995202.0,73.0,105.0,62.0,140.0,995.202
995212.0,73.0,106.0,60.0,133.0,995.212
995222.0,73.0,106.0,53.0,123.0,995.222
995232.0,71.0,104.0,53.0,120.0,995.232
995243.0,72.0,104.0,48.0,117.0,995.243
995253.0,72.0,104.0,48.0,140.0,995.253
995263.0,71.0,102.0,45.0,135.0,995.263
995273.0,71.0,102.0,47.0,136.0,995.273
995283.0,70.0,103.0,47.0,128.0,995.283
995293.0,69.0,100.0,53.0,123.0,995.293
995303.0,68.0,101.0,47.0,115.0,995.303
995313.0,67.0,98.0,50.0,140.0,995.313
995323.0,70.0,97.0,44.0,139.0,995.323
995333.0,67.0,97.0,40.0,130.0,995.333
995343.0,69.0,95.0,36.0,124.0,995.343
995353.0,67.0,93.0,37.0,118.0,995.353
995363.0,67.0,91.0,42.0,125.0,995.363
995373.0,69.0,93.0,38.0,121.0,995.373
995383.0,69.0,94.0,37.0,123.0,995.383
995393.0,70.0,93.0,34.0,115.0,995.393
995403.0,68.0,91.0,38.0,108.0,995.403
995414.0,71.0,92.0,34.0,109.0,995.414
995424.0,70.0,91.0,35.0,118.0,995.424
995434.0,71.0,92.0,35.0,114.0,995.434
995444.0,69.0,90.0,32.0,117.0,995.444
995454.0,70.0,90.0,34.0,111.0,995.454
995464.0,70.0,89.0,33.0,108.0,995.464
995474.0,68.0,87.0,29.0,102.0,995.474
995484.0,68.0,86.0,29.0,96.0,995.484
995494.0,68.0,86.0,33.0,95.0,995.494
995504.0,68.0,86.0,30.0,108.0,995.504
995514.0,68.0,85.0,27.0,108.0,995.514
995524.0,68.0,85.0,29.0,106.0,995.524
995534.0,67.0,82.0,27.0,115.0,995.534
995544.0,65.0,81.0,24.0,119.0,995.544
995554.0,65.0,81.0,34.0,118.0,995.554
995564.0,65.0,82.0,29.0,115.0,995.564
995574.0,65.0,80.0,30.0,111.0,995.574
995584.0,65.0,80.0,28.0,114.0,995.584
995594.0,66.0,78.0,28.0,112.0,995.594
995604.0,65.0,77.0,26.0,119.0,995.604
995614.0,64.0,76.0,32.0,141.0,995.614
995624.0,64.0,75.0,29.0,130.0,995.624
995634.0,64.0,75.0,39.0,121.0,995.634
995644.0,63.0,74.0,39.0,120.0,995.644
995654.0,63.0,73.0,38.0,117.0,995.654
995664.0,64.0,73.0,36.0,119.0,995.664
995674.0,63.0,73.0,32.0,116.0,995.674
995684.0,63.0,74.0,30.0,113.0,995.684
995694.0,62.0,70.0,27.0,103.0,995.694
995704.0,61.0,70.0,25.0,110.0,995.704
995714.0,63.0,70.0,23.0,103.0,995.714
995724.0,62.0,68.0,25.0,115.0,995.724
995734.0,63.0,69.0,23.0,115.0,995.734
995744.0,63.0,66.0,24.0,107.0,995.744
995755.0,63.0,67.0,21.0,104.0,995.755
995765.0,61.0,64.0,20.0,104.0,995.765
995775.0,60.0,63.0,31.0,111.0,995.775
995785.0,61.0,65.0,38.0,111.0,995.785
995795.0,61.0,65.0,33.0,112.0,995.795
995805.0,60.0,65.0,35.0,113.0,995.805
995815.0,59.0,63.0,42.0,122.0,995.815
995825.0,59.0,63.0,42.0,117.0,995.825
995835.0,59.0,64.0,42.0,114.0,995.835
995845.0,58.0,65.0,37.0,106.0,995.845
995855.0,58.0,65.0,36.0,100.0,995.855
995865.0,58.0,64.0,32.0,103.0,995.865
995875.0,57.0,64.0,29.0,101.0,995.875
995885.0,57.0,63.0,31.0,101.0,995.885
995895.0,58.0,64.0,42.0,95.0,995.895
995905.0,56.0,63.0,39.0,90.0,995.905
995915.0,55.0,62.0,33.0,83.0,995.915
995926.0,55.0,62.0,32.0,80.0,995.926
995936.0,55.0,62.0,29.0,79.0,995.936
995946.0,54.0,62.0,26.0,76.0,995.946
995956.0,55.0,59.0,24.0,74.0,995.956
995966.0,55.0,59.0,31.0,77.0,995.966
995976.0,55.0,57.0,28.0,72.0,995.976
995986.0,55.0,56.0,28.0,69.0,995.986
995996.0,54.0,55.0,28.0,74.0,995.996
996006.0,54.0,53.0,26.0,74.0,996.006
996016.0,52.0,52.0,24.0,85.0,996.016
996026.0,52.0,52.0,32.0,81.0,996.026
996036.0,51.0,54.0,30.0,79.0,996.036
996046.0,51.0,53.0,28.0,78.0,996.046
996056.0,51.0,51.0,27.0,80.0,996.056
996066.0,51.0,53.0,32.0,80.0,996.066
996076.0,51.0,53.0,27.0,77.0,996.076
996086.0,49.0,53.0,32.0,74.0,996.086
996096.0,48.0,53.0,31.0,73.0,996.096
996106.0,48.0,53.0,27.0,82.0,996.106
996116.0,49.0,52.0,25.0,78.0,996.116
996126.0,49.0,52.0,23.0,93.0,996.126
996136.0,51.0,52.0,20.0,89.0,996.136
996146.0,50.0,51.0,19.0,93.0,996.146
996156.0,50.0,51.0,26.0,88.0,996.156
996166.0,52.0,49.0,29.0,93.0,996.166
996176.0,52.0,50.0,29.0,89.0,996.176
996186.0,53.0,47.0,33.0,92.0,996.186
996196.0,53.0,45.0,29.0,91.0,996.196
996206.0,55.0,44.0,27.0,88.0,996.206
996216.0,56.0,43.0,25.0,98.0,996.216
996226.0,56.0,44.0,33.0,94.0,996.226
996236.0,57.0,43.0,32.0,97.0,996.236
996246.0,58.0,44.0,31.0,100.0,996.246
996256.0,60.0,44.0,31.0,93.0,996.256
996267.0,61.0,45.0,28.0,90.0,996.267
996277.0,61.0,46.0,25.0,89.0,996.277
996287.0,63.0,47.0,24.0,87.0,996.287
996297.0,64.0,50.0,20.0,84.0,996.297
996307.0,62.0,49.0,28.0,95.0,996.307
996317.0,63.0,51.0,26.0,93.0,996.317
996327.0,62.0,50.0,24.0,92.0,996.327
996337.0,61.0,50.0,25.0,91.0,996.337
996347.0,62.0,52.0,23.0,95.0,996.347
996357.0,64.0,54.0,21.0,89.0,996.357
996367.0,63.0,56.0,20.0,88.0,996.367
996377.0,63.0,56.0,28.0,84.0,996.377
996387.0,63.0,58.0,24.0,82.0,996.387
996397.0,62.0,57.0,34.0,85.0,996.397
996407.0,63.0,60.0,37.0,83.0,996.407
996417.0,63.0,63.0,33.0,80.0,996.417
996427.0,63.0,63.0,30.0,83.0,996.427
996438.0,62.0,63.0,29.0,78.0,996.438
996448.0,62.0,61.0,29.0,84.0,996.448
996458.0,64.0,65.0,33.0,86.0,996.458
996468.0,64.0,64.0,30.0,95.0,996.468
996478.0,64.0,62.0,32.0,90.0,996.478
996488.0,63.0,61.0,33.0,92.0,996.488
996498.0,66.0,61.0,30.0,93.0,996.498
996508.0,64.0,59.0,28.0,88.0,996.508
996518.0,64.0,56.0,30.0,87.0,996.518
996528.0,64.0,58.0,36.0,95.0,996.528
996538.0,64.0,58.0,34.0,90.0,996.538
996548.0,66.0,58.0,32.0,89.0,996.548
996558.0,65.0,57.0,31.0,90.0,996.558
996568.0,68.0,55.0,28.0,91.0,996.568
996578.0,66.0,54.0,29.0,88.0,996.578
996588.0,67.0,52.0,26.0,87.0,996.588
996598.0,67.0,51.0,34.0,94.0,996.598
996608.0,67.0,51.0,36.0,92.0,996.608
996618.0,70.0,53.0,32.0,89.0,996.618
996628.0,69.0,51.0,29.0,85.0,996.628
996638.0,68.0,49.0,36.0,88.0,996.638
996648.0,68.0,51.0,34.0,88.0,996.648
996658.0,69.0,50.0,33.0,87.0,996.658
996668.0,68.0,48.0,30.0,84.0,996.668
996678.0,69.0,48.0,42.0,84.0,996.678
996688.0,70.0,48.0,37.0,78.0,996.688
996698.0,70.0,47.0,34.0,76.0,996.698
996708.0,71.0,46.0,35.0,82.0,996.708
996718.0,69.0,46.0,36.0,99.0,996.718
996728.0,72.0,47.0,31.0,106.0,996.728
996738.0,71.0,47.0,33.0,103.0,996.738
996748.0,74.0,50.0,40.0,98.0,996.748
996758.0,75.0,50.0,34.0,100.0,996.758
996768.0,75.0,51.0,32.0,91.0,996.768
996779.0,76.0,51.0,33.0,87.0,996.779
996789.0,74.0,50.0,30.0,91.0,996.789
996799.0,74.0,49.0,36.0,91.0,996.799
996809.0,74.0,50.0,38.0,91.0,996.809
996819.0,75.0,48.0,34.0,84.0,996.819
996829.0,75.0,48.0,37.0,79.0,996.829
996839.0,73.0,46.0,34.0,83.0,996.839
996849.0,74.0,45.0,33.0,79.0,996.849
996859.0,72.0,43.0,30.0,81.0,996.859
996869.0,73.0,42.0,29.0,78.0,996.869
996879.0,74.0,44.0,25.0,82.0,996.879
996889.0,71.0,42.0,44.0,76.0,996.889
996899.0,72.0,44.0,43.0,85.0,996.899
996909.0,72.0,43.0,40.0,82.0,996.909
996919.0,73.0,41.0,34.0,83.0,996.919
996929.0,71.0,40.0,30.0,84.0,996.929
996939.0,74.0,40.0,27.0,80.0,996.939
996950.0,75.0,41.0,35.0,81.0,996.95
996960.0,76.0,40.0,37.0,80.0,996.96
996970.0,76.0,39.0,41.0,86.0,996.97
996980.0,79.0,41.0,37.0,82.0,996.98
996990.0,79.0,40.0,34.0,80.0,996.99
997000.0,77.0,40.0,36.0,76.0,997.0
997010.0,78.0,40.0,45.0,81.0,997.01
997020.0,77.0,42.0,50.0,78.0,997.02
997030.0,77.0,42.0,45.0,87.0,997.03
997040.0,76.0,42.0,40.0,86.0,997.04
997050.0,76.0,41.0,38.0,88.0,997.05
997060.0,76.0,41.0,34.0,89.0,997.06
997070.0,76.0,40.0,30.0,90.0,997.07
997080.0,77.0,38.0,27.0,89.0,997.08
997090.0,75.0,41.0,28.0,86.0,997.09
997100.0,75.0,41.0,27.0,79.0,997.1
997110.0,73.0,40.0,26.0,78.0,997.11
997120.0,73.0,41.0,24.0,74.0,997.12
997130.0,72.0,40.0,28.0,72.0,997.13
997140.0,71.0,40.0,24.0,68.0,997.14
997150.0,71.0,41.0,29.0,73.0,997.15
997160.0,71.0,41.0,33.0,78.0,997.16
997170.0,70.0,40.0,30.0,81.0,997.17
997180.0,69.0,40.0,28.0,85.0,997.18
997190.0,67.0,40.0,27.0,78.0,997.19
997200.0,69.0,40.0,24.0,76.0,997.2
997210.0,67.0,39.0,21.0,73.0,997.21
997220.0,66.0,42.0,32.0,83.0,997.22
997230.0,67.0,43.0,28.0,85.0,997.23
997240.0,67.0,42.0,27.0,80.0,997.24
997250.0,69.0,40.0,25.0,84.0,997.25
997260.0,69.0,41.0,21.0,84.0,997.26
997270.0,71.0,40.0,20.0,88.0,997.27
997280.0,70.0,41.0,18.0,88.0,997.28
997291.0,71.0,42.0,24.0,85.0,997.291
997301.0,72.0,43.0,45.0,90.0,997.301
997311.0,73.0,41.0,42.0,87.0,997.311
997321.0,73.0,40.0,37.0,84.0,997.321
997331.0,73.0,41.0,32.0,78.0,997.331
997341.0,75.0,42.0,30.0,76.0,997.341
997351.0,74.0,44.0,38.0,72.0,997.351
997361.0,76.0,44.0,39.0,81.0,997.361
997371.0,78.0,45.0,36.0,82.0,997.371
997381.0,77.0,44.0,32.0,79.0,997.381
997391.0,78.0,45.0,30.0,80.0,997.391
997401.0,77.0,46.0,27.0,77.0,997.401
997411.0,77.0,46.0,25.0,74.0,997.411
997421.0,76.0,49.0,37.0,96.0,997.421
997431.0,75.0,47.0,42.0,92.0,997.431
997441.0,75.0,47.0,37.0,94.0,997.441
997451.0,75.0,47.0,33.0,87.0,997.451
997462.0,75.0,47.0,31.0,86.0,997.462
997472.0,73.0,48.0,29.0,86.0,997.472
997482.0,74.0,50.0,38.0,91.0,997.482
997492.0,75.0,48.0,36.0,96.0,997.492
997502.0,76.0,46.0,35.0,91.0,997.502
997512.0,76.0,45.0,32.0,91.0,997.512
997522.0,74.0,45.0,31.0,89.0,997.522
997532.0,74.0,44.0,28.0,90.0,997.532
997542.0,73.0,43.0,26.0,91.0,997.542
997552.0,72.0,44.0,35.0,86.0,997.552
997562.0,72.0,44.0,32.0,84.0,997.562
997572.0,72.0,43.0,29.0,77.0,997.572
997582.0,72.0,42.0,26.0,76.0,997.582
997592.0,71.0,41.0,28.0,74.0,997.592
997602.0,72.0,39.0,32.0,76.0,997.602
997612.0,72.0,39.0,30.0,79.0,997.612
997622.0,72.0,40.0,37.0,80.0,997.622
997632.0,72.0,41.0,39.0,84.0,997.632
997642.0,72.0,40.0,38.0,81.0,997.642
997652.0,73.0,39.0,33.0,79.0,997.652
997662.0,73.0,38.0,31.0,81.0,997.662
997672.0,74.0,38.0,29.0,86.0,997.672
997682.0,75.0,39.0,27.0,88.0,997.682
997692.0,72.0,41.0,44.0,86.0,997.692
997702.0,73.0,41.0,45.0,81.0,997.702
997712.0,73.0,40.0,42.0,83.0,997.712
997722.0,74.0,39.0,37.0,87.0,997.722
997732.0,72.0,40.0,35.0,87.0,997.732
997742.0,73.0,39.0,37.0,84.0,997.742
997752.0,72.0,38.0,33.0,76.0,997.752
997762.0,70.0,39.0,31.0,76.0,997.762
997772.0,70.0,40.0,36.0,76.0,997.772
997782.0,70.0,39.0,33.0,75.0,997.782
997792.0,72.0,39.0,29.0,74.0,997.792
997803.0,70.0,38.0,29.0,74.0,997.803
997813.0,71.0,38.0,32.0,71.0,997.813
997823.0,71.0,37.0,29.0,78.0,997.823
997833.0,75.0,37.0,27.0,80.0,997.833
997843.0,74.0,38.0,23.0,78.0,997.843
997853.0,75.0,38.0,28.0,75.0,997.853
997863.0,76.0,39.0,29.0,83.0,997.863
997873.0,75.0,38.0,26.0,77.0,997.873
997883.0,75.0,38.0,23.0,73.0,997.883
997893.0,74.0,39.0,19.0,71.0,997.893
997903.0,75.0,37.0,19.0,72.0,997.903
997913.0,74.0,38.0,17.0,70.0,997.913
997923.0,73.0,37.0,18.0,69.0,997.923
997933.0,73.0,37.0,17.0,67.0,997.933
997943.0,73.0,38.0,17.0,74.0,997.943
997953.0,73.0,40.0,21.0,69.0,997.953
997963.0,74.0,41.0,19.0,69.0,997.963
997974.0,75.0,41.0,18.0,65.0,997.974
997984.0,76.0,41.0,15.0,66.0,997.984
997994.0,75.0,39.0,14.0,68.0,997.994
998004.0,74.0,40.0,15.0,68.0,998.004
998014.0,72.0,40.0,19.0,69.0,998.014
998024.0,71.0,40.0,39.0,72.0,998.024
998034.0,69.0,39.0,34.0,70.0,998.034
998044.0,68.0,39.0,37.0,69.0,998.044
998054.0,68.0,38.0,32.0,72.0,998.054
998064.0,67.0,38.0,30.0,72.0,998.064
998074.0,65.0,37.0,27.0,69.0,998.074
998084.0,63.0,40.0,29.0,68.0,998.084
998094.0,65.0,40.0,36.0,69.0,998.094
998104.0,64.0,41.0,33.0,73.0,998.104
998114.0,64.0,40.0,30.0,75.0,998.114
998124.0,64.0,39.0,25.0,73.0,998.124
998134.0,62.0,38.0,27.0,88.0,998.134
998144.0,63.0,38.0,24.0,87.0,998.144
998154.0,61.0,40.0,23.0,86.0,998.154
998164.0,62.0,38.0,39.0,86.0,998.164
998174.0,61.0,39.0,38.0,86.0,998.174
998184.0,63.0,39.0,34.0,83.0,998.184
998194.0,61.0,39.0,30.0,81.0,998.194
998204.0,60.0,38.0,28.0,85.0,998.204
998214.0,60.0,39.0,28.0,89.0,998.214
998224.0,59.0,39.0,24.0,90.0,998.224
998234.0,58.0,39.0,33.0,88.0,998.234
998244.0,58.0,38.0,32.0,83.0,998.244
998254.0,60.0,38.0,29.0,75.0,998.254
998264.0,58.0,38.0,25.0,80.0,998.264
998274.0,59.0,38.0,29.0,89.0,998.274
998284.0,59.0,37.0,27.0,83.0,998.284
998294.0,59.0,37.0,25.0,79.0,998.294
998304.0,58.0,36.0,25.0,76.0,998.304
998315.0,57.0,37.0,24.0,75.0,998.315
998325.0,57.0,38.0,25.0,76.0,998.325
998335.0,56.0,39.0,30.0,80.0,998.335
998345.0,55.0,37.0,28.0,78.0,998.345
998355.0,57.0,37.0,27.0,79.0,998.355
998365.0,57.0,39.0,31.0,80.0,998.365
998375.0,57.0,38.0,28.0,84.0,998.375
998385.0,57.0,37.0,27.0,80.0,998.385
998395.0,58.0,38.0,23.0,78.0,998.395
998405.0,58.0,38.0,21.0,76.0,998.405
998415.0,60.0,38.0,22.0,72.0,998.415
998425.0,60.0,41.0,35.0,76.0,998.425
998435.0,59.0,41.0,31.0,73.0,998.435
998445.0,60.0,41.0,40.0,70.0,998.445
998455.0,60.0,42.0,37.0,68.0,998.455
998465.0,60.0,42.0,34.0,66.0,998.465
998475.0,60.0,43.0,30.0,73.0,998.475
998486.0,58.0,44.0,30.0,68.0,998.486
998496.0,58.0,44.0,41.0,68.0,998.496
998506.0,57.0,44.0,35.0,72.0,998.506
998516.0,58.0,42.0,31.0,72.0,998.516
998526.0,56.0,42.0,29.0,71.0,998.526
998536.0,57.0,41.0,28.0,74.0,998.536
998546.0,56.0,40.0,27.0,77.0,998.546
998556.0,55.0,41.0,26.0,86.0,998.556
998566.0,55.0,40.0,26.0,87.0,998.566
998576.0,56.0,40.0,24.0,83.0,998.576
998586.0,55.0,40.0,30.0,80.0,998.586
998596.0,57.0,39.0,25.0,76.0,998.596
998606.0,58.0,39.0,24.0,78.0,998.606
998616.0,59.0,39.0,21.0,75.0,998.616
998626.0,58.0,40.0,19.0,77.0,998.626
998636.0,56.0,40.0,19.0,74.0,998.636
998646.0,56.0,39.0,17.0,72.0,998.646
998656.0,56.0,38.0,20.0,74.0,998.656
998666.0,55.0,39.0,17.0,71.0,998.666
998676.0,55.0,41.0,21.0,70.0,998.676
998686.0,55.0,41.0,18.0,68.0,998.686
998696.0,58.0,42.0,16.0,64.0,998.696
998706.0,59.0,41.0,14.0,65.0,998.706
998716.0,58.0,41.0,14.0,63.0,998.716
998726.0,59.0,38.0,14.0,58.0,998.726
