time (ms),signal 0,signal 1,signal 2,signal3,time (sec)
975742.0,61.0,97.0,11.0,65.0,975.742
975752.0,62.0,96.0,13.0,72.0,975.752
975762.0,61.0,98.0,11.0,77.0,975.762
975772.0,60.0,98.0,10.0,80.0,975.772
975782.0,59.0,98.0,15.0,90.0,975.782
975792.0,59.0,98.0,16.0,103.0,975.792
975802.0,59.0,100.0,15.0,107.0,975.802
975812.0,58.0,98.0,13.0,109.0,975.812
975822.0,57.0,97.0,12.0,105.0,975.822
975832.0,57.0,97.0,11.0,109.0,975.832
975842.0,57.0,94.0,10.0,104.0,975.842
975852.0,57.0,93.0,18.0,98.0,975.852
975862.0,57.0,92.0,17.0,93.0,975.862
975872.0,57.0,90.0,15.0,93.0,975.872
975882.0,57.0,89.0,14.0,87.0,975.882
975892.0,56.0,88.0,14.0,88.0,975.892
975902.0,55.0,88.0,13.0,88.0,975.902
975912.0,57.0,86.0,13.0,87.0,975.912
975922.0,57.0,85.0,11.0,90.0,975.922
975932.0,56.0,81.0,11.0,94.0,975.932
975942.0,56.0,81.0,10.0,86.0,975.942
975952.0,54.0,81.0,12.0,83.0,975.952
975962.0,55.0,80.0,13.0,81.0,975.962
975972.0,53.0,78.0,13.0,82.0,975.972
975982.0,51.0,74.0,11.0,86.0,975.982
975992.0,52.0,73.0,27.0,86.0,975.992
976002.0,51.0,70.0,24.0,85.0,976.002
976012.0,53.0,72.0,21.0,82.0,976.012
976022.0,52.0,70.0,19.0,78.0,976.022
976032.0,53.0,69.0,24.0,81.0,976.032
976043.0,53.0,72.0,24.0,90.0,976.043
976053.0,53.0,70.0,22.0,90.0,976.053
976063.0,53.0,70.0,19.0,83.0,976.063
976073.0,54.0,70.0,16.0,87.0,976.073
976083.0,56.0,71.0,15.0,82.0,976.083
976093.0,54.0,71.0,14.0,79.0,976.093
976103.0,55.0,71.0,12.0,81.0,976.103
976113.0,55.0,71.0,11.0,77.0,976.113
976123.0,54.0,70.0,10.0,76.0,976.123
976133.0,54.0,68.0,10.0,75.0,976.133
976143.0,55.0,67.0,11.0,82.0,976.143
976153.0,56.0,66.0,12.0,81.0,976.153
976163.0,54.0,66.0,15.0,82.0,976.163
976173.0,57.0,66.0,17.0,76.0,976.173
976183.0,56.0,65.0,15.0,73.0,976.183
976193.0,56.0,64.0,14.0,74.0,976.193
976203.0,56.0,65.0,12.0,69.0,976.203
976214.0,57.0,64.0,12.0,67.0,976.214
976224.0,56.0,63.0,11.0,68.0,976.224
976234.0,55.0,62.0,16.0,64.0,976.234
976244.0,57.0,61.0,15.0,62.0,976.244
976254.0,57.0,62.0,14.0,70.0,976.254
976264.0,58.0,60.0,13.0,69.0,976.264
976274.0,59.0,59.0,12.0,77.0,976.274
976284.0,59.0,59.0,11.0,73.0,976.284
976294.0,59.0,57.0,11.0,101.0,976.294
976304.0,58.0,57.0,11.0,106.0,976.304
976314.0,59.0,56.0,11.0,101.0,976.314
976324.0,57.0,56.0,11.0,99.0,976.324
976334.0,58.0,54.0,13.0,96.0,976.334
976344.0,57.0,54.0,12.0,103.0,976.344
976354.0,57.0,51.0,11.0,96.0,976.354
976364.0,60.0,51.0,10.0,93.0,976.364
976374.0,58.0,49.0,10.0,90.0,976.374
976384.0,61.0,48.0,10.0,99.0,976.384
976394.0,60.0,48.0,10.0,100.0,976.394
976404.0,60.0,45.0,12.0,117.0,976.404
976414.0,61.0,45.0,12.0,114.0,976.414
976424.0,62.0,44.0,11.0,104.0,976.424
976434.0,61.0,43.0,10.0,98.0,976.434
976444.0,62.0,43.0,12.0,96.0,976.444
976454.0,62.0,43.0,13.0,93.0,976.454
976464.0,61.0,43.0,13.0,94.0,976.464
976474.0,62.0,41.0,12.0,91.0,976.474
976484.0,61.0,40.0,11.0,90.0,976.484
976494.0,61.0,40.0,9.0,91.0,976.494
976504.0,62.0,39.0,9.0,99.0,976.504
976514.0,60.0,39.0,8.0,96.0,976.514
976524.0,61.0,37.0,10.0,92.0,976.524
976534.0,59.0,38.0,10.0,88.0,976.534
976544.0,58.0,37.0,9.0,88.0,976.544
976555.0,58.0,38.0,11.0,83.0,976.555
976565.0,57.0,36.0,12.0,78.0,976.565
976575.0,59.0,37.0,10.0,75.0,976.575
976585.0,58.0,37.0,9.0,71.0,976.585
976595.0,57.0,36.0,11.0,69.0,976.595
976605.0,58.0,38.0,10.0,73.0,976.605
976615.0,57.0,37.0,10.0,71.0,976.615
976625.0,57.0,37.0,10.0,75.0,976.625
976635.0,57.0,39.0,12.0,71.0,976.635
976645.0,58.0,39.0,12.0,74.0,976.645
976655.0,56.0,41.0,10.0,69.0,976.655
976665.0,55.0,39.0,9.0,73.0,976.665
976675.0,56.0,41.0,10.0,74.0,976.675
976685.0,56.0,39.0,10.0,79.0,976.685
976695.0,57.0,39.0,9.0,80.0,976.695
976705.0,57.0,38.0,10.0,77.0,976.705
976715.0,57.0,37.0,10.0,71.0,976.715
976726.0,56.0,37.0,7.0,70.0,976.726
976736.0,57.0,37.0,8.0,82.0,976.736
976746.0,56.0,39.0,7.0,79.0,976.746
976756.0,57.0,38.0,8.0,71.0,976.756
976766.0,56.0,39.0,12.0,74.0,976.766
976776.0,55.0,39.0,11.0,74.0,976.776
976786.0,56.0,40.0,11.0,69.0,976.786
976796.0,54.0,39.0,8.0,65.0,976.796
976806.0,54.0,42.0,9.0,69.0,976.806
976816.0,54.0,44.0,8.0,69.0,976.816
976826.0,54.0,43.0,8.0,68.0,976.826
976836.0,54.0,43.0,10.0,69.0,976.836
976846.0,53.0,42.0,12.0,90.0,976.846
976856.0,56.0,44.0,11.0,90.0,976.856
976866.0,55.0,42.0,12.0,88.0,976.866
976876.0,57.0,41.0,18.0,100.0,976.876
976886.0,59.0,42.0,22.0,115.0,976.886
976896.0,61.0,41.0,24.0,119.0,976.896
976906.0,62.0,41.0,21.0,114.0,976.906
976916.0,62.0,40.0,19.0,106.0,976.916
976926.0,63.0,40.0,17.0,103.0,976.926
976936.0,63.0,39.0,15.0,110.0,976.936
976946.0,65.0,38.0,17.0,114.0,976.946
976956.0,65.0,39.0,15.0,110.0,976.956
976966.0,65.0,37.0,15.0,103.0,976.966
976976.0,65.0,38.0,18.0,96.0,976.976
976986.0,64.0,37.0,15.0,88.0,976.986
976996.0,64.0,37.0,15.0,93.0,976.996
977006.0,64.0,37.0,17.0,92.0,977.006
977016.0,64.0,36.0,22.0,105.0,977.016
977026.0,65.0,38.0,21.0,100.0,977.026
977036.0,66.0,37.0,18.0,97.0,977.036
977046.0,64.0,36.0,16.0,97.0,977.046
977056.0,65.0,38.0,20.0,106.0,977.056
977067.0,64.0,37.0,20.0,101.0,977.067
977077.0,64.0,37.0,18.0,92.0,977.077
977087.0,66.0,36.0,16.0,84.0,977.087
977097.0,67.0,36.0,15.0,81.0,977.097
977107.0,67.0,36.0,14.0,106.0,977.107
977117.0,67.0,36.0,15.0,100.0,977.117
977127.0,66.0,36.0,13.0,92.0,977.127
977137.0,67.0,35.0,13.0,92.0,977.137
977147.0,66.0,36.0,12.0,87.0,977.147
977157.0,68.0,36.0,13.0,102.0,977.157
977167.0,67.0,37.0,11.0,100.0,977.167
977177.0,65.0,36.0,11.0,101.0,977.177
977187.0,64.0,35.0,9.0,99.0,977.187
977197.0,65.0,41.0,9.0,98.0,977.197
977207.0,68.0,51.0,11.0,99.0,977.207
977217.0,68.0,61.0,14.0,104.0,977.217
977227.0,69.0,126.0,23.0,104.0,977.227
977238.0,69.0,146.0,23.0,103.0,977.238
977248.0,74.0,178.0,26.0,98.0,977.248
977258.0,73.0,204.0,27.0,105.0,977.258
977268.0,77.0,225.0,29.0,115.0,977.268
977278.0,97.0,299.0,38.0,136.0,977.278
977288.0,104.0,322.0,37.0,141.0,977.288
977298.0,104.0,313.0,40.0,143.0,977.298
977308.0,112.0,322.0,37.0,135.0,977.308
977318.0,104.0,309.0,39.0,132.0,977.318
977328.0,118.0,399.0,60.0,131.0,977.328
977338.0,118.0,411.0,69.0,126.0,977.338
977348.0,116.0,388.0,61.0,123.0,977.348
977358.0,122.0,386.0,66.0,129.0,977.358
977368.0,130.0,365.0,64.0,121.0,977.368
977378.0,124.0,356.0,56.0,117.0,977.378
977388.0,115.0,364.0,56.0,110.0,977.388
977398.0,108.0,365.0,50.0,108.0,977.398
977408.0,104.0,381.0,48.0,108.0,977.408
977418.0,101.0,400.0,49.0,107.0,977.418
977428.0,102.0,386.0,47.0,107.0,977.428
977438.0,95.0,392.0,53.0,99.0,977.438
977448.0,90.0,384.0,56.0,109.0,977.448
977458.0,89.0,371.0,51.0,106.0,977.458
977468.0,84.0,376.0,54.0,110.0,977.468
977478.0,88.0,377.0,56.0,102.0,977.478
977488.0,93.0,362.0,51.0,101.0,977.488
977498.0,89.0,350.0,51.0,108.0,977.498
977508.0,84.0,352.0,55.0,103.0,977.508
977518.0,96.0,355.0,58.0,105.0,977.518
977528.0,95.0,339.0,53.0,101.0,977.528
977538.0,93.0,329.0,52.0,102.0,977.538
977548.0,93.0,327.0,53.0,104.0,977.548
977558.0,93.0,314.0,47.0,101.0,977.558
977568.0,88.0,309.0,46.0,116.0,977.568
977579.0,83.0,309.0,44.0,123.0,977.579
977589.0,92.0,323.0,43.0,117.0,977.589
977599.0,89.0,304.0,42.0,110.0,977.599
977609.0,91.0,308.0,43.0,108.0,977.609
977619.0,89.0,297.0,53.0,131.0,977.619
977629.0,86.0,298.0,66.0,150.0,977.629
977639.0,91.0,303.0,71.0,159.0,977.639
977649.0,87.0,279.0,64.0,153.0,977.649
977659.0,82.0,275.0,58.0,163.0,977.659
977669.0,77.0,263.0,51.0,152.0,977.669
977679.0,84.0,276.0,53.0,147.0,977.679
977689.0,81.0,263.0,52.0,148.0,977.689
977699.0,81.0,264.0,51.0,145.0,977.699
977709.0,78.0,261.0,64.0,135.0,977.709
977719.0,76.0,247.0,63.0,129.0,977.719
977729.0,73.0,239.0,65.0,129.0,977.729
977739.0,73.0,240.0,62.0,130.0,977.739
977750.0,78.0,252.0,56.0,128.0,977.75
977760.0,79.0,233.0,49.0,120.0,977.76
977770.0,79.0,232.0,43.0,111.0,977.77
977780.0,77.0,219.0,38.0,102.0,977.78
977790.0,76.0,232.0,47.0,105.0,977.79
977800.0,74.0,216.0,55.0,106.0,977.8
977810.0,75.0,222.0,49.0,100.0,977.81
977820.0,73.0,216.0,45.0,96.0,977.82
977830.0,69.0,210.0,41.0,89.0,977.83
977840.0,68.0,203.0,40.0,94.0,977.84
977850.0,65.0,202.0,36.0,91.0,977.85
977860.0,65.0,197.0,39.0,95.0,977.86
977870.0,62.0,202.0,34.0,89.0,977.87
977880.0,61.0,193.0,41.0,86.0,977.88
977890.0,67.0,195.0,39.0,90.0,977.89
977900.0,64.0,208.0,39.0,88.0,977.9
977910.0,67.0,196.0,44.0,82.0,977.91
977920.0,64.0,187.0,38.0,82.0,977.92
977930.0,67.0,192.0,38.0,80.0,977.93
977940.0,64.0,182.0,42.0,78.0,977.94
977950.0,62.0,185.0,44.0,77.0,977.95
977960.0,64.0,185.0,41.0,80.0,977.96
977970.0,61.0,177.0,37.0,96.0,977.97
977980.0,60.0,174.0,39.0,105.0,977.98
977990.0,57.0,175.0,36.0,118.0,977.99
978000.0,60.0,172.0,36.0,107.0,978.0
978010.0,65.0,188.0,36.0,103.0,978.01
978020.0,63.0,181.0,43.0,94.0,978.02
978030.0,63.0,175.0,39.0,96.0,978.03
978040.0,60.0,175.0,41.0,96.0,978.04
978050.0,60.0,168.0,39.0,95.0,978.05
978060.0,57.0,164.0,35.0,99.0,978.06
978070.0,59.0,161.0,32.0,99.0,978.07
978080.0,60.0,163.0,31.0,93.0,978.08
978091.0,59.0,160.0,31.0,91.0,978.091
978101.0,62.0,162.0,35.0,100.0,978.101
978111.0,63.0,162.0,32.0,94.0,978.111
978121.0,62.0,151.0,30.0,88.0,978.121
978131.0,62.0,150.0,28.0,90.0,978.131
978141.0,62.0,145.0,27.0,85.0,978.141
978151.0,63.0,149.0,24.0,80.0,978.151
978161.0,66.0,152.0,27.0,74.0,978.161
978171.0,65.0,144.0,27.0,71.0,978.171
978181.0,64.0,140.0,25.0,74.0,978.181
978191.0,66.0,138.0,30.0,79.0,978.191
978201.0,70.0,143.0,30.0,78.0,978.201
978211.0,71.0,140.0,31.0,84.0,978.211
978221.0,72.0,152.0,30.0,83.0,978.221
978231.0,72.0,150.0,35.0,84.0,978.231
978241.0,70.0,153.0,34.0,90.0,978.241
978251.0,71.0,151.0,30.0,86.0,978.251
978262.0,70.0,141.0,28.0,85.0,978.262
978272.0,69.0,147.0,25.0,90.0,978.272
978282.0,72.0,148.0,22.0,96.0,978.282
978292.0,68.0,137.0,20.0,92.0,978.292
978302.0,69.0,138.0,35.0,94.0,978.302
978312.0,69.0,133.0,35.0,98.0,978.312
978322.0,68.0,134.0,29.0,94.0,978.322
978332.0,69.0,135.0,27.0,88.0,978.332
978342.0,68.0,132.0,26.0,93.0,978.342
978352.0,68.0,137.0,29.0,89.0,978.352
978362.0,70.0,138.0,28.0,93.0,978.362
978372.0,70.0,140.0,33.0,94.0,978.372
978382.0,68.0,129.0,28.0,89.0,978.382
978392.0,69.0,127.0,28.0,85.0,978.392
978402.0,74.0,126.0,28.0,91.0,978.402
978412.0,71.0,120.0,24.0,90.0,978.412
978422.0,71.0,118.0,24.0,85.0,978.422
978432.0,74.0,119.0,25.0,81.0,978.432
978442.0,74.0,127.0,25.0,86.0,978.442
978452.0,74.0,126.0,25.0,87.0,978.452
978462.0,73.0,125.0,21.0,88.0,978.462
978472.0,75.0,126.0,20.0,86.0,978.472
978482.0,74.0,127.0,18.0,84.0,978.482
978492.0,73.0,119.0,18.0,81.0,978.492
978502.0,75.0,130.0,24.0,80.0,978.502
978512.0,73.0,120.0,41.0,92.0,978.512
978522.0,71.0,114.0,39.0,87.0,978.522
978532.0,70.0,114.0,34.0,81.0,978.532
978542.0,73.0,114.0,34.0,82.0,978.542
978552.0,73.0,125.0,29.0,80.0,978.552
978562.0,69.0,118.0,26.0,75.0,978.562
978572.0,70.0,121.0,24.0,76.0,978.572
978582.0,70.0,119.0,40.0,79.0,978.582
978592.0,70.0,116.0,38.0,85.0,978.592
978603.0,68.0,108.0,37.0,81.0,978.603
978613.0,72.0,114.0,35.0,76.0,978.613
978623.0,68.0,112.0,32.0,74.0,978.623
978633.0,71.0,114.0,31.0,94.0,978.633
978643.0,71.0,114.0,33.0,98.0,978.643
978653.0,70.0,106.0,30.0,92.0,978.653
978663.0,71.0,111.0,43.0,89.0,978.663
978673.0,70.0,110.0,37.0,90.0,978.673
978683.0,75.0,110.0,37.0,93.0,978.683
978693.0,70.0,104.0,32.0,92.0,978.693
978703.0,72.0,105.0,33.0,97.0,978.703
978713.0,70.0,99.0,27.0,92.0,978.713
978723.0,67.0,92.0,24.0,84.0,978.723
978733.0,68.0,95.0,22.0,81.0,978.733
978743.0,68.0,90.0,20.0,76.0,978.743
978753.0,70.0,88.0,18.0,69.0,978.753
978763.0,70.0,89.0,30.0,67.0,978.763
978774.0,74.0,95.0,39.0,72.0,978.774
978784.0,72.0,94.0,38.0,76.0,978.784
978794.0,70.0,98.0,36.0,80.0,978.794
978804.0,67.0,92.0,33.0,75.0,978.804
978814.0,68.0,93.0,39.0,74.0,978.814
978824.0,68.0,96.0,37.0,75.0,978.824
978834.0,66.0,97.0,33.0,74.0,978.834
978844.0,67.0,95.0,29.0,69.0,978.844
978854.0,67.0,91.0,26.0,67.0,978.854
978864.0,66.0,89.0,24.0,67.0,978.864
978874.0,66.0,85.0,23.0,68.0,978.874
978884.0,67.0,83.0,21.0,68.0,978.884
978894.0,68.0,91.0,36.0,77.0,978.894
978904.0,65.0,89.0,35.0,76.0,978.904
978914.0,66.0,86.0,34.0,95.0,978.914
978924.0,67.0,92.0,30.0,89.0,978.924
978934.0,66.0,86.0,27.0,84.0,978.934
978944.0,65.0,81.0,24.0,92.0,978.944
978954.0,66.0,88.0,29.0,91.0,978.954
978964.0,71.0,87.0,37.0,98.0,978.964
978974.0,68.0,82.0,38.0,98.0,978.974
978984.0,67.0,79.0,36.0,95.0,978.984
978994.0,69.0,80.0,34.0,92.0,978.994
979004.0,69.0,90.0,33.0,92.0,979.004
979014.0,67.0,84.0,29.0,87.0,979.014
979024.0,67.0,80.0,28.0,80.0,979.024
979034.0,70.0,84.0,37.0,78.0,979.034
979044.0,68.0,83.0,38.0,73.0,979.044
979054.0,69.0,79.0,36.0,68.0,979.054
979064.0,70.0,81.0,34.0,71.0,979.064
979074.0,70.0,81.0,30.0,67.0,979.074
979084.0,69.0,85.0,29.0,66.0,979.084
979094.0,70.0,87.0,27.0,66.0,979.094
979104.0,70.0,90.0,26.0,72.0,979.104
979115.0,69.0,88.0,22.0,71.0,979.115
979125.0,68.0,83.0,23.0,67.0,979.125
979135.0,69.0,91.0,35.0,74.0,979.135
979145.0,70.0,88.0,31.0,70.0,979.145
979155.0,71.0,89.0,28.0,73.0,979.155
979165.0,70.0,90.0,27.0,70.0,979.165
979175.0,71.0,90.0,24.0,66.0,979.175
979185.0,69.0,92.0,28.0,80.0,979.185
979195.0,70.0,91.0,39.0,81.0,979.195
979205.0,70.0,90.0,39.0,81.0,979.205
979215.0,71.0,86.0,35.0,78.0,979.215
979225.0,69.0,80.0,32.0,80.0,979.225
979235.0,71.0,84.0,29.0,77.0,979.235
979245.0,72.0,81.0,33.0,77.0,979.245
979255.0,70.0,82.0,30.0,74.0,979.255
979265.0,69.0,83.0,28.0,76.0,979.265
979275.0,70.0,83.0,24.0,75.0,979.275
979286.0,69.0,82.0,30.0,70.0,979.286
979296.0,73.0,85.0,28.0,65.0,979.296
979306.0,69.0,81.0,25.0,65.0,979.306
979316.0,69.0,81.0,26.0,61.0,979.316
979326.0,68.0,80.0,28.0,66.0,979.326
979336.0,66.0,79.0,25.0,65.0,979.336
979346.0,66.0,79.0,25.0,65.0,979.346
979356.0,69.0,80.0,26.0,64.0,979.356
979366.0,69.0,78.0,29.0,63.0,979.366
979376.0,68.0,77.0,27.0,62.0,979.376
979386.0,68.0,72.0,27.0,59.0,979.386
979396.0,70.0,73.0,24.0,62.0,979.396
979406.0,68.0,88.0,23.0,68.0,979.406
979416.0,68.0,88.0,35.0,71.0,979.416
979426.0,66.0,88.0,32.0,64.0,979.426
979436.0,66.0,85.0,28.0,65.0,979.436
979446.0,64.0,84.0,25.0,62.0,979.446
979456.0,64.0,82.0,26.0,62.0,979.456
979466.0,62.0,78.0,22.0,60.0,979.466
979476.0,66.0,85.0,26.0,67.0,979.476
979486.0,64.0,80.0,26.0,68.0,979.486
979496.0,65.0,80.0,36.0,63.0,979.496
979506.0,64.0,79.0,37.0,63.0,979.506
979516.0,65.0,81.0,32.0,63.0,979.516
979526.0,66.0,88.0,29.0,59.0,979.526
979536.0,63.0,86.0,28.0,57.0,979.536
979546.0,63.0,85.0,33.0,63.0,979.546
979556.0,63.0,81.0,29.0,63.0,979.556
979566.0,62.0,79.0,41.0,60.0,979.566
979576.0,63.0,78.0,36.0,57.0,979.576
979586.0,63.0,78.0,32.0,55.0,979.586
979596.0,65.0,79.0,39.0,54.0,979.596
979606.0,66.0,77.0,36.0,54.0,979.606
979616.0,66.0,82.0,39.0,61.0,979.616
979627.0,63.0,87.0,35.0,66.0,979.627
979637.0,63.0,83.0,31.0,61.0,979.637
979647.0,62.0,79.0,29.0,57.0,979.647
979657.0,64.0,80.0,25.0,67.0,979.657
979667.0,64.0,77.0,23.0,71.0,979.667
979677.0,63.0,84.0,23.0,72.0,979.677
979687.0,61.0,87.0,21.0,84.0,979.687
979697.0,61.0,82.0,37.0,84.0,979.697
979707.0,61.0,78.0,34.0,80.0,979.707
979717.0,60.0,75.0,31.0,78.0,979.717
979727.0,61.0,77.0,28.0,73.0,979.727
979737.0,61.0,79.0,27.0,79.0,979.737
979747.0,58.0,91.0,23.0,76.0,979.747
979757.0,58.0,85.0,25.0,74.0,979.757
979767.0,57.0,89.0,29.0,85.0,979.767
979777.0,57.0,87.0,27.0,80.0,979.777
979787.0,55.0,84.0,24.0,74.0,979.787
979798.0,53.0,84.0,21.0,74.0,979.798
979808.0,55.0,80.0,20.0,75.0,979.808
979818.0,56.0,80.0,24.0,75.0,979.818
979828.0,56.0,87.0,35.0,70.0,979.828
979838.0,54.0,85.0,40.0,67.0,979.838
979848.0,52.0,81.0,36.0,61.0,979.848
979858.0,52.0,76.0,32.0,58.0,979.858
979868.0,51.0,75.0,28.0,56.0,979.868
979878.0,51.0,75.0,26.0,57.0,979.878
979888.0,49.0,72.0,23.0,55.0,979.888
979898.0,50.0,71.0,21.0,56.0,979.898
979908.0,49.0,70.0,25.0,73.0,979.908
979918.0,50.0,66.0,35.0,74.0,979.918
979928.0,49.0,66.0,33.0,89.0,979.928
979938.0,51.0,65.0,32.0,94.0,979.938
979948.0,54.0,66.0,39.0,111.0,979.948
979958.0,57.0,64.0,34.0,126.0,979.958
979968.0,58.0,63.0,32.0,137.0,979.968
979978.0,60.0,64.0,44.0,132.0,979.978
979988.0,65.0,62.0,48.0,134.0,979.988
979998.0,62.0,63.0,45.0,162.0,979.998
980008.0,63.0,68.0,42.0,193.0,980.008
980018.0,63.0,70.0,39.0,201.0,980.018
980028.0,64.0,68.0,35.0,195.0,980.028
980038.0,66.0,68.0,31.0,195.0,980.038
980048.0,75.0,69.0,28.0,178.0,980.048
980058.0,73.0,75.0,26.0,166.0,980.058
980068.0,81.0,84.0,25.0,150.0,980.068
980078.0,78.0,97.0,21.0,135.0,980.078
980088.0,86.0,111.0,20.0,128.0,980.088
980098.0,98.0,124.0,16.0,126.0,980.098
980108.0,110.0,143.0,16.0,122.0,980.108
980118.0,112.0,165.0,14.0,117.0,980.118
980128.0,113.0,178.0,13.0,122.0,980.128
980139.0,115.0,193.0,12.0,120.0,980.139
980149.0,115.0,200.0,12.0,121.0,980.149
980159.0,111.0,199.0,13.0,197.0,980.159
980169.0,108.0,201.0,16.0,245.0,980.169
980179.0,105.0,198.0,17.0,238.0,980.179
980189.0,100.0,196.0,18.0,226.0,980.189
980199.0,102.0,200.0,20.0,233.0,980.199
980209.0,111.0,194.0,36.0,236.0,980.209
980219.0,130.0,194.0,72.0,295.0,980.219
980229.0,130.0,188.0,75.0,307.0,980.229
980239.0,142.0,181.0,78.0,324.0,980.239
980249.0,147.0,169.0,85.0,326.0,980.249
980259.0,149.0,160.0,79.0,339.0,980.259
980269.0,155.0,156.0,78.0,327.0,980.269
980279.0,151.0,166.0,111.0,323.0,980.279
980289.0,149.0,180.0,121.0,359.0,980.289
980299.0,151.0,202.0,149.0,401.0,980.299
980310.0,150.0,221.0,142.0,403.0,980.31
980320.0,148.0,234.0,127.0,378.0,980.32
980330.0,143.0,245.0,122.0,359.0,980.33
980340.0,139.0,252.0,111.0,319.0,980.34
980350.0,135.0,258.0,96.0,302.0,980.35
980360.0,129.0,258.0,88.0,286.0,980.36
980370.0,125.0,258.0,87.0,306.0,980.37
980380.0,122.0,262.0,100.0,314.0,980.38
980390.0,124.0,267.0,96.0,290.0,980.39
980400.0,124.0,267.0,89.0,272.0,980.4
980410.0,124.0,266.0,81.0,276.0,980.41
980420.0,119.0,262.0,85.0,270.0,980.42
980430.0,115.0,256.0,81.0,273.0,980.43
980440.0,114.0,253.0,94.0,259.0,980.44
980450.0,118.0,254.0,89.0,254.0,980.45
980460.0,121.0,251.0,82.0,226.0,980.46
980470.0,119.0,248.0,75.0,211.0,980.47
980480.0,122.0,244.0,69.0,196.0,980.48
980490.0,118.0,239.0,66.0,205.0,980.49
980500.0,119.0,234.0,61.0,203.0,980.5
980510.0,120.0,228.0,71.0,192.0,980.51
980520.0,118.0,222.0,68.0,185.0,980.52
980530.0,120.0,219.0,66.0,176.0,980.53
980540.0,120.0,213.0,65.0,166.0,980.54
980550.0,117.0,207.0,63.0,186.0,980.55
980560.0,117.0,201.0,57.0,173.0,980.56
980570.0,116.0,199.0,71.0,178.0,980.57
980580.0,115.0,195.0,67.0,163.0,980.58
980590.0,114.0,191.0,62.0,153.0,980.59
980600.0,112.0,188.0,56.0,143.0,980.6
980610.0,110.0,184.0,55.0,138.0,980.61
980620.0,110.0,181.0,53.0,129.0,980.62
980630.0,109.0,175.0,59.0,135.0,980.63
980640.0,111.0,175.0,61.0,144.0,980.64
980651.0,111.0,172.0,63.0,154.0,980.651
980661.0,111.0,171.0,60.0,144.0,980.661
980671.0,112.0,168.0,57.0,141.0,980.671
980681.0,112.0,165.0,49.0,147.0,980.681
980691.0,111.0,160.0,50.0,149.0,980.691
980701.0,113.0,159.0,50.0,147.0,980.701
980711.0,112.0,156.0,59.0,144.0,980.711
980721.0,112.0,153.0,60.0,137.0,980.721
980731.0,111.0,151.0,54.0,144.0,980.731
980741.0,112.0,148.0,49.0,144.0,980.741
980751.0,113.0,147.0,44.0,129.0,980.751
980761.0,113.0,147.0,39.0,128.0,980.761
980771.0,111.0,143.0,38.0,126.0,980.771
980781.0,109.0,143.0,35.0,123.0,980.781
980791.0,109.0,142.0,31.0,118.0,980.791
980801.0,107.0,139.0,36.0,115.0,980.801
980811.0,108.0,138.0,39.0,107.0,980.811
980822.0,106.0,138.0,34.0,129.0,980.822
980832.0,105.0,135.0,33.0,130.0,980.832
980842.0,106.0,134.0,31.0,132.0,980.842
980852.0,104.0,133.0,29.0,133.0,980.852
980862.0,103.0,133.0,39.0,127.0,980.862
980872.0,101.0,131.0,35.0,119.0,980.872
980882.0,102.0,131.0,33.0,109.0,980.882
980892.0,101.0,129.0,35.0,133.0,980.892
980902.0,100.0,127.0,46.0,134.0,980.902
980912.0,100.0,126.0,52.0,129.0,980.912
980922.0,99.0,126.0,47.0,128.0,980.922
980932.0,99.0,122.0,45.0,122.0,980.932
980942.0,99.0,122.0,45.0,123.0,980.942
980952.0,101.0,121.0,41.0,121.0,980.952
980962.0,100.0,117.0,35.0,119.0,980.962
980972.0,101.0,115.0,32.0,145.0,980.972
980982.0,100.0,112.0,31.0,138.0,980.982
980992.0,101.0,112.0,29.0,129.0,980.992
981002.0,101.0,110.0,29.0,118.0,981.002
981012.0,101.0,108.0,26.0,109.0,981.012
981022.0,101.0,105.0,35.0,102.0,981.022
981032.0,100.0,103.0,31.0,95.0,981.032
981042.0,100.0,103.0,28.0,94.0,981.042
981052.0,99.0,100.0,32.0,100.0,981.052
981062.0,100.0,99.0,30.0,108.0,981.062
981072.0,101.0,101.0,31.0,110.0,981.072
981082.0,102.0,101.0,27.0,108.0,981.082
981092.0,101.0,100.0,25.0,105.0,981.092
981102.0,99.0,98.0,26.0,109.0,981.102
981112.0,100.0,99.0,38.0,106.0,981.112
981122.0,101.0,97.0,35.0,101.0,981.122
981132.0,102.0,99.0,31.0,100.0,981.132
981142.0,102.0,97.0,34.0,105.0,981.142
981152.0,105.0,98.0,34.0,110.0,981.152
981163.0,105.0,98.0,31.0,107.0,981.163
981173.0,107.0,97.0,28.0,104.0,981.173
981183.0,105.0,95.0,32.0,99.0,981.183
981193.0,106.0,96.0,36.0,98.0,981.193
981203.0,104.0,95.0,32.0,92.0,981.203
981213.0,102.0,92.0,32.0,93.0,981.213
981223.0,104.0,93.0,32.0,97.0,981.223
981233.0,102.0,92.0,28.0,91.0,981.233
981243.0,103.0,91.0,25.0,84.0,981.243
981253.0,100.0,89.0,25.0,93.0,981.253
981263.0,100.0,88.0,23.0,90.0,981.263
981273.0,98.0,88.0,29.0,95.0,981.273
981283.0,98.0,89.0,28.0,91.0,981.283
981293.0,98.0,88.0,24.0,84.0,981.293
981303.0,94.0,86.0,26.0,113.0,981.303
981313.0,96.0,89.0,27.0,131.0,981.313
981323.0,93.0,90.0,24.0,123.0,981.323
981334.0,94.0,90.0,22.0,119.0,981.334
981344.0,93.0,87.0,25.0,108.0,981.344
981354.0,94.0,90.0,29.0,104.0,981.354
981364.0,94.0,89.0,31.0,96.0,981.364
981374.0,94.0,91.0,28.0,90.0,981.374
981384.0,94.0,88.0,27.0,96.0,981.384
981394.0,96.0,89.0,25.0,103.0,981.394
981404.0,95.0,86.0,22.0,102.0,981.404
981414.0,95.0,84.0,19.0,98.0,981.414
981424.0,96.0,83.0,18.0,91.0,981.424
981434.0,95.0,81.0,16.0,89.0,981.434
981444.0,93.0,80.0,32.0,93.0,981.444
981454.0,93.0,80.0,30.0,92.0,981.454
981464.0,94.0,82.0,29.0,89.0,981.464
981474.0,95.0,83.0,27.0,86.0,981.474
981484.0,97.0,84.0,23.0,86.0,981.484
981494.0,97.0,82.0,22.0,88.0,981.494
981504.0,99.0,82.0,18.0,88.0,981.504
981514.0,98.0,81.0,16.0,90.0,981.514
981524.0,98.0,79.0,19.0,83.0,981.524
981534.0,99.0,80.0,27.0,79.0,981.534
981544.0,100.0,80.0,26.0,80.0,981.544
981554.0,101.0,80.0,23.0,76.0,981.554
981564.0,103.0,79.0,22.0,75.0,981.564
981574.0,104.0,78.0,18.0,70.0,981.574
981584.0,105.0,77.0,17.0,75.0,981.584
981594.0,104.0,73.0,26.0,79.0,981.594
981604.0,107.0,75.0,25.0,80.0,981.604
981614.0,107.0,72.0,24.0,78.0,981.614
981624.0,108.0,73.0,21.0,83.0,981.624
981634.0,107.0,72.0,22.0,82.0,981.634
981644.0,108.0,71.0,20.0,78.0,981.644
981654.0,108.0,71.0,18.0,78.0,981.654
981664.0,108.0,71.0,19.0,76.0,981.664
981675.0,108.0,73.0,21.0,77.0,981.675
981685.0,108.0,70.0,20.0,90.0,981.685
981695.0,108.0,73.0,32.0,94.0,981.695
981705.0,109.0,74.0,28.0,93.0,981.705
981715.0,111.0,75.0,26.0,97.0,981.715
981725.0,110.0,75.0,23.0,100.0,981.725
981735.0,111.0,76.0,21.0,121.0,981.735
981745.0,110.0,76.0,20.0,112.0,981.745
981755.0,111.0,76.0,18.0,112.0,981.755
981765.0,109.0,77.0,22.0,108.0,981.765
981775.0,110.0,79.0,20.0,102.0,981.775
981785.0,110.0,80.0,34.0,106.0,981.785
981795.0,108.0,80.0,34.0,105.0,981.795
981805.0,108.0,81.0,34.0,102.0,981.805
981815.0,106.0,83.0,31.0,97.0,981.815
981825.0,105.0,83.0,28.0,89.0,981.825
981835.0,105.0,83.0,24.0,85.0,981.835
981846.0,103.0,82.0,21.0,85.0,981.846
981856.0,102.0,82.0,19.0,92.0,981.856
981866.0,100.0,82.0,22.0,96.0,981.866
981876.0,101.0,85.0,23.0,93.0,981.876
981886.0,100.0,86.0,37.0,89.0,981.886
981896.0,102.0,86.0,34.0,84.0,981.896
981906.0,102.0,89.0,29.0,87.0,981.906
981916.0,101.0,86.0,33.0,81.0,981.916
981926.0,102.0,86.0,31.0,77.0,981.926
981936.0,102.0,85.0,28.0,75.0,981.936
981946.0,101.0,84.0,25.0,70.0,981.946
981956.0,98.0,82.0,25.0,71.0,981.956
981966.0,99.0,81.0,33.0,80.0,981.966
981976.0,100.0,83.0,29.0,80.0,981.976
981986.0,101.0,82.0,26.0,85.0,981.986
981996.0,100.0,80.0,24.0,82.0,981.996
982006.0,102.0,81.0,22.0,82.0,982.006
982016.0,101.0,80.0,20.0,81.0,982.016
982026.0,100.0,81.0,18.0,80.0,982.026
982036.0,99.0,80.0,16.0,74.0,982.036
982046.0,97.0,78.0,17.0,72.0,982.046
982056.0,97.0,77.0,15.0,75.0,982.056
982066.0,98.0,77.0,14.0,72.0,982.066
982076.0,95.0,75.0,16.0,67.0,982.076
982086.0,97.0,76.0,15.0,67.0,982.086
982096.0,95.0,73.0,29.0,75.0,982.096
982106.0,96.0,73.0,38.0,76.0,982.106
982116.0,95.0,72.0,41.0,73.0,982.116
982126.0,93.0,71.0,44.0,81.0,982.126
982136.0,95.0,71.0,40.0,84.0,982.136
982146.0,93.0,69.0,36.0,85.0,982.146
982156.0,94.0,69.0,37.0,89.0,982.156
982166.0,91.0,68.0,32.0,85.0,982.166
982176.0,91.0,66.0,28.0,86.0,982.176
982187.0,90.0,65.0,26.0,84.0,982.187
982197.0,90.0,65.0,24.0,85.0,982.197
982207.0,89.0,63.0,34.0,90.0,982.207
982217.0,86.0,61.0,43.0,91.0,982.217
982227.0,89.0,61.0,44.0,91.0,982.227
982237.0,90.0,61.0,39.0,86.0,982.237
982247.0,91.0,62.0,35.0,83.0,982.247
982257.0,92.0,62.0,31.0,77.0,982.257
982267.0,91.0,61.0,28.0,73.0,982.267
982277.0,93.0,60.0,28.0,71.0,982.277
982287.0,94.0,61.0,24.0,100.0,982.287
982297.0,93.0,57.0,24.0,97.0,982.297
982307.0,95.0,58.0,29.0,93.0,982.307
982317.0,96.0,57.0,26.0,87.0,982.317
982327.0,96.0,56.0,22.0,80.0,982.327
982337.0,96.0,56.0,20.0,78.0,982.337
982347.0,97.0,57.0,20.0,72.0,982.347
982358.0,96.0,56.0,22.0,81.0,982.358
982368.0,97.0,57.0,28.0,85.0,982.368
982378.0,98.0,60.0,25.0,87.0,982.378
982388.0,98.0,60.0,33.0,89.0,982.388
982398.0,98.0,59.0,32.0,93.0,982.398
982408.0,98.0,60.0,28.0,87.0,982.408
982418.0,98.0,59.0,27.0,94.0,982.418
982428.0,94.0,57.0,26.0,93.0,982.428
982438.0,95.0,56.0,26.0,92.0,982.438
982448.0,94.0,55.0,24.0,100.0,982.448
982458.0,94.0,54.0,21.0,92.0,982.458
982468.0,93.0,52.0,22.0,87.0,982.468
982478.0,92.0,51.0,20.0,83.0,982.478
982488.0,90.0,48.0,17.0,78.0,982.488
982498.0,88.0,49.0,14.0,78.0,982.498
982508.0,87.0,47.0,14.0,73.0,982.508
982518.0,86.0,47.0,12.0,72.0,982.518
982528.0,85.0,47.0,12.0,75.0,982.528
982538.0,84.0,48.0,11.0,70.0,982.538
982548.0,83.0,49.0,9.0,74.0,982.548
982558.0,82.0,50.0,10.0,67.0,982.558
982568.0,80.0,50.0,7.0,66.0,982.568
982578.0,81.0,51.0,11.0,63.0,982.578
982588.0,79.0,50.0,11.0,79.0,982.588
982598.0,80.0,51.0,35.0,80.0,982.598
982608.0,82.0,55.0,33.0,83.0,982.608
982618.0,83.0,56.0,34.0,80.0,982.618
982628.0,82.0,54.0,32.0,77.0,982.628
982638.0,82.0,54.0,26.0,78.0,982.638
982648.0,80.0,52.0,30.0,76.0,982.648
982658.0,79.0,51.0,41.0,78.0,982.658
982668.0,79.0,50.0,53.0,82.0,982.668
982678.0,80.0,50.0,51.0,77.0,982.678
982688.0,79.0,50.0,49.0,78.0,982.688
982699.0,81.0,51.0,46.0,74.0,982.699
982709.0,81.0,50.0,42.0,78.0,982.709
982719.0,83.0,51.0,41.0,84.0,982.719
982729.0,85.0,51.0,35.0,82.0,982.729
982739.0,85.0,50.0,34.0,84.0,982.739
982749.0,86.0,50.0,37.0,87.0,982.749
982759.0,88.0,50.0,44.0,89.0,982.759
982769.0,89.0,51.0,48.0,91.0,982.769
982779.0,86.0,49.0,46.0,95.0,982.779
982789.0,89.0,51.0,46.0,100.0,982.789
982799.0,89.0,51.0,39.0,99.0,982.799
982809.0,88.0,49.0,35.0,96.0,982.809
982819.0,89.0,48.0,32.0,93.0,982.819
982829.0,88.0,48.0,43.0,91.0,982.829
982839.0,89.0,46.0,42.0,84.0,982.839
982849.0,86.0,46.0,36.0,88.0,982.849
982859.0,86.0,47.0,32.0,84.0,982.859
982870.0,86.0,48.0,35.0,99.0,982.87
982880.0,85.0,48.0,32.0,96.0,982.88
982890.0,85.0,47.0,31.0,88.0,982.89
982900.0,84.0,46.0,33.0,81.0,982.9
982910.0,85.0,48.0,38.0,77.0,982.91
982920.0,84.0,48.0,45.0,80.0,982.92
982930.0,83.0,47.0,49.0,85.0,982.93
982940.0,85.0,49.0,46.0,89.0,982.94
982950.0,83.0,46.0,42.0,84.0,982.95
982960.0,84.0,45.0,38.0,81.0,982.96
982970.0,83.0,47.0,44.0,78.0,982.97
982980.0,83.0,46.0,45.0,81.0,982.98
982990.0,80.0,46.0,42.0,80.0,982.99
983000.0,81.0,47.0,39.0,91.0,983.0
983010.0,79.0,45.0,34.0,88.0,983.01
983020.0,79.0,45.0,34.0,85.0,983.02
983030.0,79.0,44.0,33.0,79.0,983.03
983040.0,77.0,45.0,31.0,86.0,983.04
983050.0,77.0,44.0,41.0,85.0,983.05
983060.0,78.0,46.0,36.0,89.0,983.06
983070.0,77.0,44.0,36.0,84.0,983.07
983080.0,77.0,43.0,32.0,79.0,983.08
983090.0,76.0,41.0,28.0,72.0,983.09
983100.0,76.0,40.0,26.0,68.0,983.1
983110.0,73.0,39.0,23.0,68.0,983.11
983120.0,73.0,40.0,21.0,70.0,983.12
983130.0,70.0,39.0,18.0,69.0,983.13
983140.0,68.0,40.0,26.0,65.0,983.14
983150.0,67.0,39.0,32.0,71.0,983.15
983160.0,67.0,39.0,27.0,71.0,983.16
983170.0,68.0,39.0,27.0,70.0,983.17
983180.0,67.0,38.0,24.0,71.0,983.18
983190.0,68.0,38.0,24.0,67.0,983.19
983200.0,66.0,39.0,34.0,66.0,983.2
983211.0,67.0,38.0,29.0,65.0,983.211
983221.0,67.0,39.0,27.0,72.0,983.221
983231.0,67.0,39.0,24.0,72.0,983.231
983241.0,68.0,38.0,22.0,71.0,983.241
983251.0,68.0,37.0,21.0,72.0,983.251
983261.0,69.0,39.0,25.0,68.0,983.261
983271.0,69.0,40.0,24.0,66.0,983.271
983281.0,68.0,41.0,40.0,79.0,983.281
983291.0,69.0,41.0,36.0,85.0,983.291
983301.0,70.0,41.0,32.0,81.0,983.301
983311.0,69.0,39.0,30.0,80.0,983.311
983321.0,69.0,39.0,27.0,79.0,983.321
983331.0,71.0,39.0,25.0,72.0,983.331
983341.0,70.0,38.0,21.0,72.0,983.341
983351.0,70.0,42.0,32.0,70.0,983.351
983361.0,71.0,43.0,30.0,71.0,983.361
983371.0,72.0,42.0,29.0,68.0,983.371
983382.0,72.0,41.0,26.0,62.0,983.382
983392.0,72.0,40.0,23.0,61.0,983.392
983402.0,71.0,39.0,24.0,62.0,983.402
983412.0,70.0,42.0,26.0,73.0,983.412
983422.0,72.0,42.0,23.0,73.0,983.422
983432.0,72.0,41.0,21.0,71.0,983.432
983442.0,72.0,40.0,19.0,74.0,983.442
983452.0,72.0,39.0,17.0,70.0,983.452
983462.0,71.0,39.0,15.0,68.0,983.462
983472.0,71.0,38.0,14.0,65.0,983.472
983482.0,70.0,40.0,14.0,67.0,983.482
983492.0,70.0,41.0,18.0,74.0,983.492
983502.0,73.0,41.0,16.0,69.0,983.502
983512.0,71.0,42.0,14.0,69.0,983.512
983522.0,72.0,40.0,14.0,68.0,983.522
983532.0,72.0,42.0,14.0,66.0,983.532
983542.0,74.0,41.0,14.0,63.0,983.542
983552.0,74.0,40.0,12.0,63.0,983.552
983562.0,72.0,40.0,14.0,61.0,983.562
983572.0,72.0,40.0,14.0,61.0,983.572
983582.0,70.0,43.0,16.0,64.0,983.582
983592.0,70.0,42.0,18.0,68.0,983.592
983602.0,70.0,43.0,15.0,67.0,983.602
983612.0,71.0,42.0,17.0,64.0,983.612
983622.0,70.0,41.0,14.0,61.0,983.622
983632.0,68.0,42.0,15.0,58.0,983.632
983642.0,68.0,45.0,32.0,62.0,983.642
983652.0,67.0,46.0,29.0,63.0,983.652
983662.0,67.0,46.0,26.0,61.0,983.662
983672.0,67.0,46.0,23.0,57.0,983.672
983682.0,66.0,46.0,21.0,55.0,983.682
983692.0,65.0,49.0,18.0,56.0,983.692
983702.0,64.0,50.0,20.0,56.0,983.702
983712.0,64.0,52.0,35.0,59.0,983.712
983723.0,65.0,51.0,33.0,60.0,983.723
983733.0,65.0,51.0,30.0,63.0,983.733
983743.0,64.0,51.0,25.0,60.0,983.743
983753.0,65.0,53.0,25.0,61.0,983.753
983763.0,64.0,52.0,22.0,59.0,983.763
983773.0,64.0,53.0,20.0,57.0,983.773
983783.0,65.0,55.0,19.0,61.0,983.783
983793.0,66.0,56.0,31.0,60.0,983.793
983803.0,68.0,56.0,31.0,70.0,983.803
983813.0,68.0,55.0,28.0,72.0,983.813
983823.0,69.0,55.0,25.0,67.0,983.823
983833.0,69.0,54.0,22.0,71.0,983.833
983843.0,68.0,55.0,20.0,68.0,983.843
983853.0,68.0,55.0,18.0,65.0,983.853
983863.0,67.0,57.0,19.0,64.0,983.863
983873.0,66.0,58.0,18.0,63.0,983.873
983883.0,65.0,60.0,21.0,62.0,983.883
983894.0,68.0,59.0,28.0,65.0,983.894
983904.0,69.0,58.0,22.0,62.0,983.904
983914.0,68.0,57.0,21.0,60.0,983.914
983924.0,67.0,57.0,19.0,65.0,983.924
983934.0,67.0,56.0,18.0,63.0,983.934
983944.0,68.0,53.0,17.0,64.0,983.944
983954.0,69.0,52.0,15.0,61.0,983.954
983964.0,69.0,53.0,30.0,64.0,983.964
983974.0,68.0,50.0,29.0,62.0,983.974
983984.0,68.0,48.0,26.0,59.0,983.984
983994.0,68.0,46.0,25.0,59.0,983.994
984004.0,69.0,45.0,23.0,56.0,984.004
984014.0,67.0,43.0,23.0,58.0,984.014
984024.0,67.0,43.0,25.0,56.0,984.024
984034.0,69.0,42.0,22.0,56.0,984.034
984044.0,69.0,40.0,18.0,54.0,984.044
984054.0,69.0,40.0,19.0,55.0,984.054
984064.0,70.0,41.0,31.0,53.0,984.064
984074.0,70.0,41.0,32.0,61.0,984.074
984084.0,70.0,38.0,30.0,57.0,984.084
984094.0,70.0,39.0,29.0,55.0,984.094
984104.0,71.0,39.0,28.0,56.0,984.104
984114.0,70.0,38.0,24.0,54.0,984.114
984124.0,70.0,37.0,21.0,53.0,984.124
984134.0,69.0,37.0,19.0,52.0,984.134
984144.0,67.0,38.0,17.0,58.0,984.144
984154.0,66.0,37.0,15.0,57.0,984.154
984164.0,66.0,39.0,25.0,56.0,984.164
984174.0,70.0,38.0,22.0,53.0,984.174
984184.0,70.0,38.0,22.0,54.0,984.184
984194.0,71.0,37.0,23.0,56.0,984.194
984204.0,72.0,37.0,20.0,55.0,984.204
984214.0,72.0,40.0,19.0,55.0,984.214
984224.0,71.0,38.0,17.0,52.0,984.224
984235.0,69.0,39.0,17.0,51.0,984.235
984245.0,69.0,39.0,19.0,49.0,984.245
984255.0,68.0,38.0,16.0,56.0,984.255
984265.0,66.0,40.0,30.0,54.0,984.265
984275.0,67.0,39.0,29.0,51.0,984.275
984285.0,66.0,38.0,26.0,50.0,984.285
984295.0,66.0,38.0,24.0,54.0,984.295
984305.0,69.0,38.0,21.0,60.0,984.305
984315.0,69.0,38.0,21.0,62.0,984.315
984325.0,70.0,38.0,18.0,59.0,984.325
984335.0,69.0,38.0,16.0,58.0,984.335
984345.0,69.0,37.0,15.0,61.0,984.345
984355.0,68.0,40.0,33.0,63.0,984.355
984365.0,68.0,38.0,33.0,60.0,984.365
984375.0,70.0,39.0,31.0,62.0,984.375
984385.0,71.0,38.0,28.0,60.0,984.385
984395.0,70.0,38.0,25.0,65.0,984.395
984406.0,70.0,37.0,22.0,66.0,984.406
984416.0,70.0,37.0,20.0,72.0,984.416
984426.0,67.0,38.0,33.0,73.0,984.426
984436.0,70.0,38.0,30.0,74.0,984.436
984446.0,70.0,38.0,27.0,74.0,984.446
984456.0,71.0,37.0,25.0,68.0,984.456
984466.0,70.0,36.0,24.0,69.0,984.466
984476.0,70.0,37.0,20.0,71.0,984.476
984486.0,70.0,37.0,19.0,73.0,984.486
984496.0,71.0,37.0,18.0,71.0,984.496
984506.0,70.0,36.0,16.0,74.0,984.506
984516.0,70.0,40.0,32.0,80.0,984.516
984526.0,72.0,40.0,28.0,78.0,984.526
984536.0,70.0,39.0,25.0,78.0,984.536
984546.0,70.0,39.0,22.0,77.0,984.546
984556.0,69.0,37.0,20.0,72.0,984.556
984566.0,67.0,39.0,23.0,71.0,984.566
984576.0,68.0,38.0,24.0,72.0,984.576
984586.0,67.0,38.0,21.0,69.0,984.586
984596.0,67.0,40.0,26.0,71.0,984.596
984606.0,68.0,39.0,22.0,69.0,984.606
984616.0,66.0,39.0,20.0,64.0,984.616
984626.0,65.0,40.0,18.0,63.0,984.626
984636.0,63.0,42.0,17.0,60.0,984.636
984646.0,63.0,40.0,15.0,55.0,984.646
984656.0,61.0,41.0,13.0,54.0,984.656
984666.0,60.0,42.0,15.0,62.0,984.666
984676.0,61.0,44.0,33.0,69.0,984.676
984686.0,60.0,45.0,29.0,72.0,984.686
984696.0,60.0,43.0,26.0,71.0,984.696
984706.0,59.0,43.0,24.0,68.0,984.706
984716.0,59.0,44.0,23.0,64.0,984.716
984726.0,58.0,45.0,23.0,62.0,984.726
984736.0,59.0,45.0,22.0,61.0,984.736
984747.0,59.0,47.0,21.0,65.0,984.747
984757.0,60.0,48.0,33.0,65.0,984.757
984767.0,61.0,47.0,30.0,62.0,984.767
984777.0,61.0,50.0,29.0,59.0,984.777
984787.0,61.0,50.0,26.0,60.0,984.787
984797.0,61.0,53.0,23.0,69.0,984.797
984807.0,60.0,54.0,22.0,66.0,984.807
984817.0,60.0,54.0,26.0,64.0,984.817
984827.0,60.0,53.0,30.0,61.0,984.827
984837.0,59.0,52.0,33.0,61.0,984.837
984847.0,59.0,51.0,30.0,60.0,984.847
984857.0,59.0,48.0,26.0,60.0,984.857
984867.0,57.0,48.0,24.0,61.0,984.867
984877.0,57.0,47.0,21.0,58.0,984.877
984887.0,56.0,46.0,21.0,58.0,984.887
984897.0,54.0,46.0,18.0,58.0,984.897
984907.0,54.0,47.0,24.0,58.0,984.907
984918.0,56.0,47.0,25.0,63.0,984.918
984928.0,56.0,45.0,24.0,62.0,984.928
984938.0,56.0,44.0,20.0,61.0,984.938
984948.0,57.0,43.0,18.0,59.0,984.948
984958.0,56.0,43.0,18.0,61.0,984.958
984968.0,53.0,44.0,20.0,62.0,984.968
984978.0,54.0,44.0,31.0,64.0,984.978
984988.0,55.0,43.0,27.0,68.0,984.988
984998.0,56.0,41.0,24.0,66.0,984.998
985008.0,55.0,43.0,25.0,63.0,985.008
985018.0,56.0,41.0,23.0,58.0,985.018
985028.0,55.0,41.0,20.0,58.0,985.028
985038.0,56.0,40.0,19.0,57.0,985.038
985048.0,58.0,40.0,18.0,59.0,985.048
985058.0,56.0,41.0,27.0,56.0,985.058
985068.0,57.0,39.0,33.0,52.0,985.068
985078.0,57.0,39.0,33.0,58.0,985.078
985088.0,58.0,39.0,31.0,60.0,985.088
985098.0,59.0,40.0,28.0,62.0,985.098
985108.0,58.0,39.0,23.0,64.0,985.108
985118.0,60.0,37.0,22.0,61.0,985.118
985128.0,61.0,41.0,32.0,61.0,985.128
985138.0,61.0,40.0,35.0,60.0,985.138
985148.0,62.0,40.0,31.0,60.0,985.148
985158.0,61.0,42.0,33.0,68.0,985.158
985168.0,62.0,42.0,30.0,67.0,985.168
985178.0,61.0,42.0,27.0,66.0,985.178
985188.0,63.0,44.0,23.0,63.0,985.188
985198.0,64.0,45.0,21.0,63.0,985.198
985208.0,64.0,46.0,19.0,62.0,985.208
985218.0,63.0,47.0,19.0,62.0,985.218
985228.0,62.0,48.0,38.0,65.0,985.228
985238.0,61.0,47.0,36.0,72.0,985.238
985248.0,60.0,45.0,32.0,77.0,985.248
985259.0,60.0,43.0,30.0,72.0,985.259
985269.0,59.0,43.0,26.0,76.0,985.269
985279.0,59.0,40.0,23.0,77.0,985.279
985289.0,59.0,40.0,20.0,73.0,985.289
985299.0,59.0,41.0,29.0,74.0,985.299
985309.0,59.0,40.0,29.0,74.0,985.309
985319.0,58.0,40.0,28.0,71.0,985.319
985329.0,60.0,40.0,26.0,68.0,985.329
985339.0,59.0,41.0,23.0,69.0,985.339
985349.0,60.0,41.0,21.0,69.0,985.349
985359.0,59.0,42.0,19.0,65.0,985.359
985369.0,60.0,42.0,22.0,63.0,985.369
985379.0,59.0,42.0,31.0,60.0,985.379
985389.0,59.0,41.0,27.0,56.0,985.389
985399.0,57.0,41.0,24.0,54.0,985.399
985409.0,57.0,42.0,25.0,60.0,985.409
985419.0,56.0,42.0,28.0,71.0,985.419
985430.0,56.0,43.0,25.0,68.0,985.43
985440.0,56.0,43.0,24.0,65.0,985.44
985450.0,57.0,45.0,36.0,65.0,985.45
985460.0,55.0,43.0,31.0,63.0,985.46
985470.0,57.0,41.0,28.0,63.0,985.47
985480.0,58.0,43.0,24.0,62.0,985.48
985490.0,58.0,41.0,27.0,62.0,985.49
985500.0,59.0,40.0,28.0,60.0,985.5
985510.0,60.0,41.0,31.0,59.0,985.51
985520.0,60.0,40.0,38.0,58.0,985.52
985530.0,58.0,42.0,34.0,57.0,985.53
985540.0,58.0,40.0,31.0,57.0,985.54
985550.0,58.0,41.0,27.0,56.0,985.55
985560.0,58.0,40.0,28.0,52.0,985.56
985570.0,59.0,39.0,32.0,51.0,985.57
985580.0,59.0,43.0,41.0,57.0,985.58
985590.0,60.0,42.0,36.0,55.0,985.59
985600.0,57.0,41.0,33.0,55.0,985.6
985610.0,57.0,41.0,32.0,57.0,985.61
985620.0,58.0,41.0,29.0,56.0,985.62
985630.0,56.0,39.0,28.0,58.0,985.63
985640.0,56.0,38.0,24.0,54.0,985.64
985650.0,55.0,38.0,24.0,56.0,985.65
985660.0,56.0,40.0,31.0,65.0,985.66
985670.0,54.0,39.0,26.0,65.0,985.67
985680.0,53.0,38.0,25.0,65.0,985.68
985690.0,51.0,39.0,22.0,67.0,985.69
985700.0,49.0,38.0,20.0,64.0,985.7
985710.0,51.0,38.0,20.0,64.0,985.71
985720.0,52.0,36.0,18.0,66.0,985.72
985730.0,54.0,35.0,19.0,65.0,985.73
985740.0,54.0,38.0,23.0,64.0,985.74
985750.0,57.0,37.0,29.0,65.0,985.75
985760.0,58.0,38.0,26.0,66.0,985.76
985771.0,59.0,37.0,24.0,64.0,985.771
