time (ms),signal 0,signal 1,signal 2,signal3,time (sec)
1023706.0,52.0,36.0,13.0,90.0,1023.706
1023716.0,54.0,37.0,12.0,85.0,1023.716
1023726.0,53.0,37.0,16.0,83.0,1023.726
1023736.0,53.0,36.0,16.0,85.0,1023.736
1023746.0,51.0,38.0,16.0,84.0,1023.746
1023756.0,50.0,37.0,14.0,87.0,1023.756
1023766.0,48.0,37.0,13.0,93.0,1023.766
1023776.0,49.0,36.0,14.0,94.0,1023.776
1023787.0,47.0,36.0,14.0,97.0,1023.787
1023797.0,47.0,36.0,13.0,92.0,1023.797
1023807.0,46.0,37.0,16.0,87.0,1023.807
1023817.0,45.0,38.0,14.0,83.0,1023.817
1023827.0,46.0,36.0,16.0,90.0,1023.827
1023837.0,45.0,37.0,15.0,94.0,1023.837
1023847.0,45.0,38.0,15.0,92.0,1023.847
1023857.0,45.0,40.0,14.0,89.0,1023.857
1023867.0,47.0,39.0,12.0,85.0,1023.867
1023877.0,48.0,40.0,12.0,91.0,1023.877
1023887.0,48.0,41.0,11.0,85.0,1023.887
1023897.0,49.0,39.0,18.0,81.0,1023.897
1023907.0,49.0,41.0,17.0,93.0,1023.907
1023917.0,51.0,41.0,17.0,92.0,1023.917
1023927.0,50.0,40.0,14.0,88.0,1023.927
1023937.0,52.0,41.0,19.0,95.0,1023.937
1023947.0,53.0,39.0,18.0,97.0,1023.947
1023958.0,54.0,39.0,17.0,92.0,1023.958
1023968.0,54.0,39.0,16.0,92.0,1023.968
1023978.0,53.0,39.0,15.0,83.0,1023.978
1023988.0,54.0,39.0,18.0,82.0,1023.988
1023998.0,54.0,39.0,17.0,89.0,1023.998
1024008.0,54.0,39.0,16.0,87.0,1024.008
1024018.0,56.0,39.0,15.0,84.0,1024.018
1024028.0,56.0,38.0,14.0,88.0,1024.028
1024038.0,56.0,36.0,16.0,80.0,1024.038
1024048.0,57.0,38.0,14.0,81.0,1024.048
1024058.0,57.0,36.0,15.0,78.0,1024.058
1024068.0,57.0,35.0,14.0,77.0,1024.068
1024078.0,58.0,36.0,13.0,72.0,1024.078
1024088.0,57.0,36.0,16.0,66.0,1024.088
1024098.0,58.0,36.0,16.0,62.0,1024.098
1024108.0,59.0,35.0,14.0,70.0,1024.108
1024118.0,58.0,36.0,13.0,76.0,1024.118
1024128.0,60.0,36.0,15.0,75.0,1024.128
1024138.0,61.0,35.0,14.0,75.0,1024.138
1024148.0,62.0,36.0,12.0,74.0,1024.148
1024158.0,62.0,36.0,12.0,73.0,1024.158
1024168.0,61.0,37.0,10.0,94.0,1024.168
1024178.0,62.0,36.0,10.0,91.0,1024.178
1024188.0,61.0,36.0,10.0,90.0,1024.188
1024198.0,61.0,36.0,11.0,92.0,1024.198
1024208.0,61.0,35.0,9.0,91.0,1024.208
1024218.0,61.0,35.0,10.0,103.0,1024.218
1024228.0,62.0,35.0,10.0,113.0,1024.228
1024238.0,64.0,36.0,11.0,114.0,1024.238
1024248.0,66.0,35.0,11.0,109.0,1024.248
1024258.0,67.0,35.0,9.0,102.0,1024.258
1024268.0,65.0,35.0,9.0,118.0,1024.268
1024278.0,65.0,37.0,15.0,107.0,1024.278
1024288.0,64.0,37.0,14.0,102.0,1024.288
1024299.0,65.0,36.0,14.0,101.0,1024.299
1024309.0,67.0,39.0,13.0,95.0,1024.309
1024319.0,67.0,38.0,15.0,102.0,1024.319
1024329.0,67.0,40.0,13.0,98.0,1024.329
1024339.0,68.0,40.0,13.0,99.0,1024.339
1024349.0,69.0,40.0,11.0,102.0,1024.349
1024359.0,66.0,42.0,11.0,108.0,1024.359
1024369.0,68.0,41.0,15.0,109.0,1024.369
1024379.0,67.0,42.0,19.0,104.0,1024.379
1024389.0,67.0,40.0,17.0,108.0,1024.389
1024399.0,66.0,42.0,16.0,105.0,1024.399
1024409.0,66.0,41.0,15.0,117.0,1024.409
1024419.0,66.0,39.0,12.0,114.0,1024.419
1024429.0,65.0,38.0,12.0,105.0,1024.429
1024439.0,64.0,37.0,11.0,101.0,1024.439
1024449.0,62.0,38.0,10.0,101.0,1024.449
1024459.0,60.0,37.0,9.0,106.0,1024.459
1024470.0,58.0,40.0,8.0,105.0,1024.47
1024480.0,56.0,43.0,9.0,99.0,1024.48
1024490.0,55.0,44.0,7.0,92.0,1024.49
1024500.0,55.0,44.0,7.0,87.0,1024.5
1024510.0,54.0,43.0,6.0,89.0,1024.51
1024520.0,54.0,44.0,7.0,86.0,1024.52
1024530.0,54.0,42.0,7.0,82.0,1024.53
1024540.0,53.0,42.0,8.0,84.0,1024.54
1024550.0,56.0,41.0,9.0,82.0,1024.55
1024560.0,56.0,40.0,14.0,88.0,1024.56
1024570.0,55.0,41.0,17.0,97.0,1024.57
1024580.0,53.0,45.0,16.0,99.0,1024.58
1024590.0,55.0,48.0,17.0,92.0,1024.59
1024600.0,57.0,46.0,15.0,90.0,1024.6
1024610.0,56.0,51.0,15.0,88.0,1024.61
1024620.0,57.0,62.0,14.0,98.0,1024.62
1024630.0,59.0,69.0,13.0,109.0,1024.63
1024640.0,57.0,75.0,12.0,123.0,1024.64
1024650.0,57.0,100.0,11.0,118.0,1024.65
1024660.0,61.0,118.0,23.0,116.0,1024.66
1024670.0,71.0,174.0,40.0,111.0,1024.67
1024680.0,77.0,229.0,59.0,114.0,1024.68
1024690.0,78.0,268.0,59.0,112.0,1024.69
1024700.0,84.0,304.0,56.0,128.0,1024.7
1024710.0,87.0,294.0,48.0,128.0,1024.71
1024720.0,90.0,327.0,53.0,117.0,1024.72
1024730.0,94.0,320.0,48.0,107.0,1024.73
1024740.0,88.0,293.0,46.0,100.0,1024.74
1024750.0,83.0,275.0,49.0,108.0,1024.75
1024760.0,85.0,304.0,53.0,122.0,1024.76
1024770.0,90.0,301.0,50.0,124.0,1024.77
1024780.0,90.0,348.0,62.0,132.0,1024.78
1024790.0,97.0,337.0,57.0,138.0,1024.79
1024800.0,98.0,345.0,54.0,141.0,1024.8
1024811.0,102.0,325.0,52.0,144.0,1024.811
1024821.0,102.0,330.0,49.0,138.0,1024.821
1024831.0,111.0,355.0,49.0,138.0,1024.831
1024841.0,120.0,347.0,52.0,149.0,1024.841
1024851.0,119.0,347.0,45.0,157.0,1024.851
1024861.0,119.0,362.0,51.0,179.0,1024.861
1024871.0,123.0,406.0,61.0,199.0,1024.871
1024881.0,129.0,388.0,60.0,194.0,1024.881
1024891.0,124.0,376.0,53.0,194.0,1024.891
1024901.0,124.0,370.0,55.0,199.0,1024.901
1024911.0,123.0,378.0,57.0,210.0,1024.911
1024921.0,123.0,389.0,61.0,201.0,1024.921
1024931.0,125.0,386.0,67.0,207.0,1024.931
1024941.0,124.0,369.0,62.0,214.0,1024.941
1024951.0,118.0,364.0,66.0,219.0,1024.951
1024961.0,117.0,364.0,60.0,203.0,1024.961
1024971.0,116.0,364.0,68.0,201.0,1024.971
1024982.0,113.0,344.0,58.0,209.0,1024.982
1024992.0,108.0,344.0,57.0,202.0,1024.992
1025002.0,120.0,349.0,56.0,206.0,1025.002
1025012.0,111.0,353.0,56.0,205.0,1025.012
1025022.0,114.0,352.0,57.0,206.0,1025.022
1025032.0,112.0,334.0,53.0,208.0,1025.032
1025042.0,108.0,330.0,51.0,194.0,1025.042
1025052.0,110.0,326.0,46.0,187.0,1025.052
1025062.0,108.0,326.0,48.0,187.0,1025.062
1025072.0,106.0,329.0,49.0,191.0,1025.072
1025082.0,109.0,332.0,51.0,200.0,1025.082
1025092.0,109.0,325.0,49.0,190.0,1025.092
1025102.0,109.0,309.0,52.0,177.0,1025.102
1025112.0,110.0,303.0,47.0,163.0,1025.112
1025122.0,105.0,305.0,41.0,151.0,1025.122
1025132.0,106.0,286.0,36.0,140.0,1025.132
1025142.0,108.0,296.0,40.0,134.0,1025.142
1025152.0,106.0,284.0,35.0,127.0,1025.152
1025162.0,101.0,285.0,32.0,122.0,1025.162
1025172.0,94.0,288.0,35.0,126.0,1025.172
1025182.0,96.0,294.0,34.0,132.0,1025.182
1025192.0,94.0,294.0,44.0,129.0,1025.192
1025202.0,96.0,306.0,40.0,126.0,1025.202
1025212.0,95.0,280.0,35.0,116.0,1025.212
1025222.0,92.0,285.0,33.0,109.0,1025.222
1025232.0,95.0,265.0,29.0,102.0,1025.232
1025242.0,92.0,262.0,27.0,96.0,1025.242
1025252.0,89.0,256.0,24.0,94.0,1025.252
1025262.0,85.0,256.0,27.0,95.0,1025.262
1025272.0,84.0,249.0,24.0,91.0,1025.272
1025282.0,84.0,246.0,24.0,91.0,1025.282
1025292.0,81.0,245.0,23.0,90.0,1025.292
1025302.0,88.0,247.0,23.0,86.0,1025.302
1025312.0,85.0,238.0,21.0,86.0,1025.312
1025323.0,81.0,249.0,22.0,105.0,1025.323
1025333.0,82.0,235.0,20.0,100.0,1025.333
1025343.0,80.0,232.0,20.0,95.0,1025.343
1025353.0,77.0,220.0,17.0,89.0,1025.353
1025363.0,72.0,215.0,19.0,91.0,1025.363
1025373.0,71.0,208.0,18.0,92.0,1025.373
1025383.0,70.0,205.0,16.0,91.0,1025.383
1025393.0,69.0,197.0,21.0,95.0,1025.393
1025403.0,67.0,203.0,19.0,99.0,1025.403
1025413.0,67.0,209.0,18.0,100.0,1025.413
1025423.0,69.0,209.0,20.0,101.0,1025.423
1025433.0,71.0,197.0,17.0,102.0,1025.433
1025443.0,69.0,190.0,19.0,102.0,1025.443
1025453.0,69.0,182.0,17.0,100.0,1025.453
1025463.0,76.0,194.0,21.0,106.0,1025.463
1025473.0,74.0,186.0,20.0,101.0,1025.473
1025483.0,71.0,187.0,18.0,94.0,1025.483
1025494.0,75.0,197.0,18.0,88.0,1025.494
1025504.0,73.0,182.0,17.0,107.0,1025.504
1025514.0,73.0,178.0,16.0,104.0,1025.514
1025524.0,70.0,176.0,16.0,100.0,1025.524
1025534.0,69.0,183.0,15.0,94.0,1025.534
1025544.0,69.0,173.0,15.0,91.0,1025.544
1025554.0,64.0,168.0,14.0,94.0,1025.554
1025564.0,64.0,161.0,16.0,88.0,1025.564
1025574.0,63.0,162.0,14.0,85.0,1025.574
1025584.0,63.0,161.0,14.0,96.0,1025.584
1025594.0,61.0,156.0,13.0,106.0,1025.594
1025604.0,61.0,153.0,12.0,97.0,1025.604
1025614.0,60.0,156.0,15.0,99.0,1025.614
1025624.0,58.0,153.0,14.0,102.0,1025.624
1025634.0,57.0,159.0,14.0,113.0,1025.634
1025644.0,56.0,161.0,23.0,109.0,1025.644
1025654.0,56.0,166.0,21.0,106.0,1025.654
1025664.0,58.0,159.0,19.0,109.0,1025.664
1025674.0,57.0,153.0,17.0,105.0,1025.674
1025684.0,56.0,152.0,15.0,106.0,1025.684
1025694.0,54.0,151.0,13.0,131.0,1025.694
1025704.0,55.0,149.0,13.0,128.0,1025.704
1025714.0,55.0,145.0,13.0,129.0,1025.714
1025724.0,60.0,156.0,12.0,126.0,1025.724
1025734.0,63.0,160.0,15.0,121.0,1025.734
1025744.0,65.0,165.0,14.0,115.0,1025.744
1025754.0,65.0,165.0,12.0,110.0,1025.754
1025764.0,64.0,160.0,14.0,114.0,1025.764
1025774.0,63.0,149.0,14.0,116.0,1025.774
1025784.0,63.0,146.0,13.0,106.0,1025.784
1025794.0,62.0,138.0,12.0,102.0,1025.794
1025804.0,62.0,138.0,11.0,100.0,1025.804
1025814.0,62.0,143.0,10.0,106.0,1025.814
1025824.0,62.0,135.0,10.0,99.0,1025.824
1025835.0,63.0,136.0,8.0,113.0,1025.835
1025845.0,63.0,138.0,18.0,104.0,1025.845
1025855.0,61.0,140.0,18.0,111.0,1025.855
1025865.0,62.0,130.0,18.0,114.0,1025.865
1025875.0,61.0,133.0,16.0,108.0,1025.875
1025885.0,63.0,125.0,15.0,106.0,1025.885
1025895.0,65.0,122.0,14.0,120.0,1025.895
1025905.0,64.0,123.0,12.0,114.0,1025.905
1025915.0,62.0,131.0,16.0,113.0,1025.915
1025925.0,67.0,142.0,17.0,112.0,1025.925
1025935.0,66.0,134.0,15.0,108.0,1025.935
1025945.0,64.0,132.0,14.0,103.0,1025.945
1025955.0,64.0,132.0,14.0,106.0,1025.955
1025965.0,65.0,128.0,20.0,115.0,1025.965
1025975.0,64.0,128.0,18.0,113.0,1025.975
1025985.0,62.0,130.0,16.0,119.0,1025.985
1025995.0,64.0,121.0,17.0,126.0,1025.995
1026006.0,63.0,118.0,16.0,114.0,1026.006
1026016.0,63.0,124.0,15.0,110.0,1026.016
1026026.0,64.0,117.0,12.0,108.0,1026.026
1026036.0,65.0,113.0,12.0,115.0,1026.036
1026046.0,62.0,113.0,12.0,113.0,1026.046
1026056.0,61.0,111.0,13.0,111.0,1026.056
1026066.0,61.0,123.0,12.0,107.0,1026.066
1026076.0,61.0,130.0,11.0,105.0,1026.076
1026086.0,61.0,133.0,9.0,111.0,1026.086
1026096.0,63.0,152.0,11.0,118.0,1026.096
1026106.0,62.0,145.0,10.0,115.0,1026.106
1026116.0,60.0,136.0,10.0,119.0,1026.116
1026126.0,58.0,129.0,9.0,121.0,1026.126
1026136.0,60.0,123.0,12.0,116.0,1026.136
1026146.0,59.0,120.0,11.0,114.0,1026.146
1026156.0,57.0,112.0,9.0,110.0,1026.156
1026166.0,61.0,121.0,13.0,112.0,1026.166
1026176.0,61.0,127.0,11.0,117.0,1026.176
1026186.0,61.0,122.0,11.0,116.0,1026.186
1026196.0,59.0,123.0,10.0,116.0,1026.196
1026206.0,59.0,121.0,16.0,108.0,1026.206
1026216.0,62.0,123.0,18.0,108.0,1026.216
1026226.0,61.0,116.0,17.0,102.0,1026.226
1026236.0,60.0,123.0,15.0,100.0,1026.236
1026246.0,62.0,117.0,14.0,105.0,1026.246
1026256.0,60.0,110.0,12.0,100.0,1026.256
1026266.0,60.0,107.0,11.0,97.0,1026.266
1026276.0,59.0,107.0,11.0,100.0,1026.276
1026286.0,57.0,113.0,12.0,100.0,1026.286
1026296.0,58.0,114.0,11.0,99.0,1026.296
1026306.0,57.0,112.0,9.0,98.0,1026.306
1026316.0,58.0,113.0,9.0,96.0,1026.316
1026326.0,58.0,112.0,8.0,99.0,1026.326
1026336.0,58.0,106.0,9.0,96.0,1026.336
1026347.0,55.0,102.0,7.0,94.0,1026.347
1026357.0,55.0,98.0,7.0,91.0,1026.357
1026367.0,56.0,95.0,8.0,95.0,1026.367
1026377.0,56.0,94.0,8.0,120.0,1026.377
1026387.0,57.0,96.0,7.0,119.0,1026.387
1026397.0,56.0,98.0,7.0,112.0,1026.397
1026407.0,57.0,98.0,7.0,101.0,1026.407
1026417.0,56.0,95.0,6.0,104.0,1026.417
1026427.0,57.0,89.0,6.0,103.0,1026.427
1026437.0,57.0,90.0,5.0,110.0,1026.437
1026447.0,61.0,94.0,6.0,106.0,1026.447
1026457.0,63.0,90.0,6.0,107.0,1026.457
1026467.0,61.0,92.0,6.0,113.0,1026.467
1026477.0,61.0,92.0,5.0,117.0,1026.477
1026487.0,62.0,98.0,4.0,112.0,1026.487
1026497.0,62.0,94.0,5.0,107.0,1026.497
1026507.0,60.0,97.0,8.0,117.0,1026.507
1026518.0,60.0,117.0,7.0,115.0,1026.518
1026528.0,61.0,116.0,7.0,107.0,1026.528
1026538.0,60.0,109.0,6.0,109.0,1026.538
1026548.0,60.0,101.0,6.0,131.0,1026.548
1026558.0,58.0,98.0,6.0,127.0,1026.558
1026568.0,58.0,112.0,6.0,118.0,1026.568
1026578.0,58.0,110.0,6.0,122.0,1026.578
1026588.0,59.0,101.0,8.0,131.0,1026.588
1026598.0,62.0,100.0,7.0,131.0,1026.598
1026608.0,60.0,103.0,6.0,136.0,1026.608
1026618.0,61.0,105.0,6.0,127.0,1026.618
1026628.0,61.0,104.0,6.0,123.0,1026.628
1026638.0,59.0,103.0,6.0,118.0,1026.638
1026648.0,59.0,98.0,6.0,120.0,1026.648
1026658.0,58.0,94.0,5.0,121.0,1026.658
1026668.0,59.0,98.0,7.0,124.0,1026.668
1026678.0,60.0,96.0,8.0,129.0,1026.678
1026688.0,60.0,95.0,7.0,129.0,1026.688
1026698.0,61.0,94.0,7.0,129.0,1026.698
1026708.0,63.0,90.0,7.0,121.0,1026.708
1026718.0,63.0,89.0,6.0,115.0,1026.718
1026728.0,61.0,91.0,8.0,107.0,1026.728
1026738.0,63.0,91.0,8.0,101.0,1026.738
1026748.0,65.0,92.0,7.0,99.0,1026.748
1026758.0,63.0,89.0,7.0,93.0,1026.758
1026768.0,63.0,90.0,7.0,87.0,1026.768
1026778.0,62.0,91.0,7.0,88.0,1026.778
1026788.0,63.0,90.0,7.0,92.0,1026.788
1026798.0,61.0,92.0,7.0,94.0,1026.798
1026808.0,63.0,91.0,8.0,99.0,1026.808
1026818.0,61.0,86.0,7.0,103.0,1026.818
1026828.0,61.0,85.0,7.0,105.0,1026.828
1026838.0,62.0,83.0,6.0,104.0,1026.838
1026848.0,62.0,93.0,9.0,99.0,1026.848
1026859.0,65.0,94.0,8.0,98.0,1026.859
1026869.0,65.0,92.0,8.0,97.0,1026.869
1026879.0,69.0,89.0,9.0,104.0,1026.879
1026889.0,68.0,89.0,9.0,113.0,1026.889
1026899.0,69.0,92.0,8.0,127.0,1026.899
1026909.0,70.0,95.0,8.0,128.0,1026.909
1026919.0,71.0,92.0,9.0,138.0,1026.919
1026929.0,73.0,87.0,8.0,139.0,1026.929
1026939.0,73.0,88.0,9.0,131.0,1026.939
1026949.0,74.0,85.0,9.0,131.0,1026.949
1026959.0,69.0,83.0,8.0,137.0,1026.959
1026969.0,75.0,94.0,8.0,152.0,1026.969
1026979.0,74.0,99.0,6.0,144.0,1026.979
1026989.0,75.0,98.0,7.0,134.0,1026.989
1026999.0,78.0,92.0,6.0,135.0,1026.999
1027009.0,76.0,88.0,7.0,125.0,1027.009
1027019.0,77.0,88.0,8.0,123.0,1027.019
1027030.0,78.0,88.0,7.0,116.0,1027.03
1027040.0,79.0,82.0,7.0,115.0,1027.04
1027050.0,76.0,80.0,6.0,117.0,1027.05
1027060.0,78.0,88.0,6.0,129.0,1027.06
1027070.0,77.0,83.0,6.0,131.0,1027.07
1027080.0,77.0,91.0,5.0,129.0,1027.08
1027090.0,77.0,87.0,6.0,127.0,1027.09
1027100.0,75.0,83.0,5.0,117.0,1027.1
1027110.0,74.0,87.0,5.0,121.0,1027.11
1027120.0,73.0,85.0,5.0,128.0,1027.12
1027130.0,73.0,89.0,6.0,122.0,1027.13
1027140.0,73.0,87.0,5.0,132.0,1027.14
1027150.0,73.0,85.0,5.0,128.0,1027.15
1027160.0,73.0,83.0,7.0,139.0,1027.16
1027170.0,74.0,82.0,5.0,148.0,1027.17
1027180.0,74.0,80.0,5.0,136.0,1027.18
1027190.0,75.0,79.0,7.0,127.0,1027.19
1027200.0,75.0,78.0,6.0,116.0,1027.2
1027210.0,75.0,87.0,9.0,118.0,1027.21
1027220.0,73.0,86.0,9.0,130.0,1027.22
1027230.0,75.0,82.0,8.0,125.0,1027.23
1027240.0,74.0,85.0,6.0,116.0,1027.24
1027250.0,77.0,84.0,7.0,117.0,1027.25
1027260.0,74.0,84.0,6.0,112.0,1027.26
1027270.0,75.0,90.0,6.0,120.0,1027.27
1027280.0,75.0,88.0,6.0,120.0,1027.28
1027290.0,74.0,89.0,8.0,126.0,1027.29
1027300.0,76.0,86.0,8.0,131.0,1027.3
1027310.0,75.0,88.0,5.0,124.0,1027.31
1027320.0,77.0,82.0,6.0,119.0,1027.32
1027330.0,77.0,78.0,5.0,113.0,1027.33
1027340.0,76.0,80.0,6.0,107.0,1027.34
1027350.0,76.0,93.0,5.0,102.0,1027.35
1027360.0,73.0,93.0,5.0,99.0,1027.36
1027371.0,77.0,89.0,6.0,101.0,1027.371
1027381.0,76.0,82.0,4.0,95.0,1027.381
1027391.0,73.0,83.0,5.0,104.0,1027.391
1027401.0,76.0,81.0,5.0,117.0,1027.401
1027411.0,76.0,78.0,5.0,121.0,1027.411
1027421.0,75.0,78.0,5.0,116.0,1027.421
1027431.0,75.0,76.0,5.0,118.0,1027.431
1027441.0,77.0,79.0,5.0,113.0,1027.441
1027451.0,75.0,79.0,4.0,114.0,1027.451
1027461.0,73.0,83.0,4.0,125.0,1027.461
1027471.0,70.0,83.0,6.0,129.0,1027.471
1027481.0,72.0,80.0,5.0,122.0,1027.481
1027491.0,71.0,79.0,6.0,116.0,1027.491
1027501.0,72.0,100.0,5.0,109.0,1027.501
1027511.0,74.0,98.0,5.0,114.0,1027.511
1027521.0,74.0,94.0,4.0,111.0,1027.521
1027531.0,75.0,91.0,5.0,110.0,1027.531
1027542.0,74.0,90.0,5.0,118.0,1027.542
1027552.0,77.0,84.0,4.0,107.0,1027.552
1027562.0,75.0,85.0,4.0,105.0,1027.562
1027572.0,76.0,99.0,5.0,109.0,1027.572
1027582.0,78.0,104.0,6.0,138.0,1027.582
1027592.0,78.0,97.0,8.0,136.0,1027.592
1027602.0,77.0,91.0,8.0,138.0,1027.602
1027612.0,78.0,90.0,8.0,129.0,1027.612
1027622.0,79.0,108.0,14.0,140.0,1027.622
1027632.0,78.0,102.0,13.0,135.0,1027.632
1027642.0,80.0,103.0,12.0,134.0,1027.642
1027652.0,81.0,114.0,12.0,126.0,1027.652
1027662.0,78.0,104.0,10.0,123.0,1027.662
1027672.0,78.0,97.0,11.0,122.0,1027.672
1027682.0,74.0,99.0,11.0,129.0,1027.682
1027692.0,74.0,96.0,13.0,128.0,1027.692
1027702.0,77.0,90.0,12.0,126.0,1027.702
1027712.0,77.0,89.0,12.0,125.0,1027.712
1027722.0,78.0,86.0,11.0,129.0,1027.722
1027732.0,78.0,82.0,8.0,125.0,1027.732
1027742.0,79.0,77.0,10.0,123.0,1027.742
1027752.0,76.0,77.0,8.0,118.0,1027.752
1027762.0,74.0,76.0,9.0,126.0,1027.762
1027772.0,75.0,73.0,8.0,136.0,1027.772
1027782.0,73.0,73.0,8.0,134.0,1027.782
1027792.0,72.0,75.0,8.0,131.0,1027.792
1027802.0,70.0,76.0,6.0,128.0,1027.802
1027812.0,67.0,80.0,9.0,120.0,1027.812
1027822.0,70.0,82.0,8.0,117.0,1027.822
1027832.0,69.0,77.0,9.0,128.0,1027.832
1027842.0,67.0,74.0,9.0,132.0,1027.842
1027852.0,65.0,69.0,7.0,127.0,1027.852
1027862.0,63.0,83.0,8.0,122.0,1027.862
1027872.0,64.0,81.0,7.0,115.0,1027.872
1027883.0,63.0,78.0,6.0,120.0,1027.883
1027893.0,62.0,83.0,6.0,119.0,1027.893
1027903.0,64.0,80.0,5.0,113.0,1027.903
1027913.0,63.0,77.0,7.0,110.0,1027.913
1027923.0,64.0,71.0,6.0,107.0,1027.923
1027933.0,65.0,73.0,7.0,109.0,1027.933
1027943.0,63.0,70.0,5.0,109.0,1027.943
1027953.0,63.0,75.0,5.0,105.0,1027.953
1027963.0,64.0,83.0,5.0,100.0,1027.963
1027973.0,66.0,88.0,7.0,98.0,1027.973
1027983.0,71.0,90.0,6.0,113.0,1027.983
1027993.0,69.0,86.0,6.0,113.0,1027.993
1028003.0,71.0,81.0,7.0,115.0,1028.003
1028013.0,70.0,83.0,6.0,111.0,1028.013
1028023.0,70.0,81.0,8.0,109.0,1028.023
1028033.0,72.0,76.0,6.0,100.0,1028.033
1028043.0,72.0,71.0,5.0,103.0,1028.043
1028054.0,74.0,76.0,6.0,107.0,1028.054
1028064.0,75.0,75.0,5.0,108.0,1028.064
1028074.0,75.0,70.0,6.0,113.0,1028.074
1028084.0,74.0,68.0,4.0,109.0,1028.084
1028094.0,77.0,78.0,6.0,113.0,1028.094
1028104.0,76.0,75.0,5.0,116.0,1028.104
1028114.0,78.0,75.0,5.0,122.0,1028.114
1028124.0,77.0,73.0,5.0,133.0,1028.124
1028134.0,75.0,74.0,3.0,152.0,1028.134
1028144.0,79.0,87.0,6.0,151.0,1028.144
1028154.0,79.0,84.0,4.0,149.0,1028.154
1028164.0,78.0,80.0,5.0,155.0,1028.164
1028174.0,78.0,79.0,4.0,157.0,1028.174
1028184.0,78.0,77.0,6.0,166.0,1028.184
1028194.0,78.0,74.0,5.0,158.0,1028.194
1028204.0,77.0,75.0,5.0,158.0,1028.204
1028214.0,76.0,73.0,6.0,158.0,1028.214
1028224.0,76.0,73.0,5.0,170.0,1028.224
1028234.0,74.0,70.0,5.0,163.0,1028.234
1028244.0,74.0,70.0,4.0,152.0,1028.244
1028254.0,71.0,67.0,4.0,139.0,1028.254
1028264.0,72.0,66.0,5.0,134.0,1028.264
1028274.0,72.0,63.0,5.0,138.0,1028.274
1028284.0,74.0,59.0,5.0,133.0,1028.284
1028294.0,71.0,64.0,4.0,125.0,1028.294
1028304.0,70.0,64.0,4.0,119.0,1028.304
1028314.0,68.0,62.0,4.0,115.0,1028.314
1028324.0,67.0,75.0,5.0,105.0,1028.324
1028334.0,66.0,73.0,8.0,98.0,1028.334
1028344.0,64.0,73.0,8.0,90.0,1028.344
1028354.0,63.0,78.0,8.0,84.0,1028.354
1028364.0,64.0,77.0,6.0,79.0,1028.364
1028374.0,62.0,75.0,6.0,74.0,1028.374
1028384.0,62.0,79.0,6.0,75.0,1028.384
1028395.0,61.0,76.0,5.0,74.0,1028.395
1028405.0,63.0,73.0,5.0,84.0,1028.405
1028415.0,61.0,76.0,5.0,85.0,1028.415
1028425.0,65.0,82.0,4.0,89.0,1028.425
1028435.0,64.0,81.0,4.0,89.0,1028.435
1028445.0,68.0,89.0,6.0,87.0,1028.445
1028455.0,67.0,100.0,7.0,90.0,1028.455
1028465.0,66.0,105.0,6.0,89.0,1028.465
1028475.0,68.0,102.0,6.0,101.0,1028.475
1028485.0,69.0,97.0,5.0,111.0,1028.485
1028495.0,68.0,96.0,6.0,108.0,1028.495
1028505.0,65.0,96.0,5.0,107.0,1028.505
1028515.0,66.0,98.0,5.0,108.0,1028.515
1028525.0,65.0,94.0,6.0,111.0,1028.525
1028535.0,63.0,87.0,5.0,107.0,1028.535
1028545.0,64.0,80.0,5.0,100.0,1028.545
1028555.0,62.0,84.0,5.0,93.0,1028.555
1028566.0,63.0,82.0,5.0,93.0,1028.566
1028576.0,62.0,82.0,4.0,98.0,1028.576
1028586.0,64.0,80.0,4.0,97.0,1028.586
1028596.0,66.0,87.0,6.0,90.0,1028.596
1028606.0,67.0,101.0,5.0,85.0,1028.606
1028616.0,65.0,100.0,5.0,83.0,1028.616
1028626.0,66.0,103.0,5.0,89.0,1028.626
1028636.0,65.0,107.0,5.0,82.0,1028.636
1028646.0,65.0,112.0,4.0,75.0,1028.646
1028656.0,68.0,114.0,4.0,79.0,1028.656
1028666.0,68.0,125.0,4.0,79.0,1028.666
1028676.0,69.0,128.0,7.0,86.0,1028.676
1028686.0,67.0,125.0,9.0,94.0,1028.686
1028696.0,66.0,122.0,11.0,100.0,1028.696
1028706.0,68.0,156.0,12.0,115.0,1028.706
1028716.0,64.0,153.0,10.0,113.0,1028.716
1028726.0,63.0,139.0,10.0,106.0,1028.726
1028736.0,63.0,138.0,9.0,125.0,1028.736
1028746.0,64.0,132.0,8.0,139.0,1028.746
1028756.0,63.0,126.0,8.0,130.0,1028.756
1028766.0,63.0,125.0,7.0,122.0,1028.766
1028776.0,63.0,121.0,6.0,114.0,1028.776
1028786.0,64.0,114.0,6.0,117.0,1028.786
1028796.0,70.0,123.0,6.0,113.0,1028.796
1028806.0,69.0,118.0,6.0,105.0,1028.806
1028816.0,72.0,133.0,6.0,98.0,1028.816
1028826.0,70.0,128.0,7.0,95.0,1028.826
1028836.0,66.0,119.0,7.0,101.0,1028.836
1028846.0,66.0,114.0,8.0,106.0,1028.846
1028856.0,64.0,104.0,6.0,112.0,1028.856
1028866.0,65.0,103.0,7.0,106.0,1028.866
1028876.0,66.0,104.0,5.0,128.0,1028.876
1028886.0,65.0,112.0,5.0,128.0,1028.886
1028896.0,64.0,111.0,5.0,118.0,1028.896
1028907.0,66.0,109.0,5.0,118.0,1028.907
1028917.0,70.0,99.0,6.0,127.0,1028.917
1028927.0,68.0,102.0,6.0,140.0,1028.927
1028937.0,68.0,100.0,6.0,156.0,1028.937
1028947.0,71.0,95.0,6.0,147.0,1028.947
1028957.0,69.0,99.0,6.0,134.0,1028.957
1028967.0,73.0,101.0,6.0,137.0,1028.967
1028977.0,74.0,99.0,5.0,134.0,1028.977
1028987.0,73.0,95.0,8.0,132.0,1028.987
1028997.0,74.0,107.0,7.0,131.0,1028.997
1029007.0,76.0,104.0,7.0,144.0,1029.007
1029017.0,73.0,101.0,6.0,141.0,1029.017
1029027.0,75.0,110.0,6.0,134.0,1029.027
1029037.0,74.0,104.0,6.0,137.0,1029.037
1029047.0,73.0,102.0,5.0,135.0,1029.047
1029057.0,75.0,106.0,6.0,123.0,1029.057
1029067.0,73.0,109.0,6.0,129.0,1029.067
1029078.0,78.0,112.0,6.0,125.0,1029.078
1029088.0,77.0,109.0,6.0,126.0,1029.088
1029098.0,77.0,105.0,8.0,114.0,1029.098
1029108.0,77.0,110.0,8.0,108.0,1029.108
1029118.0,79.0,116.0,7.0,103.0,1029.118
1029128.0,83.0,116.0,6.0,113.0,1029.128
1029138.0,84.0,119.0,6.0,104.0,1029.138
1029148.0,84.0,119.0,6.0,101.0,1029.148
1029158.0,83.0,115.0,5.0,104.0,1029.158
1029168.0,82.0,114.0,6.0,100.0,1029.168
1029178.0,85.0,116.0,5.0,108.0,1029.178
1029188.0,82.0,112.0,5.0,108.0,1029.188
1029198.0,91.0,111.0,6.0,107.0,1029.198
1029208.0,93.0,119.0,5.0,110.0,1029.208
1029218.0,93.0,114.0,7.0,124.0,1029.218
1029228.0,95.0,113.0,6.0,133.0,1029.228
1029238.0,99.0,121.0,6.0,121.0,1029.238
1029248.0,103.0,121.0,6.0,111.0,1029.248
1029258.0,101.0,114.0,5.0,125.0,1029.258
1029268.0,109.0,116.0,6.0,122.0,1029.268
1029278.0,110.0,113.0,5.0,120.0,1029.278
1029288.0,111.0,118.0,6.0,117.0,1029.288
1029298.0,111.0,121.0,7.0,112.0,1029.298
1029308.0,116.0,129.0,6.0,114.0,1029.308
1029318.0,119.0,130.0,6.0,122.0,1029.318
1029328.0,121.0,129.0,6.0,118.0,1029.328
1029338.0,123.0,130.0,8.0,112.0,1029.338
1029348.0,127.0,131.0,5.0,111.0,1029.348
1029358.0,132.0,135.0,5.0,108.0,1029.358
1029368.0,136.0,133.0,6.0,111.0,1029.368
1029378.0,137.0,139.0,7.0,109.0,1029.378
1029388.0,141.0,153.0,6.0,101.0,1029.388
1029398.0,144.0,146.0,8.0,104.0,1029.398
1029408.0,149.0,157.0,9.0,110.0,1029.408
1029419.0,152.0,159.0,7.0,106.0,1029.419
1029429.0,153.0,159.0,7.0,105.0,1029.429
1029439.0,156.0,160.0,7.0,105.0,1029.439
1029449.0,158.0,160.0,6.0,106.0,1029.449
1029459.0,165.0,171.0,6.0,102.0,1029.459
1029469.0,166.0,167.0,5.0,99.0,1029.469
1029479.0,171.0,174.0,6.0,97.0,1029.479
1029489.0,165.0,181.0,7.0,92.0,1029.489
1029499.0,177.0,210.0,7.0,87.0,1029.499
1029509.0,179.0,210.0,7.0,90.0,1029.509
1029519.0,179.0,202.0,8.0,94.0,1029.519
1029529.0,182.0,209.0,9.0,88.0,1029.529
1029539.0,191.0,228.0,8.0,84.0,1029.539
1029549.0,190.0,223.0,10.0,84.0,1029.549
1029559.0,196.0,243.0,10.0,86.0,1029.559
1029569.0,203.0,247.0,11.0,99.0,1029.569
1029579.0,206.0,241.0,12.0,110.0,1029.579
1029590.0,211.0,248.0,11.0,111.0,1029.59
1029600.0,219.0,248.0,10.0,115.0,1029.6
1029610.0,218.0,244.0,13.0,116.0,1029.61
1029620.0,226.0,244.0,13.0,116.0,1029.62
1029630.0,228.0,251.0,10.0,116.0,1029.63
1029640.0,231.0,249.0,11.0,112.0,1029.64
1029650.0,236.0,250.0,10.0,104.0,1029.65
1029660.0,240.0,248.0,10.0,108.0,1029.66
1029670.0,246.0,254.0,9.0,105.0,1029.67
1029680.0,245.0,261.0,9.0,103.0,1029.68
1029690.0,254.0,264.0,10.0,104.0,1029.69
1029700.0,258.0,270.0,9.0,106.0,1029.7
1029710.0,266.0,277.0,8.0,109.0,1029.71
1029720.0,271.0,274.0,8.0,109.0,1029.72
1029730.0,276.0,280.0,8.0,99.0,1029.73
1029740.0,276.0,268.0,8.0,99.0,1029.74
1029750.0,283.0,284.0,8.0,99.0,1029.75
1029760.0,287.0,282.0,7.0,94.0,1029.76
1029770.0,292.0,287.0,8.0,92.0,1029.77
1029780.0,295.0,292.0,7.0,89.0,1029.78
1029790.0,300.0,301.0,8.0,86.0,1029.79
1029800.0,304.0,304.0,9.0,92.0,1029.8
1029810.0,308.0,305.0,8.0,97.0,1029.81
1029820.0,313.0,313.0,8.0,94.0,1029.82
1029830.0,314.0,312.0,8.0,89.0,1029.83
1029840.0,317.0,313.0,8.0,85.0,1029.84
1029850.0,320.0,310.0,8.0,86.0,1029.85
1029860.0,320.0,319.0,8.0,87.0,1029.86
1029870.0,323.0,321.0,7.0,97.0,1029.87
1029880.0,329.0,327.0,8.0,99.0,1029.88
1029890.0,330.0,331.0,9.0,101.0,1029.89
1029900.0,333.0,338.0,9.0,95.0,1029.9
1029910.0,331.0,335.0,8.0,91.0,1029.91
1029920.0,335.0,344.0,6.0,89.0,1029.92
1029931.0,337.0,346.0,7.0,99.0,1029.931
1029941.0,337.0,348.0,6.0,92.0,1029.941
1029951.0,338.0,345.0,7.0,89.0,1029.951
1029961.0,338.0,349.0,6.0,85.0,1029.961
1029971.0,337.0,344.0,7.0,79.0,1029.971
1029981.0,338.0,345.0,5.0,79.0,1029.981
1029991.0,337.0,329.0,7.0,89.0,1029.991
1030001.0,340.0,347.0,6.0,87.0,1030.001
1030011.0,341.0,340.0,7.0,84.0,1030.011
1030021.0,342.0,352.0,7.0,78.0,1030.021
1030031.0,340.0,346.0,5.0,73.0,1030.031
1030041.0,344.0,347.0,8.0,93.0,1030.041
1030051.0,345.0,351.0,6.0,90.0,1030.051
1030061.0,344.0,340.0,6.0,90.0,1030.061
1030071.0,345.0,355.0,6.0,89.0,1030.071
1030081.0,344.0,357.0,5.0,88.0,1030.081
1030091.0,339.0,351.0,5.0,94.0,1030.091
1030102.0,341.0,347.0,5.0,89.0,1030.102
1030112.0,341.0,359.0,5.0,84.0,1030.112
1030122.0,337.0,354.0,6.0,89.0,1030.122
1030132.0,337.0,353.0,5.0,81.0,1030.132
1030142.0,335.0,360.0,5.0,77.0,1030.142
1030152.0,332.0,355.0,5.0,84.0,1030.152
1030162.0,333.0,359.0,5.0,83.0,1030.162
1030172.0,331.0,357.0,5.0,81.0,1030.172
1030182.0,330.0,353.0,8.0,82.0,1030.182
1030192.0,330.0,355.0,6.0,88.0,1030.192
1030202.0,327.0,350.0,6.0,97.0,1030.202
1030212.0,326.0,350.0,6.0,96.0,1030.212
1030222.0,324.0,350.0,5.0,91.0,1030.222
1030232.0,323.0,348.0,6.0,84.0,1030.232
1030242.0,320.0,345.0,5.0,80.0,1030.242
1030252.0,318.0,340.0,8.0,78.0,1030.252
1030262.0,318.0,341.0,9.0,79.0,1030.262
1030272.0,313.0,325.0,13.0,78.0,1030.272
1030282.0,314.0,336.0,13.0,77.0,1030.282
1030292.0,311.0,337.0,12.0,84.0,1030.292
1030302.0,310.0,333.0,11.0,80.0,1030.302
1030312.0,309.0,336.0,9.0,80.0,1030.312
1030322.0,309.0,338.0,9.0,82.0,1030.322
1030332.0,308.0,339.0,11.0,88.0,1030.332
1030342.0,305.0,338.0,10.0,89.0,1030.342
1030352.0,303.0,337.0,9.0,95.0,1030.352
1030362.0,300.0,337.0,7.0,96.0,1030.362
1030372.0,283.0,330.0,9.0,108.0,1030.372
1030382.0,293.0,327.0,13.0,109.0,1030.382
1030392.0,298.0,328.0,13.0,106.0,1030.392
1030402.0,309.0,321.0,14.0,131.0,1030.402
1030412.0,300.0,310.0,57.0,127.0,1030.412
1030422.0,288.0,312.0,61.0,125.0,1030.422
1030432.0,291.0,310.0,86.0,179.0,1030.432
1030443.0,273.0,295.0,146.0,240.0,1030.443
1030453.0,263.0,307.0,148.0,244.0,1030.453
1030463.0,281.0,327.0,162.0,278.0,1030.463
1030473.0,286.0,345.0,159.0,281.0,1030.473
1030483.0,280.0,361.0,185.0,298.0,1030.483
1030493.0,287.0,388.0,191.0,329.0,1030.493
1030503.0,286.0,413.0,184.0,327.0,1030.503
1030513.0,294.0,441.0,170.0,367.0,1030.513
1030523.0,299.0,462.0,182.0,426.0,1030.523
1030533.0,299.0,471.0,172.0,421.0,1030.533
1030543.0,302.0,482.0,162.0,398.0,1030.543
1030553.0,296.0,481.0,149.0,370.0,1030.553
1030563.0,295.0,482.0,153.0,388.0,1030.563
1030573.0,294.0,485.0,161.0,364.0,1030.573
1030583.0,295.0,485.0,157.0,354.0,1030.583
1030593.0,293.0,485.0,142.0,373.0,1030.593
1030603.0,299.0,481.0,133.0,348.0,1030.603
1030614.0,296.0,479.0,118.0,327.0,1030.614
1030624.0,292.0,475.0,108.0,300.0,1030.624
1030634.0,290.0,471.0,113.0,287.0,1030.634
1030644.0,293.0,469.0,102.0,289.0,1030.644
1030654.0,290.0,463.0,105.0,267.0,1030.654
1030664.0,290.0,459.0,105.0,262.0,1030.664
1030674.0,284.0,451.0,110.0,297.0,1030.674
1030684.0,283.0,447.0,96.0,294.0,1030.684
1030694.0,279.0,441.0,90.0,288.0,1030.694
1030704.0,278.0,437.0,92.0,278.0,1030.704
1030714.0,277.0,437.0,90.0,254.0,1030.714
1030724.0,275.0,431.0,80.0,244.0,1030.724
1030734.0,271.0,425.0,83.0,231.0,1030.734
1030744.0,269.0,422.0,89.0,220.0,1030.744
1030754.0,269.0,420.0,99.0,211.0,1030.754
1030764.0,266.0,418.0,92.0,196.0,1030.764
1030774.0,267.0,415.0,88.0,189.0,1030.774
1030784.0,260.0,411.0,82.0,187.0,1030.784
1030794.0,259.0,409.0,75.0,190.0,1030.794
1030804.0,257.0,407.0,78.0,191.0,1030.804
1030814.0,253.0,402.0,76.0,178.0,1030.814
1030824.0,255.0,402.0,76.0,171.0,1030.824
1030834.0,251.0,399.0,84.0,169.0,1030.834
1030844.0,250.0,399.0,79.0,161.0,1030.844
1030854.0,247.0,398.0,73.0,174.0,1030.854
1030864.0,245.0,394.0,66.0,172.0,1030.864
1030874.0,244.0,392.0,66.0,189.0,1030.874
1030884.0,241.0,388.0,59.0,178.0,1030.884
1030894.0,239.0,381.0,75.0,178.0,1030.894
1030904.0,238.0,380.0,80.0,172.0,1030.904
1030914.0,235.0,376.0,77.0,168.0,1030.914
1030924.0,233.0,373.0,69.0,163.0,1030.924
1030934.0,231.0,370.0,61.0,155.0,1030.934
1030944.0,228.0,365.0,57.0,157.0,1030.944
1030955.0,224.0,359.0,61.0,159.0,1030.955
1030965.0,224.0,358.0,57.0,150.0,1030.965
1030975.0,221.0,353.0,54.0,146.0,1030.975
1030985.0,218.0,350.0,62.0,135.0,1030.985
1030995.0,215.0,347.0,57.0,140.0,1030.995
1031005.0,212.0,344.0,52.0,140.0,1031.005
1031015.0,210.0,341.0,48.0,136.0,1031.015
1031025.0,207.0,337.0,42.0,129.0,1031.025
1031035.0,205.0,331.0,38.0,131.0,1031.035
1031045.0,202.0,327.0,36.0,132.0,1031.045
1031055.0,197.0,319.0,37.0,126.0,1031.055
1031065.0,195.0,317.0,38.0,124.0,1031.065
1031075.0,192.0,313.0,52.0,126.0,1031.075
1031085.0,188.0,306.0,53.0,124.0,1031.085
1031095.0,185.0,303.0,47.0,120.0,1031.095
1031105.0,183.0,298.0,42.0,120.0,1031.105
1031115.0,180.0,294.0,38.0,122.0,1031.115
1031126.0,177.0,288.0,39.0,119.0,1031.126
1031136.0,175.0,286.0,35.0,120.0,1031.136
1031146.0,171.0,280.0,37.0,118.0,1031.146
1031156.0,167.0,273.0,33.0,130.0,1031.156
1031166.0,161.0,266.0,34.0,131.0,1031.166
1031176.0,160.0,264.0,36.0,131.0,1031.176
1031186.0,155.0,257.0,32.0,121.0,1031.186
1031196.0,155.0,253.0,44.0,121.0,1031.196
1031206.0,153.0,251.0,40.0,118.0,1031.206
1031216.0,150.0,244.0,42.0,114.0,1031.216
1031226.0,149.0,241.0,40.0,122.0,1031.226
1031236.0,148.0,239.0,38.0,117.0,1031.236
1031246.0,148.0,236.0,35.0,110.0,1031.246
1031256.0,144.0,232.0,31.0,111.0,1031.256
1031266.0,140.0,227.0,29.0,116.0,1031.266
1031276.0,137.0,223.0,27.0,126.0,1031.276
1031286.0,135.0,218.0,28.0,119.0,1031.286
1031296.0,131.0,213.0,30.0,117.0,1031.296
1031306.0,128.0,208.0,32.0,112.0,1031.306
1031316.0,127.0,206.0,37.0,117.0,1031.316
1031326.0,123.0,202.0,38.0,111.0,1031.326
1031336.0,120.0,198.0,34.0,104.0,1031.336
1031346.0,118.0,194.0,31.0,104.0,1031.346
1031356.0,115.0,190.0,27.0,103.0,1031.356
1031366.0,113.0,186.0,26.0,108.0,1031.366
1031376.0,109.0,184.0,25.0,110.0,1031.376
1031386.0,108.0,182.0,23.0,104.0,1031.386
1031396.0,105.0,182.0,24.0,117.0,1031.396
1031406.0,102.0,179.0,35.0,114.0,1031.406
1031416.0,101.0,177.0,35.0,108.0,1031.416
1031426.0,99.0,175.0,32.0,108.0,1031.426
1031436.0,97.0,172.0,31.0,108.0,1031.436
1031446.0,95.0,171.0,29.0,108.0,1031.446
1031456.0,93.0,167.0,27.0,108.0,1031.456
1031467.0,90.0,164.0,22.0,106.0,1031.467
1031477.0,86.0,160.0,23.0,97.0,1031.477
1031487.0,85.0,157.0,21.0,106.0,1031.487
1031497.0,83.0,155.0,20.0,106.0,1031.497
1031507.0,84.0,151.0,19.0,116.0,1031.507
1031517.0,81.0,148.0,17.0,113.0,1031.517
1031527.0,80.0,143.0,25.0,121.0,1031.527
1031537.0,79.0,139.0,24.0,124.0,1031.537
1031547.0,77.0,136.0,36.0,125.0,1031.547
1031557.0,76.0,134.0,36.0,124.0,1031.557
1031567.0,74.0,131.0,31.0,114.0,1031.567
1031577.0,72.0,128.0,29.0,112.0,1031.577
1031587.0,69.0,126.0,32.0,111.0,1031.587
1031597.0,69.0,125.0,32.0,107.0,1031.597
1031607.0,66.0,122.0,26.0,103.0,1031.607
1031617.0,64.0,118.0,26.0,104.0,1031.617
1031627.0,63.0,115.0,25.0,104.0,1031.627
1031638.0,59.0,112.0,24.0,109.0,1031.638
1031648.0,58.0,108.0,21.0,104.0,1031.648
1031658.0,56.0,106.0,23.0,111.0,1031.658
1031668.0,55.0,103.0,28.0,121.0,1031.668
1031678.0,53.0,101.0,26.0,112.0,1031.678
1031688.0,52.0,98.0,28.0,113.0,1031.688
1031698.0,51.0,96.0,25.0,106.0,1031.698
1031708.0,49.0,93.0,23.0,118.0,1031.708
1031718.0,49.0,91.0,22.0,122.0,1031.718
1031728.0,49.0,87.0,28.0,117.0,1031.728
1031738.0,48.0,85.0,41.0,123.0,1031.738
1031748.0,46.0,83.0,42.0,119.0,1031.748
1031758.0,46.0,83.0,38.0,120.0,1031.758
1031768.0,45.0,84.0,35.0,118.0,1031.768
1031778.0,44.0,85.0,31.0,117.0,1031.778
1031788.0,46.0,84.0,31.0,116.0,1031.788
1031798.0,46.0,83.0,33.0,115.0,1031.798
1031808.0,47.0,82.0,31.0,116.0,1031.808
1031818.0,49.0,79.0,32.0,134.0,1031.818
1031828.0,50.0,78.0,29.0,132.0,1031.828
1031838.0,52.0,75.0,26.0,124.0,1031.838
1031848.0,52.0,73.0,23.0,118.0,1031.848
1031858.0,52.0,70.0,21.0,116.0,1031.858
1031868.0,52.0,69.0,21.0,121.0,1031.868
1031878.0,54.0,67.0,20.0,122.0,1031.878
1031888.0,54.0,66.0,20.0,137.0,1031.888
1031898.0,52.0,66.0,19.0,131.0,1031.898
1031908.0,54.0,64.0,16.0,122.0,1031.908
1031918.0,54.0,62.0,17.0,114.0,1031.918
1031928.0,54.0,60.0,16.0,118.0,1031.928
1031938.0,53.0,61.0,17.0,119.0,1031.938
1031948.0,53.0,61.0,17.0,122.0,1031.948
1031958.0,54.0,60.0,18.0,119.0,1031.958
1031968.0,55.0,58.0,16.0,115.0,1031.968
1031979.0,55.0,57.0,16.0,125.0,1031.979
1031989.0,56.0,56.0,15.0,124.0,1031.989
1031999.0,55.0,54.0,16.0,120.0,1031.999
1032009.0,55.0,52.0,17.0,113.0,1032.009
1032019.0,57.0,51.0,17.0,114.0,1032.019
1032029.0,56.0,50.0,15.0,110.0,1032.029
1032039.0,58.0,48.0,14.0,119.0,1032.039
1032049.0,58.0,46.0,15.0,111.0,1032.049
1032059.0,57.0,46.0,14.0,107.0,1032.059
1032069.0,58.0,44.0,13.0,105.0,1032.069
1032079.0,59.0,45.0,12.0,120.0,1032.079
1032089.0,62.0,45.0,19.0,128.0,1032.089
1032099.0,61.0,45.0,24.0,124.0,1032.099
1032109.0,61.0,47.0,28.0,117.0,1032.109
1032119.0,61.0,47.0,25.0,109.0,1032.119
1032129.0,61.0,47.0,25.0,114.0,1032.129
1032139.0,64.0,44.0,23.0,113.0,1032.139
1032150.0,63.0,44.0,21.0,116.0,1032.15
1032160.0,61.0,43.0,21.0,111.0,1032.16
1032170.0,60.0,43.0,18.0,103.0,1032.17
1032180.0,61.0,41.0,20.0,109.0,1032.18
1032190.0,60.0,41.0,22.0,114.0,1032.19
1032200.0,59.0,42.0,20.0,109.0,1032.2
1032210.0,61.0,42.0,21.0,110.0,1032.21
1032220.0,60.0,42.0,21.0,105.0,1032.22
1032230.0,62.0,42.0,24.0,103.0,1032.23
1032240.0,62.0,41.0,22.0,106.0,1032.24
1032250.0,62.0,40.0,22.0,116.0,1032.25
1032260.0,62.0,40.0,22.0,111.0,1032.26
1032270.0,64.0,39.0,22.0,103.0,1032.27
1032280.0,65.0,38.0,20.0,108.0,1032.28
1032290.0,64.0,39.0,17.0,119.0,1032.29
1032300.0,63.0,38.0,17.0,114.0,1032.3
1032310.0,63.0,38.0,14.0,115.0,1032.31
1032320.0,63.0,37.0,13.0,109.0,1032.32
1032330.0,65.0,37.0,22.0,107.0,1032.33
1032340.0,64.0,39.0,22.0,104.0,1032.34
1032350.0,64.0,39.0,20.0,112.0,1032.35
1032360.0,64.0,41.0,17.0,120.0,1032.36
1032370.0,65.0,44.0,17.0,115.0,1032.37
1032380.0,65.0,46.0,14.0,117.0,1032.38
1032390.0,65.0,49.0,13.0,119.0,1032.39
1032400.0,66.0,50.0,12.0,124.0,1032.4
1032410.0,67.0,53.0,11.0,131.0,1032.41
1032420.0,68.0,54.0,10.0,138.0,1032.42
1032430.0,69.0,55.0,15.0,127.0,1032.43
1032440.0,69.0,58.0,17.0,126.0,1032.44
1032450.0,69.0,59.0,14.0,126.0,1032.45
1032460.0,70.0,59.0,12.0,125.0,1032.46
1032470.0,71.0,59.0,12.0,123.0,1032.47
1032480.0,72.0,59.0,11.0,118.0,1032.48
1032491.0,72.0,57.0,12.0,118.0,1032.491
1032501.0,73.0,57.0,13.0,110.0,1032.501
1032511.0,73.0,58.0,16.0,104.0,1032.511
1032521.0,71.0,58.0,13.0,117.0,1032.521
1032531.0,70.0,61.0,14.0,117.0,1032.531
1032541.0,71.0,59.0,13.0,114.0,1032.541
1032551.0,69.0,61.0,13.0,113.0,1032.551
1032561.0,68.0,60.0,12.0,114.0,1032.561
1032571.0,67.0,61.0,11.0,111.0,1032.571
1032581.0,68.0,61.0,11.0,113.0,1032.581
1032591.0,66.0,61.0,10.0,119.0,1032.591
1032601.0,67.0,61.0,9.0,120.0,1032.601
1032611.0,67.0,60.0,9.0,125.0,1032.611
1032621.0,67.0,60.0,9.0,131.0,1032.621
1032631.0,68.0,58.0,11.0,134.0,1032.631
1032641.0,67.0,59.0,9.0,125.0,1032.641
1032651.0,66.0,58.0,9.0,118.0,1032.651
1032662.0,66.0,58.0,13.0,122.0,1032.662
1032672.0,66.0,57.0,13.0,113.0,1032.672
1032682.0,66.0,59.0,12.0,119.0,1032.682
1032692.0,66.0,59.0,11.0,113.0,1032.692
1032702.0,65.0,59.0,12.0,114.0,1032.702
1032712.0,63.0,58.0,11.0,107.0,1032.712
1032722.0,63.0,57.0,11.0,136.0,1032.722
1032732.0,61.0,56.0,10.0,127.0,1032.732
1032742.0,60.0,55.0,16.0,123.0,1032.742
1032752.0,60.0,53.0,15.0,113.0,1032.752
1032762.0,57.0,54.0,18.0,106.0,1032.762
1032772.0,56.0,51.0,16.0,106.0,1032.772
1032782.0,55.0,50.0,15.0,111.0,1032.782
1032792.0,55.0,48.0,15.0,115.0,1032.792
1032802.0,54.0,48.0,14.0,108.0,1032.802
1032812.0,54.0,46.0,13.0,112.0,1032.812
1032822.0,56.0,45.0,16.0,120.0,1032.822
1032832.0,54.0,47.0,13.0,114.0,1032.832
1032842.0,54.0,45.0,14.0,115.0,1032.842
1032852.0,55.0,44.0,12.0,107.0,1032.852
1032862.0,55.0,44.0,12.0,101.0,1032.862
1032872.0,55.0,43.0,10.0,100.0,1032.872
1032882.0,52.0,45.0,11.0,101.0,1032.882
1032892.0,52.0,44.0,13.0,109.0,1032.892
1032902.0,53.0,44.0,11.0,106.0,1032.902
1032912.0,53.0,46.0,11.0,110.0,1032.912
1032922.0,53.0,45.0,10.0,113.0,1032.922
1032932.0,53.0,45.0,11.0,115.0,1032.932
1032942.0,54.0,45.0,10.0,109.0,1032.942
1032952.0,54.0,44.0,10.0,106.0,1032.952
1032962.0,55.0,45.0,10.0,105.0,1032.962
1032972.0,55.0,46.0,8.0,103.0,1032.972
1032982.0,55.0,45.0,8.0,101.0,1032.982
1032992.0,55.0,47.0,7.0,107.0,1032.992
1033003.0,54.0,48.0,8.0,113.0,1033.003
1033013.0,54.0,48.0,10.0,109.0,1033.013
1033023.0,52.0,49.0,9.0,102.0,1033.023
1033033.0,51.0,49.0,9.0,106.0,1033.033
1033043.0,50.0,49.0,13.0,104.0,1033.043
1033053.0,50.0,49.0,15.0,108.0,1033.053
1033063.0,49.0,50.0,15.0,103.0,1033.063
1033073.0,49.0,51.0,17.0,105.0,1033.073
1033083.0,48.0,52.0,15.0,97.0,1033.083
1033093.0,48.0,51.0,14.0,95.0,1033.093
1033103.0,47.0,50.0,13.0,96.0,1033.103
1033113.0,48.0,51.0,18.0,101.0,1033.113
1033123.0,48.0,49.0,16.0,100.0,1033.123
1033133.0,47.0,50.0,14.0,104.0,1033.133
1033143.0,47.0,48.0,19.0,99.0,1033.143
1033153.0,47.0,46.0,16.0,104.0,1033.153
1033163.0,46.0,45.0,14.0,106.0,1033.163
1033174.0,45.0,43.0,14.0,117.0,1033.174
1033184.0,45.0,43.0,14.0,120.0,1033.184
1033194.0,45.0,41.0,15.0,114.0,1033.194
1033204.0,44.0,41.0,13.0,114.0,1033.204
1033214.0,44.0,41.0,14.0,112.0,1033.214
1033224.0,44.0,41.0,12.0,108.0,1033.224
1033234.0,43.0,40.0,10.0,111.0,1033.234
1033244.0,43.0,40.0,10.0,105.0,1033.244
1033254.0,43.0,39.0,8.0,103.0,1033.254
1033264.0,43.0,38.0,9.0,93.0,1033.264
1033274.0,43.0,38.0,9.0,96.0,1033.274
1033284.0,44.0,38.0,9.0,99.0,1033.284
1033294.0,44.0,39.0,8.0,113.0,1033.294
1033304.0,43.0,38.0,8.0,112.0,1033.304
1033314.0,45.0,39.0,8.0,118.0,1033.314
1033324.0,45.0,40.0,7.0,121.0,1033.324
1033334.0,45.0,38.0,7.0,133.0,1033.334
1033344.0,45.0,38.0,7.0,136.0,1033.344
1033354.0,44.0,38.0,10.0,132.0,1033.354
1033364.0,45.0,39.0,10.0,124.0,1033.364
1033374.0,44.0,38.0,10.0,117.0,1033.374
1033384.0,44.0,37.0,10.0,115.0,1033.384
1033394.0,43.0,39.0,9.0,110.0,1033.394
1033404.0,42.0,38.0,9.0,106.0,1033.404
1033414.0,43.0,38.0,8.0,106.0,1033.414
1033424.0,42.0,37.0,11.0,99.0,1033.424
1033434.0,43.0,39.0,11.0,92.0,1033.434
1033444.0,42.0,38.0,10.0,107.0,1033.444
1033454.0,43.0,37.0,11.0,111.0,1033.454
1033464.0,43.0,39.0,11.0,109.0,1033.464
1033474.0,43.0,38.0,11.0,106.0,1033.474
1033484.0,44.0,38.0,9.0,100.0,1033.484
1033494.0,43.0,37.0,9.0,100.0,1033.494
1033504.0,44.0,37.0,10.0,103.0,1033.504
1033515.0,42.0,38.0,10.0,101.0,1033.515
1033525.0,45.0,37.0,11.0,95.0,1033.525
1033535.0,45.0,38.0,10.0,119.0,1033.535
1033545.0,47.0,38.0,9.0,117.0,1033.545
1033555.0,47.0,36.0,9.0,109.0,1033.555
1033565.0,49.0,36.0,10.0,104.0,1033.565
1033575.0,50.0,35.0,9.0,101.0,1033.575
1033585.0,52.0,35.0,7.0,95.0,1033.585
1033595.0,53.0,35.0,9.0,105.0,1033.595
1033605.0,53.0,36.0,11.0,112.0,1033.605
1033615.0,54.0,34.0,21.0,124.0,1033.615
1033625.0,54.0,35.0,19.0,118.0,1033.625
1033635.0,53.0,34.0,20.0,117.0,1033.635
1033645.0,54.0,34.0,18.0,129.0,1033.645
1033655.0,52.0,34.0,16.0,121.0,1033.655
1033665.0,52.0,33.0,14.0,113.0,1033.665
1033675.0,51.0,35.0,14.0,108.0,1033.675
1033686.0,50.0,32.0,12.0,108.0,1033.686
1033696.0,49.0,33.0,16.0,117.0,1033.696
1033706.0,52.0,36.0,15.0,124.0,1033.706
1033716.0,52.0,37.0,14.0,133.0,1033.716
1033726.0,52.0,37.0,14.0,124.0,1033.726
1033736.0,53.0,37.0,13.0,120.0,1033.736
