time (ms),signal 0,signal 1,signal 2,signal3,time (sec)
1003894.0,55.0,51.0,27.0,66.0,1003.894
1003904.0,55.0,53.0,22.0,66.0,1003.904
1003914.0,57.0,53.0,21.0,68.0,1003.914
1003924.0,57.0,56.0,19.0,66.0,1003.924
1003934.0,57.0,57.0,23.0,69.0,1003.934
1003944.0,59.0,58.0,25.0,67.0,1003.944
1003954.0,58.0,58.0,22.0,67.0,1003.954
1003964.0,59.0,59.0,29.0,62.0,1003.964
1003974.0,60.0,59.0,26.0,62.0,1003.974
1003984.0,60.0,59.0,23.0,62.0,1003.984
1003994.0,60.0,59.0,21.0,66.0,1003.994
1004004.0,59.0,61.0,21.0,73.0,1004.004
1004014.0,62.0,59.0,25.0,71.0,1004.014
1004024.0,62.0,60.0,20.0,69.0,1004.024
1004034.0,62.0,61.0,19.0,68.0,1004.034
1004044.0,61.0,63.0,18.0,79.0,1004.044
1004054.0,61.0,62.0,27.0,77.0,1004.054
1004064.0,62.0,60.0,26.0,73.0,1004.064
1004075.0,61.0,59.0,23.0,73.0,1004.075
1004085.0,61.0,59.0,22.0,71.0,1004.085
1004095.0,62.0,56.0,20.0,75.0,1004.095
1004105.0,62.0,56.0,21.0,74.0,1004.105
1004115.0,64.0,56.0,18.0,75.0,1004.115
1004125.0,61.0,59.0,21.0,73.0,1004.125
1004135.0,62.0,57.0,30.0,69.0,1004.135
1004145.0,62.0,56.0,28.0,68.0,1004.145
1004155.0,63.0,57.0,27.0,70.0,1004.155
1004165.0,61.0,57.0,33.0,70.0,1004.165
1004175.0,61.0,57.0,30.0,69.0,1004.175
1004185.0,61.0,57.0,27.0,73.0,1004.185
1004195.0,61.0,59.0,23.0,71.0,1004.195
1004205.0,60.0,56.0,22.0,74.0,1004.205
1004215.0,59.0,58.0,21.0,72.0,1004.215
1004225.0,60.0,56.0,33.0,73.0,1004.225
1004235.0,59.0,54.0,29.0,71.0,1004.235
1004246.0,58.0,53.0,26.0,67.0,1004.246
1004256.0,58.0,53.0,32.0,67.0,1004.256
1004266.0,61.0,52.0,29.0,68.0,1004.266
1004276.0,61.0,50.0,27.0,64.0,1004.276
1004286.0,60.0,49.0,24.0,62.0,1004.286
1004296.0,60.0,50.0,25.0,67.0,1004.296
1004306.0,60.0,48.0,22.0,75.0,1004.306
1004316.0,62.0,49.0,42.0,71.0,1004.316
1004326.0,64.0,47.0,40.0,68.0,1004.326
1004336.0,66.0,46.0,35.0,67.0,1004.336
1004346.0,68.0,46.0,32.0,71.0,1004.346
1004356.0,69.0,47.0,28.0,65.0,1004.356
1004366.0,70.0,46.0,26.0,62.0,1004.366
1004376.0,70.0,45.0,23.0,60.0,1004.376
1004386.0,70.0,44.0,22.0,63.0,1004.386
1004396.0,70.0,44.0,23.0,64.0,1004.396
1004406.0,69.0,45.0,31.0,65.0,1004.406
1004416.0,70.0,43.0,29.0,68.0,1004.416
1004426.0,69.0,42.0,27.0,70.0,1004.426
1004436.0,69.0,43.0,25.0,69.0,1004.436
1004446.0,68.0,43.0,21.0,67.0,1004.446
1004456.0,67.0,42.0,20.0,63.0,1004.456
1004466.0,66.0,41.0,17.0,65.0,1004.466
1004476.0,65.0,43.0,19.0,65.0,1004.476
1004486.0,64.0,41.0,18.0,62.0,1004.486
1004496.0,63.0,41.0,17.0,62.0,1004.496
1004506.0,62.0,43.0,33.0,65.0,1004.506
1004516.0,62.0,42.0,30.0,68.0,1004.516
1004526.0,61.0,41.0,29.0,66.0,1004.526
1004536.0,62.0,41.0,25.0,67.0,1004.536
1004546.0,60.0,43.0,30.0,65.0,1004.546
1004556.0,60.0,42.0,28.0,68.0,1004.556
1004566.0,60.0,43.0,24.0,66.0,1004.566
1004576.0,61.0,43.0,37.0,67.0,1004.576
1004587.0,61.0,41.0,32.0,68.0,1004.587
1004597.0,59.0,42.0,32.0,65.0,1004.597
1004607.0,59.0,41.0,29.0,66.0,1004.607
1004617.0,59.0,42.0,26.0,62.0,1004.617
1004627.0,58.0,42.0,26.0,59.0,1004.627
1004637.0,57.0,40.0,24.0,60.0,1004.637
1004647.0,57.0,40.0,24.0,59.0,1004.647
1004657.0,56.0,41.0,22.0,57.0,1004.657
1004667.0,56.0,43.0,26.0,59.0,1004.667
1004677.0,57.0,42.0,25.0,64.0,1004.677
1004687.0,57.0,43.0,23.0,61.0,1004.687
1004697.0,56.0,42.0,22.0,63.0,1004.697
1004707.0,57.0,44.0,19.0,69.0,1004.707
1004717.0,58.0,44.0,18.0,70.0,1004.717
1004727.0,58.0,45.0,16.0,67.0,1004.727
1004737.0,57.0,46.0,16.0,63.0,1004.737
1004747.0,59.0,47.0,14.0,61.0,1004.747
1004758.0,59.0,51.0,27.0,70.0,1004.758
1004768.0,60.0,49.0,25.0,69.0,1004.768
1004778.0,61.0,49.0,21.0,65.0,1004.778
1004788.0,60.0,50.0,20.0,70.0,1004.788
1004798.0,60.0,52.0,19.0,67.0,1004.798
1004808.0,61.0,52.0,19.0,70.0,1004.808
1004818.0,60.0,52.0,17.0,76.0,1004.818
1004828.0,58.0,53.0,18.0,91.0,1004.828
1004838.0,58.0,52.0,32.0,98.0,1004.838
1004848.0,60.0,51.0,28.0,97.0,1004.848
1004858.0,60.0,53.0,28.0,98.0,1004.858
1004868.0,60.0,52.0,26.0,98.0,1004.868
1004878.0,61.0,52.0,23.0,93.0,1004.878
1004888.0,60.0,52.0,21.0,88.0,1004.888
1004898.0,59.0,54.0,23.0,85.0,1004.898
1004908.0,59.0,52.0,25.0,86.0,1004.908
1004918.0,57.0,55.0,28.0,90.0,1004.918
1004928.0,57.0,57.0,32.0,88.0,1004.928
1004938.0,58.0,56.0,31.0,89.0,1004.938
1004948.0,55.0,55.0,30.0,93.0,1004.948
1004958.0,55.0,55.0,32.0,94.0,1004.958
1004968.0,54.0,57.0,31.0,95.0,1004.968
1004978.0,55.0,54.0,28.0,99.0,1004.978
1004988.0,54.0,55.0,25.0,94.0,1004.988
1004998.0,54.0,55.0,23.0,93.0,1004.998
1005008.0,54.0,55.0,20.0,88.0,1005.008
1005018.0,51.0,55.0,18.0,88.0,1005.018
1005028.0,52.0,54.0,28.0,89.0,1005.028
1005038.0,51.0,54.0,26.0,90.0,1005.038
1005048.0,51.0,52.0,25.0,87.0,1005.048
1005058.0,52.0,52.0,21.0,93.0,1005.058
1005068.0,52.0,52.0,21.0,91.0,1005.068
1005078.0,52.0,52.0,18.0,88.0,1005.078
1005088.0,50.0,53.0,19.0,87.0,1005.088
1005099.0,53.0,52.0,18.0,84.0,1005.099
1005109.0,54.0,51.0,16.0,81.0,1005.109
1005119.0,53.0,50.0,14.0,76.0,1005.119
1005129.0,53.0,52.0,20.0,78.0,1005.129
1005139.0,56.0,51.0,24.0,81.0,1005.139
1005149.0,55.0,51.0,26.0,79.0,1005.149
1005159.0,56.0,49.0,23.0,83.0,1005.159
1005169.0,56.0,49.0,23.0,81.0,1005.169
1005179.0,57.0,47.0,25.0,78.0,1005.179
1005189.0,59.0,46.0,25.0,76.0,1005.189
1005199.0,60.0,45.0,21.0,76.0,1005.199
1005209.0,60.0,45.0,29.0,75.0,1005.209
1005219.0,59.0,44.0,26.0,79.0,1005.219
1005229.0,58.0,44.0,23.0,77.0,1005.229
1005239.0,58.0,44.0,19.0,80.0,1005.239
1005249.0,59.0,45.0,18.0,77.0,1005.249
1005259.0,58.0,44.0,19.0,73.0,1005.259
1005270.0,59.0,46.0,20.0,73.0,1005.27
1005280.0,60.0,43.0,19.0,73.0,1005.28
1005290.0,59.0,43.0,16.0,70.0,1005.29
1005300.0,60.0,44.0,31.0,67.0,1005.3
1005310.0,59.0,44.0,27.0,67.0,1005.31
1005320.0,59.0,43.0,25.0,74.0,1005.32
1005330.0,59.0,42.0,25.0,68.0,1005.33
1005340.0,57.0,41.0,24.0,69.0,1005.34
1005350.0,59.0,40.0,22.0,71.0,1005.35
1005360.0,58.0,41.0,19.0,67.0,1005.36
1005370.0,56.0,41.0,18.0,74.0,1005.37
1005380.0,56.0,43.0,25.0,73.0,1005.38
1005390.0,58.0,44.0,30.0,77.0,1005.39
1005400.0,57.0,43.0,28.0,74.0,1005.4
1005410.0,60.0,42.0,24.0,70.0,1005.41
1005420.0,59.0,40.0,24.0,74.0,1005.42
1005430.0,60.0,40.0,21.0,70.0,1005.43
1005440.0,58.0,40.0,22.0,68.0,1005.44
1005450.0,59.0,39.0,20.0,72.0,1005.45
1005460.0,60.0,40.0,19.0,69.0,1005.46
1005470.0,58.0,44.0,29.0,68.0,1005.47
1005480.0,57.0,42.0,25.0,65.0,1005.48
1005490.0,57.0,42.0,24.0,71.0,1005.49
1005500.0,58.0,41.0,22.0,72.0,1005.5
1005510.0,56.0,42.0,22.0,71.0,1005.51
1005520.0,55.0,44.0,27.0,74.0,1005.52
1005530.0,56.0,43.0,23.0,76.0,1005.53
1005540.0,56.0,42.0,22.0,76.0,1005.54
1005550.0,57.0,41.0,20.0,71.0,1005.55
1005560.0,57.0,43.0,27.0,72.0,1005.56
1005570.0,58.0,42.0,24.0,72.0,1005.57
1005580.0,58.0,42.0,22.0,71.0,1005.58
1005590.0,59.0,41.0,20.0,71.0,1005.59
1005600.0,58.0,42.0,19.0,71.0,1005.6
1005611.0,58.0,41.0,24.0,68.0,1005.611
1005621.0,57.0,42.0,24.0,70.0,1005.621
1005631.0,57.0,41.0,22.0,65.0,1005.631
1005641.0,54.0,41.0,19.0,65.0,1005.641
1005651.0,54.0,44.0,30.0,74.0,1005.651
1005661.0,53.0,43.0,31.0,74.0,1005.661
1005671.0,52.0,43.0,27.0,81.0,1005.671
1005681.0,52.0,42.0,28.0,79.0,1005.681
1005691.0,52.0,43.0,25.0,74.0,1005.691
1005701.0,52.0,42.0,29.0,77.0,1005.701
1005711.0,53.0,43.0,27.0,72.0,1005.711
1005721.0,51.0,45.0,24.0,76.0,1005.721
1005731.0,51.0,45.0,21.0,73.0,1005.731
1005741.0,51.0,48.0,26.0,71.0,1005.741
1005751.0,49.0,47.0,29.0,69.0,1005.751
1005761.0,50.0,47.0,27.0,68.0,1005.761
1005771.0,51.0,46.0,26.0,74.0,1005.771
1005782.0,50.0,48.0,25.0,69.0,1005.782
1005792.0,50.0,49.0,23.0,65.0,1005.792
1005802.0,51.0,49.0,23.0,63.0,1005.802
1005812.0,51.0,51.0,19.0,66.0,1005.812
1005822.0,53.0,51.0,19.0,64.0,1005.822
1005832.0,55.0,53.0,25.0,64.0,1005.832
1005842.0,55.0,53.0,28.0,68.0,1005.842
1005852.0,56.0,54.0,26.0,72.0,1005.852
1005862.0,55.0,55.0,23.0,79.0,1005.862
1005872.0,55.0,55.0,22.0,77.0,1005.872
1005882.0,55.0,53.0,18.0,72.0,1005.882
1005892.0,56.0,52.0,18.0,71.0,1005.892
1005902.0,56.0,53.0,15.0,68.0,1005.902
1005912.0,57.0,52.0,14.0,66.0,1005.912
1005922.0,55.0,53.0,19.0,73.0,1005.922
1005932.0,54.0,52.0,16.0,71.0,1005.932
1005942.0,54.0,53.0,32.0,69.0,1005.942
1005952.0,55.0,51.0,29.0,69.0,1005.952
1005962.0,58.0,50.0,26.0,76.0,1005.962
1005972.0,59.0,51.0,23.0,70.0,1005.972
1005982.0,59.0,51.0,21.0,68.0,1005.982
1005992.0,61.0,51.0,19.0,70.0,1005.992
1006002.0,60.0,53.0,17.0,72.0,1006.002
1006012.0,63.0,51.0,17.0,70.0,1006.012
1006022.0,62.0,52.0,16.0,74.0,1006.022
1006032.0,62.0,53.0,24.0,71.0,1006.032
1006042.0,64.0,51.0,21.0,71.0,1006.042
1006052.0,65.0,51.0,20.0,70.0,1006.052
1006062.0,64.0,50.0,17.0,73.0,1006.062
1006072.0,64.0,49.0,16.0,78.0,1006.072
1006082.0,65.0,48.0,15.0,79.0,1006.082
1006092.0,64.0,47.0,13.0,75.0,1006.092
1006102.0,64.0,48.0,12.0,78.0,1006.102
1006112.0,63.0,49.0,13.0,76.0,1006.112
1006123.0,62.0,50.0,15.0,72.0,1006.123
1006133.0,63.0,53.0,32.0,78.0,1006.133
1006143.0,63.0,52.0,29.0,85.0,1006.143
1006153.0,62.0,53.0,28.0,95.0,1006.153
1006163.0,62.0,53.0,24.0,86.0,1006.163
1006173.0,63.0,53.0,23.0,80.0,1006.173
1006183.0,62.0,54.0,25.0,76.0,1006.183
1006193.0,63.0,54.0,23.0,79.0,1006.193
1006203.0,62.0,54.0,22.0,77.0,1006.203
1006213.0,62.0,56.0,28.0,79.0,1006.213
1006223.0,63.0,56.0,28.0,80.0,1006.223
1006233.0,62.0,57.0,25.0,80.0,1006.233
1006243.0,64.0,54.0,22.0,74.0,1006.243
1006253.0,64.0,55.0,21.0,73.0,1006.253
1006263.0,64.0,57.0,18.0,70.0,1006.263
1006273.0,63.0,58.0,19.0,71.0,1006.273
1006283.0,64.0,57.0,17.0,70.0,1006.283
1006294.0,64.0,59.0,18.0,71.0,1006.294
1006304.0,63.0,60.0,16.0,72.0,1006.304
1006314.0,63.0,61.0,21.0,70.0,1006.314
1006324.0,63.0,59.0,27.0,74.0,1006.324
1006334.0,63.0,58.0,28.0,73.0,1006.334
1006344.0,65.0,58.0,24.0,69.0,1006.344
1006354.0,63.0,59.0,23.0,69.0,1006.354
1006364.0,64.0,58.0,21.0,69.0,1006.364
1006374.0,63.0,57.0,19.0,67.0,1006.374
1006384.0,61.0,57.0,25.0,68.0,1006.384
1006394.0,61.0,55.0,25.0,68.0,1006.394
1006404.0,61.0,55.0,27.0,66.0,1006.404
1006414.0,63.0,55.0,31.0,65.0,1006.414
1006424.0,62.0,54.0,32.0,63.0,1006.424
1006434.0,62.0,53.0,29.0,68.0,1006.434
1006444.0,63.0,53.0,25.0,72.0,1006.444
1006454.0,61.0,51.0,23.0,73.0,1006.454
1006464.0,61.0,50.0,23.0,76.0,1006.464
1006474.0,63.0,51.0,23.0,77.0,1006.474
1006484.0,63.0,51.0,24.0,77.0,1006.484
1006494.0,63.0,51.0,27.0,76.0,1006.494
1006504.0,65.0,49.0,25.0,73.0,1006.504
1006514.0,66.0,50.0,24.0,76.0,1006.514
1006524.0,67.0,49.0,35.0,72.0,1006.524
1006534.0,68.0,48.0,33.0,71.0,1006.534
1006544.0,68.0,47.0,29.0,67.0,1006.544
1006554.0,69.0,46.0,26.0,65.0,1006.554
1006564.0,68.0,45.0,36.0,64.0,1006.564
1006574.0,68.0,44.0,34.0,61.0,1006.574
1006584.0,69.0,43.0,31.0,62.0,1006.584
1006594.0,69.0,40.0,30.0,60.0,1006.594
1006604.0,70.0,40.0,27.0,63.0,1006.604
1006614.0,70.0,39.0,24.0,61.0,1006.614
1006624.0,71.0,39.0,23.0,62.0,1006.624
1006635.0,71.0,38.0,20.0,65.0,1006.635
1006645.0,73.0,37.0,18.0,61.0,1006.645
1006655.0,72.0,41.0,26.0,59.0,1006.655
1006665.0,73.0,38.0,27.0,62.0,1006.665
1006675.0,73.0,38.0,28.0,62.0,1006.675
1006685.0,75.0,40.0,26.0,63.0,1006.685
1006695.0,77.0,39.0,23.0,70.0,1006.695
1006705.0,76.0,38.0,20.0,70.0,1006.705
1006715.0,75.0,37.0,23.0,68.0,1006.715
1006725.0,74.0,38.0,22.0,66.0,1006.725
1006735.0,74.0,38.0,20.0,68.0,1006.735
1006745.0,75.0,36.0,18.0,68.0,1006.745
1006755.0,75.0,39.0,27.0,74.0,1006.755
1006765.0,76.0,38.0,31.0,75.0,1006.765
1006775.0,75.0,38.0,28.0,75.0,1006.775
1006785.0,74.0,37.0,26.0,76.0,1006.785
1006795.0,72.0,37.0,23.0,76.0,1006.795
1006806.0,71.0,38.0,25.0,74.0,1006.806
1006816.0,72.0,38.0,23.0,69.0,1006.816
1006826.0,70.0,39.0,21.0,68.0,1006.826
1006836.0,69.0,39.0,18.0,63.0,1006.836
1006846.0,66.0,40.0,16.0,65.0,1006.846
1006856.0,65.0,41.0,17.0,69.0,1006.856
1006866.0,64.0,44.0,19.0,71.0,1006.866
1006876.0,65.0,41.0,22.0,66.0,1006.876
1006886.0,65.0,41.0,19.0,76.0,1006.886
1006896.0,64.0,41.0,17.0,78.0,1006.896
1006906.0,65.0,41.0,17.0,83.0,1006.906
1006916.0,64.0,41.0,14.0,79.0,1006.916
1006926.0,65.0,39.0,14.0,76.0,1006.926
1006936.0,65.0,40.0,13.0,75.0,1006.936
1006946.0,65.0,40.0,12.0,83.0,1006.946
1006956.0,65.0,41.0,14.0,81.0,1006.956
1006966.0,65.0,43.0,16.0,81.0,1006.966
1006976.0,67.0,45.0,40.0,82.0,1006.976
1006986.0,66.0,45.0,34.0,80.0,1006.986
1006996.0,67.0,44.0,32.0,76.0,1006.996
1007006.0,67.0,43.0,28.0,72.0,1007.006
1007016.0,66.0,44.0,24.0,68.0,1007.016
1007026.0,67.0,44.0,22.0,68.0,1007.026
1007036.0,65.0,45.0,21.0,72.0,1007.036
1007046.0,66.0,44.0,20.0,74.0,1007.046
1007056.0,64.0,43.0,18.0,74.0,1007.056
1007066.0,65.0,43.0,22.0,75.0,1007.066
1007076.0,64.0,44.0,23.0,74.0,1007.076
1007086.0,63.0,44.0,21.0,79.0,1007.086
1007096.0,63.0,46.0,19.0,80.0,1007.096
1007106.0,61.0,45.0,31.0,80.0,1007.106
1007116.0,63.0,46.0,28.0,77.0,1007.116
1007126.0,63.0,45.0,26.0,73.0,1007.126
1007136.0,63.0,47.0,23.0,72.0,1007.136
1007147.0,62.0,47.0,20.0,70.0,1007.147
1007157.0,62.0,48.0,21.0,76.0,1007.157
1007167.0,61.0,47.0,20.0,84.0,1007.167
1007177.0,60.0,47.0,29.0,80.0,1007.177
1007187.0,61.0,47.0,28.0,79.0,1007.187
1007197.0,60.0,45.0,24.0,80.0,1007.197
1007207.0,61.0,43.0,23.0,82.0,1007.207
1007217.0,60.0,44.0,20.0,79.0,1007.217
1007227.0,58.0,41.0,20.0,78.0,1007.227
1007237.0,59.0,40.0,18.0,79.0,1007.237
1007247.0,60.0,42.0,28.0,79.0,1007.247
1007257.0,63.0,41.0,25.0,78.0,1007.257
1007267.0,61.0,40.0,21.0,81.0,1007.267
1007277.0,62.0,40.0,21.0,79.0,1007.277
1007287.0,62.0,40.0,18.0,79.0,1007.287
1007297.0,62.0,39.0,18.0,81.0,1007.297
1007307.0,63.0,38.0,19.0,78.0,1007.307
1007318.0,62.0,39.0,17.0,80.0,1007.318
1007328.0,61.0,43.0,16.0,80.0,1007.328
1007338.0,60.0,45.0,14.0,77.0,1007.338
1007348.0,64.0,46.0,14.0,73.0,1007.348
1007358.0,62.0,50.0,19.0,70.0,1007.358
1007368.0,64.0,58.0,26.0,78.0,1007.368
1007378.0,71.0,72.0,25.0,78.0,1007.378
1007388.0,73.0,86.0,25.0,71.0,1007.388
1007398.0,70.0,84.0,28.0,74.0,1007.398
1007408.0,71.0,103.0,27.0,72.0,1007.408
1007418.0,71.0,109.0,29.0,69.0,1007.418
1007428.0,72.0,109.0,26.0,66.0,1007.428
1007438.0,79.0,173.0,41.0,73.0,1007.438
1007448.0,86.0,168.0,39.0,85.0,1007.448
1007458.0,85.0,198.0,41.0,93.0,1007.458
1007468.0,88.0,211.0,37.0,89.0,1007.468
1007478.0,93.0,207.0,36.0,93.0,1007.478
1007488.0,95.0,204.0,35.0,96.0,1007.488
1007498.0,100.0,209.0,35.0,93.0,1007.498
1007508.0,103.0,253.0,49.0,106.0,1007.508
1007518.0,102.0,238.0,44.0,103.0,1007.518
1007528.0,97.0,215.0,39.0,109.0,1007.528
1007538.0,93.0,210.0,35.0,104.0,1007.538
1007548.0,102.0,241.0,38.0,102.0,1007.548
1007558.0,108.0,263.0,42.0,105.0,1007.558
1007568.0,122.0,335.0,59.0,105.0,1007.568
1007578.0,127.0,372.0,64.0,102.0,1007.578
1007588.0,133.0,366.0,62.0,116.0,1007.588
1007598.0,124.0,351.0,54.0,115.0,1007.598
1007608.0,113.0,329.0,47.0,120.0,1007.608
1007618.0,104.0,328.0,44.0,128.0,1007.618
1007628.0,106.0,344.0,41.0,127.0,1007.628
1007638.0,114.0,364.0,43.0,121.0,1007.638
1007648.0,119.0,395.0,49.0,120.0,1007.648
1007659.0,118.0,377.0,50.0,128.0,1007.659
1007669.0,116.0,353.0,45.0,128.0,1007.669
1007679.0,115.0,342.0,42.0,121.0,1007.679
1007689.0,107.0,340.0,50.0,122.0,1007.689
1007699.0,101.0,344.0,45.0,120.0,1007.699
1007709.0,112.0,369.0,53.0,121.0,1007.709
1007719.0,120.0,372.0,56.0,118.0,1007.719
1007729.0,119.0,356.0,53.0,121.0,1007.729
1007739.0,111.0,357.0,49.0,115.0,1007.739
1007749.0,112.0,344.0,45.0,130.0,1007.749
1007759.0,106.0,336.0,40.0,137.0,1007.759
1007769.0,108.0,330.0,36.0,152.0,1007.769
1007779.0,108.0,322.0,33.0,171.0,1007.779
1007789.0,109.0,332.0,31.0,174.0,1007.789
1007799.0,113.0,310.0,30.0,187.0,1007.799
1007809.0,110.0,328.0,27.0,181.0,1007.809
1007819.0,114.0,315.0,25.0,171.0,1007.819
1007830.0,111.0,297.0,22.0,157.0,1007.83
1007840.0,106.0,291.0,20.0,155.0,1007.84
1007850.0,104.0,286.0,18.0,167.0,1007.85
1007860.0,109.0,293.0,17.0,151.0,1007.86
1007870.0,107.0,282.0,16.0,145.0,1007.87
1007880.0,104.0,276.0,17.0,132.0,1007.88
1007890.0,105.0,271.0,17.0,123.0,1007.89
1007900.0,104.0,267.0,14.0,134.0,1007.9
1007910.0,110.0,281.0,14.0,141.0,1007.91
1007920.0,106.0,270.0,18.0,135.0,1007.92
1007930.0,107.0,268.0,31.0,140.0,1007.93
1007940.0,103.0,267.0,47.0,148.0,1007.94
1007950.0,98.0,261.0,47.0,153.0,1007.95
1007960.0,98.0,255.0,46.0,149.0,1007.96
1007970.0,99.0,251.0,40.0,141.0,1007.97
1007980.0,98.0,240.0,37.0,139.0,1007.98
1007990.0,96.0,237.0,34.0,139.0,1007.99
1008000.0,94.0,249.0,38.0,148.0,1008.0
1008010.0,100.0,252.0,36.0,141.0,1008.01
1008020.0,100.0,238.0,32.0,138.0,1008.02
1008030.0,95.0,233.0,32.0,132.0,1008.03
1008040.0,94.0,230.0,28.0,128.0,1008.04
1008050.0,92.0,219.0,25.0,121.0,1008.05
1008060.0,88.0,218.0,22.0,120.0,1008.06
1008070.0,86.0,222.0,21.0,117.0,1008.07
1008080.0,87.0,222.0,21.0,110.0,1008.08
1008090.0,88.0,212.0,23.0,119.0,1008.09
1008100.0,89.0,211.0,20.0,111.0,1008.1
1008110.0,82.0,216.0,18.0,105.0,1008.11
1008120.0,80.0,208.0,17.0,100.0,1008.12
1008130.0,83.0,218.0,15.0,103.0,1008.13
1008140.0,79.0,216.0,14.0,102.0,1008.14
1008150.0,80.0,211.0,12.0,100.0,1008.15
1008160.0,79.0,207.0,11.0,104.0,1008.16
1008171.0,75.0,202.0,12.0,107.0,1008.171
1008181.0,74.0,204.0,12.0,101.0,1008.181
1008191.0,74.0,195.0,12.0,109.0,1008.191
1008201.0,74.0,190.0,10.0,101.0,1008.201
1008211.0,73.0,198.0,9.0,102.0,1008.211
1008221.0,70.0,196.0,9.0,100.0,1008.221
1008231.0,79.0,204.0,9.0,97.0,1008.231
1008241.0,79.0,215.0,9.0,103.0,1008.241
1008251.0,78.0,209.0,6.0,112.0,1008.251
1008261.0,79.0,217.0,9.0,106.0,1008.261
1008271.0,78.0,211.0,7.0,102.0,1008.271
1008281.0,75.0,209.0,6.0,91.0,1008.281
1008291.0,72.0,209.0,6.0,94.0,1008.291
1008301.0,73.0,202.0,8.0,104.0,1008.301
1008311.0,72.0,209.0,8.0,104.0,1008.311
1008321.0,70.0,212.0,7.0,105.0,1008.321
1008331.0,82.0,228.0,11.0,103.0,1008.331
1008342.0,81.0,217.0,10.0,94.0,1008.342
1008352.0,80.0,215.0,12.0,87.0,1008.352
1008362.0,77.0,203.0,10.0,89.0,1008.362
1008372.0,75.0,198.0,9.0,83.0,1008.372
1008382.0,75.0,190.0,10.0,79.0,1008.382
1008392.0,72.0,189.0,8.0,78.0,1008.392
1008402.0,75.0,198.0,8.0,72.0,1008.402
1008412.0,81.0,203.0,11.0,71.0,1008.412
1008422.0,78.0,196.0,14.0,72.0,1008.422
1008432.0,75.0,192.0,14.0,72.0,1008.432
1008442.0,73.0,182.0,12.0,70.0,1008.442
1008452.0,74.0,175.0,12.0,73.0,1008.452
1008462.0,73.0,173.0,12.0,75.0,1008.462
1008472.0,77.0,179.0,12.0,79.0,1008.472
1008482.0,74.0,177.0,11.0,82.0,1008.482
1008492.0,74.0,176.0,12.0,77.0,1008.492
1008502.0,72.0,174.0,11.0,71.0,1008.502
1008512.0,69.0,167.0,10.0,70.0,1008.512
1008522.0,68.0,166.0,11.0,67.0,1008.522
1008532.0,70.0,167.0,14.0,75.0,1008.532
1008542.0,70.0,163.0,13.0,75.0,1008.542
1008552.0,68.0,156.0,11.0,74.0,1008.552
1008562.0,73.0,167.0,13.0,76.0,1008.562
1008572.0,74.0,166.0,17.0,82.0,1008.572
1008582.0,69.0,160.0,17.0,88.0,1008.582
1008592.0,67.0,158.0,17.0,89.0,1008.592
1008602.0,66.0,156.0,14.0,87.0,1008.602
1008612.0,68.0,148.0,14.0,79.0,1008.612
1008622.0,68.0,156.0,13.0,79.0,1008.622
1008632.0,64.0,153.0,13.0,85.0,1008.632
1008642.0,65.0,149.0,12.0,84.0,1008.642
1008652.0,61.0,149.0,9.0,88.0,1008.652
1008662.0,62.0,150.0,9.0,94.0,1008.662
1008672.0,60.0,146.0,9.0,92.0,1008.672
1008683.0,58.0,146.0,12.0,89.0,1008.683
1008693.0,60.0,154.0,11.0,86.0,1008.693
1008703.0,67.0,165.0,10.0,83.0,1008.703
1008713.0,68.0,158.0,10.0,95.0,1008.713
1008723.0,68.0,153.0,9.0,100.0,1008.723
1008733.0,67.0,162.0,12.0,96.0,1008.733
1008743.0,66.0,159.0,9.0,92.0,1008.743
1008753.0,63.0,160.0,9.0,85.0,1008.753
1008763.0,75.0,173.0,11.0,89.0,1008.763
1008773.0,72.0,169.0,11.0,85.0,1008.773
1008783.0,71.0,161.0,11.0,84.0,1008.783
1008793.0,67.0,156.0,9.0,85.0,1008.793
1008803.0,65.0,151.0,10.0,85.0,1008.803
1008813.0,62.0,154.0,8.0,86.0,1008.813
1008823.0,61.0,150.0,11.0,95.0,1008.823
1008833.0,65.0,157.0,10.0,95.0,1008.833
1008843.0,65.0,155.0,10.0,86.0,1008.843
1008854.0,63.0,148.0,11.0,80.0,1008.854
1008864.0,60.0,147.0,9.0,78.0,1008.864
1008874.0,61.0,151.0,11.0,85.0,1008.874
1008884.0,60.0,147.0,10.0,89.0,1008.884
1008894.0,59.0,142.0,10.0,87.0,1008.894
1008904.0,59.0,143.0,9.0,82.0,1008.904
1008914.0,59.0,142.0,10.0,76.0,1008.914
1008924.0,59.0,138.0,12.0,79.0,1008.924
1008934.0,60.0,137.0,10.0,78.0,1008.934
1008944.0,61.0,134.0,11.0,78.0,1008.944
1008954.0,60.0,139.0,8.0,78.0,1008.954
1008964.0,59.0,135.0,8.0,79.0,1008.964
1008974.0,59.0,135.0,9.0,78.0,1008.974
1008984.0,58.0,136.0,10.0,82.0,1008.984
1008994.0,57.0,142.0,9.0,77.0,1008.994
1009004.0,55.0,139.0,9.0,75.0,1009.004
1009014.0,54.0,139.0,10.0,71.0,1009.014
1009024.0,52.0,132.0,10.0,72.0,1009.024
1009034.0,54.0,134.0,10.0,70.0,1009.034
1009044.0,52.0,132.0,9.0,70.0,1009.044
1009054.0,53.0,133.0,8.0,64.0,1009.054
1009064.0,52.0,128.0,8.0,62.0,1009.064
1009074.0,52.0,125.0,7.0,68.0,1009.074
1009084.0,56.0,134.0,9.0,74.0,1009.084
1009094.0,54.0,142.0,9.0,77.0,1009.094
1009104.0,53.0,135.0,8.0,72.0,1009.104
1009114.0,53.0,131.0,12.0,72.0,1009.114
1009124.0,53.0,129.0,15.0,79.0,1009.124
1009134.0,55.0,128.0,14.0,82.0,1009.134
1009144.0,53.0,125.0,12.0,79.0,1009.144
1009154.0,53.0,128.0,12.0,79.0,1009.154
1009164.0,54.0,124.0,12.0,75.0,1009.164
1009174.0,52.0,121.0,11.0,72.0,1009.174
1009184.0,51.0,120.0,11.0,79.0,1009.184
1009195.0,53.0,127.0,10.0,81.0,1009.195
1009205.0,53.0,119.0,9.0,83.0,1009.205
1009215.0,53.0,126.0,9.0,85.0,1009.215
1009225.0,54.0,123.0,12.0,81.0,1009.225
1009235.0,52.0,120.0,10.0,77.0,1009.235
1009245.0,53.0,120.0,13.0,73.0,1009.245
1009255.0,52.0,115.0,11.0,72.0,1009.255
1009265.0,55.0,115.0,11.0,75.0,1009.265
1009275.0,53.0,108.0,10.0,84.0,1009.275
1009285.0,52.0,112.0,9.0,84.0,1009.285
1009295.0,53.0,112.0,10.0,80.0,1009.295
1009305.0,53.0,108.0,8.0,80.0,1009.305
1009315.0,52.0,113.0,15.0,81.0,1009.315
1009325.0,55.0,107.0,13.0,86.0,1009.325
1009335.0,57.0,118.0,11.0,82.0,1009.335
1009345.0,61.0,118.0,11.0,94.0,1009.345
1009355.0,59.0,113.0,9.0,98.0,1009.355
1009366.0,61.0,105.0,10.0,91.0,1009.366
1009376.0,58.0,103.0,8.0,88.0,1009.376
1009386.0,59.0,101.0,8.0,84.0,1009.386
1009396.0,57.0,98.0,11.0,86.0,1009.396
1009406.0,56.0,96.0,11.0,81.0,1009.406
1009416.0,59.0,98.0,11.0,83.0,1009.416
1009426.0,60.0,92.0,14.0,81.0,1009.426
1009436.0,61.0,91.0,14.0,79.0,1009.436
1009446.0,60.0,86.0,12.0,71.0,1009.446
1009456.0,59.0,85.0,11.0,70.0,1009.456
1009466.0,62.0,91.0,10.0,70.0,1009.466
1009476.0,62.0,90.0,10.0,64.0,1009.476
1009486.0,62.0,88.0,11.0,68.0,1009.486
1009496.0,62.0,92.0,11.0,68.0,1009.496
1009506.0,63.0,90.0,14.0,68.0,1009.506
1009516.0,60.0,85.0,15.0,69.0,1009.516
1009526.0,60.0,79.0,13.0,73.0,1009.526
1009536.0,60.0,77.0,12.0,89.0,1009.536
1009546.0,60.0,78.0,11.0,83.0,1009.546
1009556.0,60.0,75.0,10.0,76.0,1009.556
1009566.0,57.0,77.0,10.0,74.0,1009.566
1009576.0,59.0,89.0,15.0,75.0,1009.576
1009586.0,57.0,89.0,14.0,72.0,1009.586
1009596.0,59.0,85.0,13.0,73.0,1009.596
1009606.0,57.0,81.0,11.0,73.0,1009.606
1009616.0,57.0,89.0,16.0,68.0,1009.616
1009626.0,58.0,84.0,15.0,74.0,1009.626
1009636.0,57.0,79.0,13.0,73.0,1009.636
1009646.0,57.0,79.0,15.0,72.0,1009.646
1009656.0,58.0,77.0,12.0,67.0,1009.656
1009666.0,60.0,81.0,13.0,65.0,1009.666
1009676.0,59.0,76.0,12.0,62.0,1009.676
1009686.0,58.0,77.0,10.0,63.0,1009.686
1009696.0,59.0,84.0,11.0,64.0,1009.696
1009707.0,60.0,81.0,10.0,61.0,1009.707
1009717.0,58.0,78.0,11.0,61.0,1009.717
1009727.0,60.0,72.0,14.0,66.0,1009.727
1009737.0,61.0,71.0,13.0,63.0,1009.737
1009747.0,60.0,74.0,11.0,72.0,1009.747
1009757.0,62.0,69.0,11.0,76.0,1009.757
1009767.0,61.0,71.0,10.0,73.0,1009.767
1009777.0,61.0,76.0,9.0,68.0,1009.777
1009787.0,62.0,74.0,13.0,68.0,1009.787
1009797.0,60.0,74.0,10.0,70.0,1009.797
1009807.0,61.0,79.0,15.0,77.0,1009.807
1009817.0,61.0,76.0,12.0,79.0,1009.817
1009827.0,60.0,76.0,13.0,72.0,1009.827
1009837.0,61.0,75.0,15.0,68.0,1009.837
1009847.0,60.0,70.0,12.0,65.0,1009.847
1009857.0,59.0,67.0,14.0,71.0,1009.857
1009867.0,59.0,67.0,12.0,74.0,1009.867
1009878.0,62.0,72.0,12.0,69.0,1009.878
1009888.0,64.0,76.0,12.0,65.0,1009.888
1009898.0,63.0,74.0,10.0,66.0,1009.898
1009908.0,63.0,68.0,9.0,66.0,1009.908
1009918.0,61.0,70.0,8.0,74.0,1009.918
1009928.0,61.0,68.0,8.0,71.0,1009.928
1009938.0,64.0,79.0,10.0,69.0,1009.938
1009948.0,65.0,83.0,10.0,65.0,1009.948
1009958.0,64.0,81.0,9.0,63.0,1009.958
1009968.0,62.0,78.0,8.0,67.0,1009.968
1009978.0,62.0,77.0,10.0,70.0,1009.978
1009988.0,63.0,79.0,8.0,70.0,1009.988
1009998.0,65.0,80.0,9.0,66.0,1009.998
1010008.0,63.0,78.0,7.0,65.0,1010.008
1010018.0,63.0,74.0,8.0,65.0,1010.018
1010028.0,63.0,74.0,8.0,61.0,1010.028
1010038.0,64.0,76.0,7.0,60.0,1010.038
1010048.0,61.0,72.0,7.0,59.0,1010.048
1010058.0,61.0,71.0,5.0,62.0,1010.058
1010068.0,60.0,78.0,6.0,64.0,1010.068
1010078.0,64.0,79.0,7.0,63.0,1010.078
1010088.0,62.0,77.0,7.0,64.0,1010.088
1010098.0,64.0,76.0,8.0,63.0,1010.098
1010108.0,62.0,76.0,7.0,59.0,1010.108
1010118.0,65.0,74.0,6.0,55.0,1010.118
1010128.0,66.0,78.0,5.0,58.0,1010.128
1010138.0,66.0,79.0,6.0,56.0,1010.138
1010148.0,66.0,75.0,6.0,53.0,1010.148
1010158.0,67.0,76.0,10.0,53.0,1010.158
1010168.0,67.0,71.0,8.0,51.0,1010.168
1010178.0,67.0,74.0,8.0,51.0,1010.178
1010188.0,64.0,68.0,8.0,54.0,1010.188
1010198.0,65.0,68.0,7.0,60.0,1010.198
1010208.0,67.0,68.0,7.0,58.0,1010.208
1010219.0,67.0,67.0,6.0,55.0,1010.219
1010229.0,66.0,67.0,6.0,66.0,1010.229
1010239.0,67.0,69.0,6.0,65.0,1010.239
1010249.0,65.0,70.0,7.0,62.0,1010.249
1010259.0,67.0,72.0,8.0,64.0,1010.259
1010269.0,65.0,73.0,8.0,68.0,1010.269
1010279.0,64.0,71.0,9.0,68.0,1010.279
1010289.0,64.0,74.0,8.0,75.0,1010.289
1010299.0,63.0,71.0,6.0,80.0,1010.299
1010309.0,63.0,69.0,10.0,86.0,1010.309
1010319.0,59.0,69.0,11.0,83.0,1010.319
1010329.0,61.0,66.0,10.0,83.0,1010.329
1010339.0,57.0,63.0,9.0,77.0,1010.339
1010349.0,57.0,60.0,10.0,73.0,1010.349
1010359.0,56.0,59.0,9.0,68.0,1010.359
1010369.0,54.0,57.0,8.0,67.0,1010.369
1010379.0,53.0,55.0,7.0,69.0,1010.379
1010390.0,54.0,62.0,8.0,83.0,1010.39
1010400.0,53.0,62.0,11.0,78.0,1010.4
1010410.0,53.0,66.0,10.0,78.0,1010.41
1010420.0,52.0,67.0,9.0,73.0,1010.42
1010430.0,53.0,73.0,8.0,77.0,1010.43
1010440.0,53.0,80.0,10.0,75.0,1010.44
1010450.0,53.0,77.0,9.0,72.0,1010.45
1010460.0,53.0,81.0,8.0,69.0,1010.46
1010470.0,54.0,88.0,8.0,66.0,1010.47
1010480.0,51.0,89.0,8.0,63.0,1010.48
1010490.0,53.0,84.0,8.0,62.0,1010.49
1010500.0,54.0,82.0,6.0,62.0,1010.5
1010510.0,54.0,80.0,6.0,60.0,1010.51
1010520.0,52.0,78.0,6.0,69.0,1010.52
1010530.0,51.0,78.0,9.0,71.0,1010.53
1010540.0,57.0,90.0,9.0,80.0,1010.54
1010550.0,60.0,94.0,9.0,77.0,1010.55
1010560.0,61.0,90.0,9.0,74.0,1010.56
1010570.0,60.0,86.0,8.0,68.0,1010.57
1010580.0,59.0,88.0,7.0,74.0,1010.58
1010590.0,58.0,82.0,7.0,77.0,1010.59
1010600.0,59.0,79.0,7.0,79.0,1010.6
1010610.0,59.0,73.0,6.0,79.0,1010.61
1010620.0,59.0,72.0,6.0,95.0,1010.62
1010630.0,61.0,70.0,8.0,97.0,1010.63
1010640.0,61.0,67.0,6.0,102.0,1010.64
1010650.0,60.0,67.0,6.0,112.0,1010.65
1010660.0,60.0,72.0,12.0,111.0,1010.66
1010670.0,61.0,79.0,11.0,108.0,1010.67
1010680.0,63.0,82.0,11.0,105.0,1010.68
1010690.0,66.0,85.0,11.0,108.0,1010.69
1010700.0,63.0,81.0,18.0,102.0,1010.7
1010710.0,64.0,78.0,20.0,97.0,1010.71
1010720.0,63.0,75.0,19.0,100.0,1010.72
1010731.0,65.0,71.0,17.0,99.0,1010.731
1010741.0,63.0,74.0,15.0,102.0,1010.741
1010751.0,62.0,70.0,13.0,110.0,1010.751
1010761.0,62.0,70.0,12.0,104.0,1010.761
1010771.0,62.0,73.0,10.0,100.0,1010.771
1010781.0,64.0,75.0,10.0,95.0,1010.781
1010791.0,65.0,86.0,9.0,93.0,1010.791
1010801.0,63.0,89.0,11.0,85.0,1010.801
1010811.0,61.0,85.0,17.0,100.0,1010.811
1010821.0,59.0,80.0,17.0,100.0,1010.821
1010831.0,59.0,77.0,15.0,99.0,1010.831
1010841.0,56.0,73.0,14.0,103.0,1010.841
1010851.0,57.0,71.0,13.0,100.0,1010.851
1010861.0,58.0,67.0,12.0,106.0,1010.861
1010871.0,60.0,63.0,10.0,108.0,1010.871
1010881.0,58.0,60.0,9.0,110.0,1010.881
1010891.0,57.0,56.0,9.0,110.0,1010.891
1010902.0,55.0,54.0,9.0,103.0,1010.902
1010912.0,55.0,53.0,15.0,105.0,1010.912
1010922.0,53.0,51.0,13.0,111.0,1010.922
1010932.0,56.0,54.0,11.0,116.0,1010.932
1010942.0,55.0,60.0,10.0,105.0,1010.942
1010952.0,58.0,62.0,9.0,99.0,1010.952
1010962.0,57.0,58.0,16.0,108.0,1010.962
1010972.0,59.0,58.0,21.0,105.0,1010.972
1010982.0,58.0,56.0,29.0,115.0,1010.982
1010992.0,65.0,64.0,52.0,145.0,1010.992
1011002.0,74.0,69.0,68.0,178.0,1011.002
1011012.0,105.0,71.0,120.0,245.0,1011.012
1011022.0,106.0,74.0,161.0,257.0,1011.022
1011032.0,111.0,84.0,186.0,300.0,1011.032
1011042.0,111.0,90.0,205.0,359.0,1011.042
1011052.0,129.0,106.0,209.0,450.0,1011.052
1011062.0,126.0,124.0,206.0,481.0,1011.062
1011072.0,128.0,144.0,193.0,449.0,1011.072
1011082.0,130.0,165.0,212.0,492.0,1011.082
1011092.0,128.0,186.0,204.0,506.0,1011.092
1011102.0,132.0,208.0,187.0,488.0,1011.102
1011112.0,127.0,220.0,178.0,461.0,1011.112
1011122.0,128.0,230.0,177.0,434.0,1011.122
1011132.0,125.0,232.0,172.0,411.0,1011.132
1011142.0,122.0,239.0,155.0,387.0,1011.142
1011152.0,122.0,243.0,144.0,364.0,1011.152
1011162.0,121.0,249.0,135.0,351.0,1011.162
1011172.0,119.0,249.0,124.0,328.0,1011.172
1011182.0,117.0,249.0,122.0,316.0,1011.182
1011192.0,115.0,250.0,117.0,295.0,1011.192
1011202.0,114.0,248.0,111.0,287.0,1011.202
1011212.0,110.0,245.0,110.0,269.0,1011.212
1011222.0,109.0,243.0,102.0,248.0,1011.222
1011232.0,111.0,244.0,101.0,234.0,1011.232
1011243.0,110.0,241.0,106.0,217.0,1011.243
1011253.0,107.0,238.0,104.0,204.0,1011.253
1011263.0,104.0,233.0,97.0,205.0,1011.263
1011273.0,102.0,229.0,90.0,202.0,1011.273
1011283.0,99.0,227.0,80.0,199.0,1011.283
1011293.0,97.0,222.0,92.0,218.0,1011.293
1011303.0,96.0,219.0,90.0,204.0,1011.303
1011313.0,95.0,213.0,94.0,193.0,1011.313
1011323.0,91.0,207.0,92.0,182.0,1011.323
1011333.0,90.0,204.0,89.0,174.0,1011.333
1011343.0,90.0,199.0,98.0,174.0,1011.343
1011353.0,88.0,195.0,95.0,164.0,1011.353
1011363.0,87.0,192.0,89.0,157.0,1011.363
1011373.0,86.0,191.0,82.0,162.0,1011.373
1011383.0,85.0,186.0,71.0,158.0,1011.383
1011393.0,85.0,185.0,67.0,154.0,1011.393
1011403.0,84.0,182.0,61.0,152.0,1011.403
1011414.0,84.0,182.0,70.0,163.0,1011.414
1011424.0,80.0,177.0,68.0,162.0,1011.424
1011434.0,83.0,178.0,66.0,163.0,1011.434
1011444.0,82.0,177.0,66.0,149.0,1011.444
1011454.0,82.0,176.0,61.0,155.0,1011.454
1011464.0,81.0,174.0,55.0,150.0,1011.464
1011474.0,81.0,172.0,48.0,156.0,1011.474
1011484.0,81.0,168.0,48.0,162.0,1011.484
1011494.0,82.0,170.0,48.0,154.0,1011.494
1011504.0,84.0,170.0,54.0,145.0,1011.504
1011514.0,83.0,167.0,52.0,142.0,1011.514
1011524.0,83.0,166.0,52.0,146.0,1011.524
1011534.0,85.0,165.0,48.0,139.0,1011.534
1011544.0,84.0,162.0,53.0,128.0,1011.544
1011554.0,85.0,160.0,57.0,137.0,1011.554
1011564.0,84.0,160.0,51.0,134.0,1011.564
1011574.0,84.0,159.0,49.0,129.0,1011.574
1011584.0,82.0,157.0,50.0,124.0,1011.584
1011594.0,83.0,154.0,58.0,116.0,1011.594
1011604.0,82.0,152.0,50.0,125.0,1011.604
1011614.0,81.0,148.0,49.0,116.0,1011.614
1011624.0,83.0,147.0,48.0,118.0,1011.624
1011634.0,84.0,146.0,43.0,117.0,1011.634
1011644.0,83.0,143.0,40.0,108.0,1011.644
1011654.0,83.0,143.0,40.0,105.0,1011.654
1011664.0,80.0,139.0,39.0,102.0,1011.664
1011674.0,80.0,138.0,38.0,99.0,1011.674
1011684.0,79.0,138.0,41.0,103.0,1011.684
1011694.0,79.0,136.0,52.0,99.0,1011.694
1011704.0,76.0,135.0,44.0,102.0,1011.704
1011714.0,75.0,133.0,44.0,104.0,1011.714
1011724.0,74.0,133.0,48.0,108.0,1011.724
1011734.0,74.0,133.0,51.0,114.0,1011.734
1011744.0,75.0,134.0,47.0,111.0,1011.744
1011755.0,73.0,133.0,42.0,110.0,1011.755
1011765.0,75.0,130.0,46.0,114.0,1011.765
1011775.0,74.0,130.0,46.0,113.0,1011.775
1011785.0,75.0,127.0,41.0,118.0,1011.785
1011795.0,75.0,126.0,36.0,125.0,1011.795
1011805.0,75.0,126.0,34.0,112.0,1011.805
1011815.0,75.0,125.0,30.0,118.0,1011.815
1011825.0,76.0,125.0,28.0,120.0,1011.825
1011835.0,76.0,124.0,25.0,114.0,1011.835
1011845.0,75.0,125.0,21.0,112.0,1011.845
1011855.0,73.0,123.0,36.0,117.0,1011.855
1011865.0,75.0,126.0,35.0,131.0,1011.865
1011875.0,74.0,126.0,37.0,129.0,1011.875
1011885.0,74.0,126.0,33.0,121.0,1011.885
1011895.0,74.0,126.0,29.0,135.0,1011.895
1011905.0,74.0,123.0,27.0,133.0,1011.905
1011915.0,73.0,125.0,39.0,146.0,1011.915
1011926.0,73.0,125.0,42.0,139.0,1011.926
1011936.0,74.0,126.0,40.0,133.0,1011.936
1011946.0,74.0,126.0,36.0,128.0,1011.946
1011956.0,74.0,127.0,40.0,123.0,1011.956
1011966.0,73.0,130.0,35.0,123.0,1011.966
1011976.0,73.0,129.0,32.0,119.0,1011.976
1011986.0,71.0,129.0,27.0,129.0,1011.986
1011996.0,69.0,128.0,41.0,127.0,1011.996
1012006.0,71.0,130.0,50.0,119.0,1012.006
1012016.0,70.0,129.0,44.0,116.0,1012.016
1012026.0,70.0,130.0,40.0,119.0,1012.026
1012036.0,69.0,131.0,35.0,120.0,1012.036
1012046.0,71.0,131.0,32.0,132.0,1012.046
1012056.0,68.0,131.0,28.0,143.0,1012.056
1012066.0,67.0,128.0,26.0,137.0,1012.066
1012076.0,65.0,126.0,23.0,128.0,1012.076
1012086.0,64.0,122.0,23.0,129.0,1012.086
1012096.0,65.0,122.0,34.0,130.0,1012.096
1012106.0,65.0,122.0,29.0,127.0,1012.106
1012116.0,66.0,121.0,27.0,120.0,1012.116
1012126.0,64.0,119.0,24.0,115.0,1012.126
1012136.0,64.0,117.0,22.0,130.0,1012.136
1012146.0,65.0,116.0,24.0,127.0,1012.146
1012156.0,66.0,117.0,24.0,128.0,1012.156
1012166.0,66.0,117.0,21.0,119.0,1012.166
1012176.0,64.0,116.0,31.0,121.0,1012.176
1012186.0,66.0,117.0,29.0,114.0,1012.186
1012196.0,65.0,118.0,24.0,106.0,1012.196
1012206.0,64.0,117.0,22.0,104.0,1012.206
1012216.0,64.0,117.0,21.0,117.0,1012.216
1012226.0,66.0,118.0,19.0,113.0,1012.226
1012236.0,66.0,118.0,20.0,109.0,1012.236
1012246.0,65.0,116.0,19.0,106.0,1012.246
1012256.0,65.0,116.0,19.0,111.0,1012.256
1012267.0,64.0,115.0,23.0,116.0,1012.267
1012277.0,64.0,116.0,21.0,113.0,1012.277
1012287.0,65.0,114.0,19.0,111.0,1012.287
1012297.0,66.0,114.0,17.0,115.0,1012.297
1012307.0,66.0,112.0,26.0,108.0,1012.307
1012317.0,67.0,114.0,27.0,106.0,1012.317
1012327.0,66.0,114.0,27.0,101.0,1012.327
1012337.0,65.0,114.0,36.0,104.0,1012.337
1012347.0,67.0,116.0,37.0,104.0,1012.347
1012357.0,68.0,115.0,32.0,109.0,1012.357
1012367.0,68.0,117.0,29.0,106.0,1012.367
1012377.0,66.0,113.0,32.0,109.0,1012.377
1012387.0,67.0,114.0,29.0,101.0,1012.387
1012397.0,69.0,114.0,28.0,111.0,1012.397
1012407.0,68.0,113.0,29.0,108.0,1012.407
1012417.0,68.0,113.0,25.0,105.0,1012.417
1012427.0,67.0,111.0,23.0,101.0,1012.427
1012438.0,66.0,109.0,20.0,92.0,1012.438
1012448.0,66.0,105.0,18.0,95.0,1012.448
1012458.0,66.0,105.0,19.0,93.0,1012.458
1012468.0,65.0,101.0,18.0,100.0,1012.468
1012478.0,62.0,99.0,22.0,97.0,1012.478
1012488.0,64.0,100.0,22.0,95.0,1012.488
1012498.0,63.0,98.0,23.0,92.0,1012.498
1012508.0,65.0,99.0,22.0,96.0,1012.508
1012518.0,64.0,96.0,20.0,93.0,1012.518
1012528.0,64.0,97.0,26.0,94.0,1012.528
1012538.0,66.0,96.0,26.0,92.0,1012.538
1012548.0,66.0,95.0,22.0,92.0,1012.548
1012558.0,65.0,96.0,20.0,93.0,1012.558
1012568.0,65.0,95.0,18.0,95.0,1012.568
1012578.0,64.0,93.0,22.0,93.0,1012.578
1012588.0,64.0,92.0,20.0,98.0,1012.588
1012598.0,64.0,94.0,18.0,93.0,1012.598
1012608.0,64.0,92.0,22.0,90.0,1012.608
1012618.0,67.0,91.0,22.0,94.0,1012.618
1012628.0,69.0,91.0,28.0,91.0,1012.628
1012638.0,71.0,91.0,25.0,95.0,1012.638
1012648.0,71.0,91.0,22.0,101.0,1012.648
1012658.0,74.0,92.0,20.0,104.0,1012.658
1012668.0,73.0,93.0,19.0,95.0,1012.668
1012678.0,74.0,91.0,20.0,95.0,1012.678
1012688.0,73.0,90.0,17.0,93.0,1012.688
1012698.0,75.0,92.0,17.0,101.0,1012.698
1012708.0,74.0,89.0,20.0,109.0,1012.708
1012718.0,74.0,89.0,31.0,103.0,1012.718
1012728.0,73.0,88.0,29.0,96.0,1012.728
1012738.0,71.0,87.0,27.0,92.0,1012.738
1012748.0,71.0,85.0,26.0,88.0,1012.748
1012758.0,69.0,84.0,25.0,90.0,1012.758
1012768.0,68.0,84.0,21.0,89.0,1012.768
1012779.0,67.0,81.0,24.0,93.0,1012.779
1012789.0,66.0,82.0,23.0,88.0,1012.789
1012799.0,65.0,81.0,20.0,89.0,1012.799
1012809.0,61.0,78.0,20.0,97.0,1012.809
1012819.0,62.0,78.0,34.0,102.0,1012.819
1012829.0,62.0,80.0,32.0,100.0,1012.829
1012839.0,59.0,78.0,33.0,95.0,1012.839
1012849.0,59.0,77.0,30.0,97.0,1012.849
1012859.0,57.0,77.0,27.0,102.0,1012.859
1012869.0,58.0,76.0,24.0,101.0,1012.869
1012879.0,56.0,74.0,21.0,98.0,1012.879
1012889.0,55.0,73.0,24.0,95.0,1012.889
1012899.0,53.0,70.0,26.0,89.0,1012.899
1012909.0,53.0,70.0,29.0,88.0,1012.909
1012919.0,52.0,68.0,30.0,86.0,1012.919
1012929.0,52.0,69.0,27.0,90.0,1012.929
1012939.0,50.0,67.0,24.0,90.0,1012.939
1012950.0,49.0,66.0,23.0,91.0,1012.95
1012960.0,49.0,66.0,26.0,90.0,1012.96
1012970.0,49.0,69.0,23.0,90.0,1012.97
1012980.0,48.0,69.0,22.0,96.0,1012.98
1012990.0,49.0,67.0,28.0,95.0,1012.99
1013000.0,48.0,68.0,32.0,88.0,1013.0
1013010.0,48.0,69.0,30.0,88.0,1013.01
1013020.0,48.0,68.0,25.0,97.0,1013.02
1013030.0,49.0,68.0,27.0,98.0,1013.03
1013040.0,49.0,67.0,27.0,102.0,1013.04
1013050.0,48.0,68.0,23.0,100.0,1013.05
1013060.0,47.0,67.0,22.0,100.0,1013.06
1013070.0,47.0,67.0,23.0,108.0,1013.07
1013080.0,48.0,66.0,21.0,115.0,1013.08
1013090.0,48.0,66.0,18.0,117.0,1013.09
1013100.0,49.0,65.0,26.0,118.0,1013.1
1013110.0,51.0,64.0,24.0,109.0,1013.11
1013120.0,54.0,65.0,23.0,116.0,1013.12
1013130.0,54.0,65.0,25.0,110.0,1013.13
1013140.0,55.0,64.0,23.0,131.0,1013.14
1013150.0,57.0,62.0,23.0,124.0,1013.15
1013160.0,57.0,61.0,29.0,117.0,1013.16
1013170.0,61.0,62.0,27.0,111.0,1013.17
1013180.0,60.0,61.0,25.0,103.0,1013.18
1013190.0,60.0,60.0,24.0,95.0,1013.19
1013200.0,60.0,58.0,22.0,101.0,1013.2
1013210.0,59.0,59.0,21.0,98.0,1013.21
1013220.0,60.0,58.0,19.0,99.0,1013.22
1013230.0,61.0,58.0,18.0,94.0,1013.23
1013240.0,61.0,58.0,20.0,102.0,1013.24
1013250.0,60.0,56.0,29.0,99.0,1013.25
1013260.0,61.0,58.0,36.0,104.0,1013.26
1013270.0,62.0,60.0,31.0,110.0,1013.27
1013280.0,63.0,61.0,27.0,108.0,1013.28
1013291.0,62.0,60.0,26.0,98.0,1013.291
1013301.0,61.0,60.0,27.0,114.0,1013.301
1013311.0,61.0,59.0,24.0,110.0,1013.311
1013321.0,61.0,59.0,25.0,108.0,1013.321
1013331.0,60.0,60.0,22.0,107.0,1013.331
1013341.0,61.0,57.0,27.0,100.0,1013.341
1013351.0,62.0,61.0,44.0,102.0,1013.351
1013361.0,62.0,60.0,40.0,98.0,1013.361
1013371.0,63.0,61.0,35.0,103.0,1013.371
1013381.0,61.0,60.0,33.0,101.0,1013.381
1013391.0,63.0,59.0,31.0,97.0,1013.391
1013401.0,60.0,58.0,29.0,102.0,1013.401
1013411.0,61.0,59.0,28.0,106.0,1013.411
1013421.0,61.0,60.0,25.0,107.0,1013.421
1013431.0,60.0,58.0,27.0,104.0,1013.431
1013441.0,60.0,58.0,35.0,100.0,1013.441
1013451.0,60.0,58.0,33.0,96.0,1013.451
1013462.0,59.0,57.0,29.0,94.0,1013.462
1013472.0,58.0,55.0,26.0,98.0,1013.472
1013482.0,58.0,53.0,26.0,94.0,1013.482
1013492.0,59.0,56.0,23.0,93.0,1013.492
1013502.0,59.0,53.0,23.0,85.0,1013.502
1013512.0,59.0,53.0,26.0,97.0,1013.512
1013522.0,60.0,54.0,34.0,97.0,1013.522
1013532.0,61.0,52.0,32.0,102.0,1013.532
1013542.0,60.0,53.0,28.0,110.0,1013.542
1013552.0,61.0,53.0,37.0,104.0,1013.552
1013562.0,63.0,55.0,33.0,101.0,1013.562
1013572.0,60.0,53.0,32.0,98.0,1013.572
1013582.0,61.0,55.0,33.0,110.0,1013.582
1013592.0,61.0,53.0,33.0,102.0,1013.592
1013602.0,60.0,54.0,36.0,103.0,1013.602
1013612.0,60.0,56.0,34.0,101.0,1013.612
1013622.0,61.0,55.0,34.0,99.0,1013.622
1013632.0,61.0,55.0,35.0,99.0,1013.632
1013642.0,63.0,53.0,34.0,96.0,1013.642
1013652.0,63.0,54.0,32.0,97.0,1013.652
1013662.0,61.0,54.0,29.0,98.0,1013.662
1013672.0,61.0,54.0,36.0,105.0,1013.672
1013682.0,61.0,55.0,38.0,97.0,1013.682
1013692.0,60.0,55.0,34.0,94.0,1013.692
1013702.0,60.0,55.0,30.0,96.0,1013.702
1013712.0,59.0,54.0,28.0,93.0,1013.712
1013722.0,58.0,53.0,25.0,87.0,1013.722
1013732.0,57.0,51.0,31.0,99.0,1013.732
1013742.0,58.0,50.0,35.0,100.0,1013.742
1013752.0,55.0,50.0,32.0,97.0,1013.752
1013762.0,58.0,49.0,30.0,101.0,1013.762
1013772.0,59.0,50.0,26.0,106.0,1013.772
1013782.0,59.0,48.0,27.0,104.0,1013.782
1013792.0,60.0,49.0,25.0,115.0,1013.792
1013803.0,59.0,49.0,27.0,111.0,1013.803
1013813.0,60.0,50.0,27.0,107.0,1013.813
1013823.0,58.0,50.0,28.0,104.0,1013.823
1013833.0,59.0,52.0,29.0,109.0,1013.833
1013843.0,61.0,53.0,26.0,119.0,1013.843
1013853.0,60.0,53.0,30.0,120.0,1013.853
1013863.0,61.0,54.0,32.0,121.0,1013.863
1013873.0,61.0,56.0,29.0,117.0,1013.873
1013883.0,60.0,55.0,26.0,115.0,1013.883
1013893.0,58.0,55.0,38.0,112.0,1013.893
1013903.0,59.0,56.0,39.0,114.0,1013.903
1013913.0,60.0,60.0,37.0,124.0,1013.913
1013923.0,59.0,60.0,34.0,118.0,1013.923
