time (ms),signal 0,signal 1,signal 2,signal3,time (sec)
1057273.0,72.0,54.0,36.0,91.0,1057.273
1057283.0,76.0,55.0,37.0,91.0,1057.283
1057293.0,76.0,54.0,32.0,92.0,1057.293
1057303.0,76.0,54.0,27.0,86.0,1057.303
1057313.0,76.0,54.0,25.0,84.0,1057.313
1057323.0,75.0,55.0,22.0,77.0,1057.323
1057333.0,75.0,54.0,20.0,80.0,1057.333
1057343.0,76.0,55.0,17.0,82.0,1057.343
1057353.0,76.0,54.0,18.0,79.0,1057.353
1057363.0,76.0,54.0,34.0,76.0,1057.363
1057373.0,76.0,54.0,34.0,77.0,1057.373
1057383.0,77.0,54.0,30.0,76.0,1057.383
1057393.0,77.0,56.0,27.0,74.0,1057.393
1057403.0,74.0,52.0,32.0,70.0,1057.403
1057413.0,73.0,54.0,32.0,72.0,1057.413
1057423.0,73.0,55.0,28.0,74.0,1057.423
1057433.0,72.0,54.0,31.0,75.0,1057.433
1057443.0,73.0,55.0,33.0,77.0,1057.443
1057453.0,73.0,54.0,33.0,81.0,1057.453
1057463.0,72.0,52.0,29.0,78.0,1057.463
1057473.0,70.0,52.0,25.0,71.0,1057.473
1057483.0,67.0,51.0,22.0,72.0,1057.483
1057494.0,67.0,51.0,22.0,70.0,1057.494
1057504.0,66.0,51.0,20.0,65.0,1057.504
1057514.0,65.0,53.0,20.0,63.0,1057.514
1057524.0,65.0,53.0,18.0,68.0,1057.524
1057534.0,64.0,53.0,25.0,73.0,1057.534
1057544.0,65.0,52.0,25.0,72.0,1057.544
1057554.0,65.0,52.0,37.0,74.0,1057.554
1057564.0,67.0,52.0,33.0,70.0,1057.564
1057574.0,67.0,51.0,30.0,71.0,1057.574
1057584.0,66.0,51.0,34.0,73.0,1057.584
1057594.0,68.0,51.0,31.0,73.0,1057.594
1057604.0,67.0,51.0,27.0,72.0,1057.604
1057614.0,67.0,50.0,28.0,70.0,1057.614
1057624.0,68.0,50.0,24.0,74.0,1057.624
1057634.0,68.0,49.0,29.0,73.0,1057.634
1057644.0,68.0,49.0,34.0,72.0,1057.644
1057654.0,67.0,51.0,41.0,73.0,1057.654
1057664.0,68.0,51.0,38.0,71.0,1057.664
1057674.0,67.0,52.0,33.0,71.0,1057.674
1057684.0,68.0,52.0,29.0,70.0,1057.684
1057694.0,68.0,54.0,25.0,70.0,1057.694
1057704.0,68.0,54.0,24.0,67.0,1057.704
1057714.0,67.0,53.0,22.0,65.0,1057.714
1057724.0,66.0,52.0,19.0,68.0,1057.724
1057734.0,66.0,52.0,25.0,68.0,1057.734
1057744.0,67.0,53.0,23.0,72.0,1057.744
1057754.0,67.0,53.0,34.0,74.0,1057.754
1057764.0,68.0,53.0,30.0,71.0,1057.764
1057774.0,68.0,52.0,27.0,73.0,1057.774
1057784.0,67.0,51.0,26.0,83.0,1057.784
1057794.0,66.0,51.0,22.0,85.0,1057.794
1057804.0,65.0,49.0,21.0,82.0,1057.804
1057814.0,64.0,50.0,18.0,78.0,1057.814
1057824.0,63.0,48.0,17.0,74.0,1057.824
1057835.0,62.0,49.0,16.0,77.0,1057.835
1057845.0,60.0,47.0,17.0,79.0,1057.845
1057855.0,61.0,48.0,21.0,83.0,1057.855
1057865.0,60.0,48.0,20.0,77.0,1057.865
1057875.0,60.0,48.0,32.0,73.0,1057.875
1057885.0,60.0,48.0,33.0,75.0,1057.885
1057895.0,62.0,47.0,29.0,70.0,1057.895
1057905.0,62.0,45.0,25.0,67.0,1057.905
1057915.0,60.0,44.0,24.0,64.0,1057.915
1057925.0,61.0,43.0,21.0,69.0,1057.925
1057935.0,60.0,42.0,20.0,71.0,1057.935
1057945.0,62.0,42.0,19.0,72.0,1057.945
1057955.0,64.0,43.0,17.0,72.0,1057.955
1057965.0,63.0,42.0,19.0,68.0,1057.965
1057975.0,65.0,42.0,21.0,75.0,1057.975
1057985.0,65.0,41.0,19.0,69.0,1057.985
1057995.0,66.0,40.0,17.0,65.0,1057.995
1058006.0,64.0,39.0,16.0,70.0,1058.006
1058016.0,66.0,39.0,14.0,67.0,1058.016
1058026.0,67.0,40.0,17.0,67.0,1058.026
1058036.0,69.0,40.0,17.0,62.0,1058.036
1058046.0,71.0,41.0,15.0,63.0,1058.046
1058056.0,72.0,41.0,15.0,61.0,1058.056
1058066.0,73.0,40.0,15.0,64.0,1058.066
1058076.0,72.0,40.0,16.0,67.0,1058.076
1058086.0,72.0,39.0,15.0,67.0,1058.086
1058096.0,72.0,40.0,18.0,66.0,1058.096
1058106.0,73.0,40.0,19.0,66.0,1058.106
1058116.0,72.0,39.0,16.0,67.0,1058.116
1058126.0,75.0,39.0,15.0,66.0,1058.126
1058136.0,76.0,38.0,14.0,70.0,1058.136
1058146.0,76.0,38.0,12.0,73.0,1058.146
1058156.0,78.0,37.0,12.0,69.0,1058.156
1058166.0,77.0,37.0,11.0,66.0,1058.166
1058176.0,77.0,37.0,10.0,66.0,1058.176
1058186.0,77.0,38.0,10.0,69.0,1058.186
1058196.0,77.0,38.0,9.0,68.0,1058.196
1058206.0,77.0,38.0,9.0,65.0,1058.206
1058216.0,76.0,38.0,12.0,67.0,1058.216
1058226.0,77.0,39.0,11.0,65.0,1058.226
1058236.0,76.0,38.0,10.0,68.0,1058.236
1058246.0,75.0,38.0,10.0,68.0,1058.246
1058256.0,73.0,38.0,9.0,65.0,1058.256
1058266.0,73.0,40.0,9.0,63.0,1058.266
1058276.0,73.0,38.0,9.0,60.0,1058.276
1058286.0,71.0,37.0,10.0,59.0,1058.286
1058296.0,69.0,37.0,16.0,61.0,1058.296
1058306.0,68.0,38.0,16.0,60.0,1058.306
1058316.0,67.0,38.0,15.0,60.0,1058.316
1058326.0,67.0,38.0,14.0,58.0,1058.326
1058336.0,68.0,39.0,12.0,59.0,1058.336
1058347.0,68.0,38.0,11.0,56.0,1058.347
1058357.0,66.0,38.0,10.0,54.0,1058.357
1058367.0,64.0,37.0,9.0,51.0,1058.367
1058377.0,63.0,38.0,10.0,49.0,1058.377
1058387.0,62.0,36.0,11.0,49.0,1058.387
1058397.0,64.0,36.0,14.0,48.0,1058.397
1058407.0,63.0,36.0,13.0,55.0,1058.407
1058417.0,64.0,35.0,15.0,58.0,1058.417
1058427.0,64.0,35.0,12.0,60.0,1058.427
1058437.0,63.0,35.0,14.0,63.0,1058.437
1058447.0,65.0,37.0,13.0,60.0,1058.447
1058457.0,65.0,36.0,13.0,55.0,1058.457
1058467.0,63.0,36.0,12.0,53.0,1058.467
1058477.0,63.0,36.0,12.0,51.0,1058.477
1058487.0,63.0,36.0,11.0,49.0,1058.487
1058497.0,60.0,36.0,10.0,63.0,1058.497
1058507.0,63.0,37.0,10.0,65.0,1058.507
1058518.0,63.0,37.0,9.0,65.0,1058.518
1058528.0,63.0,38.0,13.0,68.0,1058.528
1058538.0,62.0,38.0,14.0,64.0,1058.538
1058548.0,61.0,39.0,13.0,61.0,1058.548
1058558.0,62.0,38.0,13.0,59.0,1058.558
1058568.0,61.0,38.0,12.0,60.0,1058.568
1058578.0,61.0,39.0,11.0,60.0,1058.578
1058588.0,61.0,40.0,10.0,56.0,1058.588
1058598.0,61.0,39.0,9.0,58.0,1058.598
1058608.0,62.0,38.0,10.0,65.0,1058.608
1058618.0,62.0,39.0,9.0,63.0,1058.618
1058628.0,63.0,39.0,11.0,62.0,1058.628
1058638.0,63.0,39.0,9.0,64.0,1058.638
1058648.0,67.0,39.0,9.0,65.0,1058.648
1058658.0,69.0,41.0,9.0,62.0,1058.658
1058668.0,70.0,39.0,10.0,59.0,1058.668
1058678.0,71.0,39.0,10.0,56.0,1058.678
1058688.0,71.0,38.0,8.0,68.0,1058.688
1058698.0,73.0,39.0,9.0,73.0,1058.698
1058708.0,72.0,39.0,7.0,69.0,1058.708
1058718.0,72.0,40.0,7.0,88.0,1058.718
1058728.0,74.0,41.0,6.0,94.0,1058.728
1058738.0,74.0,41.0,6.0,87.0,1058.738
1058748.0,73.0,41.0,7.0,84.0,1058.748
1058758.0,73.0,42.0,5.0,88.0,1058.758
1058768.0,73.0,41.0,7.0,86.0,1058.768
1058778.0,69.0,41.0,5.0,84.0,1058.778
1058788.0,67.0,43.0,6.0,80.0,1058.788
1058798.0,65.0,44.0,5.0,74.0,1058.798
1058808.0,63.0,43.0,5.0,70.0,1058.808
1058818.0,63.0,53.0,8.0,74.0,1058.818
1058828.0,65.0,102.0,15.0,82.0,1058.828
1058838.0,76.0,117.0,16.0,80.0,1058.838
1058848.0,79.0,139.0,21.0,82.0,1058.848
1058859.0,92.0,245.0,46.0,100.0,1058.859
1058869.0,89.0,350.0,66.0,117.0,1058.869
1058879.0,97.0,381.0,74.0,119.0,1058.879
1058889.0,98.0,358.0,64.0,110.0,1058.889
1058899.0,97.0,345.0,57.0,112.0,1058.899
1058909.0,92.0,317.0,56.0,104.0,1058.909
1058919.0,90.0,322.0,52.0,103.0,1058.919
1058929.0,90.0,309.0,46.0,101.0,1058.929
1058939.0,91.0,294.0,47.0,108.0,1058.939
1058949.0,91.0,309.0,59.0,120.0,1058.949
1058959.0,98.0,316.0,61.0,117.0,1058.959
1058969.0,100.0,292.0,71.0,116.0,1058.969
1058979.0,102.0,283.0,67.0,113.0,1058.979
1058989.0,101.0,269.0,59.0,109.0,1058.989
1058999.0,103.0,265.0,57.0,100.0,1058.999
1059009.0,112.0,265.0,53.0,108.0,1059.009
1059019.0,145.0,317.0,62.0,108.0,1059.019
1059030.0,158.0,357.0,65.0,109.0,1059.03
1059040.0,161.0,335.0,68.0,118.0,1059.04
1059050.0,171.0,331.0,62.0,116.0,1059.05
1059060.0,184.0,334.0,54.0,106.0,1059.06
1059070.0,188.0,330.0,54.0,101.0,1059.07
1059080.0,201.0,363.0,58.0,101.0,1059.08
1059090.0,206.0,366.0,56.0,99.0,1059.09
1059100.0,213.0,354.0,54.0,105.0,1059.1
1059110.0,218.0,348.0,49.0,110.0,1059.11
1059120.0,225.0,352.0,63.0,119.0,1059.12
1059130.0,243.0,378.0,66.0,112.0,1059.13
1059140.0,235.0,369.0,77.0,107.0,1059.14
1059150.0,240.0,387.0,73.0,111.0,1059.15
1059160.0,237.0,377.0,72.0,109.0,1059.16
1059170.0,235.0,377.0,121.0,114.0,1059.17
1059180.0,231.0,368.0,105.0,105.0,1059.18
1059190.0,231.0,365.0,92.0,107.0,1059.19
1059200.0,230.0,353.0,80.0,100.0,1059.2
1059210.0,230.0,362.0,70.0,99.0,1059.21
1059220.0,226.0,351.0,61.0,93.0,1059.22
1059230.0,228.0,351.0,53.0,103.0,1059.23
1059240.0,229.0,351.0,53.0,110.0,1059.24
1059250.0,229.0,352.0,61.0,108.0,1059.25
1059260.0,222.0,334.0,57.0,118.0,1059.26
1059270.0,222.0,334.0,52.0,114.0,1059.27
1059280.0,220.0,325.0,59.0,120.0,1059.28
1059290.0,218.0,314.0,61.0,111.0,1059.29
1059300.0,219.0,312.0,59.0,117.0,1059.3
1059310.0,213.0,295.0,52.0,116.0,1059.31
1059320.0,221.0,302.0,49.0,109.0,1059.32
1059330.0,217.0,294.0,47.0,107.0,1059.33
1059340.0,214.0,279.0,40.0,112.0,1059.34
1059350.0,215.0,279.0,37.0,110.0,1059.35
1059360.0,215.0,283.0,34.0,108.0,1059.36
1059371.0,219.0,273.0,30.0,109.0,1059.371
1059381.0,219.0,264.0,27.0,108.0,1059.381
1059391.0,218.0,265.0,25.0,102.0,1059.391
1059401.0,222.0,259.0,25.0,107.0,1059.401
1059411.0,218.0,251.0,20.0,122.0,1059.411
1059421.0,215.0,247.0,22.0,116.0,1059.421
1059431.0,221.0,261.0,25.0,116.0,1059.431
1059441.0,237.0,265.0,24.0,108.0,1059.441
1059451.0,232.0,244.0,21.0,97.0,1059.451
1059461.0,228.0,269.0,25.0,92.0,1059.461
1059471.0,220.0,263.0,23.0,86.0,1059.471
1059481.0,217.0,257.0,19.0,96.0,1059.481
1059491.0,206.0,240.0,18.0,96.0,1059.491
1059501.0,198.0,236.0,15.0,100.0,1059.501
1059511.0,193.0,245.0,17.0,97.0,1059.511
1059521.0,187.0,263.0,18.0,95.0,1059.521
1059531.0,186.0,273.0,17.0,97.0,1059.531
1059542.0,176.0,282.0,35.0,94.0,1059.542
1059552.0,179.0,290.0,61.0,104.0,1059.552
1059562.0,180.0,303.0,78.0,98.0,1059.562
1059572.0,181.0,303.0,119.0,147.0,1059.572
1059582.0,191.0,331.0,279.0,228.0,1059.582
1059592.0,179.0,323.0,365.0,268.0,1059.592
1059602.0,180.0,321.0,408.0,304.0,1059.602
1059612.0,174.0,310.0,484.0,302.0,1059.612
1059622.0,159.0,300.0,485.0,296.0,1059.622
1059632.0,146.0,277.0,509.0,287.0,1059.632
1059642.0,141.0,286.0,541.0,281.0,1059.642
1059652.0,134.0,277.0,510.0,296.0,1059.652
1059662.0,131.0,272.0,457.0,307.0,1059.662
1059672.0,137.0,289.0,455.0,296.0,1059.672
1059682.0,128.0,280.0,423.0,274.0,1059.682
1059692.0,127.0,283.0,366.0,250.0,1059.692
1059702.0,124.0,299.0,316.0,242.0,1059.702
1059712.0,128.0,315.0,278.0,224.0,1059.712
1059722.0,128.0,330.0,244.0,220.0,1059.722
1059732.0,129.0,349.0,216.0,212.0,1059.732
1059742.0,126.0,363.0,211.0,226.0,1059.742
1059752.0,123.0,370.0,225.0,226.0,1059.752
1059762.0,116.0,374.0,202.0,206.0,1059.762
1059772.0,112.0,371.0,179.0,185.0,1059.772
1059782.0,112.0,375.0,173.0,175.0,1059.782
1059792.0,109.0,371.0,155.0,162.0,1059.792
1059802.0,106.0,362.0,137.0,160.0,1059.802
1059812.0,101.0,354.0,123.0,152.0,1059.812
1059822.0,95.0,343.0,125.0,147.0,1059.822
1059832.0,95.0,339.0,117.0,143.0,1059.832
1059842.0,92.0,324.0,118.0,134.0,1059.842
1059852.0,96.0,329.0,122.0,127.0,1059.852
1059862.0,91.0,321.0,115.0,130.0,1059.862
1059872.0,86.0,291.0,109.0,126.0,1059.872
1059883.0,83.0,271.0,109.0,131.0,1059.883
1059893.0,83.0,257.0,100.0,139.0,1059.893
1059903.0,88.0,242.0,86.0,148.0,1059.903
1059913.0,87.0,231.0,76.0,192.0,1059.913
1059923.0,85.0,208.0,81.0,211.0,1059.923
1059933.0,83.0,189.0,85.0,237.0,1059.933
1059943.0,85.0,177.0,87.0,307.0,1059.943
1059953.0,89.0,161.0,87.0,309.0,1059.953
1059963.0,89.0,152.0,88.0,311.0,1059.963
1059973.0,97.0,141.0,90.0,315.0,1059.973
1059983.0,111.0,141.0,93.0,359.0,1059.983
1059993.0,110.0,150.0,95.0,413.0,1059.993
1060003.0,109.0,159.0,105.0,493.0,1060.003
1060013.0,117.0,181.0,119.0,504.0,1060.013
1060023.0,119.0,210.0,113.0,472.0,1060.023
1060033.0,116.0,234.0,108.0,447.0,1060.033
1060043.0,116.0,255.0,103.0,519.0,1060.043
1060054.0,116.0,275.0,100.0,517.0,1060.054
1060064.0,116.0,289.0,93.0,484.0,1060.064
1060074.0,117.0,310.0,95.0,456.0,1060.074
1060084.0,120.0,327.0,102.0,503.0,1060.084
1060094.0,121.0,342.0,98.0,457.0,1060.094
1060104.0,123.0,354.0,111.0,420.0,1060.104
1060114.0,120.0,365.0,111.0,396.0,1060.114
1060124.0,124.0,382.0,103.0,372.0,1060.124
1060134.0,127.0,393.0,98.0,355.0,1060.134
1060144.0,125.0,403.0,88.0,340.0,1060.144
1060154.0,125.0,413.0,78.0,316.0,1060.154
1060164.0,125.0,417.0,81.0,297.0,1060.164
1060174.0,123.0,418.0,83.0,295.0,1060.174
1060184.0,124.0,420.0,99.0,309.0,1060.184
1060194.0,120.0,419.0,94.0,288.0,1060.194
1060204.0,119.0,416.0,91.0,279.0,1060.204
1060214.0,120.0,414.0,79.0,265.0,1060.214
1060224.0,120.0,410.0,73.0,254.0,1060.224
1060234.0,121.0,406.0,69.0,254.0,1060.234
1060244.0,117.0,397.0,77.0,238.0,1060.244
1060254.0,122.0,394.0,85.0,227.0,1060.254
1060264.0,122.0,387.0,76.0,215.0,1060.264
1060274.0,119.0,380.0,71.0,219.0,1060.274
1060284.0,123.0,376.0,62.0,222.0,1060.284
1060294.0,121.0,367.0,55.0,227.0,1060.294
1060304.0,118.0,356.0,68.0,208.0,1060.304
1060314.0,117.0,348.0,73.0,210.0,1060.314
1060324.0,117.0,341.0,78.0,203.0,1060.324
1060334.0,112.0,330.0,76.0,228.0,1060.334
1060344.0,113.0,325.0,74.0,228.0,1060.344
1060354.0,114.0,321.0,70.0,222.0,1060.354
1060364.0,111.0,311.0,63.0,226.0,1060.364
1060374.0,109.0,304.0,55.0,213.0,1060.374
1060384.0,108.0,297.0,49.0,222.0,1060.384
1060395.0,109.0,293.0,60.0,221.0,1060.395
1060405.0,108.0,288.0,69.0,227.0,1060.405
1060415.0,106.0,282.0,65.0,215.0,1060.415
1060425.0,106.0,278.0,61.0,197.0,1060.425
1060435.0,108.0,273.0,59.0,196.0,1060.435
1060445.0,108.0,267.0,55.0,191.0,1060.445
1060455.0,107.0,259.0,47.0,178.0,1060.455
1060465.0,106.0,252.0,47.0,175.0,1060.465
1060475.0,106.0,248.0,40.0,180.0,1060.475
1060485.0,105.0,242.0,38.0,180.0,1060.485
1060495.0,105.0,238.0,34.0,169.0,1060.495
1060505.0,105.0,232.0,37.0,171.0,1060.505
1060515.0,107.0,228.0,35.0,170.0,1060.515
1060525.0,107.0,225.0,31.0,175.0,1060.525
1060535.0,108.0,219.0,38.0,175.0,1060.535
1060545.0,110.0,215.0,55.0,173.0,1060.545
1060555.0,112.0,213.0,61.0,167.0,1060.555
1060566.0,114.0,210.0,56.0,168.0,1060.566
1060576.0,115.0,205.0,51.0,165.0,1060.576
1060586.0,117.0,199.0,52.0,180.0,1060.586
1060596.0,118.0,195.0,47.0,173.0,1060.596
1060606.0,120.0,191.0,58.0,167.0,1060.606
1060616.0,121.0,187.0,58.0,161.0,1060.616
1060626.0,121.0,183.0,53.0,161.0,1060.626
1060636.0,120.0,177.0,51.0,165.0,1060.636
1060646.0,119.0,173.0,45.0,157.0,1060.646
1060656.0,119.0,168.0,41.0,161.0,1060.656
1060666.0,119.0,163.0,44.0,152.0,1060.666
1060676.0,120.0,160.0,41.0,144.0,1060.676
1060686.0,118.0,154.0,48.0,137.0,1060.686
1060696.0,118.0,153.0,46.0,145.0,1060.696
1060706.0,120.0,151.0,41.0,143.0,1060.706
1060716.0,119.0,147.0,39.0,147.0,1060.716
1060726.0,119.0,143.0,38.0,139.0,1060.726
1060736.0,120.0,140.0,35.0,137.0,1060.736
1060746.0,121.0,134.0,32.0,141.0,1060.746
1060756.0,120.0,129.0,42.0,166.0,1060.756
1060766.0,122.0,130.0,56.0,168.0,1060.766
1060776.0,122.0,127.0,50.0,161.0,1060.776
1060786.0,121.0,124.0,49.0,153.0,1060.786
1060796.0,119.0,118.0,47.0,155.0,1060.796
1060806.0,119.0,117.0,41.0,151.0,1060.806
1060816.0,121.0,117.0,39.0,152.0,1060.816
1060826.0,119.0,114.0,34.0,151.0,1060.826
1060836.0,118.0,113.0,30.0,140.0,1060.836
1060846.0,116.0,106.0,48.0,154.0,1060.846
1060856.0,117.0,109.0,51.0,164.0,1060.856
1060866.0,115.0,106.0,48.0,163.0,1060.866
1060876.0,113.0,105.0,41.0,158.0,1060.876
1060886.0,111.0,102.0,44.0,143.0,1060.886
1060896.0,109.0,100.0,42.0,136.0,1060.896
1060907.0,108.0,98.0,39.0,132.0,1060.907
1060917.0,108.0,98.0,35.0,126.0,1060.917
1060927.0,109.0,98.0,32.0,132.0,1060.927
1060937.0,108.0,94.0,37.0,122.0,1060.937
1060947.0,105.0,95.0,32.0,113.0,1060.947
1060957.0,106.0,95.0,31.0,109.0,1060.957
1060967.0,104.0,94.0,26.0,109.0,1060.967
1060977.0,102.0,94.0,25.0,111.0,1060.977
1060987.0,101.0,93.0,42.0,120.0,1060.987
1060997.0,100.0,91.0,50.0,131.0,1060.997
1061007.0,102.0,90.0,47.0,140.0,1061.007
1061017.0,102.0,90.0,41.0,136.0,1061.017
1061027.0,103.0,88.0,37.0,131.0,1061.027
1061037.0,102.0,87.0,32.0,128.0,1061.037
1061047.0,102.0,85.0,34.0,129.0,1061.047
1061057.0,102.0,85.0,31.0,120.0,1061.057
1061067.0,102.0,85.0,27.0,111.0,1061.067
1061078.0,101.0,81.0,27.0,120.0,1061.078
1061088.0,101.0,81.0,25.0,116.0,1061.088
1061098.0,102.0,78.0,30.0,124.0,1061.098
1061108.0,103.0,77.0,46.0,117.0,1061.108
1061118.0,102.0,78.0,41.0,111.0,1061.118
1061128.0,103.0,77.0,37.0,111.0,1061.128
1061138.0,103.0,78.0,35.0,118.0,1061.138
1061148.0,103.0,76.0,33.0,111.0,1061.148
1061158.0,101.0,76.0,28.0,112.0,1061.158
1061168.0,101.0,78.0,27.0,112.0,1061.168
1061178.0,102.0,80.0,24.0,130.0,1061.178
1061188.0,100.0,80.0,20.0,132.0,1061.188
1061198.0,100.0,79.0,18.0,121.0,1061.198
1061208.0,99.0,79.0,16.0,113.0,1061.208
1061218.0,98.0,77.0,15.0,129.0,1061.218
1061228.0,97.0,76.0,17.0,124.0,1061.228
1061238.0,99.0,74.0,28.0,129.0,1061.238
1061248.0,101.0,77.0,28.0,123.0,1061.248
1061258.0,102.0,78.0,25.0,119.0,1061.258
1061268.0,102.0,76.0,24.0,117.0,1061.268
1061278.0,102.0,76.0,24.0,122.0,1061.278
1061288.0,104.0,76.0,23.0,117.0,1061.288
1061298.0,104.0,77.0,21.0,111.0,1061.298
1061308.0,105.0,76.0,19.0,100.0,1061.308
1061318.0,105.0,74.0,25.0,115.0,1061.318
1061328.0,103.0,72.0,22.0,116.0,1061.328
1061338.0,104.0,71.0,22.0,122.0,1061.338
1061348.0,104.0,69.0,19.0,117.0,1061.348
1061358.0,103.0,68.0,18.0,116.0,1061.358
1061368.0,103.0,67.0,17.0,113.0,1061.368
1061378.0,105.0,67.0,17.0,112.0,1061.378
1061388.0,106.0,68.0,15.0,118.0,1061.388
1061398.0,103.0,66.0,15.0,114.0,1061.398
1061408.0,106.0,69.0,15.0,109.0,1061.408
1061419.0,104.0,69.0,16.0,126.0,1061.419
1061429.0,104.0,68.0,16.0,118.0,1061.429
1061439.0,103.0,67.0,15.0,115.0,1061.439
1061449.0,101.0,67.0,17.0,110.0,1061.449
1061459.0,101.0,65.0,14.0,109.0,1061.459
1061469.0,100.0,64.0,14.0,115.0,1061.469
1061479.0,100.0,64.0,14.0,109.0,1061.479
1061489.0,99.0,65.0,14.0,102.0,1061.489
1061499.0,98.0,62.0,13.0,102.0,1061.499
1061509.0,96.0,60.0,11.0,103.0,1061.509
1061519.0,95.0,57.0,11.0,98.0,1061.519
1061529.0,94.0,55.0,10.0,105.0,1061.529
1061539.0,94.0,55.0,9.0,105.0,1061.539
1061549.0,96.0,53.0,9.0,97.0,1061.549
1061559.0,96.0,53.0,7.0,90.0,1061.559
1061569.0,95.0,51.0,8.0,80.0,1061.569
1061579.0,95.0,49.0,7.0,74.0,1061.579
1061590.0,94.0,48.0,7.0,67.0,1061.59
1061600.0,94.0,47.0,6.0,64.0,1061.6
1061610.0,92.0,47.0,6.0,62.0,1061.61
1061620.0,92.0,46.0,6.0,58.0,1061.62
1061630.0,91.0,46.0,5.0,54.0,1061.63
1061640.0,91.0,45.0,5.0,59.0,1061.64
1061650.0,90.0,44.0,5.0,72.0,1061.65
1061660.0,89.0,44.0,8.0,93.0,1061.66
1061670.0,90.0,45.0,16.0,107.0,1061.67
1061680.0,88.0,46.0,38.0,115.0,1061.68
1061690.0,91.0,47.0,43.0,148.0,1061.69
1061700.0,93.0,51.0,58.0,141.0,1061.7
1061710.0,95.0,53.0,50.0,141.0,1061.71
1061720.0,94.0,53.0,44.0,139.0,1061.72
1061730.0,92.0,54.0,39.0,129.0,1061.73
1061740.0,93.0,53.0,34.0,125.0,1061.74
1061750.0,93.0,51.0,30.0,120.0,1061.75
1061760.0,93.0,49.0,27.0,113.0,1061.76
1061770.0,94.0,50.0,25.0,109.0,1061.77
1061780.0,91.0,47.0,24.0,112.0,1061.78
1061790.0,91.0,48.0,38.0,122.0,1061.79
1061800.0,89.0,47.0,40.0,123.0,1061.8
1061810.0,91.0,49.0,41.0,123.0,1061.81
1061820.0,88.0,47.0,34.0,116.0,1061.82
1061830.0,89.0,47.0,30.0,117.0,1061.83
1061840.0,86.0,47.0,27.0,112.0,1061.84
1061850.0,86.0,46.0,25.0,109.0,1061.85
1061860.0,86.0,45.0,23.0,108.0,1061.86
1061870.0,85.0,45.0,21.0,105.0,1061.87
1061880.0,86.0,46.0,21.0,101.0,1061.88
1061890.0,86.0,45.0,18.0,99.0,1061.89
1061900.0,84.0,44.0,19.0,116.0,1061.9
1061910.0,84.0,45.0,19.0,123.0,1061.91
1061920.0,85.0,44.0,19.0,116.0,1061.92
1061931.0,85.0,42.0,17.0,114.0,1061.931
1061941.0,84.0,41.0,20.0,113.0,1061.941
1061951.0,88.0,43.0,18.0,109.0,1061.951
1061961.0,87.0,42.0,14.0,123.0,1061.961
1061971.0,87.0,42.0,14.0,127.0,1061.971
1061981.0,88.0,41.0,13.0,120.0,1061.981
1061991.0,88.0,40.0,13.0,120.0,1061.991
1062001.0,86.0,39.0,13.0,114.0,1062.001
1062011.0,87.0,39.0,13.0,111.0,1062.011
1062021.0,88.0,38.0,13.0,109.0,1062.021
1062031.0,87.0,38.0,11.0,104.0,1062.031
1062041.0,86.0,37.0,14.0,102.0,1062.041
1062051.0,84.0,38.0,17.0,109.0,1062.051
1062061.0,83.0,39.0,18.0,106.0,1062.061
1062071.0,86.0,39.0,17.0,103.0,1062.071
1062081.0,85.0,40.0,15.0,99.0,1062.081
1062091.0,85.0,41.0,15.0,95.0,1062.091
1062102.0,83.0,41.0,13.0,98.0,1062.102
1062112.0,82.0,41.0,13.0,96.0,1062.112
1062122.0,82.0,42.0,13.0,105.0,1062.122
1062132.0,79.0,42.0,13.0,97.0,1062.132
1062142.0,80.0,42.0,14.0,93.0,1062.142
1062152.0,81.0,43.0,14.0,90.0,1062.152
1062162.0,80.0,42.0,13.0,100.0,1062.162
1062172.0,80.0,42.0,12.0,96.0,1062.172
1062182.0,79.0,41.0,13.0,89.0,1062.182
1062192.0,80.0,43.0,13.0,96.0,1062.192
1062202.0,78.0,42.0,11.0,93.0,1062.202
1062212.0,81.0,42.0,11.0,97.0,1062.212
1062222.0,81.0,41.0,10.0,91.0,1062.222
1062232.0,81.0,40.0,12.0,94.0,1062.232
1062242.0,80.0,40.0,10.0,95.0,1062.242
1062252.0,80.0,38.0,10.0,97.0,1062.252
1062262.0,79.0,38.0,10.0,97.0,1062.262
1062272.0,79.0,38.0,10.0,93.0,1062.272
1062282.0,78.0,38.0,11.0,86.0,1062.282
1062292.0,78.0,38.0,11.0,85.0,1062.292
1062302.0,78.0,38.0,12.0,93.0,1062.302
1062312.0,76.0,39.0,11.0,99.0,1062.312
1062322.0,77.0,40.0,12.0,102.0,1062.322
1062332.0,74.0,40.0,14.0,99.0,1062.332
1062342.0,75.0,40.0,12.0,103.0,1062.342
1062352.0,76.0,39.0,11.0,101.0,1062.352
1062362.0,76.0,39.0,10.0,117.0,1062.362
1062372.0,79.0,39.0,11.0,111.0,1062.372
1062382.0,77.0,39.0,14.0,108.0,1062.382
1062392.0,79.0,37.0,19.0,102.0,1062.392
1062402.0,81.0,38.0,17.0,96.0,1062.402
1062412.0,82.0,37.0,15.0,90.0,1062.412
1062422.0,84.0,36.0,15.0,112.0,1062.422
1062432.0,81.0,37.0,15.0,123.0,1062.432
1062443.0,83.0,37.0,15.0,120.0,1062.443
1062453.0,82.0,37.0,12.0,120.0,1062.453
1062463.0,82.0,36.0,12.0,113.0,1062.463
1062473.0,82.0,37.0,12.0,121.0,1062.473
1062483.0,81.0,36.0,11.0,113.0,1062.483
1062493.0,80.0,36.0,10.0,106.0,1062.493
1062503.0,79.0,36.0,13.0,103.0,1062.503
1062513.0,79.0,35.0,15.0,99.0,1062.513
1062523.0,78.0,35.0,12.0,92.0,1062.523
1062533.0,77.0,36.0,14.0,99.0,1062.533
1062543.0,76.0,36.0,14.0,103.0,1062.543
1062553.0,75.0,35.0,11.0,115.0,1062.553
1062563.0,73.0,36.0,18.0,108.0,1062.563
1062573.0,73.0,37.0,17.0,107.0,1062.573
1062583.0,75.0,35.0,17.0,105.0,1062.583
1062593.0,73.0,35.0,14.0,104.0,1062.593
1062603.0,72.0,35.0,15.0,109.0,1062.603
1062614.0,72.0,35.0,13.0,103.0,1062.614
1062624.0,71.0,35.0,15.0,100.0,1062.624
1062634.0,71.0,35.0,16.0,95.0,1062.634
1062644.0,69.0,35.0,13.0,99.0,1062.644
1062654.0,72.0,35.0,14.0,103.0,1062.654
1062664.0,70.0,35.0,12.0,96.0,1062.664
1062674.0,70.0,33.0,11.0,91.0,1062.674
1062684.0,70.0,35.0,13.0,89.0,1062.684
1062694.0,69.0,35.0,11.0,84.0,1062.694
1062704.0,70.0,34.0,10.0,80.0,1062.704
1062714.0,69.0,34.0,9.0,88.0,1062.714
1062724.0,70.0,35.0,9.0,85.0,1062.724
1062734.0,69.0,35.0,10.0,82.0,1062.734
1062744.0,66.0,35.0,12.0,88.0,1062.744
1062754.0,66.0,37.0,12.0,95.0,1062.754
1062764.0,65.0,37.0,13.0,91.0,1062.764
1062774.0,65.0,38.0,14.0,88.0,1062.774
1062784.0,63.0,39.0,15.0,106.0,1062.784
1062794.0,61.0,40.0,15.0,98.0,1062.794
1062804.0,58.0,40.0,12.0,101.0,1062.804
1062814.0,55.0,38.0,11.0,108.0,1062.814
1062824.0,54.0,38.0,10.0,105.0,1062.824
1062834.0,52.0,38.0,10.0,101.0,1062.834
1062844.0,52.0,36.0,9.0,100.0,1062.844
1062854.0,54.0,37.0,9.0,96.0,1062.854
1062864.0,53.0,35.0,10.0,91.0,1062.864
1062874.0,52.0,35.0,8.0,90.0,1062.874
1062884.0,52.0,35.0,8.0,92.0,1062.884
1062894.0,53.0,35.0,9.0,94.0,1062.894
1062904.0,53.0,36.0,9.0,95.0,1062.904
1062914.0,55.0,35.0,8.0,96.0,1062.914
1062924.0,55.0,35.0,8.0,98.0,1062.924
1062934.0,57.0,34.0,11.0,97.0,1062.934
1062944.0,56.0,34.0,8.0,94.0,1062.944
1062955.0,56.0,35.0,9.0,99.0,1062.955
1062965.0,56.0,35.0,10.0,99.0,1062.965
1062975.0,56.0,35.0,9.0,94.0,1062.975
1062985.0,55.0,35.0,14.0,90.0,1062.985
1062995.0,56.0,35.0,17.0,89.0,1062.995
1063005.0,56.0,37.0,16.0,87.0,1063.005
1063015.0,56.0,36.0,14.0,109.0,1063.015
1063025.0,55.0,36.0,12.0,104.0,1063.025
1063035.0,54.0,36.0,11.0,97.0,1063.035
1063045.0,53.0,36.0,10.0,94.0,1063.045
1063055.0,53.0,35.0,10.0,86.0,1063.055
1063065.0,53.0,35.0,9.0,84.0,1063.065
1063075.0,53.0,35.0,10.0,93.0,1063.075
1063085.0,52.0,35.0,8.0,92.0,1063.085
1063095.0,53.0,36.0,7.0,86.0,1063.095
1063105.0,54.0,36.0,10.0,83.0,1063.105
1063115.0,55.0,37.0,15.0,91.0,1063.115
1063126.0,55.0,36.0,14.0,92.0,1063.126
1063136.0,55.0,37.0,13.0,91.0,1063.136
1063146.0,55.0,36.0,13.0,94.0,1063.146
1063156.0,53.0,35.0,12.0,91.0,1063.156
1063166.0,53.0,35.0,12.0,88.0,1063.166
1063176.0,53.0,35.0,10.0,89.0,1063.176
1063186.0,53.0,36.0,9.0,90.0,1063.186
1063196.0,52.0,34.0,9.0,92.0,1063.196
1063206.0,53.0,35.0,9.0,101.0,1063.206
1063216.0,54.0,36.0,13.0,102.0,1063.216
1063226.0,54.0,35.0,10.0,106.0,1063.226
1063236.0,55.0,37.0,10.0,111.0,1063.236
1063246.0,58.0,36.0,9.0,109.0,1063.246
1063256.0,59.0,36.0,9.0,107.0,1063.256
1063266.0,61.0,34.0,8.0,113.0,1063.266
1063276.0,61.0,35.0,7.0,121.0,1063.276
1063286.0,62.0,35.0,12.0,115.0,1063.286
1063296.0,62.0,35.0,13.0,115.0,1063.296
1063306.0,62.0,36.0,11.0,108.0,1063.306
1063316.0,62.0,36.0,12.0,115.0,1063.316
1063326.0,63.0,36.0,11.0,109.0,1063.326
1063336.0,63.0,35.0,10.0,98.0,1063.336
1063346.0,63.0,36.0,10.0,102.0,1063.346
1063356.0,64.0,35.0,13.0,103.0,1063.356
1063366.0,64.0,35.0,11.0,103.0,1063.366
1063376.0,64.0,35.0,10.0,95.0,1063.376
1063386.0,64.0,35.0,9.0,104.0,1063.386
1063396.0,62.0,36.0,19.0,106.0,1063.396
1063406.0,62.0,34.0,17.0,124.0,1063.406
1063416.0,62.0,36.0,18.0,121.0,1063.416
1063426.0,61.0,36.0,20.0,114.0,1063.426
1063436.0,61.0,35.0,18.0,126.0,1063.436
1063446.0,58.0,35.0,16.0,126.0,1063.446
1063456.0,58.0,35.0,15.0,116.0,1063.456
1063467.0,58.0,37.0,14.0,107.0,1063.467
1063477.0,58.0,36.0,12.0,103.0,1063.477
1063487.0,58.0,36.0,15.0,102.0,1063.487
1063497.0,59.0,35.0,15.0,128.0,1063.497
1063507.0,59.0,36.0,14.0,122.0,1063.507
1063517.0,58.0,36.0,13.0,122.0,1063.517
1063527.0,60.0,36.0,12.0,114.0,1063.527
1063537.0,59.0,37.0,11.0,116.0,1063.537
1063547.0,59.0,35.0,10.0,115.0,1063.547
1063557.0,61.0,37.0,9.0,119.0,1063.557
1063567.0,60.0,37.0,10.0,115.0,1063.567
1063577.0,60.0,38.0,9.0,115.0,1063.577
1063587.0,60.0,40.0,7.0,119.0,1063.587
1063597.0,59.0,38.0,11.0,120.0,1063.597
1063607.0,59.0,41.0,11.0,114.0,1063.607
1063617.0,61.0,40.0,11.0,111.0,1063.617
1063627.0,62.0,42.0,15.0,106.0,1063.627
1063638.0,63.0,41.0,13.0,116.0,1063.638
1063648.0,63.0,41.0,12.0,109.0,1063.648
1063658.0,62.0,40.0,14.0,115.0,1063.658
1063668.0,63.0,39.0,12.0,119.0,1063.668
1063678.0,62.0,40.0,11.0,117.0,1063.678
1063688.0,62.0,38.0,11.0,116.0,1063.688
1063698.0,61.0,38.0,12.0,110.0,1063.698
1063708.0,63.0,38.0,15.0,113.0,1063.708
1063718.0,62.0,38.0,14.0,114.0,1063.718
1063728.0,62.0,37.0,14.0,111.0,1063.728
1063738.0,62.0,37.0,13.0,107.0,1063.738
1063748.0,61.0,38.0,13.0,105.0,1063.748
1063758.0,60.0,36.0,12.0,100.0,1063.758
1063768.0,60.0,36.0,13.0,102.0,1063.768
1063778.0,61.0,36.0,13.0,107.0,1063.778
1063788.0,63.0,36.0,11.0,110.0,1063.788
1063798.0,62.0,36.0,10.0,111.0,1063.798
1063808.0,64.0,36.0,10.0,104.0,1063.808
1063818.0,64.0,37.0,9.0,112.0,1063.818
1063828.0,64.0,36.0,8.0,109.0,1063.828
1063838.0,63.0,36.0,12.0,114.0,1063.838
1063848.0,62.0,36.0,12.0,111.0,1063.848
1063858.0,62.0,35.0,10.0,107.0,1063.858
1063868.0,60.0,36.0,9.0,107.0,1063.868
1063878.0,60.0,37.0,11.0,105.0,1063.878
1063888.0,59.0,38.0,10.0,108.0,1063.888
1063898.0,59.0,37.0,14.0,106.0,1063.898
1063908.0,58.0,37.0,16.0,115.0,1063.908
1063918.0,57.0,37.0,18.0,114.0,1063.918
1063928.0,57.0,39.0,18.0,113.0,1063.928
1063938.0,58.0,38.0,18.0,109.0,1063.938
1063948.0,59.0,38.0,17.0,111.0,1063.948
1063958.0,59.0,40.0,16.0,126.0,1063.958
1063968.0,57.0,39.0,14.0,122.0,1063.968
1063979.0,58.0,39.0,16.0,123.0,1063.979
1063989.0,59.0,39.0,15.0,118.0,1063.989
1063999.0,60.0,38.0,17.0,113.0,1063.999
1064009.0,60.0,38.0,18.0,113.0,1064.009
1064019.0,61.0,36.0,16.0,116.0,1064.019
1064029.0,62.0,38.0,15.0,118.0,1064.029
1064039.0,65.0,36.0,15.0,112.0,1064.039
1064049.0,67.0,37.0,18.0,111.0,1064.049
1064059.0,66.0,36.0,18.0,106.0,1064.059
1064069.0,69.0,35.0,17.0,106.0,1064.069
1064079.0,69.0,36.0,14.0,104.0,1064.079
1064089.0,70.0,36.0,14.0,100.0,1064.089
1064099.0,69.0,36.0,13.0,95.0,1064.099
1064109.0,69.0,34.0,11.0,98.0,1064.109
1064119.0,69.0,34.0,11.0,100.0,1064.119
1064129.0,68.0,35.0,17.0,109.0,1064.129
1064139.0,71.0,35.0,19.0,118.0,1064.139
1064150.0,70.0,36.0,18.0,117.0,1064.15
1064160.0,72.0,36.0,16.0,119.0,1064.16
1064170.0,73.0,37.0,13.0,131.0,1064.17
1064180.0,72.0,34.0,12.0,126.0,1064.18
1064190.0,74.0,36.0,12.0,118.0,1064.19
1064200.0,72.0,36.0,12.0,113.0,1064.2
1064210.0,72.0,35.0,11.0,116.0,1064.21
1064220.0,72.0,36.0,12.0,137.0,1064.22
1064230.0,71.0,36.0,15.0,143.0,1064.23
1064240.0,72.0,38.0,15.0,143.0,1064.24
1064250.0,72.0,36.0,14.0,138.0,1064.25
1064260.0,71.0,35.0,13.0,126.0,1064.26
1064270.0,70.0,35.0,13.0,127.0,1064.27
1064280.0,71.0,35.0,12.0,136.0,1064.28
1064290.0,68.0,35.0,12.0,129.0,1064.29
1064300.0,68.0,35.0,14.0,120.0,1064.3
1064310.0,68.0,37.0,15.0,115.0,1064.31
1064320.0,68.0,36.0,14.0,110.0,1064.32
1064330.0,68.0,36.0,13.0,116.0,1064.33
1064340.0,69.0,36.0,13.0,125.0,1064.34
1064350.0,72.0,36.0,14.0,126.0,1064.35
1064360.0,70.0,36.0,12.0,123.0,1064.36
1064370.0,70.0,36.0,17.0,117.0,1064.37
1064380.0,70.0,37.0,16.0,130.0,1064.38
1064390.0,68.0,36.0,15.0,126.0,1064.39
1064400.0,69.0,36.0,15.0,128.0,1064.4
1064410.0,68.0,37.0,15.0,118.0,1064.41
1064420.0,70.0,37.0,16.0,122.0,1064.42
1064430.0,70.0,37.0,14.0,116.0,1064.43
1064440.0,68.0,36.0,18.0,113.0,1064.44
1064450.0,69.0,38.0,17.0,115.0,1064.45
1064460.0,67.0,37.0,17.0,112.0,1064.46
1064470.0,66.0,37.0,17.0,108.0,1064.47
1064480.0,65.0,37.0,15.0,109.0,1064.48
1064491.0,67.0,38.0,14.0,104.0,1064.491
1064501.0,64.0,39.0,12.0,100.0,1064.501
1064511.0,63.0,37.0,12.0,96.0,1064.511
1064521.0,63.0,39.0,10.0,98.0,1064.521
1064531.0,61.0,38.0,12.0,90.0,1064.531
1064541.0,60.0,38.0,12.0,86.0,1064.541
1064551.0,59.0,38.0,12.0,91.0,1064.551
1064561.0,60.0,37.0,14.0,103.0,1064.561
1064571.0,58.0,37.0,12.0,98.0,1064.571
1064581.0,57.0,37.0,12.0,93.0,1064.581
1064591.0,57.0,37.0,10.0,95.0,1064.591
1064601.0,57.0,37.0,12.0,112.0,1064.601
1064611.0,55.0,36.0,12.0,109.0,1064.611
1064621.0,55.0,37.0,11.0,105.0,1064.621
1064631.0,55.0,37.0,11.0,106.0,1064.631
1064641.0,54.0,37.0,8.0,111.0,1064.641
1064651.0,55.0,38.0,12.0,116.0,1064.651
1064662.0,54.0,38.0,11.0,117.0,1064.662
1064672.0,55.0,38.0,12.0,118.0,1064.672
1064682.0,55.0,38.0,11.0,109.0,1064.682
1064692.0,53.0,37.0,9.0,99.0,1064.692
1064702.0,54.0,37.0,11.0,97.0,1064.702
1064712.0,52.0,39.0,14.0,123.0,1064.712
1064722.0,51.0,40.0,14.0,131.0,1064.722
1064732.0,51.0,41.0,14.0,125.0,1064.732
1064742.0,50.0,41.0,15.0,114.0,1064.742
1064752.0,49.0,41.0,16.0,111.0,1064.752
1064762.0,49.0,43.0,14.0,120.0,1064.762
1064772.0,50.0,43.0,14.0,115.0,1064.772
1064782.0,48.0,42.0,12.0,115.0,1064.782
1064792.0,48.0,41.0,15.0,111.0,1064.792
1064802.0,47.0,41.0,14.0,113.0,1064.802
1064812.0,46.0,42.0,12.0,106.0,1064.812
1064822.0,45.0,40.0,11.0,100.0,1064.822
1064832.0,44.0,41.0,10.0,98.0,1064.832
1064842.0,44.0,40.0,15.0,97.0,1064.842
1064852.0,44.0,40.0,12.0,100.0,1064.852
1064862.0,43.0,40.0,14.0,112.0,1064.862
1064872.0,44.0,42.0,13.0,115.0,1064.872
1064882.0,43.0,40.0,12.0,111.0,1064.882
1064892.0,44.0,42.0,12.0,117.0,1064.892
1064902.0,43.0,41.0,10.0,117.0,1064.902
1064912.0,44.0,40.0,11.0,106.0,1064.912
1064922.0,43.0,40.0,10.0,107.0,1064.922
1064932.0,44.0,40.0,14.0,113.0,1064.932
1064942.0,44.0,40.0,13.0,111.0,1064.942
1064952.0,45.0,40.0,11.0,120.0,1064.952
1064962.0,43.0,38.0,11.0,113.0,1064.962
1064972.0,43.0,38.0,13.0,130.0,1064.972
1064982.0,44.0,39.0,14.0,130.0,1064.982
1064992.0,44.0,38.0,12.0,122.0,1064.992
1065003.0,46.0,40.0,13.0,122.0,1065.003
1065013.0,47.0,41.0,15.0,117.0,1065.013
1065023.0,48.0,42.0,13.0,123.0,1065.023
1065033.0,47.0,39.0,13.0,120.0,1065.033
1065043.0,47.0,40.0,12.0,112.0,1065.043
1065053.0,47.0,39.0,12.0,112.0,1065.053
1065063.0,46.0,39.0,10.0,110.0,1065.063
1065073.0,46.0,38.0,12.0,112.0,1065.073
1065083.0,45.0,37.0,12.0,110.0,1065.083
1065093.0,45.0,37.0,15.0,107.0,1065.093
1065103.0,46.0,38.0,15.0,102.0,1065.103
1065113.0,45.0,38.0,13.0,99.0,1065.113
1065123.0,46.0,38.0,17.0,113.0,1065.123
1065133.0,46.0,39.0,15.0,126.0,1065.133
1065143.0,46.0,40.0,13.0,116.0,1065.143
1065153.0,45.0,39.0,14.0,105.0,1065.153
1065163.0,45.0,39.0,13.0,101.0,1065.163
1065174.0,44.0,38.0,13.0,102.0,1065.174
1065184.0,43.0,37.0,12.0,111.0,1065.184
1065194.0,44.0,37.0,17.0,115.0,1065.194
1065204.0,43.0,37.0,16.0,121.0,1065.204
1065214.0,44.0,36.0,14.0,113.0,1065.214
1065224.0,45.0,36.0,15.0,107.0,1065.224
1065234.0,45.0,35.0,14.0,111.0,1065.234
1065244.0,48.0,35.0,12.0,107.0,1065.244
1065254.0,49.0,35.0,11.0,112.0,1065.254
1065264.0,51.0,35.0,11.0,106.0,1065.264
1065274.0,51.0,35.0,10.0,106.0,1065.274
1065284.0,53.0,35.0,11.0,98.0,1065.284
1065294.0,53.0,36.0,11.0,96.0,1065.294
1065304.0,53.0,37.0,10.0,108.0,1065.304
1065314.0,52.0,36.0,13.0,120.0,1065.314
1065324.0,52.0,36.0,13.0,118.0,1065.324
1065334.0,54.0,38.0,12.0,113.0,1065.334
1065344.0,53.0,37.0,10.0,115.0,1065.344
1065354.0,52.0,37.0,10.0,119.0,1065.354
1065364.0,50.0,37.0,9.0,112.0,1065.364
1065374.0,50.0,38.0,8.0,105.0,1065.374
1065384.0,49.0,38.0,9.0,104.0,1065.384
1065394.0,50.0,40.0,10.0,106.0,1065.394
1065404.0,47.0,38.0,10.0,104.0,1065.404
1065414.0,47.0,38.0,13.0,118.0,1065.414
1065424.0,48.0,40.0,16.0,121.0,1065.424
1065434.0,47.0,40.0,15.0,119.0,1065.434
1065444.0,48.0,42.0,13.0,110.0,1065.444
1065454.0,47.0,40.0,12.0,106.0,1065.454
1065464.0,47.0,39.0,9.0,119.0,1065.464
1065474.0,47.0,39.0,11.0,131.0,1065.474
1065484.0,49.0,40.0,10.0,130.0,1065.484
1065494.0,48.0,41.0,11.0,126.0,1065.494
1065504.0,49.0,41.0,11.0,129.0,1065.504
1065515.0,49.0,41.0,13.0,121.0,1065.515
1065525.0,50.0,41.0,15.0,128.0,1065.525
1065535.0,50.0,42.0,13.0,134.0,1065.535
1065545.0,52.0,41.0,13.0,125.0,1065.545
1065555.0,53.0,40.0,12.0,124.0,1065.555
1065565.0,52.0,39.0,13.0,117.0,1065.565
1065575.0,53.0,38.0,11.0,111.0,1065.575
1065585.0,54.0,39.0,10.0,110.0,1065.585
1065595.0,54.0,37.0,10.0,112.0,1065.595
1065605.0,53.0,37.0,16.0,103.0,1065.605
1065615.0,53.0,37.0,17.0,103.0,1065.615
1065625.0,55.0,35.0,14.0,99.0,1065.625
1065635.0,54.0,36.0,15.0,96.0,1065.635
1065645.0,55.0,35.0,15.0,96.0,1065.645
1065655.0,55.0,36.0,14.0,99.0,1065.655
1065665.0,54.0,35.0,16.0,107.0,1065.665
1065675.0,54.0,36.0,13.0,104.0,1065.675
1065686.0,54.0,35.0,13.0,110.0,1065.686
1065696.0,54.0,35.0,12.0,108.0,1065.696
1065706.0,52.0,36.0,12.0,111.0,1065.706
1065716.0,53.0,36.0,13.0,107.0,1065.716
1065726.0,53.0,37.0,11.0,110.0,1065.726
1065736.0,51.0,36.0,10.0,108.0,1065.736
1065746.0,50.0,37.0,10.0,102.0,1065.746
1065756.0,51.0,37.0,10.0,97.0,1065.756
1065766.0,50.0,36.0,8.0,93.0,1065.766
1065776.0,49.0,37.0,8.0,94.0,1065.776
1065786.0,49.0,37.0,7.0,93.0,1065.786
1065796.0,48.0,38.0,8.0,115.0,1065.796
1065806.0,49.0,37.0,12.0,109.0,1065.806
1065816.0,49.0,38.0,13.0,107.0,1065.816
1065826.0,49.0,37.0,13.0,103.0,1065.826
1065836.0,50.0,37.0,12.0,105.0,1065.836
1065846.0,50.0,39.0,10.0,119.0,1065.846
1065856.0,50.0,38.0,12.0,121.0,1065.856
1065866.0,51.0,39.0,13.0,125.0,1065.866
1065876.0,52.0,37.0,13.0,113.0,1065.876
1065886.0,52.0,37.0,11.0,103.0,1065.886
1065896.0,52.0,36.0,13.0,109.0,1065.896
1065906.0,52.0,36.0,11.0,111.0,1065.906
1065916.0,51.0,37.0,14.0,110.0,1065.916
1065926.0,52.0,37.0,14.0,106.0,1065.926
1065936.0,53.0,38.0,13.0,106.0,1065.936
1065946.0,53.0,36.0,13.0,104.0,1065.946
1065956.0,53.0,36.0,11.0,99.0,1065.956
1065966.0,53.0,35.0,10.0,110.0,1065.966
1065976.0,53.0,35.0,10.0,107.0,1065.976
1065986.0,52.0,37.0,10.0,105.0,1065.986
1065996.0,53.0,36.0,10.0,105.0,1065.996
1066006.0,52.0,37.0,11.0,106.0,1066.006
1066016.0,51.0,36.0,11.0,112.0,1066.016
1066027.0,51.0,36.0,21.0,107.0,1066.027
1066037.0,51.0,36.0,19.0,102.0,1066.037
1066047.0,51.0,35.0,17.0,99.0,1066.047
1066057.0,50.0,38.0,18.0,110.0,1066.057
1066067.0,52.0,37.0,18.0,101.0,1066.067
1066077.0,51.0,37.0,19.0,98.0,1066.077
1066087.0,51.0,37.0,18.0,88.0,1066.087
1066097.0,52.0,37.0,17.0,85.0,1066.097
1066107.0,52.0,36.0,15.0,88.0,1066.107
1066117.0,52.0,36.0,14.0,93.0,1066.117
1066127.0,50.0,36.0,16.0,96.0,1066.127
1066137.0,53.0,36.0,15.0,96.0,1066.137
1066147.0,53.0,37.0,14.0,95.0,1066.147
1066157.0,52.0,36.0,12.0,89.0,1066.157
1066167.0,53.0,35.0,11.0,92.0,1066.167
1066177.0,51.0,36.0,10.0,95.0,1066.177
1066187.0,51.0,35.0,11.0,105.0,1066.187
1066198.0,51.0,38.0,10.0,106.0,1066.198
1066208.0,51.0,37.0,9.0,104.0,1066.208
1066218.0,51.0,38.0,9.0,103.0,1066.218
1066228.0,51.0,36.0,12.0,97.0,1066.228
1066238.0,52.0,39.0,11.0,106.0,1066.238
1066248.0,52.0,41.0,11.0,104.0,1066.248
1066258.0,52.0,42.0,10.0,105.0,1066.258
1066268.0,52.0,44.0,7.0,110.0,1066.268
1066278.0,54.0,45.0,9.0,113.0,1066.278
1066288.0,53.0,46.0,8.0,109.0,1066.288
1066298.0,54.0,45.0,7.0,104.0,1066.298
1066308.0,54.0,45.0,11.0,105.0,1066.308
1066318.0,53.0,44.0,10.0,99.0,1066.318
1066328.0,54.0,44.0,11.0,109.0,1066.328
1066338.0,53.0,46.0,10.0,107.0,1066.338
1066348.0,52.0,45.0,10.0,100.0,1066.348
1066358.0,51.0,44.0,11.0,96.0,1066.358
1066368.0,51.0,43.0,10.0,96.0,1066.368
1066378.0,50.0,41.0,9.0,99.0,1066.378
1066388.0,50.0,40.0,9.0,96.0,1066.388
1066398.0,51.0,39.0,9.0,94.0,1066.398
1066408.0,50.0,39.0,10.0,95.0,1066.408
1066418.0,51.0,41.0,10.0,92.0,1066.418
1066428.0,51.0,41.0,11.0,99.0,1066.428
1066438.0,50.0,40.0,10.0,96.0,1066.438
1066448.0,51.0,42.0,9.0,92.0,1066.448
1066458.0,50.0,44.0,13.0,96.0,1066.458
1066468.0,51.0,44.0,16.0,93.0,1066.468
1066478.0,50.0,45.0,14.0,89.0,1066.478
1066488.0,50.0,43.0,18.0,97.0,1066.488
1066498.0,51.0,45.0,22.0,92.0,1066.498
1066508.0,51.0,42.0,19.0,92.0,1066.508
1066518.0,51.0,41.0,20.0,84.0,1066.518
1066528.0,49.0,40.0,20.0,90.0,1066.528
1066539.0,53.0,40.0,17.0,90.0,1066.539
1066549.0,52.0,39.0,14.0,94.0,1066.549
1066559.0,52.0,38.0,14.0,92.0,1066.559
1066569.0,52.0,38.0,13.0,90.0,1066.569
1066579.0,53.0,39.0,19.0,92.0,1066.579
1066589.0,52.0,38.0,19.0,92.0,1066.589
1066599.0,52.0,39.0,21.0,101.0,1066.599
1066609.0,52.0,39.0,18.0,112.0,1066.609
1066619.0,54.0,38.0,17.0,103.0,1066.619
1066629.0,54.0,37.0,15.0,97.0,1066.629
1066639.0,55.0,37.0,14.0,92.0,1066.639
1066649.0,55.0,39.0,11.0,100.0,1066.649
1066659.0,55.0,38.0,11.0,105.0,1066.659
1066669.0,55.0,37.0,10.0,104.0,1066.669
1066679.0,57.0,38.0,11.0,110.0,1066.679
1066689.0,56.0,40.0,8.0,104.0,1066.689
1066699.0,57.0,40.0,9.0,102.0,1066.699
1066710.0,54.0,40.0,8.0,111.0,1066.71
1066720.0,54.0,40.0,10.0,108.0,1066.72
1066730.0,53.0,38.0,8.0,102.0,1066.73
1066740.0,51.0,40.0,11.0,92.0,1066.74
1066750.0,51.0,38.0,11.0,86.0,1066.75
1066760.0,50.0,37.0,8.0,83.0,1066.76
1066770.0,50.0,37.0,14.0,89.0,1066.77
1066780.0,50.0,38.0,12.0,98.0,1066.78
1066790.0,49.0,37.0,11.0,94.0,1066.79
1066800.0,49.0,36.0,13.0,92.0,1066.8
1066810.0,47.0,37.0,12.0,88.0,1066.81
1066820.0,50.0,38.0,12.0,89.0,1066.82
1066830.0,48.0,37.0,14.0,84.0,1066.83
1066840.0,48.0,37.0,14.0,77.0,1066.84
1066850.0,47.0,39.0,14.0,76.0,1066.85
1066860.0,47.0,38.0,13.0,82.0,1066.86
1066870.0,46.0,37.0,14.0,78.0,1066.87
1066880.0,45.0,38.0,12.0,78.0,1066.88
1066890.0,47.0,40.0,14.0,83.0,1066.89
1066900.0,47.0,41.0,14.0,94.0,1066.9
1066910.0,49.0,41.0,13.0,94.0,1066.91
1066920.0,49.0,41.0,11.0,95.0,1066.92
1066930.0,50.0,40.0,11.0,94.0,1066.93
1066940.0,49.0,38.0,12.0,96.0,1066.94
1066950.0,49.0,38.0,12.0,90.0,1066.95
1066960.0,51.0,37.0,11.0,99.0,1066.96
1066970.0,52.0,38.0,10.0,95.0,1066.97
1066980.0,51.0,37.0,9.0,89.0,1066.98
1066990.0,50.0,37.0,10.0,96.0,1066.99
1067000.0,52.0,38.0,11.0,102.0,1067.0
1067010.0,53.0,38.0,10.0,100.0,1067.01
1067020.0,54.0,37.0,8.0,103.0,1067.02
1067030.0,56.0,37.0,9.0,97.0,1067.03
1067040.0,58.0,37.0,7.0,89.0,1067.04
1067051.0,59.0,37.0,7.0,86.0,1067.051
1067061.0,59.0,39.0,10.0,85.0,1067.061
1067071.0,58.0,39.0,9.0,82.0,1067.071
1067081.0,57.0,39.0,11.0,86.0,1067.081
1067091.0,56.0,38.0,9.0,88.0,1067.091
1067101.0,55.0,38.0,13.0,92.0,1067.101
1067111.0,55.0,39.0,18.0,92.0,1067.111
1067121.0,57.0,41.0,20.0,89.0,1067.121
1067131.0,58.0,39.0,18.0,89.0,1067.131
1067141.0,58.0,41.0,17.0,102.0,1067.141
1067151.0,58.0,40.0,15.0,110.0,1067.151
1067161.0,59.0,40.0,16.0,106.0,1067.161
1067171.0,59.0,39.0,16.0,99.0,1067.171
1067181.0,58.0,40.0,14.0,102.0,1067.181
1067191.0,58.0,41.0,15.0,106.0,1067.191
1067201.0,58.0,41.0,14.0,113.0,1067.201
1067211.0,59.0,41.0,12.0,110.0,1067.211
1067222.0,59.0,39.0,11.0,100.0,1067.222
1067232.0,58.0,40.0,11.0,99.0,1067.232
1067242.0,59.0,40.0,14.0,97.0,1067.242
1067252.0,58.0,41.0,16.0,114.0,1067.252
1067262.0,61.0,41.0,14.0,120.0,1067.262
1067272.0,60.0,40.0,14.0,119.0,1067.272
1067282.0,61.0,40.0,12.0,106.0,1067.282
1067292.0,59.0,38.0,11.0,96.0,1067.292
1067302.0,57.0,37.0,9.0,96.0,1067.302
