time (ms),signal 0,signal 1,signal 2,signal3,time (sec)
1093526.0,113.0,138.0,23.0,117.0,1093.526
1093536.0,116.0,140.0,23.0,110.0,1093.536
1093547.0,119.0,144.0,21.0,122.0,1093.547
1093557.0,121.0,146.0,28.0,118.0,1093.557
1093567.0,123.0,149.0,33.0,120.0,1093.567
1093577.0,127.0,152.0,32.0,120.0,1093.577
1093587.0,129.0,155.0,30.0,115.0,1093.587
1093597.0,132.0,157.0,26.0,113.0,1093.597
1093607.0,134.0,160.0,30.0,123.0,1093.607
1093617.0,138.0,164.0,27.0,123.0,1093.617
1093627.0,139.0,163.0,27.0,124.0,1093.627
1093637.0,141.0,166.0,33.0,120.0,1093.637
1093647.0,148.0,169.0,32.0,115.0,1093.647
1093657.0,150.0,172.0,28.0,119.0,1093.657
1093667.0,156.0,177.0,27.0,119.0,1093.667
1093677.0,159.0,179.0,29.0,116.0,1093.677
1093687.0,162.0,181.0,29.0,112.0,1093.687
1093697.0,167.0,186.0,40.0,123.0,1093.697
1093707.0,171.0,189.0,39.0,136.0,1093.707
1093718.0,177.0,194.0,35.0,145.0,1093.718
1093728.0,180.0,199.0,30.0,135.0,1093.728
1093738.0,185.0,201.0,27.0,125.0,1093.738
1093748.0,190.0,205.0,24.0,126.0,1093.748
1093758.0,192.0,207.0,24.0,122.0,1093.758
1093768.0,197.0,210.0,25.0,128.0,1093.768
1093778.0,200.0,214.0,28.0,127.0,1093.778
1093788.0,205.0,218.0,33.0,123.0,1093.788
1093798.0,208.0,223.0,30.0,123.0,1093.798
1093808.0,211.0,227.0,29.0,122.0,1093.808
1093818.0,215.0,232.0,28.0,118.0,1093.818
1093828.0,219.0,237.0,25.0,112.0,1093.828
1093838.0,222.0,242.0,25.0,114.0,1093.838
1093848.0,225.0,249.0,25.0,121.0,1093.848
1093858.0,231.0,255.0,28.0,111.0,1093.858
1093868.0,238.0,263.0,31.0,138.0,1093.868
1093878.0,241.0,268.0,31.0,133.0,1093.878
1093888.0,245.0,272.0,30.0,126.0,1093.888
1093898.0,251.0,279.0,29.0,126.0,1093.898
1093908.0,255.0,282.0,27.0,118.0,1093.908
1093918.0,260.0,286.0,23.0,117.0,1093.918
1093928.0,265.0,290.0,25.0,128.0,1093.928
1093938.0,266.0,292.0,23.0,125.0,1093.938
1093948.0,270.0,298.0,23.0,129.0,1093.948
1093958.0,275.0,302.0,26.0,123.0,1093.958
1093968.0,282.0,308.0,24.0,118.0,1093.968
1093978.0,286.0,310.0,27.0,118.0,1093.978
1093988.0,291.0,314.0,25.0,114.0,1093.988
1093998.0,297.0,319.0,24.0,114.0,1093.998
1094008.0,301.0,322.0,22.0,106.0,1094.008
1094018.0,305.0,325.0,22.0,104.0,1094.018
1094028.0,310.0,330.0,21.0,109.0,1094.028
1094038.0,313.0,334.0,19.0,110.0,1094.038
1094048.0,317.0,338.0,20.0,103.0,1094.048
1094059.0,321.0,343.0,23.0,109.0,1094.059
1094069.0,327.0,348.0,23.0,99.0,1094.069
1094079.0,330.0,352.0,28.0,103.0,1094.079
1094089.0,333.0,355.0,25.0,100.0,1094.089
1094099.0,336.0,358.0,23.0,93.0,1094.099
1094109.0,338.0,360.0,21.0,97.0,1094.109
1094119.0,341.0,361.0,25.0,101.0,1094.119
1094129.0,345.0,367.0,25.0,96.0,1094.129
1094139.0,347.0,369.0,24.0,95.0,1094.139
1094149.0,350.0,372.0,26.0,92.0,1094.149
1094159.0,350.0,373.0,25.0,99.0,1094.159
1094169.0,353.0,376.0,22.0,111.0,1094.169
1094179.0,352.0,378.0,25.0,112.0,1094.179
1094189.0,352.0,380.0,27.0,112.0,1094.189
1094199.0,353.0,384.0,25.0,111.0,1094.199
1094209.0,354.0,387.0,23.0,107.0,1094.209
1094219.0,355.0,391.0,22.0,116.0,1094.219
1094230.0,354.0,392.0,20.0,112.0,1094.23
1094240.0,354.0,393.0,19.0,109.0,1094.24
1094250.0,354.0,394.0,19.0,104.0,1094.25
1094260.0,353.0,394.0,20.0,98.0,1094.26
1094270.0,354.0,396.0,17.0,99.0,1094.27
1094280.0,354.0,395.0,16.0,103.0,1094.28
1094290.0,355.0,395.0,15.0,120.0,1094.29
1094300.0,356.0,395.0,15.0,119.0,1094.3
1094310.0,356.0,393.0,13.0,111.0,1094.31
1094320.0,357.0,395.0,15.0,106.0,1094.32
1094330.0,358.0,396.0,17.0,100.0,1094.33
1094340.0,359.0,396.0,20.0,103.0,1094.34
1094350.0,360.0,396.0,20.0,99.0,1094.35
1094360.0,361.0,398.0,18.0,104.0,1094.36
1094370.0,362.0,397.0,16.0,108.0,1094.37
1094380.0,364.0,394.0,17.0,109.0,1094.38
1094390.0,365.0,393.0,17.0,105.0,1094.39
1094400.0,366.0,391.0,17.0,103.0,1094.4
1094410.0,366.0,388.0,15.0,110.0,1094.41
1094420.0,366.0,386.0,18.0,115.0,1094.42
1094430.0,369.0,388.0,22.0,119.0,1094.43
1094440.0,366.0,387.0,18.0,128.0,1094.44
1094450.0,366.0,386.0,19.0,130.0,1094.45
1094460.0,365.0,387.0,18.0,127.0,1094.46
1094470.0,363.0,385.0,19.0,144.0,1094.47
1094480.0,363.0,387.0,16.0,134.0,1094.48
1094490.0,360.0,384.0,17.0,138.0,1094.49
1094500.0,361.0,386.0,15.0,129.0,1094.5
1094510.0,357.0,384.0,16.0,121.0,1094.51
1094520.0,355.0,383.0,16.0,129.0,1094.52
1094530.0,352.0,383.0,16.0,127.0,1094.53
1094540.0,352.0,382.0,19.0,122.0,1094.54
1094550.0,352.0,382.0,17.0,115.0,1094.55
1094560.0,349.0,381.0,19.0,122.0,1094.56
1094571.0,350.0,382.0,18.0,118.0,1094.571
1094581.0,349.0,382.0,18.0,115.0,1094.581
1094591.0,346.0,380.0,21.0,117.0,1094.591
1094601.0,347.0,383.0,22.0,122.0,1094.601
1094611.0,346.0,384.0,20.0,116.0,1094.611
1094621.0,344.0,386.0,19.0,120.0,1094.621
1094631.0,343.0,385.0,17.0,118.0,1094.631
1094641.0,343.0,385.0,16.0,114.0,1094.641
1094651.0,341.0,385.0,14.0,114.0,1094.651
1094661.0,340.0,385.0,13.0,105.0,1094.661
1094671.0,338.0,386.0,15.0,109.0,1094.671
1094681.0,336.0,384.0,17.0,106.0,1094.681
1094691.0,336.0,384.0,21.0,121.0,1094.691
1094701.0,335.0,386.0,23.0,116.0,1094.701
1094711.0,335.0,387.0,25.0,115.0,1094.711
1094721.0,332.0,385.0,22.0,110.0,1094.721
1094731.0,330.0,384.0,19.0,109.0,1094.731
1094742.0,331.0,385.0,17.0,103.0,1094.742
1094752.0,331.0,384.0,17.0,100.0,1094.752
1094762.0,330.0,380.0,16.0,102.0,1094.762
1094772.0,330.0,378.0,14.0,99.0,1094.772
1094782.0,329.0,378.0,15.0,104.0,1094.782
1094792.0,326.0,376.0,14.0,109.0,1094.792
1094802.0,325.0,374.0,14.0,110.0,1094.802
1094812.0,325.0,375.0,13.0,106.0,1094.812
1094822.0,322.0,373.0,16.0,109.0,1094.822
1094832.0,321.0,373.0,17.0,105.0,1094.832
1094842.0,318.0,375.0,19.0,106.0,1094.842
1094852.0,318.0,377.0,17.0,106.0,1094.852
1094862.0,315.0,376.0,17.0,112.0,1094.862
1094872.0,314.0,375.0,17.0,111.0,1094.872
1094882.0,311.0,375.0,14.0,112.0,1094.882
1094892.0,307.0,372.0,14.0,108.0,1094.892
1094902.0,305.0,369.0,13.0,100.0,1094.902
1094912.0,302.0,366.0,16.0,112.0,1094.912
1094922.0,298.0,363.0,25.0,111.0,1094.922
1094932.0,296.0,361.0,22.0,112.0,1094.932
1094942.0,291.0,355.0,25.0,111.0,1094.942
1094952.0,289.0,352.0,23.0,104.0,1094.952
1094962.0,287.0,347.0,21.0,94.0,1094.962
1094972.0,285.0,341.0,20.0,97.0,1094.972
1094982.0,283.0,334.0,26.0,94.0,1094.982
1094992.0,285.0,328.0,24.0,92.0,1094.992
1095002.0,282.0,324.0,22.0,92.0,1095.002
1095012.0,282.0,319.0,22.0,99.0,1095.012
1095022.0,281.0,318.0,21.0,127.0,1095.022
1095032.0,279.0,313.0,19.0,128.0,1095.032
1095042.0,278.0,310.0,24.0,130.0,1095.042
1095052.0,277.0,308.0,21.0,129.0,1095.052
1095062.0,276.0,307.0,21.0,121.0,1095.062
1095072.0,276.0,306.0,22.0,117.0,1095.072
1095083.0,275.0,305.0,22.0,113.0,1095.083
1095093.0,274.0,304.0,24.0,119.0,1095.093
1095103.0,271.0,299.0,21.0,114.0,1095.103
1095113.0,269.0,296.0,27.0,112.0,1095.113
1095123.0,267.0,294.0,29.0,122.0,1095.123
1095133.0,267.0,293.0,34.0,128.0,1095.133
1095143.0,264.0,293.0,32.0,134.0,1095.143
1095153.0,262.0,291.0,29.0,127.0,1095.153
1095163.0,259.0,292.0,27.0,128.0,1095.163
1095173.0,257.0,290.0,25.0,127.0,1095.173
1095183.0,255.0,287.0,25.0,131.0,1095.183
1095193.0,253.0,286.0,26.0,126.0,1095.193
1095203.0,251.0,285.0,32.0,122.0,1095.203
1095213.0,249.0,284.0,36.0,117.0,1095.213
1095223.0,247.0,283.0,33.0,113.0,1095.223
1095233.0,247.0,283.0,31.0,112.0,1095.233
1095243.0,243.0,280.0,35.0,110.0,1095.243
1095254.0,242.0,279.0,34.0,107.0,1095.254
1095264.0,243.0,280.0,39.0,121.0,1095.264
1095274.0,242.0,280.0,40.0,119.0,1095.274
1095284.0,240.0,281.0,38.0,115.0,1095.284
1095294.0,238.0,280.0,41.0,113.0,1095.294
1095304.0,235.0,281.0,42.0,114.0,1095.304
1095314.0,233.0,283.0,42.0,114.0,1095.314
1095324.0,231.0,283.0,39.0,107.0,1095.324
1095334.0,227.0,284.0,40.0,100.0,1095.334
1095344.0,225.0,285.0,41.0,97.0,1095.344
1095354.0,221.0,286.0,39.0,105.0,1095.354
1095364.0,218.0,287.0,42.0,114.0,1095.364
1095374.0,217.0,287.0,41.0,122.0,1095.374
1095384.0,214.0,286.0,48.0,119.0,1095.384
1095394.0,213.0,286.0,46.0,114.0,1095.394
1095404.0,210.0,286.0,45.0,109.0,1095.404
1095414.0,209.0,286.0,46.0,110.0,1095.414
1095424.0,206.0,285.0,43.0,114.0,1095.424
1095434.0,202.0,284.0,43.0,113.0,1095.434
1095444.0,199.0,282.0,45.0,111.0,1095.444
1095454.0,193.0,280.0,43.0,119.0,1095.454
1095464.0,189.0,277.0,44.0,115.0,1095.464
1095474.0,186.0,277.0,45.0,121.0,1095.474
1095484.0,180.0,274.0,48.0,123.0,1095.484
1095494.0,175.0,271.0,46.0,115.0,1095.494
1095504.0,171.0,269.0,43.0,114.0,1095.504
1095514.0,167.0,268.0,46.0,111.0,1095.514
1095524.0,163.0,266.0,43.0,116.0,1095.524
1095534.0,161.0,265.0,45.0,128.0,1095.534
1095544.0,156.0,264.0,49.0,126.0,1095.544
1095554.0,153.0,262.0,48.0,123.0,1095.554
1095564.0,147.0,257.0,50.0,124.0,1095.564
1095574.0,142.0,255.0,51.0,120.0,1095.574
1095584.0,138.0,252.0,47.0,117.0,1095.584
1095595.0,133.0,249.0,43.0,126.0,1095.595
1095605.0,129.0,245.0,44.0,142.0,1095.605
1095615.0,126.0,240.0,45.0,139.0,1095.615
1095625.0,121.0,235.0,43.0,137.0,1095.625
1095635.0,116.0,230.0,40.0,124.0,1095.635
1095645.0,110.0,224.0,44.0,114.0,1095.645
1095655.0,108.0,220.0,42.0,111.0,1095.655
1095665.0,104.0,217.0,37.0,111.0,1095.665
1095675.0,98.0,210.0,42.0,108.0,1095.675
1095685.0,95.0,208.0,40.0,111.0,1095.685
1095695.0,92.0,205.0,38.0,109.0,1095.695
1095705.0,86.0,200.0,48.0,112.0,1095.705
1095715.0,84.0,196.0,50.0,111.0,1095.715
1095725.0,81.0,193.0,48.0,121.0,1095.725
1095735.0,79.0,191.0,45.0,118.0,1095.735
1095745.0,76.0,188.0,42.0,110.0,1095.745
1095755.0,73.0,185.0,40.0,112.0,1095.755
1095766.0,70.0,183.0,39.0,119.0,1095.766
1095776.0,66.0,180.0,44.0,116.0,1095.776
1095786.0,62.0,176.0,42.0,114.0,1095.786
1095796.0,60.0,174.0,43.0,117.0,1095.796
1095806.0,57.0,173.0,39.0,124.0,1095.806
1095816.0,56.0,170.0,38.0,129.0,1095.816
1095826.0,54.0,167.0,36.0,130.0,1095.826
1095836.0,53.0,165.0,39.0,145.0,1095.836
1095846.0,51.0,163.0,37.0,137.0,1095.846
1095856.0,49.0,161.0,37.0,126.0,1095.856
1095866.0,50.0,157.0,35.0,125.0,1095.866
1095876.0,49.0,159.0,35.0,122.0,1095.876
1095886.0,49.0,155.0,33.0,113.0,1095.886
1095896.0,49.0,153.0,31.0,112.0,1095.896
1095906.0,51.0,146.0,41.0,117.0,1095.906
1095916.0,51.0,144.0,36.0,116.0,1095.916
1095926.0,52.0,140.0,35.0,117.0,1095.926
1095936.0,54.0,135.0,35.0,117.0,1095.936
1095946.0,53.0,133.0,33.0,121.0,1095.946
1095956.0,55.0,129.0,34.0,116.0,1095.956
1095966.0,55.0,128.0,34.0,127.0,1095.966
1095976.0,56.0,125.0,37.0,121.0,1095.976
1095986.0,57.0,122.0,39.0,116.0,1095.986
1095996.0,58.0,120.0,39.0,132.0,1095.996
1096006.0,61.0,118.0,36.0,129.0,1096.006
1096016.0,61.0,115.0,31.0,130.0,1096.016
1096026.0,64.0,110.0,31.0,122.0,1096.026
1096036.0,65.0,108.0,36.0,122.0,1096.036
1096046.0,65.0,108.0,35.0,137.0,1096.046
1096056.0,66.0,105.0,32.0,137.0,1096.056
1096066.0,66.0,102.0,30.0,144.0,1096.066
1096076.0,68.0,97.0,31.0,130.0,1096.076
1096086.0,69.0,96.0,31.0,125.0,1096.086
1096096.0,70.0,92.0,34.0,128.0,1096.096
1096107.0,72.0,89.0,32.0,127.0,1096.107
1096117.0,73.0,86.0,33.0,126.0,1096.117
1096127.0,75.0,82.0,28.0,121.0,1096.127
1096137.0,76.0,78.0,27.0,117.0,1096.137
1096147.0,79.0,75.0,28.0,122.0,1096.147
1096157.0,80.0,74.0,27.0,117.0,1096.157
1096167.0,82.0,68.0,31.0,116.0,1096.167
1096177.0,82.0,67.0,28.0,112.0,1096.177
1096187.0,84.0,65.0,26.0,115.0,1096.187
1096197.0,83.0,63.0,25.0,113.0,1096.197
1096207.0,84.0,59.0,25.0,111.0,1096.207
1096217.0,84.0,58.0,22.0,111.0,1096.217
1096227.0,83.0,57.0,22.0,107.0,1096.227
1096237.0,85.0,54.0,22.0,110.0,1096.237
1096247.0,86.0,53.0,21.0,108.0,1096.247
1096257.0,86.0,51.0,20.0,113.0,1096.257
1096267.0,89.0,49.0,20.0,111.0,1096.267
1096278.0,90.0,48.0,23.0,109.0,1096.278
1096288.0,92.0,45.0,20.0,104.0,1096.288
1096298.0,91.0,45.0,18.0,109.0,1096.298
1096308.0,92.0,44.0,22.0,110.0,1096.308
1096318.0,94.0,43.0,21.0,103.0,1096.318
1096328.0,93.0,43.0,21.0,102.0,1096.328
1096338.0,93.0,43.0,19.0,99.0,1096.338
1096348.0,92.0,44.0,16.0,100.0,1096.348
1096358.0,94.0,46.0,17.0,94.0,1096.358
1096368.0,95.0,47.0,16.0,111.0,1096.368
1096378.0,95.0,46.0,15.0,101.0,1096.378
1096388.0,96.0,47.0,15.0,98.0,1096.388
1096398.0,98.0,47.0,17.0,99.0,1096.398
1096408.0,100.0,47.0,16.0,102.0,1096.408
1096418.0,98.0,49.0,16.0,99.0,1096.418
1096428.0,101.0,50.0,16.0,97.0,1096.428
1096438.0,102.0,53.0,17.0,104.0,1096.438
1096448.0,103.0,52.0,19.0,104.0,1096.448
1096458.0,104.0,53.0,17.0,104.0,1096.458
1096468.0,105.0,54.0,17.0,104.0,1096.468
1096478.0,107.0,54.0,23.0,116.0,1096.478
1096488.0,110.0,55.0,28.0,115.0,1096.488
1096498.0,111.0,55.0,25.0,112.0,1096.498
1096508.0,110.0,56.0,23.0,110.0,1096.508
1096518.0,111.0,56.0,22.0,128.0,1096.518
1096528.0,111.0,57.0,20.0,126.0,1096.528
1096538.0,111.0,59.0,19.0,125.0,1096.538
1096548.0,113.0,59.0,16.0,121.0,1096.548
1096558.0,110.0,63.0,16.0,114.0,1096.558
1096568.0,110.0,64.0,14.0,108.0,1096.568
1096578.0,107.0,66.0,16.0,106.0,1096.578
1096588.0,107.0,68.0,20.0,113.0,1096.588
1096598.0,106.0,69.0,19.0,107.0,1096.598
1096608.0,105.0,70.0,17.0,104.0,1096.608
1096619.0,106.0,71.0,15.0,99.0,1096.619
1096629.0,105.0,73.0,17.0,114.0,1096.629
1096639.0,106.0,75.0,17.0,111.0,1096.639
1096649.0,106.0,77.0,17.0,111.0,1096.649
1096659.0,107.0,76.0,15.0,110.0,1096.659
1096669.0,106.0,77.0,13.0,132.0,1096.669
1096679.0,105.0,77.0,13.0,127.0,1096.679
1096689.0,106.0,78.0,14.0,125.0,1096.689
1096699.0,106.0,79.0,12.0,118.0,1096.699
1096709.0,109.0,81.0,21.0,117.0,1096.709
1096719.0,110.0,83.0,25.0,112.0,1096.719
1096729.0,109.0,82.0,23.0,112.0,1096.729
1096739.0,109.0,82.0,20.0,107.0,1096.739
1096749.0,109.0,83.0,21.0,112.0,1096.749
1096759.0,110.0,84.0,22.0,107.0,1096.759
1096769.0,110.0,86.0,20.0,109.0,1096.769
1096779.0,108.0,85.0,21.0,113.0,1096.779
1096790.0,108.0,85.0,18.0,113.0,1096.79
1096800.0,108.0,86.0,21.0,119.0,1096.8
1096810.0,110.0,85.0,19.0,114.0,1096.81
1096820.0,109.0,85.0,18.0,110.0,1096.82
1096830.0,108.0,84.0,16.0,115.0,1096.83
1096840.0,108.0,86.0,16.0,116.0,1096.84
1096850.0,107.0,88.0,20.0,108.0,1096.85
1096860.0,105.0,89.0,17.0,117.0,1096.86
1096870.0,106.0,90.0,16.0,114.0,1096.87
1096880.0,104.0,90.0,17.0,131.0,1096.88
1096890.0,101.0,91.0,20.0,130.0,1096.89
1096900.0,102.0,91.0,17.0,129.0,1096.9
1096910.0,101.0,93.0,20.0,127.0,1096.91
1096920.0,100.0,92.0,19.0,121.0,1096.92
1096930.0,99.0,93.0,17.0,124.0,1096.93
1096940.0,99.0,94.0,17.0,112.0,1096.94
1096950.0,98.0,92.0,16.0,111.0,1096.95
1096960.0,98.0,93.0,13.0,104.0,1096.96
1096970.0,100.0,93.0,13.0,112.0,1096.97
1096980.0,98.0,92.0,12.0,120.0,1096.98
1096990.0,98.0,94.0,11.0,112.0,1096.99
1097000.0,97.0,95.0,22.0,108.0,1097.0
1097010.0,95.0,94.0,23.0,110.0,1097.01
1097020.0,95.0,94.0,20.0,111.0,1097.02
1097030.0,93.0,94.0,19.0,128.0,1097.03
1097040.0,95.0,95.0,18.0,123.0,1097.04
1097050.0,93.0,97.0,18.0,121.0,1097.05
1097060.0,94.0,97.0,20.0,115.0,1097.06
1097070.0,91.0,97.0,18.0,127.0,1097.07
1097080.0,92.0,96.0,16.0,130.0,1097.08
1097090.0,93.0,97.0,16.0,128.0,1097.09
1097100.0,93.0,98.0,15.0,129.0,1097.1
1097110.0,93.0,97.0,20.0,129.0,1097.11
1097120.0,91.0,98.0,18.0,140.0,1097.12
1097131.0,90.0,98.0,17.0,128.0,1097.131
1097141.0,89.0,100.0,16.0,127.0,1097.141
1097151.0,87.0,100.0,16.0,124.0,1097.151
1097161.0,87.0,102.0,15.0,118.0,1097.161
1097171.0,85.0,101.0,13.0,116.0,1097.171
1097181.0,86.0,102.0,14.0,113.0,1097.181
1097191.0,86.0,103.0,19.0,115.0,1097.191
1097201.0,85.0,102.0,22.0,124.0,1097.201
1097211.0,84.0,103.0,22.0,132.0,1097.211
1097221.0,84.0,101.0,21.0,128.0,1097.221
1097231.0,84.0,100.0,21.0,123.0,1097.231
1097241.0,83.0,99.0,19.0,118.0,1097.241
1097251.0,84.0,98.0,17.0,111.0,1097.251
1097261.0,83.0,99.0,15.0,114.0,1097.261
1097271.0,83.0,98.0,16.0,119.0,1097.271
1097281.0,83.0,100.0,18.0,118.0,1097.281
1097291.0,85.0,101.0,17.0,112.0,1097.291
1097302.0,84.0,100.0,21.0,116.0,1097.302
1097312.0,84.0,99.0,19.0,112.0,1097.312
1097322.0,89.0,110.0,18.0,110.0,1097.322
1097332.0,86.0,112.0,16.0,99.0,1097.332
1097342.0,87.0,111.0,15.0,90.0,1097.342
1097352.0,89.0,121.0,13.0,89.0,1097.352
1097362.0,99.0,174.0,21.0,94.0,1097.362
1097372.0,116.0,245.0,47.0,111.0,1097.372
1097382.0,121.0,259.0,50.0,111.0,1097.382
1097392.0,138.0,356.0,74.0,133.0,1097.392
1097402.0,176.0,516.0,130.0,175.0,1097.402
1097412.0,169.0,561.0,136.0,175.0,1097.412
1097422.0,174.0,606.0,153.0,190.0,1097.422
1097432.0,185.0,669.0,165.0,187.0,1097.432
1097442.0,191.0,669.0,156.0,178.0,1097.442
1097452.0,185.0,668.0,148.0,165.0,1097.452
1097462.0,172.0,625.0,137.0,157.0,1097.462
1097472.0,166.0,580.0,122.0,144.0,1097.472
1097482.0,175.0,602.0,129.0,141.0,1097.482
1097492.0,157.0,577.0,118.0,140.0,1097.492
1097502.0,154.0,580.0,110.0,138.0,1097.502
1097512.0,150.0,590.0,98.0,130.0,1097.512
1097522.0,147.0,581.0,89.0,129.0,1097.522
1097532.0,139.0,595.0,88.0,139.0,1097.532
1097542.0,128.0,572.0,87.0,130.0,1097.542
1097552.0,128.0,568.0,82.0,128.0,1097.552
1097562.0,136.0,563.0,75.0,124.0,1097.562
1097572.0,129.0,569.0,67.0,122.0,1097.572
1097582.0,120.0,540.0,60.0,119.0,1097.582
1097592.0,115.0,540.0,52.0,113.0,1097.592
1097602.0,110.0,520.0,49.0,111.0,1097.602
1097612.0,104.0,528.0,58.0,107.0,1097.612
1097622.0,106.0,529.0,52.0,102.0,1097.622
1097632.0,99.0,497.0,47.0,109.0,1097.632
1097643.0,99.0,489.0,43.0,104.0,1097.643
1097653.0,94.0,475.0,40.0,110.0,1097.653
1097663.0,92.0,465.0,35.0,105.0,1097.663
1097673.0,88.0,453.0,34.0,101.0,1097.673
1097683.0,84.0,444.0,32.0,102.0,1097.683
1097693.0,85.0,443.0,29.0,115.0,1097.693
1097703.0,91.0,442.0,27.0,121.0,1097.703
1097713.0,91.0,429.0,24.0,111.0,1097.713
1097723.0,91.0,412.0,21.0,107.0,1097.723
1097733.0,89.0,399.0,21.0,125.0,1097.733
1097743.0,87.0,397.0,20.0,118.0,1097.743
1097753.0,83.0,394.0,22.0,119.0,1097.753
1097763.0,80.0,373.0,19.0,125.0,1097.763
1097773.0,82.0,367.0,18.0,132.0,1097.773
1097783.0,83.0,358.0,18.0,135.0,1097.783
1097793.0,82.0,353.0,17.0,132.0,1097.793
1097803.0,79.0,349.0,15.0,120.0,1097.803
1097814.0,90.0,358.0,16.0,142.0,1097.814
1097824.0,87.0,342.0,14.0,138.0,1097.824
1097834.0,84.0,337.0,14.0,123.0,1097.834
1097844.0,82.0,327.0,13.0,112.0,1097.844
1097854.0,81.0,320.0,13.0,122.0,1097.854
1097864.0,79.0,316.0,12.0,118.0,1097.864
1097874.0,75.0,315.0,11.0,114.0,1097.874
1097884.0,81.0,315.0,12.0,104.0,1097.884
1097894.0,78.0,312.0,10.0,96.0,1097.894
1097904.0,78.0,306.0,10.0,93.0,1097.904
1097914.0,79.0,296.0,11.0,92.0,1097.914
1097924.0,76.0,287.0,10.0,83.0,1097.924
1097934.0,75.0,280.0,10.0,76.0,1097.934
1097944.0,75.0,287.0,13.0,70.0,1097.944
1097954.0,83.0,285.0,15.0,66.0,1097.954
1097964.0,78.0,276.0,14.0,66.0,1097.964
1097974.0,77.0,269.0,12.0,63.0,1097.974
1097984.0,82.0,270.0,11.0,62.0,1097.984
1097994.0,84.0,271.0,10.0,59.0,1097.994
1098004.0,82.0,259.0,9.0,62.0,1098.004
1098014.0,83.0,255.0,8.0,63.0,1098.014
1098024.0,86.0,256.0,9.0,62.0,1098.024
1098034.0,86.0,253.0,7.0,62.0,1098.034
1098044.0,87.0,254.0,9.0,59.0,1098.044
1098054.0,93.0,255.0,19.0,61.0,1098.054
1098064.0,98.0,265.0,75.0,80.0,1098.064
1098074.0,100.0,268.0,86.0,83.0,1098.074
1098084.0,108.0,276.0,141.0,110.0,1098.084
1098094.0,120.0,291.0,158.0,130.0,1098.094
1098104.0,116.0,297.0,156.0,132.0,1098.104
1098114.0,112.0,297.0,215.0,156.0,1098.114
1098124.0,111.0,317.0,290.0,166.0,1098.124
1098134.0,107.0,310.0,307.0,192.0,1098.134
1098144.0,100.0,309.0,301.0,223.0,1098.144
1098155.0,92.0,320.0,288.0,214.0,1098.155
1098165.0,89.0,313.0,275.0,213.0,1098.165
1098175.0,90.0,328.0,268.0,199.0,1098.175
1098185.0,93.0,327.0,261.0,193.0,1098.185
1098195.0,89.0,326.0,247.0,184.0,1098.195
1098205.0,89.0,354.0,229.0,170.0,1098.205
1098215.0,86.0,360.0,201.0,163.0,1098.215
1098225.0,85.0,382.0,183.0,155.0,1098.225
1098235.0,90.0,406.0,175.0,145.0,1098.235
1098245.0,90.0,426.0,153.0,140.0,1098.245
1098255.0,92.0,447.0,143.0,146.0,1098.255
1098265.0,94.0,468.0,150.0,151.0,1098.265
1098275.0,101.0,501.0,135.0,145.0,1098.275
1098285.0,97.0,494.0,121.0,134.0,1098.285
1098295.0,98.0,503.0,114.0,134.0,1098.295
1098305.0,98.0,504.0,103.0,127.0,1098.305
1098315.0,99.0,504.0,96.0,132.0,1098.315
1098326.0,99.0,499.0,95.0,121.0,1098.326
1098336.0,99.0,499.0,81.0,112.0,1098.336
1098346.0,101.0,496.0,72.0,104.0,1098.346
1098356.0,101.0,483.0,70.0,103.0,1098.356
1098366.0,101.0,471.0,64.0,103.0,1098.366
1098376.0,99.0,458.0,74.0,108.0,1098.376
1098386.0,95.0,445.0,64.0,98.0,1098.386
1098396.0,91.0,426.0,58.0,99.0,1098.396
1098406.0,92.0,414.0,61.0,100.0,1098.406
1098416.0,87.0,391.0,54.0,97.0,1098.416
1098426.0,85.0,374.0,56.0,87.0,1098.426
1098436.0,79.0,348.0,53.0,83.0,1098.436
1098446.0,76.0,328.0,47.0,80.0,1098.446
1098456.0,74.0,318.0,48.0,82.0,1098.456
1098466.0,70.0,298.0,49.0,77.0,1098.466
1098476.0,67.0,281.0,50.0,75.0,1098.476
1098486.0,64.0,261.0,50.0,72.0,1098.486
1098496.0,61.0,248.0,46.0,68.0,1098.496
1098506.0,62.0,244.0,41.0,74.0,1098.506
1098516.0,65.0,227.0,37.0,69.0,1098.516
1098526.0,62.0,209.0,33.0,74.0,1098.526
1098536.0,62.0,202.0,42.0,68.0,1098.536
1098546.0,61.0,187.0,43.0,70.0,1098.546
1098556.0,60.0,177.0,45.0,71.0,1098.556
1098566.0,59.0,167.0,40.0,80.0,1098.566
1098576.0,58.0,154.0,39.0,74.0,1098.576
1098586.0,59.0,147.0,36.0,107.0,1098.586
1098596.0,62.0,135.0,50.0,130.0,1098.596
1098606.0,66.0,126.0,58.0,172.0,1098.606
1098616.0,78.0,121.0,76.0,230.0,1098.616
1098626.0,91.0,116.0,70.0,277.0,1098.626
1098636.0,93.0,118.0,79.0,271.0,1098.636
1098646.0,96.0,116.0,77.0,260.0,1098.646
1098656.0,93.0,114.0,77.0,301.0,1098.656
1098667.0,99.0,128.0,77.0,296.0,1098.667
1098677.0,102.0,143.0,78.0,335.0,1098.677
1098687.0,102.0,163.0,75.0,330.0,1098.687
1098697.0,103.0,193.0,75.0,358.0,1098.697
1098707.0,105.0,223.0,71.0,334.0,1098.707
1098717.0,104.0,244.0,78.0,365.0,1098.717
1098727.0,109.0,268.0,88.0,387.0,1098.727
1098737.0,108.0,279.0,82.0,375.0,1098.737
1098747.0,110.0,291.0,77.0,412.0,1098.747
1098757.0,111.0,299.0,72.0,397.0,1098.757
1098767.0,111.0,309.0,77.0,398.0,1098.767
1098777.0,108.0,311.0,78.0,366.0,1098.777
1098787.0,110.0,320.0,72.0,342.0,1098.787
1098797.0,110.0,327.0,69.0,316.0,1098.797
1098807.0,107.0,332.0,66.0,315.0,1098.807
1098817.0,103.0,336.0,60.0,351.0,1098.817
1098827.0,104.0,341.0,57.0,326.0,1098.827
1098838.0,103.0,341.0,67.0,340.0,1098.838
1098848.0,103.0,345.0,76.0,338.0,1098.848
1098858.0,100.0,346.0,82.0,349.0,1098.858
1098868.0,99.0,349.0,79.0,353.0,1098.868
1098878.0,96.0,348.0,71.0,333.0,1098.878
1098888.0,93.0,348.0,74.0,333.0,1098.888
1098898.0,92.0,346.0,77.0,319.0,1098.898
1098908.0,90.0,345.0,68.0,306.0,1098.908
1098918.0,87.0,343.0,61.0,288.0,1098.918
1098928.0,85.0,341.0,60.0,270.0,1098.928
1098938.0,83.0,339.0,55.0,270.0,1098.938
1098948.0,80.0,337.0,60.0,263.0,1098.948
1098958.0,76.0,335.0,67.0,252.0,1098.958
1098968.0,75.0,333.0,62.0,259.0,1098.968
1098978.0,72.0,329.0,64.0,245.0,1098.978
1098988.0,72.0,326.0,56.0,251.0,1098.988
1098998.0,69.0,322.0,52.0,237.0,1098.998
1099008.0,68.0,319.0,51.0,226.0,1099.008
1099018.0,69.0,317.0,58.0,203.0,1099.018
1099028.0,67.0,311.0,57.0,198.0,1099.028
1099038.0,66.0,306.0,50.0,190.0,1099.038
1099048.0,64.0,302.0,44.0,184.0,1099.048
1099058.0,63.0,297.0,49.0,192.0,1099.058
1099068.0,64.0,293.0,46.0,191.0,1099.068
1099078.0,61.0,288.0,49.0,176.0,1099.078
1099088.0,61.0,283.0,56.0,175.0,1099.088
1099098.0,60.0,284.0,56.0,169.0,1099.098
1099108.0,59.0,279.0,59.0,160.0,1099.108
1099118.0,56.0,274.0,54.0,154.0,1099.118
1099128.0,56.0,272.0,48.0,160.0,1099.128
1099138.0,55.0,267.0,43.0,163.0,1099.138
1099148.0,54.0,261.0,49.0,157.0,1099.148
1099158.0,54.0,257.0,49.0,165.0,1099.158
1099168.0,52.0,253.0,43.0,167.0,1099.168
1099179.0,53.0,248.0,56.0,173.0,1099.179
1099189.0,52.0,244.0,50.0,163.0,1099.189
1099199.0,53.0,240.0,46.0,168.0,1099.199
1099209.0,53.0,238.0,39.0,175.0,1099.209
1099219.0,52.0,234.0,37.0,158.0,1099.219
1099229.0,51.0,230.0,40.0,161.0,1099.229
1099239.0,50.0,226.0,39.0,159.0,1099.239
1099249.0,51.0,222.0,39.0,158.0,1099.249
1099259.0,49.0,218.0,41.0,165.0,1099.259
1099269.0,48.0,217.0,44.0,154.0,1099.269
1099279.0,48.0,215.0,39.0,147.0,1099.279
1099289.0,48.0,211.0,37.0,139.0,1099.289
1099299.0,48.0,208.0,34.0,131.0,1099.299
1099309.0,48.0,204.0,36.0,126.0,1099.309
1099319.0,47.0,200.0,33.0,136.0,1099.319
1099329.0,48.0,197.0,29.0,133.0,1099.329
1099339.0,48.0,195.0,33.0,130.0,1099.339
1099350.0,47.0,193.0,30.0,121.0,1099.35
1099360.0,46.0,190.0,26.0,117.0,1099.36
1099370.0,47.0,185.0,23.0,123.0,1099.37
1099380.0,46.0,184.0,22.0,128.0,1099.38
1099390.0,46.0,179.0,20.0,132.0,1099.39
1099400.0,46.0,177.0,19.0,126.0,1099.4
1099410.0,46.0,174.0,20.0,122.0,1099.41
1099420.0,47.0,170.0,23.0,126.0,1099.42
1099430.0,48.0,168.0,30.0,116.0,1099.43
1099440.0,47.0,162.0,29.0,119.0,1099.44
1099450.0,46.0,159.0,28.0,118.0,1099.45
1099460.0,46.0,157.0,25.0,113.0,1099.46
1099470.0,47.0,155.0,24.0,115.0,1099.47
1099480.0,48.0,150.0,34.0,111.0,1099.48
1099490.0,47.0,150.0,37.0,110.0,1099.49
1099500.0,48.0,148.0,33.0,114.0,1099.5
1099510.0,47.0,144.0,30.0,110.0,1099.51
1099520.0,47.0,142.0,27.0,111.0,1099.52
1099530.0,47.0,136.0,30.0,113.0,1099.53
1099540.0,46.0,135.0,31.0,107.0,1099.54
1099550.0,46.0,133.0,28.0,105.0,1099.55
1099560.0,46.0,130.0,32.0,100.0,1099.56
1099570.0,45.0,127.0,28.0,111.0,1099.57
1099580.0,47.0,126.0,27.0,121.0,1099.58
1099590.0,46.0,123.0,24.0,120.0,1099.59
1099600.0,47.0,119.0,42.0,123.0,1099.6
1099610.0,46.0,117.0,38.0,118.0,1099.61
1099620.0,46.0,115.0,33.0,129.0,1099.62
1099630.0,45.0,112.0,34.0,139.0,1099.63
1099640.0,45.0,109.0,35.0,139.0,1099.64
1099650.0,45.0,107.0,35.0,131.0,1099.65
1099660.0,44.0,106.0,36.0,123.0,1099.66
1099670.0,43.0,104.0,45.0,115.0,1099.67
1099680.0,44.0,103.0,40.0,114.0,1099.68
1099691.0,43.0,101.0,35.0,109.0,1099.691
1099701.0,43.0,98.0,32.0,106.0,1099.701
1099711.0,43.0,96.0,28.0,100.0,1099.711
1099721.0,45.0,93.0,27.0,110.0,1099.721
1099731.0,44.0,90.0,26.0,113.0,1099.731
1099741.0,44.0,89.0,26.0,121.0,1099.741
1099751.0,43.0,87.0,40.0,131.0,1099.751
1099761.0,45.0,86.0,37.0,124.0,1099.761
1099771.0,46.0,84.0,34.0,120.0,1099.771
1099781.0,47.0,84.0,32.0,113.0,1099.781
1099791.0,49.0,80.0,32.0,113.0,1099.791
1099801.0,48.0,80.0,28.0,111.0,1099.801
1099811.0,49.0,79.0,26.0,109.0,1099.811
1099821.0,50.0,77.0,25.0,106.0,1099.821
1099831.0,51.0,78.0,24.0,102.0,1099.831
1099841.0,52.0,76.0,21.0,99.0,1099.841
1099851.0,50.0,74.0,23.0,118.0,1099.851
1099862.0,49.0,74.0,29.0,114.0,1099.862
1099872.0,48.0,72.0,25.0,110.0,1099.872
1099882.0,48.0,72.0,24.0,114.0,1099.882
1099892.0,47.0,71.0,20.0,121.0,1099.892
1099902.0,47.0,69.0,19.0,120.0,1099.902
1099912.0,47.0,68.0,25.0,124.0,1099.912
1099922.0,46.0,70.0,23.0,141.0,1099.922
1099932.0,46.0,68.0,26.0,135.0,1099.932
1099942.0,46.0,68.0,22.0,134.0,1099.942
1099952.0,46.0,69.0,21.0,136.0,1099.952
1099962.0,46.0,69.0,23.0,149.0,1099.962
1099972.0,45.0,69.0,20.0,140.0,1099.972
1099982.0,44.0,70.0,18.0,128.0,1099.982
1099992.0,43.0,71.0,15.0,123.0,1099.992
1100002.0,45.0,70.0,16.0,120.0,1100.002
1100012.0,44.0,69.0,19.0,126.0,1100.012
1100022.0,44.0,69.0,19.0,124.0,1100.022
1100032.0,44.0,68.0,25.0,114.0,1100.032
1100042.0,44.0,68.0,35.0,104.0,1100.042
1100052.0,44.0,68.0,31.0,98.0,1100.052
1100062.0,43.0,68.0,27.0,111.0,1100.062
1100072.0,45.0,66.0,26.0,106.0,1100.072
1100082.0,44.0,67.0,22.0,110.0,1100.082
1100092.0,43.0,67.0,19.0,104.0,1100.092
1100102.0,43.0,65.0,23.0,109.0,1100.102
1100112.0,43.0,64.0,29.0,109.0,1100.112
1100122.0,44.0,64.0,34.0,110.0,1100.122
1100132.0,44.0,62.0,31.0,115.0,1100.132
1100142.0,45.0,63.0,30.0,106.0,1100.142
1100152.0,46.0,61.0,28.0,96.0,1100.152
1100162.0,44.0,60.0,25.0,97.0,1100.162
1100172.0,43.0,57.0,26.0,89.0,1100.172
1100182.0,46.0,59.0,30.0,94.0,1100.182
1100192.0,46.0,57.0,28.0,106.0,1100.192
1100203.0,47.0,60.0,26.0,104.0,1100.203
1100213.0,47.0,58.0,33.0,122.0,1100.213
1100223.0,48.0,59.0,29.0,122.0,1100.223
1100233.0,51.0,58.0,28.0,120.0,1100.233
1100243.0,51.0,56.0,30.0,114.0,1100.243
1100253.0,51.0,55.0,27.0,109.0,1100.253
1100263.0,52.0,55.0,28.0,119.0,1100.263
1100273.0,53.0,55.0,26.0,122.0,1100.273
1100283.0,56.0,55.0,28.0,121.0,1100.283
1100293.0,56.0,56.0,42.0,115.0,1100.293
1100303.0,58.0,56.0,37.0,110.0,1100.303
1100313.0,56.0,55.0,33.0,109.0,1100.313
1100323.0,55.0,55.0,31.0,105.0,1100.323
1100333.0,55.0,53.0,30.0,106.0,1100.333
1100343.0,56.0,53.0,29.0,120.0,1100.343
1100353.0,57.0,51.0,30.0,134.0,1100.353
1100363.0,56.0,51.0,28.0,130.0,1100.363
1100374.0,55.0,52.0,41.0,128.0,1100.374
1100384.0,56.0,51.0,36.0,125.0,1100.384
1100394.0,57.0,54.0,31.0,127.0,1100.394
1100404.0,56.0,52.0,36.0,132.0,1100.404
1100414.0,57.0,53.0,33.0,125.0,1100.414
1100424.0,58.0,54.0,31.0,121.0,1100.424
1100434.0,60.0,55.0,26.0,120.0,1100.434
1100444.0,60.0,55.0,24.0,126.0,1100.444
1100454.0,61.0,55.0,23.0,123.0,1100.454
1100464.0,63.0,56.0,21.0,121.0,1100.464
1100474.0,64.0,54.0,27.0,119.0,1100.474
1100484.0,64.0,57.0,28.0,109.0,1100.484
1100494.0,64.0,55.0,26.0,103.0,1100.494
1100504.0,63.0,54.0,22.0,98.0,1100.504
1100514.0,63.0,53.0,21.0,98.0,1100.514
1100524.0,63.0,52.0,23.0,104.0,1100.524
1100534.0,64.0,51.0,21.0,112.0,1100.534
1100544.0,64.0,49.0,19.0,106.0,1100.544
1100554.0,64.0,48.0,20.0,112.0,1100.554
1100564.0,64.0,48.0,23.0,119.0,1100.564
1100574.0,66.0,48.0,32.0,116.0,1100.574
1100584.0,66.0,48.0,29.0,113.0,1100.584
1100594.0,66.0,47.0,28.0,113.0,1100.594
1100604.0,65.0,45.0,26.0,108.0,1100.604
1100614.0,65.0,45.0,22.0,117.0,1100.614
1100624.0,63.0,43.0,20.0,112.0,1100.624
1100634.0,64.0,43.0,18.0,106.0,1100.634
1100644.0,64.0,43.0,18.0,107.0,1100.644
1100654.0,64.0,42.0,21.0,109.0,1100.654
1100664.0,66.0,43.0,19.0,105.0,1100.664
1100674.0,66.0,43.0,24.0,107.0,1100.674
1100684.0,66.0,40.0,24.0,104.0,1100.684
1100694.0,67.0,42.0,28.0,104.0,1100.694
1100704.0,67.0,41.0,25.0,96.0,1100.704
1100715.0,66.0,41.0,27.0,98.0,1100.715
1100725.0,67.0,41.0,23.0,113.0,1100.725
1100735.0,68.0,39.0,21.0,116.0,1100.735
1100745.0,67.0,40.0,19.0,109.0,1100.745
1100755.0,69.0,38.0,19.0,106.0,1100.755
1100765.0,69.0,38.0,17.0,102.0,1100.765
1100775.0,68.0,39.0,18.0,100.0,1100.775
1100785.0,69.0,39.0,16.0,111.0,1100.785
1100795.0,70.0,40.0,16.0,102.0,1100.795
1100805.0,69.0,40.0,24.0,100.0,1100.805
1100815.0,70.0,43.0,32.0,98.0,1100.815
1100825.0,69.0,41.0,29.0,98.0,1100.825
1100835.0,68.0,42.0,29.0,97.0,1100.835
1100845.0,68.0,40.0,28.0,107.0,1100.845
1100855.0,69.0,40.0,26.0,114.0,1100.855
1100865.0,66.0,39.0,23.0,114.0,1100.865
1100875.0,66.0,40.0,22.0,117.0,1100.875
1100886.0,64.0,41.0,21.0,123.0,1100.886
1100896.0,62.0,40.0,24.0,116.0,1100.896
1100906.0,63.0,43.0,25.0,122.0,1100.906
1100916.0,65.0,45.0,22.0,115.0,1100.916
1100926.0,64.0,43.0,22.0,117.0,1100.926
1100936.0,64.0,45.0,28.0,122.0,1100.936
1100946.0,68.0,45.0,27.0,115.0,1100.946
1100956.0,67.0,44.0,25.0,116.0,1100.956
1100966.0,67.0,43.0,30.0,118.0,1100.966
1100976.0,67.0,42.0,29.0,113.0,1100.976
1100986.0,67.0,43.0,26.0,115.0,1100.986
1100996.0,67.0,43.0,23.0,119.0,1100.996
1101006.0,66.0,42.0,20.0,112.0,1101.006
1101016.0,66.0,41.0,18.0,121.0,1101.016
1101026.0,64.0,41.0,23.0,124.0,1101.026
1101036.0,63.0,38.0,22.0,114.0,1101.036
1101046.0,61.0,39.0,23.0,118.0,1101.046
1101056.0,60.0,39.0,27.0,127.0,1101.056
1101066.0,60.0,41.0,46.0,151.0,1101.066
1101076.0,58.0,40.0,42.0,140.0,1101.076
1101086.0,57.0,39.0,40.0,128.0,1101.086
1101096.0,58.0,40.0,37.0,121.0,1101.096
1101106.0,57.0,38.0,34.0,127.0,1101.106
1101116.0,56.0,39.0,32.0,122.0,1101.116
1101126.0,56.0,39.0,28.0,123.0,1101.126
1101136.0,54.0,39.0,25.0,119.0,1101.136
1101146.0,54.0,40.0,23.0,117.0,1101.146
1101156.0,53.0,39.0,22.0,119.0,1101.156
1101166.0,53.0,39.0,19.0,121.0,1101.166
1101176.0,51.0,40.0,17.0,116.0,1101.176
1101186.0,54.0,39.0,16.0,119.0,1101.186
1101196.0,53.0,42.0,25.0,111.0,1101.196
1101206.0,54.0,43.0,36.0,115.0,1101.206
1101216.0,54.0,43.0,30.0,111.0,1101.216
1101227.0,56.0,41.0,31.0,116.0,1101.227
1101237.0,57.0,42.0,29.0,119.0,1101.237
1101247.0,59.0,42.0,27.0,114.0,1101.247
1101257.0,57.0,43.0,26.0,107.0,1101.257
1101267.0,57.0,43.0,27.0,114.0,1101.267
1101277.0,58.0,45.0,31.0,121.0,1101.277
1101287.0,58.0,45.0,28.0,123.0,1101.287
1101297.0,57.0,45.0,28.0,113.0,1101.297
1101307.0,57.0,46.0,24.0,114.0,1101.307
1101317.0,56.0,46.0,21.0,118.0,1101.317
1101327.0,57.0,46.0,20.0,116.0,1101.327
1101337.0,57.0,45.0,19.0,122.0,1101.337
1101347.0,58.0,45.0,21.0,127.0,1101.347
1101357.0,56.0,46.0,20.0,119.0,1101.357
1101367.0,59.0,47.0,31.0,127.0,1101.367
1101377.0,59.0,47.0,29.0,129.0,1101.377
1101387.0,59.0,46.0,31.0,125.0,1101.387
1101398.0,60.0,46.0,27.0,127.0,1101.398
1101408.0,61.0,45.0,24.0,126.0,1101.408
1101418.0,63.0,45.0,21.0,117.0,1101.418
1101428.0,62.0,44.0,18.0,126.0,1101.428
1101438.0,61.0,44.0,19.0,117.0,1101.438
1101448.0,61.0,46.0,18.0,114.0,1101.448
1101458.0,62.0,45.0,16.0,120.0,1101.458
1101468.0,61.0,45.0,15.0,120.0,1101.468
1101478.0,61.0,47.0,25.0,126.0,1101.478
1101488.0,62.0,46.0,25.0,120.0,1101.488
1101498.0,62.0,46.0,23.0,114.0,1101.498
1101508.0,60.0,46.0,22.0,103.0,1101.508
1101518.0,60.0,47.0,19.0,101.0,1101.518
1101528.0,59.0,45.0,18.0,99.0,1101.528
1101538.0,60.0,45.0,16.0,103.0,1101.538
1101548.0,61.0,43.0,17.0,107.0,1101.548
1101558.0,59.0,43.0,16.0,103.0,1101.558
1101568.0,58.0,44.0,28.0,98.0,1101.568
1101578.0,59.0,43.0,26.0,104.0,1101.578
1101588.0,60.0,43.0,25.0,113.0,1101.588
1101598.0,61.0,44.0,34.0,110.0,1101.598
1101608.0,62.0,44.0,30.0,116.0,1101.608
1101618.0,61.0,45.0,27.0,119.0,1101.618
1101628.0,60.0,47.0,25.0,111.0,1101.628
1101638.0,59.0,48.0,22.0,114.0,1101.638
1101648.0,59.0,48.0,23.0,113.0,1101.648
1101658.0,60.0,47.0,21.0,110.0,1101.658
1101668.0,59.0,49.0,18.0,112.0,1101.668
1101678.0,60.0,48.0,18.0,121.0,1101.678
1101688.0,60.0,48.0,15.0,139.0,1101.688
1101698.0,60.0,49.0,17.0,143.0,1101.698
1101708.0,61.0,46.0,14.0,136.0,1101.708
1101718.0,60.0,45.0,14.0,130.0,1101.718
1101728.0,59.0,47.0,13.0,131.0,1101.728
1101739.0,58.0,47.0,22.0,122.0,1101.739
1101749.0,57.0,46.0,24.0,117.0,1101.749
1101759.0,57.0,46.0,24.0,114.0,1101.759
1101769.0,57.0,46.0,23.0,105.0,1101.769
1101779.0,56.0,45.0,18.0,104.0,1101.779
1101789.0,55.0,47.0,18.0,105.0,1101.789
1101799.0,54.0,49.0,15.0,105.0,1101.799
1101809.0,54.0,49.0,15.0,110.0,1101.809
1101819.0,53.0,49.0,16.0,108.0,1101.819
1101829.0,51.0,50.0,19.0,100.0,1101.829
1101839.0,52.0,48.0,20.0,105.0,1101.839
1101849.0,50.0,49.0,32.0,113.0,1101.849
1101859.0,49.0,49.0,29.0,105.0,1101.859
1101869.0,48.0,49.0,28.0,104.0,1101.869
1101879.0,48.0,50.0,27.0,100.0,1101.879
1101889.0,48.0,51.0,24.0,96.0,1101.889
1101899.0,48.0,52.0,25.0,91.0,1101.899
1101910.0,49.0,52.0,28.0,96.0,1101.91
1101920.0,50.0,52.0,24.0,101.0,1101.92
1101930.0,49.0,53.0,21.0,100.0,1101.93
1101940.0,51.0,54.0,21.0,98.0,1101.94
1101950.0,51.0,54.0,19.0,92.0,1101.95
1101960.0,51.0,57.0,33.0,103.0,1101.96
1101970.0,49.0,55.0,29.0,109.0,1101.97
1101980.0,50.0,57.0,34.0,109.0,1101.98
1101990.0,48.0,56.0,32.0,108.0,1101.99
1102000.0,47.0,57.0,29.0,108.0,1102.0
1102010.0,48.0,58.0,28.0,108.0,1102.01
1102020.0,48.0,58.0,25.0,104.0,1102.02
1102030.0,50.0,58.0,23.0,100.0,1102.03
1102040.0,49.0,58.0,21.0,107.0,1102.04
1102050.0,51.0,59.0,21.0,113.0,1102.05
1102060.0,50.0,59.0,20.0,114.0,1102.06
1102070.0,51.0,58.0,21.0,113.0,1102.07
1102080.0,51.0,59.0,20.0,115.0,1102.08
1102090.0,51.0,58.0,18.0,114.0,1102.09
1102100.0,49.0,58.0,18.0,111.0,1102.1
1102110.0,49.0,58.0,28.0,113.0,1102.11
1102120.0,51.0,59.0,29.0,115.0,1102.12
1102130.0,50.0,60.0,26.0,116.0,1102.13
1102140.0,52.0,59.0,23.0,121.0,1102.14
1102150.0,50.0,61.0,29.0,130.0,1102.15
1102160.0,52.0,60.0,26.0,124.0,1102.16
1102170.0,53.0,58.0,23.0,116.0,1102.17
1102180.0,52.0,59.0,21.0,118.0,1102.18
1102190.0,53.0,59.0,33.0,112.0,1102.19
1102200.0,55.0,58.0,28.0,111.0,1102.2
1102210.0,55.0,57.0,26.0,105.0,1102.21
1102220.0,57.0,59.0,23.0,97.0,1102.22
1102230.0,58.0,58.0,24.0,95.0,1102.23
1102240.0,59.0,56.0,23.0,105.0,1102.24
1102251.0,58.0,56.0,21.0,105.0,1102.251
1102261.0,57.0,57.0,31.0,111.0,1102.261
1102271.0,57.0,56.0,30.0,106.0,1102.271
1102281.0,57.0,55.0,26.0,108.0,1102.281
1102291.0,58.0,55.0,24.0,112.0,1102.291
1102301.0,57.0,56.0,21.0,106.0,1102.301
1102311.0,57.0,54.0,22.0,102.0,1102.311
1102321.0,56.0,54.0,19.0,96.0,1102.321
1102331.0,56.0,54.0,20.0,91.0,1102.331
1102341.0,56.0,55.0,18.0,103.0,1102.341
1102351.0,56.0,55.0,21.0,96.0,1102.351
1102361.0,55.0,55.0,18.0,100.0,1102.361
1102371.0,54.0,57.0,17.0,95.0,1102.371
1102381.0,54.0,58.0,15.0,91.0,1102.381
1102391.0,52.0,60.0,15.0,86.0,1102.391
1102401.0,53.0,59.0,14.0,83.0,1102.401
1102411.0,52.0,59.0,12.0,82.0,1102.411
1102422.0,53.0,59.0,12.0,86.0,1102.422
1102432.0,52.0,59.0,11.0,87.0,1102.432
1102442.0,53.0,59.0,11.0,81.0,1102.442
1102452.0,53.0,60.0,10.0,80.0,1102.452
1102462.0,51.0,59.0,8.0,74.0,1102.462
1102472.0,52.0,60.0,9.0,70.0,1102.472
1102482.0,51.0,59.0,7.0,71.0,1102.482
1102492.0,52.0,59.0,10.0,93.0,1102.492
1102502.0,52.0,57.0,11.0,103.0,1102.502
1102512.0,51.0,57.0,13.0,106.0,1102.512
1102522.0,52.0,54.0,14.0,113.0,1102.522
1102532.0,53.0,55.0,12.0,122.0,1102.532
1102542.0,54.0,53.0,13.0,128.0,1102.542
1102552.0,54.0,53.0,14.0,123.0,1102.552
1102562.0,54.0,52.0,16.0,125.0,1102.562
1102572.0,56.0,51.0,14.0,124.0,1102.572
1102582.0,55.0,53.0,15.0,117.0,1102.582
1102592.0,55.0,50.0,15.0,114.0,1102.592
1102602.0,56.0,48.0,13.0,114.0,1102.602
1102612.0,57.0,48.0,15.0,138.0,1102.612
1102622.0,56.0,51.0,20.0,133.0,1102.622
1102632.0,56.0,48.0,19.0,126.0,1102.632
1102642.0,57.0,47.0,18.0,131.0,1102.642
1102652.0,58.0,46.0,16.0,132.0,1102.652
1102662.0,58.0,44.0,14.0,135.0,1102.662
1102672.0,57.0,43.0,12.0,140.0,1102.672
1102682.0,58.0,43.0,13.0,134.0,1102.682
1102692.0,56.0,43.0,10.0,125.0,1102.692
1102702.0,55.0,44.0,11.0,118.0,1102.702
1102712.0,55.0,43.0,10.0,112.0,1102.712
1102722.0,54.0,44.0,13.0,114.0,1102.722
1102732.0,53.0,42.0,11.0,110.0,1102.732
1102742.0,53.0,44.0,13.0,116.0,1102.742
1102752.0,54.0,43.0,12.0,116.0,1102.752
1102763.0,53.0,43.0,12.0,134.0,1102.763
1102773.0,52.0,44.0,26.0,133.0,1102.773
1102783.0,54.0,43.0,26.0,139.0,1102.783
1102793.0,54.0,46.0,24.0,134.0,1102.793
1102803.0,56.0,44.0,24.0,148.0,1102.803
1102813.0,56.0,45.0,21.0,142.0,1102.813
1102823.0,57.0,46.0,19.0,143.0,1102.823
1102833.0,58.0,46.0,16.0,133.0,1102.833
1102843.0,59.0,46.0,18.0,140.0,1102.843
1102853.0,62.0,45.0,17.0,132.0,1102.853
1102863.0,61.0,46.0,15.0,126.0,1102.863
1102873.0,60.0,46.0,14.0,118.0,1102.873
1102883.0,61.0,45.0,15.0,138.0,1102.883
1102893.0,62.0,45.0,14.0,134.0,1102.893
1102903.0,63.0,45.0,12.0,136.0,1102.903
1102913.0,61.0,47.0,16.0,145.0,1102.913
1102923.0,61.0,45.0,14.0,137.0,1102.923
1102934.0,61.0,47.0,13.0,133.0,1102.934
1102944.0,62.0,46.0,15.0,135.0,1102.944
1102954.0,63.0,44.0,15.0,131.0,1102.954
1102964.0,65.0,46.0,15.0,138.0,1102.964
1102974.0,65.0,44.0,14.0,143.0,1102.974
1102984.0,66.0,43.0,13.0,135.0,1102.984
1102994.0,64.0,45.0,16.0,143.0,1102.994
1103004.0,65.0,45.0,30.0,142.0,1103.004
1103014.0,66.0,44.0,36.0,135.0,1103.014
1103024.0,65.0,42.0,32.0,139.0,1103.024
1103034.0,65.0,42.0,39.0,137.0,1103.034
1103044.0,64.0,41.0,37.0,135.0,1103.044
1103054.0,63.0,40.0,35.0,127.0,1103.054
1103064.0,63.0,41.0,38.0,121.0,1103.064
1103074.0,65.0,43.0,51.0,119.0,1103.074
1103084.0,65.0,42.0,47.0,112.0,1103.084
1103094.0,65.0,40.0,41.0,108.0,1103.094
1103104.0,64.0,41.0,39.0,110.0,1103.104
1103114.0,63.0,41.0,32.0,109.0,1103.114
1103124.0,62.0,40.0,31.0,115.0,1103.124
1103134.0,60.0,40.0,29.0,125.0,1103.134
1103144.0,59.0,41.0,27.0,120.0,1103.144
1103154.0,58.0,41.0,31.0,116.0,1103.154
1103164.0,56.0,41.0,32.0,110.0,1103.164
1103174.0,57.0,41.0,32.0,117.0,1103.174
1103184.0,57.0,40.0,28.0,122.0,1103.184
1103194.0,55.0,39.0,27.0,117.0,1103.194
1103204.0,56.0,39.0,23.0,115.0,1103.204
1103214.0,56.0,40.0,21.0,113.0,1103.214
1103224.0,55.0,40.0,36.0,116.0,1103.224
1103234.0,55.0,40.0,31.0,109.0,1103.234
1103244.0,55.0,39.0,29.0,105.0,1103.244
1103254.0,56.0,38.0,25.0,103.0,1103.254
1103264.0,54.0,38.0,20.0,104.0,1103.264
1103275.0,56.0,37.0,20.0,102.0,1103.275
1103285.0,56.0,38.0,18.0,98.0,1103.285
1103295.0,57.0,38.0,34.0,104.0,1103.295
1103305.0,55.0,41.0,30.0,101.0,1103.305
1103315.0,53.0,40.0,27.0,127.0,1103.315
1103325.0,53.0,42.0,27.0,132.0,1103.325
1103335.0,50.0,43.0,29.0,123.0,1103.335
1103345.0,52.0,44.0,46.0,127.0,1103.345
1103355.0,51.0,45.0,45.0,116.0,1103.355
1103365.0,51.0,46.0,48.0,108.0,1103.365
1103375.0,50.0,46.0,60.0,102.0,1103.375
1103385.0,49.0,45.0,55.0,100.0,1103.385
1103395.0,49.0,45.0,48.0,103.0,1103.395
1103405.0,48.0,45.0,42.0,94.0,1103.405
1103415.0,49.0,45.0,38.0,111.0,1103.415
1103425.0,50.0,47.0,34.0,116.0,1103.425
1103435.0,51.0,48.0,32.0,108.0,1103.435
1103446.0,51.0,49.0,32.0,107.0,1103.446
1103456.0,53.0,51.0,37.0,109.0,1103.456
1103466.0,55.0,50.0,34.0,111.0,1103.466
1103476.0,56.0,49.0,32.0,104.0,1103.476
1103486.0,58.0,49.0,33.0,109.0,1103.486
1103496.0,59.0,51.0,42.0,109.0,1103.496
1103506.0,61.0,50.0,40.0,110.0,1103.506
1103516.0,61.0,50.0,42.0,106.0,1103.516
1103526.0,61.0,49.0,38.0,102.0,1103.526
1103536.0,61.0,49.0,36.0,99.0,1103.536
1103546.0,61.0,49.0,31.0,95.0,1103.546
1103556.0,58.0,52.0,35.0,98.0,1103.556
