time (ms),signal 0,signal 1,signal 2,signal3,time (sec)
1075926.0,58.0,38.0,13.0,51.0,1075.926
1075936.0,58.0,39.0,19.0,55.0,1075.936
1075946.0,57.0,38.0,17.0,55.0,1075.946
1075956.0,59.0,40.0,16.0,55.0,1075.956
1075966.0,59.0,42.0,14.0,53.0,1075.966
1075976.0,60.0,44.0,12.0,53.0,1075.976
1075986.0,61.0,45.0,13.0,53.0,1075.986
1075996.0,63.0,47.0,11.0,56.0,1075.996
1076006.0,61.0,48.0,14.0,58.0,1076.006
1076016.0,61.0,50.0,13.0,56.0,1076.016
1076026.0,61.0,50.0,13.0,53.0,1076.026
1076036.0,62.0,50.0,14.0,50.0,1076.036
1076046.0,60.0,51.0,12.0,50.0,1076.046
1076056.0,61.0,49.0,12.0,49.0,1076.056
1076066.0,60.0,50.0,10.0,49.0,1076.066
1076076.0,59.0,48.0,13.0,50.0,1076.076
1076086.0,60.0,47.0,12.0,50.0,1076.086
1076096.0,59.0,46.0,12.0,48.0,1076.096
1076106.0,59.0,45.0,11.0,48.0,1076.106
1076116.0,58.0,43.0,10.0,51.0,1076.116
1076126.0,59.0,43.0,14.0,49.0,1076.126
1076136.0,58.0,43.0,13.0,50.0,1076.136
1076146.0,58.0,42.0,15.0,58.0,1076.146
1076156.0,57.0,40.0,13.0,60.0,1076.156
1076166.0,57.0,40.0,13.0,60.0,1076.166
1076176.0,56.0,39.0,12.0,59.0,1076.176
1076186.0,54.0,38.0,10.0,58.0,1076.186
1076196.0,53.0,37.0,10.0,59.0,1076.196
1076206.0,53.0,38.0,11.0,58.0,1076.206
1076216.0,53.0,36.0,11.0,54.0,1076.216
1076226.0,52.0,37.0,10.0,54.0,1076.226
1076236.0,49.0,36.0,12.0,55.0,1076.236
1076246.0,50.0,37.0,15.0,65.0,1076.246
1076256.0,50.0,37.0,14.0,64.0,1076.256
1076267.0,50.0,36.0,11.0,62.0,1076.267
1076277.0,51.0,38.0,11.0,69.0,1076.277
1076287.0,52.0,36.0,10.0,62.0,1076.287
1076297.0,53.0,37.0,11.0,60.0,1076.297
1076307.0,56.0,37.0,15.0,60.0,1076.307
1076317.0,58.0,37.0,14.0,57.0,1076.317
1076327.0,56.0,37.0,12.0,59.0,1076.327
1076337.0,57.0,36.0,12.0,57.0,1076.337
1076347.0,57.0,37.0,18.0,58.0,1076.347
1076357.0,56.0,36.0,16.0,64.0,1076.357
1076367.0,56.0,36.0,17.0,63.0,1076.367
1076377.0,57.0,35.0,15.0,67.0,1076.377
1076387.0,58.0,35.0,14.0,65.0,1076.387
1076397.0,58.0,35.0,12.0,63.0,1076.397
1076407.0,58.0,35.0,11.0,59.0,1076.407
1076417.0,58.0,36.0,11.0,58.0,1076.417
1076427.0,56.0,35.0,9.0,58.0,1076.427
1076438.0,54.0,34.0,13.0,63.0,1076.438
1076448.0,55.0,35.0,15.0,59.0,1076.448
1076458.0,57.0,35.0,16.0,56.0,1076.458
1076468.0,55.0,35.0,14.0,56.0,1076.468
1076478.0,56.0,35.0,12.0,55.0,1076.478
1076488.0,56.0,36.0,11.0,54.0,1076.488
1076498.0,56.0,34.0,10.0,50.0,1076.498
1076508.0,55.0,34.0,9.0,48.0,1076.508
1076518.0,55.0,34.0,8.0,48.0,1076.518
1076528.0,56.0,35.0,9.0,48.0,1076.528
1076538.0,54.0,36.0,16.0,48.0,1076.538
1076548.0,56.0,36.0,14.0,50.0,1076.548
1076558.0,58.0,37.0,13.0,56.0,1076.558
1076568.0,59.0,36.0,12.0,54.0,1076.568
1076578.0,59.0,37.0,12.0,53.0,1076.578
1076588.0,57.0,37.0,13.0,51.0,1076.588
1076598.0,58.0,36.0,14.0,54.0,1076.598
1076608.0,58.0,37.0,12.0,60.0,1076.608
1076618.0,58.0,36.0,12.0,61.0,1076.618
1076628.0,57.0,36.0,11.0,58.0,1076.628
1076638.0,56.0,36.0,11.0,58.0,1076.638
1076648.0,56.0,35.0,10.0,56.0,1076.648
1076658.0,55.0,35.0,9.0,55.0,1076.658
1076668.0,56.0,35.0,9.0,61.0,1076.668
1076678.0,54.0,36.0,8.0,61.0,1076.678
1076688.0,55.0,36.0,9.0,60.0,1076.688
1076698.0,54.0,36.0,10.0,64.0,1076.698
1076708.0,55.0,35.0,10.0,60.0,1076.708
1076718.0,54.0,36.0,10.0,61.0,1076.718
1076728.0,53.0,36.0,9.0,59.0,1076.728
1076738.0,53.0,36.0,9.0,55.0,1076.738
1076748.0,52.0,37.0,7.0,54.0,1076.748
1076758.0,52.0,37.0,7.0,51.0,1076.758
1076768.0,52.0,38.0,9.0,50.0,1076.768
1076779.0,52.0,39.0,9.0,51.0,1076.779
1076789.0,52.0,39.0,9.0,55.0,1076.789
1076799.0,52.0,41.0,10.0,53.0,1076.799
1076809.0,53.0,42.0,11.0,55.0,1076.809
1076819.0,52.0,45.0,10.0,54.0,1076.819
1076829.0,53.0,46.0,10.0,53.0,1076.829
1076839.0,54.0,47.0,9.0,54.0,1076.839
1076849.0,56.0,46.0,11.0,52.0,1076.849
1076859.0,58.0,48.0,10.0,53.0,1076.859
1076869.0,58.0,49.0,15.0,51.0,1076.869
1076879.0,61.0,49.0,18.0,55.0,1076.879
1076889.0,60.0,50.0,14.0,59.0,1076.889
1076899.0,61.0,51.0,16.0,59.0,1076.899
1076909.0,62.0,52.0,18.0,63.0,1076.909
1076919.0,62.0,51.0,22.0,65.0,1076.919
1076929.0,63.0,50.0,19.0,63.0,1076.929
1076939.0,64.0,51.0,19.0,62.0,1076.939
1076950.0,65.0,50.0,18.0,59.0,1076.95
1076960.0,64.0,50.0,14.0,56.0,1076.96
1076970.0,63.0,52.0,14.0,57.0,1076.97
1076980.0,65.0,51.0,13.0,60.0,1076.98
1076990.0,65.0,50.0,14.0,60.0,1076.99
1077000.0,65.0,49.0,12.0,60.0,1077.0
1077010.0,61.0,50.0,11.0,58.0,1077.01
1077020.0,62.0,50.0,11.0,59.0,1077.02
1077030.0,58.0,51.0,10.0,60.0,1077.03
1077040.0,58.0,49.0,18.0,59.0,1077.04
1077050.0,57.0,48.0,17.0,63.0,1077.05
1077060.0,56.0,48.0,16.0,64.0,1077.06
1077070.0,54.0,48.0,16.0,63.0,1077.07
1077080.0,53.0,47.0,14.0,62.0,1077.08
1077090.0,55.0,49.0,29.0,61.0,1077.09
1077100.0,54.0,49.0,26.0,62.0,1077.1
1077110.0,55.0,48.0,24.0,63.0,1077.11
1077120.0,56.0,49.0,23.0,64.0,1077.12
1077130.0,57.0,49.0,23.0,63.0,1077.13
1077140.0,58.0,49.0,23.0,67.0,1077.14
1077150.0,57.0,49.0,21.0,69.0,1077.15
1077160.0,60.0,49.0,21.0,69.0,1077.16
1077170.0,60.0,51.0,22.0,72.0,1077.17
1077180.0,62.0,50.0,19.0,68.0,1077.18
1077190.0,61.0,52.0,17.0,64.0,1077.19
1077200.0,61.0,64.0,16.0,66.0,1077.2
1077210.0,63.0,64.0,16.0,62.0,1077.21
1077220.0,63.0,65.0,15.0,59.0,1077.22
1077230.0,65.0,65.0,22.0,59.0,1077.23
1077240.0,64.0,74.0,18.0,58.0,1077.24
1077250.0,63.0,80.0,20.0,53.0,1077.25
1077260.0,61.0,79.0,18.0,56.0,1077.26
1077270.0,59.0,75.0,16.0,52.0,1077.27
1077280.0,59.0,76.0,15.0,49.0,1077.28
1077291.0,58.0,73.0,14.0,55.0,1077.291
1077301.0,58.0,83.0,13.0,51.0,1077.301
1077311.0,58.0,98.0,14.0,57.0,1077.311
1077321.0,60.0,141.0,20.0,61.0,1077.321
1077331.0,65.0,151.0,28.0,66.0,1077.331
1077341.0,69.0,238.0,51.0,82.0,1077.341
1077351.0,75.0,245.0,48.0,81.0,1077.351
1077361.0,95.0,352.0,86.0,108.0,1077.361
1077371.0,110.0,435.0,106.0,133.0,1077.371
1077381.0,114.0,454.0,106.0,135.0,1077.381
1077391.0,111.0,408.0,94.0,121.0,1077.391
1077401.0,105.0,359.0,80.0,125.0,1077.401
1077411.0,98.0,337.0,73.0,117.0,1077.411
1077421.0,92.0,374.0,73.0,140.0,1077.421
1077431.0,101.0,370.0,67.0,137.0,1077.431
1077441.0,109.0,361.0,63.0,137.0,1077.441
1077451.0,105.0,370.0,62.0,139.0,1077.451
1077462.0,109.0,393.0,65.0,150.0,1077.462
1077472.0,111.0,401.0,64.0,153.0,1077.472
1077482.0,110.0,397.0,55.0,169.0,1077.482
1077492.0,118.0,377.0,48.0,174.0,1077.492
1077502.0,115.0,382.0,45.0,174.0,1077.502
1077512.0,112.0,419.0,51.0,166.0,1077.512
1077522.0,110.0,392.0,44.0,165.0,1077.522
1077532.0,112.0,392.0,41.0,153.0,1077.532
1077542.0,114.0,392.0,48.0,151.0,1077.542
1077552.0,115.0,394.0,45.0,160.0,1077.552
1077562.0,110.0,426.0,47.0,160.0,1077.562
1077572.0,111.0,425.0,47.0,163.0,1077.572
1077582.0,109.0,406.0,43.0,157.0,1077.582
1077592.0,103.0,407.0,47.0,160.0,1077.592
1077602.0,104.0,400.0,47.0,159.0,1077.602
1077612.0,109.0,404.0,48.0,154.0,1077.612
1077622.0,109.0,392.0,46.0,151.0,1077.622
1077632.0,106.0,387.0,44.0,139.0,1077.632
1077642.0,105.0,381.0,44.0,150.0,1077.642
1077652.0,106.0,381.0,44.0,149.0,1077.652
1077662.0,104.0,393.0,40.0,148.0,1077.662
1077672.0,112.0,380.0,44.0,139.0,1077.672
1077682.0,117.0,370.0,40.0,130.0,1077.682
1077692.0,113.0,362.0,35.0,140.0,1077.692
1077702.0,109.0,351.0,30.0,141.0,1077.702
1077712.0,111.0,357.0,31.0,140.0,1077.712
1077722.0,105.0,350.0,29.0,133.0,1077.722
1077732.0,99.0,344.0,26.0,136.0,1077.732
1077742.0,98.0,339.0,23.0,127.0,1077.742
1077752.0,95.0,339.0,26.0,118.0,1077.752
1077762.0,95.0,329.0,25.0,117.0,1077.762
1077772.0,94.0,338.0,28.0,126.0,1077.772
1077782.0,91.0,327.0,32.0,119.0,1077.782
1077792.0,93.0,343.0,33.0,114.0,1077.792
1077803.0,90.0,317.0,29.0,114.0,1077.803
1077813.0,90.0,305.0,28.0,118.0,1077.813
1077823.0,91.0,311.0,32.0,119.0,1077.823
1077833.0,86.0,305.0,30.0,114.0,1077.833
1077843.0,87.0,293.0,26.0,108.0,1077.843
1077853.0,82.0,289.0,23.0,105.0,1077.853
1077863.0,84.0,285.0,23.0,104.0,1077.863
1077873.0,82.0,278.0,24.0,106.0,1077.873
1077883.0,78.0,280.0,22.0,109.0,1077.883
1077893.0,77.0,277.0,21.0,101.0,1077.893
1077903.0,78.0,280.0,24.0,103.0,1077.903
1077913.0,84.0,274.0,23.0,98.0,1077.913
1077923.0,81.0,265.0,20.0,103.0,1077.923
1077933.0,79.0,259.0,20.0,101.0,1077.933
1077943.0,78.0,246.0,18.0,109.0,1077.943
1077953.0,75.0,243.0,16.0,106.0,1077.953
1077963.0,74.0,232.0,14.0,111.0,1077.963
1077974.0,71.0,224.0,12.0,107.0,1077.974
1077984.0,77.0,230.0,13.0,103.0,1077.984
1077994.0,79.0,223.0,18.0,105.0,1077.994
1078004.0,79.0,216.0,17.0,105.0,1078.004
1078014.0,80.0,213.0,18.0,110.0,1078.014
1078024.0,76.0,209.0,17.0,118.0,1078.024
1078034.0,73.0,202.0,15.0,126.0,1078.034
1078044.0,80.0,234.0,24.0,159.0,1078.044
1078054.0,77.0,223.0,21.0,151.0,1078.054
1078064.0,79.0,211.0,25.0,204.0,1078.064
1078074.0,83.0,208.0,24.0,222.0,1078.074
1078084.0,86.0,196.0,20.0,222.0,1078.084
1078094.0,88.0,204.0,21.0,219.0,1078.094
1078104.0,90.0,197.0,20.0,217.0,1078.104
1078114.0,88.0,190.0,19.0,196.0,1078.114
1078124.0,82.0,180.0,18.0,190.0,1078.124
1078134.0,77.0,172.0,16.0,170.0,1078.134
1078144.0,78.0,175.0,15.0,154.0,1078.144
1078154.0,75.0,165.0,15.0,140.0,1078.154
1078164.0,73.0,169.0,14.0,130.0,1078.164
1078174.0,73.0,165.0,14.0,122.0,1078.174
1078184.0,71.0,165.0,15.0,115.0,1078.184
1078194.0,72.0,166.0,14.0,112.0,1078.194
1078204.0,70.0,162.0,13.0,102.0,1078.204
1078214.0,72.0,168.0,15.0,100.0,1078.214
1078224.0,73.0,175.0,15.0,104.0,1078.224
1078234.0,74.0,181.0,14.0,98.0,1078.234
1078244.0,82.0,193.0,80.0,122.0,1078.244
1078254.0,89.0,210.0,122.0,129.0,1078.254
1078264.0,92.0,205.0,126.0,126.0,1078.264
1078274.0,90.0,208.0,133.0,127.0,1078.274
1078284.0,87.0,198.0,150.0,138.0,1078.284
1078294.0,85.0,187.0,161.0,140.0,1078.294
1078304.0,82.0,178.0,158.0,131.0,1078.304
1078315.0,89.0,191.0,214.0,179.0,1078.315
1078325.0,91.0,188.0,248.0,205.0,1078.325
1078335.0,89.0,190.0,310.0,233.0,1078.335
1078345.0,97.0,224.0,351.0,303.0,1078.345
1078355.0,109.0,231.0,400.0,356.0,1078.355
1078365.0,110.0,214.0,385.0,330.0,1078.365
1078375.0,111.0,214.0,367.0,325.0,1078.375
1078385.0,106.0,214.0,351.0,294.0,1078.385
1078395.0,104.0,201.0,312.0,258.0,1078.395
1078405.0,99.0,217.0,297.0,240.0,1078.405
1078415.0,94.0,209.0,286.0,219.0,1078.415
1078425.0,89.0,200.0,252.0,218.0,1078.425
1078435.0,85.0,207.0,228.0,199.0,1078.435
1078445.0,87.0,210.0,211.0,186.0,1078.445
1078455.0,82.0,209.0,201.0,175.0,1078.455
1078465.0,80.0,219.0,175.0,161.0,1078.465
1078475.0,77.0,219.0,163.0,148.0,1078.475
1078486.0,78.0,236.0,158.0,136.0,1078.486
1078496.0,79.0,241.0,157.0,134.0,1078.496
1078506.0,76.0,240.0,135.0,126.0,1078.506
1078516.0,75.0,247.0,128.0,127.0,1078.516
1078526.0,73.0,234.0,123.0,122.0,1078.526
1078536.0,74.0,232.0,110.0,117.0,1078.536
1078546.0,71.0,221.0,108.0,110.0,1078.546
1078556.0,69.0,215.0,112.0,104.0,1078.556
1078566.0,69.0,214.0,100.0,95.0,1078.566
1078576.0,68.0,198.0,88.0,93.0,1078.576
1078586.0,66.0,193.0,80.0,89.0,1078.586
1078596.0,63.0,182.0,73.0,83.0,1078.596
1078606.0,61.0,173.0,67.0,81.0,1078.606
1078616.0,62.0,174.0,60.0,76.0,1078.616
1078626.0,60.0,164.0,64.0,80.0,1078.626
1078636.0,59.0,153.0,58.0,81.0,1078.636
1078646.0,59.0,145.0,54.0,79.0,1078.646
1078656.0,56.0,140.0,50.0,80.0,1078.656
1078666.0,57.0,132.0,51.0,75.0,1078.666
1078676.0,55.0,125.0,56.0,83.0,1078.676
1078686.0,55.0,118.0,52.0,82.0,1078.686
1078696.0,56.0,113.0,48.0,99.0,1078.696
1078706.0,57.0,106.0,52.0,109.0,1078.706
1078716.0,60.0,99.0,46.0,105.0,1078.716
1078726.0,60.0,96.0,44.0,108.0,1078.726
1078736.0,60.0,93.0,49.0,113.0,1078.736
1078746.0,60.0,90.0,59.0,105.0,1078.746
1078756.0,60.0,86.0,52.0,106.0,1078.756
1078766.0,63.0,85.0,50.0,145.0,1078.766
1078776.0,65.0,86.0,56.0,156.0,1078.776
1078786.0,68.0,82.0,58.0,163.0,1078.786
1078796.0,70.0,85.0,76.0,250.0,1078.796
1078806.0,77.0,91.0,73.0,266.0,1078.806
1078816.0,79.0,98.0,71.0,269.0,1078.816
1078827.0,79.0,98.0,71.0,280.0,1078.827
1078837.0,84.0,112.0,78.0,294.0,1078.837
1078847.0,88.0,132.0,87.0,305.0,1078.847
1078857.0,90.0,151.0,82.0,304.0,1078.857
1078867.0,92.0,170.0,76.0,293.0,1078.867
1078877.0,93.0,188.0,72.0,279.0,1078.877
1078887.0,93.0,211.0,69.0,288.0,1078.887
1078897.0,98.0,236.0,96.0,300.0,1078.897
1078907.0,99.0,259.0,100.0,294.0,1078.907
1078917.0,97.0,273.0,93.0,296.0,1078.917
1078927.0,101.0,293.0,89.0,305.0,1078.927
1078937.0,101.0,306.0,105.0,319.0,1078.937
1078947.0,102.0,320.0,94.0,314.0,1078.947
1078957.0,105.0,335.0,94.0,326.0,1078.957
1078967.0,101.0,341.0,90.0,317.0,1078.967
1078977.0,100.0,350.0,109.0,344.0,1078.977
1078987.0,97.0,353.0,98.0,347.0,1078.987
1078998.0,98.0,358.0,95.0,340.0,1078.998
1079008.0,94.0,360.0,92.0,323.0,1079.008
1079018.0,93.0,360.0,87.0,303.0,1079.018
1079028.0,92.0,359.0,86.0,288.0,1079.028
1079038.0,88.0,354.0,87.0,292.0,1079.038
1079048.0,92.0,353.0,85.0,271.0,1079.048
1079058.0,91.0,350.0,85.0,255.0,1079.058
1079068.0,89.0,347.0,85.0,292.0,1079.068
1079078.0,86.0,344.0,82.0,298.0,1079.078
1079088.0,84.0,338.0,81.0,276.0,1079.088
1079098.0,82.0,334.0,70.0,259.0,1079.098
1079108.0,78.0,324.0,67.0,246.0,1079.108
1079118.0,76.0,319.0,64.0,247.0,1079.118
1079128.0,74.0,316.0,67.0,266.0,1079.128
1079138.0,72.0,306.0,74.0,244.0,1079.138
1079148.0,72.0,302.0,64.0,240.0,1079.148
1079158.0,72.0,295.0,56.0,227.0,1079.158
1079168.0,68.0,289.0,52.0,218.0,1079.168
1079178.0,66.0,281.0,50.0,239.0,1079.178
1079188.0,66.0,276.0,52.0,237.0,1079.188
1079198.0,65.0,270.0,45.0,219.0,1079.198
1079208.0,66.0,263.0,45.0,217.0,1079.208
1079218.0,67.0,261.0,41.0,211.0,1079.218
1079228.0,67.0,253.0,42.0,202.0,1079.228
1079238.0,66.0,250.0,51.0,189.0,1079.238
1079248.0,65.0,245.0,48.0,183.0,1079.248
1079258.0,69.0,243.0,45.0,194.0,1079.258
1079268.0,69.0,238.0,45.0,185.0,1079.268
1079278.0,71.0,232.0,55.0,189.0,1079.278
1079288.0,70.0,228.0,50.0,181.0,1079.288
1079298.0,69.0,223.0,45.0,169.0,1079.298
1079308.0,67.0,217.0,47.0,161.0,1079.308
1079318.0,69.0,216.0,50.0,157.0,1079.318
1079328.0,67.0,209.0,50.0,158.0,1079.328
1079339.0,65.0,203.0,50.0,168.0,1079.339
1079349.0,68.0,199.0,44.0,170.0,1079.349
1079359.0,66.0,195.0,44.0,164.0,1079.359
1079369.0,66.0,190.0,38.0,178.0,1079.369
1079379.0,64.0,181.0,44.0,172.0,1079.379
1079389.0,63.0,177.0,44.0,164.0,1079.389
1079399.0,64.0,174.0,41.0,158.0,1079.399
1079409.0,65.0,172.0,36.0,149.0,1079.409
1079419.0,66.0,166.0,41.0,141.0,1079.419
1079429.0,65.0,163.0,38.0,149.0,1079.429
1079439.0,66.0,161.0,33.0,156.0,1079.439
1079449.0,64.0,156.0,33.0,154.0,1079.449
1079459.0,66.0,154.0,41.0,152.0,1079.459
1079469.0,64.0,150.0,40.0,146.0,1079.469
1079479.0,64.0,146.0,34.0,146.0,1079.479
1079489.0,67.0,145.0,31.0,160.0,1079.489
1079499.0,66.0,143.0,38.0,159.0,1079.499
1079510.0,68.0,142.0,37.0,154.0,1079.51
1079520.0,67.0,141.0,35.0,148.0,1079.52
1079530.0,67.0,140.0,47.0,136.0,1079.53
1079540.0,66.0,138.0,47.0,134.0,1079.54
1079550.0,64.0,137.0,43.0,128.0,1079.55
1079560.0,63.0,136.0,39.0,120.0,1079.56
1079570.0,60.0,133.0,35.0,116.0,1079.57
1079580.0,59.0,131.0,36.0,119.0,1079.58
1079590.0,57.0,128.0,33.0,116.0,1079.59
1079600.0,57.0,128.0,29.0,126.0,1079.6
1079610.0,57.0,119.0,37.0,131.0,1079.61
1079620.0,58.0,121.0,37.0,139.0,1079.62
1079630.0,57.0,118.0,34.0,128.0,1079.63
1079640.0,55.0,118.0,31.0,134.0,1079.64
1079650.0,53.0,115.0,29.0,131.0,1079.65
1079660.0,54.0,115.0,26.0,124.0,1079.66
1079670.0,53.0,112.0,22.0,132.0,1079.67
1079680.0,54.0,109.0,41.0,130.0,1079.68
1079690.0,55.0,108.0,43.0,128.0,1079.69
1079700.0,56.0,107.0,40.0,133.0,1079.7
1079710.0,56.0,106.0,35.0,136.0,1079.71
1079720.0,56.0,104.0,31.0,123.0,1079.72
1079730.0,56.0,104.0,30.0,128.0,1079.73
1079740.0,54.0,105.0,27.0,121.0,1079.74
1079750.0,53.0,102.0,28.0,114.0,1079.75
1079760.0,52.0,100.0,33.0,114.0,1079.76
1079770.0,53.0,100.0,32.0,118.0,1079.77
1079780.0,53.0,101.0,27.0,118.0,1079.78
1079790.0,52.0,100.0,25.0,124.0,1079.79
1079800.0,51.0,98.0,23.0,123.0,1079.8
1079810.0,51.0,97.0,21.0,115.0,1079.81
1079820.0,51.0,92.0,19.0,114.0,1079.82
1079830.0,51.0,90.0,36.0,121.0,1079.83
1079840.0,53.0,90.0,36.0,123.0,1079.84
1079851.0,55.0,88.0,32.0,123.0,1079.851
1079861.0,56.0,87.0,28.0,121.0,1079.861
1079871.0,59.0,84.0,26.0,127.0,1079.871
1079881.0,60.0,82.0,26.0,125.0,1079.881
1079891.0,60.0,78.0,26.0,150.0,1079.891
1079901.0,61.0,80.0,37.0,142.0,1079.901
1079911.0,64.0,80.0,37.0,140.0,1079.911
1079921.0,62.0,77.0,51.0,142.0,1079.921
1079931.0,63.0,76.0,47.0,143.0,1079.931
1079941.0,64.0,77.0,43.0,145.0,1079.941
1079951.0,62.0,75.0,39.0,143.0,1079.951
1079961.0,62.0,74.0,37.0,135.0,1079.961
1079971.0,62.0,74.0,33.0,133.0,1079.971
1079981.0,60.0,72.0,32.0,126.0,1079.981
1079991.0,60.0,70.0,38.0,125.0,1079.991
1080001.0,60.0,68.0,39.0,124.0,1080.001
1080011.0,62.0,68.0,35.0,119.0,1080.011
1080022.0,61.0,67.0,31.0,125.0,1080.022
1080032.0,60.0,64.0,34.0,126.0,1080.032
1080042.0,58.0,62.0,41.0,129.0,1080.042
1080052.0,59.0,60.0,39.0,132.0,1080.052
1080062.0,58.0,58.0,34.0,122.0,1080.062
1080072.0,58.0,57.0,30.0,116.0,1080.072
1080082.0,58.0,55.0,31.0,117.0,1080.082
1080092.0,57.0,55.0,35.0,122.0,1080.092
1080102.0,57.0,52.0,32.0,118.0,1080.102
1080112.0,57.0,51.0,31.0,121.0,1080.112
1080122.0,58.0,51.0,39.0,118.0,1080.122
1080132.0,58.0,49.0,36.0,118.0,1080.132
1080142.0,58.0,48.0,30.0,116.0,1080.142
1080152.0,56.0,45.0,33.0,123.0,1080.152
1080162.0,55.0,46.0,30.0,120.0,1080.162
1080172.0,55.0,46.0,27.0,122.0,1080.172
1080182.0,53.0,46.0,38.0,120.0,1080.182
1080192.0,52.0,44.0,39.0,117.0,1080.192
1080202.0,51.0,43.0,40.0,109.0,1080.202
1080212.0,50.0,44.0,36.0,99.0,1080.212
1080222.0,51.0,44.0,32.0,97.0,1080.222
1080232.0,50.0,42.0,46.0,116.0,1080.232
1080242.0,51.0,44.0,41.0,124.0,1080.242
1080252.0,51.0,45.0,36.0,121.0,1080.252
1080262.0,51.0,45.0,32.0,113.0,1080.262
1080272.0,50.0,43.0,29.0,102.0,1080.272
1080282.0,48.0,44.0,34.0,95.0,1080.282
1080292.0,49.0,42.0,33.0,93.0,1080.292
1080302.0,51.0,42.0,29.0,99.0,1080.302
1080312.0,49.0,42.0,28.0,102.0,1080.312
1080322.0,49.0,41.0,24.0,102.0,1080.322
1080332.0,49.0,42.0,23.0,108.0,1080.332
1080342.0,50.0,42.0,20.0,107.0,1080.342
1080352.0,50.0,42.0,25.0,113.0,1080.352
1080363.0,50.0,42.0,24.0,119.0,1080.363
1080373.0,51.0,43.0,22.0,114.0,1080.373
1080383.0,52.0,42.0,20.0,113.0,1080.383
1080393.0,51.0,42.0,22.0,115.0,1080.393
1080403.0,52.0,44.0,24.0,114.0,1080.403
1080413.0,53.0,45.0,27.0,112.0,1080.413
1080423.0,52.0,46.0,34.0,104.0,1080.423
1080433.0,54.0,46.0,30.0,113.0,1080.433
1080443.0,52.0,47.0,27.0,121.0,1080.443
1080453.0,52.0,47.0,25.0,118.0,1080.453
1080463.0,51.0,48.0,23.0,114.0,1080.463
1080473.0,49.0,47.0,26.0,104.0,1080.473
1080483.0,50.0,48.0,28.0,99.0,1080.483
1080493.0,48.0,48.0,28.0,105.0,1080.493
1080503.0,48.0,46.0,35.0,108.0,1080.503
1080513.0,49.0,47.0,32.0,108.0,1080.513
1080523.0,49.0,44.0,29.0,102.0,1080.523
1080534.0,49.0,43.0,25.0,103.0,1080.534
1080544.0,51.0,44.0,23.0,118.0,1080.544
1080554.0,50.0,42.0,20.0,116.0,1080.554
1080564.0,49.0,41.0,23.0,113.0,1080.564
1080574.0,50.0,43.0,28.0,107.0,1080.574
1080584.0,50.0,43.0,25.0,99.0,1080.584
1080594.0,50.0,42.0,28.0,94.0,1080.594
1080604.0,50.0,42.0,29.0,92.0,1080.604
1080614.0,53.0,42.0,29.0,110.0,1080.614
1080624.0,53.0,42.0,26.0,110.0,1080.624
1080634.0,52.0,41.0,23.0,101.0,1080.634
1080644.0,53.0,40.0,23.0,97.0,1080.644
1080654.0,54.0,41.0,19.0,99.0,1080.654
1080664.0,53.0,39.0,19.0,94.0,1080.664
1080674.0,53.0,41.0,25.0,115.0,1080.674
1080684.0,55.0,44.0,26.0,113.0,1080.684
1080694.0,54.0,43.0,28.0,112.0,1080.694
1080704.0,54.0,44.0,23.0,111.0,1080.704
1080714.0,55.0,45.0,22.0,108.0,1080.714
1080724.0,54.0,46.0,24.0,118.0,1080.724
1080734.0,56.0,46.0,22.0,110.0,1080.734
1080744.0,58.0,46.0,22.0,117.0,1080.744
1080754.0,56.0,45.0,29.0,114.0,1080.754
1080764.0,56.0,46.0,28.0,119.0,1080.764
1080774.0,55.0,46.0,26.0,111.0,1080.774
1080784.0,55.0,43.0,24.0,108.0,1080.784
1080794.0,55.0,44.0,21.0,117.0,1080.794
1080804.0,56.0,42.0,19.0,106.0,1080.804
1080814.0,56.0,40.0,17.0,108.0,1080.814
1080824.0,56.0,39.0,15.0,105.0,1080.824
1080834.0,57.0,40.0,16.0,112.0,1080.834
1080844.0,56.0,41.0,14.0,104.0,1080.844
1080854.0,56.0,39.0,17.0,101.0,1080.854
1080864.0,54.0,40.0,19.0,112.0,1080.864
1080875.0,54.0,40.0,31.0,125.0,1080.875
1080885.0,55.0,40.0,28.0,120.0,1080.885
1080895.0,53.0,41.0,25.0,112.0,1080.895
1080905.0,55.0,40.0,22.0,108.0,1080.905
1080915.0,54.0,40.0,18.0,98.0,1080.915
1080925.0,53.0,40.0,22.0,93.0,1080.925
1080935.0,53.0,40.0,19.0,91.0,1080.935
1080945.0,55.0,38.0,17.0,94.0,1080.945
1080955.0,55.0,37.0,20.0,91.0,1080.955
1080965.0,56.0,38.0,21.0,88.0,1080.965
1080975.0,59.0,38.0,36.0,102.0,1080.975
1080985.0,58.0,38.0,32.0,99.0,1080.985
1080995.0,58.0,37.0,29.0,100.0,1080.995
1081005.0,58.0,39.0,30.0,113.0,1081.005
1081015.0,59.0,38.0,31.0,120.0,1081.015
1081025.0,60.0,38.0,30.0,127.0,1081.025
1081035.0,61.0,37.0,27.0,125.0,1081.035
1081046.0,62.0,37.0,24.0,117.0,1081.046
1081056.0,60.0,37.0,23.0,113.0,1081.056
1081066.0,59.0,36.0,25.0,111.0,1081.066
1081076.0,59.0,38.0,25.0,113.0,1081.076
1081086.0,59.0,38.0,29.0,108.0,1081.086
1081096.0,59.0,39.0,32.0,101.0,1081.096
1081106.0,60.0,39.0,31.0,107.0,1081.106
1081116.0,60.0,38.0,29.0,105.0,1081.116
1081126.0,59.0,38.0,26.0,98.0,1081.126
1081136.0,59.0,37.0,23.0,99.0,1081.136
1081146.0,60.0,39.0,21.0,94.0,1081.146
1081156.0,60.0,40.0,23.0,88.0,1081.156
1081166.0,60.0,41.0,23.0,87.0,1081.166
1081176.0,60.0,45.0,28.0,98.0,1081.176
1081186.0,59.0,43.0,25.0,101.0,1081.186
1081196.0,58.0,43.0,20.0,95.0,1081.196
1081206.0,58.0,43.0,20.0,91.0,1081.206
1081216.0,56.0,42.0,16.0,88.0,1081.216
1081226.0,56.0,42.0,15.0,94.0,1081.226
1081236.0,55.0,40.0,16.0,98.0,1081.236
1081246.0,55.0,39.0,16.0,98.0,1081.246
1081256.0,54.0,39.0,19.0,91.0,1081.256
1081266.0,53.0,39.0,22.0,89.0,1081.266
1081276.0,54.0,38.0,23.0,87.0,1081.276
1081286.0,54.0,37.0,20.0,94.0,1081.286
1081296.0,54.0,37.0,18.0,90.0,1081.296
1081306.0,54.0,37.0,18.0,87.0,1081.306
1081316.0,52.0,37.0,17.0,80.0,1081.316
1081326.0,53.0,38.0,19.0,82.0,1081.326
1081336.0,50.0,40.0,18.0,90.0,1081.336
1081346.0,52.0,40.0,16.0,87.0,1081.346
1081356.0,54.0,42.0,15.0,93.0,1081.356
1081366.0,55.0,43.0,25.0,88.0,1081.366
1081376.0,55.0,42.0,22.0,83.0,1081.376
1081387.0,54.0,42.0,19.0,82.0,1081.387
1081397.0,55.0,41.0,19.0,91.0,1081.397
1081407.0,54.0,41.0,16.0,100.0,1081.407
1081417.0,54.0,41.0,16.0,107.0,1081.417
1081427.0,55.0,40.0,15.0,104.0,1081.427
1081437.0,53.0,40.0,14.0,102.0,1081.437
1081447.0,53.0,39.0,15.0,100.0,1081.447
1081457.0,52.0,39.0,13.0,100.0,1081.457
1081467.0,52.0,41.0,24.0,99.0,1081.467
1081477.0,53.0,41.0,28.0,102.0,1081.477
1081487.0,53.0,41.0,24.0,97.0,1081.487
1081497.0,53.0,40.0,21.0,98.0,1081.497
1081507.0,53.0,40.0,19.0,108.0,1081.507
1081517.0,54.0,39.0,17.0,107.0,1081.517
1081527.0,53.0,40.0,19.0,100.0,1081.527
1081537.0,54.0,41.0,18.0,95.0,1081.537
1081547.0,52.0,40.0,17.0,90.0,1081.547
1081558.0,51.0,41.0,17.0,85.0,1081.558
1081568.0,51.0,43.0,32.0,84.0,1081.568
1081578.0,51.0,41.0,28.0,85.0,1081.578
1081588.0,50.0,41.0,27.0,93.0,1081.588
1081598.0,49.0,42.0,25.0,93.0,1081.598
1081608.0,50.0,41.0,22.0,92.0,1081.608
1081618.0,49.0,41.0,19.0,86.0,1081.618
1081628.0,50.0,40.0,18.0,83.0,1081.628
1081638.0,48.0,41.0,17.0,81.0,1081.638
1081648.0,48.0,40.0,16.0,78.0,1081.648
1081658.0,49.0,38.0,16.0,95.0,1081.658
1081668.0,48.0,40.0,17.0,105.0,1081.668
1081678.0,49.0,39.0,16.0,99.0,1081.678
1081688.0,48.0,38.0,15.0,97.0,1081.688
1081698.0,50.0,37.0,14.0,99.0,1081.698
1081708.0,51.0,37.0,12.0,95.0,1081.708
1081718.0,50.0,37.0,11.0,90.0,1081.718
1081728.0,50.0,37.0,10.0,87.0,1081.728
1081738.0,49.0,38.0,11.0,84.0,1081.738
1081748.0,51.0,39.0,18.0,87.0,1081.748
1081758.0,51.0,38.0,14.0,92.0,1081.758
1081768.0,51.0,38.0,16.0,97.0,1081.768
1081778.0,52.0,38.0,16.0,102.0,1081.778
1081788.0,51.0,38.0,17.0,107.0,1081.788
1081798.0,52.0,38.0,22.0,98.0,1081.798
1081808.0,52.0,40.0,25.0,98.0,1081.808
1081818.0,53.0,38.0,23.0,107.0,1081.818
1081828.0,52.0,39.0,20.0,114.0,1081.828
1081838.0,52.0,38.0,23.0,103.0,1081.838
1081848.0,52.0,37.0,26.0,99.0,1081.848
1081858.0,51.0,38.0,25.0,95.0,1081.858
1081868.0,52.0,38.0,26.0,96.0,1081.868
1081878.0,53.0,38.0,24.0,95.0,1081.878
1081888.0,53.0,38.0,27.0,98.0,1081.888
1081899.0,54.0,39.0,36.0,104.0,1081.899
1081909.0,53.0,40.0,36.0,106.0,1081.909
1081919.0,53.0,40.0,32.0,111.0,1081.919
1081929.0,53.0,39.0,28.0,102.0,1081.929
1081939.0,52.0,38.0,25.0,119.0,1081.939
1081949.0,51.0,38.0,23.0,110.0,1081.949
1081959.0,53.0,37.0,22.0,123.0,1081.959
1081969.0,52.0,36.0,20.0,130.0,1081.969
1081979.0,52.0,40.0,29.0,128.0,1081.979
1081989.0,54.0,40.0,28.0,121.0,1081.989
1081999.0,56.0,40.0,25.0,116.0,1081.999
1082009.0,56.0,38.0,22.0,108.0,1082.009
1082019.0,55.0,38.0,19.0,106.0,1082.019
1082029.0,56.0,37.0,19.0,106.0,1082.029
1082039.0,56.0,36.0,17.0,104.0,1082.039
1082049.0,54.0,37.0,18.0,100.0,1082.049
1082059.0,56.0,36.0,20.0,106.0,1082.059
1082070.0,56.0,37.0,17.0,101.0,1082.07
1082080.0,56.0,36.0,18.0,102.0,1082.08
1082090.0,58.0,36.0,15.0,102.0,1082.09
1082100.0,58.0,37.0,18.0,94.0,1082.1
1082110.0,56.0,38.0,26.0,89.0,1082.11
1082120.0,56.0,39.0,25.0,92.0,1082.12
1082130.0,56.0,38.0,22.0,95.0,1082.13
1082140.0,56.0,39.0,21.0,112.0,1082.14
1082150.0,55.0,38.0,25.0,111.0,1082.15
1082160.0,54.0,38.0,22.0,107.0,1082.16
1082170.0,55.0,38.0,21.0,117.0,1082.17
1082180.0,54.0,37.0,19.0,116.0,1082.18
1082190.0,54.0,37.0,18.0,113.0,1082.19
1082200.0,55.0,37.0,16.0,125.0,1082.2
1082210.0,57.0,39.0,24.0,118.0,1082.21
1082220.0,58.0,38.0,22.0,114.0,1082.22
1082230.0,57.0,39.0,21.0,106.0,1082.23
1082240.0,59.0,39.0,22.0,103.0,1082.24
1082250.0,59.0,38.0,18.0,98.0,1082.25
1082260.0,58.0,38.0,16.0,102.0,1082.26
1082270.0,59.0,37.0,18.0,97.0,1082.27
1082280.0,59.0,38.0,16.0,92.0,1082.28
1082290.0,59.0,36.0,16.0,88.0,1082.29
1082300.0,60.0,37.0,16.0,87.0,1082.3
1082310.0,60.0,37.0,15.0,87.0,1082.31
1082320.0,60.0,37.0,14.0,95.0,1082.32
1082330.0,60.0,37.0,13.0,94.0,1082.33
1082340.0,60.0,41.0,25.0,95.0,1082.34
1082350.0,64.0,43.0,27.0,94.0,1082.35
1082360.0,64.0,41.0,24.0,116.0,1082.36
1082370.0,65.0,40.0,21.0,114.0,1082.37
1082380.0,65.0,40.0,21.0,114.0,1082.38
1082390.0,66.0,38.0,18.0,109.0,1082.39
1082400.0,68.0,38.0,16.0,109.0,1082.4
1082411.0,66.0,41.0,23.0,111.0,1082.411
1082421.0,66.0,42.0,35.0,110.0,1082.421
1082431.0,66.0,40.0,33.0,108.0,1082.431
1082441.0,66.0,39.0,28.0,104.0,1082.441
1082451.0,66.0,39.0,26.0,93.0,1082.451
1082461.0,64.0,39.0,22.0,89.0,1082.461
1082471.0,61.0,41.0,20.0,94.0,1082.471
1082481.0,60.0,41.0,20.0,90.0,1082.481
1082491.0,58.0,43.0,20.0,100.0,1082.491
1082501.0,57.0,41.0,20.0,96.0,1082.501
1082511.0,55.0,42.0,28.0,95.0,1082.511
1082521.0,57.0,41.0,32.0,93.0,1082.521
1082531.0,56.0,40.0,28.0,106.0,1082.531
1082541.0,55.0,40.0,26.0,99.0,1082.541
1082551.0,55.0,39.0,23.0,99.0,1082.551
1082561.0,53.0,40.0,22.0,100.0,1082.561
1082571.0,51.0,38.0,19.0,98.0,1082.571
1082582.0,51.0,40.0,25.0,104.0,1082.582
1082592.0,51.0,38.0,27.0,106.0,1082.592
1082602.0,54.0,39.0,36.0,109.0,1082.602
1082612.0,55.0,39.0,41.0,110.0,1082.612
1082622.0,58.0,38.0,37.0,107.0,1082.622
1082632.0,57.0,39.0,33.0,113.0,1082.632
1082642.0,58.0,37.0,29.0,108.0,1082.642
1082652.0,58.0,39.0,28.0,107.0,1082.652
1082662.0,57.0,41.0,31.0,107.0,1082.662
1082672.0,57.0,40.0,31.0,110.0,1082.672
1082682.0,54.0,41.0,34.0,102.0,1082.682
1082692.0,54.0,44.0,36.0,111.0,1082.692
1082702.0,54.0,44.0,35.0,117.0,1082.702
1082712.0,54.0,43.0,31.0,113.0,1082.712
1082722.0,54.0,45.0,27.0,108.0,1082.722
1082732.0,53.0,47.0,26.0,104.0,1082.732
1082742.0,53.0,48.0,23.0,100.0,1082.742
1082752.0,52.0,48.0,22.0,98.0,1082.752
1082762.0,55.0,47.0,26.0,93.0,1082.762
1082772.0,55.0,47.0,26.0,102.0,1082.772
1082782.0,56.0,44.0,23.0,97.0,1082.782
1082792.0,55.0,46.0,35.0,98.0,1082.792
1082802.0,56.0,45.0,31.0,99.0,1082.802
1082812.0,56.0,43.0,27.0,102.0,1082.812
1082822.0,55.0,44.0,34.0,98.0,1082.822
1082832.0,56.0,44.0,31.0,96.0,1082.832
1082842.0,56.0,43.0,29.0,92.0,1082.842
1082852.0,56.0,42.0,27.0,92.0,1082.852
1082862.0,56.0,41.0,24.0,96.0,1082.862
1082872.0,58.0,40.0,25.0,97.0,1082.872
1082882.0,59.0,40.0,24.0,104.0,1082.882
1082892.0,58.0,41.0,20.0,96.0,1082.892
1082902.0,60.0,40.0,19.0,105.0,1082.902
1082912.0,59.0,41.0,20.0,121.0,1082.912
1082923.0,59.0,40.0,24.0,120.0,1082.923
1082933.0,59.0,39.0,21.0,112.0,1082.933
1082943.0,58.0,40.0,28.0,114.0,1082.943
1082953.0,60.0,39.0,25.0,110.0,1082.953
1082963.0,60.0,41.0,38.0,107.0,1082.963
1082973.0,60.0,40.0,34.0,99.0,1082.973
1082983.0,59.0,38.0,32.0,98.0,1082.983
1082993.0,61.0,38.0,30.0,94.0,1082.993
1083003.0,61.0,38.0,29.0,102.0,1083.003
1083013.0,62.0,38.0,29.0,107.0,1083.013
1083023.0,65.0,38.0,28.0,102.0,1083.023
1083033.0,65.0,36.0,23.0,103.0,1083.033
1083043.0,66.0,36.0,23.0,104.0,1083.043
1083053.0,67.0,39.0,33.0,100.0,1083.053
1083063.0,67.0,38.0,31.0,104.0,1083.063
1083073.0,68.0,38.0,30.0,103.0,1083.073
1083083.0,68.0,39.0,29.0,98.0,1083.083
1083094.0,68.0,38.0,27.0,93.0,1083.094
1083104.0,66.0,40.0,23.0,98.0,1083.104
1083114.0,67.0,40.0,22.0,95.0,1083.114
1083124.0,69.0,40.0,21.0,96.0,1083.124
1083134.0,67.0,40.0,19.0,91.0,1083.134
1083144.0,66.0,43.0,17.0,92.0,1083.144
1083154.0,65.0,45.0,28.0,97.0,1083.154
1083164.0,64.0,45.0,31.0,102.0,1083.164
1083174.0,63.0,45.0,27.0,102.0,1083.174
1083184.0,62.0,44.0,25.0,100.0,1083.184
1083194.0,59.0,47.0,30.0,102.0,1083.194
1083204.0,60.0,45.0,32.0,102.0,1083.204
1083214.0,59.0,44.0,29.0,105.0,1083.214
1083224.0,58.0,44.0,27.0,104.0,1083.224
1083234.0,59.0,43.0,26.0,110.0,1083.234
1083244.0,58.0,44.0,23.0,107.0,1083.244
1083254.0,59.0,44.0,21.0,117.0,1083.254
1083264.0,57.0,45.0,21.0,121.0,1083.264
1083274.0,59.0,42.0,21.0,118.0,1083.274
1083284.0,59.0,44.0,34.0,111.0,1083.284
1083294.0,57.0,44.0,34.0,108.0,1083.294
1083304.0,60.0,43.0,33.0,98.0,1083.304
1083314.0,58.0,43.0,28.0,99.0,1083.314
1083324.0,58.0,41.0,25.0,98.0,1083.324
1083334.0,59.0,42.0,26.0,98.0,1083.334
1083344.0,60.0,40.0,23.0,95.0,1083.344
1083354.0,62.0,39.0,21.0,96.0,1083.354
1083364.0,61.0,39.0,17.0,93.0,1083.364
1083374.0,62.0,39.0,19.0,93.0,1083.374
1083384.0,61.0,39.0,22.0,101.0,1083.384
1083394.0,63.0,39.0,22.0,105.0,1083.394
1083404.0,62.0,40.0,19.0,102.0,1083.404
1083414.0,64.0,40.0,17.0,114.0,1083.414
1083424.0,63.0,38.0,17.0,104.0,1083.424
1083435.0,63.0,38.0,15.0,108.0,1083.435
1083445.0,64.0,39.0,25.0,111.0,1083.445
1083455.0,62.0,38.0,22.0,109.0,1083.455
1083465.0,61.0,37.0,20.0,101.0,1083.465
1083475.0,61.0,39.0,18.0,107.0,1083.475
1083485.0,62.0,38.0,17.0,102.0,1083.485
1083495.0,63.0,39.0,24.0,96.0,1083.495
1083505.0,63.0,39.0,22.0,95.0,1083.505
1083515.0,64.0,39.0,26.0,90.0,1083.515
1083525.0,62.0,39.0,23.0,90.0,1083.525
1083535.0,63.0,37.0,21.0,84.0,1083.535
1083545.0,63.0,39.0,20.0,97.0,1083.545
1083555.0,63.0,38.0,18.0,94.0,1083.555
1083565.0,64.0,39.0,23.0,95.0,1083.565
1083575.0,63.0,40.0,31.0,96.0,1083.575
1083585.0,65.0,40.0,27.0,108.0,1083.585
1083595.0,64.0,38.0,26.0,120.0,1083.595
1083606.0,63.0,37.0,24.0,117.0,1083.606
1083616.0,63.0,37.0,21.0,115.0,1083.616
1083626.0,62.0,37.0,26.0,108.0,1083.626
1083636.0,61.0,36.0,24.0,103.0,1083.636
1083646.0,59.0,37.0,23.0,98.0,1083.646
1083656.0,61.0,35.0,21.0,95.0,1083.656
1083666.0,59.0,38.0,30.0,104.0,1083.666
1083676.0,60.0,37.0,27.0,100.0,1083.676
1083686.0,61.0,37.0,24.0,98.0,1083.686
1083696.0,60.0,37.0,23.0,100.0,1083.696
1083706.0,61.0,38.0,26.0,106.0,1083.706
1083716.0,60.0,38.0,24.0,106.0,1083.716
1083726.0,63.0,37.0,24.0,104.0,1083.726
1083736.0,60.0,38.0,20.0,97.0,1083.736
1083746.0,60.0,38.0,22.0,98.0,1083.746
1083756.0,60.0,38.0,20.0,92.0,1083.756
1083766.0,62.0,40.0,20.0,94.0,1083.766
1083776.0,62.0,42.0,21.0,92.0,1083.776
1083786.0,62.0,41.0,18.0,89.0,1083.786
1083796.0,65.0,40.0,17.0,91.0,1083.796
1083806.0,65.0,40.0,15.0,96.0,1083.806
1083816.0,66.0,39.0,20.0,91.0,1083.816
1083826.0,67.0,39.0,17.0,84.0,1083.826
1083836.0,67.0,38.0,16.0,77.0,1083.836
1083846.0,67.0,39.0,16.0,79.0,1083.846
1083856.0,66.0,39.0,15.0,78.0,1083.856
1083866.0,68.0,39.0,15.0,79.0,1083.866
1083876.0,66.0,38.0,12.0,105.0,1083.876
1083886.0,66.0,37.0,12.0,105.0,1083.886
1083896.0,66.0,40.0,17.0,106.0,1083.896
1083906.0,66.0,40.0,19.0,109.0,1083.906
1083916.0,66.0,38.0,19.0,108.0,1083.916
1083926.0,67.0,39.0,17.0,106.0,1083.926
1083936.0,68.0,38.0,17.0,101.0,1083.936
1083947.0,66.0,38.0,14.0,95.0,1083.947
1083957.0,67.0,38.0,15.0,97.0,1083.957
1083967.0,65.0,37.0,14.0,102.0,1083.967
1083977.0,64.0,37.0,15.0,100.0,1083.977
1083987.0,66.0,36.0,15.0,97.0,1083.987
1083997.0,63.0,37.0,24.0,92.0,1083.997
1084007.0,65.0,36.0,22.0,91.0,1084.007
1084017.0,62.0,38.0,20.0,96.0,1084.017
1084027.0,62.0,38.0,17.0,109.0,1084.027
1084037.0,61.0,39.0,16.0,104.0,1084.037
1084047.0,61.0,40.0,18.0,111.0,1084.047
1084057.0,61.0,40.0,17.0,104.0,1084.057
1084067.0,61.0,41.0,19.0,98.0,1084.067
1084077.0,61.0,41.0,17.0,94.0,1084.077
1084087.0,59.0,42.0,16.0,99.0,1084.087
1084097.0,58.0,43.0,15.0,90.0,1084.097
1084107.0,59.0,41.0,13.0,84.0,1084.107
1084118.0,58.0,43.0,13.0,81.0,1084.118
1084128.0,57.0,44.0,12.0,84.0,1084.128
1084138.0,57.0,48.0,17.0,84.0,1084.138
1084148.0,58.0,46.0,19.0,81.0,1084.148
1084158.0,57.0,44.0,15.0,86.0,1084.158
1084168.0,57.0,45.0,23.0,85.0,1084.168
1084178.0,57.0,43.0,20.0,85.0,1084.178
1084188.0,58.0,42.0,19.0,86.0,1084.188
1084198.0,59.0,42.0,20.0,85.0,1084.198
1084208.0,58.0,43.0,20.0,81.0,1084.208
1084218.0,59.0,42.0,18.0,79.0,1084.218
1084228.0,58.0,42.0,16.0,77.0,1084.228
1084238.0,59.0,40.0,15.0,78.0,1084.238
1084248.0,57.0,42.0,15.0,79.0,1084.248
1084258.0,58.0,41.0,13.0,79.0,1084.258
1084268.0,58.0,39.0,13.0,86.0,1084.268
1084278.0,58.0,40.0,13.0,88.0,1084.278
1084288.0,61.0,40.0,13.0,88.0,1084.288
1084298.0,58.0,42.0,14.0,99.0,1084.298
1084308.0,59.0,41.0,20.0,100.0,1084.308
1084318.0,59.0,40.0,17.0,104.0,1084.318
1084328.0,59.0,40.0,16.0,104.0,1084.328
1084338.0,58.0,39.0,14.0,100.0,1084.338
1084348.0,57.0,41.0,12.0,99.0,1084.348
1084358.0,58.0,41.0,12.0,97.0,1084.358
1084368.0,59.0,41.0,13.0,98.0,1084.368
1084378.0,60.0,43.0,12.0,106.0,1084.378
1084388.0,62.0,43.0,11.0,103.0,1084.388
1084398.0,62.0,45.0,12.0,104.0,1084.398
1084408.0,62.0,47.0,19.0,97.0,1084.408
1084418.0,63.0,47.0,19.0,98.0,1084.418
1084428.0,64.0,45.0,20.0,111.0,1084.428
1084438.0,64.0,45.0,16.0,123.0,1084.438
1084448.0,64.0,45.0,16.0,117.0,1084.448
1084459.0,66.0,47.0,16.0,107.0,1084.459
1084469.0,67.0,48.0,15.0,97.0,1084.469
1084479.0,66.0,48.0,14.0,108.0,1084.479
1084489.0,65.0,48.0,12.0,103.0,1084.489
1084499.0,67.0,49.0,18.0,103.0,1084.499
1084509.0,66.0,48.0,24.0,103.0,1084.509
1084519.0,65.0,47.0,22.0,97.0,1084.519
1084529.0,66.0,46.0,21.0,98.0,1084.529
1084539.0,65.0,46.0,19.0,101.0,1084.539
1084549.0,63.0,46.0,20.0,96.0,1084.549
1084559.0,63.0,45.0,17.0,97.0,1084.559
1084569.0,61.0,47.0,16.0,98.0,1084.569
1084579.0,61.0,46.0,14.0,92.0,1084.579
1084589.0,60.0,47.0,16.0,100.0,1084.589
1084599.0,59.0,46.0,15.0,100.0,1084.599
1084609.0,58.0,47.0,14.0,98.0,1084.609
1084619.0,57.0,46.0,12.0,88.0,1084.619
1084630.0,57.0,47.0,11.0,91.0,1084.63
1084640.0,57.0,46.0,12.0,87.0,1084.64
1084650.0,57.0,46.0,12.0,87.0,1084.65
1084660.0,58.0,45.0,10.0,88.0,1084.66
1084670.0,58.0,44.0,12.0,87.0,1084.67
1084680.0,58.0,46.0,11.0,85.0,1084.68
1084690.0,56.0,46.0,12.0,78.0,1084.69
1084700.0,54.0,48.0,11.0,86.0,1084.7
1084710.0,54.0,48.0,15.0,91.0,1084.71
1084720.0,54.0,49.0,20.0,88.0,1084.72
1084730.0,53.0,49.0,17.0,89.0,1084.73
1084740.0,54.0,49.0,16.0,82.0,1084.74
1084750.0,54.0,49.0,15.0,78.0,1084.75
1084760.0,53.0,48.0,14.0,76.0,1084.76
1084770.0,51.0,49.0,12.0,71.0,1084.77
1084780.0,51.0,48.0,12.0,68.0,1084.78
1084790.0,51.0,48.0,12.0,99.0,1084.79
1084800.0,52.0,46.0,12.0,104.0,1084.8
1084810.0,53.0,45.0,11.0,101.0,1084.81
1084820.0,54.0,44.0,11.0,97.0,1084.82
1084830.0,54.0,43.0,14.0,102.0,1084.83
1084840.0,55.0,43.0,17.0,116.0,1084.84
1084850.0,57.0,41.0,18.0,119.0,1084.85
1084860.0,58.0,42.0,16.0,114.0,1084.86
1084870.0,58.0,41.0,14.0,109.0,1084.87
1084880.0,57.0,41.0,15.0,104.0,1084.88
1084890.0,58.0,41.0,13.0,101.0,1084.89
1084900.0,58.0,40.0,14.0,105.0,1084.9
1084910.0,57.0,42.0,23.0,101.0,1084.91
1084920.0,59.0,42.0,22.0,98.0,1084.92
1084930.0,58.0,43.0,21.0,95.0,1084.93
1084940.0,58.0,42.0,21.0,88.0,1084.94
1084950.0,58.0,41.0,19.0,101.0,1084.95
1084960.0,57.0,42.0,17.0,105.0,1084.96
1084971.0,59.0,40.0,16.0,100.0,1084.971
1084981.0,59.0,40.0,14.0,100.0,1084.981
1084991.0,61.0,39.0,14.0,97.0,1084.991
1085001.0,61.0,40.0,11.0,96.0,1085.001
1085011.0,60.0,39.0,10.0,93.0,1085.011
1085021.0,59.0,37.0,9.0,93.0,1085.021
1085031.0,59.0,39.0,9.0,93.0,1085.031
1085041.0,59.0,38.0,9.0,92.0,1085.041
1085051.0,58.0,40.0,8.0,88.0,1085.051
1085061.0,59.0,39.0,10.0,92.0,1085.061
1085071.0,62.0,39.0,8.0,99.0,1085.071
1085081.0,60.0,40.0,13.0,109.0,1085.081
1085091.0,61.0,39.0,19.0,105.0,1085.091
1085101.0,61.0,41.0,18.0,105.0,1085.101
1085111.0,60.0,39.0,16.0,100.0,1085.111
1085121.0,60.0,38.0,14.0,119.0,1085.121
1085131.0,59.0,38.0,14.0,115.0,1085.131
1085142.0,58.0,37.0,12.0,107.0,1085.142
1085152.0,56.0,37.0,11.0,107.0,1085.152
1085162.0,56.0,37.0,15.0,104.0,1085.162
1085172.0,57.0,37.0,13.0,110.0,1085.172
1085182.0,57.0,36.0,14.0,102.0,1085.182
1085192.0,57.0,37.0,13.0,98.0,1085.192
1085202.0,56.0,39.0,14.0,92.0,1085.202
1085212.0,57.0,40.0,12.0,93.0,1085.212
1085222.0,55.0,41.0,12.0,86.0,1085.222
1085232.0,57.0,41.0,15.0,82.0,1085.232
1085242.0,58.0,41.0,13.0,83.0,1085.242
1085252.0,58.0,42.0,14.0,88.0,1085.252
1085262.0,58.0,43.0,15.0,91.0,1085.262
1085272.0,59.0,42.0,18.0,92.0,1085.272
1085282.0,59.0,42.0,16.0,91.0,1085.282
1085292.0,58.0,42.0,14.0,88.0,1085.292
1085302.0,59.0,41.0,14.0,93.0,1085.302
1085312.0,59.0,45.0,11.0,98.0,1085.312
1085322.0,60.0,43.0,11.0,93.0,1085.322
1085332.0,58.0,45.0,13.0,86.0,1085.332
1085342.0,58.0,45.0,12.0,86.0,1085.342
1085352.0,56.0,45.0,11.0,83.0,1085.352
1085362.0,55.0,45.0,10.0,84.0,1085.362
1085372.0,58.0,45.0,11.0,82.0,1085.372
1085382.0,58.0,45.0,10.0,81.0,1085.382
1085392.0,58.0,45.0,10.0,74.0,1085.392
1085402.0,58.0,47.0,9.0,71.0,1085.402
1085412.0,57.0,49.0,23.0,89.0,1085.412
1085422.0,58.0,48.0,21.0,104.0,1085.422
1085432.0,57.0,47.0,20.0,100.0,1085.432
1085442.0,58.0,46.0,18.0,94.0,1085.442
1085452.0,58.0,48.0,18.0,94.0,1085.452
1085462.0,57.0,48.0,16.0,87.0,1085.462
1085472.0,55.0,48.0,17.0,82.0,1085.472
1085483.0,53.0,49.0,16.0,85.0,1085.483
1085493.0,53.0,47.0,14.0,88.0,1085.493
1085503.0,52.0,46.0,14.0,89.0,1085.503
1085513.0,52.0,46.0,19.0,97.0,1085.513
1085523.0,53.0,46.0,19.0,96.0,1085.523
1085533.0,55.0,44.0,17.0,92.0,1085.533
1085543.0,55.0,44.0,17.0,92.0,1085.543
1085553.0,55.0,45.0,21.0,92.0,1085.553
1085563.0,56.0,45.0,18.0,87.0,1085.563
1085573.0,54.0,45.0,17.0,91.0,1085.573
1085583.0,53.0,44.0,16.0,91.0,1085.583
1085593.0,53.0,46.0,14.0,86.0,1085.593
1085603.0,54.0,44.0,13.0,84.0,1085.603
1085613.0,53.0,47.0,30.0,82.0,1085.613
1085623.0,54.0,47.0,27.0,90.0,1085.623
1085633.0,55.0,47.0,32.0,90.0,1085.633
1085643.0,52.0,47.0,28.0,91.0,1085.643
1085654.0,56.0,43.0,26.0,89.0,1085.654
1085664.0,55.0,44.0,24.0,93.0,1085.664
1085674.0,56.0,43.0,21.0,86.0,1085.674
1085684.0,55.0,44.0,19.0,85.0,1085.684
1085694.0,55.0,45.0,21.0,82.0,1085.694
1085704.0,55.0,45.0,21.0,80.0,1085.704
1085714.0,54.0,45.0,22.0,84.0,1085.714
1085724.0,55.0,45.0,19.0,81.0,1085.724
1085734.0,55.0,46.0,18.0,83.0,1085.734
1085744.0,56.0,45.0,21.0,76.0,1085.744
1085754.0,56.0,45.0,21.0,71.0,1085.754
1085764.0,55.0,47.0,19.0,76.0,1085.764
1085774.0,55.0,48.0,18.0,80.0,1085.774
1085784.0,53.0,49.0,20.0,85.0,1085.784
1085794.0,53.0,48.0,20.0,86.0,1085.794
1085804.0,53.0,47.0,18.0,89.0,1085.804
1085814.0,53.0,46.0,17.0,85.0,1085.814
1085824.0,53.0,45.0,20.0,82.0,1085.824
1085834.0,53.0,45.0,19.0,80.0,1085.834
1085844.0,54.0,43.0,17.0,82.0,1085.844
1085854.0,50.0,43.0,18.0,86.0,1085.854
1085864.0,51.0,43.0,21.0,87.0,1085.864
1085874.0,51.0,43.0,23.0,82.0,1085.874
1085884.0,50.0,40.0,20.0,76.0,1085.884
1085894.0,50.0,39.0,18.0,98.0,1085.894
1085904.0,50.0,40.0,18.0,97.0,1085.904
1085914.0,52.0,39.0,16.0,90.0,1085.914
1085924.0,51.0,39.0,13.0,91.0,1085.924
1085934.0,51.0,38.0,14.0,90.0,1085.934
1085944.0,51.0,40.0,14.0,83.0,1085.944
1085954.0,51.0,39.0,12.0,86.0,1085.954
