time (ms),signal 0,signal 1,signal 2,signal3,time (sec)
1041804.0,86.0,210.0,20.0,115.0,1041.804
1041814.0,87.0,209.0,18.0,120.0,1041.814
1041824.0,85.0,207.0,17.0,124.0,1041.824
1041835.0,86.0,205.0,16.0,117.0,1041.835
1041845.0,85.0,205.0,15.0,111.0,1041.845
1041855.0,86.0,205.0,14.0,105.0,1041.855
1041865.0,82.0,204.0,14.0,105.0,1041.865
1041875.0,82.0,204.0,14.0,105.0,1041.875
1041885.0,82.0,205.0,11.0,106.0,1041.885
1041895.0,83.0,206.0,11.0,114.0,1041.895
1041905.0,81.0,203.0,9.0,121.0,1041.905
1041915.0,79.0,201.0,10.0,125.0,1041.915
1041925.0,78.0,201.0,9.0,123.0,1041.925
1041935.0,76.0,199.0,10.0,123.0,1041.935
1041945.0,75.0,197.0,12.0,116.0,1041.945
1041955.0,76.0,200.0,21.0,134.0,1041.955
1041965.0,77.0,198.0,20.0,148.0,1041.965
1041975.0,76.0,195.0,18.0,136.0,1041.975
1041985.0,77.0,194.0,15.0,125.0,1041.985
1041995.0,77.0,191.0,15.0,120.0,1041.995
1042006.0,76.0,189.0,14.0,123.0,1042.006
1042016.0,76.0,185.0,13.0,122.0,1042.016
1042026.0,74.0,183.0,11.0,126.0,1042.026
1042036.0,74.0,182.0,11.0,122.0,1042.036
1042046.0,75.0,180.0,13.0,116.0,1042.046
1042056.0,74.0,180.0,19.0,112.0,1042.056
1042066.0,74.0,178.0,17.0,102.0,1042.066
1042076.0,72.0,179.0,14.0,102.0,1042.076
1042086.0,72.0,179.0,13.0,105.0,1042.086
1042096.0,71.0,181.0,13.0,114.0,1042.096
1042106.0,71.0,182.0,13.0,108.0,1042.106
1042116.0,68.0,180.0,12.0,100.0,1042.116
1042126.0,67.0,180.0,11.0,101.0,1042.126
1042136.0,66.0,179.0,11.0,97.0,1042.136
1042146.0,64.0,180.0,10.0,97.0,1042.146
1042156.0,63.0,177.0,11.0,90.0,1042.156
1042166.0,63.0,175.0,11.0,90.0,1042.166
1042176.0,64.0,172.0,11.0,83.0,1042.176
1042186.0,64.0,169.0,12.0,82.0,1042.186
1042196.0,63.0,167.0,13.0,97.0,1042.196
1042206.0,65.0,166.0,14.0,120.0,1042.206
1042216.0,62.0,164.0,12.0,114.0,1042.216
1042226.0,63.0,164.0,14.0,117.0,1042.226
1042236.0,62.0,164.0,16.0,127.0,1042.236
1042246.0,61.0,164.0,16.0,118.0,1042.246
1042256.0,61.0,163.0,16.0,115.0,1042.256
1042266.0,60.0,163.0,15.0,109.0,1042.266
1042276.0,60.0,162.0,17.0,105.0,1042.276
1042286.0,58.0,160.0,16.0,114.0,1042.286
1042296.0,57.0,160.0,15.0,117.0,1042.296
1042306.0,57.0,158.0,15.0,112.0,1042.306
1042316.0,58.0,157.0,14.0,110.0,1042.316
1042326.0,58.0,155.0,14.0,103.0,1042.326
1042336.0,58.0,154.0,13.0,111.0,1042.336
1042347.0,57.0,150.0,14.0,105.0,1042.347
1042357.0,57.0,149.0,16.0,112.0,1042.357
1042367.0,56.0,145.0,16.0,105.0,1042.367
1042377.0,57.0,146.0,17.0,112.0,1042.377
1042387.0,58.0,144.0,17.0,113.0,1042.387
1042397.0,57.0,141.0,17.0,108.0,1042.397
1042407.0,57.0,138.0,19.0,100.0,1042.407
1042417.0,59.0,136.0,19.0,99.0,1042.417
1042427.0,60.0,134.0,18.0,106.0,1042.427
1042437.0,60.0,132.0,16.0,113.0,1042.437
1042447.0,59.0,130.0,17.0,105.0,1042.447
1042457.0,59.0,128.0,15.0,114.0,1042.457
1042467.0,60.0,126.0,15.0,118.0,1042.467
1042477.0,59.0,124.0,14.0,111.0,1042.477
1042487.0,61.0,125.0,13.0,119.0,1042.487
1042497.0,60.0,122.0,12.0,123.0,1042.497
1042507.0,62.0,121.0,11.0,117.0,1042.507
1042518.0,62.0,121.0,11.0,127.0,1042.518
1042528.0,61.0,120.0,11.0,126.0,1042.528
1042538.0,61.0,120.0,14.0,137.0,1042.538
1042548.0,61.0,120.0,12.0,137.0,1042.548
1042558.0,58.0,121.0,12.0,135.0,1042.558
1042568.0,56.0,123.0,10.0,133.0,1042.568
1042578.0,54.0,120.0,9.0,125.0,1042.578
1042588.0,53.0,117.0,9.0,117.0,1042.588
1042598.0,53.0,124.0,9.0,114.0,1042.598
1042608.0,52.0,125.0,8.0,115.0,1042.608
1042618.0,52.0,129.0,8.0,115.0,1042.618
1042628.0,53.0,129.0,8.0,117.0,1042.628
1042638.0,52.0,130.0,6.0,120.0,1042.638
1042648.0,53.0,130.0,8.0,119.0,1042.648
1042658.0,51.0,129.0,6.0,110.0,1042.658
1042668.0,53.0,128.0,6.0,105.0,1042.668
1042678.0,52.0,123.0,6.0,114.0,1042.678
1042688.0,50.0,126.0,6.0,110.0,1042.688
1042698.0,54.0,129.0,6.0,106.0,1042.698
1042708.0,52.0,129.0,5.0,106.0,1042.708
1042718.0,53.0,128.0,7.0,117.0,1042.718
1042728.0,52.0,126.0,6.0,124.0,1042.728
1042738.0,53.0,127.0,6.0,123.0,1042.738
1042748.0,54.0,128.0,7.0,117.0,1042.748
1042758.0,51.0,125.0,5.0,128.0,1042.758
1042768.0,52.0,119.0,9.0,133.0,1042.768
1042778.0,52.0,120.0,8.0,125.0,1042.778
1042788.0,52.0,121.0,7.0,119.0,1042.788
1042798.0,51.0,120.0,9.0,117.0,1042.798
1042808.0,50.0,118.0,9.0,108.0,1042.808
1042818.0,50.0,115.0,9.0,107.0,1042.818
1042828.0,49.0,114.0,8.0,106.0,1042.828
1042838.0,51.0,112.0,9.0,104.0,1042.838
1042848.0,51.0,111.0,6.0,101.0,1042.848
1042859.0,51.0,109.0,8.0,121.0,1042.859
1042869.0,52.0,109.0,7.0,141.0,1042.869
1042879.0,53.0,108.0,7.0,128.0,1042.879
1042889.0,52.0,106.0,9.0,122.0,1042.889
1042899.0,53.0,105.0,12.0,114.0,1042.899
1042909.0,54.0,106.0,12.0,107.0,1042.909
1042919.0,54.0,107.0,10.0,98.0,1042.919
1042929.0,54.0,108.0,10.0,108.0,1042.929
1042939.0,55.0,108.0,9.0,111.0,1042.939
1042949.0,55.0,107.0,7.0,112.0,1042.949
1042959.0,55.0,104.0,8.0,119.0,1042.959
1042969.0,53.0,102.0,9.0,123.0,1042.969
1042979.0,54.0,102.0,10.0,125.0,1042.979
1042989.0,57.0,107.0,8.0,126.0,1042.989
1042999.0,55.0,105.0,8.0,121.0,1042.999
1043009.0,56.0,109.0,8.0,112.0,1043.009
1043019.0,61.0,124.0,8.0,105.0,1043.019
1043030.0,63.0,129.0,7.0,111.0,1043.03
1043040.0,63.0,128.0,7.0,105.0,1043.04
1043050.0,62.0,125.0,7.0,111.0,1043.05
1043060.0,62.0,123.0,6.0,103.0,1043.06
1043070.0,61.0,121.0,5.0,94.0,1043.07
1043080.0,60.0,118.0,5.0,99.0,1043.08
1043090.0,61.0,116.0,5.0,95.0,1043.09
1043100.0,60.0,109.0,6.0,108.0,1043.1
1043110.0,57.0,112.0,5.0,100.0,1043.11
1043120.0,63.0,118.0,9.0,104.0,1043.12
1043130.0,77.0,204.0,38.0,112.0,1043.13
1043140.0,86.0,207.0,37.0,111.0,1043.14
1043150.0,93.0,316.0,60.0,123.0,1043.15
1043160.0,110.0,344.0,67.0,124.0,1043.16
1043170.0,128.0,413.0,69.0,138.0,1043.17
1043180.0,129.0,400.0,61.0,143.0,1043.18
1043190.0,123.0,367.0,57.0,129.0,1043.19
1043200.0,114.0,342.0,49.0,121.0,1043.2
1043210.0,105.0,306.0,45.0,111.0,1043.21
1043220.0,100.0,291.0,43.0,101.0,1043.22
1043230.0,96.0,266.0,47.0,98.0,1043.23
1043240.0,92.0,266.0,48.0,96.0,1043.24
1043250.0,103.0,291.0,57.0,94.0,1043.25
1043260.0,105.0,290.0,58.0,88.0,1043.26
1043270.0,100.0,274.0,52.0,95.0,1043.27
1043280.0,103.0,286.0,54.0,96.0,1043.28
1043290.0,105.0,279.0,53.0,102.0,1043.29
1043300.0,101.0,267.0,46.0,97.0,1043.3
1043310.0,99.0,262.0,47.0,110.0,1043.31
1043320.0,103.0,270.0,49.0,102.0,1043.32
1043330.0,105.0,289.0,59.0,96.0,1043.33
1043340.0,115.0,308.0,58.0,93.0,1043.34
1043350.0,112.0,302.0,54.0,88.0,1043.35
1043360.0,109.0,284.0,50.0,89.0,1043.36
1043371.0,112.0,280.0,48.0,99.0,1043.371
1043381.0,120.0,293.0,51.0,95.0,1043.381
1043391.0,113.0,289.0,49.0,89.0,1043.391
1043401.0,110.0,277.0,56.0,87.0,1043.401
1043411.0,118.0,294.0,56.0,89.0,1043.411
1043421.0,116.0,280.0,55.0,92.0,1043.421
1043431.0,112.0,270.0,51.0,96.0,1043.431
1043441.0,115.0,272.0,50.0,90.0,1043.441
1043451.0,113.0,272.0,53.0,87.0,1043.451
1043461.0,123.0,297.0,56.0,98.0,1043.461
1043471.0,115.0,276.0,51.0,99.0,1043.471
1043481.0,111.0,267.0,52.0,94.0,1043.481
1043491.0,107.0,262.0,53.0,89.0,1043.491
1043501.0,104.0,254.0,48.0,91.0,1043.501
1043511.0,104.0,254.0,48.0,93.0,1043.511
1043521.0,102.0,246.0,46.0,98.0,1043.521
1043531.0,99.0,251.0,43.0,92.0,1043.531
1043542.0,102.0,247.0,49.0,88.0,1043.542
1043552.0,102.0,252.0,48.0,85.0,1043.552
1043562.0,106.0,265.0,50.0,84.0,1043.562
1043572.0,101.0,243.0,47.0,84.0,1043.572
1043582.0,99.0,241.0,45.0,82.0,1043.582
1043592.0,94.0,226.0,42.0,79.0,1043.592
1043602.0,94.0,222.0,41.0,84.0,1043.602
1043612.0,93.0,222.0,44.0,83.0,1043.612
1043622.0,88.0,211.0,39.0,83.0,1043.622
1043632.0,84.0,211.0,37.0,83.0,1043.632
1043642.0,88.0,213.0,37.0,102.0,1043.642
1043652.0,98.0,234.0,41.0,103.0,1043.652
1043662.0,94.0,218.0,36.0,100.0,1043.662
1043672.0,94.0,213.0,35.0,109.0,1043.672
1043682.0,88.0,207.0,34.0,121.0,1043.682
1043692.0,86.0,200.0,32.0,119.0,1043.692
1043702.0,85.0,204.0,34.0,117.0,1043.702
1043712.0,90.0,208.0,36.0,126.0,1043.712
1043722.0,87.0,198.0,33.0,142.0,1043.722
1043732.0,82.0,182.0,32.0,130.0,1043.732
1043742.0,83.0,179.0,39.0,128.0,1043.742
1043752.0,81.0,175.0,41.0,147.0,1043.752
1043762.0,77.0,170.0,38.0,152.0,1043.762
1043772.0,79.0,211.0,43.0,140.0,1043.772
1043782.0,76.0,193.0,39.0,135.0,1043.782
1043792.0,78.0,193.0,40.0,124.0,1043.792
1043802.0,85.0,199.0,42.0,119.0,1043.802
1043812.0,81.0,186.0,41.0,115.0,1043.812
1043822.0,80.0,181.0,48.0,106.0,1043.822
1043832.0,78.0,181.0,43.0,99.0,1043.832
1043842.0,86.0,197.0,46.0,91.0,1043.842
1043852.0,86.0,186.0,50.0,84.0,1043.852
1043862.0,87.0,184.0,47.0,80.0,1043.862
1043872.0,93.0,195.0,57.0,78.0,1043.872
1043883.0,95.0,198.0,68.0,88.0,1043.883
1043893.0,94.0,200.0,65.0,88.0,1043.893
1043903.0,92.0,213.0,72.0,84.0,1043.903
1043913.0,87.0,222.0,63.0,86.0,1043.913
1043923.0,88.0,233.0,61.0,85.0,1043.923
1043933.0,88.0,257.0,96.0,102.0,1043.933
1043943.0,99.0,284.0,153.0,146.0,1043.943
1043953.0,94.0,291.0,196.0,164.0,1043.953
1043963.0,100.0,299.0,204.0,200.0,1043.963
1043973.0,101.0,294.0,190.0,190.0,1043.973
1043983.0,102.0,296.0,219.0,209.0,1043.983
1043993.0,104.0,287.0,245.0,212.0,1043.993
1044003.0,102.0,281.0,233.0,198.0,1044.003
1044013.0,101.0,267.0,221.0,214.0,1044.013
1044023.0,98.0,274.0,215.0,218.0,1044.023
1044033.0,97.0,266.0,244.0,213.0,1044.033
1044043.0,91.0,266.0,250.0,234.0,1044.043
1044054.0,92.0,274.0,261.0,272.0,1044.054
1044064.0,90.0,273.0,252.0,254.0,1044.064
1044074.0,91.0,279.0,235.0,232.0,1044.074
1044084.0,90.0,274.0,205.0,228.0,1044.084
1044094.0,92.0,288.0,189.0,241.0,1044.094
1044104.0,97.0,286.0,173.0,243.0,1044.104
1044114.0,103.0,311.0,157.0,250.0,1044.114
1044124.0,106.0,291.0,146.0,243.0,1044.124
1044134.0,116.0,295.0,148.0,273.0,1044.134
1044144.0,118.0,295.0,138.0,262.0,1044.144
1044154.0,121.0,288.0,128.0,260.0,1044.154
1044164.0,127.0,298.0,115.0,253.0,1044.164
1044174.0,129.0,288.0,103.0,231.0,1044.174
1044184.0,133.0,288.0,96.0,236.0,1044.184
1044194.0,134.0,284.0,90.0,236.0,1044.194
1044204.0,129.0,265.0,87.0,229.0,1044.204
1044214.0,129.0,261.0,83.0,236.0,1044.214
1044224.0,133.0,271.0,82.0,230.0,1044.224
1044234.0,130.0,251.0,80.0,221.0,1044.234
1044244.0,129.0,230.0,72.0,212.0,1044.244
1044254.0,135.0,225.0,75.0,219.0,1044.254
1044264.0,128.0,208.0,70.0,200.0,1044.264
1044274.0,129.0,195.0,62.0,190.0,1044.274
1044284.0,127.0,184.0,55.0,187.0,1044.284
1044294.0,128.0,178.0,49.0,183.0,1044.294
1044304.0,128.0,168.0,47.0,183.0,1044.304
1044314.0,131.0,161.0,51.0,191.0,1044.314
1044324.0,130.0,155.0,60.0,179.0,1044.324
1044334.0,130.0,146.0,65.0,172.0,1044.334
1044344.0,129.0,133.0,62.0,165.0,1044.344
1044354.0,130.0,123.0,58.0,172.0,1044.354
1044364.0,135.0,116.0,54.0,165.0,1044.364
1044374.0,137.0,112.0,51.0,159.0,1044.374
1044384.0,144.0,112.0,52.0,198.0,1044.384
1044395.0,164.0,113.0,68.0,201.0,1044.395
1044405.0,162.0,115.0,77.0,237.0,1044.405
1044415.0,157.0,107.0,76.0,235.0,1044.415
1044425.0,230.0,112.0,85.0,236.0,1044.425
1044435.0,242.0,110.0,120.0,295.0,1044.435
1044445.0,238.0,107.0,156.0,311.0,1044.445
1044455.0,224.0,108.0,166.0,313.0,1044.455
1044465.0,209.0,103.0,173.0,316.0,1044.465
1044475.0,195.0,111.0,158.0,344.0,1044.475
1044485.0,185.0,119.0,144.0,356.0,1044.485
1044495.0,172.0,134.0,149.0,349.0,1044.495
1044505.0,160.0,158.0,138.0,330.0,1044.505
1044515.0,154.0,188.0,141.0,329.0,1044.515
1044525.0,147.0,210.0,134.0,363.0,1044.525
1044535.0,142.0,241.0,140.0,392.0,1044.535
1044545.0,130.0,268.0,124.0,384.0,1044.545
1044555.0,121.0,288.0,119.0,406.0,1044.555
1044566.0,111.0,307.0,116.0,398.0,1044.566
1044576.0,102.0,317.0,109.0,358.0,1044.576
1044586.0,95.0,329.0,100.0,354.0,1044.586
1044596.0,92.0,335.0,104.0,352.0,1044.596
1044606.0,90.0,346.0,97.0,353.0,1044.606
1044616.0,86.0,349.0,86.0,328.0,1044.616
1044626.0,80.0,352.0,78.0,309.0,1044.626
1044636.0,76.0,357.0,72.0,289.0,1044.636
1044646.0,76.0,355.0,70.0,272.0,1044.646
1044656.0,74.0,357.0,77.0,276.0,1044.656
1044666.0,70.0,356.0,79.0,284.0,1044.666
1044676.0,68.0,358.0,92.0,268.0,1044.676
1044686.0,66.0,358.0,84.0,287.0,1044.686
1044696.0,67.0,357.0,79.0,290.0,1044.696
1044706.0,66.0,354.0,75.0,296.0,1044.706
1044716.0,66.0,348.0,75.0,268.0,1044.716
1044726.0,65.0,342.0,71.0,248.0,1044.726
1044736.0,65.0,338.0,69.0,232.0,1044.736
1044746.0,67.0,336.0,64.0,249.0,1044.746
1044756.0,66.0,332.0,65.0,244.0,1044.756
1044766.0,69.0,327.0,57.0,230.0,1044.766
1044776.0,69.0,322.0,53.0,227.0,1044.776
1044786.0,68.0,316.0,58.0,230.0,1044.786
1044796.0,68.0,310.0,67.0,212.0,1044.796
1044806.0,68.0,304.0,61.0,216.0,1044.806
1044816.0,69.0,298.0,61.0,208.0,1044.816
1044826.0,68.0,292.0,58.0,196.0,1044.826
1044836.0,71.0,289.0,57.0,185.0,1044.836
1044846.0,71.0,284.0,63.0,188.0,1044.846
1044856.0,74.0,280.0,58.0,187.0,1044.856
1044866.0,71.0,272.0,56.0,190.0,1044.866
1044876.0,73.0,268.0,53.0,200.0,1044.876
1044886.0,77.0,264.0,49.0,197.0,1044.886
1044896.0,74.0,256.0,44.0,183.0,1044.896
1044907.0,74.0,248.0,55.0,189.0,1044.907
1044917.0,79.0,245.0,48.0,195.0,1044.917
1044927.0,79.0,238.0,43.0,184.0,1044.927
1044937.0,79.0,232.0,37.0,172.0,1044.937
1044947.0,79.0,225.0,41.0,178.0,1044.947
1044957.0,81.0,222.0,37.0,190.0,1044.957
1044967.0,81.0,217.0,32.0,179.0,1044.967
1044977.0,81.0,212.0,30.0,170.0,1044.977
1044987.0,79.0,202.0,34.0,165.0,1044.987
1044997.0,81.0,201.0,37.0,165.0,1044.997
1045007.0,81.0,195.0,42.0,153.0,1045.007
1045017.0,81.0,190.0,41.0,154.0,1045.017
1045027.0,81.0,186.0,39.0,151.0,1045.027
1045037.0,78.0,180.0,34.0,145.0,1045.037
1045047.0,77.0,175.0,52.0,141.0,1045.047
1045057.0,78.0,173.0,54.0,142.0,1045.057
1045067.0,79.0,170.0,49.0,146.0,1045.067
1045078.0,81.0,168.0,43.0,145.0,1045.078
1045088.0,81.0,165.0,37.0,148.0,1045.088
1045098.0,84.0,163.0,35.0,157.0,1045.098
1045108.0,82.0,159.0,34.0,156.0,1045.108
1045118.0,82.0,157.0,45.0,179.0,1045.118
1045128.0,83.0,154.0,44.0,176.0,1045.128
1045138.0,86.0,153.0,45.0,171.0,1045.138
1045148.0,88.0,151.0,43.0,160.0,1045.148
1045158.0,87.0,149.0,41.0,151.0,1045.158
1045168.0,89.0,148.0,45.0,150.0,1045.168
1045178.0,91.0,147.0,39.0,153.0,1045.178
1045188.0,94.0,145.0,35.0,141.0,1045.188
1045198.0,95.0,146.0,31.0,136.0,1045.198
1045208.0,95.0,144.0,28.0,130.0,1045.208
1045218.0,95.0,138.0,35.0,152.0,1045.218
1045228.0,96.0,137.0,40.0,172.0,1045.228
1045238.0,99.0,138.0,40.0,170.0,1045.238
1045248.0,99.0,136.0,34.0,160.0,1045.248
1045258.0,98.0,133.0,35.0,152.0,1045.258
1045268.0,97.0,130.0,46.0,148.0,1045.268
1045278.0,98.0,129.0,43.0,141.0,1045.278
1045288.0,98.0,129.0,44.0,155.0,1045.288
1045298.0,99.0,130.0,40.0,150.0,1045.298
1045308.0,100.0,128.0,36.0,137.0,1045.308
1045318.0,98.0,125.0,36.0,128.0,1045.318
1045328.0,102.0,126.0,33.0,127.0,1045.328
1045338.0,103.0,125.0,29.0,124.0,1045.338
1045348.0,103.0,125.0,27.0,116.0,1045.348
1045358.0,102.0,120.0,32.0,119.0,1045.358
1045368.0,105.0,119.0,37.0,128.0,1045.368
1045378.0,107.0,118.0,35.0,117.0,1045.378
1045388.0,108.0,117.0,30.0,112.0,1045.388
1045398.0,108.0,115.0,28.0,103.0,1045.398
1045408.0,108.0,113.0,30.0,101.0,1045.408
1045419.0,109.0,109.0,27.0,106.0,1045.419
1045429.0,110.0,108.0,38.0,107.0,1045.429
1045439.0,107.0,104.0,37.0,109.0,1045.439
1045449.0,109.0,105.0,34.0,111.0,1045.449
1045459.0,105.0,101.0,34.0,114.0,1045.459
1045469.0,106.0,103.0,39.0,119.0,1045.469
1045479.0,107.0,105.0,45.0,115.0,1045.479
1045489.0,104.0,104.0,47.0,110.0,1045.489
1045499.0,104.0,103.0,41.0,110.0,1045.499
1045509.0,103.0,103.0,41.0,110.0,1045.509
1045519.0,103.0,103.0,40.0,105.0,1045.519
1045529.0,100.0,99.0,48.0,103.0,1045.529
1045539.0,103.0,101.0,47.0,107.0,1045.539
1045549.0,104.0,103.0,43.0,100.0,1045.549
1045559.0,104.0,102.0,37.0,98.0,1045.559
1045569.0,103.0,100.0,34.0,98.0,1045.569
1045579.0,101.0,98.0,32.0,108.0,1045.579
1045590.0,101.0,96.0,35.0,112.0,1045.59
1045600.0,101.0,95.0,30.0,116.0,1045.6
1045610.0,99.0,91.0,31.0,105.0,1045.61
1045620.0,100.0,93.0,35.0,109.0,1045.62
1045630.0,101.0,92.0,31.0,104.0,1045.63
1045640.0,100.0,91.0,32.0,97.0,1045.64
1045650.0,99.0,90.0,29.0,92.0,1045.65
1045660.0,100.0,89.0,35.0,101.0,1045.66
1045670.0,99.0,89.0,30.0,101.0,1045.67
1045680.0,99.0,87.0,27.0,99.0,1045.68
1045690.0,99.0,86.0,43.0,105.0,1045.69
1045700.0,100.0,87.0,40.0,104.0,1045.7
1045710.0,100.0,84.0,36.0,99.0,1045.71
1045720.0,99.0,84.0,33.0,105.0,1045.72
1045730.0,100.0,83.0,31.0,99.0,1045.73
1045740.0,99.0,79.0,32.0,101.0,1045.74
1045750.0,99.0,81.0,46.0,104.0,1045.75
1045760.0,101.0,81.0,42.0,111.0,1045.76
1045770.0,101.0,80.0,37.0,113.0,1045.77
1045780.0,100.0,78.0,35.0,102.0,1045.78
1045790.0,101.0,77.0,31.0,97.0,1045.79
1045800.0,100.0,76.0,27.0,98.0,1045.8
1045810.0,99.0,75.0,26.0,94.0,1045.81
1045820.0,98.0,72.0,27.0,91.0,1045.82
1045830.0,98.0,72.0,32.0,97.0,1045.83
1045840.0,99.0,73.0,43.0,90.0,1045.84
1045850.0,98.0,72.0,39.0,88.0,1045.85
1045860.0,98.0,70.0,35.0,82.0,1045.86
1045870.0,100.0,68.0,37.0,78.0,1045.87
1045880.0,99.0,67.0,31.0,77.0,1045.88
1045890.0,100.0,66.0,37.0,79.0,1045.89
1045900.0,101.0,65.0,33.0,87.0,1045.9
1045910.0,99.0,63.0,30.0,88.0,1045.91
1045920.0,99.0,60.0,36.0,89.0,1045.92
1045931.0,99.0,60.0,31.0,84.0,1045.931
1045941.0,97.0,58.0,28.0,80.0,1045.941
1045951.0,94.0,59.0,30.0,79.0,1045.951
1045961.0,94.0,58.0,26.0,79.0,1045.961
1045971.0,94.0,59.0,34.0,79.0,1045.971
1045981.0,94.0,59.0,31.0,83.0,1045.981
1045991.0,94.0,58.0,28.0,82.0,1045.991
1046001.0,94.0,59.0,24.0,81.0,1046.001
1046011.0,96.0,60.0,23.0,77.0,1046.011
1046021.0,97.0,63.0,20.0,73.0,1046.021
1046031.0,94.0,62.0,23.0,73.0,1046.031
1046041.0,95.0,63.0,36.0,70.0,1046.041
1046051.0,94.0,65.0,33.0,70.0,1046.051
1046061.0,94.0,64.0,30.0,72.0,1046.061
1046071.0,93.0,63.0,25.0,70.0,1046.071
1046081.0,93.0,62.0,25.0,82.0,1046.081
1046091.0,95.0,63.0,22.0,81.0,1046.091
1046102.0,94.0,61.0,24.0,79.0,1046.102
1046112.0,95.0,59.0,23.0,76.0,1046.112
1046122.0,94.0,60.0,34.0,75.0,1046.122
1046132.0,95.0,61.0,34.0,69.0,1046.132
1046142.0,94.0,60.0,30.0,72.0,1046.142
1046152.0,95.0,60.0,28.0,69.0,1046.152
1046162.0,94.0,58.0,24.0,72.0,1046.162
1046172.0,92.0,56.0,22.0,67.0,1046.172
1046182.0,94.0,55.0,20.0,73.0,1046.182
1046192.0,95.0,55.0,19.0,79.0,1046.192
1046202.0,96.0,53.0,30.0,74.0,1046.202
1046212.0,98.0,55.0,36.0,73.0,1046.212
1046222.0,100.0,57.0,32.0,75.0,1046.222
1046232.0,100.0,57.0,28.0,70.0,1046.232
1046242.0,99.0,56.0,24.0,69.0,1046.242
1046252.0,99.0,55.0,26.0,75.0,1046.252
1046262.0,101.0,55.0,25.0,81.0,1046.262
1046272.0,102.0,54.0,26.0,78.0,1046.272
1046282.0,102.0,54.0,35.0,85.0,1046.282
1046292.0,101.0,53.0,40.0,80.0,1046.292
1046302.0,101.0,51.0,36.0,78.0,1046.302
1046312.0,98.0,52.0,33.0,76.0,1046.312
1046322.0,99.0,53.0,31.0,79.0,1046.322
1046332.0,98.0,54.0,30.0,76.0,1046.332
1046342.0,99.0,52.0,28.0,70.0,1046.342
1046352.0,99.0,52.0,28.0,68.0,1046.352
1046362.0,97.0,51.0,26.0,70.0,1046.362
1046372.0,99.0,51.0,31.0,73.0,1046.372
1046382.0,98.0,53.0,34.0,69.0,1046.382
1046392.0,98.0,51.0,35.0,77.0,1046.392
1046402.0,96.0,51.0,34.0,75.0,1046.402
1046412.0,97.0,52.0,33.0,74.0,1046.412
1046422.0,96.0,50.0,30.0,70.0,1046.422
1046432.0,97.0,51.0,27.0,71.0,1046.432
1046443.0,97.0,51.0,24.0,67.0,1046.443
1046453.0,96.0,51.0,22.0,73.0,1046.453
1046463.0,94.0,49.0,31.0,77.0,1046.463
1046473.0,94.0,51.0,35.0,78.0,1046.473
1046483.0,93.0,50.0,33.0,83.0,1046.483
1046493.0,93.0,50.0,41.0,82.0,1046.493
1046503.0,94.0,51.0,40.0,82.0,1046.503
1046513.0,95.0,51.0,38.0,77.0,1046.513
1046523.0,94.0,50.0,34.0,74.0,1046.523
1046533.0,96.0,49.0,31.0,72.0,1046.533
1046543.0,95.0,51.0,28.0,70.0,1046.543
1046553.0,94.0,50.0,32.0,71.0,1046.553
1046563.0,95.0,52.0,37.0,69.0,1046.563
1046573.0,93.0,52.0,39.0,69.0,1046.573
1046583.0,95.0,53.0,37.0,71.0,1046.583
1046593.0,92.0,52.0,37.0,69.0,1046.593
1046603.0,94.0,53.0,33.0,68.0,1046.603
1046614.0,93.0,53.0,28.0,68.0,1046.614
1046624.0,93.0,53.0,25.0,64.0,1046.624
1046634.0,91.0,52.0,24.0,62.0,1046.634
1046644.0,90.0,52.0,28.0,61.0,1046.644
1046654.0,90.0,53.0,31.0,59.0,1046.654
1046664.0,87.0,53.0,28.0,70.0,1046.664
1046674.0,89.0,53.0,25.0,72.0,1046.674
1046684.0,89.0,54.0,22.0,76.0,1046.684
1046694.0,91.0,54.0,20.0,70.0,1046.694
1046704.0,91.0,53.0,21.0,65.0,1046.704
1046714.0,89.0,52.0,21.0,70.0,1046.714
1046724.0,90.0,51.0,32.0,69.0,1046.724
1046734.0,88.0,50.0,27.0,69.0,1046.734
1046744.0,88.0,49.0,25.0,69.0,1046.744
1046754.0,86.0,49.0,24.0,77.0,1046.754
1046764.0,85.0,47.0,27.0,81.0,1046.764
1046774.0,85.0,46.0,24.0,79.0,1046.774
1046784.0,85.0,45.0,21.0,76.0,1046.784
1046794.0,87.0,43.0,20.0,81.0,1046.794
1046804.0,84.0,43.0,23.0,83.0,1046.804
1046814.0,85.0,41.0,21.0,81.0,1046.814
1046824.0,86.0,45.0,27.0,85.0,1046.824
1046834.0,86.0,44.0,26.0,78.0,1046.834
1046844.0,84.0,42.0,25.0,75.0,1046.844
1046854.0,84.0,42.0,24.0,77.0,1046.854
1046864.0,83.0,42.0,23.0,75.0,1046.864
1046874.0,80.0,41.0,20.0,76.0,1046.874
1046884.0,80.0,41.0,25.0,88.0,1046.884
1046894.0,80.0,43.0,25.0,85.0,1046.894
1046904.0,79.0,42.0,31.0,81.0,1046.904
1046914.0,79.0,42.0,29.0,78.0,1046.914
1046924.0,77.0,43.0,26.0,72.0,1046.924
1046934.0,78.0,42.0,30.0,70.0,1046.934
1046944.0,76.0,41.0,26.0,72.0,1046.944
1046955.0,77.0,40.0,25.0,67.0,1046.955
1046965.0,77.0,42.0,26.0,66.0,1046.965
1046975.0,76.0,40.0,22.0,59.0,1046.975
1046985.0,77.0,41.0,34.0,59.0,1046.985
1046995.0,76.0,41.0,31.0,59.0,1046.995
1047005.0,76.0,40.0,27.0,63.0,1047.005
1047015.0,76.0,39.0,23.0,58.0,1047.015
1047025.0,77.0,39.0,22.0,58.0,1047.025
1047035.0,75.0,39.0,19.0,62.0,1047.035
1047045.0,73.0,37.0,27.0,70.0,1047.045
1047055.0,73.0,36.0,28.0,72.0,1047.055
1047065.0,73.0,38.0,33.0,68.0,1047.065
1047075.0,75.0,39.0,36.0,70.0,1047.075
1047085.0,73.0,40.0,31.0,64.0,1047.085
1047095.0,72.0,39.0,28.0,65.0,1047.095
1047105.0,71.0,40.0,27.0,62.0,1047.105
1047115.0,70.0,38.0,27.0,58.0,1047.115
1047126.0,68.0,39.0,31.0,61.0,1047.126
1047136.0,68.0,38.0,32.0,59.0,1047.136
1047146.0,69.0,38.0,29.0,59.0,1047.146
1047156.0,68.0,40.0,32.0,57.0,1047.156
1047166.0,66.0,39.0,35.0,53.0,1047.166
1047176.0,66.0,38.0,33.0,56.0,1047.176
1047186.0,64.0,38.0,29.0,55.0,1047.186
1047196.0,61.0,39.0,29.0,63.0,1047.196
1047206.0,61.0,39.0,25.0,64.0,1047.206
1047216.0,61.0,38.0,25.0,66.0,1047.216
1047226.0,60.0,38.0,22.0,66.0,1047.226
1047236.0,60.0,37.0,21.0,60.0,1047.236
1047246.0,59.0,38.0,20.0,61.0,1047.246
1047256.0,59.0,37.0,18.0,60.0,1047.256
1047266.0,57.0,36.0,27.0,63.0,1047.266
1047276.0,57.0,37.0,41.0,69.0,1047.276
1047286.0,59.0,38.0,39.0,68.0,1047.286
1047296.0,60.0,39.0,34.0,65.0,1047.296
1047306.0,61.0,40.0,36.0,64.0,1047.306
1047316.0,63.0,41.0,35.0,68.0,1047.316
1047326.0,63.0,40.0,31.0,76.0,1047.326
1047336.0,64.0,39.0,27.0,77.0,1047.336
1047346.0,64.0,39.0,28.0,76.0,1047.346
1047356.0,65.0,39.0,26.0,74.0,1047.356
1047366.0,64.0,38.0,23.0,71.0,1047.366
1047376.0,63.0,37.0,21.0,71.0,1047.376
1047386.0,64.0,39.0,19.0,70.0,1047.386
1047396.0,64.0,38.0,19.0,67.0,1047.396
1047406.0,64.0,37.0,19.0,68.0,1047.406
1047416.0,64.0,37.0,20.0,69.0,1047.416
1047426.0,64.0,37.0,22.0,66.0,1047.426
1047436.0,64.0,38.0,32.0,62.0,1047.436
1047446.0,62.0,37.0,29.0,61.0,1047.446
1047456.0,62.0,37.0,29.0,59.0,1047.456
1047467.0,60.0,38.0,29.0,54.0,1047.467
1047477.0,61.0,38.0,30.0,56.0,1047.477
1047487.0,61.0,38.0,29.0,59.0,1047.487
1047497.0,62.0,38.0,28.0,66.0,1047.497
1047507.0,62.0,39.0,28.0,68.0,1047.507
1047517.0,62.0,40.0,43.0,71.0,1047.517
1047527.0,64.0,40.0,40.0,65.0,1047.527
1047537.0,64.0,40.0,35.0,61.0,1047.537
1047547.0,64.0,40.0,32.0,58.0,1047.547
1047557.0,63.0,39.0,29.0,62.0,1047.557
1047567.0,64.0,40.0,32.0,66.0,1047.567
1047577.0,64.0,41.0,28.0,73.0,1047.577
1047587.0,63.0,40.0,24.0,69.0,1047.587
1047597.0,64.0,41.0,22.0,65.0,1047.597
1047607.0,64.0,41.0,19.0,60.0,1047.607
1047617.0,63.0,40.0,34.0,62.0,1047.617
1047627.0,64.0,40.0,31.0,63.0,1047.627
1047638.0,63.0,38.0,28.0,62.0,1047.638
1047648.0,64.0,39.0,26.0,62.0,1047.648
1047658.0,67.0,39.0,24.0,62.0,1047.658
1047668.0,68.0,39.0,21.0,63.0,1047.668
1047678.0,67.0,38.0,18.0,58.0,1047.678
1047688.0,67.0,38.0,20.0,57.0,1047.688
1047698.0,68.0,40.0,21.0,58.0,1047.698
1047708.0,68.0,39.0,25.0,64.0,1047.708
1047718.0,68.0,39.0,24.0,69.0,1047.718
1047728.0,66.0,40.0,29.0,65.0,1047.728
1047738.0,65.0,40.0,29.0,66.0,1047.738
1047748.0,65.0,40.0,29.0,70.0,1047.748
1047758.0,65.0,39.0,29.0,70.0,1047.758
1047768.0,65.0,40.0,25.0,66.0,1047.768
1047778.0,65.0,39.0,29.0,70.0,1047.778
1047788.0,62.0,40.0,26.0,69.0,1047.788
1047798.0,63.0,39.0,25.0,66.0,1047.798
1047808.0,65.0,40.0,23.0,69.0,1047.808
1047818.0,65.0,41.0,24.0,68.0,1047.818
1047828.0,66.0,41.0,28.0,65.0,1047.828
1047838.0,65.0,43.0,37.0,71.0,1047.838
1047848.0,64.0,42.0,43.0,76.0,1047.848
1047858.0,65.0,42.0,38.0,75.0,1047.858
1047868.0,64.0,42.0,34.0,69.0,1047.868
1047878.0,65.0,42.0,29.0,68.0,1047.878
1047888.0,65.0,42.0,31.0,70.0,1047.888
1047898.0,65.0,40.0,28.0,67.0,1047.898
1047908.0,64.0,42.0,25.0,65.0,1047.908
1047918.0,65.0,41.0,25.0,62.0,1047.918
1047928.0,64.0,42.0,21.0,62.0,1047.928
1047938.0,64.0,42.0,21.0,62.0,1047.938
1047948.0,64.0,41.0,18.0,59.0,1047.948
1047958.0,63.0,44.0,17.0,56.0,1047.958
1047968.0,62.0,48.0,22.0,52.0,1047.968
1047979.0,63.0,47.0,21.0,51.0,1047.979
1047989.0,62.0,46.0,23.0,51.0,1047.989
1047999.0,60.0,45.0,23.0,59.0,1047.999
1048009.0,58.0,45.0,39.0,59.0,1048.009
1048019.0,60.0,45.0,38.0,62.0,1048.019
1048029.0,60.0,46.0,35.0,58.0,1048.029
1048039.0,60.0,45.0,33.0,60.0,1048.039
1048049.0,61.0,46.0,43.0,64.0,1048.049
1048059.0,61.0,46.0,47.0,61.0,1048.059
1048069.0,61.0,45.0,44.0,65.0,1048.069
1048079.0,61.0,44.0,44.0,65.0,1048.079
1048089.0,62.0,45.0,47.0,66.0,1048.089
1048099.0,62.0,46.0,61.0,65.0,1048.099
1048109.0,65.0,44.0,55.0,66.0,1048.109
1048119.0,64.0,43.0,47.0,67.0,1048.119
1048129.0,64.0,43.0,45.0,64.0,1048.129
1048139.0,62.0,44.0,39.0,67.0,1048.139
1048150.0,65.0,43.0,40.0,63.0,1048.15
1048160.0,64.0,43.0,35.0,61.0,1048.16
1048170.0,63.0,44.0,31.0,58.0,1048.17
1048180.0,66.0,44.0,48.0,62.0,1048.18
1048190.0,65.0,43.0,41.0,60.0,1048.19
1048200.0,66.0,43.0,40.0,59.0,1048.2
1048210.0,66.0,43.0,42.0,62.0,1048.21
1048220.0,68.0,43.0,37.0,60.0,1048.22
1048230.0,67.0,44.0,34.0,57.0,1048.23
1048240.0,67.0,44.0,31.0,54.0,1048.24
1048250.0,67.0,44.0,46.0,52.0,1048.25
1048260.0,65.0,43.0,41.0,50.0,1048.26
1048270.0,67.0,43.0,38.0,47.0,1048.27
1048280.0,65.0,42.0,34.0,53.0,1048.28
1048290.0,63.0,41.0,33.0,55.0,1048.29
1048300.0,63.0,41.0,39.0,55.0,1048.3
1048310.0,63.0,43.0,42.0,57.0,1048.31
1048320.0,63.0,42.0,42.0,62.0,1048.32
1048330.0,62.0,41.0,37.0,60.0,1048.33
1048340.0,64.0,40.0,35.0,60.0,1048.34
1048350.0,64.0,39.0,29.0,58.0,1048.35
1048360.0,64.0,39.0,28.0,63.0,1048.36
1048370.0,65.0,39.0,26.0,65.0,1048.37
1048380.0,66.0,38.0,25.0,61.0,1048.38
1048390.0,66.0,40.0,39.0,60.0,1048.39
1048400.0,67.0,40.0,33.0,60.0,1048.4
1048410.0,65.0,42.0,35.0,60.0,1048.41
1048420.0,67.0,41.0,33.0,63.0,1048.42
1048430.0,66.0,42.0,30.0,65.0,1048.43
1048440.0,67.0,47.0,49.0,65.0,1048.44
1048450.0,67.0,45.0,45.0,66.0,1048.45
1048460.0,67.0,47.0,41.0,66.0,1048.46
1048470.0,67.0,47.0,36.0,61.0,1048.47
1048480.0,67.0,48.0,36.0,59.0,1048.48
1048491.0,66.0,48.0,34.0,59.0,1048.491
1048501.0,64.0,48.0,29.0,61.0,1048.501
1048511.0,65.0,47.0,27.0,60.0,1048.511
1048521.0,63.0,48.0,25.0,64.0,1048.521
1048531.0,63.0,48.0,36.0,63.0,1048.531
1048541.0,62.0,48.0,40.0,60.0,1048.541
1048551.0,61.0,48.0,39.0,59.0,1048.551
1048561.0,60.0,48.0,32.0,59.0,1048.561
1048571.0,58.0,49.0,29.0,61.0,1048.571
1048581.0,59.0,47.0,26.0,58.0,1048.581
1048591.0,58.0,49.0,22.0,57.0,1048.591
1048601.0,59.0,46.0,20.0,54.0,1048.601
1048611.0,59.0,47.0,17.0,57.0,1048.611
1048621.0,59.0,47.0,28.0,62.0,1048.621
1048631.0,59.0,45.0,26.0,59.0,1048.631
1048641.0,58.0,44.0,23.0,54.0,1048.641
1048651.0,58.0,43.0,21.0,64.0,1048.651
1048662.0,58.0,43.0,18.0,61.0,1048.662
1048672.0,58.0,42.0,19.0,58.0,1048.672
1048682.0,57.0,44.0,29.0,59.0,1048.682
1048692.0,57.0,43.0,31.0,62.0,1048.692
1048702.0,58.0,42.0,26.0,58.0,1048.702
1048712.0,58.0,41.0,23.0,57.0,1048.712
1048722.0,57.0,40.0,21.0,61.0,1048.722
1048732.0,59.0,39.0,21.0,63.0,1048.732
1048742.0,58.0,40.0,20.0,68.0,1048.742
1048752.0,57.0,40.0,24.0,70.0,1048.752
1048762.0,59.0,39.0,22.0,64.0,1048.762
1048772.0,59.0,38.0,19.0,60.0,1048.772
1048782.0,56.0,40.0,30.0,56.0,1048.782
1048792.0,56.0,40.0,28.0,59.0,1048.792
1048802.0,56.0,43.0,33.0,67.0,1048.802
1048812.0,55.0,42.0,49.0,62.0,1048.812
1048822.0,57.0,43.0,45.0,61.0,1048.822
1048832.0,57.0,42.0,41.0,58.0,1048.832
1048842.0,55.0,43.0,37.0,56.0,1048.842
1048852.0,54.0,44.0,32.0,56.0,1048.852
1048862.0,53.0,44.0,32.0,56.0,1048.862
1048872.0,55.0,45.0,33.0,61.0,1048.872
1048882.0,54.0,42.0,30.0,58.0,1048.882
1048892.0,56.0,43.0,30.0,58.0,1048.892
1048902.0,55.0,43.0,28.0,58.0,1048.902
1048912.0,54.0,43.0,37.0,62.0,1048.912
1048922.0,54.0,44.0,33.0,62.0,1048.922
1048932.0,54.0,44.0,29.0,65.0,1048.932
1048942.0,53.0,46.0,27.0,63.0,1048.942
1048952.0,52.0,48.0,33.0,60.0,1048.952
1048962.0,52.0,47.0,32.0,60.0,1048.962
1048972.0,53.0,51.0,31.0,64.0,1048.972
1048982.0,56.0,51.0,36.0,63.0,1048.982
1048992.0,55.0,51.0,34.0,60.0,1048.992
1049003.0,58.0,50.0,31.0,57.0,1049.003
1049013.0,56.0,53.0,27.0,55.0,1049.013
1049023.0,57.0,52.0,24.0,52.0,1049.023
1049033.0,57.0,51.0,23.0,52.0,1049.033
1049043.0,58.0,49.0,21.0,55.0,1049.043
1049053.0,58.0,48.0,20.0,57.0,1049.053
1049063.0,58.0,50.0,26.0,54.0,1049.063
1049073.0,58.0,47.0,28.0,52.0,1049.073
1049083.0,57.0,48.0,25.0,49.0,1049.083
1049093.0,56.0,48.0,26.0,60.0,1049.093
1049103.0,55.0,49.0,23.0,56.0,1049.103
1049113.0,56.0,49.0,23.0,53.0,1049.113
1049123.0,56.0,49.0,19.0,53.0,1049.123
1049133.0,54.0,49.0,22.0,52.0,1049.133
1049143.0,56.0,48.0,19.0,49.0,1049.143
1049153.0,55.0,51.0,27.0,54.0,1049.153
1049163.0,56.0,48.0,26.0,52.0,1049.163
1049174.0,56.0,48.0,23.0,54.0,1049.174
1049184.0,56.0,48.0,24.0,56.0,1049.184
1049194.0,56.0,47.0,27.0,55.0,1049.194
1049204.0,57.0,47.0,29.0,57.0,1049.204
1049214.0,57.0,45.0,29.0,55.0,1049.214
1049224.0,57.0,48.0,38.0,56.0,1049.224
1049234.0,60.0,44.0,35.0,56.0,1049.234
1049244.0,63.0,43.0,32.0,54.0,1049.244
1049254.0,62.0,45.0,30.0,62.0,1049.254
1049264.0,63.0,45.0,33.0,62.0,1049.264
1049274.0,64.0,45.0,33.0,61.0,1049.274
1049284.0,68.0,45.0,36.0,61.0,1049.284
1049294.0,69.0,46.0,31.0,61.0,1049.294
1049304.0,70.0,46.0,28.0,58.0,1049.304
1049314.0,69.0,46.0,24.0,55.0,1049.314
1049324.0,68.0,47.0,22.0,50.0,1049.324
1049334.0,66.0,47.0,20.0,50.0,1049.334
1049344.0,64.0,47.0,18.0,47.0,1049.344
1049354.0,63.0,45.0,16.0,44.0,1049.354
1049364.0,61.0,47.0,14.0,43.0,1049.364
1049374.0,61.0,46.0,14.0,41.0,1049.374
1049384.0,60.0,46.0,20.0,42.0,1049.384
1049394.0,61.0,50.0,20.0,53.0,1049.394
1049404.0,64.0,48.0,23.0,54.0,1049.404
1049414.0,65.0,47.0,25.0,57.0,1049.414
1049424.0,67.0,45.0,25.0,57.0,1049.424
1049434.0,67.0,46.0,39.0,57.0,1049.434
1049444.0,69.0,44.0,36.0,54.0,1049.444
1049454.0,69.0,43.0,31.0,53.0,1049.454
1049464.0,69.0,41.0,30.0,49.0,1049.464
1049474.0,71.0,41.0,27.0,47.0,1049.474
1049484.0,70.0,40.0,23.0,46.0,1049.484
1049494.0,71.0,41.0,30.0,49.0,1049.494
1049504.0,71.0,44.0,42.0,57.0,1049.504
1049515.0,73.0,44.0,47.0,60.0,1049.515
1049525.0,72.0,44.0,45.0,60.0,1049.525
1049535.0,73.0,42.0,45.0,57.0,1049.535
1049545.0,73.0,43.0,39.0,53.0,1049.545
1049555.0,72.0,42.0,33.0,51.0,1049.555
1049565.0,74.0,42.0,34.0,48.0,1049.565
1049575.0,73.0,42.0,29.0,49.0,1049.575
1049585.0,72.0,42.0,32.0,50.0,1049.585
1049595.0,74.0,41.0,36.0,53.0,1049.595
1049605.0,72.0,41.0,32.0,50.0,1049.605
1049615.0,72.0,41.0,33.0,50.0,1049.615
1049625.0,71.0,41.0,28.0,50.0,1049.625
1049635.0,71.0,40.0,25.0,49.0,1049.635
1049645.0,70.0,41.0,23.0,50.0,1049.645
1049655.0,69.0,42.0,39.0,55.0,1049.655
1049665.0,72.0,41.0,35.0,52.0,1049.665
1049675.0,72.0,41.0,36.0,52.0,1049.675
1049686.0,73.0,41.0,31.0,49.0,1049.686
1049696.0,71.0,41.0,29.0,47.0,1049.696
1049706.0,73.0,41.0,29.0,51.0,1049.706
1049716.0,74.0,45.0,27.0,51.0,1049.716
1049726.0,75.0,43.0,30.0,51.0,1049.726
1049736.0,74.0,43.0,34.0,50.0,1049.736
1049746.0,76.0,43.0,32.0,50.0,1049.746
1049756.0,76.0,42.0,28.0,47.0,1049.756
1049766.0,76.0,43.0,24.0,51.0,1049.766
1049776.0,75.0,41.0,25.0,50.0,1049.776
1049786.0,72.0,45.0,26.0,50.0,1049.786
1049796.0,71.0,45.0,30.0,48.0,1049.796
1049806.0,69.0,46.0,41.0,47.0,1049.806
1049816.0,69.0,45.0,37.0,50.0,1049.816
1049826.0,69.0,44.0,33.0,48.0,1049.826
1049836.0,67.0,43.0,29.0,48.0,1049.836
1049846.0,67.0,43.0,28.0,55.0,1049.846
1049856.0,68.0,41.0,24.0,53.0,1049.856
1049866.0,68.0,43.0,33.0,52.0,1049.866
1049876.0,66.0,44.0,38.0,50.0,1049.876
1049886.0,66.0,43.0,35.0,50.0,1049.886
1049896.0,69.0,42.0,31.0,50.0,1049.896
1049906.0,68.0,42.0,26.0,48.0,1049.906
1049916.0,66.0,42.0,24.0,47.0,1049.916
1049926.0,65.0,41.0,21.0,50.0,1049.926
1049936.0,65.0,40.0,19.0,48.0,1049.936
1049946.0,65.0,39.0,17.0,44.0,1049.946
1049956.0,64.0,43.0,25.0,45.0,1049.956
1049966.0,66.0,41.0,27.0,47.0,1049.966
1049976.0,64.0,40.0,22.0,48.0,1049.976
1049986.0,65.0,39.0,21.0,47.0,1049.986
1049996.0,64.0,40.0,20.0,47.0,1049.996
1050006.0,65.0,39.0,18.0,46.0,1050.006
1050016.0,65.0,38.0,17.0,45.0,1050.016
1050027.0,64.0,39.0,17.0,44.0,1050.027
1050037.0,65.0,41.0,19.0,47.0,1050.037
1050047.0,64.0,41.0,24.0,51.0,1050.047
1050057.0,63.0,41.0,23.0,47.0,1050.057
1050067.0,62.0,42.0,21.0,49.0,1050.067
1050077.0,61.0,41.0,19.0,47.0,1050.077
1050087.0,60.0,42.0,17.0,45.0,1050.087
1050097.0,61.0,42.0,17.0,48.0,1050.097
1050107.0,62.0,40.0,16.0,49.0,1050.107
1050117.0,62.0,40.0,14.0,52.0,1050.117
1050127.0,62.0,40.0,14.0,49.0,1050.127
1050137.0,63.0,39.0,13.0,50.0,1050.137
1050147.0,63.0,40.0,25.0,51.0,1050.147
1050157.0,63.0,39.0,23.0,53.0,1050.157
1050167.0,64.0,39.0,21.0,54.0,1050.167
1050177.0,65.0,38.0,22.0,53.0,1050.177
1050187.0,64.0,38.0,18.0,56.0,1050.187
1050198.0,65.0,38.0,17.0,56.0,1050.198
1050208.0,65.0,38.0,16.0,58.0,1050.208
1050218.0,64.0,38.0,18.0,56.0,1050.218
1050228.0,64.0,38.0,27.0,56.0,1050.228
1050238.0,63.0,37.0,24.0,55.0,1050.238
1050248.0,65.0,37.0,23.0,53.0,1050.248
1050258.0,64.0,36.0,18.0,54.0,1050.258
1050268.0,64.0,36.0,18.0,56.0,1050.268
1050278.0,66.0,36.0,16.0,58.0,1050.278
1050288.0,67.0,36.0,15.0,58.0,1050.288
1050298.0,67.0,38.0,17.0,55.0,1050.298
1050308.0,67.0,38.0,25.0,54.0,1050.308
1050318.0,69.0,39.0,23.0,57.0,1050.318
1050328.0,69.0,38.0,20.0,58.0,1050.328
1050338.0,69.0,39.0,21.0,53.0,1050.338
1050348.0,68.0,39.0,19.0,56.0,1050.348
1050358.0,67.0,39.0,17.0,52.0,1050.358
1050368.0,67.0,39.0,17.0,50.0,1050.368
1050378.0,68.0,40.0,17.0,57.0,1050.378
1050388.0,67.0,43.0,25.0,55.0,1050.388
1050398.0,66.0,42.0,22.0,56.0,1050.398
1050408.0,65.0,43.0,25.0,53.0,1050.408
1050418.0,65.0,41.0,27.0,54.0,1050.418
1050428.0,64.0,43.0,27.0,60.0,1050.428
1050438.0,63.0,42.0,23.0,62.0,1050.438
1050448.0,64.0,41.0,21.0,59.0,1050.448
1050458.0,63.0,41.0,21.0,65.0,1050.458
1050468.0,61.0,41.0,20.0,61.0,1050.468
1050478.0,61.0,41.0,26.0,57.0,1050.478
1050488.0,60.0,42.0,26.0,54.0,1050.488
1050498.0,59.0,42.0,24.0,50.0,1050.498
1050508.0,59.0,42.0,22.0,47.0,1050.508
1050518.0,57.0,41.0,19.0,50.0,1050.518
1050528.0,57.0,41.0,20.0,50.0,1050.528
1050539.0,55.0,40.0,17.0,53.0,1050.539
1050549.0,54.0,40.0,18.0,52.0,1050.549
1050559.0,55.0,43.0,31.0,61.0,1050.559
1050569.0,57.0,42.0,27.0,59.0,1050.569
1050579.0,58.0,41.0,25.0,56.0,1050.579
1050589.0,57.0,40.0,22.0,54.0,1050.589
1050599.0,58.0,38.0,21.0,53.0,1050.599
1050609.0,56.0,39.0,18.0,52.0,1050.609
1050619.0,57.0,38.0,16.0,52.0,1050.619
1050629.0,57.0,37.0,19.0,53.0,1050.629
1050639.0,58.0,36.0,18.0,54.0,1050.639
1050649.0,60.0,36.0,16.0,55.0,1050.649
1050659.0,59.0,37.0,17.0,53.0,1050.659
1050669.0,60.0,36.0,18.0,53.0,1050.669
1050679.0,62.0,38.0,28.0,54.0,1050.679
1050689.0,62.0,37.0,27.0,58.0,1050.689
1050699.0,62.0,37.0,33.0,59.0,1050.699
1050710.0,63.0,37.0,29.0,57.0,1050.71
1050720.0,61.0,36.0,28.0,58.0,1050.72
1050730.0,61.0,37.0,25.0,57.0,1050.73
1050740.0,63.0,35.0,24.0,54.0,1050.74
1050750.0,60.0,37.0,29.0,54.0,1050.75
1050760.0,62.0,39.0,32.0,51.0,1050.76
1050770.0,63.0,38.0,29.0,49.0,1050.77
1050780.0,62.0,38.0,26.0,51.0,1050.78
1050790.0,62.0,38.0,23.0,50.0,1050.79
1050800.0,62.0,38.0,21.0,49.0,1050.8
1050810.0,63.0,38.0,24.0,48.0,1050.81
1050820.0,64.0,40.0,24.0,48.0,1050.82
1050830.0,64.0,39.0,23.0,49.0,1050.83
1050840.0,67.0,42.0,36.0,51.0,1050.84
1050850.0,67.0,43.0,35.0,47.0,1050.85
1050860.0,69.0,42.0,33.0,52.0,1050.86
1050870.0,69.0,40.0,29.0,53.0,1050.87
1050880.0,70.0,40.0,28.0,53.0,1050.88
1050890.0,69.0,39.0,26.0,51.0,1050.89
1050900.0,69.0,40.0,24.0,47.0,1050.9
1050910.0,69.0,40.0,22.0,47.0,1050.91
1050920.0,67.0,41.0,21.0,47.0,1050.92
1050930.0,67.0,40.0,49.0,51.0,1050.93
1050940.0,68.0,40.0,43.0,57.0,1050.94
1050950.0,68.0,40.0,42.0,57.0,1050.95
1050960.0,68.0,40.0,46.0,63.0,1050.96
1050970.0,67.0,39.0,39.0,60.0,1050.97
1050980.0,68.0,38.0,35.0,61.0,1050.98
1050990.0,67.0,38.0,31.0,56.0,1050.99
1051000.0,67.0,37.0,27.0,55.0,1051.0
1051010.0,67.0,39.0,37.0,56.0,1051.01
1051020.0,67.0,38.0,42.0,62.0,1051.02
1051030.0,67.0,38.0,38.0,58.0,1051.03
1051040.0,67.0,38.0,34.0,55.0,1051.04
1051051.0,68.0,37.0,31.0,51.0,1051.051
1051061.0,68.0,38.0,27.0,49.0,1051.061
1051071.0,68.0,36.0,24.0,50.0,1051.071
1051081.0,69.0,36.0,21.0,46.0,1051.081
1051091.0,69.0,36.0,21.0,45.0,1051.091
1051101.0,69.0,39.0,24.0,55.0,1051.101
1051111.0,71.0,40.0,22.0,53.0,1051.111
1051121.0,71.0,40.0,21.0,57.0,1051.121
1051131.0,72.0,41.0,19.0,60.0,1051.131
1051141.0,73.0,39.0,18.0,59.0,1051.141
1051151.0,73.0,39.0,15.0,56.0,1051.151
1051161.0,73.0,38.0,15.0,52.0,1051.161
1051171.0,73.0,39.0,16.0,53.0,1051.171
1051181.0,71.0,41.0,22.0,52.0,1051.181
1051191.0,73.0,40.0,22.0,50.0,1051.191
1051201.0,71.0,39.0,20.0,49.0,1051.201
1051211.0,71.0,38.0,19.0,46.0,1051.211
1051222.0,71.0,38.0,17.0,47.0,1051.222
1051232.0,70.0,37.0,16.0,46.0,1051.232
1051242.0,68.0,37.0,14.0,45.0,1051.242
1051252.0,66.0,37.0,13.0,45.0,1051.252
1051262.0,64.0,37.0,28.0,53.0,1051.262
1051272.0,62.0,38.0,27.0,59.0,1051.272
1051282.0,62.0,38.0,24.0,58.0,1051.282
1051292.0,60.0,37.0,20.0,56.0,1051.292
1051302.0,60.0,37.0,19.0,54.0,1051.302
1051312.0,58.0,38.0,18.0,51.0,1051.312
1051322.0,56.0,37.0,16.0,47.0,1051.322
1051332.0,55.0,37.0,15.0,45.0,1051.332
1051342.0,54.0,37.0,16.0,52.0,1051.342
1051352.0,54.0,36.0,34.0,55.0,1051.352
1051362.0,55.0,36.0,31.0,53.0,1051.362
1051372.0,56.0,36.0,29.0,50.0,1051.372
1051382.0,55.0,35.0,24.0,49.0,1051.382
1051392.0,53.0,36.0,23.0,57.0,1051.392
1051402.0,55.0,35.0,19.0,56.0,1051.402
1051412.0,53.0,36.0,18.0,52.0,1051.412
1051422.0,51.0,36.0,22.0,51.0,1051.422
1051432.0,52.0,36.0,33.0,53.0,1051.432
1051442.0,51.0,35.0,31.0,51.0,1051.442
1051452.0,51.0,37.0,29.0,51.0,1051.452
1051462.0,51.0,36.0,26.0,49.0,1051.462
1051472.0,50.0,36.0,23.0,55.0,1051.472
1051482.0,50.0,37.0,21.0,55.0,1051.482
1051492.0,50.0,34.0,18.0,50.0,1051.492
1051502.0,49.0,36.0,15.0,48.0,1051.502
1051512.0,47.0,40.0,21.0,55.0,1051.512
1051522.0,49.0,38.0,22.0,62.0,1051.522
1051532.0,48.0,38.0,21.0,60.0,1051.532
1051542.0,49.0,37.0,19.0,57.0,1051.542
1051552.0,49.0,38.0,19.0,58.0,1051.552
1051563.0,49.0,36.0,17.0,56.0,1051.563
1051573.0,48.0,37.0,17.0,54.0,1051.573
1051583.0,48.0,36.0,15.0,53.0,1051.583
1051593.0,47.0,37.0,14.0,50.0,1051.593
1051603.0,46.0,38.0,11.0,49.0,1051.603
1051613.0,45.0,40.0,16.0,52.0,1051.613
1051623.0,47.0,42.0,26.0,52.0,1051.623
1051633.0,47.0,42.0,26.0,50.0,1051.633
1051643.0,47.0,40.0,23.0,50.0,1051.643
1051653.0,47.0,41.0,23.0,49.0,1051.653
1051663.0,48.0,40.0,19.0,47.0,1051.663
1051673.0,48.0,42.0,18.0,48.0,1051.673
1051683.0,50.0,41.0,15.0,44.0,1051.683
1051693.0,50.0,43.0,14.0,43.0,1051.693
1051703.0,49.0,44.0,15.0,39.0,1051.703
1051713.0,51.0,44.0,14.0,41.0,1051.713
1051723.0,52.0,46.0,20.0,44.0,1051.723
1051734.0,52.0,46.0,31.0,46.0,1051.734
1051744.0,52.0,46.0,27.0,47.0,1051.744
1051754.0,53.0,47.0,27.0,47.0,1051.754
1051764.0,53.0,47.0,25.0,52.0,1051.764
1051774.0,54.0,44.0,24.0,52.0,1051.774
1051784.0,54.0,43.0,24.0,56.0,1051.784
1051794.0,54.0,42.0,23.0,58.0,1051.794
1051804.0,54.0,43.0,28.0,59.0,1051.804
1051814.0,54.0,43.0,25.0,56.0,1051.814
1051824.0,55.0,43.0,23.0,53.0,1051.824
1051834.0,54.0,42.0,20.0,55.0,1051.834
