time (ms),signal 0,signal 1,signal 2,signal3,time (sec)
1153468.0,52.0,102.0,4.0,65.0,1153.468
1153478.0,52.0,104.0,5.0,66.0,1153.478
1153488.0,53.0,105.0,5.0,71.0,1153.488
1153498.0,52.0,107.0,4.0,73.0,1153.498
1153508.0,53.0,109.0,4.0,76.0,1153.508
1153518.0,54.0,110.0,5.0,76.0,1153.518
1153528.0,55.0,113.0,4.0,70.0,1153.528
1153538.0,57.0,116.0,4.0,68.0,1153.538
1153548.0,58.0,116.0,4.0,67.0,1153.548
1153558.0,59.0,117.0,8.0,69.0,1153.558
1153568.0,58.0,118.0,8.0,75.0,1153.568
1153579.0,60.0,120.0,10.0,79.0,1153.579
1153589.0,62.0,121.0,9.0,75.0,1153.589
1153599.0,61.0,120.0,9.0,92.0,1153.599
1153609.0,63.0,120.0,10.0,98.0,1153.609
1153619.0,64.0,121.0,11.0,111.0,1153.619
1153629.0,64.0,121.0,12.0,114.0,1153.629
1153639.0,64.0,121.0,10.0,114.0,1153.639
1153649.0,66.0,121.0,11.0,113.0,1153.649
1153659.0,66.0,120.0,11.0,117.0,1153.659
1153669.0,67.0,118.0,16.0,118.0,1153.669
1153679.0,67.0,117.0,17.0,114.0,1153.679
1153689.0,66.0,116.0,15.0,105.0,1153.689
1153699.0,68.0,115.0,14.0,112.0,1153.699
1153709.0,67.0,116.0,12.0,108.0,1153.709
1153719.0,68.0,117.0,11.0,103.0,1153.719
1153729.0,68.0,117.0,11.0,102.0,1153.729
1153739.0,69.0,118.0,10.0,102.0,1153.739
1153750.0,69.0,120.0,10.0,103.0,1153.75
1153760.0,69.0,121.0,8.0,99.0,1153.76
1153770.0,70.0,120.0,9.0,101.0,1153.77
1153780.0,68.0,120.0,8.0,101.0,1153.78
1153790.0,69.0,120.0,7.0,100.0,1153.79
1153800.0,72.0,121.0,6.0,98.0,1153.8
1153810.0,71.0,122.0,8.0,99.0,1153.81
1153820.0,71.0,120.0,8.0,98.0,1153.82
1153830.0,71.0,120.0,9.0,102.0,1153.83
1153840.0,69.0,118.0,9.0,94.0,1153.84
1153850.0,70.0,117.0,8.0,98.0,1153.85
1153860.0,68.0,115.0,7.0,100.0,1153.86
1153870.0,68.0,114.0,7.0,100.0,1153.87
1153880.0,64.0,111.0,14.0,113.0,1153.88
1153890.0,65.0,112.0,14.0,116.0,1153.89
1153900.0,64.0,110.0,19.0,124.0,1153.9
1153910.0,65.0,111.0,23.0,139.0,1153.91
1153920.0,66.0,111.0,20.0,131.0,1153.92
1153930.0,66.0,110.0,20.0,125.0,1153.93
1153940.0,67.0,110.0,19.0,124.0,1153.94
1153950.0,66.0,110.0,17.0,121.0,1153.95
1153960.0,67.0,110.0,16.0,119.0,1153.96
1153970.0,66.0,110.0,13.0,114.0,1153.97
1153980.0,67.0,111.0,13.0,115.0,1153.98
1153990.0,66.0,112.0,15.0,121.0,1153.99
1154000.0,66.0,113.0,16.0,115.0,1154.0
1154010.0,68.0,114.0,14.0,116.0,1154.01
1154020.0,67.0,114.0,11.0,112.0,1154.02
1154030.0,67.0,112.0,12.0,130.0,1154.03
1154040.0,67.0,112.0,12.0,129.0,1154.04
1154050.0,69.0,112.0,12.0,124.0,1154.05
1154060.0,69.0,111.0,11.0,123.0,1154.06
1154070.0,69.0,111.0,10.0,123.0,1154.07
1154080.0,71.0,110.0,9.0,120.0,1154.08
1154091.0,71.0,109.0,8.0,124.0,1154.091
1154101.0,71.0,106.0,7.0,119.0,1154.101
1154111.0,70.0,104.0,7.0,117.0,1154.111
1154121.0,71.0,102.0,10.0,108.0,1154.121
1154131.0,69.0,101.0,11.0,102.0,1154.131
1154141.0,70.0,102.0,12.0,112.0,1154.141
1154151.0,69.0,101.0,11.0,139.0,1154.151
1154161.0,69.0,102.0,10.0,135.0,1154.161
1154171.0,68.0,100.0,9.0,122.0,1154.171
1154181.0,68.0,101.0,9.0,113.0,1154.181
1154191.0,68.0,100.0,9.0,109.0,1154.191
1154201.0,67.0,99.0,8.0,117.0,1154.201
1154211.0,67.0,100.0,7.0,112.0,1154.211
1154221.0,67.0,99.0,8.0,104.0,1154.221
1154231.0,67.0,101.0,7.0,103.0,1154.231
1154241.0,67.0,100.0,7.0,98.0,1154.241
1154251.0,67.0,101.0,6.0,93.0,1154.251
1154262.0,67.0,100.0,7.0,91.0,1154.262
1154272.0,67.0,99.0,5.0,88.0,1154.272
1154282.0,68.0,101.0,5.0,91.0,1154.282
1154292.0,68.0,101.0,5.0,89.0,1154.292
1154302.0,67.0,103.0,5.0,91.0,1154.302
1154312.0,67.0,103.0,6.0,90.0,1154.312
1154322.0,67.0,106.0,6.0,85.0,1154.322
1154332.0,66.0,106.0,7.0,78.0,1154.332
1154342.0,66.0,106.0,6.0,78.0,1154.342
1154352.0,66.0,105.0,5.0,82.0,1154.352
1154362.0,66.0,104.0,5.0,93.0,1154.362
1154372.0,66.0,104.0,7.0,98.0,1154.372
1154382.0,66.0,103.0,6.0,91.0,1154.382
1154392.0,65.0,102.0,6.0,84.0,1154.392
1154402.0,65.0,103.0,7.0,85.0,1154.402
1154412.0,64.0,100.0,11.0,87.0,1154.412
1154422.0,64.0,100.0,11.0,103.0,1154.422
1154432.0,63.0,99.0,9.0,100.0,1154.432
1154442.0,63.0,99.0,8.0,93.0,1154.442
1154452.0,62.0,98.0,8.0,92.0,1154.452
1154462.0,62.0,97.0,7.0,93.0,1154.462
1154472.0,61.0,95.0,9.0,92.0,1154.472
1154482.0,60.0,94.0,8.0,92.0,1154.482
1154492.0,57.0,93.0,7.0,89.0,1154.492
1154502.0,57.0,93.0,7.0,83.0,1154.502
1154512.0,57.0,96.0,7.0,79.0,1154.512
1154522.0,58.0,95.0,7.0,77.0,1154.522
1154532.0,58.0,94.0,6.0,76.0,1154.532
1154542.0,57.0,94.0,6.0,82.0,1154.542
1154552.0,57.0,93.0,6.0,89.0,1154.552
1154562.0,56.0,94.0,5.0,87.0,1154.562
1154572.0,57.0,95.0,5.0,82.0,1154.572
1154582.0,57.0,96.0,5.0,85.0,1154.582
1154592.0,57.0,94.0,5.0,82.0,1154.592
1154603.0,58.0,93.0,5.0,77.0,1154.603
1154613.0,56.0,91.0,6.0,75.0,1154.613
1154623.0,57.0,88.0,5.0,78.0,1154.623
1154633.0,56.0,87.0,4.0,82.0,1154.633
1154643.0,56.0,85.0,4.0,83.0,1154.643
1154653.0,56.0,85.0,7.0,84.0,1154.653
1154663.0,58.0,85.0,7.0,86.0,1154.663
1154673.0,57.0,83.0,6.0,82.0,1154.673
1154683.0,57.0,83.0,6.0,80.0,1154.683
1154693.0,55.0,82.0,5.0,80.0,1154.693
1154703.0,54.0,82.0,4.0,85.0,1154.703
1154713.0,53.0,79.0,5.0,81.0,1154.713
1154723.0,52.0,82.0,6.0,78.0,1154.723
1154733.0,52.0,83.0,5.0,84.0,1154.733
1154743.0,52.0,82.0,5.0,88.0,1154.743
1154753.0,51.0,84.0,5.0,93.0,1154.753
1154763.0,52.0,83.0,5.0,93.0,1154.763
1154774.0,50.0,85.0,4.0,91.0,1154.774
1154784.0,50.0,85.0,6.0,105.0,1154.784
1154794.0,48.0,87.0,6.0,105.0,1154.794
1154804.0,48.0,86.0,5.0,107.0,1154.804
1154814.0,48.0,86.0,5.0,102.0,1154.814
1154824.0,47.0,87.0,5.0,106.0,1154.824
1154834.0,46.0,86.0,5.0,98.0,1154.834
1154844.0,45.0,86.0,4.0,113.0,1154.844
1154854.0,45.0,85.0,4.0,117.0,1154.854
1154864.0,45.0,85.0,8.0,120.0,1154.864
1154874.0,45.0,84.0,8.0,114.0,1154.874
1154884.0,46.0,83.0,7.0,128.0,1154.884
1154894.0,45.0,82.0,7.0,125.0,1154.894
1154904.0,45.0,81.0,7.0,128.0,1154.904
1154914.0,44.0,79.0,6.0,122.0,1154.914
1154924.0,43.0,78.0,6.0,117.0,1154.924
1154934.0,43.0,79.0,5.0,133.0,1154.934
1154944.0,43.0,80.0,6.0,152.0,1154.944
1154954.0,43.0,80.0,5.0,151.0,1154.954
1154964.0,43.0,80.0,12.0,142.0,1154.964
1154974.0,43.0,80.0,11.0,138.0,1154.974
1154984.0,42.0,81.0,10.0,134.0,1154.984
1154994.0,43.0,78.0,9.0,145.0,1154.994
1155004.0,43.0,78.0,8.0,134.0,1155.004
1155014.0,42.0,75.0,8.0,126.0,1155.014
1155024.0,43.0,72.0,7.0,116.0,1155.024
1155034.0,41.0,69.0,8.0,122.0,1155.034
1155044.0,43.0,67.0,8.0,115.0,1155.044
1155054.0,48.0,67.0,7.0,113.0,1155.054
1155064.0,53.0,64.0,8.0,110.0,1155.064
1155074.0,56.0,63.0,7.0,108.0,1155.074
1155084.0,70.0,62.0,7.0,99.0,1155.084
1155094.0,79.0,60.0,6.0,102.0,1155.094
1155104.0,81.0,59.0,9.0,108.0,1155.104
1155115.0,97.0,67.0,8.0,106.0,1155.115
1155125.0,116.0,73.0,7.0,103.0,1155.125
1155135.0,119.0,77.0,15.0,107.0,1155.135
1155145.0,189.0,88.0,20.0,118.0,1155.145
1155155.0,198.0,90.0,29.0,120.0,1155.155
1155165.0,208.0,93.0,34.0,119.0,1155.165
1155175.0,229.0,95.0,30.0,121.0,1155.175
1155185.0,221.0,89.0,32.0,121.0,1155.185
1155195.0,208.0,99.0,32.0,128.0,1155.195
1155205.0,220.0,105.0,31.0,127.0,1155.205
1155215.0,227.0,116.0,34.0,134.0,1155.215
1155225.0,220.0,150.0,37.0,136.0,1155.225
1155235.0,215.0,192.0,33.0,131.0,1155.235
1155245.0,207.0,231.0,32.0,141.0,1155.245
1155255.0,206.0,252.0,35.0,143.0,1155.255
1155265.0,196.0,290.0,30.0,226.0,1155.265
1155275.0,188.0,341.0,31.0,257.0,1155.275
1155286.0,204.0,388.0,31.0,307.0,1155.286
1155296.0,197.0,433.0,34.0,346.0,1155.296
1155306.0,180.0,435.0,37.0,393.0,1155.306
1155316.0,166.0,453.0,33.0,358.0,1155.316
1155326.0,159.0,469.0,29.0,342.0,1155.326
1155336.0,144.0,488.0,26.0,321.0,1155.336
1155346.0,144.0,502.0,26.0,304.0,1155.346
1155356.0,136.0,490.0,23.0,293.0,1155.356
1155366.0,129.0,484.0,25.0,266.0,1155.366
1155376.0,125.0,478.0,22.0,293.0,1155.376
1155386.0,124.0,467.0,25.0,289.0,1155.386
1155396.0,132.0,457.0,25.0,264.0,1155.396
1155406.0,128.0,442.0,20.0,243.0,1155.406
1155416.0,121.0,425.0,20.0,243.0,1155.416
1155426.0,113.0,411.0,18.0,224.0,1155.426
1155436.0,107.0,396.0,18.0,239.0,1155.436
1155446.0,107.0,378.0,18.0,247.0,1155.446
1155456.0,104.0,366.0,17.0,248.0,1155.456
1155466.0,98.0,345.0,19.0,227.0,1155.466
1155476.0,94.0,344.0,26.0,218.0,1155.476
1155486.0,94.0,320.0,25.0,220.0,1155.486
1155496.0,94.0,305.0,23.0,218.0,1155.496
1155506.0,95.0,294.0,24.0,204.0,1155.506
1155516.0,97.0,286.0,23.0,192.0,1155.516
1155526.0,89.0,275.0,28.0,193.0,1155.526
1155536.0,85.0,267.0,26.0,194.0,1155.536
1155546.0,80.0,259.0,23.0,193.0,1155.546
1155556.0,80.0,256.0,26.0,195.0,1155.556
1155566.0,85.0,253.0,27.0,181.0,1155.566
1155576.0,86.0,252.0,24.0,164.0,1155.576
1155586.0,81.0,250.0,23.0,166.0,1155.586
1155596.0,81.0,251.0,21.0,156.0,1155.596
1155606.0,81.0,258.0,32.0,147.0,1155.606
1155616.0,100.0,272.0,46.0,172.0,1155.616
1155627.0,111.0,271.0,54.0,160.0,1155.627
1155637.0,108.0,278.0,53.0,164.0,1155.637
1155647.0,102.0,287.0,48.0,189.0,1155.647
1155657.0,95.0,296.0,47.0,186.0,1155.657
1155667.0,92.0,310.0,47.0,186.0,1155.667
1155677.0,91.0,317.0,51.0,185.0,1155.677
1155687.0,100.0,331.0,46.0,188.0,1155.687
1155697.0,102.0,333.0,56.0,206.0,1155.697
1155707.0,96.0,340.0,52.0,195.0,1155.707
1155717.0,90.0,340.0,55.0,189.0,1155.717
1155727.0,85.0,350.0,51.0,191.0,1155.727
1155737.0,81.0,351.0,49.0,202.0,1155.737
1155747.0,79.0,356.0,43.0,186.0,1155.747
1155757.0,77.0,360.0,44.0,180.0,1155.757
1155767.0,80.0,360.0,44.0,165.0,1155.767
1155777.0,78.0,364.0,50.0,155.0,1155.777
1155787.0,76.0,363.0,55.0,153.0,1155.787
1155798.0,77.0,369.0,49.0,182.0,1155.798
1155808.0,75.0,366.0,49.0,187.0,1155.808
1155818.0,75.0,362.0,47.0,178.0,1155.818
1155828.0,71.0,358.0,43.0,172.0,1155.828
1155838.0,72.0,361.0,38.0,165.0,1155.838
1155848.0,69.0,358.0,34.0,161.0,1155.848
1155858.0,71.0,354.0,38.0,185.0,1155.858
1155868.0,88.0,350.0,39.0,179.0,1155.868
1155878.0,89.0,344.0,37.0,169.0,1155.878
1155888.0,85.0,339.0,34.0,164.0,1155.888
1155898.0,80.0,335.0,31.0,167.0,1155.898
1155908.0,75.0,328.0,28.0,167.0,1155.908
1155918.0,72.0,321.0,26.0,161.0,1155.918
1155928.0,69.0,316.0,24.0,151.0,1155.928
1155938.0,68.0,306.0,22.0,145.0,1155.938
1155948.0,65.0,302.0,21.0,148.0,1155.948
1155958.0,68.0,294.0,22.0,149.0,1155.958
1155968.0,64.0,285.0,24.0,155.0,1155.968
1155978.0,63.0,277.0,27.0,149.0,1155.978
1155988.0,63.0,270.0,38.0,141.0,1155.988
1155998.0,62.0,263.0,38.0,144.0,1155.998
1156008.0,63.0,253.0,46.0,151.0,1156.008
1156018.0,64.0,248.0,44.0,148.0,1156.018
1156028.0,65.0,239.0,48.0,142.0,1156.028
1156038.0,62.0,231.0,46.0,136.0,1156.038
1156048.0,61.0,224.0,46.0,137.0,1156.048
1156058.0,64.0,219.0,45.0,136.0,1156.058
1156068.0,67.0,210.0,48.0,134.0,1156.068
1156078.0,67.0,204.0,44.0,124.0,1156.078
1156088.0,69.0,198.0,41.0,126.0,1156.088
1156098.0,67.0,193.0,40.0,120.0,1156.098
1156108.0,68.0,191.0,35.0,117.0,1156.108
1156118.0,68.0,187.0,37.0,121.0,1156.118
1156128.0,67.0,180.0,35.0,122.0,1156.128
1156139.0,67.0,176.0,35.0,129.0,1156.139
1156149.0,74.0,174.0,49.0,135.0,1156.149
1156159.0,76.0,167.0,49.0,132.0,1156.159
1156169.0,78.0,161.0,47.0,135.0,1156.169
1156179.0,79.0,160.0,46.0,144.0,1156.179
1156189.0,79.0,158.0,45.0,140.0,1156.189
1156199.0,81.0,155.0,44.0,153.0,1156.199
1156209.0,80.0,158.0,42.0,160.0,1156.209
1156219.0,86.0,154.0,40.0,151.0,1156.219
1156229.0,85.0,155.0,37.0,143.0,1156.229
1156239.0,83.0,156.0,35.0,129.0,1156.239
1156249.0,77.0,155.0,31.0,125.0,1156.249
1156259.0,78.0,155.0,30.0,119.0,1156.259
1156269.0,76.0,158.0,27.0,127.0,1156.269
1156279.0,74.0,160.0,25.0,127.0,1156.279
1156289.0,74.0,161.0,22.0,124.0,1156.289
1156299.0,76.0,160.0,20.0,119.0,1156.299
1156310.0,77.0,161.0,23.0,132.0,1156.31
1156320.0,72.0,156.0,20.0,133.0,1156.32
1156330.0,71.0,153.0,20.0,144.0,1156.33
1156340.0,69.0,150.0,17.0,167.0,1156.34
1156350.0,67.0,149.0,19.0,172.0,1156.35
1156360.0,67.0,145.0,21.0,180.0,1156.36
1156370.0,68.0,141.0,19.0,186.0,1156.37
1156380.0,66.0,137.0,17.0,172.0,1156.38
1156390.0,66.0,135.0,15.0,164.0,1156.39
1156400.0,66.0,128.0,14.0,157.0,1156.4
1156410.0,65.0,127.0,13.0,160.0,1156.41
1156420.0,65.0,125.0,14.0,154.0,1156.42
1156430.0,67.0,122.0,14.0,146.0,1156.43
1156440.0,65.0,119.0,15.0,146.0,1156.44
1156450.0,65.0,116.0,15.0,143.0,1156.45
1156460.0,63.0,114.0,21.0,148.0,1156.46
1156470.0,62.0,112.0,20.0,146.0,1156.47
1156480.0,62.0,111.0,18.0,150.0,1156.48
1156490.0,61.0,111.0,15.0,149.0,1156.49
1156500.0,62.0,107.0,14.0,138.0,1156.5
1156510.0,60.0,107.0,15.0,134.0,1156.51
1156520.0,63.0,106.0,17.0,127.0,1156.52
1156530.0,67.0,106.0,18.0,128.0,1156.53
1156540.0,64.0,106.0,16.0,121.0,1156.54
1156550.0,66.0,104.0,15.0,117.0,1156.55
1156560.0,64.0,106.0,14.0,123.0,1156.56
1156570.0,62.0,106.0,15.0,119.0,1156.57
1156580.0,61.0,106.0,19.0,123.0,1156.58
1156590.0,62.0,104.0,18.0,123.0,1156.59
1156600.0,62.0,104.0,16.0,123.0,1156.6
1156610.0,60.0,103.0,14.0,117.0,1156.61
1156620.0,59.0,102.0,13.0,116.0,1156.62
1156630.0,56.0,102.0,14.0,121.0,1156.63
1156640.0,56.0,98.0,18.0,122.0,1156.64
1156651.0,53.0,96.0,16.0,116.0,1156.651
1156661.0,52.0,93.0,23.0,109.0,1156.661
1156671.0,50.0,90.0,24.0,105.0,1156.671
1156681.0,50.0,86.0,23.0,102.0,1156.681
1156691.0,50.0,83.0,28.0,101.0,1156.691
1156701.0,58.0,82.0,29.0,104.0,1156.701
1156711.0,57.0,74.0,34.0,100.0,1156.711
1156721.0,57.0,75.0,69.0,94.0,1156.721
1156731.0,58.0,70.0,73.0,112.0,1156.731
1156741.0,64.0,69.0,66.0,124.0,1156.741
1156751.0,75.0,80.0,64.0,120.0,1156.751
1156761.0,82.0,95.0,75.0,114.0,1156.761
1156771.0,85.0,108.0,78.0,117.0,1156.771
1156781.0,90.0,122.0,73.0,115.0,1156.781
1156791.0,95.0,133.0,66.0,116.0,1156.791
1156801.0,109.0,152.0,63.0,119.0,1156.801
1156811.0,116.0,163.0,56.0,112.0,1156.811
1156822.0,120.0,172.0,87.0,106.0,1156.822
1156832.0,131.0,191.0,105.0,116.0,1156.832
1156842.0,133.0,201.0,118.0,136.0,1156.842
1156852.0,138.0,218.0,117.0,167.0,1156.852
1156862.0,144.0,237.0,125.0,167.0,1156.862
1156872.0,149.0,243.0,140.0,194.0,1156.872
1156882.0,155.0,259.0,136.0,238.0,1156.882
1156892.0,158.0,270.0,119.0,231.0,1156.892
1156902.0,159.0,278.0,105.0,218.0,1156.902
1156912.0,162.0,288.0,98.0,232.0,1156.912
1156922.0,161.0,293.0,95.0,228.0,1156.922
1156932.0,160.0,298.0,91.0,254.0,1156.932
1156942.0,158.0,298.0,91.0,242.0,1156.942
1156952.0,157.0,299.0,90.0,229.0,1156.952
1156962.0,156.0,302.0,91.0,229.0,1156.962
1156972.0,156.0,301.0,92.0,218.0,1156.972
1156982.0,155.0,300.0,90.0,200.0,1156.982
1156992.0,154.0,298.0,89.0,200.0,1156.992
1157002.0,151.0,296.0,86.0,192.0,1157.002
1157012.0,148.0,293.0,92.0,205.0,1157.012
1157022.0,148.0,293.0,82.0,189.0,1157.022
1157032.0,145.0,292.0,76.0,186.0,1157.032
1157042.0,142.0,285.0,81.0,189.0,1157.042
1157052.0,143.0,288.0,101.0,185.0,1157.052
1157062.0,141.0,285.0,94.0,178.0,1157.062
1157072.0,138.0,283.0,90.0,169.0,1157.072
1157082.0,136.0,282.0,101.0,169.0,1157.082
1157092.0,135.0,280.0,92.0,163.0,1157.092
1157102.0,136.0,281.0,81.0,153.0,1157.102
1157112.0,135.0,281.0,80.0,142.0,1157.112
1157122.0,135.0,281.0,79.0,137.0,1157.122
1157132.0,134.0,279.0,76.0,166.0,1157.132
1157142.0,133.0,279.0,73.0,158.0,1157.142
1157152.0,131.0,278.0,71.0,145.0,1157.152
1157163.0,133.0,279.0,64.0,144.0,1157.163
1157173.0,130.0,277.0,61.0,140.0,1157.173
1157183.0,130.0,274.0,60.0,129.0,1157.183
1157193.0,126.0,269.0,56.0,123.0,1157.193
1157203.0,124.0,266.0,66.0,119.0,1157.203
1157213.0,121.0,262.0,62.0,118.0,1157.213
1157223.0,121.0,257.0,55.0,107.0,1157.223
1157233.0,121.0,253.0,53.0,98.0,1157.233
1157243.0,118.0,247.0,66.0,103.0,1157.243
1157253.0,118.0,245.0,60.0,120.0,1157.253
1157263.0,116.0,242.0,53.0,119.0,1157.263
1157273.0,115.0,236.0,52.0,116.0,1157.273
1157283.0,112.0,229.0,56.0,123.0,1157.283
1157293.0,111.0,226.0,64.0,129.0,1157.293
1157303.0,112.0,222.0,58.0,125.0,1157.303
1157313.0,110.0,215.0,50.0,117.0,1157.313
1157323.0,109.0,209.0,47.0,121.0,1157.323
1157334.0,107.0,204.0,46.0,128.0,1157.334
1157344.0,108.0,198.0,41.0,118.0,1157.344
1157354.0,108.0,193.0,38.0,118.0,1157.354
1157364.0,106.0,186.0,39.0,118.0,1157.364
1157374.0,106.0,182.0,35.0,115.0,1157.374
1157384.0,104.0,179.0,32.0,109.0,1157.384
1157394.0,105.0,177.0,28.0,108.0,1157.394
1157404.0,103.0,173.0,39.0,111.0,1157.404
1157414.0,102.0,170.0,39.0,109.0,1157.414
1157424.0,101.0,166.0,38.0,107.0,1157.424
1157434.0,99.0,161.0,35.0,101.0,1157.434
1157444.0,98.0,159.0,36.0,95.0,1157.444
1157454.0,96.0,155.0,35.0,89.0,1157.454
1157464.0,95.0,152.0,42.0,85.0,1157.464
1157474.0,94.0,150.0,39.0,80.0,1157.474
1157484.0,93.0,148.0,40.0,87.0,1157.484
1157494.0,91.0,143.0,44.0,83.0,1157.494
1157504.0,93.0,142.0,47.0,85.0,1157.504
1157514.0,93.0,141.0,53.0,97.0,1157.514
1157524.0,90.0,140.0,48.0,110.0,1157.524
1157534.0,91.0,138.0,45.0,109.0,1157.534
1157544.0,90.0,136.0,41.0,119.0,1157.544
1157554.0,88.0,133.0,42.0,120.0,1157.554
1157564.0,89.0,132.0,38.0,133.0,1157.564
1157574.0,86.0,130.0,41.0,135.0,1157.574
1157584.0,86.0,128.0,37.0,127.0,1157.584
1157594.0,84.0,127.0,34.0,126.0,1157.594
1157604.0,84.0,124.0,39.0,118.0,1157.604
1157614.0,84.0,123.0,35.0,112.0,1157.614
1157624.0,84.0,121.0,31.0,112.0,1157.624
1157634.0,83.0,118.0,32.0,114.0,1157.634
1157644.0,83.0,117.0,32.0,120.0,1157.644
1157654.0,86.0,117.0,29.0,114.0,1157.654
1157664.0,84.0,116.0,30.0,112.0,1157.664
1157675.0,86.0,115.0,30.0,102.0,1157.675
1157685.0,86.0,114.0,35.0,105.0,1157.685
1157695.0,87.0,116.0,38.0,101.0,1157.695
1157705.0,88.0,115.0,34.0,102.0,1157.705
1157715.0,87.0,114.0,36.0,101.0,1157.715
1157725.0,88.0,113.0,37.0,94.0,1157.725
1157735.0,87.0,111.0,32.0,93.0,1157.735
1157745.0,86.0,109.0,28.0,89.0,1157.745
1157755.0,85.0,108.0,25.0,93.0,1157.755
1157765.0,85.0,105.0,24.0,84.0,1157.765
1157775.0,84.0,102.0,23.0,84.0,1157.775
1157785.0,83.0,99.0,25.0,96.0,1157.785
1157795.0,84.0,98.0,33.0,107.0,1157.795
1157805.0,84.0,98.0,32.0,107.0,1157.805
1157815.0,83.0,95.0,28.0,101.0,1157.815
1157825.0,82.0,93.0,25.0,97.0,1157.825
1157835.0,80.0,89.0,24.0,104.0,1157.835
1157846.0,79.0,86.0,23.0,102.0,1157.846
1157856.0,77.0,82.0,20.0,99.0,1157.856
1157866.0,77.0,78.0,20.0,98.0,1157.866
1157876.0,77.0,77.0,18.0,93.0,1157.876
1157886.0,79.0,76.0,19.0,85.0,1157.886
1157896.0,77.0,75.0,18.0,85.0,1157.896
1157906.0,77.0,74.0,16.0,86.0,1157.906
1157916.0,77.0,72.0,17.0,98.0,1157.916
1157926.0,76.0,73.0,17.0,97.0,1157.926
1157936.0,76.0,72.0,17.0,97.0,1157.936
1157946.0,75.0,71.0,16.0,105.0,1157.946
1157956.0,76.0,71.0,14.0,104.0,1157.956
1157966.0,75.0,70.0,14.0,96.0,1157.966
1157976.0,75.0,68.0,14.0,101.0,1157.976
1157986.0,75.0,66.0,19.0,112.0,1157.986
1157996.0,75.0,65.0,17.0,108.0,1157.996
1158006.0,74.0,64.0,21.0,105.0,1158.006
1158016.0,73.0,62.0,20.0,111.0,1158.016
1158026.0,74.0,62.0,17.0,108.0,1158.026
1158036.0,73.0,61.0,16.0,103.0,1158.036
1158046.0,73.0,61.0,15.0,93.0,1158.046
1158056.0,74.0,58.0,16.0,92.0,1158.056
1158066.0,73.0,56.0,15.0,91.0,1158.066
1158076.0,76.0,54.0,13.0,90.0,1158.076
1158086.0,75.0,53.0,13.0,86.0,1158.086
1158096.0,73.0,51.0,13.0,89.0,1158.096
1158106.0,74.0,49.0,12.0,103.0,1158.106
1158116.0,74.0,49.0,11.0,106.0,1158.116
1158126.0,70.0,46.0,12.0,100.0,1158.126
1158136.0,71.0,45.0,12.0,97.0,1158.136
1158146.0,70.0,45.0,12.0,98.0,1158.146
1158156.0,67.0,43.0,12.0,93.0,1158.156
1158166.0,67.0,43.0,12.0,92.0,1158.166
1158176.0,65.0,43.0,11.0,90.0,1158.176
1158187.0,63.0,43.0,10.0,89.0,1158.187
1158197.0,63.0,42.0,10.0,86.0,1158.197
1158207.0,62.0,42.0,8.0,79.0,1158.207
1158217.0,63.0,40.0,11.0,95.0,1158.217
1158227.0,61.0,39.0,11.0,109.0,1158.227
1158237.0,59.0,39.0,11.0,116.0,1158.237
1158247.0,58.0,39.0,10.0,108.0,1158.247
1158257.0,58.0,39.0,16.0,104.0,1158.257
1158267.0,57.0,38.0,15.0,100.0,1158.267
1158277.0,57.0,39.0,13.0,93.0,1158.277
1158287.0,55.0,38.0,12.0,100.0,1158.287
1158297.0,54.0,38.0,15.0,141.0,1158.297
1158307.0,55.0,39.0,14.0,135.0,1158.307
1158317.0,55.0,40.0,13.0,126.0,1158.317
1158327.0,54.0,41.0,11.0,118.0,1158.327
1158337.0,53.0,40.0,11.0,114.0,1158.337
1158347.0,53.0,43.0,11.0,110.0,1158.347
1158358.0,52.0,43.0,11.0,109.0,1158.358
1158368.0,51.0,44.0,8.0,111.0,1158.368
1158378.0,50.0,44.0,9.0,101.0,1158.378
1158388.0,49.0,45.0,8.0,94.0,1158.388
1158398.0,49.0,46.0,7.0,88.0,1158.398
1158408.0,49.0,45.0,8.0,95.0,1158.408
1158418.0,48.0,46.0,13.0,92.0,1158.418
1158428.0,49.0,46.0,14.0,99.0,1158.428
1158438.0,48.0,45.0,11.0,101.0,1158.438
1158448.0,48.0,45.0,10.0,96.0,1158.448
1158458.0,49.0,44.0,10.0,97.0,1158.458
1158468.0,50.0,44.0,9.0,94.0,1158.468
1158478.0,51.0,44.0,8.0,85.0,1158.478
1158488.0,50.0,44.0,14.0,92.0,1158.488
1158498.0,51.0,43.0,20.0,89.0,1158.498
1158508.0,50.0,43.0,18.0,96.0,1158.508
1158518.0,50.0,41.0,16.0,93.0,1158.518
1158528.0,50.0,40.0,15.0,87.0,1158.528
1158538.0,50.0,39.0,14.0,96.0,1158.538
1158548.0,49.0,38.0,14.0,93.0,1158.548
1158558.0,47.0,37.0,12.0,92.0,1158.558
1158568.0,49.0,37.0,12.0,106.0,1158.568
1158578.0,48.0,37.0,12.0,115.0,1158.578
1158588.0,48.0,37.0,11.0,111.0,1158.588
1158598.0,48.0,36.0,11.0,106.0,1158.598
1158608.0,48.0,38.0,10.0,98.0,1158.608
1158618.0,48.0,38.0,9.0,94.0,1158.618
1158628.0,49.0,38.0,9.0,86.0,1158.628
1158638.0,50.0,39.0,10.0,80.0,1158.638
1158648.0,49.0,40.0,12.0,96.0,1158.648
1158658.0,49.0,40.0,12.0,91.0,1158.658
1158668.0,49.0,40.0,11.0,86.0,1158.668
1158678.0,47.0,41.0,10.0,86.0,1158.678
1158688.0,46.0,40.0,10.0,80.0,1158.688
1158699.0,45.0,40.0,9.0,75.0,1158.699
1158709.0,45.0,39.0,10.0,71.0,1158.709
1158719.0,45.0,39.0,10.0,76.0,1158.719
1158729.0,45.0,39.0,9.0,75.0,1158.729
1158739.0,44.0,39.0,13.0,74.0,1158.739
1158749.0,43.0,39.0,11.0,73.0,1158.749
1158759.0,43.0,38.0,11.0,69.0,1158.759
1158769.0,44.0,38.0,10.0,67.0,1158.769
1158779.0,44.0,37.0,11.0,66.0,1158.779
1158789.0,43.0,37.0,9.0,71.0,1158.789
1158799.0,44.0,37.0,8.0,73.0,1158.799
1158809.0,44.0,37.0,8.0,83.0,1158.809
1158819.0,44.0,39.0,8.0,88.0,1158.819
1158829.0,45.0,37.0,7.0,81.0,1158.829
1158839.0,46.0,37.0,5.0,81.0,1158.839
1158849.0,47.0,37.0,7.0,77.0,1158.849
1158859.0,48.0,37.0,10.0,88.0,1158.859
1158870.0,49.0,36.0,9.0,90.0,1158.87
1158880.0,50.0,36.0,8.0,88.0,1158.88
1158890.0,50.0,36.0,11.0,83.0,1158.89
1158900.0,50.0,34.0,10.0,75.0,1158.9
1158910.0,51.0,35.0,9.0,70.0,1158.91
1158920.0,50.0,34.0,8.0,71.0,1158.92
1158930.0,52.0,35.0,9.0,73.0,1158.93
1158940.0,52.0,34.0,11.0,68.0,1158.94
1158950.0,51.0,33.0,10.0,79.0,1158.95
1158960.0,53.0,34.0,9.0,83.0,1158.96
1158970.0,52.0,34.0,12.0,88.0,1158.97
1158980.0,52.0,34.0,12.0,85.0,1158.98
1158990.0,53.0,34.0,12.0,83.0,1158.99
1159000.0,52.0,33.0,10.0,82.0,1159.0
1159010.0,52.0,33.0,9.0,79.0,1159.01
1159020.0,52.0,33.0,9.0,77.0,1159.02
1159030.0,51.0,34.0,8.0,84.0,1159.03
1159040.0,51.0,33.0,8.0,79.0,1159.04
1159050.0,51.0,35.0,7.0,76.0,1159.05
1159060.0,51.0,34.0,9.0,70.0,1159.06
1159070.0,52.0,35.0,6.0,79.0,1159.07
1159080.0,52.0,34.0,12.0,79.0,1159.08
1159090.0,53.0,33.0,10.0,77.0,1159.09
1159100.0,55.0,37.0,10.0,77.0,1159.1
1159110.0,55.0,36.0,9.0,73.0,1159.11
1159120.0,52.0,35.0,8.0,72.0,1159.12
1159130.0,55.0,34.0,7.0,70.0,1159.13
1159140.0,54.0,35.0,8.0,86.0,1159.14
1159150.0,54.0,35.0,8.0,84.0,1159.15
1159160.0,54.0,35.0,9.0,79.0,1159.16
1159170.0,54.0,37.0,10.0,81.0,1159.17
1159180.0,54.0,36.0,12.0,77.0,1159.18
1159190.0,54.0,36.0,11.0,78.0,1159.19
1159200.0,53.0,36.0,11.0,82.0,1159.2
1159211.0,53.0,35.0,10.0,77.0,1159.211
1159221.0,52.0,34.0,10.0,75.0,1159.221
1159231.0,53.0,34.0,10.0,75.0,1159.231
1159241.0,53.0,34.0,10.0,80.0,1159.241
1159251.0,53.0,34.0,12.0,80.0,1159.251
1159261.0,53.0,33.0,11.0,86.0,1159.261
1159271.0,55.0,34.0,10.0,85.0,1159.271
1159281.0,53.0,33.0,10.0,80.0,1159.281
1159291.0,53.0,33.0,14.0,78.0,1159.291
1159301.0,55.0,35.0,15.0,81.0,1159.301
1159311.0,54.0,35.0,12.0,80.0,1159.311
1159321.0,55.0,34.0,11.0,84.0,1159.321
1159331.0,57.0,36.0,11.0,81.0,1159.331
1159341.0,59.0,37.0,11.0,77.0,1159.341
1159351.0,60.0,37.0,10.0,72.0,1159.351
1159361.0,60.0,37.0,10.0,67.0,1159.361
1159371.0,62.0,37.0,9.0,71.0,1159.371
1159382.0,64.0,39.0,9.0,68.0,1159.382
1159392.0,64.0,37.0,8.0,64.0,1159.392
1159402.0,63.0,37.0,7.0,62.0,1159.402
1159412.0,63.0,37.0,8.0,63.0,1159.412
1159422.0,61.0,36.0,8.0,62.0,1159.422
1159432.0,61.0,35.0,9.0,62.0,1159.432
1159442.0,60.0,35.0,8.0,67.0,1159.442
1159452.0,59.0,36.0,10.0,65.0,1159.452
1159462.0,56.0,35.0,10.0,69.0,1159.462
1159472.0,56.0,35.0,9.0,69.0,1159.472
1159482.0,56.0,34.0,9.0,64.0,1159.482
1159492.0,56.0,35.0,8.0,61.0,1159.492
1159502.0,54.0,34.0,7.0,73.0,1159.502
1159512.0,54.0,35.0,7.0,69.0,1159.512
1159522.0,51.0,35.0,10.0,68.0,1159.522
1159532.0,52.0,36.0,10.0,73.0,1159.532
1159542.0,51.0,36.0,9.0,78.0,1159.542
1159552.0,50.0,36.0,9.0,80.0,1159.552
1159562.0,49.0,35.0,8.0,85.0,1159.562
1159572.0,48.0,35.0,6.0,100.0,1159.572
1159582.0,50.0,35.0,7.0,101.0,1159.582
1159592.0,50.0,37.0,9.0,95.0,1159.592
1159602.0,51.0,37.0,11.0,93.0,1159.602
1159612.0,50.0,37.0,12.0,91.0,1159.612
1159622.0,50.0,36.0,11.0,86.0,1159.622
1159632.0,51.0,36.0,10.0,84.0,1159.632
1159642.0,50.0,38.0,10.0,87.0,1159.642
1159652.0,51.0,39.0,10.0,83.0,1159.652
1159662.0,51.0,40.0,9.0,82.0,1159.662
1159672.0,51.0,42.0,7.0,80.0,1159.672
1159682.0,52.0,42.0,8.0,78.0,1159.682
1159692.0,53.0,40.0,8.0,83.0,1159.692
1159702.0,54.0,40.0,9.0,85.0,1159.702
1159712.0,52.0,39.0,9.0,90.0,1159.712
1159723.0,53.0,38.0,8.0,92.0,1159.723
1159733.0,54.0,38.0,7.0,89.0,1159.733
1159743.0,54.0,38.0,7.0,81.0,1159.743
1159753.0,55.0,39.0,6.0,76.0,1159.753
1159763.0,56.0,41.0,9.0,70.0,1159.763
1159773.0,55.0,39.0,8.0,74.0,1159.773
1159783.0,54.0,41.0,8.0,74.0,1159.783
1159793.0,55.0,44.0,8.0,71.0,1159.793
1159803.0,53.0,44.0,8.0,69.0,1159.803
1159813.0,54.0,44.0,7.0,69.0,1159.813
1159823.0,53.0,45.0,7.0,71.0,1159.823
1159833.0,51.0,45.0,8.0,79.0,1159.833
1159843.0,52.0,47.0,8.0,86.0,1159.843
1159853.0,51.0,47.0,8.0,89.0,1159.853
1159863.0,51.0,51.0,8.0,83.0,1159.863
1159873.0,51.0,52.0,8.0,90.0,1159.873
1159883.0,51.0,54.0,8.0,90.0,1159.883
1159894.0,50.0,55.0,7.0,89.0,1159.894
1159904.0,50.0,56.0,7.0,89.0,1159.904
1159914.0,51.0,56.0,7.0,85.0,1159.914
1159924.0,50.0,54.0,6.0,89.0,1159.924
1159934.0,50.0,53.0,7.0,98.0,1159.934
1159944.0,49.0,54.0,6.0,106.0,1159.944
1159954.0,50.0,54.0,7.0,103.0,1159.954
1159964.0,50.0,55.0,7.0,97.0,1159.964
1159974.0,50.0,56.0,7.0,92.0,1159.974
1159984.0,50.0,55.0,6.0,87.0,1159.984
1159994.0,52.0,57.0,6.0,86.0,1159.994
1160004.0,52.0,56.0,8.0,87.0,1160.004
1160014.0,53.0,56.0,6.0,80.0,1160.014
1160024.0,53.0,54.0,7.0,74.0,1160.024
1160034.0,53.0,54.0,6.0,72.0,1160.034
1160044.0,53.0,53.0,8.0,77.0,1160.044
1160054.0,55.0,54.0,7.0,85.0,1160.054
1160064.0,55.0,55.0,7.0,83.0,1160.064
1160074.0,55.0,55.0,7.0,79.0,1160.074
1160084.0,56.0,56.0,6.0,80.0,1160.084
1160094.0,55.0,55.0,6.0,76.0,1160.094
1160104.0,53.0,54.0,5.0,84.0,1160.104
1160114.0,53.0,58.0,5.0,86.0,1160.114
1160124.0,52.0,56.0,6.0,86.0,1160.124
1160134.0,50.0,57.0,10.0,86.0,1160.134
1160144.0,49.0,57.0,10.0,97.0,1160.144
1160154.0,49.0,59.0,11.0,103.0,1160.154
1160164.0,50.0,60.0,10.0,96.0,1160.164
1160174.0,49.0,60.0,11.0,92.0,1160.174
1160184.0,47.0,61.0,15.0,98.0,1160.184
1160194.0,47.0,61.0,15.0,102.0,1160.194
1160204.0,48.0,63.0,12.0,114.0,1160.204
1160214.0,47.0,62.0,15.0,114.0,1160.214
1160224.0,47.0,63.0,17.0,116.0,1160.224
1160235.0,47.0,64.0,15.0,108.0,1160.235
1160245.0,49.0,64.0,15.0,100.0,1160.245
1160255.0,49.0,64.0,13.0,95.0,1160.255
1160265.0,52.0,63.0,12.0,93.0,1160.265
1160275.0,50.0,62.0,12.0,89.0,1160.275
1160285.0,50.0,61.0,11.0,85.0,1160.285
1160295.0,49.0,61.0,17.0,86.0,1160.295
1160305.0,49.0,61.0,16.0,86.0,1160.305
1160315.0,49.0,62.0,14.0,88.0,1160.315
1160325.0,49.0,63.0,13.0,94.0,1160.325
1160335.0,49.0,63.0,12.0,94.0,1160.335
1160345.0,48.0,63.0,10.0,93.0,1160.345
1160355.0,47.0,63.0,10.0,98.0,1160.355
1160365.0,49.0,65.0,10.0,101.0,1160.365
1160375.0,51.0,65.0,9.0,95.0,1160.375
1160385.0,52.0,66.0,8.0,87.0,1160.385
1160395.0,53.0,66.0,8.0,80.0,1160.395
1160406.0,53.0,65.0,9.0,80.0,1160.406
1160416.0,54.0,66.0,7.0,75.0,1160.416
1160426.0,56.0,67.0,7.0,82.0,1160.426
1160436.0,56.0,68.0,6.0,85.0,1160.436
1160446.0,55.0,68.0,7.0,85.0,1160.446
1160456.0,55.0,69.0,6.0,79.0,1160.456
1160466.0,53.0,68.0,5.0,80.0,1160.466
1160476.0,55.0,69.0,5.0,80.0,1160.476
1160486.0,54.0,67.0,12.0,79.0,1160.486
1160496.0,55.0,67.0,13.0,84.0,1160.496
1160506.0,56.0,68.0,12.0,91.0,1160.506
1160516.0,57.0,68.0,10.0,82.0,1160.516
1160526.0,56.0,68.0,9.0,80.0,1160.526
1160536.0,56.0,69.0,9.0,79.0,1160.536
1160546.0,56.0,69.0,9.0,74.0,1160.546
1160556.0,54.0,68.0,8.0,80.0,1160.556
1160566.0,54.0,68.0,6.0,77.0,1160.566
1160576.0,54.0,65.0,6.0,78.0,1160.576
1160586.0,53.0,65.0,6.0,81.0,1160.586
1160596.0,52.0,63.0,7.0,89.0,1160.596
1160606.0,51.0,64.0,8.0,85.0,1160.606
1160616.0,51.0,63.0,8.0,80.0,1160.616
1160626.0,47.0,61.0,5.0,80.0,1160.626
1160636.0,47.0,60.0,6.0,81.0,1160.636
1160646.0,47.0,61.0,6.0,76.0,1160.646
1160656.0,46.0,60.0,7.0,70.0,1160.656
1160666.0,47.0,60.0,7.0,68.0,1160.666
1160676.0,46.0,59.0,5.0,63.0,1160.676
1160686.0,48.0,57.0,9.0,72.0,1160.686
1160696.0,48.0,58.0,8.0,72.0,1160.696
1160706.0,47.0,57.0,9.0,72.0,1160.706
1160716.0,48.0,60.0,7.0,74.0,1160.716
1160726.0,49.0,61.0,7.0,86.0,1160.726
1160736.0,50.0,60.0,7.0,83.0,1160.736
1160747.0,50.0,61.0,7.0,77.0,1160.747
1160757.0,52.0,62.0,7.0,72.0,1160.757
1160767.0,52.0,63.0,6.0,74.0,1160.767
1160777.0,52.0,64.0,5.0,71.0,1160.777
1160787.0,52.0,67.0,6.0,75.0,1160.787
1160797.0,52.0,67.0,5.0,75.0,1160.797
1160807.0,54.0,68.0,5.0,76.0,1160.807
1160817.0,54.0,70.0,5.0,78.0,1160.817
1160827.0,56.0,71.0,7.0,87.0,1160.827
1160837.0,55.0,71.0,5.0,86.0,1160.837
1160847.0,57.0,70.0,6.0,80.0,1160.847
1160857.0,58.0,71.0,5.0,88.0,1160.857
1160867.0,58.0,70.0,5.0,82.0,1160.867
1160877.0,58.0,69.0,5.0,79.0,1160.877
1160887.0,58.0,69.0,5.0,81.0,1160.887
1160897.0,59.0,67.0,7.0,86.0,1160.897
1160907.0,59.0,66.0,6.0,84.0,1160.907
1160918.0,60.0,65.0,6.0,75.0,1160.918
1160928.0,60.0,65.0,6.0,73.0,1160.928
1160938.0,59.0,65.0,6.0,70.0,1160.938
1160948.0,61.0,66.0,5.0,68.0,1160.948
1160958.0,60.0,64.0,5.0,69.0,1160.958
1160968.0,61.0,64.0,6.0,73.0,1160.968
1160978.0,60.0,66.0,6.0,74.0,1160.978
1160988.0,61.0,67.0,6.0,68.0,1160.988
1160998.0,61.0,67.0,5.0,69.0,1160.998
1161008.0,60.0,67.0,5.0,67.0,1161.008
1161018.0,62.0,70.0,6.0,70.0,1161.018
1161028.0,61.0,71.0,5.0,87.0,1161.028
1161038.0,61.0,72.0,6.0,83.0,1161.038
1161048.0,60.0,73.0,5.0,85.0,1161.048
1161058.0,60.0,73.0,4.0,81.0,1161.058
1161068.0,61.0,76.0,4.0,79.0,1161.068
1161078.0,62.0,78.0,4.0,79.0,1161.078
1161088.0,60.0,79.0,4.0,85.0,1161.088
1161098.0,60.0,82.0,5.0,92.0,1161.098
1161108.0,64.0,83.0,6.0,91.0,1161.108
1161118.0,66.0,85.0,4.0,86.0,1161.118
1161128.0,67.0,87.0,5.0,81.0,1161.128
1161138.0,65.0,87.0,4.0,87.0,1161.138
1161148.0,64.0,90.0,5.0,85.0,1161.148
1161158.0,63.0,90.0,5.0,82.0,1161.158
1161168.0,61.0,90.0,4.0,78.0,1161.168
1161178.0,62.0,89.0,4.0,74.0,1161.178
1161188.0,61.0,88.0,4.0,69.0,1161.188
1161198.0,60.0,87.0,4.0,67.0,1161.198
1161208.0,62.0,86.0,4.0,75.0,1161.208
1161218.0,60.0,86.0,4.0,75.0,1161.218
1161228.0,61.0,84.0,4.0,70.0,1161.228
1161238.0,63.0,83.0,6.0,77.0,1161.238
1161248.0,61.0,81.0,8.0,73.0,1161.248
1161259.0,60.0,80.0,6.0,80.0,1161.259
1161269.0,61.0,80.0,6.0,87.0,1161.269
1161279.0,62.0,79.0,6.0,93.0,1161.279
1161289.0,61.0,79.0,6.0,92.0,1161.289
1161299.0,61.0,78.0,6.0,87.0,1161.299
1161309.0,62.0,79.0,5.0,85.0,1161.309
1161319.0,62.0,77.0,10.0,82.0,1161.319
1161329.0,62.0,78.0,8.0,86.0,1161.329
1161339.0,62.0,78.0,9.0,93.0,1161.339
1161349.0,64.0,79.0,8.0,90.0,1161.349
1161359.0,64.0,81.0,7.0,83.0,1161.359
1161369.0,65.0,80.0,7.0,80.0,1161.369
1161379.0,65.0,82.0,5.0,79.0,1161.379
1161389.0,64.0,82.0,9.0,74.0,1161.389
1161399.0,62.0,83.0,8.0,81.0,1161.399
1161409.0,62.0,85.0,7.0,81.0,1161.409
1161419.0,61.0,88.0,8.0,79.0,1161.419
1161430.0,60.0,91.0,7.0,80.0,1161.43
1161440.0,60.0,94.0,6.0,79.0,1161.44
1161450.0,59.0,96.0,5.0,77.0,1161.45
1161460.0,59.0,99.0,6.0,71.0,1161.46
1161470.0,58.0,99.0,5.0,64.0,1161.47
1161480.0,60.0,100.0,6.0,59.0,1161.48
1161490.0,60.0,100.0,5.0,57.0,1161.49
1161500.0,59.0,99.0,5.0,56.0,1161.5
1161510.0,60.0,99.0,5.0,56.0,1161.51
1161520.0,60.0,97.0,4.0,55.0,1161.52
1161530.0,60.0,96.0,8.0,57.0,1161.53
1161540.0,60.0,97.0,8.0,64.0,1161.54
1161550.0,60.0,98.0,7.0,66.0,1161.55
1161560.0,62.0,99.0,9.0,82.0,1161.56
1161570.0,61.0,102.0,8.0,79.0,1161.57
1161580.0,62.0,100.0,7.0,84.0,1161.58
1161590.0,63.0,101.0,8.0,80.0,1161.59
1161600.0,61.0,101.0,11.0,75.0,1161.6
1161610.0,64.0,101.0,10.0,71.0,1161.61
1161620.0,66.0,101.0,8.0,66.0,1161.62
1161630.0,68.0,100.0,8.0,62.0,1161.63
1161640.0,70.0,100.0,7.0,66.0,1161.64
1161650.0,72.0,98.0,7.0,61.0,1161.65
1161660.0,75.0,98.0,6.0,59.0,1161.66
1161670.0,77.0,98.0,7.0,72.0,1161.67
1161680.0,77.0,98.0,6.0,78.0,1161.68
1161690.0,77.0,98.0,6.0,82.0,1161.69
1161700.0,78.0,98.0,6.0,77.0,1161.7
1161710.0,79.0,99.0,5.0,72.0,1161.71
1161720.0,78.0,98.0,5.0,66.0,1161.72
1161730.0,79.0,101.0,5.0,62.0,1161.73
1161740.0,79.0,100.0,5.0,87.0,1161.74
1161750.0,78.0,101.0,5.0,98.0,1161.75
1161760.0,76.0,103.0,5.0,93.0,1161.76
1161771.0,76.0,104.0,10.0,87.0,1161.771
1161781.0,76.0,108.0,10.0,86.0,1161.781
1161791.0,76.0,108.0,10.0,78.0,1161.791
1161801.0,74.0,108.0,9.0,74.0,1161.801
1161811.0,74.0,110.0,9.0,69.0,1161.811
1161821.0,72.0,110.0,8.0,65.0,1161.821
1161831.0,70.0,110.0,6.0,60.0,1161.831
1161841.0,70.0,111.0,8.0,61.0,1161.841
1161851.0,69.0,110.0,8.0,60.0,1161.851
1161861.0,68.0,108.0,8.0,58.0,1161.861
1161871.0,68.0,106.0,7.0,62.0,1161.871
1161881.0,68.0,104.0,7.0,57.0,1161.881
1161891.0,68.0,104.0,6.0,54.0,1161.891
1161901.0,68.0,103.0,6.0,52.0,1161.901
1161911.0,68.0,101.0,6.0,50.0,1161.911
1161921.0,67.0,101.0,5.0,49.0,1161.921
1161931.0,68.0,98.0,5.0,48.0,1161.931
1161942.0,68.0,96.0,6.0,54.0,1161.942
1161952.0,67.0,94.0,7.0,54.0,1161.952
1161962.0,67.0,94.0,6.0,51.0,1161.962
1161972.0,66.0,94.0,6.0,57.0,1161.972
1161982.0,66.0,93.0,8.0,61.0,1161.982
1161992.0,66.0,92.0,6.0,58.0,1161.992
1162002.0,66.0,91.0,7.0,53.0,1162.002
1162012.0,65.0,89.0,7.0,50.0,1162.012
1162022.0,65.0,89.0,7.0,48.0,1162.022
1162032.0,64.0,86.0,5.0,50.0,1162.032
1162042.0,64.0,85.0,5.0,51.0,1162.042
1162052.0,64.0,84.0,5.0,50.0,1162.052
1162062.0,65.0,82.0,6.0,52.0,1162.062
1162072.0,66.0,80.0,6.0,47.0,1162.072
1162082.0,65.0,78.0,5.0,48.0,1162.082
1162092.0,65.0,79.0,6.0,52.0,1162.092
1162102.0,65.0,77.0,5.0,51.0,1162.102
1162112.0,65.0,78.0,5.0,50.0,1162.112
1162122.0,64.0,77.0,5.0,52.0,1162.122
1162132.0,66.0,77.0,5.0,49.0,1162.132
1162142.0,66.0,74.0,5.0,46.0,1162.142
1162152.0,67.0,75.0,5.0,44.0,1162.152
1162162.0,66.0,76.0,5.0,42.0,1162.162
1162172.0,65.0,75.0,5.0,43.0,1162.172
1162182.0,62.0,75.0,6.0,41.0,1162.182
1162192.0,62.0,75.0,6.0,39.0,1162.192
1162202.0,62.0,74.0,4.0,38.0,1162.202
1162212.0,63.0,72.0,5.0,42.0,1162.212
1162222.0,63.0,72.0,5.0,47.0,1162.222
1162232.0,61.0,72.0,5.0,46.0,1162.232
1162242.0,63.0,72.0,5.0,43.0,1162.242
1162252.0,60.0,72.0,4.0,42.0,1162.252
1162262.0,62.0,73.0,5.0,44.0,1162.262
1162272.0,63.0,73.0,4.0,51.0,1162.272
1162283.0,63.0,70.0,4.0,52.0,1162.283
1162293.0,63.0,70.0,4.0,55.0,1162.293
1162303.0,62.0,68.0,4.0,52.0,1162.303
1162313.0,61.0,67.0,5.0,49.0,1162.313
1162323.0,62.0,68.0,4.0,50.0,1162.323
1162333.0,62.0,67.0,6.0,48.0,1162.333
1162343.0,61.0,70.0,5.0,51.0,1162.343
1162353.0,59.0,68.0,5.0,48.0,1162.353
1162363.0,57.0,68.0,5.0,47.0,1162.363
1162373.0,57.0,69.0,5.0,44.0,1162.373
1162383.0,56.0,67.0,5.0,51.0,1162.383
1162393.0,55.0,69.0,4.0,47.0,1162.393
1162403.0,55.0,68.0,7.0,45.0,1162.403
1162413.0,56.0,68.0,6.0,51.0,1162.413
1162423.0,56.0,68.0,6.0,55.0,1162.423
1162433.0,55.0,66.0,5.0,71.0,1162.433
1162443.0,54.0,66.0,5.0,67.0,1162.443
1162454.0,54.0,64.0,6.0,62.0,1162.454
1162464.0,54.0,63.0,6.0,60.0,1162.464
1162474.0,54.0,61.0,7.0,61.0,1162.474
1162484.0,54.0,63.0,7.0,65.0,1162.484
1162494.0,55.0,60.0,7.0,75.0,1162.494
1162504.0,54.0,60.0,6.0,73.0,1162.504
1162514.0,56.0,59.0,5.0,67.0,1162.514
1162524.0,57.0,57.0,5.0,63.0,1162.524
1162534.0,55.0,55.0,4.0,62.0,1162.534
1162544.0,58.0,54.0,7.0,60.0,1162.544
1162554.0,57.0,54.0,5.0,58.0,1162.554
1162564.0,56.0,52.0,6.0,54.0,1162.564
1162574.0,56.0,50.0,5.0,54.0,1162.574
1162584.0,57.0,51.0,5.0,52.0,1162.584
1162594.0,58.0,49.0,10.0,51.0,1162.594
1162604.0,58.0,49.0,8.0,51.0,1162.604
1162614.0,58.0,49.0,8.0,56.0,1162.614
1162624.0,57.0,48.0,7.0,57.0,1162.624
1162634.0,57.0,47.0,7.0,52.0,1162.634
1162644.0,56.0,46.0,6.0,49.0,1162.644
1162654.0,55.0,46.0,7.0,46.0,1162.654
1162664.0,57.0,45.0,6.0,43.0,1162.664
1162674.0,57.0,44.0,5.0,43.0,1162.674
1162684.0,57.0,43.0,5.0,41.0,1162.684
1162694.0,57.0,43.0,5.0,43.0,1162.694
1162704.0,57.0,41.0,5.0,41.0,1162.704
1162714.0,58.0,41.0,4.0,41.0,1162.714
1162724.0,57.0,39.0,4.0,39.0,1162.724
1162734.0,57.0,39.0,6.0,41.0,1162.734
1162744.0,54.0,39.0,6.0,40.0,1162.744
1162754.0,56.0,39.0,7.0,40.0,1162.754
1162764.0,56.0,40.0,7.0,40.0,1162.764
1162774.0,56.0,40.0,6.0,38.0,1162.774
1162784.0,57.0,40.0,7.0,39.0,1162.784
1162795.0,57.0,41.0,6.0,39.0,1162.795
1162805.0,59.0,41.0,6.0,38.0,1162.805
1162815.0,58.0,41.0,4.0,38.0,1162.815
1162825.0,58.0,41.0,6.0,37.0,1162.825
1162835.0,57.0,44.0,5.0,41.0,1162.835
1162845.0,56.0,43.0,5.0,39.0,1162.845
1162855.0,56.0,44.0,5.0,38.0,1162.855
1162865.0,55.0,45.0,5.0,36.0,1162.865
1162875.0,55.0,45.0,5.0,35.0,1162.875
1162885.0,53.0,46.0,4.0,36.0,1162.885
1162895.0,52.0,45.0,4.0,35.0,1162.895
1162905.0,52.0,46.0,4.0,35.0,1162.905
1162915.0,52.0,44.0,3.0,34.0,1162.915
1162925.0,53.0,45.0,4.0,40.0,1162.925
1162935.0,53.0,44.0,4.0,39.0,1162.935
1162945.0,55.0,43.0,5.0,50.0,1162.945
1162955.0,54.0,42.0,4.0,62.0,1162.955
1162966.0,55.0,43.0,4.0,70.0,1162.966
1162976.0,55.0,41.0,3.0,74.0,1162.976
1162986.0,55.0,40.0,4.0,74.0,1162.986
1162996.0,54.0,39.0,5.0,71.0,1162.996
1163006.0,53.0,37.0,5.0,69.0,1163.006
1163016.0,53.0,36.0,5.0,67.0,1163.016
1163026.0,52.0,38.0,8.0,66.0,1163.026
1163036.0,53.0,37.0,9.0,63.0,1163.036
1163046.0,54.0,37.0,9.0,63.0,1163.046
1163056.0,55.0,36.0,8.0,61.0,1163.056
1163066.0,55.0,35.0,8.0,58.0,1163.066
1163076.0,56.0,36.0,7.0,54.0,1163.076
1163086.0,55.0,35.0,8.0,55.0,1163.086
1163096.0,53.0,36.0,5.0,65.0,1163.096
1163106.0,53.0,37.0,7.0,67.0,1163.106
1163116.0,52.0,39.0,5.0,65.0,1163.116
1163126.0,52.0,40.0,7.0,60.0,1163.126
1163136.0,53.0,41.0,7.0,61.0,1163.136
1163146.0,53.0,42.0,5.0,58.0,1163.146
1163156.0,53.0,43.0,6.0,53.0,1163.156
1163166.0,52.0,43.0,4.0,50.0,1163.166
1163176.0,52.0,44.0,5.0,45.0,1163.176
1163186.0,52.0,43.0,4.0,43.0,1163.186
1163196.0,51.0,43.0,5.0,41.0,1163.196
1163206.0,51.0,42.0,4.0,39.0,1163.206
1163216.0,51.0,44.0,4.0,38.0,1163.216
1163226.0,51.0,42.0,4.0,36.0,1163.226
1163236.0,50.0,43.0,4.0,38.0,1163.236
1163246.0,52.0,42.0,4.0,35.0,1163.246
1163256.0,54.0,41.0,4.0,36.0,1163.256
1163266.0,55.0,40.0,4.0,38.0,1163.266
1163276.0,58.0,39.0,7.0,38.0,1163.276
1163286.0,61.0,40.0,6.0,39.0,1163.286
1163296.0,67.0,39.0,6.0,36.0,1163.296
1163307.0,71.0,41.0,4.0,37.0,1163.307
1163317.0,76.0,41.0,6.0,37.0,1163.317
1163327.0,81.0,41.0,5.0,43.0,1163.327
1163337.0,86.0,42.0,5.0,40.0,1163.337
1163347.0,91.0,42.0,7.0,41.0,1163.347
1163357.0,96.0,43.0,7.0,41.0,1163.357
1163367.0,102.0,43.0,7.0,41.0,1163.367
1163377.0,108.0,44.0,6.0,41.0,1163.377
1163387.0,114.0,43.0,6.0,39.0,1163.387
1163397.0,118.0,41.0,5.0,40.0,1163.397
1163407.0,123.0,40.0,5.0,49.0,1163.407
1163417.0,126.0,38.0,5.0,49.0,1163.417
1163427.0,127.0,37.0,5.0,47.0,1163.427
1163437.0,127.0,37.0,6.0,45.0,1163.437
1163447.0,128.0,38.0,4.0,44.0,1163.447
1163457.0,127.0,37.0,5.0,41.0,1163.457
1163467.0,127.0,39.0,4.0,41.0,1163.467
1163478.0,126.0,40.0,3.0,40.0,1163.478
1163488.0,125.0,40.0,4.0,38.0,1163.488
1163498.0,121.0,43.0,4.0,39.0,1163.498
