time (ms),signal 0,signal 1,signal 2,signal3,time (sec)
1185521.0,60.0,56.0,4.0,74.0,1185.521
1185531.0,60.0,57.0,6.0,69.0,1185.531
1185541.0,61.0,56.0,7.0,67.0,1185.541
1185551.0,60.0,56.0,8.0,74.0,1185.551
1185561.0,60.0,54.0,8.0,78.0,1185.561
1185571.0,61.0,52.0,7.0,74.0,1185.571
1185581.0,59.0,54.0,7.0,70.0,1185.581
1185591.0,59.0,53.0,7.0,69.0,1185.591
1185601.0,58.0,53.0,5.0,78.0,1185.601
1185611.0,59.0,51.0,5.0,75.0,1185.611
1185622.0,58.0,51.0,10.0,74.0,1185.622
1185632.0,57.0,50.0,8.0,76.0,1185.632
1185642.0,56.0,48.0,8.0,76.0,1185.642
1185652.0,54.0,48.0,7.0,70.0,1185.652
1185662.0,55.0,48.0,7.0,65.0,1185.662
1185672.0,55.0,47.0,5.0,67.0,1185.672
1185682.0,53.0,47.0,6.0,65.0,1185.682
1185692.0,53.0,46.0,6.0,66.0,1185.692
1185702.0,51.0,46.0,5.0,70.0,1185.702
1185712.0,53.0,44.0,7.0,71.0,1185.712
1185722.0,53.0,44.0,7.0,70.0,1185.722
1185732.0,54.0,43.0,8.0,73.0,1185.732
1185742.0,52.0,42.0,6.0,74.0,1185.742
1185752.0,53.0,42.0,7.0,71.0,1185.752
1185762.0,52.0,41.0,6.0,77.0,1185.762
1185772.0,51.0,42.0,5.0,79.0,1185.772
1185782.0,50.0,42.0,7.0,80.0,1185.782
1185792.0,49.0,42.0,11.0,79.0,1185.792
1185802.0,51.0,41.0,12.0,75.0,1185.802
1185812.0,50.0,42.0,9.0,75.0,1185.812
1185822.0,50.0,41.0,9.0,84.0,1185.822
1185832.0,51.0,43.0,8.0,85.0,1185.832
1185842.0,52.0,43.0,7.0,83.0,1185.842
1185852.0,53.0,42.0,7.0,80.0,1185.852
1185862.0,55.0,42.0,6.0,76.0,1185.862
1185872.0,56.0,41.0,7.0,77.0,1185.872
1185882.0,56.0,41.0,5.0,76.0,1185.882
1185892.0,55.0,40.0,6.0,77.0,1185.892
1185902.0,56.0,40.0,5.0,81.0,1185.902
1185912.0,56.0,40.0,6.0,80.0,1185.912
1185922.0,56.0,40.0,6.0,74.0,1185.922
1185932.0,55.0,39.0,5.0,79.0,1185.932
1185942.0,55.0,39.0,5.0,75.0,1185.942
1185952.0,54.0,38.0,5.0,72.0,1185.952
1185963.0,52.0,37.0,5.0,73.0,1185.963
1185973.0,52.0,37.0,7.0,80.0,1185.973
1185983.0,51.0,38.0,7.0,76.0,1185.983
1185993.0,51.0,38.0,7.0,72.0,1185.993
1186003.0,50.0,39.0,5.0,74.0,1186.003
1186013.0,49.0,38.0,6.0,74.0,1186.013
1186023.0,47.0,37.0,5.0,69.0,1186.023
1186033.0,46.0,38.0,5.0,69.0,1186.033
1186043.0,45.0,37.0,5.0,65.0,1186.043
1186053.0,44.0,39.0,4.0,65.0,1186.053
1186063.0,44.0,38.0,5.0,85.0,1186.063
1186073.0,45.0,38.0,4.0,84.0,1186.073
1186083.0,44.0,37.0,6.0,78.0,1186.083
1186093.0,43.0,37.0,5.0,76.0,1186.093
1186103.0,44.0,37.0,6.0,77.0,1186.103
1186113.0,44.0,37.0,5.0,73.0,1186.113
1186123.0,45.0,37.0,5.0,75.0,1186.123
1186134.0,44.0,36.0,5.0,74.0,1186.134
1186144.0,44.0,36.0,4.0,78.0,1186.144
1186154.0,46.0,35.0,5.0,77.0,1186.154
1186164.0,46.0,35.0,4.0,71.0,1186.164
1186174.0,46.0,34.0,4.0,69.0,1186.174
1186184.0,46.0,35.0,5.0,75.0,1186.184
1186194.0,47.0,35.0,4.0,77.0,1186.194
1186204.0,47.0,36.0,5.0,78.0,1186.204
1186214.0,47.0,37.0,10.0,79.0,1186.214
1186224.0,49.0,38.0,10.0,75.0,1186.224
1186234.0,48.0,38.0,8.0,70.0,1186.234
1186244.0,48.0,39.0,7.0,65.0,1186.244
1186254.0,48.0,39.0,7.0,71.0,1186.254
1186264.0,49.0,40.0,6.0,73.0,1186.264
1186274.0,50.0,38.0,6.0,70.0,1186.274
1186284.0,49.0,39.0,5.0,72.0,1186.284
1186294.0,52.0,39.0,7.0,81.0,1186.294
1186304.0,51.0,39.0,5.0,83.0,1186.304
1186314.0,52.0,40.0,6.0,83.0,1186.314
1186324.0,53.0,38.0,5.0,82.0,1186.324
1186334.0,53.0,40.0,5.0,84.0,1186.334
1186344.0,53.0,39.0,5.0,86.0,1186.344
1186354.0,51.0,41.0,5.0,88.0,1186.354
1186364.0,52.0,41.0,5.0,81.0,1186.364
1186374.0,51.0,42.0,5.0,82.0,1186.374
1186384.0,50.0,43.0,4.0,92.0,1186.384
1186394.0,50.0,43.0,4.0,93.0,1186.394
1186404.0,49.0,45.0,7.0,91.0,1186.404
1186414.0,48.0,45.0,7.0,86.0,1186.414
1186424.0,48.0,45.0,5.0,80.0,1186.424
1186434.0,48.0,46.0,6.0,99.0,1186.434
1186444.0,49.0,46.0,6.0,97.0,1186.444
1186454.0,50.0,44.0,6.0,93.0,1186.454
1186464.0,49.0,45.0,6.0,88.0,1186.464
1186475.0,49.0,47.0,6.0,85.0,1186.475
1186485.0,49.0,47.0,7.0,93.0,1186.485
1186495.0,49.0,49.0,7.0,93.0,1186.495
1186505.0,48.0,49.0,9.0,95.0,1186.505
1186515.0,48.0,49.0,7.0,90.0,1186.515
1186525.0,47.0,49.0,7.0,89.0,1186.525
1186535.0,48.0,50.0,6.0,87.0,1186.535
1186545.0,49.0,51.0,7.0,87.0,1186.545
1186555.0,48.0,50.0,6.0,90.0,1186.555
1186565.0,47.0,51.0,5.0,87.0,1186.565
1186575.0,47.0,51.0,7.0,82.0,1186.575
1186585.0,45.0,51.0,6.0,79.0,1186.585
1186595.0,45.0,51.0,6.0,75.0,1186.595
1186605.0,45.0,50.0,6.0,77.0,1186.605
1186615.0,43.0,51.0,5.0,79.0,1186.615
1186625.0,45.0,50.0,5.0,76.0,1186.625
1186635.0,43.0,51.0,5.0,76.0,1186.635
1186646.0,43.0,51.0,6.0,73.0,1186.646
1186656.0,43.0,51.0,5.0,69.0,1186.656
1186666.0,43.0,53.0,4.0,67.0,1186.666
1186676.0,43.0,52.0,5.0,69.0,1186.676
1186686.0,43.0,52.0,3.0,74.0,1186.686
1186696.0,42.0,51.0,5.0,71.0,1186.696
1186706.0,42.0,52.0,4.0,69.0,1186.706
1186716.0,43.0,52.0,5.0,67.0,1186.716
1186726.0,44.0,53.0,5.0,65.0,1186.726
1186736.0,45.0,53.0,5.0,60.0,1186.736
1186746.0,45.0,54.0,4.0,61.0,1186.746
1186756.0,47.0,54.0,5.0,59.0,1186.756
1186766.0,46.0,54.0,5.0,64.0,1186.766
1186776.0,46.0,55.0,3.0,66.0,1186.776
1186786.0,47.0,54.0,4.0,61.0,1186.786
1186796.0,46.0,54.0,4.0,62.0,1186.796
1186806.0,47.0,55.0,7.0,68.0,1186.806
1186816.0,48.0,55.0,7.0,67.0,1186.816
1186826.0,49.0,56.0,7.0,66.0,1186.826
1186836.0,50.0,55.0,6.0,66.0,1186.836
1186846.0,52.0,56.0,5.0,64.0,1186.846
1186856.0,55.0,56.0,6.0,66.0,1186.856
1186866.0,56.0,55.0,5.0,65.0,1186.866
1186876.0,57.0,56.0,4.0,63.0,1186.876
1186886.0,57.0,57.0,6.0,62.0,1186.886
1186896.0,59.0,57.0,4.0,61.0,1186.896
1186906.0,60.0,56.0,4.0,63.0,1186.906
1186916.0,61.0,56.0,5.0,63.0,1186.916
1186926.0,63.0,56.0,5.0,62.0,1186.926
1186936.0,63.0,56.0,4.0,61.0,1186.936
1186946.0,61.0,57.0,5.0,65.0,1186.946
1186956.0,62.0,57.0,4.0,65.0,1186.956
1186966.0,61.0,57.0,5.0,67.0,1186.966
1186976.0,60.0,56.0,5.0,62.0,1186.976
1186987.0,60.0,57.0,9.0,59.0,1186.987
1186997.0,59.0,59.0,9.0,62.0,1186.997
1187007.0,58.0,59.0,8.0,65.0,1187.007
1187017.0,56.0,60.0,7.0,69.0,1187.017
1187027.0,57.0,58.0,7.0,66.0,1187.027
1187037.0,55.0,59.0,6.0,64.0,1187.037
1187047.0,55.0,56.0,6.0,62.0,1187.047
1187057.0,55.0,56.0,5.0,69.0,1187.057
1187067.0,56.0,55.0,6.0,69.0,1187.067
1187077.0,54.0,53.0,5.0,71.0,1187.077
1187087.0,54.0,52.0,4.0,76.0,1187.087
1187097.0,52.0,52.0,6.0,73.0,1187.097
1187107.0,51.0,52.0,6.0,70.0,1187.107
1187117.0,52.0,51.0,6.0,74.0,1187.117
1187127.0,50.0,53.0,5.0,71.0,1187.127
1187137.0,52.0,53.0,6.0,74.0,1187.137
1187147.0,52.0,53.0,5.0,73.0,1187.147
1187158.0,52.0,54.0,5.0,67.0,1187.158
1187168.0,53.0,55.0,5.0,65.0,1187.168
1187178.0,55.0,55.0,3.0,72.0,1187.178
1187188.0,57.0,55.0,4.0,66.0,1187.188
1187198.0,57.0,56.0,4.0,63.0,1187.198
1187208.0,58.0,57.0,5.0,74.0,1187.208
1187218.0,58.0,57.0,4.0,73.0,1187.218
1187228.0,58.0,57.0,4.0,79.0,1187.228
1187238.0,57.0,58.0,4.0,79.0,1187.238
1187248.0,56.0,59.0,4.0,78.0,1187.248
1187258.0,58.0,58.0,5.0,72.0,1187.258
1187268.0,57.0,60.0,4.0,71.0,1187.268
1187278.0,58.0,62.0,5.0,68.0,1187.278
1187288.0,58.0,64.0,5.0,70.0,1187.288
1187298.0,58.0,66.0,6.0,69.0,1187.298
1187308.0,58.0,66.0,6.0,67.0,1187.308
1187318.0,58.0,69.0,7.0,67.0,1187.318
1187328.0,59.0,67.0,6.0,62.0,1187.328
1187338.0,60.0,68.0,9.0,83.0,1187.338
1187348.0,61.0,67.0,9.0,84.0,1187.348
1187358.0,63.0,67.0,8.0,82.0,1187.358
1187368.0,62.0,68.0,7.0,80.0,1187.368
1187378.0,63.0,67.0,8.0,78.0,1187.378
1187388.0,63.0,68.0,7.0,73.0,1187.388
1187398.0,61.0,68.0,8.0,76.0,1187.398
1187408.0,61.0,68.0,9.0,77.0,1187.408
1187418.0,62.0,68.0,10.0,72.0,1187.418
1187428.0,61.0,67.0,9.0,73.0,1187.428
1187438.0,60.0,68.0,7.0,74.0,1187.438
1187448.0,60.0,65.0,8.0,82.0,1187.448
1187458.0,60.0,64.0,7.0,84.0,1187.458
1187468.0,60.0,62.0,7.0,80.0,1187.468
1187478.0,59.0,63.0,5.0,75.0,1187.478
1187488.0,58.0,64.0,7.0,69.0,1187.488
1187499.0,58.0,66.0,6.0,65.0,1187.499
1187509.0,58.0,65.0,6.0,64.0,1187.509
1187519.0,57.0,67.0,6.0,71.0,1187.519
1187529.0,56.0,68.0,6.0,70.0,1187.529
1187539.0,57.0,66.0,5.0,65.0,1187.539
1187549.0,56.0,68.0,6.0,63.0,1187.549
1187559.0,57.0,67.0,6.0,62.0,1187.559
1187569.0,56.0,67.0,6.0,65.0,1187.569
1187579.0,55.0,67.0,6.0,81.0,1187.579
1187589.0,56.0,66.0,6.0,81.0,1187.589
1187599.0,55.0,67.0,5.0,80.0,1187.599
1187609.0,55.0,66.0,5.0,77.0,1187.609
1187619.0,55.0,66.0,6.0,73.0,1187.619
1187629.0,56.0,65.0,7.0,73.0,1187.629
1187639.0,56.0,64.0,6.0,75.0,1187.639
1187649.0,54.0,63.0,4.0,73.0,1187.649
1187659.0,54.0,61.0,5.0,73.0,1187.659
1187670.0,52.0,62.0,9.0,75.0,1187.67
1187680.0,52.0,60.0,9.0,70.0,1187.68
1187690.0,52.0,59.0,8.0,79.0,1187.69
1187700.0,51.0,59.0,8.0,85.0,1187.7
1187710.0,50.0,57.0,8.0,87.0,1187.71
1187720.0,51.0,57.0,8.0,85.0,1187.72
1187730.0,51.0,55.0,6.0,78.0,1187.73
1187740.0,53.0,56.0,6.0,73.0,1187.74
1187750.0,53.0,54.0,5.0,72.0,1187.75
1187760.0,52.0,54.0,7.0,70.0,1187.76
1187770.0,53.0,53.0,8.0,67.0,1187.77
1187780.0,53.0,51.0,7.0,68.0,1187.78
1187790.0,51.0,52.0,6.0,62.0,1187.79
1187800.0,52.0,52.0,5.0,74.0,1187.8
1187810.0,51.0,53.0,5.0,75.0,1187.81
1187820.0,52.0,52.0,5.0,74.0,1187.82
1187830.0,52.0,53.0,5.0,70.0,1187.83
1187840.0,54.0,52.0,5.0,66.0,1187.84
1187850.0,53.0,54.0,6.0,75.0,1187.85
1187860.0,54.0,53.0,10.0,77.0,1187.86
1187870.0,54.0,53.0,10.0,79.0,1187.87
1187880.0,55.0,58.0,9.0,78.0,1187.88
1187890.0,55.0,58.0,8.0,76.0,1187.89
1187900.0,56.0,61.0,7.0,75.0,1187.9
1187910.0,57.0,61.0,7.0,91.0,1187.91
1187920.0,57.0,64.0,7.0,91.0,1187.92
1187930.0,56.0,66.0,7.0,93.0,1187.93
1187940.0,55.0,68.0,7.0,87.0,1187.94
1187950.0,54.0,71.0,6.0,83.0,1187.95
1187960.0,53.0,70.0,6.0,76.0,1187.96
1187970.0,52.0,71.0,5.0,86.0,1187.97
1187980.0,53.0,71.0,5.0,86.0,1187.98
1187990.0,51.0,71.0,6.0,83.0,1187.99
1188000.0,50.0,72.0,5.0,76.0,1188.0
1188011.0,50.0,72.0,4.0,72.0,1188.011
1188021.0,49.0,75.0,6.0,73.0,1188.021
1188031.0,50.0,74.0,7.0,72.0,1188.031
1188041.0,51.0,72.0,5.0,77.0,1188.041
1188051.0,50.0,72.0,7.0,72.0,1188.051
1188061.0,50.0,71.0,7.0,71.0,1188.061
1188071.0,50.0,70.0,6.0,69.0,1188.071
1188081.0,49.0,69.0,6.0,77.0,1188.081
1188091.0,49.0,69.0,5.0,85.0,1188.091
1188101.0,49.0,67.0,5.0,78.0,1188.101
1188111.0,49.0,67.0,5.0,78.0,1188.111
1188121.0,49.0,66.0,5.0,75.0,1188.121
1188131.0,50.0,67.0,5.0,76.0,1188.131
1188141.0,49.0,67.0,5.0,72.0,1188.141
1188151.0,49.0,67.0,4.0,71.0,1188.151
1188161.0,51.0,66.0,3.0,77.0,1188.161
1188171.0,50.0,67.0,4.0,74.0,1188.171
1188182.0,50.0,67.0,4.0,72.0,1188.182
1188192.0,52.0,67.0,5.0,72.0,1188.192
1188202.0,53.0,67.0,6.0,78.0,1188.202
1188212.0,52.0,68.0,5.0,79.0,1188.212
1188222.0,52.0,68.0,5.0,75.0,1188.222
1188232.0,51.0,69.0,6.0,73.0,1188.232
1188242.0,52.0,68.0,6.0,71.0,1188.242
1188252.0,52.0,68.0,5.0,74.0,1188.252
1188262.0,52.0,67.0,7.0,83.0,1188.262
1188272.0,51.0,68.0,7.0,86.0,1188.272
1188282.0,52.0,66.0,6.0,80.0,1188.282
1188292.0,52.0,64.0,7.0,80.0,1188.292
1188302.0,53.0,65.0,6.0,77.0,1188.302
1188312.0,52.0,64.0,6.0,88.0,1188.312
1188322.0,53.0,64.0,6.0,84.0,1188.322
1188332.0,53.0,64.0,9.0,85.0,1188.332
1188342.0,57.0,64.0,8.0,80.0,1188.342
1188352.0,59.0,67.0,8.0,81.0,1188.352
1188362.0,93.0,72.0,10.0,96.0,1188.362
1188372.0,155.0,94.0,20.0,121.0,1188.372
1188382.0,225.0,115.0,32.0,122.0,1188.382
1188392.0,316.0,141.0,39.0,133.0,1188.392
1188402.0,337.0,139.0,42.0,185.0,1188.402
1188412.0,334.0,147.0,41.0,245.0,1188.412
1188422.0,328.0,179.0,54.0,267.0,1188.422
1188432.0,356.0,216.0,73.0,378.0,1188.432
1188442.0,361.0,222.0,71.0,439.0,1188.442
1188452.0,338.0,283.0,76.0,418.0,1188.452
1188462.0,309.0,370.0,92.0,449.0,1188.462
1188472.0,281.0,348.0,83.0,431.0,1188.472
1188482.0,259.0,400.0,81.0,400.0,1188.482
1188492.0,272.0,372.0,78.0,391.0,1188.492
1188502.0,255.0,367.0,76.0,362.0,1188.502
1188512.0,251.0,353.0,72.0,336.0,1188.512
1188523.0,279.0,344.0,64.0,308.0,1188.523
1188533.0,265.0,351.0,56.0,288.0,1188.533
1188543.0,252.0,365.0,50.0,272.0,1188.543
1188553.0,240.0,390.0,45.0,279.0,1188.553
1188563.0,240.0,425.0,39.0,278.0,1188.563
1188573.0,230.0,450.0,45.0,271.0,1188.573
1188583.0,215.0,478.0,40.0,289.0,1188.583
1188593.0,203.0,507.0,36.0,301.0,1188.593
1188603.0,200.0,530.0,32.0,291.0,1188.603
1188613.0,193.0,553.0,29.0,277.0,1188.613
1188623.0,179.0,572.0,25.0,275.0,1188.623
1188633.0,178.0,587.0,22.0,250.0,1188.633
1188643.0,163.0,603.0,33.0,265.0,1188.643
1188653.0,157.0,612.0,32.0,246.0,1188.653
1188663.0,145.0,621.0,34.0,260.0,1188.663
1188673.0,136.0,625.0,37.0,253.0,1188.673
1188683.0,148.0,638.0,35.0,255.0,1188.683
1188694.0,189.0,638.0,36.0,248.0,1188.694
1188704.0,183.0,624.0,31.0,232.0,1188.704
1188714.0,177.0,620.0,28.0,222.0,1188.714
1188724.0,162.0,617.0,25.0,216.0,1188.724
1188734.0,151.0,610.0,25.0,200.0,1188.734
1188744.0,149.0,601.0,22.0,186.0,1188.744
1188754.0,139.0,591.0,21.0,174.0,1188.754
1188764.0,137.0,582.0,19.0,163.0,1188.764
1188774.0,132.0,565.0,16.0,151.0,1188.774
1188784.0,126.0,549.0,17.0,141.0,1188.784
1188794.0,118.0,533.0,16.0,169.0,1188.794
1188804.0,113.0,516.0,14.0,164.0,1188.804
1188814.0,111.0,500.0,17.0,167.0,1188.814
1188824.0,111.0,487.0,25.0,175.0,1188.824
1188834.0,112.0,476.0,23.0,187.0,1188.834
1188844.0,102.0,461.0,20.0,192.0,1188.844
1188854.0,98.0,450.0,19.0,207.0,1188.854
1188864.0,93.0,439.0,16.0,214.0,1188.864
1188874.0,87.0,428.0,16.0,196.0,1188.874
1188884.0,83.0,419.0,15.0,181.0,1188.884
1188894.0,87.0,412.0,13.0,172.0,1188.894
1188904.0,92.0,405.0,15.0,157.0,1188.904
1188914.0,89.0,400.0,14.0,161.0,1188.914
1188924.0,84.0,393.0,14.0,175.0,1188.924
1188934.0,86.0,389.0,14.0,182.0,1188.934
1188944.0,85.0,386.0,16.0,182.0,1188.944
1188954.0,82.0,382.0,16.0,203.0,1188.954
1188964.0,78.0,377.0,17.0,241.0,1188.964
1188974.0,76.0,373.0,16.0,224.0,1188.974
1188984.0,75.0,367.0,16.0,206.0,1188.984
1188994.0,76.0,365.0,16.0,185.0,1188.994
1189004.0,84.0,363.0,17.0,186.0,1189.004
1189014.0,86.0,356.0,16.0,196.0,1189.014
1189024.0,83.0,353.0,16.0,184.0,1189.024
1189035.0,80.0,348.0,13.0,173.0,1189.035
1189045.0,85.0,345.0,25.0,171.0,1189.045
1189055.0,80.0,339.0,24.0,175.0,1189.055
1189065.0,78.0,335.0,23.0,173.0,1189.065
1189075.0,74.0,334.0,20.0,164.0,1189.075
1189085.0,71.0,333.0,18.0,157.0,1189.085
1189095.0,73.0,333.0,17.0,154.0,1189.095
1189105.0,75.0,328.0,16.0,151.0,1189.105
1189115.0,75.0,325.0,18.0,150.0,1189.115
1189125.0,73.0,319.0,17.0,156.0,1189.125
1189135.0,78.0,317.0,19.0,168.0,1189.135
1189145.0,77.0,313.0,24.0,163.0,1189.145
1189155.0,77.0,311.0,31.0,155.0,1189.155
1189165.0,81.0,310.0,29.0,152.0,1189.165
1189175.0,89.0,310.0,31.0,146.0,1189.175
1189185.0,87.0,309.0,29.0,140.0,1189.185
1189195.0,88.0,311.0,24.0,144.0,1189.195
1189206.0,85.0,312.0,23.0,148.0,1189.206
1189216.0,82.0,312.0,19.0,149.0,1189.216
1189226.0,78.0,312.0,19.0,144.0,1189.226
1189236.0,75.0,315.0,27.0,197.0,1189.236
1189246.0,73.0,310.0,33.0,204.0,1189.246
1189256.0,79.0,310.0,30.0,195.0,1189.256
1189266.0,80.0,306.0,25.0,197.0,1189.266
1189276.0,82.0,305.0,23.0,191.0,1189.276
1189286.0,79.0,303.0,20.0,180.0,1189.286
1189296.0,79.0,305.0,20.0,172.0,1189.296
1189306.0,78.0,305.0,19.0,169.0,1189.306
1189316.0,76.0,301.0,17.0,169.0,1189.316
1189326.0,75.0,299.0,17.0,163.0,1189.326
1189336.0,72.0,296.0,14.0,153.0,1189.336
1189346.0,71.0,296.0,14.0,145.0,1189.346
1189356.0,67.0,293.0,12.0,151.0,1189.356
1189366.0,66.0,290.0,11.0,152.0,1189.366
1189376.0,66.0,288.0,10.0,146.0,1189.376
1189386.0,65.0,284.0,12.0,164.0,1189.386
1189396.0,65.0,281.0,14.0,169.0,1189.396
1189406.0,66.0,280.0,13.0,173.0,1189.406
1189416.0,67.0,276.0,12.0,177.0,1189.416
1189426.0,73.0,275.0,12.0,163.0,1189.426
1189436.0,73.0,272.0,11.0,178.0,1189.436
1189446.0,72.0,269.0,11.0,212.0,1189.446
1189456.0,71.0,266.0,9.0,196.0,1189.456
1189466.0,72.0,263.0,10.0,181.0,1189.466
1189476.0,70.0,258.0,10.0,177.0,1189.476
1189486.0,71.0,255.0,13.0,202.0,1189.486
1189496.0,74.0,250.0,12.0,217.0,1189.496
1189506.0,72.0,248.0,12.0,207.0,1189.506
1189516.0,70.0,242.0,13.0,194.0,1189.516
1189526.0,67.0,239.0,11.0,184.0,1189.526
1189536.0,69.0,235.0,11.0,171.0,1189.536
1189547.0,65.0,233.0,9.0,171.0,1189.547
1189557.0,68.0,234.0,9.0,161.0,1189.557
1189567.0,67.0,232.0,11.0,173.0,1189.567
1189577.0,67.0,230.0,10.0,180.0,1189.577
1189587.0,69.0,227.0,9.0,171.0,1189.587
1189597.0,67.0,226.0,9.0,165.0,1189.597
1189607.0,67.0,223.0,9.0,167.0,1189.607
1189617.0,64.0,220.0,7.0,164.0,1189.617
1189627.0,62.0,217.0,9.0,155.0,1189.627
1189637.0,61.0,216.0,15.0,181.0,1189.637
1189647.0,63.0,211.0,16.0,192.0,1189.647
1189657.0,61.0,205.0,14.0,177.0,1189.657
1189667.0,58.0,204.0,18.0,160.0,1189.667
1189677.0,59.0,201.0,18.0,171.0,1189.677
1189687.0,57.0,197.0,15.0,175.0,1189.687
1189697.0,55.0,195.0,13.0,164.0,1189.697
1189707.0,56.0,192.0,12.0,149.0,1189.707
1189718.0,54.0,189.0,10.0,141.0,1189.718
1189728.0,55.0,186.0,9.0,131.0,1189.728
1189738.0,53.0,183.0,9.0,129.0,1189.738
1189748.0,56.0,179.0,9.0,127.0,1189.748
1189758.0,56.0,180.0,8.0,126.0,1189.758
1189768.0,61.0,174.0,11.0,121.0,1189.768
1189778.0,61.0,171.0,9.0,123.0,1189.778
1189788.0,60.0,168.0,9.0,125.0,1189.788
1189798.0,60.0,163.0,9.0,126.0,1189.798
1189808.0,61.0,163.0,8.0,119.0,1189.808
1189818.0,63.0,161.0,8.0,113.0,1189.818
1189828.0,61.0,158.0,7.0,105.0,1189.828
1189838.0,61.0,157.0,6.0,108.0,1189.838
1189848.0,62.0,157.0,6.0,112.0,1189.848
1189858.0,60.0,154.0,6.0,122.0,1189.858
1189868.0,60.0,151.0,5.0,126.0,1189.868
1189878.0,60.0,150.0,5.0,122.0,1189.878
1189888.0,60.0,148.0,6.0,118.0,1189.888
1189898.0,60.0,146.0,4.0,122.0,1189.898
1189908.0,60.0,143.0,4.0,128.0,1189.908
1189918.0,60.0,142.0,5.0,125.0,1189.918
1189928.0,59.0,141.0,4.0,130.0,1189.928
1189938.0,64.0,144.0,6.0,148.0,1189.938
1189948.0,65.0,143.0,8.0,152.0,1189.948
1189958.0,67.0,135.0,11.0,153.0,1189.958
1189968.0,66.0,135.0,9.0,163.0,1189.968
1189978.0,68.0,129.0,10.0,163.0,1189.978
1189988.0,76.0,121.0,9.0,192.0,1189.988
1189998.0,71.0,118.0,23.0,196.0,1189.998
1190008.0,83.0,116.0,40.0,205.0,1190.008
1190018.0,83.0,109.0,43.0,207.0,1190.018
1190028.0,95.0,112.0,47.0,190.0,1190.028
1190038.0,93.0,117.0,64.0,203.0,1190.038
1190048.0,104.0,141.0,75.0,201.0,1190.048
1190059.0,107.0,163.0,90.0,189.0,1190.059
1190069.0,110.0,193.0,107.0,192.0,1190.069
1190079.0,110.0,219.0,124.0,200.0,1190.079
1190089.0,111.0,249.0,135.0,210.0,1190.089
1190099.0,115.0,278.0,162.0,219.0,1190.099
1190109.0,118.0,306.0,164.0,216.0,1190.109
1190119.0,120.0,328.0,225.0,245.0,1190.119
1190129.0,122.0,352.0,214.0,246.0,1190.129
1190139.0,126.0,375.0,198.0,298.0,1190.139
1190149.0,125.0,386.0,211.0,291.0,1190.149
1190159.0,127.0,399.0,204.0,301.0,1190.159
1190169.0,130.0,408.0,190.0,288.0,1190.169
1190179.0,128.0,406.0,184.0,271.0,1190.179
1190189.0,132.0,407.0,194.0,255.0,1190.189
1190199.0,135.0,407.0,176.0,264.0,1190.199
1190209.0,133.0,405.0,163.0,244.0,1190.209
1190219.0,134.0,404.0,144.0,230.0,1190.219
1190230.0,132.0,401.0,127.0,225.0,1190.23
1190240.0,130.0,397.0,124.0,208.0,1190.24
1190250.0,128.0,396.0,118.0,202.0,1190.25
1190260.0,127.0,394.0,124.0,201.0,1190.26
1190270.0,127.0,390.0,155.0,213.0,1190.27
1190280.0,129.0,392.0,139.0,213.0,1190.28
1190290.0,129.0,388.0,133.0,202.0,1190.29
1190300.0,126.0,382.0,123.0,196.0,1190.3
1190310.0,126.0,380.0,131.0,192.0,1190.31
1190320.0,125.0,376.0,125.0,177.0,1190.32
1190330.0,123.0,371.0,117.0,167.0,1190.33
1190340.0,121.0,366.0,108.0,167.0,1190.34
1190350.0,120.0,360.0,101.0,156.0,1190.35
1190360.0,117.0,353.0,100.0,151.0,1190.36
1190370.0,117.0,352.0,96.0,150.0,1190.37
1190380.0,113.0,347.0,93.0,165.0,1190.38
1190390.0,113.0,347.0,86.0,162.0,1190.39
1190400.0,108.0,343.0,77.0,157.0,1190.4
1190410.0,111.0,342.0,69.0,147.0,1190.41
1190420.0,108.0,341.0,74.0,149.0,1190.42
1190430.0,106.0,338.0,74.0,140.0,1190.43
1190440.0,104.0,338.0,82.0,128.0,1190.44
1190450.0,102.0,337.0,87.0,127.0,1190.45
1190460.0,100.0,336.0,78.0,136.0,1190.46
1190470.0,97.0,332.0,72.0,133.0,1190.47
1190480.0,95.0,329.0,64.0,125.0,1190.48
1190490.0,91.0,324.0,65.0,127.0,1190.49
1190500.0,88.0,319.0,71.0,124.0,1190.5
1190510.0,89.0,319.0,68.0,125.0,1190.51
1190520.0,87.0,314.0,62.0,117.0,1190.52
1190530.0,88.0,311.0,61.0,123.0,1190.53
1190540.0,84.0,305.0,55.0,113.0,1190.54
1190550.0,85.0,301.0,54.0,115.0,1190.55
1190560.0,80.0,295.0,55.0,109.0,1190.56
1190571.0,85.0,289.0,61.0,130.0,1190.571
1190581.0,84.0,288.0,55.0,137.0,1190.581
1190591.0,84.0,285.0,59.0,144.0,1190.591
1190601.0,79.0,279.0,51.0,139.0,1190.601
1190611.0,78.0,276.0,53.0,134.0,1190.611
1190621.0,78.0,272.0,50.0,127.0,1190.621
1190631.0,75.0,268.0,44.0,139.0,1190.631
1190641.0,73.0,263.0,44.0,143.0,1190.641
1190651.0,71.0,259.0,65.0,142.0,1190.651
1190661.0,68.0,255.0,63.0,135.0,1190.661
1190671.0,74.0,254.0,55.0,144.0,1190.671
1190681.0,72.0,253.0,55.0,161.0,1190.681
1190691.0,70.0,251.0,54.0,156.0,1190.691
1190701.0,68.0,251.0,50.0,146.0,1190.701
1190711.0,66.0,248.0,53.0,135.0,1190.711
1190721.0,65.0,247.0,49.0,128.0,1190.721
1190731.0,61.0,244.0,50.0,133.0,1190.731
1190742.0,61.0,244.0,49.0,136.0,1190.742
1190752.0,60.0,242.0,48.0,137.0,1190.752
1190762.0,58.0,239.0,43.0,130.0,1190.762
1190772.0,57.0,237.0,39.0,118.0,1190.772
1190782.0,56.0,234.0,45.0,114.0,1190.782
1190792.0,55.0,232.0,40.0,122.0,1190.792
1190802.0,53.0,229.0,36.0,115.0,1190.802
1190812.0,53.0,224.0,37.0,111.0,1190.812
1190822.0,52.0,223.0,39.0,114.0,1190.822
1190832.0,54.0,223.0,35.0,120.0,1190.832
1190842.0,53.0,222.0,33.0,121.0,1190.842
1190852.0,51.0,217.0,33.0,114.0,1190.852
1190862.0,51.0,216.0,33.0,107.0,1190.862
1190872.0,49.0,215.0,31.0,102.0,1190.872
1190882.0,48.0,213.0,28.0,102.0,1190.882
1190892.0,54.0,208.0,30.0,109.0,1190.892
1190902.0,54.0,204.0,35.0,108.0,1190.902
1190912.0,55.0,207.0,35.0,109.0,1190.912
1190922.0,54.0,204.0,31.0,107.0,1190.922
1190932.0,52.0,201.0,29.0,103.0,1190.932
1190942.0,50.0,198.0,27.0,104.0,1190.942
1190952.0,50.0,196.0,43.0,100.0,1190.952
1190962.0,49.0,194.0,42.0,96.0,1190.962
1190972.0,51.0,194.0,38.0,94.0,1190.972
1190982.0,48.0,192.0,36.0,107.0,1190.982
1190992.0,49.0,190.0,35.0,112.0,1190.992
1191002.0,48.0,188.0,33.0,108.0,1191.002
1191012.0,46.0,187.0,30.0,107.0,1191.012
1191022.0,49.0,182.0,51.0,106.0,1191.022
1191032.0,46.0,182.0,51.0,103.0,1191.032
1191042.0,47.0,179.0,48.0,103.0,1191.042
1191052.0,47.0,177.0,45.0,113.0,1191.052
1191062.0,47.0,176.0,50.0,109.0,1191.062
1191072.0,46.0,174.0,44.0,103.0,1191.072
1191083.0,46.0,172.0,42.0,114.0,1191.083
1191093.0,47.0,169.0,38.0,114.0,1191.093
1191103.0,46.0,169.0,46.0,115.0,1191.103
1191113.0,45.0,165.0,42.0,113.0,1191.113
1191123.0,45.0,164.0,36.0,109.0,1191.123
1191133.0,45.0,159.0,38.0,116.0,1191.133
1191143.0,46.0,157.0,33.0,110.0,1191.143
1191153.0,45.0,153.0,39.0,109.0,1191.153
1191163.0,45.0,150.0,40.0,107.0,1191.163
1191173.0,44.0,149.0,36.0,120.0,1191.173
1191183.0,45.0,145.0,43.0,129.0,1191.183
1191193.0,46.0,147.0,48.0,133.0,1191.193
1191203.0,46.0,145.0,43.0,128.0,1191.203
1191213.0,45.0,143.0,39.0,118.0,1191.213
1191223.0,46.0,141.0,34.0,113.0,1191.223
1191233.0,47.0,138.0,31.0,119.0,1191.233
1191243.0,45.0,137.0,29.0,116.0,1191.243
1191254.0,45.0,135.0,26.0,113.0,1191.254
1191264.0,45.0,134.0,26.0,113.0,1191.264
1191274.0,45.0,132.0,24.0,109.0,1191.274
1191284.0,45.0,131.0,21.0,111.0,1191.284
1191294.0,44.0,128.0,20.0,115.0,1191.294
1191304.0,45.0,125.0,30.0,112.0,1191.304
1191314.0,44.0,123.0,29.0,108.0,1191.314
1191324.0,45.0,120.0,29.0,107.0,1191.324
1191334.0,43.0,120.0,26.0,107.0,1191.334
1191344.0,45.0,118.0,24.0,112.0,1191.344
1191354.0,45.0,118.0,25.0,114.0,1191.354
1191364.0,45.0,117.0,24.0,108.0,1191.364
1191374.0,44.0,115.0,22.0,99.0,1191.374
1191384.0,42.0,116.0,18.0,93.0,1191.384
1191394.0,43.0,115.0,17.0,92.0,1191.394
1191404.0,43.0,116.0,15.0,89.0,1191.404
1191414.0,43.0,116.0,15.0,90.0,1191.414
1191424.0,43.0,114.0,18.0,87.0,1191.424
1191434.0,41.0,113.0,15.0,84.0,1191.434
1191444.0,43.0,113.0,17.0,90.0,1191.444
1191454.0,42.0,116.0,16.0,92.0,1191.454
1191464.0,44.0,114.0,33.0,111.0,1191.464
1191474.0,45.0,117.0,35.0,106.0,1191.474
1191484.0,45.0,117.0,30.0,101.0,1191.484
1191494.0,45.0,115.0,26.0,114.0,1191.494
1191504.0,44.0,114.0,24.0,117.0,1191.504
1191514.0,45.0,113.0,22.0,121.0,1191.514
1191524.0,44.0,112.0,19.0,114.0,1191.524
1191534.0,42.0,111.0,17.0,108.0,1191.534
1191544.0,43.0,112.0,16.0,100.0,1191.544
1191554.0,43.0,108.0,43.0,106.0,1191.554
1191564.0,44.0,108.0,53.0,129.0,1191.564
1191574.0,44.0,109.0,47.0,124.0,1191.574
1191584.0,44.0,108.0,43.0,114.0,1191.584
1191595.0,44.0,111.0,38.0,112.0,1191.595
1191605.0,46.0,109.0,37.0,105.0,1191.605
1191615.0,46.0,110.0,31.0,105.0,1191.615
1191625.0,46.0,108.0,29.0,104.0,1191.625
1191635.0,48.0,108.0,26.0,104.0,1191.635
1191645.0,47.0,106.0,23.0,105.0,1191.645
1191655.0,48.0,105.0,21.0,102.0,1191.655
1191665.0,48.0,104.0,20.0,99.0,1191.665
1191675.0,48.0,103.0,18.0,105.0,1191.675
1191685.0,47.0,104.0,16.0,104.0,1191.685
1191695.0,47.0,102.0,15.0,106.0,1191.695
1191705.0,47.0,102.0,16.0,109.0,1191.705
1191715.0,47.0,101.0,15.0,105.0,1191.715
1191725.0,49.0,103.0,15.0,117.0,1191.725
1191735.0,46.0,102.0,12.0,114.0,1191.735
1191745.0,48.0,100.0,19.0,107.0,1191.745
1191755.0,49.0,102.0,16.0,101.0,1191.755
1191766.0,48.0,99.0,16.0,94.0,1191.766
1191776.0,47.0,97.0,16.0,100.0,1191.776
1191786.0,49.0,98.0,13.0,97.0,1191.786
1191796.0,51.0,98.0,14.0,105.0,1191.796
1191806.0,50.0,97.0,18.0,101.0,1191.806
1191816.0,51.0,95.0,22.0,96.0,1191.816
1191826.0,52.0,94.0,20.0,95.0,1191.826
1191836.0,53.0,92.0,18.0,94.0,1191.836
1191846.0,52.0,92.0,18.0,95.0,1191.846
1191856.0,53.0,91.0,16.0,89.0,1191.856
1191866.0,54.0,90.0,15.0,90.0,1191.866
1191876.0,56.0,89.0,13.0,93.0,1191.876
1191886.0,58.0,88.0,14.0,92.0,1191.886
1191896.0,60.0,89.0,18.0,92.0,1191.896
1191906.0,62.0,89.0,16.0,88.0,1191.906
1191916.0,62.0,88.0,15.0,105.0,1191.916
1191926.0,61.0,87.0,14.0,107.0,1191.926
1191936.0,62.0,86.0,20.0,112.0,1191.936
1191946.0,61.0,86.0,18.0,111.0,1191.946
1191956.0,63.0,85.0,17.0,102.0,1191.956
1191966.0,64.0,84.0,16.0,97.0,1191.966
1191976.0,63.0,82.0,15.0,97.0,1191.976
1191986.0,64.0,81.0,14.0,100.0,1191.986
1191996.0,62.0,80.0,13.0,98.0,1191.996
1192006.0,64.0,80.0,15.0,101.0,1192.006
1192016.0,63.0,78.0,12.0,98.0,1192.016
1192026.0,63.0,77.0,13.0,93.0,1192.026
1192036.0,64.0,76.0,11.0,106.0,1192.036
1192046.0,64.0,74.0,10.0,115.0,1192.046
1192056.0,64.0,72.0,12.0,108.0,1192.056
1192066.0,63.0,72.0,13.0,102.0,1192.066
1192076.0,63.0,69.0,13.0,94.0,1192.076
1192086.0,62.0,69.0,12.0,96.0,1192.086
1192096.0,62.0,69.0,13.0,96.0,1192.096
1192107.0,61.0,70.0,22.0,98.0,1192.107
1192117.0,61.0,70.0,21.0,94.0,1192.117
1192127.0,62.0,68.0,18.0,100.0,1192.127
1192137.0,60.0,67.0,20.0,100.0,1192.137
1192147.0,61.0,66.0,18.0,98.0,1192.147
1192157.0,60.0,65.0,16.0,99.0,1192.157
1192167.0,59.0,64.0,14.0,92.0,1192.167
1192177.0,57.0,63.0,21.0,95.0,1192.177
1192187.0,58.0,64.0,23.0,96.0,1192.187
1192197.0,56.0,62.0,21.0,92.0,1192.197
1192207.0,55.0,62.0,20.0,90.0,1192.207
1192217.0,55.0,61.0,21.0,98.0,1192.217
1192227.0,53.0,60.0,19.0,106.0,1192.227
1192237.0,55.0,62.0,20.0,99.0,1192.237
1192247.0,54.0,61.0,19.0,101.0,1192.247
1192257.0,54.0,60.0,19.0,99.0,1192.257
1192267.0,53.0,60.0,18.0,100.0,1192.267
1192278.0,53.0,62.0,15.0,100.0,1192.278
1192288.0,54.0,62.0,17.0,104.0,1192.288
1192298.0,54.0,63.0,22.0,109.0,1192.298
1192308.0,55.0,62.0,20.0,104.0,1192.308
1192318.0,56.0,62.0,17.0,101.0,1192.318
1192328.0,56.0,61.0,17.0,109.0,1192.328
1192338.0,57.0,60.0,17.0,114.0,1192.338
1192348.0,57.0,58.0,15.0,108.0,1192.348
1192358.0,58.0,57.0,15.0,113.0,1192.358
1192368.0,57.0,56.0,14.0,105.0,1192.368
1192378.0,55.0,55.0,13.0,114.0,1192.378
1192388.0,57.0,53.0,16.0,123.0,1192.388
1192398.0,56.0,52.0,17.0,114.0,1192.398
1192408.0,57.0,51.0,16.0,112.0,1192.408
1192418.0,56.0,50.0,15.0,116.0,1192.418
1192428.0,56.0,48.0,15.0,118.0,1192.428
1192438.0,55.0,48.0,15.0,116.0,1192.438
1192448.0,54.0,47.0,16.0,117.0,1192.448
1192458.0,55.0,47.0,14.0,113.0,1192.458
1192468.0,53.0,48.0,16.0,110.0,1192.468
1192478.0,53.0,46.0,14.0,102.0,1192.478
1192488.0,50.0,45.0,12.0,99.0,1192.488
1192498.0,51.0,43.0,13.0,101.0,1192.498
1192508.0,49.0,44.0,16.0,105.0,1192.508
1192518.0,48.0,43.0,17.0,101.0,1192.518
1192528.0,48.0,44.0,15.0,102.0,1192.528
1192538.0,48.0,44.0,15.0,115.0,1192.538
1192548.0,46.0,43.0,16.0,108.0,1192.548
1192558.0,45.0,43.0,17.0,105.0,1192.558
1192568.0,46.0,43.0,17.0,105.0,1192.568
1192578.0,45.0,42.0,14.0,106.0,1192.578
1192588.0,44.0,41.0,17.0,104.0,1192.588
1192598.0,44.0,40.0,15.0,102.0,1192.598
1192608.0,43.0,40.0,16.0,100.0,1192.608
1192619.0,44.0,38.0,20.0,102.0,1192.619
1192629.0,44.0,39.0,21.0,96.0,1192.629
1192639.0,45.0,38.0,19.0,104.0,1192.639
1192649.0,44.0,38.0,16.0,102.0,1192.649
1192659.0,44.0,38.0,17.0,97.0,1192.659
1192669.0,43.0,39.0,15.0,102.0,1192.669
1192679.0,43.0,39.0,14.0,105.0,1192.679
1192689.0,43.0,39.0,15.0,103.0,1192.689
1192699.0,44.0,38.0,19.0,114.0,1192.699
1192709.0,44.0,39.0,19.0,114.0,1192.709
1192719.0,44.0,39.0,18.0,106.0,1192.719
1192729.0,44.0,38.0,21.0,103.0,1192.729
1192739.0,45.0,38.0,18.0,106.0,1192.739
1192749.0,45.0,39.0,17.0,112.0,1192.749
1192759.0,44.0,38.0,18.0,104.0,1192.759
1192769.0,44.0,38.0,16.0,102.0,1192.769
1192779.0,44.0,39.0,15.0,103.0,1192.779
1192790.0,44.0,39.0,13.0,94.0,1192.79
1192800.0,44.0,39.0,13.0,98.0,1192.8
1192810.0,44.0,40.0,11.0,100.0,1192.81
1192820.0,44.0,39.0,13.0,104.0,1192.82
1192830.0,45.0,38.0,16.0,110.0,1192.83
1192840.0,44.0,38.0,23.0,104.0,1192.84
1192850.0,45.0,38.0,21.0,99.0,1192.85
1192860.0,45.0,38.0,17.0,102.0,1192.86
1192870.0,47.0,40.0,17.0,96.0,1192.87
1192880.0,46.0,40.0,15.0,96.0,1192.88
1192890.0,44.0,40.0,16.0,106.0,1192.89
1192900.0,46.0,38.0,19.0,103.0,1192.9
1192910.0,45.0,39.0,16.0,98.0,1192.91
1192920.0,46.0,37.0,17.0,94.0,1192.92
1192930.0,46.0,37.0,14.0,99.0,1192.93
1192940.0,45.0,38.0,13.0,99.0,1192.94
1192950.0,44.0,37.0,14.0,97.0,1192.95
1192960.0,43.0,39.0,13.0,94.0,1192.96
1192970.0,44.0,38.0,13.0,87.0,1192.97
1192980.0,44.0,38.0,17.0,92.0,1192.98
1192990.0,45.0,39.0,18.0,98.0,1192.99
1193000.0,45.0,40.0,14.0,88.0,1193.0
1193010.0,45.0,39.0,15.0,83.0,1193.01
1193020.0,46.0,41.0,15.0,85.0,1193.02
1193030.0,45.0,40.0,14.0,82.0,1193.03
1193040.0,45.0,38.0,12.0,95.0,1193.04
1193050.0,45.0,38.0,13.0,93.0,1193.05
1193060.0,46.0,38.0,12.0,90.0,1193.06
1193070.0,47.0,38.0,12.0,85.0,1193.07
1193080.0,46.0,38.0,15.0,88.0,1193.08
1193090.0,46.0,38.0,14.0,89.0,1193.09
1193100.0,45.0,38.0,12.0,92.0,1193.1
1193110.0,46.0,38.0,11.0,94.0,1193.11
1193120.0,45.0,37.0,11.0,94.0,1193.12
1193131.0,46.0,36.0,11.0,86.0,1193.131
1193141.0,47.0,36.0,16.0,93.0,1193.141
1193151.0,47.0,37.0,16.0,98.0,1193.151
1193161.0,46.0,37.0,15.0,103.0,1193.161
1193171.0,47.0,37.0,13.0,97.0,1193.171
1193181.0,47.0,36.0,12.0,92.0,1193.181
1193191.0,48.0,36.0,11.0,95.0,1193.191
1193201.0,47.0,36.0,13.0,99.0,1193.201
1193211.0,48.0,35.0,14.0,105.0,1193.211
1193221.0,48.0,36.0,14.0,106.0,1193.221
1193231.0,50.0,35.0,13.0,101.0,1193.231
1193241.0,49.0,37.0,11.0,101.0,1193.241
1193251.0,50.0,36.0,11.0,96.0,1193.251
1193261.0,49.0,36.0,10.0,93.0,1193.261
1193271.0,49.0,37.0,18.0,90.0,1193.271
1193281.0,48.0,37.0,20.0,85.0,1193.281
1193291.0,48.0,36.0,18.0,86.0,1193.291
1193302.0,47.0,36.0,16.0,91.0,1193.302
1193312.0,45.0,39.0,14.0,86.0,1193.312
1193322.0,46.0,38.0,14.0,84.0,1193.322
1193332.0,45.0,37.0,13.0,95.0,1193.332
1193342.0,45.0,38.0,14.0,96.0,1193.342
1193352.0,45.0,37.0,12.0,93.0,1193.352
1193362.0,46.0,37.0,12.0,91.0,1193.362
1193372.0,47.0,37.0,11.0,93.0,1193.372
1193382.0,46.0,37.0,10.0,86.0,1193.382
1193392.0,45.0,36.0,9.0,80.0,1193.392
1193402.0,45.0,39.0,11.0,96.0,1193.402
1193412.0,45.0,39.0,11.0,96.0,1193.412
1193422.0,44.0,39.0,12.0,94.0,1193.422
1193432.0,43.0,38.0,10.0,106.0,1193.432
1193442.0,44.0,38.0,10.0,102.0,1193.442
1193452.0,42.0,37.0,9.0,105.0,1193.452
1193462.0,42.0,38.0,10.0,116.0,1193.462
1193472.0,42.0,36.0,9.0,117.0,1193.472
1193482.0,44.0,37.0,11.0,116.0,1193.482
1193492.0,43.0,37.0,10.0,107.0,1193.492
1193502.0,42.0,36.0,10.0,105.0,1193.502
1193512.0,42.0,37.0,9.0,95.0,1193.512
1193522.0,42.0,39.0,7.0,88.0,1193.522
1193532.0,42.0,40.0,11.0,88.0,1193.532
1193542.0,43.0,42.0,11.0,102.0,1193.542
1193552.0,44.0,43.0,11.0,104.0,1193.552
1193562.0,43.0,44.0,12.0,97.0,1193.562
1193572.0,44.0,43.0,12.0,98.0,1193.572
1193582.0,44.0,42.0,11.0,96.0,1193.582
1193592.0,43.0,43.0,11.0,95.0,1193.592
1193602.0,44.0,42.0,9.0,98.0,1193.602
1193612.0,44.0,42.0,9.0,93.0,1193.612
1193622.0,44.0,41.0,9.0,92.0,1193.622
1193632.0,44.0,43.0,8.0,94.0,1193.632
1193643.0,44.0,43.0,14.0,93.0,1193.643
1193653.0,44.0,41.0,15.0,104.0,1193.653
1193663.0,43.0,43.0,17.0,104.0,1193.663
1193673.0,43.0,42.0,15.0,96.0,1193.673
1193683.0,41.0,42.0,15.0,93.0,1193.683
1193693.0,43.0,45.0,20.0,89.0,1193.693
1193703.0,43.0,47.0,18.0,85.0,1193.703
1193713.0,42.0,46.0,18.0,88.0,1193.713
1193723.0,44.0,44.0,17.0,101.0,1193.723
1193733.0,45.0,42.0,16.0,96.0,1193.733
1193743.0,45.0,41.0,15.0,92.0,1193.743
1193753.0,44.0,40.0,13.0,99.0,1193.753
1193763.0,46.0,39.0,13.0,97.0,1193.763
1193773.0,47.0,39.0,11.0,98.0,1193.773
1193783.0,48.0,39.0,12.0,97.0,1193.783
1193793.0,48.0,40.0,15.0,90.0,1193.793
1193803.0,47.0,40.0,13.0,90.0,1193.803
1193814.0,47.0,40.0,12.0,92.0,1193.814
1193824.0,45.0,40.0,12.0,84.0,1193.824
1193834.0,46.0,40.0,12.0,81.0,1193.834
1193844.0,45.0,40.0,10.0,86.0,1193.844
1193854.0,44.0,41.0,10.0,93.0,1193.854
1193864.0,45.0,41.0,10.0,93.0,1193.864
1193874.0,44.0,41.0,10.0,95.0,1193.874
1193884.0,47.0,39.0,12.0,93.0,1193.884
1193894.0,48.0,41.0,13.0,93.0,1193.894
1193904.0,49.0,40.0,14.0,96.0,1193.904
1193914.0,50.0,40.0,14.0,94.0,1193.914
1193924.0,51.0,39.0,12.0,94.0,1193.924
1193934.0,50.0,39.0,11.0,90.0,1193.934
1193944.0,50.0,40.0,11.0,90.0,1193.944
1193954.0,49.0,39.0,11.0,85.0,1193.954
1193964.0,51.0,39.0,12.0,101.0,1193.964
1193974.0,52.0,38.0,12.0,94.0,1193.974
1193984.0,52.0,39.0,10.0,94.0,1193.984
1193994.0,50.0,42.0,11.0,99.0,1193.994
1194004.0,49.0,44.0,10.0,100.0,1194.004
1194014.0,49.0,47.0,11.0,106.0,1194.014
1194024.0,49.0,47.0,11.0,106.0,1194.024
1194034.0,47.0,48.0,11.0,123.0,1194.034
1194044.0,47.0,49.0,11.0,120.0,1194.044
1194054.0,48.0,49.0,10.0,116.0,1194.054
1194064.0,46.0,50.0,14.0,115.0,1194.064
1194074.0,49.0,49.0,13.0,109.0,1194.074
1194084.0,50.0,49.0,11.0,100.0,1194.084
1194094.0,50.0,48.0,12.0,94.0,1194.094
1194104.0,52.0,48.0,11.0,87.0,1194.104
1194114.0,52.0,48.0,10.0,93.0,1194.114
1194124.0,53.0,48.0,10.0,93.0,1194.124
1194134.0,52.0,48.0,11.0,96.0,1194.134
1194144.0,54.0,47.0,14.0,91.0,1194.144
1194155.0,54.0,48.0,12.0,88.0,1194.155
1194165.0,54.0,48.0,13.0,82.0,1194.165
1194175.0,53.0,51.0,27.0,94.0,1194.175
1194185.0,55.0,48.0,25.0,96.0,1194.185
1194195.0,56.0,47.0,22.0,91.0,1194.195
1194205.0,55.0,47.0,22.0,104.0,1194.205
1194215.0,56.0,47.0,21.0,103.0,1194.215
1194225.0,55.0,49.0,20.0,103.0,1194.225
1194235.0,55.0,52.0,21.0,102.0,1194.235
1194245.0,57.0,51.0,21.0,101.0,1194.245
1194255.0,59.0,51.0,24.0,99.0,1194.255
1194265.0,59.0,52.0,26.0,93.0,1194.265
1194275.0,60.0,54.0,23.0,101.0,1194.275
1194285.0,61.0,56.0,21.0,97.0,1194.285
1194295.0,60.0,61.0,19.0,105.0,1194.295
1194305.0,61.0,62.0,18.0,96.0,1194.305
1194315.0,61.0,67.0,16.0,92.0,1194.315
1194326.0,62.0,67.0,19.0,94.0,1194.326
1194336.0,62.0,71.0,17.0,96.0,1194.336
1194346.0,62.0,73.0,17.0,94.0,1194.346
1194356.0,64.0,74.0,16.0,91.0,1194.356
1194366.0,63.0,77.0,18.0,91.0,1194.366
1194376.0,63.0,77.0,21.0,84.0,1194.376
1194386.0,63.0,79.0,26.0,81.0,1194.386
1194396.0,62.0,81.0,31.0,86.0,1194.396
1194406.0,63.0,80.0,28.0,83.0,1194.406
1194416.0,61.0,82.0,25.0,83.0,1194.416
1194426.0,61.0,83.0,23.0,83.0,1194.426
1194436.0,61.0,84.0,24.0,90.0,1194.436
1194446.0,59.0,82.0,24.0,86.0,1194.446
1194456.0,60.0,82.0,21.0,96.0,1194.456
1194466.0,58.0,82.0,19.0,97.0,1194.466
1194476.0,60.0,81.0,18.0,94.0,1194.476
1194486.0,60.0,80.0,18.0,91.0,1194.486
1194496.0,59.0,80.0,16.0,88.0,1194.496
1194506.0,58.0,82.0,31.0,91.0,1194.506
1194516.0,57.0,80.0,28.0,88.0,1194.516
1194526.0,55.0,80.0,25.0,101.0,1194.526
1194536.0,53.0,82.0,29.0,111.0,1194.536
1194546.0,53.0,82.0,33.0,105.0,1194.546
1194556.0,52.0,80.0,29.0,101.0,1194.556
1194566.0,52.0,79.0,26.0,96.0,1194.566
1194576.0,50.0,81.0,24.0,97.0,1194.576
1194586.0,51.0,81.0,26.0,108.0,1194.586
1194596.0,51.0,82.0,27.0,100.0,1194.596
1194606.0,51.0,82.0,23.0,96.0,1194.606
1194616.0,50.0,82.0,22.0,90.0,1194.616
1194626.0,50.0,82.0,20.0,96.0,1194.626
1194636.0,48.0,82.0,18.0,98.0,1194.636
1194646.0,47.0,84.0,20.0,101.0,1194.646
1194656.0,48.0,83.0,21.0,101.0,1194.656
1194667.0,48.0,85.0,18.0,105.0,1194.667
1194677.0,48.0,85.0,24.0,96.0,1194.677
1194687.0,52.0,85.0,21.0,94.0,1194.687
1194697.0,51.0,86.0,20.0,92.0,1194.697
1194707.0,51.0,86.0,18.0,87.0,1194.707
1194717.0,51.0,87.0,17.0,85.0,1194.717
1194727.0,50.0,86.0,16.0,96.0,1194.727
1194737.0,50.0,86.0,13.0,97.0,1194.737
1194747.0,51.0,84.0,14.0,98.0,1194.747
1194757.0,51.0,83.0,13.0,90.0,1194.757
1194767.0,49.0,81.0,12.0,87.0,1194.767
1194777.0,48.0,81.0,14.0,92.0,1194.777
1194787.0,48.0,80.0,22.0,96.0,1194.787
1194797.0,49.0,77.0,33.0,95.0,1194.797
1194807.0,49.0,75.0,37.0,95.0,1194.807
1194817.0,51.0,73.0,32.0,92.0,1194.817
1194827.0,54.0,70.0,29.0,102.0,1194.827
1194838.0,54.0,67.0,25.0,100.0,1194.838
1194848.0,57.0,64.0,22.0,91.0,1194.848
1194858.0,55.0,63.0,22.0,85.0,1194.858
1194868.0,56.0,60.0,22.0,87.0,1194.868
1194878.0,56.0,62.0,21.0,90.0,1194.878
1194888.0,57.0,58.0,19.0,92.0,1194.888
1194898.0,58.0,56.0,16.0,90.0,1194.898
1194908.0,56.0,56.0,14.0,87.0,1194.908
1194918.0,56.0,55.0,17.0,84.0,1194.918
1194928.0,57.0,55.0,17.0,78.0,1194.928
1194938.0,57.0,55.0,16.0,75.0,1194.938
1194948.0,57.0,55.0,13.0,78.0,1194.948
1194958.0,56.0,54.0,14.0,79.0,1194.958
1194968.0,55.0,54.0,14.0,77.0,1194.968
1194978.0,53.0,55.0,13.0,78.0,1194.978
1194988.0,55.0,55.0,28.0,77.0,1194.988
1194998.0,53.0,56.0,24.0,77.0,1194.998
1195008.0,55.0,55.0,25.0,77.0,1195.008
1195018.0,56.0,54.0,22.0,83.0,1195.018
1195028.0,56.0,54.0,22.0,88.0,1195.028
1195038.0,55.0,53.0,23.0,82.0,1195.038
1195048.0,54.0,52.0,20.0,93.0,1195.048
1195058.0,56.0,51.0,19.0,96.0,1195.058
1195068.0,55.0,50.0,18.0,94.0,1195.068
1195078.0,55.0,50.0,16.0,86.0,1195.078
1195088.0,55.0,52.0,17.0,87.0,1195.088
1195098.0,53.0,50.0,16.0,86.0,1195.098
1195108.0,54.0,50.0,18.0,87.0,1195.108
1195118.0,52.0,50.0,15.0,84.0,1195.118
1195128.0,52.0,49.0,14.0,96.0,1195.128
1195138.0,51.0,50.0,14.0,93.0,1195.138
1195148.0,50.0,50.0,15.0,91.0,1195.148
1195158.0,50.0,48.0,13.0,88.0,1195.158
1195168.0,49.0,48.0,13.0,83.0,1195.168
1195179.0,49.0,47.0,13.0,84.0,1195.179
1195189.0,48.0,45.0,12.0,80.0,1195.189
1195199.0,48.0,45.0,11.0,90.0,1195.199
1195209.0,48.0,47.0,10.0,93.0,1195.209
1195219.0,47.0,48.0,10.0,90.0,1195.219
1195229.0,48.0,49.0,9.0,91.0,1195.229
1195239.0,48.0,50.0,10.0,86.0,1195.239
1195249.0,48.0,51.0,9.0,83.0,1195.249
1195259.0,50.0,52.0,7.0,84.0,1195.259
1195269.0,52.0,51.0,10.0,91.0,1195.269
1195279.0,50.0,55.0,16.0,107.0,1195.279
1195289.0,54.0,51.0,22.0,108.0,1195.289
1195299.0,54.0,50.0,20.0,102.0,1195.299
1195309.0,53.0,48.0,17.0,102.0,1195.309
1195319.0,55.0,48.0,16.0,99.0,1195.319
1195329.0,56.0,48.0,17.0,100.0,1195.329
1195339.0,56.0,47.0,18.0,96.0,1195.339
1195350.0,55.0,49.0,26.0,101.0,1195.35
1195360.0,57.0,48.0,41.0,110.0,1195.36
1195370.0,58.0,47.0,40.0,127.0,1195.37
1195380.0,59.0,47.0,36.0,129.0,1195.38
1195390.0,59.0,47.0,31.0,116.0,1195.39
1195400.0,58.0,48.0,28.0,111.0,1195.4
1195410.0,58.0,49.0,27.0,105.0,1195.41
1195420.0,59.0,48.0,25.0,113.0,1195.42
1195430.0,59.0,48.0,34.0,108.0,1195.43
1195440.0,59.0,48.0,37.0,114.0,1195.44
1195450.0,60.0,46.0,36.0,113.0,1195.45
1195460.0,61.0,47.0,33.0,107.0,1195.46
1195470.0,61.0,47.0,31.0,99.0,1195.47
1195480.0,62.0,47.0,28.0,99.0,1195.48
1195490.0,62.0,49.0,24.0,106.0,1195.49
1195500.0,63.0,49.0,22.0,105.0,1195.5
1195510.0,64.0,49.0,22.0,101.0,1195.51
1195520.0,64.0,50.0,21.0,95.0,1195.52
1195530.0,65.0,49.0,31.0,87.0,1195.53
1195540.0,64.0,47.0,26.0,87.0,1195.54
1195550.0,66.0,46.0,25.0,96.0,1195.55
