time (ms),signal 0,signal 1,signal 2,signal3,time (sec)
1209242.0,51.0,59.0,11.0,90.0,1209.242
1209252.0,52.0,59.0,10.0,86.0,1209.252
1209262.0,53.0,58.0,12.0,79.0,1209.262
1209272.0,52.0,57.0,10.0,79.0,1209.272
1209282.0,52.0,57.0,9.0,81.0,1209.282
1209292.0,51.0,60.0,9.0,98.0,1209.292
1209302.0,50.0,60.0,7.0,98.0,1209.302
1209312.0,51.0,60.0,8.0,91.0,1209.312
1209322.0,51.0,59.0,7.0,87.0,1209.322
1209332.0,54.0,57.0,7.0,88.0,1209.332
1209342.0,53.0,57.0,6.0,86.0,1209.342
1209352.0,55.0,56.0,7.0,80.0,1209.352
1209362.0,56.0,55.0,7.0,83.0,1209.362
1209372.0,55.0,54.0,6.0,82.0,1209.372
1209382.0,56.0,54.0,6.0,85.0,1209.382
1209392.0,55.0,54.0,6.0,86.0,1209.392
1209402.0,55.0,53.0,7.0,82.0,1209.402
1209412.0,54.0,51.0,4.0,87.0,1209.412
1209422.0,54.0,50.0,5.0,81.0,1209.422
1209432.0,54.0,49.0,5.0,87.0,1209.432
1209442.0,51.0,51.0,6.0,89.0,1209.442
1209452.0,51.0,50.0,8.0,85.0,1209.452
1209462.0,49.0,49.0,9.0,86.0,1209.462
1209472.0,49.0,48.0,8.0,82.0,1209.472
1209482.0,49.0,47.0,7.0,88.0,1209.482
1209492.0,47.0,47.0,7.0,87.0,1209.492
1209502.0,47.0,46.0,7.0,84.0,1209.502
1209512.0,46.0,48.0,7.0,80.0,1209.512
1209522.0,47.0,45.0,8.0,79.0,1209.522
1209532.0,47.0,44.0,11.0,82.0,1209.532
1209542.0,49.0,43.0,10.0,75.0,1209.542
1209552.0,47.0,42.0,9.0,74.0,1209.552
1209562.0,48.0,42.0,9.0,69.0,1209.562
1209572.0,48.0,42.0,9.0,69.0,1209.572
1209582.0,47.0,43.0,7.0,72.0,1209.582
1209592.0,47.0,41.0,7.0,71.0,1209.592
1209602.0,48.0,41.0,6.0,74.0,1209.602
1209612.0,51.0,40.0,8.0,74.0,1209.612
1209622.0,50.0,40.0,7.0,74.0,1209.622
1209632.0,50.0,39.0,7.0,73.0,1209.632
1209643.0,52.0,39.0,7.0,74.0,1209.643
1209653.0,53.0,38.0,6.0,80.0,1209.653
1209663.0,54.0,37.0,8.0,84.0,1209.663
1209673.0,56.0,38.0,7.0,84.0,1209.673
1209683.0,57.0,37.0,7.0,82.0,1209.683
1209693.0,57.0,39.0,5.0,85.0,1209.693
1209703.0,57.0,39.0,6.0,82.0,1209.703
1209713.0,57.0,39.0,11.0,84.0,1209.713
1209723.0,59.0,39.0,10.0,82.0,1209.723
1209733.0,58.0,38.0,9.0,81.0,1209.733
1209743.0,57.0,39.0,8.0,82.0,1209.743
1209753.0,58.0,39.0,9.0,90.0,1209.753
1209763.0,58.0,38.0,6.0,84.0,1209.763
1209773.0,57.0,38.0,7.0,82.0,1209.773
1209783.0,57.0,39.0,6.0,79.0,1209.783
1209793.0,57.0,39.0,6.0,82.0,1209.793
1209803.0,57.0,38.0,6.0,81.0,1209.803
1209814.0,57.0,39.0,5.0,82.0,1209.814
1209824.0,59.0,38.0,7.0,86.0,1209.824
1209834.0,58.0,38.0,5.0,80.0,1209.834
1209844.0,58.0,38.0,6.0,101.0,1209.844
1209854.0,59.0,39.0,6.0,101.0,1209.854
1209864.0,59.0,39.0,5.0,98.0,1209.864
1209874.0,60.0,38.0,5.0,95.0,1209.874
1209884.0,60.0,39.0,5.0,90.0,1209.884
1209894.0,62.0,38.0,5.0,83.0,1209.894
1209904.0,61.0,38.0,4.0,77.0,1209.904
1209914.0,60.0,39.0,4.0,72.0,1209.914
1209924.0,58.0,41.0,5.0,77.0,1209.924
1209934.0,59.0,41.0,7.0,80.0,1209.934
1209944.0,57.0,41.0,7.0,82.0,1209.944
1209954.0,56.0,42.0,7.0,88.0,1209.954
1209964.0,57.0,43.0,8.0,80.0,1209.964
1209974.0,54.0,45.0,6.0,80.0,1209.974
1209984.0,55.0,45.0,7.0,79.0,1209.984
1209994.0,53.0,46.0,6.0,82.0,1209.994
1210004.0,53.0,48.0,6.0,88.0,1210.004
1210014.0,55.0,46.0,7.0,89.0,1210.014
1210024.0,53.0,48.0,7.0,83.0,1210.024
1210034.0,57.0,46.0,8.0,82.0,1210.034
1210044.0,58.0,47.0,6.0,81.0,1210.044
1210054.0,57.0,48.0,7.0,78.0,1210.054
1210064.0,58.0,50.0,7.0,75.0,1210.064
1210074.0,58.0,51.0,6.0,80.0,1210.074
1210084.0,60.0,52.0,6.0,87.0,1210.084
1210094.0,58.0,55.0,5.0,81.0,1210.094
1210104.0,58.0,55.0,7.0,78.0,1210.104
1210114.0,63.0,57.0,7.0,83.0,1210.114
1210124.0,65.0,60.0,8.0,102.0,1210.124
1210134.0,77.0,73.0,9.0,101.0,1210.134
1210144.0,94.0,112.0,23.0,120.0,1210.144
1210155.0,166.0,183.0,49.0,195.0,1210.155
1210165.0,198.0,203.0,55.0,226.0,1210.165
1210175.0,234.0,214.0,51.0,214.0,1210.175
1210185.0,346.0,230.0,56.0,210.0,1210.185
1210195.0,331.0,225.0,61.0,200.0,1210.195
1210205.0,319.0,207.0,58.0,197.0,1210.205
1210215.0,287.0,192.0,51.0,196.0,1210.215
1210225.0,267.0,183.0,49.0,198.0,1210.225
1210235.0,254.0,181.0,42.0,180.0,1210.235
1210245.0,241.0,185.0,40.0,171.0,1210.245
1210255.0,225.0,199.0,34.0,155.0,1210.255
1210265.0,235.0,219.0,30.0,156.0,1210.265
1210275.0,238.0,245.0,27.0,151.0,1210.275
1210285.0,228.0,268.0,26.0,153.0,1210.285
1210295.0,217.0,319.0,29.0,141.0,1210.295
1210305.0,219.0,336.0,29.0,147.0,1210.305
1210315.0,227.0,385.0,32.0,166.0,1210.315
1210326.0,212.0,432.0,28.0,179.0,1210.326
1210336.0,191.0,420.0,29.0,185.0,1210.336
1210346.0,180.0,441.0,27.0,177.0,1210.346
1210356.0,173.0,480.0,29.0,190.0,1210.356
1210366.0,158.0,486.0,27.0,198.0,1210.366
1210376.0,145.0,502.0,33.0,196.0,1210.376
1210386.0,151.0,528.0,43.0,204.0,1210.386
1210396.0,158.0,537.0,44.0,226.0,1210.396
1210406.0,151.0,549.0,39.0,211.0,1210.406
1210416.0,141.0,558.0,35.0,196.0,1210.416
1210426.0,131.0,569.0,31.0,178.0,1210.426
1210436.0,125.0,592.0,36.0,164.0,1210.436
1210446.0,121.0,601.0,41.0,179.0,1210.446
1210456.0,122.0,603.0,42.0,184.0,1210.456
1210466.0,121.0,598.0,46.0,203.0,1210.466
1210476.0,114.0,597.0,47.0,197.0,1210.476
1210486.0,112.0,601.0,49.0,189.0,1210.486
1210496.0,110.0,593.0,45.0,187.0,1210.496
1210506.0,122.0,593.0,65.0,199.0,1210.506
1210516.0,124.0,586.0,57.0,191.0,1210.516
1210526.0,117.0,580.0,51.0,203.0,1210.526
1210536.0,115.0,574.0,48.0,191.0,1210.536
1210546.0,112.0,569.0,51.0,189.0,1210.546
1210556.0,105.0,558.0,51.0,185.0,1210.556
1210566.0,120.0,551.0,45.0,171.0,1210.566
1210576.0,114.0,541.0,39.0,163.0,1210.576
1210586.0,109.0,533.0,39.0,153.0,1210.586
1210596.0,107.0,530.0,37.0,149.0,1210.596
1210606.0,100.0,519.0,32.0,157.0,1210.606
1210616.0,96.0,510.0,29.0,172.0,1210.616
1210626.0,95.0,507.0,28.0,170.0,1210.626
1210636.0,92.0,494.0,23.0,159.0,1210.636
1210646.0,89.0,484.0,25.0,164.0,1210.646
1210656.0,88.0,477.0,24.0,177.0,1210.656
1210667.0,84.0,476.0,23.0,178.0,1210.667
1210677.0,85.0,461.0,38.0,179.0,1210.677
1210687.0,83.0,448.0,34.0,172.0,1210.687
1210697.0,82.0,436.0,31.0,163.0,1210.697
1210707.0,80.0,426.0,34.0,164.0,1210.707
1210717.0,77.0,417.0,32.0,164.0,1210.717
1210727.0,77.0,403.0,28.0,156.0,1210.727
1210737.0,75.0,394.0,30.0,144.0,1210.737
1210747.0,72.0,383.0,26.0,161.0,1210.747
1210757.0,70.0,377.0,27.0,159.0,1210.757
1210767.0,68.0,365.0,24.0,153.0,1210.767
1210777.0,69.0,364.0,21.0,173.0,1210.777
1210787.0,70.0,355.0,19.0,173.0,1210.787
1210797.0,69.0,350.0,22.0,174.0,1210.797
1210807.0,67.0,343.0,29.0,169.0,1210.807
1210817.0,65.0,336.0,25.0,168.0,1210.817
1210827.0,63.0,326.0,22.0,165.0,1210.827
1210838.0,66.0,321.0,23.0,161.0,1210.838
1210848.0,63.0,311.0,19.0,159.0,1210.848
1210858.0,66.0,305.0,19.0,164.0,1210.858
1210868.0,66.0,297.0,17.0,156.0,1210.868
1210878.0,63.0,294.0,16.0,156.0,1210.878
1210888.0,61.0,286.0,15.0,147.0,1210.888
1210898.0,58.0,282.0,17.0,145.0,1210.898
1210908.0,60.0,281.0,19.0,138.0,1210.908
1210918.0,63.0,273.0,16.0,133.0,1210.918
1210928.0,66.0,268.0,15.0,130.0,1210.928
1210938.0,64.0,263.0,13.0,132.0,1210.938
1210948.0,64.0,260.0,14.0,144.0,1210.948
1210958.0,63.0,253.0,12.0,144.0,1210.958
1210968.0,63.0,254.0,11.0,142.0,1210.968
1210978.0,64.0,246.0,11.0,152.0,1210.978
1210988.0,63.0,244.0,10.0,145.0,1210.988
1210998.0,63.0,239.0,9.0,141.0,1210.998
1211008.0,60.0,236.0,8.0,136.0,1211.008
1211018.0,63.0,231.0,9.0,143.0,1211.018
1211028.0,63.0,229.0,10.0,149.0,1211.028
1211038.0,61.0,224.0,10.0,152.0,1211.038
1211048.0,62.0,221.0,9.0,150.0,1211.048
1211058.0,62.0,216.0,8.0,142.0,1211.058
1211068.0,63.0,212.0,8.0,134.0,1211.068
1211078.0,61.0,209.0,7.0,140.0,1211.078
1211088.0,61.0,206.0,8.0,145.0,1211.088
1211098.0,64.0,201.0,6.0,142.0,1211.098
1211108.0,63.0,196.0,7.0,134.0,1211.108
1211118.0,62.0,195.0,8.0,158.0,1211.118
1211128.0,61.0,186.0,7.0,167.0,1211.128
1211138.0,60.0,182.0,8.0,177.0,1211.138
1211148.0,61.0,180.0,8.0,185.0,1211.148
1211158.0,61.0,176.0,8.0,186.0,1211.158
1211168.0,61.0,174.0,7.0,184.0,1211.168
1211179.0,56.0,170.0,7.0,184.0,1211.179
1211189.0,58.0,169.0,6.0,182.0,1211.189
1211199.0,59.0,165.0,6.0,176.0,1211.199
1211209.0,60.0,164.0,6.0,179.0,1211.209
1211219.0,60.0,157.0,5.0,178.0,1211.219
1211229.0,59.0,153.0,5.0,179.0,1211.229
1211239.0,58.0,151.0,4.0,172.0,1211.239
1211249.0,57.0,150.0,6.0,180.0,1211.249
1211259.0,56.0,149.0,5.0,177.0,1211.259
1211269.0,54.0,148.0,4.0,171.0,1211.269
1211279.0,58.0,146.0,5.0,160.0,1211.279
1211289.0,59.0,146.0,5.0,155.0,1211.289
1211299.0,61.0,143.0,5.0,150.0,1211.299
1211309.0,60.0,141.0,4.0,155.0,1211.309
1211319.0,58.0,141.0,5.0,159.0,1211.319
1211329.0,56.0,142.0,5.0,156.0,1211.329
1211339.0,56.0,141.0,8.0,165.0,1211.339
1211350.0,59.0,136.0,8.0,173.0,1211.35
1211360.0,59.0,135.0,7.0,160.0,1211.36
1211370.0,60.0,134.0,8.0,154.0,1211.37
1211380.0,63.0,129.0,7.0,158.0,1211.38
1211390.0,60.0,126.0,6.0,156.0,1211.39
1211400.0,61.0,130.0,8.0,158.0,1211.4
1211410.0,59.0,127.0,7.0,157.0,1211.41
1211420.0,58.0,124.0,7.0,178.0,1211.42
1211430.0,57.0,122.0,6.0,169.0,1211.43
1211440.0,56.0,121.0,6.0,169.0,1211.44
1211450.0,56.0,119.0,6.0,161.0,1211.45
1211460.0,56.0,119.0,6.0,164.0,1211.46
1211470.0,57.0,121.0,7.0,168.0,1211.47
1211480.0,57.0,116.0,6.0,165.0,1211.48
1211490.0,58.0,114.0,6.0,152.0,1211.49
1211500.0,57.0,112.0,5.0,149.0,1211.5
1211510.0,60.0,109.0,6.0,148.0,1211.51
1211520.0,57.0,108.0,5.0,153.0,1211.52
1211530.0,56.0,107.0,5.0,154.0,1211.53
1211540.0,58.0,111.0,5.0,152.0,1211.54
1211550.0,57.0,108.0,4.0,151.0,1211.55
1211560.0,58.0,105.0,7.0,146.0,1211.56
1211570.0,58.0,104.0,6.0,147.0,1211.57
1211580.0,57.0,102.0,7.0,144.0,1211.58
1211590.0,56.0,101.0,6.0,144.0,1211.59
1211600.0,55.0,101.0,6.0,141.0,1211.6
1211610.0,55.0,99.0,6.0,136.0,1211.61
1211620.0,54.0,104.0,7.0,132.0,1211.62
1211630.0,55.0,102.0,7.0,144.0,1211.63
1211640.0,55.0,100.0,6.0,137.0,1211.64
1211650.0,54.0,96.0,6.0,134.0,1211.65
1211660.0,57.0,93.0,5.0,156.0,1211.66
1211670.0,56.0,91.0,10.0,149.0,1211.67
1211680.0,55.0,88.0,9.0,149.0,1211.68
1211691.0,53.0,90.0,8.0,146.0,1211.691
1211701.0,51.0,88.0,7.0,146.0,1211.701
1211711.0,53.0,87.0,8.0,143.0,1211.711
1211721.0,56.0,87.0,10.0,138.0,1211.721
1211731.0,55.0,83.0,8.0,132.0,1211.731
1211741.0,54.0,85.0,8.0,127.0,1211.741
1211751.0,53.0,81.0,7.0,133.0,1211.751
1211761.0,54.0,80.0,7.0,140.0,1211.761
1211771.0,53.0,78.0,8.0,134.0,1211.771
1211781.0,54.0,76.0,7.0,136.0,1211.781
1211791.0,55.0,77.0,7.0,136.0,1211.791
1211801.0,55.0,76.0,6.0,123.0,1211.801
1211811.0,54.0,75.0,6.0,124.0,1211.811
1211821.0,53.0,79.0,6.0,120.0,1211.821
1211831.0,54.0,75.0,5.0,124.0,1211.831
1211841.0,55.0,74.0,5.0,138.0,1211.841
1211851.0,53.0,74.0,5.0,142.0,1211.851
1211862.0,53.0,74.0,5.0,136.0,1211.862
1211872.0,52.0,73.0,4.0,138.0,1211.872
1211882.0,54.0,72.0,4.0,141.0,1211.882
1211892.0,54.0,74.0,7.0,147.0,1211.892
1211902.0,53.0,72.0,8.0,151.0,1211.902
1211912.0,54.0,70.0,8.0,152.0,1211.912
1211922.0,53.0,71.0,7.0,144.0,1211.922
1211932.0,53.0,72.0,8.0,137.0,1211.932
1211942.0,52.0,74.0,6.0,139.0,1211.942
1211952.0,51.0,77.0,5.0,132.0,1211.952
1211962.0,49.0,77.0,6.0,129.0,1211.962
1211972.0,50.0,82.0,5.0,130.0,1211.972
1211982.0,51.0,83.0,5.0,132.0,1211.982
1211992.0,49.0,85.0,7.0,130.0,1211.992
1212002.0,50.0,84.0,7.0,118.0,1212.002
1212012.0,49.0,83.0,6.0,111.0,1212.012
1212022.0,50.0,83.0,6.0,120.0,1212.022
1212032.0,49.0,84.0,6.0,111.0,1212.032
1212042.0,50.0,87.0,5.0,112.0,1212.042
1212052.0,51.0,84.0,6.0,110.0,1212.052
1212062.0,51.0,82.0,5.0,106.0,1212.062
1212072.0,52.0,81.0,5.0,108.0,1212.072
1212082.0,55.0,81.0,5.0,118.0,1212.082
1212092.0,54.0,79.0,5.0,126.0,1212.092
1212102.0,55.0,76.0,5.0,127.0,1212.102
1212112.0,53.0,74.0,5.0,133.0,1212.112
1212122.0,51.0,72.0,5.0,126.0,1212.122
1212132.0,51.0,72.0,5.0,126.0,1212.132
1212142.0,53.0,70.0,6.0,131.0,1212.142
1212152.0,53.0,69.0,4.0,128.0,1212.152
1212162.0,52.0,67.0,4.0,120.0,1212.162
1212172.0,53.0,65.0,5.0,114.0,1212.172
1212182.0,51.0,64.0,5.0,125.0,1212.182
1212192.0,51.0,62.0,4.0,131.0,1212.192
1212203.0,51.0,64.0,4.0,130.0,1212.203
1212213.0,52.0,64.0,5.0,128.0,1212.213
1212223.0,53.0,63.0,4.0,124.0,1212.223
1212233.0,52.0,63.0,5.0,140.0,1212.233
1212243.0,53.0,63.0,5.0,143.0,1212.243
1212253.0,51.0,64.0,3.0,139.0,1212.253
1212263.0,51.0,62.0,5.0,134.0,1212.263
1212273.0,50.0,62.0,5.0,133.0,1212.273
1212283.0,50.0,64.0,6.0,131.0,1212.283
1212293.0,50.0,65.0,4.0,134.0,1212.293
1212303.0,52.0,68.0,4.0,132.0,1212.303
1212313.0,52.0,67.0,5.0,143.0,1212.313
1212323.0,50.0,68.0,5.0,145.0,1212.323
1212333.0,49.0,68.0,4.0,150.0,1212.333
1212343.0,49.0,69.0,6.0,141.0,1212.343
1212353.0,48.0,69.0,6.0,142.0,1212.353
1212363.0,48.0,68.0,4.0,143.0,1212.363
1212374.0,52.0,70.0,6.0,146.0,1212.374
1212384.0,53.0,68.0,5.0,143.0,1212.384
1212394.0,51.0,68.0,5.0,146.0,1212.394
1212404.0,51.0,64.0,5.0,140.0,1212.404
1212414.0,50.0,65.0,5.0,142.0,1212.414
1212424.0,50.0,65.0,9.0,146.0,1212.424
1212434.0,50.0,63.0,12.0,148.0,1212.434
1212444.0,50.0,63.0,10.0,160.0,1212.444
1212454.0,50.0,65.0,10.0,157.0,1212.454
1212464.0,54.0,67.0,10.0,142.0,1212.464
1212474.0,54.0,65.0,9.0,133.0,1212.474
1212484.0,53.0,66.0,9.0,137.0,1212.484
1212494.0,54.0,65.0,10.0,145.0,1212.494
1212504.0,52.0,63.0,8.0,139.0,1212.504
1212514.0,52.0,65.0,8.0,139.0,1212.514
1212524.0,53.0,65.0,8.0,135.0,1212.524
1212534.0,52.0,64.0,7.0,129.0,1212.534
1212544.0,51.0,64.0,7.0,132.0,1212.544
1212554.0,50.0,65.0,7.0,132.0,1212.554
1212564.0,52.0,66.0,8.0,133.0,1212.564
1212574.0,54.0,64.0,8.0,133.0,1212.574
1212584.0,53.0,64.0,6.0,127.0,1212.584
1212594.0,52.0,64.0,6.0,125.0,1212.594
1212604.0,52.0,64.0,7.0,132.0,1212.604
1212614.0,53.0,62.0,6.0,132.0,1212.614
1212624.0,52.0,62.0,9.0,128.0,1212.624
1212634.0,52.0,60.0,9.0,134.0,1212.634
1212644.0,52.0,60.0,8.0,125.0,1212.644
1212654.0,52.0,59.0,7.0,143.0,1212.654
1212664.0,52.0,57.0,7.0,143.0,1212.664
1212674.0,51.0,58.0,6.0,138.0,1212.674
1212684.0,52.0,55.0,6.0,126.0,1212.684
1212694.0,51.0,54.0,7.0,125.0,1212.694
1212704.0,52.0,55.0,8.0,127.0,1212.704
1212715.0,51.0,53.0,6.0,123.0,1212.715
1212725.0,50.0,57.0,7.0,121.0,1212.725
1212735.0,51.0,57.0,6.0,119.0,1212.735
1212745.0,49.0,58.0,6.0,148.0,1212.745
1212755.0,49.0,59.0,6.0,140.0,1212.755
1212765.0,48.0,59.0,5.0,130.0,1212.765
1212775.0,49.0,63.0,6.0,125.0,1212.775
1212785.0,49.0,62.0,6.0,123.0,1212.785
1212795.0,48.0,60.0,5.0,136.0,1212.795
1212805.0,50.0,61.0,5.0,129.0,1212.805
1212815.0,49.0,61.0,6.0,120.0,1212.815
1212825.0,49.0,59.0,5.0,130.0,1212.825
1212835.0,49.0,59.0,4.0,123.0,1212.835
1212845.0,51.0,58.0,5.0,115.0,1212.845
1212855.0,51.0,58.0,8.0,136.0,1212.855
1212865.0,48.0,56.0,7.0,133.0,1212.865
1212875.0,49.0,55.0,7.0,149.0,1212.875
1212886.0,50.0,55.0,8.0,167.0,1212.886
1212896.0,49.0,54.0,8.0,163.0,1212.896
1212906.0,50.0,56.0,7.0,150.0,1212.906
1212916.0,51.0,55.0,8.0,142.0,1212.916
1212926.0,48.0,53.0,6.0,144.0,1212.926
1212936.0,50.0,55.0,7.0,137.0,1212.936
1212946.0,50.0,53.0,7.0,154.0,1212.946
1212956.0,50.0,53.0,6.0,152.0,1212.956
1212966.0,49.0,50.0,6.0,146.0,1212.966
1212976.0,49.0,54.0,5.0,144.0,1212.976
1212986.0,48.0,54.0,7.0,135.0,1212.986
1212996.0,47.0,52.0,4.0,133.0,1212.996
1213006.0,47.0,51.0,6.0,158.0,1213.006
1213016.0,49.0,52.0,10.0,165.0,1213.016
1213026.0,49.0,53.0,9.0,168.0,1213.026
1213036.0,48.0,50.0,8.0,164.0,1213.036
1213046.0,50.0,48.0,8.0,152.0,1213.046
1213056.0,49.0,49.0,8.0,163.0,1213.056
1213066.0,49.0,49.0,6.0,150.0,1213.066
1213076.0,49.0,48.0,6.0,144.0,1213.076
1213086.0,50.0,49.0,6.0,135.0,1213.086
1213096.0,50.0,49.0,6.0,129.0,1213.096
1213106.0,50.0,48.0,8.0,120.0,1213.106
1213116.0,50.0,49.0,7.0,119.0,1213.116
1213126.0,51.0,48.0,7.0,112.0,1213.126
1213136.0,51.0,46.0,6.0,123.0,1213.136
1213146.0,51.0,48.0,6.0,121.0,1213.146
1213156.0,51.0,48.0,6.0,124.0,1213.156
1213166.0,51.0,49.0,5.0,125.0,1213.166
1213176.0,51.0,46.0,5.0,128.0,1213.176
1213186.0,51.0,46.0,5.0,127.0,1213.186
1213196.0,51.0,45.0,6.0,123.0,1213.196
1213206.0,50.0,47.0,5.0,126.0,1213.206
1213216.0,50.0,47.0,4.0,132.0,1213.216
1213227.0,50.0,47.0,7.0,137.0,1213.227
1213237.0,50.0,49.0,7.0,140.0,1213.237
1213247.0,50.0,48.0,7.0,128.0,1213.247
1213257.0,51.0,49.0,6.0,132.0,1213.257
1213267.0,51.0,50.0,8.0,133.0,1213.267
1213277.0,52.0,50.0,6.0,130.0,1213.277
1213287.0,50.0,53.0,9.0,132.0,1213.287
1213297.0,50.0,53.0,9.0,126.0,1213.297
1213307.0,49.0,52.0,8.0,140.0,1213.307
1213317.0,48.0,52.0,7.0,146.0,1213.317
1213327.0,49.0,53.0,7.0,147.0,1213.327
1213337.0,49.0,53.0,8.0,147.0,1213.337
1213347.0,48.0,52.0,6.0,143.0,1213.347
1213357.0,49.0,52.0,7.0,145.0,1213.357
1213367.0,51.0,53.0,9.0,171.0,1213.367
1213377.0,53.0,55.0,9.0,164.0,1213.377
1213387.0,51.0,54.0,8.0,150.0,1213.387
1213398.0,54.0,52.0,8.0,134.0,1213.398
1213408.0,53.0,51.0,8.0,131.0,1213.408
1213418.0,54.0,53.0,6.0,127.0,1213.418
1213428.0,53.0,53.0,6.0,122.0,1213.428
1213438.0,52.0,54.0,7.0,126.0,1213.438
1213448.0,53.0,54.0,7.0,129.0,1213.448
1213458.0,55.0,53.0,6.0,118.0,1213.458
1213468.0,54.0,52.0,6.0,107.0,1213.468
1213478.0,55.0,52.0,6.0,112.0,1213.478
1213488.0,53.0,51.0,6.0,121.0,1213.488
1213498.0,51.0,49.0,6.0,124.0,1213.498
1213508.0,50.0,48.0,7.0,121.0,1213.508
1213518.0,51.0,49.0,6.0,126.0,1213.518
1213528.0,53.0,48.0,6.0,122.0,1213.528
1213538.0,53.0,48.0,5.0,123.0,1213.538
1213548.0,56.0,49.0,7.0,128.0,1213.548
1213558.0,55.0,47.0,6.0,124.0,1213.558
1213568.0,54.0,46.0,6.0,122.0,1213.568
1213578.0,53.0,45.0,5.0,123.0,1213.578
1213588.0,51.0,47.0,6.0,153.0,1213.588
1213598.0,52.0,47.0,6.0,147.0,1213.598
1213608.0,52.0,46.0,9.0,145.0,1213.608
1213618.0,54.0,46.0,9.0,136.0,1213.618
1213628.0,55.0,46.0,9.0,131.0,1213.628
1213638.0,54.0,47.0,8.0,141.0,1213.638
1213648.0,56.0,49.0,8.0,161.0,1213.648
1213658.0,56.0,51.0,8.0,176.0,1213.658
1213668.0,59.0,54.0,8.0,164.0,1213.668
1213678.0,59.0,55.0,8.0,152.0,1213.678
1213688.0,61.0,58.0,14.0,137.0,1213.688
1213698.0,62.0,60.0,12.0,129.0,1213.698
1213708.0,60.0,61.0,10.0,123.0,1213.708
1213718.0,61.0,62.0,10.0,143.0,1213.718
1213728.0,59.0,63.0,9.0,149.0,1213.728
1213739.0,57.0,64.0,8.0,135.0,1213.739
1213749.0,58.0,68.0,9.0,126.0,1213.749
1213759.0,59.0,71.0,13.0,118.0,1213.759
1213769.0,60.0,70.0,12.0,111.0,1213.769
1213779.0,60.0,68.0,10.0,114.0,1213.779
1213789.0,58.0,65.0,10.0,125.0,1213.789
1213799.0,59.0,65.0,9.0,118.0,1213.799
1213809.0,59.0,60.0,9.0,109.0,1213.809
1213819.0,60.0,60.0,13.0,111.0,1213.819
1213829.0,62.0,59.0,13.0,106.0,1213.829
1213839.0,65.0,57.0,14.0,106.0,1213.839
1213849.0,68.0,59.0,30.0,128.0,1213.849
1213859.0,66.0,58.0,26.0,129.0,1213.859
1213869.0,63.0,56.0,24.0,121.0,1213.869
1213879.0,63.0,52.0,21.0,121.0,1213.879
1213889.0,64.0,52.0,19.0,117.0,1213.889
1213899.0,64.0,50.0,18.0,110.0,1213.899
1213910.0,67.0,49.0,15.0,100.0,1213.91
1213920.0,66.0,47.0,13.0,102.0,1213.92
1213930.0,66.0,46.0,13.0,110.0,1213.93
1213940.0,69.0,48.0,13.0,117.0,1213.94
1213950.0,71.0,48.0,12.0,114.0,1213.95
1213960.0,72.0,48.0,11.0,109.0,1213.96
1213970.0,69.0,48.0,10.0,105.0,1213.97
1213980.0,68.0,49.0,10.0,101.0,1213.98
1213990.0,68.0,49.0,10.0,104.0,1213.99
1214000.0,70.0,49.0,9.0,107.0,1214.0
1214010.0,70.0,52.0,9.0,103.0,1214.01
1214020.0,69.0,50.0,8.0,102.0,1214.02
1214030.0,68.0,51.0,12.0,109.0,1214.03
1214040.0,69.0,52.0,14.0,120.0,1214.04
1214050.0,70.0,52.0,12.0,138.0,1214.05
1214060.0,68.0,51.0,10.0,132.0,1214.06
1214070.0,67.0,52.0,11.0,134.0,1214.07
1214080.0,67.0,55.0,9.0,140.0,1214.08
1214090.0,68.0,52.0,12.0,126.0,1214.09
1214100.0,66.0,53.0,13.0,135.0,1214.1
1214110.0,68.0,53.0,14.0,139.0,1214.11
1214120.0,66.0,53.0,12.0,135.0,1214.12
1214130.0,64.0,53.0,12.0,153.0,1214.13
1214140.0,63.0,53.0,11.0,144.0,1214.14
1214150.0,64.0,54.0,11.0,136.0,1214.15
1214160.0,65.0,54.0,10.0,144.0,1214.16
1214170.0,63.0,55.0,9.0,145.0,1214.17
1214180.0,63.0,55.0,12.0,136.0,1214.18
1214190.0,63.0,55.0,10.0,149.0,1214.19
1214200.0,63.0,53.0,10.0,136.0,1214.2
1214210.0,67.0,53.0,11.0,132.0,1214.21
1214220.0,66.0,55.0,11.0,130.0,1214.22
1214230.0,65.0,52.0,11.0,138.0,1214.23
1214240.0,68.0,54.0,9.0,140.0,1214.24
1214251.0,68.0,54.0,9.0,138.0,1214.251
1214261.0,67.0,53.0,8.0,137.0,1214.261
1214271.0,65.0,52.0,8.0,134.0,1214.271
1214281.0,66.0,53.0,8.0,124.0,1214.281
1214291.0,65.0,52.0,8.0,121.0,1214.291
1214301.0,64.0,50.0,7.0,116.0,1214.301
1214311.0,65.0,49.0,6.0,116.0,1214.311
1214321.0,66.0,48.0,10.0,109.0,1214.321
1214331.0,67.0,49.0,8.0,108.0,1214.331
1214341.0,66.0,49.0,7.0,121.0,1214.341
1214351.0,67.0,47.0,8.0,117.0,1214.351
1214361.0,65.0,46.0,8.0,118.0,1214.361
1214371.0,65.0,44.0,8.0,123.0,1214.371
1214381.0,64.0,43.0,8.0,123.0,1214.381
1214391.0,63.0,42.0,8.0,126.0,1214.391
1214401.0,64.0,43.0,6.0,124.0,1214.401
1214411.0,64.0,43.0,7.0,121.0,1214.411
1214422.0,65.0,43.0,6.0,120.0,1214.422
1214432.0,64.0,42.0,8.0,128.0,1214.432
1214442.0,65.0,40.0,8.0,126.0,1214.442
1214452.0,63.0,41.0,9.0,122.0,1214.452
1214462.0,65.0,41.0,11.0,121.0,1214.462
1214472.0,63.0,40.0,10.0,130.0,1214.472
1214482.0,64.0,41.0,9.0,135.0,1214.482
1214492.0,63.0,40.0,8.0,127.0,1214.492
1214502.0,64.0,41.0,8.0,115.0,1214.502
1214512.0,64.0,39.0,7.0,109.0,1214.512
1214522.0,62.0,39.0,7.0,107.0,1214.522
1214532.0,61.0,39.0,8.0,110.0,1214.532
1214542.0,59.0,37.0,6.0,110.0,1214.542
1214552.0,60.0,38.0,6.0,103.0,1214.552
1214562.0,60.0,37.0,5.0,133.0,1214.562
1214572.0,59.0,41.0,5.0,156.0,1214.572
1214582.0,60.0,40.0,9.0,152.0,1214.582
1214592.0,65.0,42.0,8.0,147.0,1214.592
1214602.0,65.0,42.0,8.0,138.0,1214.602
1214612.0,68.0,43.0,8.0,158.0,1214.612
1214622.0,66.0,42.0,7.0,170.0,1214.622
1214632.0,69.0,41.0,7.0,202.0,1214.632
1214642.0,66.0,44.0,8.0,195.0,1214.642
1214652.0,71.0,44.0,7.0,188.0,1214.652
1214662.0,69.0,42.0,8.0,206.0,1214.662
1214672.0,71.0,43.0,9.0,205.0,1214.672
1214682.0,70.0,43.0,7.0,197.0,1214.682
1214692.0,70.0,41.0,7.0,196.0,1214.692
1214702.0,70.0,41.0,7.0,198.0,1214.702
1214712.0,68.0,42.0,7.0,202.0,1214.712
1214722.0,69.0,42.0,7.0,194.0,1214.722
1214732.0,72.0,41.0,6.0,182.0,1214.732
1214742.0,69.0,41.0,9.0,173.0,1214.742
1214752.0,67.0,41.0,8.0,189.0,1214.752
1214763.0,66.0,40.0,9.0,197.0,1214.763
1214773.0,65.0,40.0,9.0,188.0,1214.773
1214783.0,67.0,40.0,8.0,186.0,1214.783
1214793.0,69.0,42.0,8.0,174.0,1214.793
1214803.0,73.0,43.0,5.0,167.0,1214.803
1214813.0,72.0,42.0,7.0,172.0,1214.813
1214823.0,70.0,43.0,14.0,178.0,1214.823
1214833.0,68.0,45.0,14.0,192.0,1214.833
1214843.0,67.0,43.0,13.0,192.0,1214.843
1214853.0,67.0,44.0,11.0,189.0,1214.853
1214863.0,67.0,42.0,10.0,190.0,1214.863
1214873.0,68.0,42.0,9.0,176.0,1214.873
1214883.0,69.0,41.0,9.0,177.0,1214.883
1214893.0,68.0,42.0,8.0,173.0,1214.893
1214903.0,70.0,43.0,10.0,174.0,1214.903
1214913.0,68.0,44.0,10.0,163.0,1214.913
1214923.0,67.0,46.0,9.0,153.0,1214.923
1214934.0,67.0,45.0,9.0,150.0,1214.934
1214944.0,65.0,45.0,8.0,151.0,1214.944
1214954.0,68.0,43.0,8.0,142.0,1214.954
1214964.0,70.0,43.0,7.0,140.0,1214.964
1214974.0,69.0,44.0,10.0,149.0,1214.974
1214984.0,68.0,42.0,12.0,157.0,1214.984
1214994.0,67.0,43.0,13.0,173.0,1214.994
1215004.0,68.0,40.0,12.0,166.0,1215.004
1215014.0,67.0,42.0,11.0,170.0,1215.014
1215024.0,68.0,43.0,11.0,170.0,1215.024
1215034.0,68.0,42.0,10.0,166.0,1215.034
1215044.0,70.0,42.0,9.0,158.0,1215.044
1215054.0,70.0,43.0,9.0,155.0,1215.054
1215064.0,71.0,43.0,7.0,140.0,1215.064
1215074.0,70.0,42.0,8.0,132.0,1215.074
1215084.0,69.0,42.0,8.0,133.0,1215.084
1215094.0,71.0,42.0,9.0,131.0,1215.094
1215104.0,73.0,42.0,10.0,126.0,1215.104
1215114.0,71.0,40.0,8.0,124.0,1215.114
1215124.0,71.0,40.0,8.0,132.0,1215.124
1215134.0,71.0,40.0,7.0,123.0,1215.134
1215144.0,70.0,38.0,7.0,116.0,1215.144
1215154.0,69.0,39.0,8.0,117.0,1215.154
1215164.0,73.0,41.0,10.0,125.0,1215.164
1215174.0,74.0,42.0,9.0,120.0,1215.174
1215184.0,70.0,41.0,10.0,141.0,1215.184
1215194.0,70.0,39.0,9.0,135.0,1215.194
1215204.0,70.0,41.0,9.0,126.0,1215.204
1215214.0,69.0,40.0,8.0,122.0,1215.214
1215224.0,67.0,39.0,7.0,111.0,1215.224
1215234.0,66.0,40.0,8.0,113.0,1215.234
1215244.0,65.0,39.0,8.0,113.0,1215.244
1215254.0,64.0,40.0,6.0,125.0,1215.254
1215264.0,62.0,39.0,6.0,121.0,1215.264
1215275.0,63.0,40.0,7.0,115.0,1215.275
1215285.0,65.0,38.0,8.0,137.0,1215.285
1215295.0,68.0,39.0,9.0,141.0,1215.295
1215305.0,68.0,40.0,10.0,133.0,1215.305
1215315.0,67.0,39.0,8.0,130.0,1215.315
1215325.0,66.0,39.0,7.0,147.0,1215.325
1215335.0,65.0,38.0,7.0,148.0,1215.335
1215345.0,66.0,40.0,7.0,138.0,1215.345
1215355.0,67.0,38.0,6.0,133.0,1215.355
1215365.0,66.0,40.0,5.0,133.0,1215.365
1215375.0,68.0,40.0,7.0,131.0,1215.375
1215385.0,69.0,40.0,6.0,129.0,1215.385
1215395.0,68.0,42.0,6.0,125.0,1215.395
1215405.0,69.0,41.0,6.0,120.0,1215.405
1215415.0,71.0,44.0,11.0,128.0,1215.415
1215425.0,70.0,42.0,10.0,124.0,1215.425
1215435.0,72.0,43.0,9.0,127.0,1215.435
1215446.0,69.0,44.0,10.0,131.0,1215.446
1215456.0,70.0,43.0,11.0,119.0,1215.456
1215466.0,68.0,42.0,10.0,109.0,1215.466
1215476.0,67.0,42.0,11.0,118.0,1215.476
1215486.0,66.0,41.0,9.0,116.0,1215.486
1215496.0,66.0,38.0,10.0,132.0,1215.496
1215506.0,67.0,39.0,8.0,134.0,1215.506
1215516.0,67.0,40.0,9.0,130.0,1215.516
1215526.0,66.0,39.0,7.0,128.0,1215.526
1215536.0,64.0,39.0,6.0,124.0,1215.536
1215546.0,66.0,41.0,6.0,132.0,1215.546
1215556.0,65.0,42.0,7.0,131.0,1215.556
1215566.0,65.0,40.0,8.0,120.0,1215.566
1215576.0,62.0,40.0,7.0,114.0,1215.576
1215586.0,65.0,43.0,15.0,127.0,1215.586
1215596.0,64.0,42.0,14.0,125.0,1215.596
1215606.0,62.0,42.0,12.0,119.0,1215.606
1215616.0,62.0,41.0,11.0,111.0,1215.616
1215626.0,61.0,41.0,10.0,115.0,1215.626
1215636.0,59.0,39.0,9.0,105.0,1215.636
1215646.0,60.0,39.0,8.0,96.0,1215.646
1215656.0,59.0,39.0,9.0,102.0,1215.656
1215666.0,58.0,38.0,10.0,104.0,1215.666
1215676.0,56.0,37.0,8.0,101.0,1215.676
1215686.0,57.0,37.0,8.0,95.0,1215.686
1215696.0,57.0,39.0,9.0,90.0,1215.696
1215706.0,68.0,38.0,7.0,84.0,1215.706
1215716.0,87.0,39.0,7.0,82.0,1215.716
1215726.0,97.0,41.0,8.0,89.0,1215.726
1215736.0,106.0,42.0,16.0,98.0,1215.736
1215746.0,104.0,45.0,23.0,98.0,1215.746
1215756.0,102.0,47.0,42.0,111.0,1215.756
1215766.0,104.0,56.0,54.0,119.0,1215.766
1215776.0,105.0,62.0,52.0,121.0,1215.776
1215787.0,101.0,62.0,46.0,126.0,1215.787
1215797.0,100.0,58.0,40.0,120.0,1215.797
1215807.0,102.0,56.0,43.0,119.0,1215.807
1215817.0,103.0,57.0,48.0,112.0,1215.817
1215827.0,111.0,55.0,50.0,131.0,1215.827
1215837.0,113.0,55.0,55.0,132.0,1215.837
1215847.0,120.0,55.0,54.0,142.0,1215.847
1215857.0,125.0,61.0,67.0,157.0,1215.857
1215867.0,125.0,64.0,100.0,175.0,1215.867
1215877.0,138.0,67.0,106.0,204.0,1215.877
1215887.0,151.0,73.0,108.0,219.0,1215.887
1215897.0,158.0,77.0,106.0,234.0,1215.897
1215907.0,162.0,88.0,107.0,237.0,1215.907
1215917.0,164.0,92.0,99.0,240.0,1215.917
1215927.0,163.0,100.0,95.0,248.0,1215.927
1215937.0,163.0,103.0,86.0,243.0,1215.937
1215947.0,163.0,107.0,93.0,224.0,1215.947
1215958.0,162.0,111.0,88.0,224.0,1215.958
1215968.0,163.0,116.0,95.0,221.0,1215.968
1215978.0,163.0,123.0,88.0,222.0,1215.978
1215988.0,163.0,126.0,87.0,231.0,1215.988
1215998.0,163.0,128.0,101.0,217.0,1215.998
1216008.0,161.0,130.0,93.0,200.0,1216.008
1216018.0,159.0,131.0,88.0,185.0,1216.018
1216028.0,158.0,130.0,82.0,172.0,1216.028
1216038.0,153.0,131.0,84.0,200.0,1216.038
1216048.0,154.0,132.0,81.0,220.0,1216.048
1216058.0,154.0,136.0,82.0,224.0,1216.058
1216068.0,153.0,137.0,76.0,203.0,1216.068
1216078.0,151.0,138.0,89.0,190.0,1216.078
1216088.0,150.0,139.0,84.0,193.0,1216.088
1216098.0,147.0,138.0,85.0,242.0,1216.098
1216108.0,144.0,136.0,80.0,221.0,1216.108
1216118.0,143.0,137.0,93.0,215.0,1216.118
1216128.0,143.0,136.0,87.0,198.0,1216.128
1216138.0,140.0,134.0,81.0,199.0,1216.138
1216148.0,138.0,131.0,73.0,185.0,1216.148
1216158.0,133.0,130.0,73.0,196.0,1216.158
1216168.0,132.0,131.0,68.0,184.0,1216.168
1216178.0,131.0,133.0,65.0,175.0,1216.178
1216188.0,129.0,136.0,58.0,174.0,1216.188
1216198.0,127.0,138.0,60.0,168.0,1216.198
1216208.0,123.0,139.0,61.0,169.0,1216.208
1216218.0,120.0,140.0,61.0,161.0,1216.218
1216228.0,120.0,141.0,57.0,149.0,1216.228
1216238.0,116.0,141.0,58.0,150.0,1216.238
1216248.0,117.0,141.0,74.0,180.0,1216.248
1216258.0,113.0,140.0,67.0,172.0,1216.258
1216268.0,115.0,142.0,72.0,174.0,1216.268
1216278.0,114.0,142.0,64.0,162.0,1216.278
1216288.0,111.0,140.0,60.0,159.0,1216.288
1216299.0,113.0,141.0,52.0,151.0,1216.299
1216309.0,110.0,138.0,50.0,142.0,1216.309
1216319.0,108.0,135.0,48.0,132.0,1216.319
1216329.0,104.0,132.0,46.0,133.0,1216.329
1216339.0,102.0,131.0,41.0,123.0,1216.339
1216349.0,99.0,129.0,43.0,120.0,1216.349
1216359.0,97.0,129.0,47.0,125.0,1216.359
1216369.0,97.0,129.0,46.0,137.0,1216.369
1216379.0,96.0,128.0,40.0,144.0,1216.379
1216389.0,95.0,125.0,42.0,141.0,1216.389
1216399.0,94.0,125.0,37.0,132.0,1216.399
1216409.0,94.0,122.0,35.0,142.0,1216.409
1216419.0,92.0,118.0,33.0,143.0,1216.419
1216429.0,92.0,117.0,31.0,132.0,1216.429
1216439.0,91.0,115.0,29.0,126.0,1216.439
1216449.0,90.0,116.0,26.0,119.0,1216.449
1216459.0,89.0,117.0,36.0,115.0,1216.459
1216470.0,87.0,117.0,41.0,123.0,1216.47
1216480.0,87.0,120.0,39.0,124.0,1216.48
1216490.0,85.0,122.0,37.0,127.0,1216.49
1216500.0,84.0,125.0,33.0,118.0,1216.5
1216510.0,83.0,126.0,31.0,110.0,1216.51
1216520.0,82.0,130.0,28.0,112.0,1216.52
1216530.0,81.0,129.0,27.0,113.0,1216.53
1216540.0,80.0,133.0,24.0,106.0,1216.54
1216550.0,81.0,135.0,22.0,106.0,1216.55
1216560.0,80.0,135.0,20.0,104.0,1216.56
1216570.0,79.0,138.0,19.0,98.0,1216.57
1216580.0,78.0,135.0,28.0,97.0,1216.58
1216590.0,78.0,138.0,39.0,114.0,1216.59
1216600.0,78.0,139.0,35.0,121.0,1216.6
1216610.0,76.0,138.0,32.0,123.0,1216.61
1216620.0,74.0,135.0,29.0,116.0,1216.62
1216630.0,73.0,137.0,29.0,144.0,1216.63
1216640.0,73.0,137.0,28.0,167.0,1216.64
1216650.0,71.0,137.0,25.0,161.0,1216.65
1216660.0,69.0,136.0,24.0,150.0,1216.66
1216670.0,67.0,134.0,22.0,136.0,1216.67
1216680.0,68.0,135.0,19.0,135.0,1216.68
1216690.0,69.0,135.0,19.0,133.0,1216.69
1216700.0,69.0,132.0,17.0,128.0,1216.7
1216710.0,67.0,130.0,15.0,129.0,1216.71
1216720.0,67.0,128.0,16.0,128.0,1216.72
1216730.0,64.0,126.0,16.0,127.0,1216.73
1216740.0,63.0,124.0,15.0,148.0,1216.74
1216750.0,64.0,125.0,13.0,146.0,1216.75
1216760.0,62.0,124.0,12.0,133.0,1216.76
1216770.0,62.0,124.0,11.0,126.0,1216.77
1216780.0,60.0,121.0,10.0,130.0,1216.78
1216790.0,62.0,119.0,10.0,132.0,1216.79
1216800.0,61.0,118.0,9.0,128.0,1216.8
1216811.0,62.0,115.0,9.0,124.0,1216.811
1216821.0,63.0,115.0,10.0,121.0,1216.821
1216831.0,65.0,115.0,11.0,116.0,1216.831
1216841.0,65.0,112.0,11.0,110.0,1216.841
1216851.0,67.0,111.0,9.0,109.0,1216.851
1216861.0,66.0,108.0,12.0,117.0,1216.861
1216871.0,64.0,106.0,12.0,115.0,1216.871
1216881.0,65.0,104.0,11.0,105.0,1216.881
1216891.0,66.0,102.0,15.0,123.0,1216.891
1216901.0,65.0,98.0,13.0,116.0,1216.901
1216911.0,65.0,96.0,12.0,129.0,1216.911
1216921.0,64.0,96.0,11.0,128.0,1216.921
1216931.0,64.0,95.0,11.0,120.0,1216.931
1216941.0,62.0,94.0,10.0,113.0,1216.941
1216951.0,63.0,93.0,9.0,108.0,1216.951
1216961.0,63.0,93.0,8.0,101.0,1216.961
1216971.0,61.0,91.0,8.0,91.0,1216.971
1216982.0,61.0,91.0,8.0,87.0,1216.982
1216992.0,61.0,90.0,7.0,88.0,1216.992
1217002.0,63.0,89.0,10.0,100.0,1217.002
1217012.0,61.0,86.0,8.0,100.0,1217.012
1217022.0,61.0,85.0,8.0,91.0,1217.022
1217032.0,60.0,84.0,7.0,85.0,1217.032
1217042.0,58.0,82.0,11.0,94.0,1217.042
1217052.0,58.0,82.0,11.0,100.0,1217.052
1217062.0,57.0,82.0,12.0,98.0,1217.062
1217072.0,57.0,80.0,11.0,95.0,1217.072
1217082.0,56.0,82.0,10.0,89.0,1217.082
1217092.0,57.0,81.0,10.0,84.0,1217.092
1217102.0,56.0,79.0,8.0,82.0,1217.102
1217112.0,56.0,79.0,8.0,82.0,1217.112
1217122.0,56.0,76.0,9.0,102.0,1217.122
1217132.0,56.0,76.0,12.0,101.0,1217.132
1217142.0,58.0,74.0,14.0,95.0,1217.142
1217152.0,58.0,74.0,14.0,94.0,1217.152
1217162.0,61.0,73.0,13.0,109.0,1217.162
1217172.0,59.0,71.0,12.0,108.0,1217.172
1217182.0,59.0,70.0,11.0,104.0,1217.182
1217192.0,60.0,70.0,10.0,100.0,1217.192
1217202.0,59.0,69.0,9.0,94.0,1217.202
1217212.0,60.0,68.0,10.0,91.0,1217.212
1217222.0,59.0,68.0,12.0,92.0,1217.222
1217232.0,60.0,69.0,12.0,101.0,1217.232
1217242.0,60.0,69.0,11.0,98.0,1217.242
1217252.0,59.0,68.0,10.0,92.0,1217.252
1217262.0,60.0,69.0,9.0,89.0,1217.262
1217272.0,60.0,68.0,9.0,113.0,1217.272
1217282.0,61.0,67.0,10.0,120.0,1217.282
1217292.0,59.0,64.0,7.0,110.0,1217.292
1217302.0,58.0,61.0,10.0,104.0,1217.302
1217312.0,59.0,59.0,9.0,105.0,1217.312
1217323.0,59.0,58.0,10.0,102.0,1217.323
1217333.0,58.0,55.0,10.0,103.0,1217.333
1217343.0,58.0,56.0,11.0,112.0,1217.343
1217353.0,59.0,57.0,11.0,109.0,1217.353
1217363.0,56.0,55.0,9.0,107.0,1217.363
1217373.0,55.0,53.0,9.0,101.0,1217.373
1217383.0,55.0,54.0,8.0,102.0,1217.383
1217393.0,54.0,53.0,7.0,103.0,1217.393
1217403.0,54.0,51.0,7.0,100.0,1217.403
1217413.0,53.0,51.0,6.0,95.0,1217.413
1217423.0,53.0,50.0,7.0,87.0,1217.423
1217433.0,50.0,52.0,6.0,81.0,1217.433
1217443.0,49.0,53.0,5.0,75.0,1217.443
1217453.0,47.0,51.0,4.0,70.0,1217.453
1217463.0,48.0,53.0,5.0,68.0,1217.463
1217473.0,47.0,52.0,6.0,80.0,1217.473
1217483.0,45.0,52.0,12.0,75.0,1217.483
1217494.0,48.0,54.0,18.0,91.0,1217.494
1217504.0,48.0,54.0,16.0,112.0,1217.504
1217514.0,50.0,55.0,22.0,107.0,1217.514
1217524.0,51.0,57.0,19.0,124.0,1217.524
1217534.0,54.0,60.0,17.0,115.0,1217.534
1217544.0,55.0,61.0,15.0,108.0,1217.544
1217554.0,57.0,62.0,13.0,112.0,1217.554
1217564.0,59.0,61.0,13.0,110.0,1217.564
1217574.0,60.0,60.0,10.0,100.0,1217.574
1217584.0,59.0,57.0,11.0,110.0,1217.584
1217594.0,59.0,57.0,11.0,105.0,1217.594
1217604.0,58.0,55.0,11.0,98.0,1217.604
1217614.0,56.0,52.0,12.0,94.0,1217.614
1217624.0,57.0,51.0,10.0,94.0,1217.624
1217634.0,57.0,51.0,11.0,106.0,1217.634
1217644.0,54.0,51.0,8.0,107.0,1217.644
1217654.0,54.0,48.0,8.0,100.0,1217.654
1217664.0,53.0,47.0,12.0,100.0,1217.664
1217674.0,53.0,47.0,14.0,96.0,1217.674
1217684.0,53.0,46.0,12.0,100.0,1217.684
1217694.0,52.0,46.0,11.0,96.0,1217.694
1217704.0,51.0,47.0,11.0,94.0,1217.704
1217714.0,50.0,45.0,12.0,89.0,1217.714
1217724.0,49.0,46.0,12.0,89.0,1217.724
1217734.0,48.0,47.0,10.0,86.0,1217.734
1217744.0,47.0,46.0,9.0,92.0,1217.744
1217754.0,48.0,46.0,10.0,96.0,1217.754
1217764.0,45.0,44.0,9.0,97.0,1217.764
1217774.0,47.0,43.0,10.0,90.0,1217.774
1217784.0,44.0,41.0,7.0,88.0,1217.784
1217794.0,44.0,40.0,7.0,87.0,1217.794
1217804.0,44.0,40.0,7.0,81.0,1217.804
1217814.0,44.0,39.0,7.0,86.0,1217.814
1217824.0,45.0,38.0,6.0,82.0,1217.824
1217835.0,44.0,37.0,5.0,77.0,1217.835
1217845.0,45.0,36.0,6.0,77.0,1217.845
1217855.0,44.0,36.0,4.0,75.0,1217.855
1217865.0,44.0,36.0,6.0,84.0,1217.865
1217875.0,43.0,36.0,10.0,93.0,1217.875
1217885.0,42.0,37.0,10.0,89.0,1217.885
1217895.0,43.0,37.0,9.0,95.0,1217.895
1217905.0,43.0,40.0,9.0,93.0,1217.905
1217915.0,44.0,41.0,14.0,91.0,1217.915
1217925.0,43.0,41.0,16.0,93.0,1217.925
1217935.0,43.0,44.0,14.0,97.0,1217.935
1217945.0,43.0,45.0,13.0,98.0,1217.945
1217955.0,43.0,45.0,12.0,92.0,1217.955
1217965.0,42.0,44.0,11.0,89.0,1217.965
1217975.0,41.0,44.0,10.0,88.0,1217.975
1217985.0,43.0,44.0,10.0,84.0,1217.985
1217995.0,42.0,45.0,8.0,84.0,1217.995
1218006.0,42.0,44.0,9.0,89.0,1218.006
1218016.0,42.0,44.0,9.0,111.0,1218.016
1218026.0,43.0,43.0,11.0,108.0,1218.026
1218036.0,44.0,44.0,12.0,101.0,1218.036
1218046.0,43.0,43.0,12.0,95.0,1218.046
1218056.0,45.0,41.0,12.0,88.0,1218.056
1218066.0,46.0,41.0,10.0,95.0,1218.066
1218076.0,45.0,40.0,11.0,99.0,1218.076
1218086.0,46.0,39.0,9.0,111.0,1218.086
1218096.0,46.0,38.0,8.0,108.0,1218.096
1218106.0,47.0,36.0,7.0,103.0,1218.106
1218116.0,47.0,37.0,7.0,102.0,1218.116
1218126.0,48.0,35.0,7.0,102.0,1218.126
1218136.0,48.0,35.0,6.0,104.0,1218.136
1218146.0,50.0,35.0,7.0,101.0,1218.146
1218156.0,49.0,35.0,9.0,99.0,1218.156
1218166.0,51.0,36.0,9.0,95.0,1218.166
1218176.0,53.0,36.0,8.0,90.0,1218.176
1218186.0,53.0,36.0,7.0,86.0,1218.186
1218196.0,57.0,36.0,8.0,92.0,1218.196
1218206.0,56.0,36.0,7.0,99.0,1218.206
1218216.0,57.0,35.0,6.0,95.0,1218.216
1218226.0,57.0,36.0,7.0,90.0,1218.226
1218236.0,57.0,36.0,11.0,97.0,1218.236
1218246.0,58.0,35.0,11.0,94.0,1218.246
1218256.0,59.0,35.0,9.0,93.0,1218.256
1218266.0,58.0,34.0,10.0,90.0,1218.266
1218276.0,59.0,35.0,8.0,92.0,1218.276
1218286.0,58.0,35.0,7.0,90.0,1218.286
1218296.0,58.0,35.0,7.0,96.0,1218.296
1218306.0,56.0,35.0,7.0,107.0,1218.306
1218316.0,57.0,35.0,7.0,100.0,1218.316
1218326.0,56.0,36.0,7.0,107.0,1218.326
1218336.0,57.0,35.0,10.0,105.0,1218.336
1218347.0,56.0,35.0,8.0,105.0,1218.347
1218357.0,58.0,35.0,10.0,101.0,1218.357
1218367.0,57.0,34.0,10.0,101.0,1218.367
1218377.0,56.0,35.0,9.0,97.0,1218.377
1218387.0,56.0,34.0,8.0,92.0,1218.387
1218397.0,55.0,34.0,8.0,87.0,1218.397
1218407.0,55.0,35.0,7.0,87.0,1218.407
1218417.0,54.0,35.0,7.0,84.0,1218.417
1218427.0,54.0,36.0,8.0,94.0,1218.427
1218437.0,56.0,35.0,8.0,97.0,1218.437
1218447.0,55.0,36.0,10.0,94.0,1218.447
1218457.0,55.0,36.0,12.0,89.0,1218.457
1218467.0,53.0,36.0,12.0,90.0,1218.467
1218477.0,55.0,36.0,11.0,91.0,1218.477
1218487.0,53.0,35.0,12.0,100.0,1218.487
1218497.0,55.0,35.0,12.0,93.0,1218.497
1218507.0,53.0,34.0,10.0,90.0,1218.507
1218518.0,52.0,34.0,9.0,81.0,1218.518
1218528.0,53.0,34.0,9.0,78.0,1218.528
1218538.0,51.0,33.0,8.0,107.0,1218.538
1218548.0,52.0,33.0,9.0,104.0,1218.548
1218558.0,50.0,33.0,7.0,101.0,1218.558
1218568.0,49.0,33.0,7.0,93.0,1218.568
1218578.0,51.0,34.0,8.0,88.0,1218.578
1218588.0,51.0,33.0,6.0,84.0,1218.588
1218598.0,52.0,33.0,6.0,98.0,1218.598
1218608.0,54.0,36.0,11.0,112.0,1218.608
1218618.0,55.0,34.0,10.0,107.0,1218.618
1218628.0,56.0,35.0,9.0,105.0,1218.628
1218638.0,56.0,35.0,9.0,96.0,1218.638
1218648.0,58.0,35.0,8.0,97.0,1218.648
1218658.0,59.0,35.0,7.0,99.0,1218.658
1218668.0,59.0,36.0,9.0,98.0,1218.668
1218678.0,60.0,36.0,9.0,98.0,1218.678
1218688.0,60.0,36.0,10.0,98.0,1218.688
1218698.0,61.0,36.0,12.0,102.0,1218.698
1218708.0,61.0,36.0,14.0,98.0,1218.708
1218718.0,61.0,37.0,14.0,106.0,1218.718
1218728.0,59.0,36.0,13.0,105.0,1218.728
1218738.0,59.0,34.0,12.0,108.0,1218.738
1218748.0,57.0,35.0,11.0,104.0,1218.748
1218758.0,57.0,35.0,11.0,103.0,1218.758
1218768.0,54.0,33.0,10.0,99.0,1218.768
1218778.0,54.0,33.0,9.0,95.0,1218.778
1218788.0,53.0,33.0,8.0,96.0,1218.788
1218798.0,54.0,34.0,9.0,93.0,1218.798
1218808.0,55.0,33.0,9.0,100.0,1218.808
1218818.0,53.0,34.0,8.0,98.0,1218.818
1218828.0,55.0,34.0,9.0,114.0,1218.828
1218838.0,53.0,35.0,8.0,110.0,1218.838
1218848.0,52.0,35.0,8.0,102.0,1218.848
1218859.0,52.0,35.0,7.0,102.0,1218.859
1218869.0,51.0,36.0,6.0,98.0,1218.869
1218879.0,51.0,34.0,6.0,94.0,1218.879
1218889.0,50.0,36.0,6.0,100.0,1218.889
1218899.0,51.0,35.0,7.0,90.0,1218.899
1218909.0,49.0,37.0,11.0,89.0,1218.909
1218919.0,50.0,36.0,11.0,87.0,1218.919
1218929.0,53.0,36.0,10.0,81.0,1218.929
1218939.0,53.0,36.0,11.0,92.0,1218.939
1218949.0,54.0,36.0,11.0,89.0,1218.949
1218959.0,55.0,36.0,9.0,84.0,1218.959
1218969.0,57.0,35.0,10.0,83.0,1218.969
1218979.0,54.0,34.0,8.0,79.0,1218.979
1218989.0,56.0,34.0,8.0,86.0,1218.989
1218999.0,55.0,35.0,7.0,83.0,1218.999
1219009.0,55.0,35.0,7.0,86.0,1219.009
1219019.0,56.0,34.0,10.0,82.0,1219.019
1219030.0,56.0,35.0,8.0,88.0,1219.03
1219040.0,57.0,34.0,9.0,88.0,1219.04
1219050.0,55.0,35.0,8.0,116.0,1219.05
1219060.0,55.0,34.0,8.0,111.0,1219.06
1219070.0,55.0,35.0,7.0,104.0,1219.07
1219080.0,56.0,35.0,8.0,100.0,1219.08
1219090.0,58.0,35.0,8.0,95.0,1219.09
1219100.0,57.0,35.0,8.0,90.0,1219.1
1219110.0,57.0,35.0,8.0,91.0,1219.11
1219120.0,55.0,36.0,6.0,94.0,1219.12
1219130.0,55.0,36.0,6.0,99.0,1219.13
1219140.0,56.0,36.0,6.0,102.0,1219.14
1219150.0,56.0,36.0,9.0,104.0,1219.15
1219160.0,56.0,34.0,11.0,102.0,1219.16
1219170.0,57.0,35.0,13.0,104.0,1219.17
1219180.0,58.0,35.0,13.0,107.0,1219.18
1219190.0,58.0,35.0,10.0,103.0,1219.19
1219200.0,58.0,35.0,10.0,100.0,1219.2
1219210.0,58.0,34.0,9.0,101.0,1219.21
1219220.0,56.0,35.0,8.0,99.0,1219.22
1219230.0,57.0,34.0,8.0,100.0,1219.23
1219240.0,57.0,34.0,7.0,95.0,1219.24
1219250.0,57.0,34.0,12.0,90.0,1219.25
1219260.0,57.0,34.0,12.0,99.0,1219.26
1219270.0,55.0,36.0,12.0,97.0,1219.27
