time (ms),signal 0,signal 1,signal 2,signal3,time (sec)
1244816.0,45.0,42.0,19.0,102.0,1244.816
1244826.0,45.0,42.0,30.0,101.0,1244.826
1244836.0,46.0,42.0,26.0,95.0,1244.836
1244846.0,46.0,42.0,22.0,96.0,1244.846
1244856.0,46.0,42.0,25.0,108.0,1244.856
1244866.0,48.0,40.0,23.0,101.0,1244.866
1244876.0,47.0,40.0,25.0,105.0,1244.876
1244886.0,47.0,39.0,21.0,105.0,1244.886
1244896.0,46.0,38.0,18.0,103.0,1244.896
1244906.0,46.0,37.0,17.0,107.0,1244.906
1244916.0,46.0,38.0,15.0,114.0,1244.916
1244926.0,45.0,36.0,14.0,106.0,1244.926
1244936.0,44.0,38.0,16.0,100.0,1244.936
1244946.0,45.0,39.0,27.0,96.0,1244.946
1244956.0,44.0,38.0,34.0,96.0,1244.956
1244966.0,44.0,37.0,30.0,99.0,1244.966
1244976.0,44.0,37.0,26.0,93.0,1244.976
1244986.0,44.0,37.0,23.0,87.0,1244.986
1244996.0,43.0,36.0,21.0,84.0,1244.996
1245006.0,44.0,36.0,18.0,86.0,1245.006
1245016.0,43.0,38.0,19.0,82.0,1245.016
1245026.0,44.0,40.0,29.0,89.0,1245.026
1245036.0,43.0,39.0,30.0,100.0,1245.036
1245046.0,43.0,37.0,27.0,111.0,1245.046
1245056.0,43.0,38.0,24.0,111.0,1245.056
1245066.0,44.0,38.0,22.0,126.0,1245.066
1245076.0,44.0,37.0,20.0,123.0,1245.076
1245086.0,45.0,38.0,19.0,125.0,1245.086
1245096.0,45.0,36.0,16.0,127.0,1245.096
1245106.0,46.0,38.0,16.0,123.0,1245.106
1245116.0,46.0,37.0,15.0,113.0,1245.116
1245126.0,47.0,40.0,24.0,116.0,1245.126
1245136.0,49.0,42.0,28.0,122.0,1245.136
1245146.0,50.0,43.0,25.0,130.0,1245.146
1245156.0,52.0,43.0,24.0,131.0,1245.156
1245166.0,51.0,41.0,22.0,127.0,1245.166
1245176.0,51.0,41.0,27.0,121.0,1245.176
1245186.0,52.0,40.0,27.0,116.0,1245.186
1245196.0,53.0,40.0,33.0,117.0,1245.196
1245206.0,54.0,40.0,41.0,118.0,1245.206
1245216.0,54.0,40.0,36.0,112.0,1245.216
1245227.0,54.0,39.0,33.0,105.0,1245.227
1245237.0,53.0,38.0,30.0,101.0,1245.237
1245247.0,52.0,37.0,28.0,110.0,1245.247
1245257.0,53.0,40.0,33.0,108.0,1245.257
1245267.0,54.0,41.0,29.0,110.0,1245.267
1245277.0,52.0,39.0,32.0,106.0,1245.277
1245287.0,53.0,40.0,29.0,120.0,1245.287
1245297.0,53.0,42.0,41.0,123.0,1245.297
1245307.0,52.0,42.0,35.0,120.0,1245.307
1245317.0,51.0,41.0,30.0,115.0,1245.317
1245327.0,51.0,41.0,28.0,116.0,1245.327
1245337.0,51.0,41.0,25.0,117.0,1245.337
1245347.0,51.0,39.0,24.0,120.0,1245.347
1245357.0,49.0,39.0,24.0,126.0,1245.357
1245367.0,47.0,38.0,22.0,130.0,1245.367
1245377.0,48.0,39.0,21.0,125.0,1245.377
1245387.0,48.0,38.0,22.0,125.0,1245.387
1245398.0,49.0,38.0,21.0,124.0,1245.398
1245408.0,51.0,39.0,19.0,122.0,1245.408
1245418.0,50.0,36.0,19.0,140.0,1245.418
1245428.0,49.0,36.0,17.0,132.0,1245.428
1245438.0,50.0,36.0,18.0,129.0,1245.438
1245448.0,50.0,35.0,16.0,142.0,1245.448
1245458.0,52.0,35.0,14.0,135.0,1245.458
1245468.0,53.0,35.0,12.0,131.0,1245.468
1245478.0,54.0,37.0,11.0,146.0,1245.478
1245488.0,59.0,35.0,17.0,136.0,1245.488
1245498.0,59.0,39.0,35.0,127.0,1245.498
1245508.0,61.0,40.0,38.0,136.0,1245.508
1245518.0,62.0,40.0,32.0,130.0,1245.518
1245528.0,61.0,40.0,29.0,132.0,1245.528
1245538.0,64.0,49.0,27.0,130.0,1245.538
1245548.0,75.0,68.0,24.0,123.0,1245.548
1245558.0,99.0,84.0,23.0,129.0,1245.558
1245568.0,98.0,87.0,21.0,154.0,1245.568
1245578.0,105.0,107.0,25.0,153.0,1245.578
1245588.0,114.0,137.0,32.0,165.0,1245.588
1245598.0,126.0,147.0,35.0,160.0,1245.598
1245608.0,155.0,181.0,52.0,202.0,1245.608
1245618.0,203.0,192.0,57.0,259.0,1245.618
1245628.0,237.0,234.0,67.0,285.0,1245.628
1245638.0,259.0,289.0,63.0,323.0,1245.638
1245648.0,265.0,293.0,63.0,355.0,1245.648
1245658.0,325.0,357.0,80.0,371.0,1245.658
1245668.0,355.0,388.0,84.0,378.0,1245.668
1245678.0,397.0,407.0,81.0,348.0,1245.678
1245688.0,361.0,379.0,94.0,321.0,1245.688
1245698.0,369.0,394.0,97.0,347.0,1245.698
1245708.0,371.0,386.0,97.0,395.0,1245.708
1245718.0,352.0,355.0,97.0,414.0,1245.718
1245728.0,332.0,345.0,91.0,418.0,1245.728
1245739.0,299.0,320.0,80.0,398.0,1245.739
1245749.0,266.0,293.0,81.0,413.0,1245.749
1245759.0,240.0,278.0,85.0,426.0,1245.759
1245769.0,227.0,260.0,81.0,424.0,1245.769
1245779.0,222.0,253.0,83.0,404.0,1245.779
1245789.0,207.0,263.0,84.0,392.0,1245.789
1245799.0,192.0,250.0,93.0,454.0,1245.799
1245809.0,194.0,230.0,98.0,464.0,1245.809
1245819.0,189.0,215.0,99.0,495.0,1245.819
1245829.0,176.0,208.0,91.0,480.0,1245.829
1245839.0,166.0,191.0,86.0,457.0,1245.839
1245849.0,158.0,180.0,85.0,448.0,1245.849
1245859.0,149.0,185.0,87.0,447.0,1245.859
1245869.0,150.0,178.0,82.0,474.0,1245.869
1245879.0,141.0,181.0,90.0,464.0,1245.879
1245889.0,134.0,169.0,99.0,461.0,1245.889
1245899.0,128.0,156.0,94.0,419.0,1245.899
1245910.0,120.0,154.0,108.0,430.0,1245.91
1245920.0,115.0,145.0,101.0,461.0,1245.92
1245930.0,110.0,141.0,95.0,460.0,1245.93
1245940.0,109.0,143.0,107.0,468.0,1245.94
1245950.0,109.0,143.0,99.0,458.0,1245.95
1245960.0,106.0,135.0,91.0,482.0,1245.96
1245970.0,111.0,138.0,83.0,444.0,1245.97
1245980.0,104.0,128.0,74.0,423.0,1245.98
1245990.0,100.0,122.0,89.0,457.0,1245.99
1246000.0,98.0,122.0,81.0,432.0,1246.0
1246010.0,97.0,115.0,74.0,424.0,1246.01
1246020.0,93.0,119.0,113.0,419.0,1246.02
1246030.0,89.0,122.0,108.0,390.0,1246.03
1246040.0,87.0,126.0,97.0,383.0,1246.04
1246050.0,81.0,122.0,95.0,362.0,1246.05
1246060.0,80.0,122.0,85.0,361.0,1246.06
1246070.0,77.0,135.0,77.0,379.0,1246.07
1246080.0,77.0,131.0,72.0,383.0,1246.08
1246090.0,75.0,124.0,72.0,360.0,1246.09
1246100.0,73.0,125.0,68.0,341.0,1246.1
1246110.0,71.0,122.0,84.0,399.0,1246.11
1246120.0,71.0,114.0,92.0,372.0,1246.12
1246130.0,70.0,110.0,88.0,374.0,1246.13
1246140.0,67.0,112.0,80.0,359.0,1246.14
1246150.0,67.0,105.0,72.0,369.0,1246.15
1246160.0,64.0,99.0,64.0,382.0,1246.16
1246170.0,63.0,106.0,62.0,404.0,1246.17
1246180.0,62.0,100.0,64.0,500.0,1246.18
1246190.0,61.0,102.0,58.0,475.0,1246.19
1246200.0,62.0,107.0,51.0,455.0,1246.2
1246210.0,61.0,102.0,53.0,443.0,1246.21
1246220.0,62.0,102.0,64.0,438.0,1246.22
1246230.0,61.0,98.0,60.0,401.0,1246.23
1246240.0,66.0,101.0,63.0,388.0,1246.24
1246251.0,64.0,99.0,74.0,388.0,1246.251
1246261.0,62.0,94.0,74.0,394.0,1246.261
1246271.0,65.0,103.0,85.0,412.0,1246.271
1246281.0,64.0,98.0,78.0,395.0,1246.281
1246291.0,64.0,95.0,78.0,372.0,1246.291
1246301.0,66.0,96.0,74.0,417.0,1246.301
1246311.0,69.0,97.0,71.0,439.0,1246.311
1246321.0,69.0,98.0,67.0,412.0,1246.321
1246331.0,70.0,101.0,65.0,434.0,1246.331
1246341.0,66.0,102.0,60.0,428.0,1246.341
1246351.0,64.0,99.0,58.0,388.0,1246.351
1246361.0,64.0,99.0,56.0,374.0,1246.361
1246371.0,64.0,97.0,50.0,344.0,1246.371
1246381.0,68.0,99.0,47.0,341.0,1246.381
1246391.0,66.0,98.0,48.0,390.0,1246.391
1246401.0,66.0,92.0,47.0,371.0,1246.401
1246411.0,66.0,89.0,44.0,358.0,1246.411
1246422.0,67.0,88.0,47.0,339.0,1246.422
1246432.0,65.0,101.0,48.0,349.0,1246.432
1246442.0,64.0,99.0,47.0,328.0,1246.442
1246452.0,63.0,94.0,43.0,334.0,1246.452
1246462.0,62.0,92.0,39.0,328.0,1246.462
1246472.0,61.0,87.0,67.0,302.0,1246.472
1246482.0,59.0,84.0,73.0,304.0,1246.482
1246492.0,61.0,84.0,65.0,340.0,1246.492
1246502.0,63.0,90.0,61.0,356.0,1246.502
1246512.0,61.0,90.0,56.0,332.0,1246.512
1246522.0,60.0,85.0,53.0,333.0,1246.522
1246532.0,59.0,83.0,51.0,333.0,1246.532
1246542.0,57.0,79.0,51.0,318.0,1246.542
1246552.0,57.0,87.0,59.0,325.0,1246.552
1246562.0,59.0,89.0,51.0,306.0,1246.562
1246572.0,59.0,85.0,46.0,306.0,1246.572
1246582.0,58.0,91.0,44.0,298.0,1246.582
1246592.0,58.0,89.0,42.0,296.0,1246.592
1246602.0,59.0,85.0,39.0,316.0,1246.602
1246612.0,62.0,80.0,35.0,328.0,1246.612
1246622.0,61.0,76.0,31.0,302.0,1246.622
1246632.0,58.0,73.0,29.0,293.0,1246.632
1246642.0,58.0,79.0,30.0,294.0,1246.642
1246652.0,58.0,86.0,39.0,280.0,1246.652
1246662.0,61.0,89.0,48.0,257.0,1246.662
1246672.0,59.0,86.0,51.0,247.0,1246.672
1246682.0,58.0,89.0,54.0,262.0,1246.682
1246692.0,56.0,83.0,49.0,245.0,1246.692
1246702.0,55.0,78.0,45.0,236.0,1246.702
1246712.0,57.0,73.0,43.0,237.0,1246.712
1246722.0,54.0,71.0,43.0,249.0,1246.722
1246732.0,55.0,69.0,65.0,271.0,1246.732
1246742.0,55.0,66.0,60.0,250.0,1246.742
1246752.0,54.0,62.0,56.0,254.0,1246.752
1246763.0,54.0,65.0,56.0,276.0,1246.763
1246773.0,55.0,68.0,51.0,297.0,1246.773
1246783.0,57.0,72.0,51.0,307.0,1246.783
1246793.0,55.0,82.0,54.0,302.0,1246.793
1246803.0,56.0,77.0,66.0,307.0,1246.803
1246813.0,57.0,74.0,61.0,303.0,1246.813
1246823.0,56.0,70.0,64.0,294.0,1246.823
1246833.0,56.0,66.0,60.0,294.0,1246.833
1246843.0,53.0,64.0,57.0,280.0,1246.843
1246853.0,54.0,59.0,51.0,259.0,1246.853
1246863.0,52.0,63.0,46.0,238.0,1246.863
1246873.0,56.0,61.0,45.0,253.0,1246.873
1246883.0,54.0,68.0,42.0,240.0,1246.883
1246893.0,53.0,65.0,43.0,238.0,1246.893
1246903.0,55.0,63.0,38.0,241.0,1246.903
1246913.0,56.0,72.0,34.0,244.0,1246.913
1246923.0,57.0,73.0,31.0,243.0,1246.923
1246934.0,55.0,69.0,27.0,241.0,1246.934
1246944.0,53.0,78.0,28.0,246.0,1246.944
1246954.0,53.0,80.0,30.0,243.0,1246.954
1246964.0,54.0,78.0,37.0,242.0,1246.964
1246974.0,54.0,75.0,39.0,246.0,1246.974
1246984.0,56.0,70.0,39.0,259.0,1246.984
1246994.0,56.0,67.0,37.0,248.0,1246.994
1247004.0,55.0,65.0,42.0,287.0,1247.004
1247014.0,57.0,62.0,45.0,260.0,1247.014
1247024.0,58.0,62.0,46.0,272.0,1247.024
1247034.0,56.0,62.0,41.0,263.0,1247.034
1247044.0,56.0,66.0,47.0,254.0,1247.044
1247054.0,56.0,70.0,45.0,254.0,1247.054
1247064.0,57.0,81.0,53.0,246.0,1247.064
1247074.0,56.0,80.0,46.0,266.0,1247.074
1247084.0,58.0,76.0,42.0,260.0,1247.084
1247094.0,61.0,76.0,42.0,244.0,1247.094
1247104.0,62.0,72.0,39.0,242.0,1247.104
1247114.0,63.0,70.0,37.0,267.0,1247.114
1247124.0,63.0,71.0,36.0,263.0,1247.124
1247134.0,63.0,75.0,33.0,253.0,1247.134
1247144.0,62.0,78.0,30.0,266.0,1247.144
1247154.0,60.0,77.0,33.0,249.0,1247.154
1247164.0,59.0,74.0,33.0,240.0,1247.164
1247174.0,61.0,70.0,31.0,225.0,1247.174
1247184.0,61.0,69.0,33.0,230.0,1247.184
1247194.0,60.0,69.0,35.0,237.0,1247.194
1247204.0,62.0,69.0,35.0,256.0,1247.204
1247214.0,63.0,67.0,30.0,277.0,1247.214
1247224.0,61.0,71.0,30.0,246.0,1247.224
1247234.0,62.0,75.0,50.0,236.0,1247.234
1247244.0,65.0,70.0,59.0,212.0,1247.244
1247254.0,67.0,71.0,59.0,200.0,1247.254
1247264.0,85.0,76.0,77.0,184.0,1247.264
1247275.0,88.0,80.0,109.0,203.0,1247.275
1247285.0,90.0,77.0,158.0,195.0,1247.285
1247295.0,94.0,75.0,173.0,184.0,1247.295
1247305.0,103.0,73.0,177.0,178.0,1247.305
1247315.0,110.0,73.0,166.0,170.0,1247.315
1247325.0,111.0,68.0,149.0,161.0,1247.325
1247335.0,116.0,65.0,132.0,155.0,1247.335
1247345.0,117.0,65.0,150.0,183.0,1247.345
1247355.0,120.0,70.0,148.0,180.0,1247.355
1247365.0,124.0,77.0,144.0,189.0,1247.365
1247375.0,128.0,87.0,136.0,196.0,1247.375
1247385.0,129.0,93.0,175.0,192.0,1247.385
1247395.0,124.0,94.0,197.0,221.0,1247.395
1247405.0,128.0,105.0,221.0,222.0,1247.405
1247415.0,135.0,115.0,209.0,261.0,1247.415
1247425.0,132.0,115.0,204.0,264.0,1247.425
1247435.0,133.0,119.0,207.0,284.0,1247.435
1247446.0,137.0,126.0,186.0,257.0,1247.446
1247456.0,140.0,127.0,170.0,243.0,1247.456
1247466.0,139.0,123.0,179.0,263.0,1247.466
1247476.0,145.0,124.0,162.0,271.0,1247.476
1247486.0,144.0,116.0,155.0,260.0,1247.486
1247496.0,144.0,114.0,172.0,245.0,1247.496
1247506.0,145.0,110.0,168.0,227.0,1247.506
1247516.0,146.0,107.0,147.0,212.0,1247.516
1247526.0,144.0,100.0,133.0,221.0,1247.526
1247536.0,144.0,98.0,128.0,213.0,1247.536
1247546.0,141.0,94.0,125.0,205.0,1247.546
1247556.0,140.0,89.0,118.0,199.0,1247.556
1247566.0,135.0,83.0,106.0,187.0,1247.566
1247576.0,134.0,79.0,94.0,186.0,1247.576
1247586.0,130.0,74.0,83.0,186.0,1247.586
1247596.0,126.0,70.0,98.0,222.0,1247.596
1247606.0,125.0,69.0,102.0,223.0,1247.606
1247616.0,121.0,68.0,96.0,208.0,1247.616
1247626.0,118.0,64.0,92.0,196.0,1247.626
1247636.0,113.0,62.0,91.0,205.0,1247.636
1247646.0,111.0,62.0,82.0,193.0,1247.646
1247656.0,105.0,61.0,89.0,190.0,1247.656
1247666.0,103.0,59.0,85.0,197.0,1247.666
1247676.0,101.0,59.0,82.0,181.0,1247.676
1247686.0,99.0,59.0,74.0,171.0,1247.686
1247696.0,96.0,57.0,82.0,168.0,1247.696
1247706.0,94.0,56.0,82.0,196.0,1247.706
1247716.0,94.0,56.0,96.0,187.0,1247.716
1247726.0,93.0,56.0,91.0,191.0,1247.726
1247736.0,91.0,54.0,84.0,183.0,1247.736
1247746.0,91.0,52.0,80.0,176.0,1247.746
1247756.0,89.0,52.0,70.0,163.0,1247.756
1247766.0,91.0,51.0,67.0,169.0,1247.766
1247776.0,89.0,49.0,64.0,153.0,1247.776
1247787.0,87.0,49.0,58.0,145.0,1247.787
1247797.0,87.0,48.0,65.0,152.0,1247.797
1247807.0,87.0,46.0,67.0,156.0,1247.807
1247817.0,89.0,44.0,63.0,158.0,1247.817
1247827.0,87.0,46.0,65.0,165.0,1247.827
1247837.0,87.0,46.0,88.0,153.0,1247.837
1247847.0,87.0,48.0,80.0,149.0,1247.847
1247857.0,86.0,46.0,79.0,149.0,1247.857
1247867.0,86.0,47.0,70.0,145.0,1247.867
1247877.0,85.0,46.0,67.0,152.0,1247.877
1247887.0,84.0,48.0,72.0,156.0,1247.887
1247897.0,84.0,46.0,65.0,149.0,1247.897
1247907.0,85.0,46.0,65.0,146.0,1247.907
1247917.0,83.0,46.0,62.0,138.0,1247.917
1247927.0,83.0,44.0,55.0,137.0,1247.927
1247937.0,84.0,45.0,58.0,143.0,1247.937
1247947.0,81.0,44.0,56.0,150.0,1247.947
1247958.0,81.0,44.0,67.0,151.0,1247.958
1247968.0,80.0,44.0,63.0,147.0,1247.968
1247978.0,80.0,43.0,60.0,142.0,1247.978
1247988.0,78.0,46.0,59.0,136.0,1247.988
1247998.0,80.0,47.0,53.0,129.0,1247.998
1248008.0,80.0,47.0,51.0,150.0,1248.008
1248018.0,79.0,45.0,47.0,145.0,1248.018
1248028.0,80.0,44.0,46.0,141.0,1248.028
1248038.0,79.0,44.0,43.0,136.0,1248.038
1248048.0,79.0,45.0,63.0,145.0,1248.048
1248058.0,79.0,46.0,61.0,139.0,1248.058
1248068.0,78.0,44.0,62.0,133.0,1248.068
1248078.0,77.0,45.0,63.0,141.0,1248.078
1248088.0,76.0,43.0,55.0,133.0,1248.088
1248098.0,76.0,43.0,50.0,141.0,1248.098
1248108.0,73.0,43.0,46.0,141.0,1248.108
1248118.0,74.0,45.0,49.0,135.0,1248.118
1248128.0,71.0,44.0,42.0,133.0,1248.128
1248138.0,73.0,42.0,38.0,129.0,1248.138
1248148.0,71.0,43.0,35.0,124.0,1248.148
1248158.0,70.0,44.0,42.0,121.0,1248.158
1248168.0,69.0,44.0,41.0,119.0,1248.168
1248178.0,67.0,44.0,37.0,118.0,1248.178
1248188.0,68.0,46.0,45.0,119.0,1248.188
1248198.0,68.0,46.0,40.0,115.0,1248.198
1248208.0,68.0,46.0,42.0,109.0,1248.208
1248218.0,67.0,46.0,37.0,103.0,1248.218
1248228.0,67.0,46.0,34.0,98.0,1248.228
1248238.0,65.0,46.0,33.0,92.0,1248.238
1248248.0,64.0,46.0,31.0,116.0,1248.248
1248258.0,65.0,46.0,32.0,121.0,1248.258
1248268.0,62.0,46.0,28.0,138.0,1248.268
1248278.0,62.0,46.0,41.0,130.0,1248.278
1248288.0,60.0,46.0,41.0,120.0,1248.288
1248299.0,61.0,47.0,37.0,121.0,1248.299
1248309.0,60.0,46.0,40.0,110.0,1248.309
1248319.0,60.0,45.0,36.0,112.0,1248.319
1248329.0,59.0,47.0,50.0,117.0,1248.329
1248339.0,58.0,47.0,50.0,113.0,1248.339
1248349.0,55.0,45.0,46.0,107.0,1248.349
1248359.0,54.0,45.0,43.0,98.0,1248.359
1248369.0,51.0,46.0,43.0,114.0,1248.369
1248379.0,52.0,44.0,41.0,110.0,1248.379
1248389.0,52.0,45.0,41.0,103.0,1248.389
1248399.0,52.0,45.0,42.0,104.0,1248.399
1248409.0,50.0,47.0,46.0,99.0,1248.409
1248419.0,50.0,46.0,49.0,105.0,1248.419
1248429.0,51.0,46.0,45.0,100.0,1248.429
1248439.0,51.0,46.0,40.0,96.0,1248.439
1248449.0,51.0,50.0,47.0,98.0,1248.449
1248459.0,52.0,50.0,53.0,104.0,1248.459
1248470.0,52.0,49.0,46.0,109.0,1248.47
1248480.0,50.0,49.0,41.0,109.0,1248.48
1248490.0,51.0,49.0,37.0,105.0,1248.49
1248500.0,52.0,50.0,41.0,105.0,1248.5
1248510.0,51.0,48.0,40.0,112.0,1248.51
1248520.0,52.0,48.0,39.0,103.0,1248.52
1248530.0,52.0,49.0,41.0,99.0,1248.53
1248540.0,53.0,48.0,41.0,98.0,1248.54
1248550.0,52.0,46.0,35.0,96.0,1248.55
1248560.0,52.0,47.0,33.0,93.0,1248.56
1248570.0,54.0,45.0,29.0,90.0,1248.57
1248580.0,55.0,45.0,28.0,90.0,1248.58
1248590.0,56.0,46.0,31.0,96.0,1248.59
1248600.0,55.0,46.0,47.0,95.0,1248.6
1248610.0,57.0,43.0,43.0,95.0,1248.61
1248620.0,55.0,43.0,36.0,92.0,1248.62
1248630.0,55.0,41.0,34.0,105.0,1248.63
1248640.0,54.0,41.0,33.0,102.0,1248.64
1248650.0,53.0,43.0,39.0,102.0,1248.65
1248660.0,53.0,42.0,42.0,108.0,1248.66
1248670.0,52.0,42.0,55.0,104.0,1248.67
1248680.0,54.0,44.0,54.0,100.0,1248.68
1248690.0,51.0,42.0,58.0,96.0,1248.69
1248700.0,52.0,42.0,54.0,88.0,1248.7
1248710.0,51.0,41.0,53.0,88.0,1248.71
1248720.0,50.0,40.0,54.0,89.0,1248.72
1248730.0,50.0,39.0,61.0,84.0,1248.73
1248740.0,50.0,41.0,63.0,80.0,1248.74
1248750.0,52.0,40.0,75.0,80.0,1248.75
1248760.0,52.0,39.0,73.0,73.0,1248.76
1248770.0,52.0,39.0,77.0,70.0,1248.77
1248780.0,52.0,39.0,73.0,77.0,1248.78
1248790.0,52.0,39.0,69.0,96.0,1248.79
1248800.0,51.0,39.0,77.0,109.0,1248.8
1248811.0,52.0,39.0,68.0,111.0,1248.811
1248821.0,54.0,40.0,83.0,118.0,1248.821
1248831.0,52.0,40.0,82.0,119.0,1248.831
1248841.0,52.0,40.0,79.0,119.0,1248.841
1248851.0,55.0,41.0,77.0,122.0,1248.851
1248861.0,55.0,42.0,91.0,137.0,1248.861
1248871.0,57.0,42.0,90.0,151.0,1248.871
1248881.0,55.0,40.0,84.0,144.0,1248.881
1248891.0,56.0,41.0,80.0,142.0,1248.891
1248901.0,57.0,41.0,84.0,134.0,1248.901
1248911.0,57.0,40.0,78.0,124.0,1248.911
1248921.0,58.0,40.0,69.0,115.0,1248.921
1248931.0,57.0,39.0,65.0,122.0,1248.931
1248941.0,56.0,41.0,66.0,128.0,1248.941
1248951.0,57.0,41.0,69.0,118.0,1248.951
1248961.0,59.0,42.0,69.0,115.0,1248.961
1248971.0,57.0,40.0,62.0,110.0,1248.971
1248982.0,57.0,41.0,64.0,106.0,1248.982
1248992.0,55.0,42.0,59.0,118.0,1248.992
1249002.0,57.0,43.0,66.0,134.0,1249.002
1249012.0,55.0,43.0,68.0,128.0,1249.012
1249022.0,53.0,45.0,67.0,124.0,1249.022
1249032.0,55.0,46.0,62.0,120.0,1249.032
1249042.0,54.0,48.0,66.0,117.0,1249.042
1249052.0,55.0,49.0,68.0,111.0,1249.052
1249062.0,57.0,49.0,66.0,104.0,1249.062
1249072.0,59.0,50.0,62.0,96.0,1249.072
1249082.0,58.0,51.0,62.0,115.0,1249.082
1249092.0,61.0,50.0,57.0,108.0,1249.092
1249102.0,61.0,49.0,51.0,103.0,1249.102
1249112.0,60.0,50.0,50.0,102.0,1249.112
1249122.0,62.0,49.0,64.0,98.0,1249.122
1249132.0,63.0,47.0,59.0,97.0,1249.132
1249142.0,64.0,47.0,54.0,98.0,1249.142
1249152.0,63.0,48.0,56.0,94.0,1249.152
1249162.0,64.0,46.0,49.0,91.0,1249.162
1249172.0,63.0,48.0,51.0,96.0,1249.172
1249182.0,63.0,47.0,56.0,94.0,1249.182
1249192.0,63.0,47.0,52.0,95.0,1249.192
1249202.0,63.0,47.0,49.0,91.0,1249.202
1249212.0,63.0,47.0,46.0,95.0,1249.212
1249222.0,63.0,45.0,40.0,91.0,1249.222
1249232.0,63.0,45.0,41.0,90.0,1249.232
1249242.0,64.0,46.0,39.0,92.0,1249.242
1249252.0,64.0,49.0,40.0,88.0,1249.252
1249262.0,64.0,48.0,44.0,89.0,1249.262
1249272.0,67.0,48.0,43.0,85.0,1249.272
1249282.0,67.0,49.0,44.0,85.0,1249.282
1249292.0,67.0,48.0,43.0,82.0,1249.292
1249302.0,67.0,49.0,40.0,79.0,1249.302
1249312.0,65.0,51.0,49.0,81.0,1249.312
1249323.0,65.0,48.0,55.0,81.0,1249.323
1249333.0,64.0,48.0,56.0,96.0,1249.333
1249343.0,62.0,46.0,50.0,89.0,1249.343
1249353.0,61.0,47.0,44.0,88.0,1249.353
1249363.0,62.0,46.0,49.0,82.0,1249.363
1249373.0,61.0,47.0,47.0,80.0,1249.373
1249383.0,65.0,45.0,52.0,79.0,1249.383
1249393.0,66.0,43.0,46.0,90.0,1249.393
1249403.0,63.0,45.0,42.0,84.0,1249.403
1249413.0,67.0,43.0,38.0,85.0,1249.413
1249423.0,64.0,44.0,39.0,81.0,1249.423
1249433.0,64.0,46.0,36.0,84.0,1249.433
1249443.0,64.0,45.0,32.0,93.0,1249.443
1249453.0,64.0,45.0,40.0,89.0,1249.453
1249463.0,61.0,45.0,39.0,83.0,1249.463
1249473.0,60.0,46.0,36.0,85.0,1249.473
1249483.0,59.0,46.0,36.0,87.0,1249.483
1249494.0,58.0,45.0,33.0,91.0,1249.494
1249504.0,57.0,46.0,34.0,94.0,1249.504
1249514.0,57.0,49.0,31.0,90.0,1249.514
1249524.0,58.0,51.0,43.0,98.0,1249.524
1249534.0,58.0,51.0,46.0,94.0,1249.534
1249544.0,55.0,52.0,48.0,93.0,1249.544
1249554.0,57.0,52.0,51.0,91.0,1249.554
1249564.0,55.0,51.0,44.0,95.0,1249.564
1249574.0,55.0,50.0,40.0,102.0,1249.574
1249584.0,55.0,51.0,45.0,97.0,1249.584
1249594.0,56.0,51.0,49.0,94.0,1249.594
1249604.0,57.0,49.0,42.0,86.0,1249.604
1249614.0,55.0,49.0,38.0,81.0,1249.614
1249624.0,55.0,49.0,36.0,86.0,1249.624
1249634.0,56.0,48.0,42.0,92.0,1249.634
1249644.0,57.0,46.0,45.0,98.0,1249.644
1249654.0,56.0,46.0,47.0,93.0,1249.654
1249664.0,58.0,46.0,50.0,92.0,1249.664
1249674.0,58.0,46.0,45.0,89.0,1249.674
1249684.0,56.0,44.0,39.0,86.0,1249.684
1249694.0,58.0,43.0,37.0,82.0,1249.694
1249704.0,58.0,45.0,43.0,108.0,1249.704
1249714.0,59.0,43.0,42.0,106.0,1249.714
1249724.0,58.0,43.0,43.0,104.0,1249.724
1249734.0,61.0,42.0,47.0,103.0,1249.734
1249744.0,60.0,42.0,44.0,97.0,1249.744
1249754.0,60.0,42.0,48.0,94.0,1249.754
1249764.0,58.0,41.0,50.0,88.0,1249.764
1249774.0,56.0,43.0,48.0,82.0,1249.774
1249784.0,57.0,44.0,48.0,84.0,1249.784
1249794.0,55.0,43.0,45.0,92.0,1249.794
1249804.0,54.0,44.0,45.0,89.0,1249.804
1249814.0,56.0,43.0,39.0,88.0,1249.814
1249824.0,55.0,43.0,35.0,92.0,1249.824
1249835.0,56.0,43.0,31.0,97.0,1249.835
1249845.0,56.0,43.0,31.0,118.0,1249.845
1249855.0,57.0,43.0,28.0,118.0,1249.855
1249865.0,58.0,44.0,24.0,113.0,1249.865
1249875.0,59.0,48.0,37.0,106.0,1249.875
1249885.0,59.0,48.0,38.0,99.0,1249.885
1249895.0,60.0,48.0,40.0,104.0,1249.895
1249905.0,61.0,49.0,39.0,100.0,1249.905
1249915.0,63.0,49.0,35.0,94.0,1249.915
1249925.0,63.0,48.0,33.0,87.0,1249.925
1249935.0,64.0,49.0,31.0,79.0,1249.935
1249945.0,63.0,51.0,32.0,78.0,1249.945
1249955.0,62.0,52.0,38.0,78.0,1249.955
1249965.0,62.0,54.0,48.0,83.0,1249.965
1249975.0,64.0,53.0,44.0,83.0,1249.975
1249985.0,64.0,55.0,45.0,79.0,1249.985
1249995.0,65.0,53.0,46.0,75.0,1249.995
1250006.0,63.0,56.0,44.0,76.0,1250.006
1250016.0,64.0,54.0,56.0,79.0,1250.016
1250026.0,64.0,54.0,49.0,79.0,1250.026
1250036.0,64.0,53.0,46.0,76.0,1250.036
1250046.0,63.0,53.0,43.0,76.0,1250.046
1250056.0,62.0,54.0,39.0,75.0,1250.056
1250066.0,61.0,52.0,39.0,73.0,1250.066
1250076.0,60.0,53.0,48.0,71.0,1250.076
1250086.0,62.0,50.0,50.0,68.0,1250.086
1250096.0,63.0,51.0,52.0,74.0,1250.096
1250106.0,63.0,51.0,49.0,76.0,1250.106
1250116.0,64.0,51.0,45.0,82.0,1250.116
1250126.0,63.0,51.0,47.0,77.0,1250.126
1250136.0,65.0,49.0,48.0,71.0,1250.136
1250146.0,65.0,48.0,47.0,72.0,1250.146
1250156.0,67.0,46.0,43.0,66.0,1250.156
1250166.0,67.0,47.0,40.0,64.0,1250.166
1250176.0,67.0,48.0,44.0,64.0,1250.176
1250186.0,67.0,45.0,39.0,61.0,1250.186
1250196.0,65.0,45.0,34.0,61.0,1250.196
1250206.0,65.0,44.0,34.0,61.0,1250.206
1250216.0,65.0,46.0,33.0,61.0,1250.216
1250226.0,66.0,43.0,31.0,56.0,1250.226
1250236.0,66.0,42.0,31.0,56.0,1250.236
1250246.0,65.0,43.0,37.0,59.0,1250.246
1250256.0,67.0,41.0,32.0,64.0,1250.256
1250266.0,68.0,44.0,29.0,65.0,1250.266
1250276.0,67.0,42.0,30.0,62.0,1250.276
1250286.0,68.0,42.0,27.0,64.0,1250.286
1250296.0,68.0,41.0,28.0,65.0,1250.296
1250306.0,68.0,40.0,24.0,64.0,1250.306
1250316.0,68.0,42.0,43.0,75.0,1250.316
1250326.0,69.0,41.0,47.0,81.0,1250.326
1250336.0,67.0,41.0,41.0,92.0,1250.336
1250347.0,66.0,39.0,38.0,130.0,1250.347
1250357.0,68.0,40.0,39.0,131.0,1250.357
1250367.0,66.0,39.0,38.0,124.0,1250.367
1250377.0,66.0,38.0,34.0,113.0,1250.377
1250387.0,66.0,38.0,30.0,103.0,1250.387
1250397.0,63.0,37.0,32.0,97.0,1250.397
1250407.0,62.0,39.0,46.0,91.0,1250.407
1250417.0,63.0,38.0,41.0,85.0,1250.417
1250427.0,61.0,37.0,36.0,81.0,1250.427
1250437.0,61.0,37.0,33.0,74.0,1250.437
1250447.0,61.0,36.0,28.0,77.0,1250.447
1250457.0,58.0,36.0,25.0,73.0,1250.457
1250467.0,60.0,36.0,23.0,67.0,1250.467
1250477.0,58.0,40.0,32.0,76.0,1250.477
1250487.0,58.0,38.0,31.0,74.0,1250.487
1250497.0,59.0,39.0,27.0,71.0,1250.497
1250507.0,59.0,37.0,26.0,82.0,1250.507
1250518.0,59.0,36.0,23.0,78.0,1250.518
1250528.0,58.0,36.0,21.0,71.0,1250.528
1250538.0,59.0,35.0,22.0,73.0,1250.538
1250548.0,59.0,37.0,19.0,68.0,1250.548
1250558.0,59.0,37.0,24.0,73.0,1250.558
1250568.0,61.0,39.0,33.0,69.0,1250.568
1250578.0,62.0,40.0,34.0,65.0,1250.578
1250588.0,63.0,39.0,34.0,64.0,1250.588
1250598.0,64.0,40.0,31.0,65.0,1250.598
1250608.0,66.0,39.0,30.0,75.0,1250.608
1250618.0,65.0,41.0,32.0,75.0,1250.618
1250628.0,63.0,42.0,43.0,70.0,1250.628
1250638.0,64.0,42.0,47.0,89.0,1250.638
1250648.0,65.0,42.0,43.0,91.0,1250.648
1250658.0,65.0,42.0,37.0,86.0,1250.658
1250668.0,64.0,40.0,32.0,82.0,1250.668
1250678.0,65.0,39.0,29.0,76.0,1250.678
1250688.0,64.0,40.0,26.0,76.0,1250.688
1250698.0,64.0,39.0,23.0,75.0,1250.698
1250708.0,64.0,43.0,31.0,74.0,1250.708
1250718.0,65.0,41.0,30.0,67.0,1250.718
1250728.0,64.0,39.0,27.0,66.0,1250.728
1250738.0,64.0,39.0,26.0,61.0,1250.738
1250748.0,65.0,39.0,23.0,60.0,1250.748
1250758.0,63.0,41.0,22.0,62.0,1250.758
1250768.0,64.0,40.0,20.0,61.0,1250.768
1250778.0,63.0,40.0,18.0,64.0,1250.778
1250788.0,64.0,40.0,24.0,69.0,1250.788
1250798.0,64.0,39.0,20.0,64.0,1250.798
1250808.0,63.0,39.0,19.0,61.0,1250.808
1250818.0,63.0,39.0,17.0,58.0,1250.818
1250828.0,62.0,39.0,16.0,61.0,1250.828
1250838.0,61.0,38.0,19.0,61.0,1250.838
1250848.0,62.0,38.0,24.0,65.0,1250.848
1250859.0,61.0,37.0,21.0,62.0,1250.859
1250869.0,62.0,38.0,26.0,60.0,1250.869
1250879.0,62.0,39.0,33.0,57.0,1250.879
1250889.0,61.0,37.0,29.0,57.0,1250.889
1250899.0,61.0,38.0,27.0,56.0,1250.899
1250909.0,62.0,36.0,25.0,54.0,1250.909
1250919.0,62.0,37.0,25.0,57.0,1250.919
1250929.0,63.0,37.0,25.0,55.0,1250.929
1250939.0,63.0,36.0,21.0,55.0,1250.939
1250949.0,64.0,36.0,24.0,52.0,1250.949
1250959.0,63.0,37.0,32.0,55.0,1250.959
1250969.0,63.0,38.0,30.0,57.0,1250.969
1250979.0,62.0,39.0,27.0,55.0,1250.979
1250989.0,61.0,38.0,25.0,57.0,1250.989
1250999.0,60.0,39.0,23.0,56.0,1250.999
1251009.0,61.0,41.0,21.0,62.0,1251.009
1251019.0,60.0,42.0,22.0,61.0,1251.019
1251030.0,60.0,42.0,33.0,62.0,1251.03
1251040.0,59.0,43.0,34.0,60.0,1251.04
1251050.0,59.0,42.0,31.0,61.0,1251.05
1251060.0,58.0,42.0,29.0,60.0,1251.06
1251070.0,58.0,42.0,26.0,59.0,1251.07
1251080.0,58.0,40.0,24.0,57.0,1251.08
1251090.0,56.0,40.0,37.0,60.0,1251.09
1251100.0,58.0,42.0,32.0,59.0,1251.1
1251110.0,58.0,41.0,30.0,58.0,1251.11
1251120.0,59.0,40.0,28.0,56.0,1251.12
1251130.0,61.0,39.0,24.0,54.0,1251.13
1251140.0,59.0,38.0,22.0,52.0,1251.14
1251150.0,60.0,38.0,20.0,52.0,1251.15
1251160.0,58.0,38.0,18.0,52.0,1251.16
1251170.0,59.0,39.0,33.0,57.0,1251.17
1251180.0,59.0,40.0,31.0,58.0,1251.18
1251190.0,58.0,38.0,32.0,60.0,1251.19
1251200.0,59.0,40.0,30.0,61.0,1251.2
1251210.0,59.0,38.0,27.0,57.0,1251.21
1251220.0,59.0,38.0,25.0,62.0,1251.22
1251230.0,59.0,39.0,36.0,62.0,1251.23
1251240.0,60.0,40.0,33.0,58.0,1251.24
1251250.0,59.0,39.0,28.0,66.0,1251.25
1251260.0,58.0,40.0,27.0,70.0,1251.26
1251270.0,58.0,41.0,27.0,67.0,1251.27
1251280.0,57.0,41.0,27.0,62.0,1251.28
1251290.0,59.0,41.0,25.0,60.0,1251.29
1251300.0,57.0,44.0,32.0,57.0,1251.3
1251310.0,60.0,43.0,34.0,53.0,1251.31
1251320.0,59.0,45.0,30.0,55.0,1251.32
1251330.0,61.0,46.0,28.0,53.0,1251.33
1251340.0,61.0,46.0,24.0,53.0,1251.34
1251350.0,61.0,47.0,21.0,50.0,1251.35
1251360.0,60.0,50.0,19.0,47.0,1251.36
1251371.0,58.0,56.0,18.0,46.0,1251.371
1251381.0,58.0,67.0,15.0,47.0,1251.381
1251391.0,57.0,80.0,19.0,51.0,1251.391
1251401.0,58.0,88.0,29.0,50.0,1251.401
1251411.0,57.0,99.0,29.0,52.0,1251.411
1251421.0,59.0,107.0,30.0,52.0,1251.421
1251431.0,58.0,115.0,28.0,54.0,1251.431
1251441.0,60.0,123.0,23.0,52.0,1251.441
1251451.0,60.0,129.0,23.0,51.0,1251.451
1251461.0,60.0,137.0,21.0,51.0,1251.461
1251471.0,60.0,142.0,18.0,52.0,1251.471
1251481.0,62.0,147.0,16.0,52.0,1251.481
1251491.0,62.0,152.0,31.0,49.0,1251.491
1251501.0,63.0,155.0,34.0,51.0,1251.501
1251511.0,63.0,159.0,39.0,50.0,1251.511
1251521.0,63.0,160.0,36.0,51.0,1251.521
1251531.0,63.0,164.0,33.0,56.0,1251.531
1251542.0,64.0,166.0,30.0,57.0,1251.542
1251552.0,64.0,167.0,37.0,58.0,1251.552
1251562.0,65.0,168.0,40.0,56.0,1251.562
1251572.0,68.0,169.0,35.0,53.0,1251.572
1251582.0,67.0,170.0,31.0,56.0,1251.582
1251592.0,66.0,171.0,36.0,57.0,1251.592
1251602.0,65.0,172.0,33.0,58.0,1251.602
1251612.0,64.0,170.0,29.0,58.0,1251.612
1251622.0,63.0,172.0,31.0,57.0,1251.622
1251632.0,63.0,170.0,37.0,63.0,1251.632
1251642.0,62.0,169.0,34.0,64.0,1251.642
1251652.0,62.0,167.0,32.0,60.0,1251.652
1251662.0,63.0,165.0,29.0,57.0,1251.662
1251672.0,64.0,165.0,30.0,59.0,1251.672
1251682.0,64.0,162.0,27.0,60.0,1251.682
1251692.0,64.0,161.0,30.0,61.0,1251.692
1251702.0,65.0,157.0,36.0,62.0,1251.702
1251712.0,66.0,152.0,35.0,66.0,1251.712
1251722.0,64.0,149.0,30.0,65.0,1251.722
1251732.0,63.0,145.0,28.0,66.0,1251.732
1251742.0,62.0,142.0,28.0,64.0,1251.742
1251752.0,62.0,139.0,27.0,66.0,1251.752
1251762.0,61.0,138.0,28.0,67.0,1251.762
1251772.0,60.0,135.0,35.0,65.0,1251.772
1251782.0,61.0,132.0,33.0,62.0,1251.782
1251792.0,60.0,131.0,29.0,61.0,1251.792
1251802.0,61.0,129.0,31.0,57.0,1251.802
1251812.0,60.0,127.0,31.0,57.0,1251.812
1251822.0,60.0,126.0,34.0,64.0,1251.822
1251832.0,60.0,124.0,30.0,61.0,1251.832
1251842.0,60.0,125.0,44.0,57.0,1251.842
1251852.0,62.0,123.0,39.0,58.0,1251.852
1251862.0,60.0,121.0,34.0,57.0,1251.862
1251872.0,59.0,121.0,31.0,56.0,1251.872
1251883.0,60.0,119.0,31.0,61.0,1251.883
1251893.0,61.0,115.0,29.0,60.0,1251.893
1251903.0,59.0,114.0,25.0,56.0,1251.903
1251913.0,60.0,113.0,42.0,53.0,1251.913
1251923.0,60.0,111.0,40.0,60.0,1251.923
1251933.0,60.0,109.0,38.0,61.0,1251.933
1251943.0,60.0,108.0,33.0,60.0,1251.943
1251953.0,60.0,109.0,32.0,63.0,1251.953
1251963.0,61.0,106.0,28.0,60.0,1251.963
1251973.0,61.0,108.0,29.0,60.0,1251.973
1251983.0,62.0,105.0,32.0,60.0,1251.983
1251993.0,64.0,104.0,28.0,59.0,1251.993
1252003.0,63.0,101.0,24.0,59.0,1252.003
1252013.0,63.0,100.0,24.0,69.0,1252.013
1252023.0,64.0,99.0,21.0,67.0,1252.023
1252033.0,65.0,96.0,19.0,62.0,1252.033
1252043.0,67.0,96.0,38.0,67.0,1252.043
1252054.0,66.0,95.0,41.0,70.0,1252.054
1252064.0,68.0,94.0,36.0,70.0,1252.064
1252074.0,65.0,94.0,32.0,69.0,1252.074
1252084.0,66.0,93.0,29.0,64.0,1252.084
1252094.0,67.0,92.0,25.0,60.0,1252.094
1252104.0,66.0,90.0,23.0,58.0,1252.104
1252114.0,65.0,90.0,28.0,65.0,1252.114
1252124.0,66.0,87.0,39.0,64.0,1252.124
1252134.0,66.0,85.0,35.0,61.0,1252.134
1252144.0,64.0,85.0,34.0,58.0,1252.144
1252154.0,63.0,82.0,30.0,56.0,1252.154
1252164.0,61.0,82.0,26.0,53.0,1252.164
1252174.0,59.0,80.0,25.0,52.0,1252.174
1252184.0,60.0,80.0,23.0,54.0,1252.184
1252194.0,57.0,81.0,23.0,53.0,1252.194
1252204.0,58.0,81.0,28.0,52.0,1252.204
1252214.0,55.0,82.0,26.0,54.0,1252.214
1252224.0,56.0,79.0,26.0,56.0,1252.224
1252234.0,56.0,78.0,22.0,56.0,1252.234
1252244.0,56.0,78.0,22.0,53.0,1252.244
1252254.0,56.0,77.0,23.0,55.0,1252.254
1252264.0,59.0,74.0,29.0,52.0,1252.264
1252274.0,59.0,73.0,28.0,54.0,1252.274
1252284.0,58.0,70.0,24.0,55.0,1252.284
1252294.0,57.0,71.0,22.0,53.0,1252.294
1252304.0,58.0,70.0,18.0,53.0,1252.304
1252314.0,58.0,70.0,22.0,51.0,1252.314
1252324.0,58.0,70.0,20.0,51.0,1252.324
1252334.0,59.0,69.0,17.0,50.0,1252.334
1252344.0,58.0,72.0,27.0,48.0,1252.344
1252354.0,58.0,71.0,28.0,55.0,1252.354
1252364.0,59.0,72.0,35.0,63.0,1252.364
1252374.0,57.0,73.0,30.0,63.0,1252.374
1252384.0,56.0,72.0,26.0,61.0,1252.384
1252395.0,55.0,72.0,27.0,56.0,1252.395
1252405.0,56.0,70.0,24.0,53.0,1252.405
1252415.0,56.0,71.0,38.0,54.0,1252.415
1252425.0,54.0,71.0,33.0,52.0,1252.425
1252435.0,53.0,72.0,30.0,55.0,1252.435
1252445.0,52.0,73.0,27.0,57.0,1252.445
1252455.0,52.0,72.0,25.0,56.0,1252.455
1252465.0,52.0,74.0,21.0,59.0,1252.465
1252475.0,51.0,74.0,19.0,56.0,1252.475
1252485.0,52.0,72.0,17.0,55.0,1252.485
1252495.0,50.0,74.0,26.0,59.0,1252.495
1252505.0,50.0,74.0,29.0,55.0,1252.505
1252515.0,50.0,74.0,27.0,55.0,1252.515
1252525.0,49.0,74.0,25.0,52.0,1252.525
1252535.0,51.0,73.0,23.0,54.0,1252.535
1252545.0,51.0,73.0,21.0,52.0,1252.545
1252555.0,54.0,74.0,20.0,51.0,1252.555
1252566.0,54.0,74.0,20.0,49.0,1252.566
1252576.0,55.0,77.0,35.0,53.0,1252.576
1252586.0,55.0,77.0,37.0,53.0,1252.586
1252596.0,56.0,76.0,36.0,50.0,1252.596
1252606.0,54.0,78.0,31.0,52.0,1252.606
1252616.0,54.0,78.0,28.0,52.0,1252.616
1252626.0,53.0,77.0,26.0,51.0,1252.626
1252636.0,52.0,77.0,24.0,52.0,1252.636
1252646.0,51.0,77.0,22.0,52.0,1252.646
1252656.0,50.0,77.0,21.0,52.0,1252.656
1252666.0,49.0,75.0,19.0,49.0,1252.666
1252676.0,48.0,76.0,25.0,50.0,1252.676
1252686.0,47.0,74.0,26.0,49.0,1252.686
1252696.0,50.0,74.0,26.0,51.0,1252.696
1252706.0,52.0,72.0,25.0,52.0,1252.706
1252716.0,53.0,71.0,23.0,51.0,1252.716
1252726.0,54.0,70.0,20.0,52.0,1252.726
1252736.0,54.0,71.0,22.0,56.0,1252.736
1252746.0,56.0,67.0,19.0,60.0,1252.746
1252756.0,56.0,67.0,17.0,60.0,1252.756
1252766.0,57.0,65.0,16.0,57.0,1252.766
1252776.0,57.0,63.0,16.0,56.0,1252.776
1252786.0,60.0,63.0,16.0,56.0,1252.786
1252796.0,59.0,64.0,15.0,60.0,1252.796
1252806.0,60.0,62.0,13.0,57.0,1252.806
1252816.0,61.0,62.0,13.0,59.0,1252.816
1252826.0,63.0,61.0,29.0,61.0,1252.826
1252836.0,64.0,62.0,26.0,59.0,1252.836
1252846.0,64.0,63.0,23.0,56.0,1252.846
1252856.0,63.0,64.0,19.0,55.0,1252.856
1252866.0,64.0,65.0,19.0,60.0,1252.866
1252876.0,64.0,63.0,16.0,54.0,1252.876
1252886.0,64.0,63.0,16.0,56.0,1252.886
1252896.0,63.0,64.0,31.0,59.0,1252.896
1252907.0,65.0,63.0,28.0,59.0,1252.907
1252917.0,64.0,64.0,24.0,58.0,1252.917
1252927.0,64.0,63.0,23.0,57.0,1252.927
1252937.0,64.0,63.0,21.0,56.0,1252.937
1252947.0,65.0,62.0,18.0,56.0,1252.947
1252957.0,66.0,63.0,18.0,54.0,1252.957
1252967.0,65.0,64.0,29.0,55.0,1252.967
1252977.0,67.0,62.0,27.0,54.0,1252.977
1252987.0,66.0,62.0,22.0,54.0,1252.987
1252997.0,66.0,61.0,22.0,51.0,1252.997
1253007.0,64.0,64.0,21.0,52.0,1253.007
1253017.0,64.0,63.0,21.0,52.0,1253.017
1253027.0,63.0,63.0,19.0,54.0,1253.027
1253037.0,63.0,62.0,18.0,55.0,1253.037
1253047.0,64.0,59.0,17.0,54.0,1253.047
1253057.0,61.0,61.0,20.0,53.0,1253.057
1253067.0,63.0,59.0,21.0,55.0,1253.067
1253078.0,62.0,60.0,30.0,60.0,1253.078
1253088.0,64.0,58.0,26.0,58.0,1253.088
1253098.0,64.0,58.0,24.0,60.0,1253.098
1253108.0,65.0,57.0,21.0,58.0,1253.108
1253118.0,66.0,55.0,19.0,57.0,1253.118
1253128.0,65.0,56.0,19.0,57.0,1253.128
1253138.0,67.0,53.0,20.0,57.0,1253.138
1253148.0,66.0,53.0,20.0,55.0,1253.148
1253158.0,65.0,54.0,44.0,61.0,1253.158
1253168.0,65.0,52.0,43.0,58.0,1253.168
1253178.0,64.0,52.0,38.0,60.0,1253.178
1253188.0,65.0,51.0,34.0,61.0,1253.188
1253198.0,62.0,53.0,35.0,59.0,1253.198
1253208.0,63.0,54.0,45.0,57.0,1253.208
1253218.0,62.0,53.0,40.0,58.0,1253.218
1253228.0,60.0,51.0,35.0,55.0,1253.228
1253238.0,61.0,51.0,31.0,54.0,1253.238
1253248.0,59.0,51.0,27.0,54.0,1253.248
1253258.0,61.0,50.0,27.0,52.0,1253.258
1253268.0,60.0,50.0,23.0,54.0,1253.268
1253278.0,59.0,52.0,21.0,52.0,1253.278
1253288.0,60.0,52.0,35.0,56.0,1253.288
1253298.0,59.0,52.0,33.0,55.0,1253.298
1253308.0,60.0,50.0,29.0,53.0,1253.308
1253318.0,61.0,50.0,25.0,53.0,1253.318
1253328.0,62.0,49.0,23.0,56.0,1253.328
1253338.0,63.0,49.0,20.0,55.0,1253.338
1253348.0,63.0,49.0,18.0,51.0,1253.348
1253358.0,63.0,49.0,18.0,50.0,1253.358
1253368.0,63.0,48.0,17.0,50.0,1253.368
1253378.0,63.0,48.0,16.0,49.0,1253.378
1253388.0,62.0,49.0,16.0,52.0,1253.388
1253398.0,61.0,50.0,25.0,50.0,1253.398
1253408.0,60.0,48.0,29.0,57.0,1253.408
1253419.0,59.0,48.0,28.0,58.0,1253.419
1253429.0,58.0,49.0,32.0,76.0,1253.429
1253439.0,59.0,46.0,29.0,72.0,1253.439
1253449.0,58.0,47.0,33.0,71.0,1253.449
1253459.0,57.0,46.0,31.0,68.0,1253.459
1253469.0,55.0,45.0,26.0,63.0,1253.469
1253479.0,55.0,45.0,24.0,59.0,1253.479
1253489.0,55.0,45.0,22.0,58.0,1253.489
1253499.0,57.0,47.0,19.0,63.0,1253.499
1253509.0,57.0,44.0,19.0,60.0,1253.509
1253519.0,58.0,47.0,25.0,61.0,1253.519
1253529.0,60.0,47.0,32.0,60.0,1253.529
1253539.0,60.0,48.0,29.0,60.0,1253.539
1253549.0,60.0,48.0,27.0,62.0,1253.549
1253559.0,60.0,47.0,24.0,57.0,1253.559
1253569.0,60.0,48.0,23.0,59.0,1253.569
1253579.0,59.0,47.0,21.0,62.0,1253.579
1253590.0,60.0,49.0,34.0,62.0,1253.59
1253600.0,59.0,47.0,34.0,61.0,1253.6
1253610.0,61.0,44.0,33.0,61.0,1253.61
1253620.0,62.0,43.0,32.0,58.0,1253.62
1253630.0,64.0,43.0,34.0,56.0,1253.63
1253640.0,64.0,42.0,38.0,57.0,1253.64
1253650.0,66.0,44.0,40.0,60.0,1253.65
1253660.0,68.0,44.0,34.0,60.0,1253.66
1253670.0,69.0,45.0,36.0,58.0,1253.67
1253680.0,71.0,45.0,44.0,58.0,1253.68
1253690.0,72.0,44.0,47.0,59.0,1253.69
1253700.0,73.0,45.0,44.0,57.0,1253.7
1253710.0,75.0,46.0,48.0,59.0,1253.71
1253720.0,76.0,45.0,46.0,54.0,1253.72
1253730.0,77.0,44.0,41.0,54.0,1253.73
1253740.0,75.0,46.0,38.0,53.0,1253.74
1253750.0,76.0,46.0,34.0,53.0,1253.75
1253760.0,72.0,47.0,36.0,52.0,1253.76
1253770.0,73.0,47.0,36.0,52.0,1253.77
1253780.0,70.0,48.0,35.0,54.0,1253.78
1253790.0,68.0,49.0,44.0,53.0,1253.79
1253800.0,69.0,48.0,39.0,53.0,1253.8
1253810.0,69.0,48.0,36.0,50.0,1253.81
1253820.0,70.0,46.0,32.0,49.0,1253.82
1253830.0,68.0,48.0,36.0,48.0,1253.83
1253840.0,67.0,48.0,38.0,51.0,1253.84
1253850.0,65.0,50.0,45.0,50.0,1253.85
1253860.0,66.0,50.0,48.0,48.0,1253.86
1253870.0,66.0,48.0,43.0,49.0,1253.87
1253880.0,66.0,48.0,38.0,54.0,1253.88
1253890.0,66.0,51.0,38.0,53.0,1253.89
1253900.0,65.0,51.0,36.0,50.0,1253.9
1253910.0,66.0,50.0,36.0,52.0,1253.91
1253920.0,66.0,52.0,48.0,53.0,1253.92
1253931.0,67.0,52.0,48.0,55.0,1253.931
1253941.0,66.0,52.0,42.0,56.0,1253.941
1253951.0,67.0,52.0,37.0,56.0,1253.951
1253961.0,68.0,50.0,32.0,52.0,1253.961
1253971.0,66.0,54.0,36.0,55.0,1253.971
1253981.0,65.0,54.0,35.0,57.0,1253.981
1253991.0,64.0,55.0,36.0,54.0,1253.991
1254001.0,64.0,55.0,40.0,50.0,1254.001
1254011.0,63.0,56.0,37.0,54.0,1254.011
1254021.0,63.0,56.0,34.0,52.0,1254.021
1254031.0,64.0,55.0,32.0,51.0,1254.031
1254041.0,62.0,55.0,33.0,48.0,1254.041
1254051.0,63.0,53.0,28.0,51.0,1254.051
1254061.0,64.0,53.0,26.0,54.0,1254.061
1254071.0,63.0,53.0,32.0,49.0,1254.071
1254081.0,65.0,51.0,29.0,48.0,1254.081
1254091.0,64.0,51.0,26.0,47.0,1254.091
1254102.0,64.0,50.0,24.0,45.0,1254.102
1254112.0,61.0,51.0,22.0,50.0,1254.112
1254122.0,61.0,52.0,23.0,49.0,1254.122
1254132.0,61.0,51.0,22.0,51.0,1254.132
1254142.0,60.0,52.0,34.0,49.0,1254.142
1254152.0,58.0,51.0,36.0,46.0,1254.152
1254162.0,57.0,51.0,34.0,50.0,1254.162
1254172.0,57.0,49.0,30.0,51.0,1254.172
1254182.0,56.0,48.0,33.0,53.0,1254.182
1254192.0,57.0,48.0,31.0,57.0,1254.192
1254202.0,56.0,50.0,38.0,59.0,1254.202
1254212.0,55.0,49.0,39.0,59.0,1254.212
1254222.0,54.0,48.0,36.0,59.0,1254.222
1254232.0,53.0,50.0,33.0,59.0,1254.232
1254242.0,55.0,50.0,30.0,55.0,1254.242
1254252.0,55.0,51.0,29.0,56.0,1254.252
1254262.0,57.0,51.0,28.0,56.0,1254.262
1254272.0,55.0,54.0,34.0,55.0,1254.272
1254282.0,56.0,52.0,30.0,56.0,1254.282
1254292.0,55.0,52.0,27.0,55.0,1254.292
1254302.0,57.0,51.0,23.0,51.0,1254.302
1254312.0,59.0,51.0,24.0,55.0,1254.312
1254322.0,60.0,51.0,25.0,60.0,1254.322
1254332.0,62.0,49.0,24.0,58.0,1254.332
1254342.0,61.0,53.0,26.0,57.0,1254.342
1254352.0,62.0,52.0,31.0,55.0,1254.352
1254362.0,63.0,51.0,27.0,54.0,1254.362
1254372.0,63.0,52.0,26.0,56.0,1254.372
1254382.0,63.0,49.0,27.0,55.0,1254.382
1254392.0,61.0,49.0,23.0,52.0,1254.392
1254402.0,63.0,49.0,25.0,51.0,1254.402
1254412.0,60.0,51.0,32.0,60.0,1254.412
1254422.0,59.0,50.0,27.0,56.0,1254.422
1254432.0,59.0,49.0,26.0,54.0,1254.432
1254443.0,57.0,50.0,24.0,53.0,1254.443
1254453.0,57.0,49.0,25.0,54.0,1254.453
1254463.0,56.0,48.0,26.0,56.0,1254.463
1254473.0,55.0,49.0,38.0,55.0,1254.473
1254483.0,54.0,49.0,33.0,58.0,1254.483
1254493.0,53.0,47.0,31.0,58.0,1254.493
1254503.0,53.0,46.0,28.0,56.0,1254.503
1254513.0,50.0,47.0,24.0,54.0,1254.513
1254523.0,51.0,47.0,24.0,53.0,1254.523
1254533.0,49.0,47.0,20.0,51.0,1254.533
1254543.0,49.0,48.0,35.0,53.0,1254.543
1254553.0,49.0,48.0,37.0,52.0,1254.553
1254563.0,48.0,48.0,33.0,48.0,1254.563
1254573.0,47.0,48.0,31.0,49.0,1254.573
1254583.0,45.0,50.0,28.0,57.0,1254.583
1254593.0,47.0,50.0,31.0,55.0,1254.593
1254603.0,45.0,51.0,28.0,54.0,1254.603
1254614.0,46.0,53.0,33.0,60.0,1254.614
1254624.0,45.0,53.0,36.0,62.0,1254.624
1254634.0,45.0,51.0,31.0,60.0,1254.634
1254644.0,44.0,52.0,31.0,60.0,1254.644
1254654.0,44.0,50.0,29.0,59.0,1254.654
1254664.0,45.0,50.0,27.0,57.0,1254.664
1254674.0,44.0,52.0,32.0,62.0,1254.674
1254684.0,44.0,50.0,33.0,59.0,1254.684
1254694.0,43.0,49.0,31.0,62.0,1254.694
1254704.0,45.0,47.0,31.0,60.0,1254.704
1254714.0,46.0,47.0,27.0,58.0,1254.714
1254724.0,45.0,46.0,24.0,59.0,1254.724
1254734.0,47.0,46.0,24.0,57.0,1254.734
1254744.0,46.0,46.0,21.0,56.0,1254.744
1254754.0,47.0,45.0,32.0,56.0,1254.754
1254764.0,48.0,47.0,30.0,62.0,1254.764
1254774.0,49.0,45.0,27.0,56.0,1254.774
1254784.0,50.0,45.0,26.0,60.0,1254.784
1254794.0,48.0,47.0,24.0,63.0,1254.794
1254804.0,49.0,46.0,22.0,59.0,1254.804
1254814.0,50.0,46.0,22.0,60.0,1254.814
1254824.0,51.0,47.0,30.0,59.0,1254.824
1254834.0,50.0,46.0,27.0,58.0,1254.834
1254844.0,49.0,46.0,25.0,57.0,1254.844
