time (ms),signal 0,signal 1,signal 2,signal3,time (sec)
1259223.0,54.0,58.0,23.0,54.0,1259.223
1259233.0,54.0,58.0,21.0,53.0,1259.233
1259243.0,55.0,57.0,20.0,53.0,1259.243
1259253.0,55.0,60.0,22.0,55.0,1259.253
1259264.0,56.0,57.0,25.0,55.0,1259.264
1259274.0,55.0,57.0,23.0,55.0,1259.274
1259284.0,55.0,57.0,22.0,55.0,1259.284
1259294.0,54.0,60.0,25.0,56.0,1259.294
1259304.0,54.0,59.0,22.0,59.0,1259.304
1259314.0,54.0,60.0,21.0,55.0,1259.314
1259324.0,53.0,59.0,18.0,56.0,1259.324
1259334.0,53.0,60.0,19.0,58.0,1259.334
1259344.0,54.0,57.0,21.0,55.0,1259.344
1259354.0,54.0,55.0,20.0,55.0,1259.354
1259364.0,55.0,53.0,24.0,55.0,1259.364
1259374.0,53.0,52.0,20.0,55.0,1259.374
1259384.0,53.0,53.0,19.0,55.0,1259.384
1259394.0,53.0,53.0,17.0,57.0,1259.394
1259404.0,54.0,52.0,18.0,55.0,1259.404
1259414.0,52.0,54.0,36.0,55.0,1259.414
1259424.0,53.0,53.0,39.0,58.0,1259.424
1259435.0,54.0,51.0,35.0,64.0,1259.435
1259445.0,53.0,49.0,29.0,68.0,1259.445
1259455.0,55.0,48.0,27.0,64.0,1259.455
1259465.0,55.0,48.0,23.0,63.0,1259.465
1259475.0,55.0,48.0,23.0,62.0,1259.475
1259485.0,56.0,46.0,24.0,66.0,1259.485
1259495.0,55.0,48.0,26.0,65.0,1259.495
1259505.0,56.0,47.0,35.0,69.0,1259.505
1259515.0,56.0,45.0,31.0,67.0,1259.515
1259525.0,58.0,45.0,31.0,66.0,1259.525
1259535.0,59.0,45.0,27.0,67.0,1259.535
1259545.0,59.0,42.0,25.0,62.0,1259.545
1259555.0,58.0,43.0,23.0,65.0,1259.555
1259565.0,57.0,43.0,22.0,65.0,1259.565
1259575.0,56.0,42.0,22.0,64.0,1259.575
1259585.0,52.0,43.0,29.0,61.0,1259.585
1259595.0,53.0,41.0,29.0,61.0,1259.595
1259606.0,50.0,42.0,27.0,59.0,1259.606
1259616.0,49.0,43.0,29.0,56.0,1259.616
1259626.0,48.0,42.0,25.0,54.0,1259.626
1259636.0,47.0,44.0,23.0,52.0,1259.636
1259646.0,47.0,43.0,20.0,53.0,1259.646
1259656.0,46.0,44.0,18.0,54.0,1259.656
1259666.0,46.0,44.0,21.0,53.0,1259.666
1259676.0,45.0,45.0,19.0,54.0,1259.676
1259686.0,45.0,47.0,25.0,55.0,1259.686
1259696.0,45.0,46.0,33.0,55.0,1259.696
1259706.0,44.0,45.0,31.0,58.0,1259.706
1259716.0,44.0,44.0,27.0,54.0,1259.716
1259726.0,43.0,45.0,24.0,55.0,1259.726
1259736.0,43.0,43.0,23.0,53.0,1259.736
1259746.0,43.0,44.0,23.0,56.0,1259.746
1259756.0,44.0,43.0,24.0,58.0,1259.756
1259766.0,43.0,41.0,22.0,58.0,1259.766
1259776.0,43.0,43.0,32.0,56.0,1259.776
1259786.0,43.0,41.0,30.0,54.0,1259.786
1259796.0,44.0,42.0,33.0,53.0,1259.796
1259806.0,44.0,41.0,29.0,51.0,1259.806
1259816.0,44.0,39.0,26.0,53.0,1259.816
1259826.0,44.0,39.0,24.0,55.0,1259.826
1259836.0,43.0,38.0,23.0,55.0,1259.836
1259846.0,43.0,39.0,21.0,57.0,1259.846
1259856.0,46.0,41.0,32.0,57.0,1259.856
1259866.0,46.0,42.0,32.0,61.0,1259.866
1259876.0,47.0,41.0,28.0,61.0,1259.876
1259886.0,47.0,41.0,25.0,59.0,1259.886
1259896.0,47.0,40.0,22.0,58.0,1259.896
1259906.0,47.0,39.0,21.0,58.0,1259.906
1259916.0,47.0,38.0,20.0,61.0,1259.916
1259926.0,47.0,39.0,23.0,63.0,1259.926
1259936.0,48.0,41.0,26.0,60.0,1259.936
1259947.0,51.0,43.0,41.0,59.0,1259.947
1259957.0,52.0,43.0,35.0,58.0,1259.957
1259967.0,54.0,44.0,30.0,58.0,1259.967
1259977.0,55.0,44.0,27.0,58.0,1259.977
1259987.0,55.0,45.0,26.0,61.0,1259.987
1259997.0,56.0,44.0,24.0,64.0,1259.997
1260007.0,56.0,45.0,22.0,64.0,1260.007
1260017.0,55.0,45.0,23.0,65.0,1260.017
1260027.0,57.0,45.0,25.0,66.0,1260.027
1260037.0,57.0,43.0,22.0,62.0,1260.037
1260047.0,57.0,44.0,22.0,63.0,1260.047
1260057.0,56.0,44.0,21.0,60.0,1260.057
1260067.0,57.0,43.0,20.0,61.0,1260.067
1260077.0,55.0,43.0,22.0,60.0,1260.077
1260087.0,56.0,43.0,24.0,62.0,1260.087
1260097.0,54.0,47.0,27.0,62.0,1260.097
1260107.0,55.0,44.0,26.0,58.0,1260.107
1260118.0,55.0,45.0,25.0,61.0,1260.118
1260128.0,55.0,45.0,21.0,58.0,1260.128
1260138.0,56.0,45.0,21.0,60.0,1260.138
1260148.0,53.0,46.0,18.0,60.0,1260.148
1260158.0,52.0,45.0,21.0,57.0,1260.158
1260168.0,52.0,46.0,21.0,62.0,1260.168
1260178.0,51.0,47.0,21.0,57.0,1260.178
1260188.0,52.0,47.0,23.0,56.0,1260.188
1260198.0,53.0,47.0,24.0,54.0,1260.198
1260208.0,54.0,47.0,23.0,55.0,1260.208
1260218.0,52.0,47.0,22.0,57.0,1260.218
1260228.0,53.0,46.0,21.0,57.0,1260.228
1260238.0,52.0,45.0,18.0,58.0,1260.238
1260248.0,51.0,48.0,23.0,55.0,1260.248
1260258.0,52.0,48.0,20.0,54.0,1260.258
1260268.0,51.0,48.0,29.0,54.0,1260.268
1260278.0,53.0,47.0,28.0,54.0,1260.278
1260288.0,53.0,48.0,25.0,57.0,1260.288
1260298.0,55.0,48.0,24.0,55.0,1260.298
1260308.0,56.0,47.0,20.0,54.0,1260.308
1260318.0,57.0,48.0,19.0,52.0,1260.318
1260328.0,57.0,49.0,21.0,57.0,1260.328
1260338.0,57.0,51.0,23.0,64.0,1260.338
1260348.0,58.0,49.0,28.0,62.0,1260.348
1260358.0,55.0,49.0,29.0,62.0,1260.358
1260368.0,55.0,48.0,26.0,60.0,1260.368
1260378.0,54.0,49.0,24.0,64.0,1260.378
1260388.0,53.0,50.0,22.0,64.0,1260.388
1260398.0,55.0,49.0,20.0,66.0,1260.398
1260408.0,54.0,50.0,20.0,63.0,1260.408
1260418.0,55.0,51.0,39.0,63.0,1260.418
1260428.0,54.0,50.0,33.0,60.0,1260.428
1260438.0,54.0,49.0,31.0,60.0,1260.438
1260448.0,54.0,47.0,27.0,60.0,1260.448
1260459.0,54.0,47.0,24.0,60.0,1260.459
1260469.0,55.0,46.0,22.0,63.0,1260.469
1260479.0,56.0,46.0,22.0,60.0,1260.479
1260489.0,55.0,46.0,24.0,57.0,1260.489
1260499.0,55.0,48.0,34.0,65.0,1260.499
1260509.0,55.0,46.0,31.0,64.0,1260.509
1260519.0,55.0,44.0,27.0,60.0,1260.519
1260529.0,54.0,42.0,24.0,62.0,1260.529
1260539.0,53.0,41.0,21.0,59.0,1260.539
1260549.0,53.0,42.0,21.0,59.0,1260.549
1260559.0,53.0,43.0,21.0,57.0,1260.559
1260569.0,53.0,42.0,21.0,58.0,1260.569
1260579.0,51.0,41.0,19.0,59.0,1260.579
1260589.0,50.0,43.0,17.0,60.0,1260.589
1260599.0,50.0,44.0,36.0,57.0,1260.599
1260609.0,49.0,43.0,34.0,57.0,1260.609
1260619.0,48.0,41.0,32.0,55.0,1260.619
1260630.0,49.0,40.0,29.0,54.0,1260.63
1260640.0,48.0,41.0,26.0,55.0,1260.64
1260650.0,48.0,42.0,23.0,57.0,1260.65
1260660.0,46.0,42.0,20.0,59.0,1260.66
1260670.0,47.0,44.0,19.0,54.0,1260.67
1260680.0,48.0,43.0,19.0,55.0,1260.68
1260690.0,47.0,46.0,18.0,60.0,1260.69
1260700.0,51.0,46.0,26.0,65.0,1260.7
1260710.0,51.0,47.0,23.0,64.0,1260.71
1260720.0,51.0,49.0,22.0,66.0,1260.72
1260730.0,51.0,49.0,19.0,65.0,1260.73
1260740.0,50.0,49.0,18.0,63.0,1260.74
1260750.0,50.0,50.0,18.0,63.0,1260.75
1260760.0,50.0,51.0,17.0,61.0,1260.76
1260770.0,50.0,52.0,16.0,63.0,1260.77
1260780.0,50.0,51.0,12.0,67.0,1260.78
1260790.0,51.0,49.0,13.0,63.0,1260.79
1260800.0,51.0,47.0,12.0,61.0,1260.8
1260810.0,50.0,48.0,13.0,62.0,1260.81
1260820.0,50.0,48.0,25.0,62.0,1260.82
1260830.0,49.0,47.0,23.0,65.0,1260.83
1260840.0,52.0,48.0,23.0,63.0,1260.84
1260850.0,50.0,47.0,20.0,62.0,1260.85
1260860.0,51.0,48.0,19.0,57.0,1260.86
1260870.0,51.0,49.0,17.0,57.0,1260.87
1260880.0,51.0,48.0,15.0,53.0,1260.88
1260890.0,51.0,50.0,14.0,55.0,1260.89
1260900.0,50.0,50.0,13.0,56.0,1260.9
1260910.0,51.0,49.0,13.0,54.0,1260.91
1260920.0,51.0,51.0,24.0,57.0,1260.92
1260930.0,51.0,50.0,28.0,55.0,1260.93
1260940.0,49.0,49.0,26.0,57.0,1260.94
1260950.0,50.0,49.0,23.0,66.0,1260.95
1260960.0,49.0,45.0,21.0,63.0,1260.96
1260971.0,49.0,45.0,18.0,61.0,1260.971
1260981.0,50.0,45.0,17.0,59.0,1260.981
1260991.0,49.0,45.0,14.0,57.0,1260.991
1261001.0,49.0,47.0,16.0,61.0,1261.001
1261011.0,48.0,47.0,16.0,66.0,1261.011
1261021.0,49.0,48.0,14.0,63.0,1261.021
1261031.0,49.0,50.0,17.0,65.0,1261.031
1261041.0,51.0,48.0,18.0,69.0,1261.041
1261051.0,52.0,47.0,16.0,67.0,1261.051
1261061.0,51.0,47.0,14.0,64.0,1261.061
1261071.0,50.0,47.0,13.0,59.0,1261.071
1261081.0,50.0,47.0,15.0,66.0,1261.081
1261091.0,51.0,47.0,13.0,63.0,1261.091
1261101.0,51.0,47.0,19.0,63.0,1261.101
1261111.0,53.0,46.0,21.0,60.0,1261.111
1261121.0,54.0,46.0,34.0,58.0,1261.121
1261131.0,56.0,47.0,30.0,58.0,1261.131
1261142.0,57.0,47.0,30.0,56.0,1261.142
1261152.0,55.0,47.0,27.0,57.0,1261.152
1261162.0,55.0,46.0,25.0,55.0,1261.162
1261172.0,54.0,48.0,24.0,55.0,1261.172
1261182.0,54.0,47.0,21.0,57.0,1261.182
1261192.0,54.0,46.0,19.0,54.0,1261.192
1261202.0,55.0,46.0,18.0,57.0,1261.202
1261212.0,56.0,47.0,19.0,53.0,1261.212
1261222.0,58.0,50.0,32.0,54.0,1261.222
1261232.0,59.0,51.0,30.0,55.0,1261.232
1261242.0,59.0,51.0,30.0,60.0,1261.242
1261252.0,57.0,52.0,27.0,56.0,1261.252
1261262.0,58.0,50.0,26.0,58.0,1261.262
1261272.0,56.0,52.0,26.0,55.0,1261.272
1261282.0,56.0,50.0,23.0,52.0,1261.282
1261292.0,56.0,52.0,21.0,50.0,1261.292
1261302.0,55.0,51.0,21.0,50.0,1261.302
1261312.0,55.0,53.0,32.0,47.0,1261.312
1261322.0,55.0,52.0,29.0,46.0,1261.322
1261332.0,56.0,52.0,26.0,55.0,1261.332
1261342.0,54.0,52.0,24.0,53.0,1261.342
1261352.0,55.0,51.0,28.0,56.0,1261.352
1261362.0,54.0,51.0,24.0,56.0,1261.362
1261372.0,54.0,54.0,22.0,56.0,1261.372
1261382.0,54.0,52.0,20.0,55.0,1261.382
1261392.0,56.0,53.0,17.0,51.0,1261.392
1261402.0,56.0,56.0,23.0,53.0,1261.402
1261412.0,56.0,56.0,27.0,57.0,1261.412
1261422.0,57.0,55.0,24.0,55.0,1261.422
1261432.0,59.0,55.0,23.0,58.0,1261.432
1261442.0,60.0,54.0,20.0,54.0,1261.442
1261452.0,62.0,54.0,19.0,52.0,1261.452
1261462.0,63.0,54.0,17.0,50.0,1261.462
1261472.0,61.0,53.0,15.0,49.0,1261.472
1261483.0,60.0,54.0,14.0,52.0,1261.483
1261493.0,60.0,54.0,13.0,53.0,1261.493
1261503.0,61.0,53.0,16.0,55.0,1261.503
1261513.0,59.0,53.0,25.0,55.0,1261.513
1261523.0,61.0,52.0,22.0,54.0,1261.523
1261533.0,61.0,52.0,24.0,59.0,1261.533
1261543.0,62.0,50.0,23.0,57.0,1261.543
1261553.0,59.0,50.0,20.0,57.0,1261.553
1261563.0,60.0,50.0,18.0,53.0,1261.563
1261573.0,60.0,49.0,20.0,52.0,1261.573
1261583.0,60.0,49.0,22.0,50.0,1261.583
1261593.0,61.0,48.0,19.0,48.0,1261.593
1261603.0,61.0,49.0,19.0,47.0,1261.603
1261613.0,61.0,48.0,32.0,50.0,1261.613
1261623.0,59.0,48.0,34.0,54.0,1261.623
1261633.0,60.0,48.0,31.0,54.0,1261.633
1261643.0,60.0,49.0,28.0,53.0,1261.643
1261654.0,62.0,48.0,25.0,52.0,1261.654
1261664.0,62.0,46.0,25.0,56.0,1261.664
1261674.0,62.0,46.0,21.0,54.0,1261.674
1261684.0,62.0,48.0,21.0,51.0,1261.684
1261694.0,62.0,47.0,32.0,51.0,1261.694
1261704.0,61.0,46.0,31.0,50.0,1261.704
1261714.0,62.0,43.0,27.0,55.0,1261.714
1261724.0,61.0,44.0,25.0,51.0,1261.724
1261734.0,60.0,42.0,23.0,48.0,1261.734
1261744.0,60.0,42.0,24.0,57.0,1261.744
1261754.0,60.0,40.0,24.0,55.0,1261.754
1261764.0,61.0,39.0,22.0,54.0,1261.764
1261774.0,61.0,42.0,35.0,54.0,1261.774
1261784.0,60.0,41.0,30.0,53.0,1261.784
1261794.0,60.0,40.0,27.0,52.0,1261.794
1261804.0,60.0,39.0,24.0,54.0,1261.804
1261814.0,60.0,39.0,21.0,57.0,1261.814
1261824.0,61.0,40.0,21.0,57.0,1261.824
1261834.0,60.0,40.0,17.0,56.0,1261.834
1261844.0,59.0,41.0,18.0,53.0,1261.844
1261854.0,58.0,43.0,17.0,55.0,1261.854
1261864.0,58.0,43.0,18.0,57.0,1261.864
1261874.0,57.0,42.0,16.0,62.0,1261.874
1261884.0,57.0,44.0,14.0,64.0,1261.884
1261894.0,59.0,45.0,15.0,58.0,1261.894
1261904.0,61.0,46.0,12.0,56.0,1261.904
1261914.0,59.0,50.0,32.0,56.0,1261.914
1261924.0,58.0,61.0,30.0,55.0,1261.924
1261934.0,80.0,75.0,26.0,73.0,1261.934
1261944.0,91.0,87.0,24.0,72.0,1261.944
1261954.0,103.0,133.0,33.0,90.0,1261.954
1261964.0,120.0,158.0,32.0,102.0,1261.964
1261974.0,120.0,148.0,29.0,116.0,1261.974
1261984.0,133.0,254.0,46.0,127.0,1261.984
1261995.0,156.0,264.0,53.0,201.0,1261.995
1262005.0,193.0,250.0,51.0,222.0,1262.005
1262015.0,290.0,403.0,87.0,273.0,1262.015
1262025.0,346.0,434.0,100.0,326.0,1262.025
1262035.0,406.0,457.0,103.0,332.0,1262.035
1262045.0,401.0,480.0,95.0,309.0,1262.045
1262055.0,421.0,442.0,101.0,357.0,1262.055
1262065.0,428.0,432.0,94.0,327.0,1262.065
1262075.0,402.0,436.0,82.0,324.0,1262.075
1262085.0,371.0,450.0,77.0,303.0,1262.085
1262095.0,352.0,424.0,75.0,325.0,1262.095
1262105.0,348.0,415.0,70.0,310.0,1262.105
1262115.0,324.0,392.0,62.0,294.0,1262.115
1262125.0,293.0,357.0,55.0,309.0,1262.125
1262135.0,264.0,333.0,49.0,297.0,1262.135
1262145.0,242.0,314.0,45.0,268.0,1262.145
1262155.0,227.0,301.0,44.0,262.0,1262.155
1262166.0,209.0,283.0,40.0,271.0,1262.166
1262176.0,196.0,266.0,36.0,248.0,1262.176
1262186.0,181.0,260.0,34.0,243.0,1262.186
1262196.0,170.0,246.0,31.0,232.0,1262.196
1262206.0,159.0,225.0,28.0,232.0,1262.206
1262216.0,152.0,215.0,27.0,218.0,1262.216
1262226.0,145.0,202.0,23.0,210.0,1262.226
1262236.0,147.0,201.0,21.0,205.0,1262.236
1262246.0,146.0,186.0,22.0,227.0,1262.246
1262256.0,140.0,181.0,20.0,218.0,1262.256
1262266.0,132.0,175.0,19.0,200.0,1262.266
1262276.0,129.0,169.0,18.0,232.0,1262.276
1262286.0,131.0,163.0,16.0,240.0,1262.286
1262296.0,126.0,154.0,15.0,229.0,1262.296
1262306.0,121.0,145.0,15.0,233.0,1262.306
1262316.0,118.0,132.0,16.0,262.0,1262.316
1262326.0,112.0,141.0,14.0,261.0,1262.326
1262336.0,105.0,131.0,14.0,255.0,1262.336
1262346.0,106.0,123.0,15.0,254.0,1262.346
1262356.0,104.0,120.0,15.0,244.0,1262.356
1262366.0,102.0,116.0,14.0,236.0,1262.366
1262376.0,99.0,109.0,13.0,233.0,1262.376
1262386.0,96.0,103.0,15.0,228.0,1262.386
1262396.0,90.0,121.0,15.0,233.0,1262.396
1262406.0,86.0,117.0,21.0,245.0,1262.406
1262416.0,86.0,111.0,21.0,265.0,1262.416
1262426.0,86.0,103.0,19.0,272.0,1262.426
1262436.0,85.0,100.0,20.0,260.0,1262.436
1262446.0,82.0,103.0,20.0,285.0,1262.446
1262456.0,79.0,99.0,19.0,273.0,1262.456
1262466.0,78.0,94.0,17.0,255.0,1262.466
1262476.0,80.0,103.0,16.0,233.0,1262.476
1262486.0,80.0,106.0,15.0,231.0,1262.486
1262496.0,78.0,106.0,21.0,230.0,1262.496
1262507.0,81.0,96.0,23.0,232.0,1262.507
1262517.0,83.0,96.0,27.0,245.0,1262.517
1262527.0,81.0,92.0,53.0,227.0,1262.527
1262537.0,79.0,90.0,53.0,234.0,1262.537
1262547.0,82.0,95.0,52.0,244.0,1262.547
1262557.0,80.0,89.0,49.0,233.0,1262.557
1262567.0,78.0,85.0,43.0,222.0,1262.567
1262577.0,77.0,82.0,39.0,208.0,1262.577
1262587.0,74.0,85.0,33.0,195.0,1262.587
1262597.0,73.0,88.0,37.0,211.0,1262.597
1262607.0,72.0,88.0,35.0,209.0,1262.607
1262617.0,71.0,86.0,34.0,206.0,1262.617
1262627.0,71.0,92.0,32.0,198.0,1262.627
1262637.0,70.0,88.0,27.0,194.0,1262.637
1262647.0,69.0,84.0,25.0,198.0,1262.647
1262657.0,69.0,80.0,23.0,195.0,1262.657
1262667.0,67.0,76.0,22.0,183.0,1262.667
1262678.0,65.0,76.0,18.0,183.0,1262.678
1262688.0,63.0,75.0,17.0,191.0,1262.688
1262698.0,63.0,84.0,17.0,193.0,1262.698
1262708.0,63.0,88.0,17.0,194.0,1262.708
1262718.0,65.0,92.0,16.0,202.0,1262.718
1262728.0,65.0,101.0,15.0,221.0,1262.728
1262738.0,65.0,108.0,15.0,222.0,1262.738
1262748.0,66.0,100.0,14.0,204.0,1262.748
1262758.0,63.0,96.0,13.0,192.0,1262.758
1262768.0,62.0,89.0,11.0,181.0,1262.768
1262778.0,61.0,87.0,10.0,186.0,1262.778
1262788.0,64.0,87.0,10.0,179.0,1262.788
1262798.0,63.0,84.0,9.0,179.0,1262.798
1262808.0,62.0,82.0,9.0,180.0,1262.808
1262818.0,63.0,86.0,8.0,170.0,1262.818
1262828.0,61.0,81.0,8.0,171.0,1262.828
1262838.0,64.0,79.0,8.0,169.0,1262.838
1262848.0,65.0,86.0,7.0,166.0,1262.848
1262858.0,64.0,90.0,8.0,167.0,1262.858
1262868.0,61.0,87.0,7.0,161.0,1262.868
1262878.0,60.0,81.0,10.0,187.0,1262.878
1262888.0,58.0,77.0,8.0,175.0,1262.888
1262898.0,55.0,75.0,8.0,178.0,1262.898
1262908.0,55.0,73.0,8.0,194.0,1262.908
1262918.0,55.0,77.0,9.0,195.0,1262.918
1262928.0,54.0,76.0,9.0,195.0,1262.928
1262938.0,52.0,76.0,15.0,185.0,1262.938
1262948.0,52.0,74.0,17.0,177.0,1262.948
1262958.0,52.0,75.0,20.0,200.0,1262.958
1262968.0,50.0,86.0,20.0,202.0,1262.968
1262978.0,54.0,91.0,21.0,192.0,1262.978
1262988.0,56.0,88.0,24.0,195.0,1262.988
1262998.0,56.0,106.0,22.0,194.0,1262.998
1263008.0,56.0,98.0,19.0,189.0,1263.008
1263019.0,56.0,90.0,18.0,203.0,1263.019
1263029.0,56.0,86.0,16.0,195.0,1263.029
1263039.0,55.0,83.0,15.0,192.0,1263.039
1263049.0,56.0,79.0,14.0,184.0,1263.049
1263059.0,55.0,85.0,14.0,183.0,1263.059
1263069.0,55.0,80.0,14.0,182.0,1263.069
1263079.0,54.0,79.0,14.0,187.0,1263.079
1263089.0,56.0,75.0,15.0,190.0,1263.089
1263099.0,58.0,83.0,14.0,197.0,1263.099
1263109.0,58.0,79.0,14.0,203.0,1263.109
1263119.0,56.0,79.0,15.0,212.0,1263.119
1263129.0,55.0,80.0,16.0,213.0,1263.129
1263139.0,57.0,80.0,16.0,212.0,1263.139
1263149.0,58.0,87.0,14.0,198.0,1263.149
1263159.0,58.0,85.0,12.0,221.0,1263.159
1263169.0,59.0,79.0,13.0,215.0,1263.169
1263179.0,60.0,78.0,12.0,207.0,1263.179
1263190.0,58.0,76.0,11.0,213.0,1263.19
1263200.0,58.0,78.0,11.0,222.0,1263.2
1263210.0,57.0,73.0,12.0,212.0,1263.21
1263220.0,58.0,77.0,10.0,220.0,1263.22
1263230.0,59.0,75.0,11.0,203.0,1263.23
1263240.0,60.0,77.0,10.0,186.0,1263.24
1263250.0,59.0,77.0,14.0,198.0,1263.25
1263260.0,57.0,76.0,17.0,197.0,1263.26
1263270.0,57.0,78.0,19.0,200.0,1263.27
1263280.0,56.0,78.0,21.0,195.0,1263.28
1263290.0,55.0,79.0,20.0,199.0,1263.29
1263300.0,56.0,79.0,19.0,183.0,1263.3
1263310.0,55.0,78.0,16.0,205.0,1263.31
1263320.0,55.0,77.0,16.0,225.0,1263.32
1263330.0,55.0,79.0,15.0,208.0,1263.33
1263340.0,56.0,81.0,13.0,198.0,1263.34
1263350.0,58.0,79.0,12.0,196.0,1263.35
1263360.0,61.0,76.0,12.0,189.0,1263.36
1263370.0,61.0,79.0,13.0,190.0,1263.37
1263380.0,70.0,83.0,11.0,186.0,1263.38
1263390.0,66.0,81.0,12.0,172.0,1263.39
1263400.0,81.0,83.0,12.0,175.0,1263.4
1263410.0,83.0,81.0,14.0,185.0,1263.41
1263420.0,81.0,78.0,15.0,172.0,1263.42
1263430.0,87.0,74.0,13.0,187.0,1263.43
1263440.0,84.0,72.0,13.0,186.0,1263.44
1263450.0,83.0,73.0,12.0,186.0,1263.45
1263460.0,80.0,71.0,10.0,183.0,1263.46
1263470.0,78.0,79.0,12.0,181.0,1263.47
1263480.0,80.0,79.0,14.0,204.0,1263.48
1263490.0,85.0,74.0,16.0,192.0,1263.49
1263500.0,80.0,78.0,14.0,202.0,1263.5
1263510.0,79.0,76.0,13.0,197.0,1263.51
1263520.0,79.0,73.0,14.0,179.0,1263.52
1263531.0,75.0,70.0,12.0,166.0,1263.531
1263541.0,75.0,69.0,12.0,169.0,1263.541
1263551.0,78.0,70.0,15.0,181.0,1263.551
1263561.0,75.0,66.0,13.0,194.0,1263.561
1263571.0,73.0,66.0,13.0,182.0,1263.571
1263581.0,75.0,66.0,12.0,173.0,1263.581
1263591.0,80.0,66.0,11.0,162.0,1263.591
1263601.0,77.0,67.0,16.0,159.0,1263.601
1263611.0,80.0,70.0,16.0,152.0,1263.611
1263621.0,77.0,70.0,15.0,151.0,1263.621
1263631.0,81.0,67.0,13.0,142.0,1263.631
1263641.0,79.0,68.0,13.0,138.0,1263.641
1263651.0,77.0,65.0,13.0,142.0,1263.651
1263661.0,75.0,65.0,12.0,143.0,1263.661
1263671.0,73.0,64.0,10.0,140.0,1263.671
1263681.0,73.0,61.0,12.0,136.0,1263.681
1263691.0,73.0,60.0,10.0,128.0,1263.691
1263702.0,72.0,60.0,12.0,119.0,1263.702
1263712.0,73.0,59.0,15.0,114.0,1263.712
1263722.0,73.0,60.0,17.0,113.0,1263.722
1263732.0,74.0,59.0,15.0,115.0,1263.732
1263742.0,71.0,62.0,22.0,122.0,1263.742
1263752.0,72.0,65.0,25.0,116.0,1263.752
1263762.0,79.0,68.0,31.0,113.0,1263.762
1263772.0,77.0,66.0,36.0,103.0,1263.772
1263782.0,81.0,67.0,68.0,114.0,1263.782
1263792.0,84.0,65.0,61.0,123.0,1263.792
1263802.0,86.0,63.0,53.0,115.0,1263.802
1263812.0,86.0,59.0,50.0,106.0,1263.812
1263822.0,87.0,57.0,53.0,99.0,1263.822
1263832.0,91.0,60.0,48.0,105.0,1263.832
1263842.0,97.0,62.0,46.0,98.0,1263.842
1263852.0,103.0,63.0,45.0,92.0,1263.852
1263862.0,104.0,66.0,64.0,97.0,1263.862
1263872.0,110.0,69.0,64.0,99.0,1263.872
1263882.0,112.0,72.0,60.0,111.0,1263.882
1263892.0,117.0,77.0,70.0,129.0,1263.892
1263902.0,123.0,90.0,73.0,131.0,1263.902
1263912.0,125.0,96.0,73.0,129.0,1263.912
1263922.0,128.0,106.0,72.0,127.0,1263.922
1263932.0,129.0,114.0,79.0,120.0,1263.932
1263942.0,132.0,121.0,70.0,128.0,1263.942
1263952.0,128.0,122.0,66.0,134.0,1263.952
1263962.0,132.0,129.0,66.0,147.0,1263.962
1263972.0,131.0,131.0,88.0,162.0,1263.972
1263982.0,130.0,134.0,93.0,154.0,1263.982
1263992.0,128.0,134.0,84.0,169.0,1263.992
1264002.0,128.0,136.0,79.0,166.0,1264.002
1264012.0,128.0,135.0,82.0,165.0,1264.012
1264022.0,125.0,133.0,78.0,185.0,1264.022
1264032.0,124.0,132.0,99.0,186.0,1264.032
1264043.0,122.0,131.0,105.0,184.0,1264.043
1264053.0,119.0,126.0,103.0,179.0,1264.053
1264063.0,119.0,125.0,93.0,170.0,1264.063
1264073.0,116.0,120.0,88.0,169.0,1264.073
1264083.0,111.0,113.0,88.0,163.0,1264.083
1264093.0,108.0,113.0,92.0,158.0,1264.093
1264103.0,106.0,109.0,87.0,162.0,1264.103
1264113.0,104.0,109.0,88.0,159.0,1264.113
1264123.0,102.0,104.0,85.0,170.0,1264.123
1264133.0,100.0,100.0,85.0,170.0,1264.133
1264143.0,97.0,98.0,91.0,163.0,1264.143
1264153.0,94.0,95.0,87.0,155.0,1264.153
1264163.0,90.0,94.0,76.0,146.0,1264.163
1264173.0,88.0,90.0,74.0,150.0,1264.173
1264183.0,85.0,89.0,75.0,155.0,1264.183
1264193.0,82.0,86.0,71.0,152.0,1264.193
1264203.0,82.0,84.0,68.0,147.0,1264.203
1264214.0,79.0,82.0,74.0,136.0,1264.214
1264224.0,81.0,80.0,67.0,131.0,1264.224
1264234.0,78.0,77.0,62.0,139.0,1264.234
1264244.0,77.0,76.0,56.0,129.0,1264.244
1264254.0,75.0,75.0,58.0,140.0,1264.254
1264264.0,73.0,71.0,59.0,134.0,1264.264
1264274.0,73.0,70.0,67.0,131.0,1264.274
1264284.0,72.0,69.0,64.0,136.0,1264.284
1264294.0,72.0,68.0,60.0,137.0,1264.294
1264304.0,70.0,67.0,56.0,143.0,1264.304
1264314.0,69.0,64.0,50.0,140.0,1264.314
1264324.0,68.0,64.0,54.0,133.0,1264.324
1264334.0,69.0,62.0,54.0,127.0,1264.334
1264344.0,69.0,62.0,53.0,126.0,1264.344
1264354.0,68.0,63.0,49.0,116.0,1264.354
1264364.0,69.0,62.0,49.0,119.0,1264.364
1264374.0,68.0,61.0,42.0,123.0,1264.374
1264384.0,67.0,59.0,46.0,128.0,1264.384
1264394.0,65.0,57.0,47.0,123.0,1264.394
1264404.0,65.0,58.0,71.0,121.0,1264.404
1264414.0,65.0,55.0,62.0,119.0,1264.414
1264424.0,63.0,55.0,55.0,113.0,1264.424
1264434.0,65.0,55.0,50.0,116.0,1264.434
1264444.0,60.0,52.0,46.0,115.0,1264.444
1264454.0,59.0,49.0,41.0,121.0,1264.454
1264464.0,60.0,49.0,45.0,136.0,1264.464
1264474.0,59.0,51.0,63.0,129.0,1264.474
1264484.0,58.0,50.0,57.0,119.0,1264.484
1264494.0,57.0,50.0,57.0,135.0,1264.494
1264504.0,57.0,48.0,49.0,127.0,1264.504
1264514.0,54.0,47.0,44.0,127.0,1264.514
1264524.0,54.0,45.0,42.0,125.0,1264.524
1264534.0,54.0,44.0,38.0,124.0,1264.534
1264544.0,54.0,46.0,41.0,127.0,1264.544
1264555.0,54.0,45.0,45.0,123.0,1264.555
1264565.0,54.0,45.0,44.0,116.0,1264.565
1264575.0,56.0,45.0,40.0,115.0,1264.575
1264585.0,54.0,44.0,34.0,107.0,1264.585
1264595.0,53.0,44.0,31.0,108.0,1264.595
1264605.0,53.0,44.0,32.0,134.0,1264.605
1264615.0,53.0,44.0,29.0,125.0,1264.615
1264625.0,52.0,42.0,29.0,122.0,1264.625
1264635.0,49.0,42.0,27.0,117.0,1264.635
1264645.0,51.0,42.0,28.0,127.0,1264.645
1264655.0,52.0,43.0,30.0,129.0,1264.655
1264665.0,53.0,45.0,50.0,133.0,1264.665
1264675.0,54.0,45.0,43.0,129.0,1264.675
1264685.0,55.0,44.0,42.0,130.0,1264.685
1264695.0,56.0,44.0,39.0,137.0,1264.695
1264705.0,57.0,45.0,41.0,138.0,1264.705
1264715.0,58.0,44.0,38.0,149.0,1264.715
1264726.0,58.0,44.0,33.0,149.0,1264.726
1264736.0,60.0,44.0,44.0,143.0,1264.736
1264746.0,62.0,45.0,43.0,140.0,1264.746
1264756.0,64.0,44.0,45.0,137.0,1264.756
1264766.0,66.0,44.0,40.0,149.0,1264.766
1264776.0,66.0,43.0,36.0,146.0,1264.776
1264786.0,68.0,43.0,32.0,139.0,1264.786
1264796.0,66.0,42.0,31.0,128.0,1264.796
1264806.0,67.0,43.0,51.0,120.0,1264.806
1264816.0,67.0,44.0,52.0,121.0,1264.816
1264826.0,68.0,43.0,47.0,113.0,1264.826
1264836.0,69.0,42.0,42.0,111.0,1264.836
1264846.0,69.0,42.0,39.0,109.0,1264.846
1264856.0,69.0,42.0,38.0,103.0,1264.856
1264866.0,68.0,43.0,40.0,113.0,1264.866
1264876.0,70.0,44.0,44.0,143.0,1264.876
1264886.0,71.0,43.0,41.0,132.0,1264.886
1264896.0,72.0,43.0,37.0,125.0,1264.896
1264906.0,73.0,42.0,33.0,118.0,1264.906
1264916.0,73.0,41.0,32.0,133.0,1264.916
1264926.0,73.0,41.0,30.0,136.0,1264.926
1264936.0,72.0,41.0,24.0,140.0,1264.936
1264946.0,72.0,41.0,24.0,134.0,1264.946
1264956.0,72.0,42.0,27.0,133.0,1264.956
1264966.0,74.0,42.0,46.0,137.0,1264.966
1264976.0,73.0,41.0,46.0,134.0,1264.976
1264986.0,73.0,42.0,41.0,136.0,1264.986
1264996.0,74.0,41.0,39.0,124.0,1264.996
1265006.0,73.0,40.0,32.0,126.0,1265.006
1265016.0,72.0,41.0,37.0,130.0,1265.016
1265026.0,70.0,41.0,33.0,125.0,1265.026
1265036.0,68.0,44.0,54.0,125.0,1265.036
1265046.0,70.0,44.0,61.0,125.0,1265.046
1265056.0,70.0,43.0,53.0,130.0,1265.056
1265067.0,72.0,41.0,47.0,118.0,1265.067
1265077.0,71.0,41.0,40.0,117.0,1265.077
1265087.0,70.0,41.0,37.0,121.0,1265.087
1265097.0,71.0,41.0,33.0,117.0,1265.097
1265107.0,70.0,40.0,30.0,116.0,1265.107
1265117.0,71.0,39.0,28.0,115.0,1265.117
1265127.0,69.0,40.0,37.0,125.0,1265.127
1265137.0,71.0,40.0,43.0,125.0,1265.137
1265147.0,71.0,41.0,39.0,121.0,1265.147
1265157.0,70.0,40.0,39.0,116.0,1265.157
1265167.0,69.0,39.0,35.0,114.0,1265.167
1265177.0,69.0,41.0,39.0,116.0,1265.177
1265187.0,68.0,40.0,38.0,125.0,1265.187
1265197.0,67.0,39.0,33.0,117.0,1265.197
1265207.0,66.0,40.0,36.0,118.0,1265.207
1265217.0,66.0,40.0,34.0,119.0,1265.217
1265227.0,67.0,40.0,30.0,133.0,1265.227
1265238.0,66.0,40.0,27.0,133.0,1265.238
1265248.0,65.0,42.0,31.0,120.0,1265.248
1265258.0,63.0,44.0,32.0,121.0,1265.258
1265268.0,62.0,42.0,29.0,120.0,1265.268
1265278.0,62.0,41.0,27.0,112.0,1265.278
1265288.0,61.0,41.0,26.0,139.0,1265.288
1265298.0,62.0,40.0,23.0,134.0,1265.298
1265308.0,60.0,40.0,21.0,131.0,1265.308
1265318.0,61.0,41.0,19.0,125.0,1265.318
1265328.0,62.0,39.0,18.0,134.0,1265.328
1265338.0,63.0,39.0,17.0,135.0,1265.338
1265348.0,65.0,41.0,24.0,129.0,1265.348
1265358.0,66.0,41.0,36.0,120.0,1265.358
1265368.0,68.0,39.0,31.0,117.0,1265.368
1265378.0,68.0,41.0,28.0,121.0,1265.378
1265388.0,67.0,40.0,27.0,115.0,1265.388
1265398.0,68.0,38.0,24.0,112.0,1265.398
1265408.0,67.0,39.0,29.0,111.0,1265.408
1265418.0,67.0,39.0,27.0,113.0,1265.418
1265428.0,66.0,42.0,24.0,111.0,1265.428
1265438.0,67.0,43.0,35.0,111.0,1265.438
1265448.0,69.0,44.0,38.0,111.0,1265.448
1265458.0,69.0,45.0,33.0,105.0,1265.458
1265468.0,67.0,55.0,29.0,104.0,1265.468
1265478.0,65.0,61.0,27.0,106.0,1265.478
1265488.0,70.0,67.0,25.0,113.0,1265.488
1265498.0,70.0,66.0,22.0,108.0,1265.498
1265508.0,68.0,62.0,23.0,113.0,1265.508
1265518.0,67.0,59.0,26.0,114.0,1265.518
1265528.0,66.0,59.0,40.0,116.0,1265.528
1265538.0,67.0,55.0,38.0,138.0,1265.538
1265548.0,65.0,53.0,36.0,130.0,1265.548
1265558.0,65.0,51.0,35.0,126.0,1265.558
1265568.0,64.0,50.0,30.0,125.0,1265.568
1265579.0,63.0,51.0,39.0,121.0,1265.579
1265589.0,64.0,49.0,37.0,118.0,1265.589
1265599.0,65.0,47.0,31.0,113.0,1265.599
1265609.0,66.0,46.0,28.0,110.0,1265.609
1265619.0,64.0,47.0,24.0,115.0,1265.619
1265629.0,67.0,45.0,24.0,114.0,1265.629
1265639.0,65.0,45.0,21.0,113.0,1265.639
1265649.0,64.0,47.0,35.0,117.0,1265.649
1265659.0,66.0,45.0,34.0,119.0,1265.659
1265669.0,66.0,44.0,38.0,138.0,1265.669
1265679.0,68.0,42.0,33.0,136.0,1265.679
1265689.0,67.0,42.0,29.0,138.0,1265.689
1265699.0,70.0,41.0,29.0,129.0,1265.699
1265709.0,69.0,41.0,28.0,121.0,1265.709
1265719.0,69.0,41.0,27.0,117.0,1265.719
1265729.0,68.0,40.0,24.0,124.0,1265.729
1265739.0,68.0,40.0,21.0,117.0,1265.739
1265750.0,67.0,39.0,20.0,115.0,1265.75
1265760.0,65.0,41.0,33.0,119.0,1265.76
1265770.0,64.0,42.0,38.0,118.0,1265.77
1265780.0,63.0,42.0,32.0,117.0,1265.78
1265790.0,62.0,42.0,32.0,119.0,1265.79
1265800.0,64.0,41.0,29.0,124.0,1265.8
1265810.0,63.0,41.0,26.0,128.0,1265.81
1265820.0,63.0,40.0,23.0,129.0,1265.82
1265830.0,63.0,39.0,23.0,118.0,1265.83
1265840.0,62.0,42.0,32.0,111.0,1265.84
1265850.0,62.0,41.0,26.0,124.0,1265.85
1265860.0,62.0,41.0,24.0,141.0,1265.86
1265870.0,61.0,41.0,21.0,138.0,1265.87
1265880.0,59.0,42.0,19.0,133.0,1265.88
1265890.0,60.0,42.0,18.0,130.0,1265.89
1265900.0,61.0,41.0,16.0,123.0,1265.9
1265910.0,61.0,42.0,15.0,111.0,1265.91
1265920.0,60.0,42.0,14.0,103.0,1265.92
1265930.0,61.0,43.0,26.0,101.0,1265.93
1265940.0,61.0,43.0,25.0,101.0,1265.94
1265950.0,59.0,44.0,27.0,95.0,1265.95
1265960.0,60.0,44.0,43.0,109.0,1265.96
1265970.0,61.0,44.0,40.0,119.0,1265.97
1265980.0,61.0,44.0,36.0,150.0,1265.98
1265990.0,62.0,44.0,31.0,153.0,1265.99
1266000.0,60.0,45.0,30.0,153.0,1266.0
1266010.0,61.0,44.0,31.0,150.0,1266.01
1266020.0,61.0,46.0,29.0,149.0,1266.02
1266030.0,63.0,46.0,27.0,142.0,1266.03
1266040.0,64.0,45.0,29.0,146.0,1266.04
1266050.0,65.0,46.0,31.0,145.0,1266.05
1266060.0,63.0,49.0,38.0,133.0,1266.06
1266070.0,61.0,50.0,36.0,127.0,1266.07
1266080.0,61.0,50.0,36.0,125.0,1266.08
1266091.0,60.0,52.0,33.0,136.0,1266.091
1266101.0,59.0,52.0,29.0,136.0,1266.101
1266111.0,59.0,52.0,27.0,136.0,1266.111
1266121.0,58.0,54.0,36.0,130.0,1266.121
1266131.0,58.0,53.0,33.0,122.0,1266.131
1266141.0,57.0,53.0,29.0,117.0,1266.141
1266151.0,57.0,56.0,43.0,115.0,1266.151
1266161.0,56.0,56.0,37.0,112.0,1266.161
1266171.0,55.0,53.0,33.0,112.0,1266.171
1266181.0,53.0,53.0,32.0,108.0,1266.181
1266191.0,55.0,53.0,31.0,128.0,1266.191
1266201.0,54.0,52.0,26.0,120.0,1266.201
1266211.0,53.0,53.0,23.0,117.0,1266.211
1266221.0,53.0,52.0,22.0,135.0,1266.221
1266231.0,53.0,53.0,39.0,152.0,1266.231
1266241.0,53.0,50.0,38.0,144.0,1266.241
1266251.0,53.0,48.0,33.0,135.0,1266.251
1266262.0,54.0,48.0,30.0,126.0,1266.262
1266272.0,56.0,49.0,27.0,123.0,1266.272
1266282.0,58.0,47.0,29.0,152.0,1266.282
1266292.0,59.0,47.0,26.0,147.0,1266.292
1266302.0,60.0,48.0,23.0,134.0,1266.302
1266312.0,59.0,48.0,21.0,131.0,1266.312
1266322.0,58.0,50.0,24.0,127.0,1266.322
1266332.0,61.0,48.0,25.0,125.0,1266.332
1266342.0,60.0,49.0,21.0,127.0,1266.342
1266352.0,60.0,48.0,20.0,122.0,1266.352
1266362.0,60.0,49.0,20.0,117.0,1266.362
1266372.0,59.0,52.0,19.0,107.0,1266.372
1266382.0,59.0,50.0,19.0,110.0,1266.382
1266392.0,60.0,51.0,16.0,102.0,1266.392
1266402.0,60.0,52.0,17.0,99.0,1266.402
1266412.0,59.0,54.0,18.0,112.0,1266.412
1266422.0,58.0,53.0,27.0,125.0,1266.422
1266432.0,57.0,55.0,33.0,125.0,1266.432
1266442.0,56.0,56.0,29.0,123.0,1266.442
1266452.0,54.0,54.0,30.0,149.0,1266.452
1266462.0,55.0,54.0,25.0,151.0,1266.462
1266472.0,55.0,53.0,27.0,154.0,1266.472
1266482.0,53.0,53.0,22.0,152.0,1266.482
1266492.0,52.0,53.0,23.0,160.0,1266.492
1266502.0,52.0,53.0,24.0,162.0,1266.502
1266512.0,50.0,57.0,35.0,152.0,1266.512
1266522.0,53.0,54.0,39.0,144.0,1266.522
1266532.0,53.0,54.0,41.0,136.0,1266.532
1266542.0,55.0,55.0,40.0,138.0,1266.542
1266552.0,56.0,56.0,38.0,128.0,1266.552
1266562.0,55.0,56.0,34.0,124.0,1266.562
1266572.0,56.0,56.0,32.0,123.0,1266.572
1266582.0,56.0,59.0,39.0,122.0,1266.582
1266592.0,56.0,56.0,39.0,116.0,1266.592
1266603.0,56.0,56.0,34.0,117.0,1266.603
1266613.0,56.0,56.0,30.0,111.0,1266.613
1266623.0,55.0,55.0,31.0,114.0,1266.623
1266633.0,53.0,57.0,28.0,118.0,1266.633
1266643.0,55.0,56.0,26.0,117.0,1266.643
1266653.0,56.0,59.0,40.0,117.0,1266.653
1266663.0,58.0,55.0,37.0,114.0,1266.663
1266673.0,57.0,56.0,32.0,120.0,1266.673
1266683.0,60.0,55.0,31.0,116.0,1266.683
1266693.0,58.0,57.0,32.0,113.0,1266.693
1266703.0,58.0,57.0,28.0,122.0,1266.703
1266713.0,58.0,56.0,26.0,117.0,1266.713
1266723.0,57.0,56.0,23.0,118.0,1266.723
1266733.0,58.0,53.0,22.0,126.0,1266.733
1266743.0,57.0,52.0,19.0,135.0,1266.743
1266753.0,57.0,51.0,32.0,136.0,1266.753
1266763.0,58.0,49.0,32.0,129.0,1266.763
1266774.0,56.0,49.0,28.0,123.0,1266.774
1266784.0,56.0,47.0,27.0,130.0,1266.784
1266794.0,55.0,47.0,24.0,147.0,1266.794
1266804.0,54.0,46.0,21.0,138.0,1266.804
1266814.0,53.0,46.0,21.0,128.0,1266.814
1266824.0,53.0,46.0,20.0,123.0,1266.824
1266834.0,52.0,47.0,24.0,121.0,1266.834
1266844.0,52.0,48.0,38.0,129.0,1266.844
1266854.0,52.0,47.0,40.0,130.0,1266.854
1266864.0,54.0,47.0,35.0,125.0,1266.864
1266874.0,56.0,46.0,31.0,126.0,1266.874
1266884.0,56.0,48.0,29.0,124.0,1266.884
1266894.0,56.0,49.0,32.0,125.0,1266.894
1266904.0,56.0,49.0,28.0,119.0,1266.904
1266914.0,54.0,51.0,50.0,109.0,1266.914
1266924.0,57.0,49.0,46.0,108.0,1266.924
1266934.0,57.0,50.0,45.0,124.0,1266.934
1266944.0,56.0,48.0,40.0,122.0,1266.944
1266954.0,57.0,47.0,35.0,113.0,1266.954
1266964.0,59.0,46.0,33.0,106.0,1266.964
1266974.0,58.0,46.0,32.0,100.0,1266.974
1266984.0,59.0,45.0,29.0,105.0,1266.984
1266994.0,59.0,47.0,31.0,113.0,1266.994
1267004.0,61.0,46.0,30.0,109.0,1267.004
1267014.0,60.0,45.0,34.0,100.0,1267.014
1267024.0,60.0,45.0,40.0,110.0,1267.024
1267034.0,61.0,45.0,37.0,121.0,1267.034
1267044.0,63.0,45.0,34.0,120.0,1267.044
1267054.0,62.0,46.0,31.0,119.0,1267.054
1267064.0,63.0,45.0,32.0,119.0,1267.064
1267074.0,63.0,47.0,31.0,116.0,1267.074
1267084.0,64.0,44.0,27.0,129.0,1267.084
1267094.0,62.0,46.0,24.0,127.0,1267.094
1267104.0,61.0,45.0,22.0,121.0,1267.104
1267115.0,62.0,45.0,20.0,120.0,1267.115
1267125.0,60.0,47.0,18.0,124.0,1267.125
1267135.0,60.0,48.0,26.0,137.0,1267.135
1267145.0,59.0,49.0,25.0,145.0,1267.145
1267155.0,59.0,46.0,28.0,146.0,1267.155
1267165.0,58.0,46.0,28.0,150.0,1267.165
1267175.0,58.0,45.0,24.0,138.0,1267.175
1267185.0,58.0,46.0,28.0,144.0,1267.185
1267195.0,56.0,45.0,26.0,138.0,1267.195
1267205.0,56.0,45.0,38.0,130.0,1267.205
1267215.0,55.0,45.0,35.0,136.0,1267.215
1267225.0,53.0,44.0,32.0,132.0,1267.225
1267235.0,52.0,44.0,31.0,128.0,1267.235
1267245.0,53.0,45.0,29.0,132.0,1267.245
1267255.0,54.0,44.0,26.0,127.0,1267.255
1267265.0,54.0,45.0,22.0,117.0,1267.265
1267275.0,53.0,45.0,23.0,119.0,1267.275
1267286.0,53.0,49.0,29.0,128.0,1267.286
1267296.0,54.0,47.0,37.0,128.0,1267.296
1267306.0,54.0,46.0,33.0,135.0,1267.306
1267316.0,55.0,45.0,33.0,126.0,1267.316
1267326.0,54.0,45.0,34.0,121.0,1267.326
1267336.0,54.0,43.0,34.0,116.0,1267.336
1267346.0,56.0,41.0,32.0,109.0,1267.346
1267356.0,57.0,43.0,29.0,146.0,1267.356
1267366.0,58.0,41.0,29.0,147.0,1267.366
1267376.0,59.0,42.0,25.0,142.0,1267.376
1267386.0,60.0,43.0,30.0,131.0,1267.386
1267396.0,61.0,43.0,38.0,127.0,1267.396
1267406.0,58.0,41.0,34.0,126.0,1267.406
1267416.0,61.0,41.0,31.0,125.0,1267.416
1267426.0,61.0,41.0,29.0,124.0,1267.426
1267436.0,61.0,39.0,26.0,126.0,1267.436
1267446.0,64.0,39.0,23.0,126.0,1267.446
1267456.0,64.0,39.0,21.0,117.0,1267.456
1267466.0,66.0,39.0,18.0,118.0,1267.466
1267476.0,66.0,40.0,18.0,114.0,1267.476
1267486.0,67.0,41.0,31.0,110.0,1267.486
1267496.0,69.0,42.0,31.0,113.0,1267.496
1267506.0,71.0,40.0,30.0,121.0,1267.506
1267516.0,72.0,42.0,32.0,127.0,1267.516
1267526.0,73.0,41.0,29.0,127.0,1267.526
1267536.0,73.0,41.0,26.0,132.0,1267.536
1267546.0,71.0,40.0,22.0,131.0,1267.546
1267556.0,71.0,43.0,25.0,122.0,1267.556
1267566.0,72.0,43.0,22.0,123.0,1267.566
1267576.0,73.0,40.0,19.0,123.0,1267.576
1267586.0,73.0,39.0,18.0,119.0,1267.586
1267596.0,73.0,40.0,17.0,108.0,1267.596
1267606.0,73.0,42.0,16.0,103.0,1267.606
1267616.0,72.0,42.0,15.0,101.0,1267.616
1267627.0,73.0,43.0,13.0,98.0,1267.627
1267637.0,72.0,44.0,18.0,119.0,1267.637
1267647.0,71.0,42.0,16.0,126.0,1267.647
1267657.0,72.0,42.0,15.0,119.0,1267.657
1267667.0,73.0,41.0,15.0,111.0,1267.667
1267677.0,71.0,42.0,16.0,106.0,1267.677
1267687.0,70.0,43.0,16.0,101.0,1267.687
1267697.0,69.0,41.0,16.0,105.0,1267.697
1267707.0,69.0,42.0,15.0,102.0,1267.707
1267717.0,67.0,43.0,31.0,102.0,1267.717
1267727.0,68.0,42.0,33.0,123.0,1267.727
1267737.0,68.0,41.0,31.0,112.0,1267.737
1267747.0,67.0,42.0,33.0,110.0,1267.747
1267757.0,66.0,41.0,32.0,106.0,1267.757
1267767.0,67.0,39.0,29.0,100.0,1267.767
1267777.0,67.0,45.0,38.0,96.0,1267.777
1267787.0,67.0,42.0,33.0,93.0,1267.787
1267798.0,66.0,42.0,31.0,92.0,1267.798
1267808.0,67.0,41.0,30.0,96.0,1267.808
1267818.0,69.0,40.0,28.0,94.0,1267.818
1267828.0,69.0,40.0,26.0,98.0,1267.828
1267838.0,69.0,41.0,23.0,100.0,1267.838
1267848.0,70.0,41.0,22.0,116.0,1267.848
1267858.0,70.0,40.0,21.0,112.0,1267.858
1267868.0,70.0,40.0,20.0,113.0,1267.868
1267878.0,69.0,42.0,25.0,112.0,1267.878
1267888.0,71.0,41.0,29.0,109.0,1267.888
1267898.0,71.0,40.0,25.0,104.0,1267.898
1267908.0,73.0,41.0,26.0,117.0,1267.908
1267918.0,73.0,42.0,23.0,131.0,1267.918
1267928.0,76.0,40.0,22.0,130.0,1267.928
1267938.0,76.0,41.0,20.0,121.0,1267.938
1267948.0,75.0,40.0,21.0,127.0,1267.948
1267958.0,75.0,40.0,21.0,145.0,1267.958
1267968.0,72.0,39.0,20.0,141.0,1267.968
1267978.0,72.0,40.0,19.0,128.0,1267.978
1267988.0,72.0,40.0,30.0,121.0,1267.988
1267998.0,72.0,40.0,26.0,118.0,1267.998
1268008.0,71.0,41.0,29.0,120.0,1268.008
1268018.0,71.0,42.0,29.0,118.0,1268.018
1268028.0,72.0,41.0,26.0,110.0,1268.028
1268038.0,69.0,42.0,25.0,110.0,1268.038
1268048.0,68.0,40.0,23.0,106.0,1268.048
1268058.0,66.0,42.0,19.0,99.0,1268.058
1268068.0,65.0,40.0,19.0,91.0,1268.068
1268078.0,65.0,40.0,18.0,99.0,1268.078
1268088.0,64.0,39.0,15.0,99.0,1268.088
1268098.0,63.0,39.0,15.0,107.0,1268.098
1268108.0,62.0,38.0,13.0,108.0,1268.108
1268118.0,62.0,37.0,12.0,97.0,1268.118
1268128.0,61.0,37.0,10.0,96.0,1268.128
1268139.0,61.0,38.0,12.0,109.0,1268.139
1268149.0,62.0,38.0,11.0,123.0,1268.149
1268159.0,61.0,39.0,10.0,118.0,1268.159
1268169.0,61.0,39.0,16.0,111.0,1268.169
1268179.0,60.0,40.0,17.0,111.0,1268.179
1268189.0,62.0,39.0,16.0,108.0,1268.189
1268199.0,61.0,40.0,15.0,104.0,1268.199
1268209.0,60.0,42.0,31.0,103.0,1268.209
1268219.0,61.0,42.0,31.0,98.0,1268.219
1268229.0,62.0,41.0,29.0,99.0,1268.229
1268239.0,64.0,42.0,30.0,98.0,1268.239
1268249.0,64.0,42.0,44.0,92.0,1268.249
1268259.0,66.0,41.0,41.0,91.0,1268.259
1268269.0,66.0,41.0,36.0,92.0,1268.269
1268279.0,67.0,41.0,38.0,103.0,1268.279
1268289.0,70.0,41.0,41.0,99.0,1268.289
1268299.0,70.0,40.0,35.0,100.0,1268.299
1268310.0,72.0,39.0,32.0,101.0,1268.31
1268320.0,72.0,39.0,32.0,103.0,1268.32
1268330.0,71.0,41.0,44.0,94.0,1268.33
1268340.0,72.0,41.0,44.0,97.0,1268.34
1268350.0,73.0,40.0,40.0,110.0,1268.35
1268360.0,75.0,39.0,38.0,110.0,1268.36
1268370.0,76.0,40.0,35.0,111.0,1268.37
1268380.0,78.0,40.0,29.0,109.0,1268.38
1268390.0,77.0,41.0,26.0,110.0,1268.39
1268400.0,76.0,41.0,23.0,121.0,1268.4
1268410.0,75.0,43.0,22.0,112.0,1268.41
1268420.0,75.0,41.0,20.0,106.0,1268.42
1268430.0,74.0,41.0,19.0,107.0,1268.43
1268440.0,73.0,39.0,20.0,104.0,1268.44
1268450.0,73.0,42.0,30.0,96.0,1268.45
1268460.0,73.0,42.0,41.0,98.0,1268.46
1268470.0,72.0,41.0,36.0,109.0,1268.47
1268480.0,71.0,42.0,34.0,108.0,1268.48
1268490.0,70.0,39.0,29.0,98.0,1268.49
1268500.0,68.0,38.0,26.0,95.0,1268.5
1268510.0,66.0,38.0,23.0,92.0,1268.51
1268520.0,64.0,38.0,21.0,97.0,1268.52
1268530.0,62.0,38.0,21.0,110.0,1268.53
1268540.0,63.0,37.0,20.0,110.0,1268.54
1268550.0,64.0,38.0,18.0,105.0,1268.55
1268560.0,63.0,37.0,16.0,104.0,1268.56
1268570.0,62.0,36.0,14.0,110.0,1268.57
1268580.0,63.0,36.0,13.0,111.0,1268.58
1268590.0,63.0,37.0,14.0,104.0,1268.59
1268600.0,60.0,37.0,22.0,107.0,1268.6
1268610.0,60.0,37.0,23.0,101.0,1268.61
1268620.0,59.0,37.0,24.0,96.0,1268.62
1268630.0,60.0,39.0,24.0,96.0,1268.63
1268640.0,62.0,41.0,23.0,96.0,1268.64
1268651.0,62.0,43.0,20.0,111.0,1268.651
1268661.0,63.0,43.0,20.0,111.0,1268.661
1268671.0,62.0,46.0,34.0,105.0,1268.671
1268681.0,62.0,45.0,36.0,105.0,1268.681
1268691.0,63.0,46.0,32.0,106.0,1268.691
1268701.0,63.0,46.0,29.0,100.0,1268.701
1268711.0,61.0,46.0,27.0,99.0,1268.711
1268721.0,61.0,46.0,25.0,97.0,1268.721
1268731.0,62.0,47.0,24.0,95.0,1268.731
1268741.0,60.0,46.0,22.0,94.0,1268.741
1268751.0,60.0,46.0,39.0,94.0,1268.751
1268761.0,61.0,47.0,39.0,103.0,1268.761
1268771.0,61.0,46.0,40.0,112.0,1268.771
1268781.0,62.0,47.0,35.0,112.0,1268.781
1268791.0,61.0,46.0,31.0,117.0,1268.791
1268801.0,64.0,45.0,30.0,113.0,1268.801
1268811.0,62.0,43.0,28.0,104.0,1268.811
1268822.0,61.0,41.0,25.0,101.0,1268.822
1268832.0,61.0,42.0,23.0,104.0,1268.832
1268842.0,61.0,41.0,24.0,125.0,1268.842
1268852.0,60.0,39.0,22.0,121.0,1268.852
1268862.0,61.0,41.0,26.0,111.0,1268.862
1268872.0,62.0,40.0,26.0,106.0,1268.872
1268882.0,62.0,39.0,22.0,108.0,1268.882
1268892.0,61.0,39.0,20.0,123.0,1268.892
1268902.0,60.0,40.0,18.0,125.0,1268.902
1268912.0,61.0,38.0,18.0,124.0,1268.912
1268922.0,61.0,39.0,17.0,117.0,1268.922
1268932.0,62.0,38.0,15.0,124.0,1268.932
1268942.0,63.0,37.0,15.0,123.0,1268.942
1268952.0,62.0,39.0,26.0,114.0,1268.952
1268962.0,61.0,38.0,28.0,101.0,1268.962
1268972.0,61.0,39.0,28.0,113.0,1268.972
1268982.0,61.0,38.0,30.0,109.0,1268.982
1268992.0,60.0,37.0,28.0,106.0,1268.992
1269002.0,61.0,37.0,25.0,108.0,1269.002
1269012.0,60.0,35.0,22.0,103.0,1269.012
1269022.0,60.0,37.0,20.0,100.0,1269.022
1269032.0,60.0,36.0,20.0,107.0,1269.032
1269042.0,58.0,36.0,23.0,122.0,1269.042
1269052.0,58.0,35.0,22.0,117.0,1269.052
1269062.0,57.0,38.0,32.0,110.0,1269.062
1269072.0,55.0,38.0,31.0,106.0,1269.072
1269082.0,56.0,38.0,29.0,102.0,1269.082
1269092.0,54.0,37.0,24.0,93.0,1269.092
1269102.0,53.0,36.0,23.0,94.0,1269.102
1269112.0,53.0,38.0,22.0,103.0,1269.112
1269122.0,53.0,36.0,19.0,107.0,1269.122
1269132.0,53.0,36.0,19.0,117.0,1269.132
1269142.0,53.0,36.0,17.0,110.0,1269.142
1269152.0,54.0,35.0,21.0,103.0,1269.152
1269163.0,52.0,38.0,33.0,97.0,1269.163
1269173.0,53.0,37.0,30.0,103.0,1269.173
1269183.0,52.0,39.0,31.0,101.0,1269.183
1269193.0,53.0,37.0,29.0,102.0,1269.193
1269203.0,54.0,36.0,27.0,102.0,1269.203
1269213.0,55.0,36.0,24.0,106.0,1269.213
1269223.0,56.0,36.0,28.0,96.0,1269.223
1269233.0,57.0,36.0,23.0,90.0,1269.233
1269243.0,59.0,36.0,22.0,99.0,1269.243
1269253.0,59.0,37.0,30.0,97.0,1269.253
