time (ms),signal 0,signal 1,signal 2,signal3,time (sec)
1272785.0,60.0,51.0,28.0,74.0,1272.785
1272795.0,63.0,49.0,31.0,72.0,1272.795
1272805.0,64.0,48.0,28.0,70.0,1272.805
1272815.0,63.0,47.0,29.0,71.0,1272.815
1272825.0,66.0,45.0,27.0,77.0,1272.825
1272835.0,64.0,49.0,25.0,81.0,1272.835
1272845.0,64.0,46.0,23.0,78.0,1272.845
1272855.0,64.0,46.0,23.0,79.0,1272.855
1272865.0,64.0,46.0,24.0,78.0,1272.865
1272875.0,63.0,46.0,24.0,76.0,1272.875
1272885.0,62.0,46.0,22.0,80.0,1272.885
1272895.0,63.0,45.0,28.0,81.0,1272.895
1272905.0,61.0,45.0,31.0,76.0,1272.905
1272915.0,62.0,44.0,28.0,77.0,1272.915
1272925.0,62.0,45.0,25.0,79.0,1272.925
1272935.0,64.0,44.0,22.0,86.0,1272.935
1272945.0,64.0,46.0,21.0,89.0,1272.945
1272955.0,63.0,46.0,18.0,87.0,1272.955
1272965.0,64.0,45.0,16.0,81.0,1272.965
1272975.0,64.0,47.0,16.0,80.0,1272.975
1272985.0,62.0,49.0,32.0,84.0,1272.985
1272995.0,63.0,48.0,32.0,93.0,1272.995
1273005.0,62.0,46.0,30.0,99.0,1273.005
1273015.0,61.0,45.0,29.0,102.0,1273.015
1273025.0,60.0,44.0,25.0,100.0,1273.025
1273035.0,58.0,44.0,23.0,92.0,1273.035
1273046.0,59.0,43.0,20.0,96.0,1273.046
1273056.0,59.0,42.0,18.0,104.0,1273.056
1273066.0,61.0,41.0,16.0,102.0,1273.066
1273076.0,58.0,44.0,19.0,103.0,1273.076
1273086.0,61.0,42.0,19.0,102.0,1273.086
1273096.0,62.0,42.0,16.0,105.0,1273.096
1273106.0,62.0,43.0,29.0,97.0,1273.106
1273116.0,63.0,43.0,28.0,90.0,1273.116
1273126.0,64.0,43.0,26.0,84.0,1273.126
1273136.0,64.0,43.0,24.0,87.0,1273.136
1273146.0,64.0,43.0,21.0,94.0,1273.146
1273156.0,65.0,42.0,22.0,90.0,1273.156
1273166.0,62.0,42.0,23.0,86.0,1273.166
1273176.0,61.0,43.0,22.0,82.0,1273.176
1273186.0,61.0,43.0,21.0,81.0,1273.186
1273196.0,59.0,41.0,18.0,87.0,1273.196
1273206.0,58.0,42.0,16.0,93.0,1273.206
1273216.0,58.0,41.0,15.0,88.0,1273.216
1273226.0,58.0,42.0,28.0,84.0,1273.226
1273236.0,58.0,42.0,26.0,80.0,1273.236
1273246.0,58.0,42.0,25.0,77.0,1273.246
1273256.0,56.0,43.0,22.0,73.0,1273.256
1273266.0,57.0,42.0,19.0,74.0,1273.266
1273276.0,57.0,41.0,21.0,77.0,1273.276
1273286.0,56.0,42.0,19.0,83.0,1273.286
1273296.0,55.0,42.0,22.0,92.0,1273.296
1273306.0,56.0,42.0,21.0,98.0,1273.306
1273316.0,55.0,42.0,27.0,103.0,1273.316
1273326.0,55.0,44.0,33.0,117.0,1273.326
1273336.0,56.0,42.0,29.0,112.0,1273.336
1273346.0,55.0,42.0,25.0,109.0,1273.346
1273356.0,55.0,41.0,25.0,104.0,1273.356
1273366.0,56.0,41.0,24.0,101.0,1273.366
1273376.0,54.0,44.0,20.0,94.0,1273.376
1273387.0,53.0,45.0,20.0,114.0,1273.387
1273397.0,52.0,45.0,17.0,118.0,1273.397
1273407.0,51.0,46.0,18.0,112.0,1273.407
1273417.0,52.0,46.0,15.0,106.0,1273.417
1273427.0,51.0,48.0,28.0,101.0,1273.427
1273437.0,52.0,47.0,26.0,91.0,1273.437
1273447.0,52.0,47.0,27.0,94.0,1273.447
1273457.0,52.0,47.0,25.0,99.0,1273.457
1273467.0,50.0,48.0,20.0,96.0,1273.467
1273477.0,50.0,48.0,21.0,101.0,1273.477
1273487.0,51.0,46.0,21.0,102.0,1273.487
1273497.0,52.0,47.0,20.0,100.0,1273.497
1273507.0,54.0,46.0,19.0,96.0,1273.507
1273517.0,52.0,46.0,20.0,90.0,1273.517
1273527.0,54.0,47.0,22.0,98.0,1273.527
1273537.0,53.0,48.0,35.0,94.0,1273.537
1273547.0,55.0,46.0,37.0,106.0,1273.547
1273558.0,58.0,44.0,32.0,118.0,1273.558
1273568.0,60.0,44.0,29.0,108.0,1273.568
1273578.0,61.0,45.0,28.0,115.0,1273.578
1273588.0,58.0,45.0,22.0,111.0,1273.588
1273598.0,61.0,44.0,23.0,103.0,1273.598
1273608.0,61.0,45.0,21.0,100.0,1273.608
1273618.0,59.0,47.0,25.0,99.0,1273.618
1273628.0,61.0,46.0,32.0,98.0,1273.628
1273638.0,61.0,49.0,29.0,104.0,1273.638
1273648.0,61.0,49.0,28.0,99.0,1273.648
1273658.0,60.0,50.0,24.0,92.0,1273.658
1273668.0,60.0,50.0,24.0,94.0,1273.668
1273678.0,60.0,51.0,20.0,91.0,1273.678
1273688.0,59.0,51.0,18.0,89.0,1273.688
1273698.0,58.0,50.0,18.0,88.0,1273.698
1273708.0,59.0,49.0,17.0,88.0,1273.708
1273718.0,59.0,49.0,33.0,90.0,1273.718
1273728.0,59.0,47.0,30.0,86.0,1273.728
1273738.0,59.0,46.0,27.0,81.0,1273.738
1273748.0,60.0,46.0,23.0,78.0,1273.748
1273758.0,59.0,46.0,25.0,76.0,1273.758
1273768.0,61.0,45.0,27.0,84.0,1273.768
1273778.0,63.0,44.0,25.0,80.0,1273.778
1273788.0,65.0,42.0,22.0,85.0,1273.788
1273798.0,64.0,43.0,27.0,81.0,1273.798
1273808.0,66.0,42.0,26.0,78.0,1273.808
1273818.0,67.0,41.0,24.0,74.0,1273.818
1273828.0,66.0,41.0,21.0,75.0,1273.828
1273838.0,66.0,44.0,48.0,81.0,1273.838
1273848.0,68.0,43.0,41.0,86.0,1273.848
1273858.0,67.0,41.0,37.0,84.0,1273.858
1273868.0,66.0,40.0,32.0,79.0,1273.868
1273878.0,69.0,40.0,35.0,74.0,1273.878
1273888.0,67.0,39.0,30.0,88.0,1273.888
1273899.0,69.0,38.0,30.0,104.0,1273.899
1273909.0,70.0,38.0,29.0,101.0,1273.909
1273919.0,69.0,37.0,25.0,95.0,1273.919
1273929.0,70.0,36.0,24.0,90.0,1273.929
1273939.0,68.0,39.0,39.0,84.0,1273.939
1273949.0,69.0,38.0,39.0,80.0,1273.949
1273959.0,68.0,37.0,34.0,87.0,1273.959
1273969.0,67.0,37.0,31.0,87.0,1273.969
1273979.0,66.0,37.0,30.0,81.0,1273.979
1273989.0,64.0,37.0,27.0,77.0,1273.989
1273999.0,65.0,35.0,26.0,73.0,1273.999
1274009.0,62.0,37.0,24.0,82.0,1274.009
1274019.0,62.0,37.0,22.0,93.0,1274.019
1274029.0,62.0,37.0,26.0,104.0,1274.029
1274039.0,62.0,39.0,40.0,97.0,1274.039
1274049.0,62.0,39.0,37.0,93.0,1274.049
1274059.0,61.0,39.0,33.0,85.0,1274.059
1274070.0,62.0,38.0,30.0,82.0,1274.07
1274080.0,62.0,38.0,26.0,82.0,1274.08
1274090.0,63.0,37.0,26.0,85.0,1274.09
1274100.0,61.0,37.0,22.0,87.0,1274.1
1274110.0,62.0,36.0,20.0,93.0,1274.11
1274120.0,62.0,36.0,19.0,89.0,1274.12
1274130.0,61.0,36.0,17.0,84.0,1274.13
1274140.0,60.0,36.0,15.0,78.0,1274.14
1274150.0,58.0,38.0,12.0,74.0,1274.15
1274160.0,60.0,38.0,13.0,74.0,1274.16
1274170.0,61.0,38.0,10.0,71.0,1274.17
1274180.0,62.0,39.0,10.0,74.0,1274.18
1274190.0,62.0,41.0,10.0,77.0,1274.19
1274200.0,61.0,42.0,9.0,73.0,1274.2
1274210.0,62.0,43.0,13.0,82.0,1274.21
1274220.0,63.0,42.0,11.0,85.0,1274.22
1274230.0,62.0,41.0,14.0,89.0,1274.23
1274240.0,63.0,43.0,15.0,95.0,1274.24
1274250.0,63.0,43.0,29.0,90.0,1274.25
1274260.0,64.0,42.0,26.0,90.0,1274.26
1274270.0,63.0,44.0,22.0,103.0,1274.27
1274280.0,63.0,44.0,21.0,101.0,1274.28
1274290.0,62.0,45.0,20.0,97.0,1274.29
1274300.0,63.0,43.0,20.0,91.0,1274.3
1274310.0,62.0,44.0,18.0,88.0,1274.31
1274320.0,62.0,45.0,17.0,90.0,1274.32
1274330.0,63.0,44.0,16.0,91.0,1274.33
1274340.0,61.0,44.0,15.0,87.0,1274.34
1274350.0,63.0,44.0,14.0,82.0,1274.35
1274360.0,62.0,44.0,12.0,79.0,1274.36
1274370.0,61.0,46.0,20.0,77.0,1274.37
1274380.0,62.0,43.0,24.0,80.0,1274.38
1274390.0,63.0,43.0,22.0,86.0,1274.39
1274400.0,63.0,41.0,20.0,88.0,1274.4
1274411.0,63.0,41.0,24.0,84.0,1274.411
1274421.0,64.0,41.0,23.0,82.0,1274.421
1274431.0,63.0,41.0,20.0,79.0,1274.431
1274441.0,63.0,41.0,19.0,73.0,1274.441
1274451.0,63.0,43.0,16.0,99.0,1274.451
1274461.0,63.0,42.0,15.0,107.0,1274.461
1274471.0,64.0,42.0,13.0,102.0,1274.471
1274481.0,65.0,41.0,12.0,98.0,1274.481
1274491.0,65.0,41.0,12.0,94.0,1274.491
1274501.0,65.0,41.0,12.0,90.0,1274.501
1274511.0,64.0,40.0,11.0,88.0,1274.511
1274521.0,64.0,43.0,23.0,105.0,1274.521
1274531.0,63.0,43.0,22.0,112.0,1274.531
1274541.0,65.0,42.0,19.0,106.0,1274.541
1274551.0,64.0,42.0,19.0,101.0,1274.551
1274561.0,66.0,43.0,18.0,96.0,1274.561
1274571.0,66.0,43.0,16.0,96.0,1274.571
1274582.0,65.0,44.0,16.0,106.0,1274.582
1274592.0,65.0,44.0,14.0,112.0,1274.592
1274602.0,64.0,44.0,13.0,105.0,1274.602
1274612.0,64.0,44.0,13.0,104.0,1274.612
1274622.0,63.0,46.0,12.0,104.0,1274.622
1274632.0,61.0,49.0,21.0,101.0,1274.632
1274642.0,60.0,47.0,30.0,97.0,1274.642
1274652.0,61.0,48.0,28.0,114.0,1274.652
1274662.0,62.0,47.0,24.0,111.0,1274.662
1274672.0,62.0,47.0,21.0,103.0,1274.672
1274682.0,62.0,48.0,19.0,100.0,1274.682
1274692.0,62.0,48.0,17.0,115.0,1274.692
1274702.0,62.0,48.0,17.0,115.0,1274.702
1274712.0,61.0,48.0,18.0,117.0,1274.712
1274722.0,60.0,47.0,16.0,117.0,1274.722
1274732.0,60.0,47.0,17.0,125.0,1274.732
1274742.0,59.0,48.0,16.0,114.0,1274.742
1274752.0,59.0,46.0,16.0,103.0,1274.752
1274762.0,57.0,49.0,21.0,99.0,1274.762
1274772.0,56.0,47.0,22.0,99.0,1274.772
1274782.0,56.0,47.0,22.0,102.0,1274.782
1274792.0,54.0,45.0,20.0,92.0,1274.792
1274802.0,54.0,46.0,19.0,99.0,1274.802
1274812.0,54.0,46.0,18.0,109.0,1274.812
1274822.0,55.0,46.0,17.0,104.0,1274.822
1274832.0,56.0,46.0,15.0,98.0,1274.832
1274842.0,56.0,46.0,16.0,91.0,1274.842
1274852.0,56.0,46.0,19.0,109.0,1274.852
1274862.0,58.0,45.0,18.0,120.0,1274.862
1274872.0,58.0,45.0,27.0,116.0,1274.872
1274882.0,56.0,47.0,27.0,114.0,1274.882
1274892.0,57.0,46.0,24.0,105.0,1274.892
1274902.0,56.0,46.0,23.0,97.0,1274.902
1274912.0,58.0,45.0,21.0,92.0,1274.912
1274923.0,55.0,44.0,19.0,91.0,1274.923
1274933.0,55.0,45.0,21.0,101.0,1274.933
1274943.0,54.0,44.0,18.0,109.0,1274.943
1274953.0,53.0,46.0,16.0,108.0,1274.953
1274963.0,53.0,46.0,16.0,110.0,1274.963
1274973.0,52.0,46.0,17.0,103.0,1274.973
1274983.0,54.0,48.0,25.0,100.0,1274.983
1274993.0,53.0,47.0,22.0,112.0,1274.993
1275003.0,53.0,47.0,19.0,109.0,1275.003
1275013.0,53.0,45.0,17.0,107.0,1275.013
1275023.0,51.0,46.0,16.0,102.0,1275.023
1275033.0,52.0,45.0,16.0,100.0,1275.033
1275043.0,53.0,45.0,15.0,111.0,1275.043
1275053.0,53.0,45.0,15.0,107.0,1275.053
1275063.0,52.0,46.0,16.0,104.0,1275.063
1275073.0,53.0,44.0,18.0,100.0,1275.073
1275083.0,54.0,47.0,15.0,92.0,1275.083
1275094.0,53.0,65.0,14.0,92.0,1275.094
1275104.0,56.0,70.0,27.0,105.0,1275.104
1275114.0,55.0,68.0,24.0,103.0,1275.114
1275124.0,55.0,63.0,26.0,102.0,1275.124
1275134.0,54.0,69.0,24.0,100.0,1275.134
1275144.0,54.0,68.0,21.0,96.0,1275.144
1275154.0,55.0,65.0,19.0,91.0,1275.154
1275164.0,54.0,64.0,17.0,89.0,1275.164
1275174.0,54.0,70.0,18.0,90.0,1275.174
1275184.0,54.0,70.0,19.0,95.0,1275.184
1275194.0,56.0,66.0,19.0,92.0,1275.194
1275204.0,57.0,65.0,16.0,94.0,1275.204
1275214.0,57.0,63.0,15.0,101.0,1275.214
1275224.0,58.0,71.0,23.0,105.0,1275.224
1275234.0,61.0,75.0,21.0,102.0,1275.234
1275244.0,61.0,68.0,19.0,98.0,1275.244
1275254.0,61.0,63.0,17.0,93.0,1275.254
1275264.0,63.0,64.0,17.0,87.0,1275.264
1275274.0,61.0,65.0,21.0,88.0,1275.274
1275284.0,60.0,65.0,19.0,87.0,1275.284
1275294.0,63.0,72.0,18.0,89.0,1275.294
1275304.0,63.0,88.0,19.0,95.0,1275.304
1275314.0,64.0,90.0,31.0,96.0,1275.314
1275324.0,66.0,92.0,29.0,104.0,1275.324
1275334.0,68.0,86.0,27.0,107.0,1275.334
1275344.0,65.0,86.0,23.0,105.0,1275.344
1275354.0,74.0,128.0,28.0,119.0,1275.354
1275364.0,90.0,184.0,36.0,113.0,1275.364
1275374.0,104.0,218.0,41.0,147.0,1275.374
1275384.0,146.0,330.0,74.0,199.0,1275.384
1275394.0,208.0,371.0,106.0,252.0,1275.394
1275404.0,235.0,515.0,136.0,287.0,1275.404
1275414.0,266.0,669.0,161.0,290.0,1275.414
1275424.0,292.0,669.0,175.0,363.0,1275.424
1275435.0,302.0,669.0,171.0,413.0,1275.435
1275445.0,306.0,669.0,165.0,429.0,1275.445
1275455.0,295.0,628.0,167.0,469.0,1275.455
1275465.0,272.0,561.0,170.0,433.0,1275.465
1275475.0,253.0,536.0,159.0,447.0,1275.475
1275485.0,237.0,503.0,142.0,440.0,1275.485
1275495.0,213.0,454.0,127.0,412.0,1275.495
1275505.0,200.0,439.0,115.0,384.0,1275.505
1275515.0,183.0,426.0,108.0,350.0,1275.515
1275525.0,172.0,395.0,101.0,333.0,1275.525
1275535.0,163.0,381.0,99.0,337.0,1275.535
1275545.0,160.0,363.0,97.0,325.0,1275.545
1275555.0,154.0,342.0,88.0,325.0,1275.555
1275565.0,156.0,324.0,87.0,312.0,1275.565
1275575.0,155.0,311.0,90.0,315.0,1275.575
1275585.0,152.0,290.0,82.0,301.0,1275.585
1275595.0,149.0,274.0,74.0,292.0,1275.595
1275606.0,146.0,265.0,65.0,287.0,1275.606
1275616.0,141.0,257.0,79.0,267.0,1275.616
1275626.0,140.0,241.0,74.0,264.0,1275.626
1275636.0,136.0,257.0,73.0,258.0,1275.636
1275646.0,143.0,244.0,67.0,275.0,1275.646
1275656.0,137.0,231.0,73.0,269.0,1275.656
1275666.0,136.0,213.0,67.0,259.0,1275.666
1275676.0,128.0,206.0,61.0,270.0,1275.676
1275686.0,125.0,199.0,55.0,280.0,1275.686
1275696.0,123.0,189.0,59.0,285.0,1275.696
1275706.0,118.0,179.0,58.0,266.0,1275.706
1275716.0,117.0,181.0,54.0,254.0,1275.716
1275726.0,114.0,182.0,49.0,253.0,1275.726
1275736.0,111.0,167.0,47.0,244.0,1275.736
1275746.0,109.0,161.0,45.0,253.0,1275.746
1275756.0,109.0,155.0,41.0,272.0,1275.756
1275766.0,109.0,151.0,36.0,300.0,1275.766
1275776.0,108.0,154.0,35.0,287.0,1275.776
1275786.0,101.0,153.0,33.0,291.0,1275.786
1275796.0,98.0,153.0,41.0,298.0,1275.796
1275806.0,100.0,150.0,49.0,297.0,1275.806
1275816.0,100.0,141.0,47.0,285.0,1275.816
1275826.0,99.0,135.0,47.0,262.0,1275.826
1275836.0,97.0,135.0,43.0,284.0,1275.836
1275846.0,95.0,134.0,44.0,305.0,1275.846
1275856.0,94.0,136.0,44.0,291.0,1275.856
1275866.0,92.0,137.0,42.0,275.0,1275.866
1275876.0,90.0,142.0,39.0,272.0,1275.876
1275886.0,88.0,135.0,41.0,256.0,1275.886
1275896.0,87.0,138.0,50.0,245.0,1275.896
1275906.0,86.0,134.0,45.0,236.0,1275.906
1275916.0,86.0,131.0,39.0,273.0,1275.916
1275926.0,84.0,129.0,35.0,255.0,1275.926
1275936.0,80.0,128.0,31.0,260.0,1275.936
1275947.0,80.0,125.0,28.0,274.0,1275.947
1275957.0,79.0,124.0,25.0,263.0,1275.957
1275967.0,77.0,127.0,24.0,253.0,1275.967
1275977.0,75.0,134.0,23.0,249.0,1275.977
1275987.0,72.0,135.0,30.0,254.0,1275.987
1275997.0,72.0,145.0,34.0,276.0,1275.997
1276007.0,70.0,140.0,32.0,267.0,1276.007
1276017.0,70.0,141.0,50.0,265.0,1276.017
1276027.0,67.0,152.0,45.0,263.0,1276.027
1276037.0,67.0,154.0,41.0,268.0,1276.037
1276047.0,65.0,149.0,40.0,267.0,1276.047
1276057.0,64.0,141.0,36.0,272.0,1276.057
1276067.0,62.0,139.0,40.0,283.0,1276.067
1276077.0,63.0,137.0,38.0,297.0,1276.077
1276087.0,61.0,133.0,35.0,293.0,1276.087
1276097.0,62.0,131.0,32.0,284.0,1276.097
1276107.0,62.0,132.0,43.0,289.0,1276.107
1276118.0,64.0,125.0,50.0,271.0,1276.118
1276128.0,63.0,136.0,45.0,278.0,1276.128
1276138.0,64.0,131.0,41.0,277.0,1276.138
1276148.0,64.0,125.0,45.0,262.0,1276.148
1276158.0,64.0,122.0,41.0,253.0,1276.158
1276168.0,65.0,119.0,41.0,320.0,1276.168
1276178.0,66.0,119.0,41.0,337.0,1276.178
1276188.0,67.0,117.0,40.0,312.0,1276.188
1276198.0,66.0,118.0,53.0,318.0,1276.198
1276208.0,66.0,121.0,50.0,300.0,1276.208
1276218.0,63.0,121.0,45.0,296.0,1276.218
1276228.0,62.0,121.0,48.0,283.0,1276.228
1276238.0,62.0,137.0,47.0,277.0,1276.238
1276248.0,60.0,128.0,44.0,263.0,1276.248
1276258.0,60.0,130.0,47.0,250.0,1276.258
1276268.0,58.0,123.0,43.0,269.0,1276.268
1276278.0,57.0,117.0,43.0,261.0,1276.278
1276288.0,58.0,114.0,37.0,250.0,1276.288
1276298.0,61.0,119.0,55.0,253.0,1276.298
1276308.0,59.0,116.0,50.0,247.0,1276.308
1276318.0,57.0,115.0,49.0,243.0,1276.318
1276328.0,56.0,119.0,44.0,230.0,1276.328
1276338.0,54.0,116.0,43.0,257.0,1276.338
1276348.0,55.0,115.0,48.0,261.0,1276.348
1276358.0,54.0,113.0,46.0,252.0,1276.358
1276368.0,53.0,113.0,46.0,245.0,1276.368
1276378.0,52.0,114.0,47.0,249.0,1276.378
1276388.0,52.0,117.0,45.0,243.0,1276.388
1276398.0,51.0,119.0,57.0,235.0,1276.398
1276408.0,51.0,110.0,54.0,242.0,1276.408
1276418.0,51.0,107.0,48.0,247.0,1276.418
1276428.0,50.0,109.0,42.0,237.0,1276.428
1276438.0,49.0,107.0,38.0,245.0,1276.438
1276448.0,48.0,109.0,35.0,249.0,1276.448
1276459.0,47.0,111.0,34.0,232.0,1276.459
1276469.0,49.0,116.0,34.0,247.0,1276.469
1276479.0,50.0,110.0,30.0,238.0,1276.479
1276489.0,51.0,103.0,33.0,246.0,1276.489
1276499.0,51.0,99.0,35.0,247.0,1276.499
1276509.0,51.0,94.0,31.0,239.0,1276.509
1276519.0,50.0,94.0,31.0,251.0,1276.519
1276529.0,49.0,94.0,41.0,243.0,1276.529
1276539.0,51.0,91.0,38.0,251.0,1276.539
1276549.0,50.0,92.0,39.0,243.0,1276.549
1276559.0,50.0,90.0,40.0,247.0,1276.559
1276569.0,51.0,92.0,35.0,241.0,1276.569
1276579.0,49.0,93.0,31.0,230.0,1276.579
1276589.0,49.0,94.0,31.0,230.0,1276.589
1276599.0,52.0,90.0,31.0,229.0,1276.599
1276609.0,51.0,91.0,30.0,235.0,1276.609
1276619.0,52.0,88.0,30.0,241.0,1276.619
1276630.0,52.0,84.0,29.0,249.0,1276.63
1276640.0,53.0,85.0,27.0,255.0,1276.64
1276650.0,53.0,84.0,41.0,249.0,1276.65
1276660.0,54.0,83.0,37.0,250.0,1276.66
1276670.0,53.0,81.0,33.0,240.0,1276.67
1276680.0,55.0,77.0,30.0,240.0,1276.68
1276690.0,54.0,84.0,33.0,231.0,1276.69
1276700.0,53.0,81.0,31.0,227.0,1276.7
1276710.0,55.0,82.0,30.0,237.0,1276.71
1276720.0,53.0,76.0,26.0,216.0,1276.72
1276730.0,52.0,75.0,26.0,239.0,1276.73
1276740.0,52.0,76.0,32.0,229.0,1276.74
1276750.0,51.0,75.0,30.0,220.0,1276.75
1276760.0,51.0,77.0,32.0,235.0,1276.76
1276770.0,51.0,75.0,45.0,239.0,1276.77
1276780.0,52.0,74.0,40.0,222.0,1276.78
1276790.0,51.0,75.0,46.0,212.0,1276.79
1276800.0,53.0,74.0,44.0,229.0,1276.8
1276810.0,52.0,74.0,40.0,232.0,1276.81
1276820.0,53.0,73.0,39.0,267.0,1276.82
1276830.0,54.0,75.0,33.0,248.0,1276.83
1276840.0,53.0,76.0,30.0,243.0,1276.84
1276850.0,53.0,75.0,28.0,241.0,1276.85
1276860.0,52.0,71.0,25.0,246.0,1276.86
1276870.0,52.0,76.0,28.0,246.0,1276.87
1276880.0,50.0,73.0,25.0,242.0,1276.88
1276890.0,51.0,72.0,25.0,240.0,1276.89
1276900.0,49.0,71.0,21.0,219.0,1276.9
1276910.0,49.0,70.0,21.0,219.0,1276.91
1276920.0,48.0,75.0,19.0,213.0,1276.92
1276930.0,48.0,74.0,19.0,200.0,1276.93
1276940.0,48.0,71.0,19.0,228.0,1276.94
1276950.0,47.0,74.0,17.0,213.0,1276.95
1276960.0,49.0,71.0,18.0,215.0,1276.96
1276971.0,48.0,69.0,18.0,211.0,1276.971
1276981.0,48.0,73.0,18.0,212.0,1276.981
1276991.0,52.0,76.0,39.0,208.0,1276.991
1277001.0,51.0,77.0,40.0,206.0,1277.001
1277011.0,52.0,74.0,35.0,189.0,1277.011
1277021.0,49.0,72.0,38.0,195.0,1277.021
1277031.0,53.0,67.0,33.0,199.0,1277.031
1277041.0,51.0,66.0,28.0,194.0,1277.041
1277051.0,52.0,63.0,27.0,202.0,1277.051
1277061.0,51.0,66.0,26.0,199.0,1277.061
1277071.0,52.0,63.0,28.0,190.0,1277.071
1277081.0,56.0,63.0,27.0,193.0,1277.081
1277091.0,55.0,63.0,26.0,195.0,1277.091
1277101.0,55.0,62.0,24.0,204.0,1277.101
1277111.0,54.0,60.0,22.0,188.0,1277.111
1277121.0,54.0,58.0,19.0,192.0,1277.121
1277131.0,54.0,58.0,18.0,185.0,1277.131
1277142.0,54.0,55.0,17.0,197.0,1277.142
1277152.0,54.0,54.0,19.0,190.0,1277.152
1277162.0,53.0,60.0,19.0,192.0,1277.162
1277172.0,54.0,59.0,19.0,185.0,1277.172
1277182.0,54.0,58.0,18.0,197.0,1277.182
1277192.0,54.0,56.0,17.0,204.0,1277.192
1277202.0,54.0,55.0,18.0,197.0,1277.202
1277212.0,55.0,54.0,18.0,221.0,1277.212
1277222.0,56.0,53.0,17.0,211.0,1277.222
1277232.0,55.0,54.0,24.0,214.0,1277.232
1277242.0,57.0,53.0,29.0,195.0,1277.242
1277252.0,56.0,55.0,24.0,188.0,1277.252
1277262.0,55.0,56.0,22.0,178.0,1277.262
1277272.0,56.0,60.0,38.0,191.0,1277.272
1277282.0,56.0,58.0,38.0,192.0,1277.282
1277292.0,55.0,55.0,36.0,202.0,1277.292
1277302.0,53.0,53.0,32.0,188.0,1277.302
1277312.0,54.0,51.0,29.0,178.0,1277.312
1277322.0,53.0,51.0,25.0,189.0,1277.322
1277332.0,52.0,49.0,22.0,183.0,1277.332
1277342.0,51.0,52.0,21.0,180.0,1277.342
1277352.0,51.0,58.0,20.0,177.0,1277.352
1277362.0,50.0,58.0,18.0,165.0,1277.362
1277372.0,49.0,60.0,17.0,176.0,1277.372
1277382.0,52.0,57.0,20.0,174.0,1277.382
1277392.0,50.0,57.0,22.0,178.0,1277.392
1277402.0,51.0,55.0,24.0,175.0,1277.402
1277412.0,51.0,57.0,25.0,182.0,1277.412
1277422.0,51.0,54.0,21.0,167.0,1277.422
1277432.0,53.0,58.0,20.0,175.0,1277.432
1277442.0,51.0,64.0,17.0,174.0,1277.442
1277452.0,51.0,59.0,19.0,160.0,1277.452
1277462.0,54.0,58.0,26.0,230.0,1277.462
1277472.0,54.0,57.0,23.0,231.0,1277.472
1277483.0,56.0,57.0,22.0,215.0,1277.483
1277493.0,56.0,61.0,19.0,194.0,1277.493
1277503.0,56.0,58.0,18.0,191.0,1277.503
1277513.0,54.0,55.0,17.0,183.0,1277.513
1277523.0,57.0,57.0,23.0,192.0,1277.523
1277533.0,56.0,57.0,20.0,189.0,1277.533
1277543.0,56.0,55.0,19.0,181.0,1277.543
1277553.0,55.0,67.0,17.0,168.0,1277.553
1277563.0,55.0,66.0,23.0,171.0,1277.563
1277573.0,55.0,63.0,20.0,176.0,1277.573
1277583.0,57.0,64.0,20.0,210.0,1277.583
1277593.0,58.0,61.0,19.0,202.0,1277.593
1277603.0,54.0,61.0,20.0,194.0,1277.603
1277613.0,55.0,62.0,20.0,180.0,1277.613
1277623.0,55.0,63.0,23.0,189.0,1277.623
1277633.0,56.0,68.0,23.0,200.0,1277.633
1277643.0,53.0,62.0,24.0,186.0,1277.643
1277654.0,53.0,63.0,33.0,180.0,1277.654
1277664.0,53.0,59.0,32.0,171.0,1277.664
1277674.0,52.0,59.0,28.0,166.0,1277.674
1277684.0,53.0,57.0,27.0,153.0,1277.684
1277694.0,53.0,57.0,24.0,144.0,1277.694
1277704.0,53.0,56.0,23.0,141.0,1277.704
1277714.0,51.0,55.0,21.0,134.0,1277.714
1277724.0,49.0,54.0,20.0,128.0,1277.724
1277734.0,51.0,54.0,32.0,123.0,1277.734
1277744.0,60.0,55.0,34.0,122.0,1277.744
1277754.0,64.0,53.0,30.0,111.0,1277.754
1277764.0,61.0,51.0,27.0,103.0,1277.764
1277774.0,58.0,48.0,23.0,96.0,1277.774
1277784.0,56.0,46.0,26.0,92.0,1277.784
1277794.0,56.0,48.0,24.0,84.0,1277.794
1277804.0,56.0,47.0,23.0,82.0,1277.804
1277814.0,59.0,48.0,20.0,90.0,1277.814
1277824.0,61.0,49.0,29.0,91.0,1277.824
1277834.0,62.0,55.0,39.0,107.0,1277.834
1277844.0,70.0,63.0,41.0,128.0,1277.844
1277854.0,77.0,72.0,51.0,126.0,1277.854
1277864.0,84.0,87.0,65.0,121.0,1277.864
1277874.0,88.0,95.0,74.0,123.0,1277.874
1277884.0,92.0,108.0,66.0,120.0,1277.884
1277894.0,97.0,123.0,60.0,131.0,1277.894
1277904.0,95.0,137.0,53.0,134.0,1277.904
1277914.0,94.0,149.0,51.0,134.0,1277.914
1277924.0,93.0,159.0,69.0,129.0,1277.924
1277934.0,94.0,169.0,71.0,126.0,1277.934
1277944.0,90.0,174.0,65.0,128.0,1277.944
1277954.0,89.0,181.0,57.0,125.0,1277.954
1277964.0,87.0,188.0,56.0,127.0,1277.964
1277974.0,86.0,190.0,51.0,139.0,1277.974
1277984.0,85.0,188.0,59.0,140.0,1277.984
1277995.0,84.0,189.0,61.0,162.0,1277.995
1278005.0,81.0,186.0,58.0,157.0,1278.005
1278015.0,82.0,182.0,50.0,154.0,1278.015
1278025.0,79.0,178.0,52.0,151.0,1278.025
1278035.0,78.0,176.0,51.0,141.0,1278.035
1278045.0,76.0,170.0,54.0,141.0,1278.045
1278055.0,75.0,167.0,53.0,147.0,1278.055
1278065.0,74.0,163.0,61.0,143.0,1278.065
1278075.0,70.0,160.0,53.0,146.0,1278.075
1278085.0,69.0,156.0,49.0,135.0,1278.085
1278095.0,68.0,156.0,42.0,126.0,1278.095
1278105.0,67.0,155.0,39.0,137.0,1278.105
1278115.0,66.0,154.0,37.0,146.0,1278.115
1278125.0,66.0,152.0,38.0,145.0,1278.125
1278135.0,66.0,148.0,39.0,138.0,1278.135
1278145.0,67.0,149.0,48.0,137.0,1278.145
1278155.0,67.0,143.0,42.0,125.0,1278.155
1278166.0,67.0,140.0,39.0,133.0,1278.166
1278176.0,65.0,133.0,37.0,128.0,1278.176
1278186.0,67.0,130.0,33.0,120.0,1278.186
1278196.0,68.0,127.0,29.0,112.0,1278.196
1278206.0,66.0,120.0,25.0,112.0,1278.206
1278216.0,65.0,116.0,30.0,126.0,1278.216
1278226.0,67.0,111.0,28.0,134.0,1278.226
1278236.0,67.0,111.0,31.0,135.0,1278.236
1278246.0,67.0,108.0,26.0,134.0,1278.246
1278256.0,66.0,105.0,24.0,129.0,1278.256
1278266.0,65.0,102.0,20.0,144.0,1278.266
1278276.0,64.0,98.0,19.0,134.0,1278.276
1278286.0,61.0,96.0,17.0,122.0,1278.286
1278296.0,62.0,93.0,17.0,127.0,1278.296
1278306.0,60.0,90.0,22.0,120.0,1278.306
1278316.0,58.0,87.0,26.0,127.0,1278.316
1278326.0,58.0,86.0,40.0,124.0,1278.326
1278336.0,56.0,86.0,35.0,114.0,1278.336
1278346.0,57.0,84.0,32.0,121.0,1278.346
1278356.0,56.0,85.0,28.0,120.0,1278.356
1278366.0,56.0,83.0,25.0,120.0,1278.366
1278376.0,56.0,83.0,22.0,123.0,1278.376
1278386.0,55.0,81.0,20.0,120.0,1278.386
1278396.0,56.0,81.0,20.0,138.0,1278.396
1278406.0,55.0,80.0,18.0,130.0,1278.406
1278416.0,56.0,78.0,29.0,122.0,1278.416
1278426.0,56.0,77.0,31.0,117.0,1278.426
1278436.0,57.0,76.0,28.0,114.0,1278.436
1278446.0,56.0,74.0,26.0,110.0,1278.446
1278456.0,56.0,74.0,30.0,105.0,1278.456
1278466.0,58.0,73.0,27.0,100.0,1278.466
1278476.0,58.0,72.0,24.0,93.0,1278.476
1278486.0,58.0,71.0,21.0,99.0,1278.486
1278496.0,58.0,71.0,19.0,99.0,1278.496
1278507.0,58.0,70.0,21.0,102.0,1278.507
1278517.0,58.0,67.0,18.0,99.0,1278.517
1278527.0,60.0,68.0,19.0,93.0,1278.527
1278537.0,60.0,65.0,21.0,91.0,1278.537
1278547.0,60.0,65.0,35.0,84.0,1278.547
1278557.0,60.0,63.0,32.0,83.0,1278.557
1278567.0,60.0,63.0,28.0,81.0,1278.567
1278577.0,61.0,62.0,25.0,80.0,1278.577
1278587.0,62.0,62.0,22.0,84.0,1278.587
1278597.0,62.0,62.0,22.0,86.0,1278.597
1278607.0,64.0,61.0,20.0,85.0,1278.607
1278617.0,62.0,63.0,19.0,84.0,1278.617
1278627.0,62.0,62.0,19.0,90.0,1278.627
1278637.0,64.0,64.0,17.0,100.0,1278.637
1278647.0,66.0,65.0,15.0,112.0,1278.647
1278657.0,65.0,65.0,14.0,111.0,1278.657
1278667.0,64.0,64.0,14.0,109.0,1278.667
1278678.0,67.0,65.0,18.0,112.0,1278.678
1278688.0,66.0,65.0,37.0,117.0,1278.688
1278698.0,67.0,64.0,36.0,114.0,1278.698
1278708.0,66.0,64.0,37.0,117.0,1278.708
1278718.0,66.0,64.0,41.0,106.0,1278.718
1278728.0,65.0,62.0,40.0,101.0,1278.728
1278738.0,64.0,61.0,36.0,102.0,1278.738
1278748.0,63.0,59.0,32.0,104.0,1278.748
1278758.0,62.0,59.0,27.0,104.0,1278.758
1278768.0,60.0,55.0,26.0,103.0,1278.768
1278778.0,58.0,55.0,24.0,99.0,1278.778
1278788.0,59.0,54.0,34.0,92.0,1278.788
1278798.0,59.0,55.0,34.0,92.0,1278.798
1278808.0,58.0,54.0,30.0,96.0,1278.808
1278818.0,60.0,52.0,32.0,91.0,1278.818
1278828.0,59.0,53.0,31.0,90.0,1278.828
1278838.0,62.0,52.0,28.0,86.0,1278.838
1278848.0,62.0,53.0,25.0,89.0,1278.848
1278858.0,63.0,51.0,23.0,89.0,1278.858
1278868.0,62.0,50.0,20.0,89.0,1278.868
1278878.0,63.0,51.0,18.0,95.0,1278.878
1278888.0,63.0,48.0,18.0,100.0,1278.888
1278898.0,61.0,50.0,26.0,96.0,1278.898
1278908.0,60.0,49.0,36.0,93.0,1278.908
1278918.0,62.0,50.0,33.0,91.0,1278.918
1278928.0,62.0,50.0,29.0,91.0,1278.928
1278938.0,61.0,48.0,26.0,89.0,1278.938
1278948.0,60.0,48.0,23.0,86.0,1278.948
1278958.0,59.0,46.0,21.0,81.0,1278.958
1278968.0,57.0,48.0,19.0,77.0,1278.968
1278978.0,57.0,46.0,19.0,74.0,1278.978
1278988.0,56.0,47.0,16.0,72.0,1278.988
1278998.0,56.0,46.0,16.0,78.0,1278.998
1279008.0,54.0,44.0,16.0,75.0,1279.008
1279019.0,52.0,44.0,14.0,73.0,1279.019
1279029.0,52.0,43.0,13.0,73.0,1279.029
1279039.0,52.0,43.0,11.0,73.0,1279.039
1279049.0,51.0,41.0,11.0,75.0,1279.049
1279059.0,51.0,43.0,10.0,88.0,1279.059
1279069.0,53.0,44.0,11.0,91.0,1279.069
1279079.0,52.0,45.0,10.0,92.0,1279.079
1279089.0,51.0,46.0,12.0,97.0,1279.089
1279099.0,55.0,48.0,30.0,106.0,1279.099
1279109.0,57.0,51.0,26.0,107.0,1279.109
1279119.0,58.0,50.0,23.0,98.0,1279.119
1279129.0,60.0,53.0,22.0,107.0,1279.129
1279139.0,61.0,52.0,21.0,107.0,1279.139
1279149.0,62.0,54.0,18.0,97.0,1279.149
1279159.0,61.0,55.0,17.0,96.0,1279.159
1279169.0,63.0,55.0,15.0,92.0,1279.169
1279179.0,62.0,56.0,14.0,90.0,1279.179
1279190.0,61.0,55.0,18.0,82.0,1279.19
1279200.0,63.0,59.0,26.0,135.0,1279.2
1279210.0,65.0,60.0,25.0,135.0,1279.21
1279220.0,65.0,60.0,22.0,124.0,1279.22
1279230.0,64.0,61.0,19.0,131.0,1279.23
1279240.0,63.0,60.0,17.0,132.0,1279.24
1279250.0,63.0,62.0,16.0,127.0,1279.25
1279260.0,63.0,60.0,17.0,125.0,1279.26
1279270.0,64.0,61.0,20.0,131.0,1279.27
1279280.0,65.0,61.0,18.0,127.0,1279.28
1279290.0,67.0,62.0,17.0,116.0,1279.29
1279300.0,66.0,61.0,14.0,111.0,1279.3
1279310.0,68.0,61.0,13.0,133.0,1279.31
1279320.0,67.0,62.0,11.0,127.0,1279.32
1279330.0,68.0,62.0,11.0,126.0,1279.33
1279340.0,69.0,62.0,12.0,116.0,1279.34
1279350.0,70.0,62.0,11.0,110.0,1279.35
1279360.0,71.0,62.0,9.0,103.0,1279.36
1279370.0,71.0,61.0,9.0,97.0,1279.37
1279380.0,70.0,57.0,8.0,98.0,1279.38
1279390.0,69.0,57.0,15.0,97.0,1279.39
1279400.0,69.0,55.0,18.0,96.0,1279.4
1279410.0,69.0,57.0,16.0,93.0,1279.41
1279420.0,68.0,57.0,15.0,97.0,1279.42
1279430.0,69.0,58.0,17.0,102.0,1279.43
1279440.0,68.0,58.0,16.0,115.0,1279.44
1279450.0,69.0,56.0,14.0,108.0,1279.45
1279460.0,68.0,57.0,15.0,106.0,1279.46
1279470.0,67.0,56.0,13.0,118.0,1279.47
1279480.0,69.0,56.0,12.0,111.0,1279.48
1279490.0,69.0,54.0,11.0,106.0,1279.49
1279500.0,67.0,51.0,14.0,105.0,1279.5
1279510.0,66.0,52.0,12.0,100.0,1279.51
1279520.0,66.0,52.0,14.0,108.0,1279.52
1279531.0,65.0,53.0,11.0,105.0,1279.531
1279541.0,63.0,52.0,11.0,98.0,1279.541
1279551.0,62.0,52.0,10.0,93.0,1279.551
1279561.0,60.0,52.0,9.0,94.0,1279.561
1279571.0,60.0,51.0,9.0,94.0,1279.571
1279581.0,60.0,54.0,8.0,92.0,1279.581
1279591.0,61.0,53.0,8.0,86.0,1279.591
1279601.0,61.0,56.0,9.0,83.0,1279.601
1279611.0,63.0,57.0,9.0,88.0,1279.611
1279621.0,63.0,58.0,13.0,98.0,1279.621
1279631.0,63.0,57.0,11.0,104.0,1279.631
1279641.0,64.0,57.0,13.0,99.0,1279.641
1279651.0,61.0,57.0,11.0,94.0,1279.651
1279661.0,60.0,57.0,9.0,87.0,1279.661
1279671.0,61.0,57.0,10.0,93.0,1279.671
1279681.0,62.0,56.0,10.0,91.0,1279.681
1279691.0,61.0,54.0,11.0,92.0,1279.691
1279702.0,63.0,55.0,9.0,96.0,1279.702
1279712.0,65.0,56.0,10.0,94.0,1279.712
1279722.0,65.0,55.0,9.0,92.0,1279.722
1279732.0,65.0,53.0,9.0,89.0,1279.732
1279742.0,65.0,54.0,8.0,113.0,1279.742
1279752.0,64.0,52.0,9.0,116.0,1279.752
1279762.0,65.0,51.0,8.0,106.0,1279.762
1279772.0,64.0,50.0,8.0,102.0,1279.772
1279782.0,64.0,50.0,8.0,99.0,1279.782
1279792.0,62.0,51.0,7.0,102.0,1279.792
1279802.0,61.0,50.0,9.0,103.0,1279.802
1279812.0,60.0,51.0,9.0,115.0,1279.812
1279822.0,58.0,50.0,8.0,103.0,1279.822
1279832.0,59.0,51.0,10.0,98.0,1279.832
1279842.0,58.0,51.0,9.0,94.0,1279.842
1279852.0,60.0,50.0,7.0,95.0,1279.852
1279862.0,60.0,50.0,7.0,91.0,1279.862
1279872.0,61.0,49.0,8.0,94.0,1279.872
1279882.0,59.0,49.0,7.0,95.0,1279.882
1279892.0,60.0,50.0,8.0,89.0,1279.892
1279902.0,61.0,50.0,8.0,85.0,1279.902
1279912.0,61.0,49.0,10.0,81.0,1279.912
1279922.0,64.0,51.0,12.0,79.0,1279.922
1279932.0,63.0,51.0,11.0,80.0,1279.932
1279942.0,64.0,52.0,11.0,83.0,1279.942
1279952.0,65.0,54.0,12.0,93.0,1279.952
1279962.0,67.0,55.0,11.0,96.0,1279.962
1279972.0,67.0,55.0,11.0,96.0,1279.972
1279982.0,67.0,54.0,10.0,92.0,1279.982
1279992.0,67.0,52.0,14.0,89.0,1279.992
1280002.0,67.0,52.0,12.0,99.0,1280.002
1280012.0,67.0,51.0,12.0,113.0,1280.012
1280022.0,67.0,51.0,11.0,111.0,1280.022
1280032.0,67.0,50.0,11.0,110.0,1280.032
1280043.0,67.0,50.0,11.0,110.0,1280.043
1280053.0,68.0,51.0,12.0,106.0,1280.053
1280063.0,69.0,51.0,11.0,107.0,1280.063
1280073.0,68.0,50.0,10.0,106.0,1280.073
1280083.0,68.0,51.0,12.0,107.0,1280.083
1280093.0,66.0,51.0,11.0,108.0,1280.093
1280103.0,67.0,51.0,10.0,104.0,1280.103
1280113.0,67.0,50.0,9.0,103.0,1280.113
1280123.0,67.0,51.0,9.0,104.0,1280.123
1280133.0,67.0,48.0,10.0,103.0,1280.133
1280143.0,68.0,48.0,10.0,106.0,1280.143
1280153.0,67.0,48.0,10.0,108.0,1280.153
1280163.0,67.0,49.0,9.0,113.0,1280.163
1280173.0,66.0,47.0,8.0,108.0,1280.173
1280183.0,65.0,47.0,8.0,102.0,1280.183
1280193.0,64.0,47.0,8.0,94.0,1280.193
1280203.0,63.0,45.0,12.0,105.0,1280.203
1280214.0,61.0,44.0,10.0,110.0,1280.214
1280224.0,60.0,43.0,16.0,114.0,1280.224
1280234.0,61.0,43.0,14.0,109.0,1280.234
1280244.0,61.0,43.0,13.0,103.0,1280.244
1280254.0,61.0,42.0,12.0,103.0,1280.254
1280264.0,61.0,42.0,13.0,102.0,1280.264
1280274.0,62.0,42.0,13.0,104.0,1280.274
1280284.0,62.0,43.0,10.0,101.0,1280.284
1280294.0,60.0,41.0,10.0,91.0,1280.294
1280304.0,60.0,43.0,9.0,91.0,1280.304
1280314.0,61.0,43.0,9.0,90.0,1280.314
1280324.0,61.0,42.0,8.0,96.0,1280.324
1280334.0,61.0,42.0,7.0,96.0,1280.334
1280344.0,65.0,43.0,9.0,92.0,1280.344
1280354.0,66.0,42.0,10.0,90.0,1280.354
1280364.0,67.0,44.0,9.0,90.0,1280.364
1280374.0,67.0,44.0,9.0,84.0,1280.374
1280384.0,67.0,43.0,9.0,89.0,1280.384
1280394.0,68.0,44.0,9.0,82.0,1280.394
1280404.0,65.0,42.0,7.0,85.0,1280.404
1280414.0,67.0,43.0,8.0,86.0,1280.414
1280424.0,64.0,44.0,7.0,82.0,1280.424
1280434.0,64.0,44.0,7.0,78.0,1280.434
1280444.0,64.0,45.0,7.0,76.0,1280.444
1280454.0,64.0,46.0,8.0,85.0,1280.454
1280464.0,64.0,46.0,8.0,80.0,1280.464
1280474.0,63.0,46.0,13.0,76.0,1280.474
1280484.0,63.0,45.0,14.0,75.0,1280.484
1280494.0,63.0,47.0,12.0,75.0,1280.494
1280504.0,61.0,44.0,13.0,75.0,1280.504
1280514.0,61.0,44.0,13.0,79.0,1280.514
1280524.0,62.0,44.0,17.0,81.0,1280.524
1280534.0,63.0,44.0,16.0,83.0,1280.534
1280544.0,62.0,43.0,13.0,81.0,1280.544
1280555.0,61.0,42.0,13.0,90.0,1280.555
1280565.0,60.0,42.0,13.0,91.0,1280.565
1280575.0,61.0,41.0,12.0,91.0,1280.575
1280585.0,61.0,41.0,12.0,89.0,1280.585
1280595.0,61.0,40.0,12.0,86.0,1280.595
1280605.0,60.0,38.0,14.0,81.0,1280.605
1280615.0,60.0,38.0,12.0,83.0,1280.615
1280625.0,60.0,38.0,13.0,79.0,1280.625
1280635.0,58.0,38.0,10.0,79.0,1280.635
1280645.0,60.0,37.0,10.0,76.0,1280.645
1280655.0,59.0,37.0,11.0,78.0,1280.655
1280665.0,59.0,39.0,13.0,76.0,1280.665
1280675.0,60.0,38.0,15.0,71.0,1280.675
1280685.0,60.0,37.0,13.0,86.0,1280.685
1280695.0,61.0,36.0,13.0,88.0,1280.695
1280705.0,58.0,36.0,11.0,83.0,1280.705
1280715.0,58.0,35.0,11.0,80.0,1280.715
1280726.0,56.0,36.0,14.0,84.0,1280.726
1280736.0,57.0,36.0,11.0,84.0,1280.736
1280746.0,56.0,36.0,11.0,84.0,1280.746
1280756.0,55.0,37.0,9.0,95.0,1280.756
1280766.0,57.0,38.0,9.0,97.0,1280.766
1280776.0,56.0,37.0,9.0,93.0,1280.776
1280786.0,56.0,37.0,11.0,92.0,1280.786
1280796.0,56.0,37.0,11.0,92.0,1280.796
1280806.0,58.0,39.0,10.0,88.0,1280.806
1280816.0,57.0,38.0,10.0,83.0,1280.816
1280826.0,57.0,38.0,9.0,89.0,1280.826
1280836.0,60.0,37.0,10.0,88.0,1280.836
1280846.0,58.0,37.0,8.0,88.0,1280.846
1280856.0,59.0,36.0,7.0,95.0,1280.856
1280866.0,60.0,36.0,7.0,91.0,1280.866
1280876.0,60.0,35.0,8.0,89.0,1280.876
1280886.0,60.0,36.0,8.0,90.0,1280.886
1280896.0,61.0,36.0,9.0,86.0,1280.896
1280906.0,62.0,37.0,17.0,83.0,1280.906
1280916.0,62.0,37.0,14.0,82.0,1280.916
1280926.0,63.0,39.0,13.0,81.0,1280.926
1280936.0,63.0,40.0,12.0,79.0,1280.936
1280946.0,63.0,41.0,11.0,80.0,1280.946
1280956.0,61.0,42.0,10.0,82.0,1280.956
1280966.0,61.0,42.0,9.0,78.0,1280.966
1280976.0,61.0,42.0,11.0,81.0,1280.976
1280986.0,58.0,41.0,9.0,77.0,1280.986
1280996.0,57.0,40.0,9.0,71.0,1280.996
1281006.0,56.0,40.0,10.0,72.0,1281.006
1281016.0,55.0,39.0,9.0,72.0,1281.016
1281026.0,54.0,37.0,9.0,92.0,1281.026
1281036.0,54.0,37.0,9.0,89.0,1281.036
1281046.0,53.0,37.0,12.0,82.0,1281.046
1281056.0,52.0,37.0,10.0,83.0,1281.056
1281067.0,52.0,37.0,10.0,83.0,1281.067
1281077.0,54.0,37.0,11.0,86.0,1281.077
1281087.0,54.0,38.0,10.0,84.0,1281.087
1281097.0,54.0,36.0,9.0,84.0,1281.097
1281107.0,51.0,38.0,11.0,82.0,1281.107
1281117.0,52.0,38.0,11.0,76.0,1281.117
1281127.0,50.0,38.0,14.0,76.0,1281.127
1281137.0,50.0,37.0,15.0,72.0,1281.137
1281147.0,50.0,37.0,14.0,71.0,1281.147
1281157.0,50.0,38.0,12.0,66.0,1281.157
1281167.0,49.0,36.0,12.0,74.0,1281.167
1281177.0,49.0,36.0,11.0,74.0,1281.177
1281187.0,52.0,35.0,11.0,70.0,1281.187
1281197.0,52.0,34.0,10.0,68.0,1281.197
1281207.0,53.0,35.0,8.0,64.0,1281.207
1281217.0,55.0,36.0,11.0,65.0,1281.217
1281227.0,58.0,35.0,10.0,72.0,1281.227
1281238.0,59.0,34.0,9.0,76.0,1281.238
1281248.0,60.0,36.0,9.0,76.0,1281.248
1281258.0,61.0,35.0,11.0,71.0,1281.258
1281268.0,60.0,37.0,10.0,77.0,1281.268
1281278.0,60.0,37.0,11.0,81.0,1281.278
1281288.0,61.0,37.0,11.0,81.0,1281.288
1281298.0,61.0,38.0,10.0,80.0,1281.298
1281308.0,61.0,37.0,12.0,81.0,1281.308
1281318.0,60.0,38.0,13.0,81.0,1281.318
1281328.0,61.0,39.0,14.0,85.0,1281.328
1281338.0,59.0,39.0,12.0,87.0,1281.338
1281348.0,60.0,40.0,10.0,83.0,1281.348
1281358.0,60.0,41.0,15.0,79.0,1281.358
1281368.0,58.0,42.0,15.0,79.0,1281.368
1281378.0,60.0,44.0,15.0,80.0,1281.378
1281388.0,60.0,43.0,13.0,73.0,1281.388
1281398.0,58.0,43.0,13.0,75.0,1281.398
1281408.0,59.0,42.0,11.0,76.0,1281.408
1281418.0,60.0,42.0,10.0,85.0,1281.418
1281428.0,60.0,41.0,9.0,93.0,1281.428
1281438.0,60.0,40.0,9.0,88.0,1281.438
1281448.0,59.0,40.0,16.0,90.0,1281.448
1281458.0,60.0,40.0,15.0,89.0,1281.458
1281468.0,61.0,41.0,14.0,86.0,1281.468
1281478.0,61.0,41.0,13.0,83.0,1281.478
1281488.0,61.0,41.0,13.0,97.0,1281.488
1281498.0,62.0,40.0,13.0,97.0,1281.498
1281508.0,62.0,40.0,13.0,94.0,1281.508
1281518.0,62.0,38.0,13.0,97.0,1281.518
1281528.0,61.0,38.0,12.0,97.0,1281.528
1281538.0,63.0,38.0,12.0,90.0,1281.538
1281548.0,63.0,37.0,13.0,90.0,1281.548
1281558.0,63.0,37.0,12.0,92.0,1281.558
1281568.0,66.0,37.0,11.0,85.0,1281.568
1281579.0,65.0,37.0,14.0,87.0,1281.579
1281589.0,65.0,36.0,14.0,86.0,1281.589
1281599.0,67.0,36.0,12.0,85.0,1281.599
1281609.0,68.0,36.0,12.0,80.0,1281.609
1281619.0,67.0,36.0,12.0,82.0,1281.619
1281629.0,68.0,36.0,10.0,80.0,1281.629
1281639.0,68.0,36.0,10.0,79.0,1281.639
1281649.0,67.0,38.0,13.0,79.0,1281.649
1281659.0,68.0,38.0,13.0,75.0,1281.659
1281669.0,70.0,37.0,12.0,79.0,1281.669
1281679.0,70.0,38.0,12.0,76.0,1281.679
1281689.0,71.0,38.0,10.0,73.0,1281.689
1281699.0,71.0,39.0,11.0,80.0,1281.699
1281709.0,71.0,39.0,10.0,88.0,1281.709
1281719.0,72.0,40.0,9.0,92.0,1281.719
1281729.0,73.0,39.0,8.0,88.0,1281.729
1281739.0,73.0,41.0,9.0,81.0,1281.739
1281750.0,72.0,40.0,9.0,77.0,1281.75
1281760.0,71.0,42.0,7.0,72.0,1281.76
1281770.0,71.0,42.0,7.0,70.0,1281.77
1281780.0,69.0,42.0,10.0,68.0,1281.78
1281790.0,68.0,43.0,11.0,64.0,1281.79
1281800.0,68.0,42.0,13.0,64.0,1281.8
1281810.0,67.0,42.0,13.0,74.0,1281.81
1281820.0,65.0,43.0,16.0,75.0,1281.82
1281830.0,65.0,43.0,14.0,80.0,1281.83
1281840.0,63.0,44.0,12.0,77.0,1281.84
1281850.0,63.0,41.0,11.0,72.0,1281.85
1281860.0,62.0,43.0,11.0,72.0,1281.86
1281870.0,62.0,42.0,12.0,72.0,1281.87
1281880.0,60.0,44.0,12.0,83.0,1281.88
1281890.0,60.0,43.0,13.0,85.0,1281.89
1281900.0,60.0,42.0,18.0,87.0,1281.9
1281910.0,58.0,42.0,19.0,81.0,1281.91
1281920.0,59.0,41.0,21.0,80.0,1281.92
1281930.0,59.0,41.0,18.0,80.0,1281.93
1281940.0,58.0,39.0,18.0,82.0,1281.94
1281950.0,59.0,39.0,16.0,84.0,1281.95
1281960.0,58.0,40.0,17.0,84.0,1281.96
1281970.0,60.0,39.0,14.0,81.0,1281.97
1281980.0,60.0,38.0,16.0,80.0,1281.98
1281990.0,60.0,37.0,15.0,82.0,1281.99
1282000.0,59.0,37.0,13.0,77.0,1282.0
1282010.0,61.0,36.0,13.0,82.0,1282.01
1282020.0,61.0,38.0,12.0,85.0,1282.02
1282030.0,61.0,38.0,13.0,84.0,1282.03
1282040.0,63.0,38.0,12.0,83.0,1282.04
1282050.0,62.0,38.0,12.0,79.0,1282.05
1282060.0,62.0,39.0,12.0,76.0,1282.06
1282070.0,63.0,40.0,11.0,78.0,1282.07
1282080.0,63.0,39.0,10.0,80.0,1282.08
1282091.0,63.0,41.0,9.0,81.0,1282.091
1282101.0,64.0,41.0,9.0,78.0,1282.101
1282111.0,65.0,40.0,8.0,76.0,1282.111
1282121.0,63.0,40.0,7.0,75.0,1282.121
1282131.0,64.0,40.0,10.0,76.0,1282.131
1282141.0,63.0,41.0,9.0,77.0,1282.141
1282151.0,63.0,39.0,10.0,76.0,1282.151
1282161.0,63.0,41.0,15.0,77.0,1282.161
1282171.0,63.0,41.0,15.0,93.0,1282.171
1282181.0,64.0,40.0,14.0,87.0,1282.181
1282191.0,64.0,41.0,12.0,84.0,1282.191
1282201.0,65.0,40.0,11.0,78.0,1282.201
1282211.0,65.0,43.0,12.0,74.0,1282.211
1282221.0,66.0,42.0,14.0,72.0,1282.221
1282231.0,67.0,42.0,13.0,81.0,1282.231
1282241.0,69.0,41.0,12.0,80.0,1282.241
1282251.0,71.0,41.0,12.0,74.0,1282.251
1282262.0,71.0,40.0,12.0,70.0,1282.262
1282272.0,74.0,39.0,12.0,69.0,1282.272
1282282.0,74.0,39.0,10.0,65.0,1282.282
1282292.0,73.0,38.0,10.0,74.0,1282.292
1282302.0,72.0,37.0,9.0,73.0,1282.302
1282312.0,71.0,36.0,8.0,76.0,1282.312
1282322.0,70.0,36.0,7.0,70.0,1282.322
1282332.0,68.0,36.0,6.0,72.0,1282.332
1282342.0,68.0,36.0,9.0,76.0,1282.342
1282352.0,67.0,36.0,12.0,75.0,1282.352
1282362.0,67.0,34.0,10.0,72.0,1282.362
1282372.0,66.0,35.0,9.0,73.0,1282.372
1282382.0,66.0,34.0,10.0,76.0,1282.382
1282392.0,67.0,35.0,8.0,78.0,1282.392
1282402.0,65.0,34.0,7.0,74.0,1282.402
1282412.0,66.0,33.0,7.0,77.0,1282.412
1282422.0,66.0,35.0,8.0,83.0,1282.422
1282432.0,66.0,33.0,7.0,79.0,1282.432
1282442.0,67.0,34.0,11.0,81.0,1282.442
1282452.0,69.0,35.0,10.0,91.0,1282.452
1282462.0,70.0,35.0,9.0,101.0,1282.462
1282472.0,68.0,35.0,9.0,93.0,1282.472
1282482.0,69.0,35.0,8.0,87.0,1282.482
1282492.0,69.0,36.0,8.0,82.0,1282.492
1282502.0,67.0,36.0,10.0,83.0,1282.502
1282512.0,67.0,36.0,11.0,83.0,1282.512
1282522.0,67.0,35.0,10.0,83.0,1282.522
1282532.0,67.0,35.0,13.0,80.0,1282.532
1282542.0,68.0,37.0,12.0,79.0,1282.542
1282552.0,68.0,36.0,12.0,83.0,1282.552
1282562.0,69.0,37.0,11.0,85.0,1282.562
1282572.0,69.0,38.0,10.0,82.0,1282.572
1282582.0,69.0,38.0,9.0,77.0,1282.582
1282592.0,69.0,39.0,10.0,73.0,1282.592
1282603.0,69.0,40.0,10.0,67.0,1282.603
1282613.0,70.0,39.0,10.0,64.0,1282.613
1282623.0,69.0,39.0,9.0,66.0,1282.623
1282633.0,69.0,40.0,8.0,62.0,1282.633
1282643.0,68.0,40.0,10.0,64.0,1282.643
1282653.0,67.0,40.0,8.0,62.0,1282.653
1282663.0,67.0,41.0,8.0,61.0,1282.663
1282673.0,69.0,41.0,9.0,67.0,1282.673
1282683.0,69.0,42.0,7.0,69.0,1282.683
1282693.0,69.0,42.0,8.0,69.0,1282.693
1282703.0,66.0,44.0,9.0,67.0,1282.703
1282713.0,65.0,43.0,8.0,72.0,1282.713
1282723.0,65.0,44.0,8.0,80.0,1282.723
1282733.0,65.0,44.0,9.0,76.0,1282.733
1282743.0,65.0,43.0,10.0,80.0,1282.743
1282753.0,62.0,43.0,8.0,79.0,1282.753
1282763.0,62.0,43.0,10.0,75.0,1282.763
1282774.0,60.0,43.0,9.0,76.0,1282.774
1282784.0,59.0,40.0,8.0,78.0,1282.784
1282794.0,59.0,39.0,7.0,78.0,1282.794
1282804.0,59.0,39.0,8.0,80.0,1282.804
1282814.0,59.0,39.0,11.0,82.0,1282.814
