time (ms),signal 0,signal 1,signal 2,signal3,time (sec)
1306063.0,81.0,52.0,6.0,48.0,1306.063
1306073.0,84.0,54.0,6.0,45.0,1306.073
1306083.0,84.0,52.0,6.0,46.0,1306.083
1306093.0,83.0,51.0,5.0,47.0,1306.093
1306103.0,84.0,52.0,6.0,47.0,1306.103
1306113.0,84.0,54.0,6.0,48.0,1306.113
1306123.0,82.0,53.0,5.0,48.0,1306.123
1306133.0,80.0,52.0,5.0,49.0,1306.133
1306143.0,81.0,51.0,7.0,50.0,1306.143
1306153.0,80.0,50.0,6.0,48.0,1306.153
1306163.0,79.0,52.0,6.0,49.0,1306.163
1306173.0,79.0,52.0,5.0,47.0,1306.173
1306183.0,80.0,52.0,6.0,46.0,1306.183
1306193.0,81.0,52.0,5.0,44.0,1306.193
1306203.0,81.0,52.0,6.0,48.0,1306.203
1306213.0,83.0,51.0,6.0,48.0,1306.213
1306223.0,84.0,51.0,4.0,47.0,1306.223
1306233.0,83.0,50.0,4.0,46.0,1306.233
1306243.0,84.0,49.0,7.0,46.0,1306.243
1306253.0,84.0,50.0,7.0,46.0,1306.253
1306263.0,85.0,50.0,7.0,50.0,1306.263
1306273.0,87.0,53.0,8.0,52.0,1306.273
1306283.0,86.0,53.0,7.0,56.0,1306.283
1306293.0,88.0,54.0,6.0,58.0,1306.293
1306303.0,86.0,53.0,6.0,59.0,1306.303
1306313.0,88.0,52.0,7.0,64.0,1306.313
1306323.0,89.0,53.0,6.0,62.0,1306.323
1306333.0,89.0,53.0,6.0,59.0,1306.333
1306343.0,88.0,52.0,7.0,66.0,1306.343
1306353.0,88.0,53.0,8.0,66.0,1306.353
1306363.0,90.0,56.0,6.0,68.0,1306.363
1306373.0,89.0,55.0,5.0,69.0,1306.373
1306383.0,90.0,56.0,7.0,65.0,1306.383
1306393.0,90.0,57.0,7.0,64.0,1306.393
1306403.0,88.0,56.0,6.0,61.0,1306.403
1306413.0,87.0,58.0,6.0,61.0,1306.413
1306423.0,89.0,58.0,6.0,61.0,1306.423
1306433.0,89.0,57.0,6.0,58.0,1306.433
1306443.0,87.0,58.0,6.0,54.0,1306.443
1306454.0,86.0,56.0,5.0,52.0,1306.454
1306464.0,86.0,59.0,6.0,51.0,1306.464
1306474.0,86.0,57.0,7.0,50.0,1306.474
1306484.0,85.0,57.0,6.0,47.0,1306.484
1306494.0,85.0,55.0,5.0,53.0,1306.494
1306504.0,85.0,54.0,7.0,55.0,1306.504
1306514.0,84.0,52.0,6.0,57.0,1306.514
1306524.0,85.0,52.0,6.0,57.0,1306.524
1306534.0,87.0,52.0,6.0,56.0,1306.534
1306544.0,87.0,51.0,6.0,55.0,1306.544
1306554.0,87.0,50.0,5.0,55.0,1306.554
1306564.0,85.0,48.0,5.0,54.0,1306.564
1306574.0,88.0,49.0,5.0,51.0,1306.574
1306584.0,85.0,47.0,10.0,51.0,1306.584
1306594.0,86.0,48.0,11.0,52.0,1306.594
1306604.0,86.0,49.0,10.0,51.0,1306.604
1306614.0,86.0,48.0,10.0,48.0,1306.614
1306624.0,86.0,48.0,8.0,45.0,1306.624
1306634.0,84.0,48.0,8.0,46.0,1306.634
1306644.0,84.0,47.0,9.0,47.0,1306.644
1306654.0,83.0,46.0,6.0,47.0,1306.654
1306664.0,84.0,47.0,7.0,45.0,1306.664
1306674.0,84.0,49.0,6.0,45.0,1306.674
1306684.0,85.0,48.0,6.0,43.0,1306.684
1306694.0,86.0,47.0,6.0,45.0,1306.694
1306704.0,85.0,47.0,5.0,47.0,1306.704
1306714.0,85.0,44.0,6.0,47.0,1306.714
1306724.0,84.0,46.0,6.0,48.0,1306.724
1306734.0,85.0,47.0,5.0,47.0,1306.734
1306744.0,85.0,49.0,5.0,49.0,1306.744
1306754.0,84.0,48.0,4.0,48.0,1306.754
1306764.0,85.0,49.0,5.0,48.0,1306.764
1306774.0,84.0,49.0,5.0,50.0,1306.774
1306784.0,84.0,49.0,5.0,56.0,1306.784
1306795.0,84.0,51.0,4.0,62.0,1306.795
1306805.0,86.0,53.0,4.0,61.0,1306.805
1306815.0,86.0,53.0,3.0,60.0,1306.815
1306825.0,88.0,54.0,5.0,58.0,1306.825
1306835.0,87.0,54.0,5.0,58.0,1306.835
1306845.0,87.0,55.0,3.0,54.0,1306.845
1306855.0,88.0,53.0,5.0,54.0,1306.855
1306865.0,87.0,53.0,5.0,52.0,1306.865
1306875.0,88.0,55.0,5.0,53.0,1306.875
1306885.0,88.0,55.0,4.0,53.0,1306.885
1306895.0,89.0,55.0,5.0,52.0,1306.895
1306905.0,89.0,55.0,5.0,52.0,1306.905
1306915.0,88.0,56.0,5.0,54.0,1306.915
1306925.0,90.0,56.0,5.0,54.0,1306.925
1306935.0,90.0,56.0,4.0,52.0,1306.935
1306945.0,90.0,57.0,5.0,51.0,1306.945
1306955.0,90.0,57.0,5.0,51.0,1306.955
1306966.0,89.0,56.0,5.0,48.0,1306.966
1306976.0,88.0,58.0,6.0,49.0,1306.976
1306986.0,87.0,57.0,5.0,47.0,1306.986
1306996.0,87.0,58.0,6.0,49.0,1306.996
1307006.0,86.0,57.0,5.0,52.0,1307.006
1307016.0,86.0,57.0,6.0,50.0,1307.016
1307026.0,85.0,58.0,5.0,49.0,1307.026
1307036.0,85.0,57.0,5.0,48.0,1307.036
1307046.0,84.0,55.0,5.0,48.0,1307.046
1307056.0,84.0,55.0,5.0,47.0,1307.056
1307066.0,85.0,53.0,5.0,48.0,1307.066
1307076.0,84.0,52.0,4.0,48.0,1307.076
1307086.0,83.0,52.0,5.0,47.0,1307.086
1307096.0,82.0,51.0,4.0,48.0,1307.096
1307106.0,81.0,51.0,4.0,50.0,1307.106
1307116.0,80.0,50.0,5.0,48.0,1307.116
1307126.0,79.0,48.0,4.0,49.0,1307.126
1307136.0,78.0,46.0,5.0,50.0,1307.136
1307146.0,77.0,46.0,4.0,47.0,1307.146
1307156.0,76.0,44.0,4.0,45.0,1307.156
1307166.0,74.0,42.0,3.0,50.0,1307.166
1307176.0,74.0,41.0,3.0,51.0,1307.176
1307186.0,72.0,39.0,4.0,49.0,1307.186
1307196.0,71.0,39.0,4.0,48.0,1307.196
1307206.0,70.0,38.0,5.0,50.0,1307.206
1307216.0,70.0,37.0,4.0,53.0,1307.216
1307226.0,69.0,37.0,7.0,51.0,1307.226
1307236.0,68.0,37.0,5.0,50.0,1307.236
1307246.0,68.0,36.0,5.0,48.0,1307.246
1307256.0,68.0,34.0,5.0,46.0,1307.256
1307266.0,68.0,36.0,5.0,48.0,1307.266
1307276.0,70.0,33.0,5.0,47.0,1307.276
1307286.0,69.0,33.0,4.0,45.0,1307.286
1307296.0,69.0,34.0,4.0,45.0,1307.296
1307307.0,71.0,35.0,5.0,44.0,1307.307
1307317.0,71.0,35.0,5.0,41.0,1307.317
1307327.0,72.0,34.0,5.0,42.0,1307.327
1307337.0,72.0,34.0,5.0,43.0,1307.337
1307347.0,73.0,34.0,6.0,43.0,1307.347
1307357.0,71.0,35.0,4.0,45.0,1307.357
1307367.0,70.0,34.0,4.0,47.0,1307.367
1307377.0,70.0,34.0,4.0,45.0,1307.377
1307387.0,70.0,34.0,4.0,44.0,1307.387
1307397.0,70.0,33.0,4.0,45.0,1307.397
1307407.0,70.0,33.0,5.0,48.0,1307.407
1307417.0,72.0,33.0,6.0,49.0,1307.417
1307427.0,72.0,34.0,4.0,50.0,1307.427
1307437.0,72.0,34.0,6.0,50.0,1307.437
1307447.0,72.0,34.0,5.0,47.0,1307.447
1307457.0,73.0,36.0,7.0,49.0,1307.457
1307467.0,72.0,34.0,6.0,53.0,1307.467
1307478.0,72.0,38.0,5.0,50.0,1307.478
1307488.0,73.0,39.0,6.0,48.0,1307.488
1307498.0,72.0,40.0,4.0,48.0,1307.498
1307508.0,72.0,41.0,4.0,46.0,1307.508
1307518.0,72.0,41.0,5.0,47.0,1307.518
1307528.0,71.0,40.0,8.0,45.0,1307.528
1307538.0,74.0,40.0,8.0,49.0,1307.538
1307548.0,75.0,41.0,8.0,49.0,1307.548
1307558.0,77.0,42.0,8.0,50.0,1307.558
1307568.0,77.0,42.0,7.0,47.0,1307.568
1307578.0,77.0,41.0,6.0,49.0,1307.578
1307588.0,79.0,42.0,6.0,49.0,1307.588
1307598.0,79.0,42.0,6.0,48.0,1307.598
1307608.0,80.0,41.0,6.0,49.0,1307.608
1307618.0,79.0,40.0,5.0,47.0,1307.618
1307628.0,79.0,39.0,7.0,52.0,1307.628
1307638.0,79.0,41.0,5.0,55.0,1307.638
1307648.0,78.0,40.0,7.0,58.0,1307.648
1307658.0,78.0,39.0,5.0,58.0,1307.658
1307668.0,76.0,40.0,4.0,58.0,1307.668
1307678.0,75.0,38.0,5.0,55.0,1307.678
1307688.0,73.0,38.0,4.0,57.0,1307.688
1307698.0,71.0,38.0,4.0,54.0,1307.698
1307708.0,70.0,38.0,4.0,55.0,1307.708
1307718.0,70.0,37.0,5.0,55.0,1307.718
1307728.0,70.0,37.0,4.0,52.0,1307.728
1307738.0,68.0,37.0,3.0,49.0,1307.738
1307748.0,68.0,36.0,5.0,49.0,1307.748
1307758.0,67.0,35.0,4.0,49.0,1307.758
1307768.0,67.0,35.0,6.0,48.0,1307.768
1307778.0,65.0,36.0,5.0,47.0,1307.778
1307788.0,65.0,36.0,5.0,47.0,1307.788
1307798.0,63.0,37.0,5.0,45.0,1307.798
1307808.0,63.0,38.0,7.0,51.0,1307.808
1307819.0,63.0,42.0,7.0,48.0,1307.819
1307829.0,63.0,43.0,5.0,52.0,1307.829
1307839.0,64.0,49.0,11.0,51.0,1307.839
1307849.0,63.0,51.0,9.0,52.0,1307.849
1307859.0,64.0,59.0,14.0,55.0,1307.859
1307869.0,63.0,70.0,17.0,55.0,1307.869
1307879.0,65.0,74.0,17.0,52.0,1307.879
1307889.0,65.0,69.0,16.0,64.0,1307.889
1307899.0,67.0,71.0,19.0,73.0,1307.899
1307909.0,68.0,68.0,17.0,73.0,1307.909
1307919.0,69.0,69.0,17.0,68.0,1307.919
1307929.0,69.0,74.0,17.0,66.0,1307.929
1307939.0,68.0,73.0,18.0,64.0,1307.939
1307949.0,68.0,69.0,15.0,59.0,1307.949
1307959.0,67.0,68.0,14.0,68.0,1307.959
1307969.0,65.0,68.0,12.0,80.0,1307.969
1307979.0,65.0,66.0,12.0,79.0,1307.979
1307990.0,65.0,66.0,11.0,75.0,1307.99
1308000.0,66.0,61.0,11.0,69.0,1308.0
1308010.0,64.0,58.0,10.0,66.0,1308.01
1308020.0,60.0,60.0,7.0,59.0,1308.02
1308030.0,59.0,60.0,12.0,58.0,1308.03
1308040.0,64.0,58.0,10.0,57.0,1308.04
1308050.0,66.0,71.0,16.0,54.0,1308.05
1308060.0,70.0,71.0,16.0,53.0,1308.06
1308070.0,68.0,68.0,15.0,54.0,1308.07
1308080.0,67.0,70.0,14.0,50.0,1308.08
1308090.0,67.0,86.0,14.0,48.0,1308.09
1308100.0,80.0,124.0,27.0,48.0,1308.1
1308110.0,79.0,133.0,24.0,51.0,1308.11
1308120.0,92.0,159.0,37.0,63.0,1308.12
1308130.0,89.0,184.0,43.0,73.0,1308.13
1308140.0,88.0,183.0,43.0,70.0,1308.14
1308150.0,87.0,172.0,38.0,66.0,1308.15
1308160.0,91.0,192.0,34.0,63.0,1308.16
1308170.0,94.0,188.0,30.0,63.0,1308.17
1308180.0,94.0,183.0,27.0,63.0,1308.18
1308190.0,99.0,193.0,26.0,67.0,1308.19
1308200.0,107.0,223.0,34.0,72.0,1308.2
1308210.0,102.0,232.0,32.0,77.0,1308.21
1308220.0,98.0,244.0,35.0,81.0,1308.22
1308230.0,96.0,266.0,40.0,88.0,1308.23
1308240.0,101.0,283.0,38.0,84.0,1308.24
1308250.0,95.0,270.0,36.0,83.0,1308.25
1308260.0,95.0,252.0,33.0,77.0,1308.26
1308270.0,95.0,248.0,28.0,75.0,1308.27
1308280.0,94.0,247.0,26.0,71.0,1308.28
1308290.0,94.0,245.0,25.0,73.0,1308.29
1308300.0,93.0,241.0,22.0,73.0,1308.3
1308310.0,89.0,233.0,21.0,70.0,1308.31
1308320.0,90.0,232.0,19.0,68.0,1308.32
1308331.0,89.0,226.0,19.0,68.0,1308.331
1308341.0,87.0,218.0,19.0,80.0,1308.341
1308351.0,90.0,219.0,20.0,82.0,1308.351
1308361.0,86.0,205.0,20.0,87.0,1308.361
1308371.0,90.0,199.0,21.0,86.0,1308.371
1308381.0,89.0,198.0,19.0,84.0,1308.381
1308391.0,94.0,217.0,17.0,87.0,1308.391
1308401.0,92.0,242.0,24.0,93.0,1308.401
1308411.0,88.0,252.0,23.0,90.0,1308.411
1308421.0,94.0,231.0,21.0,83.0,1308.421
1308431.0,116.0,224.0,29.0,97.0,1308.431
1308441.0,160.0,222.0,32.0,107.0,1308.441
1308451.0,169.0,206.0,29.0,104.0,1308.451
1308461.0,164.0,210.0,32.0,107.0,1308.461
1308471.0,220.0,224.0,41.0,127.0,1308.471
1308481.0,202.0,211.0,37.0,115.0,1308.481
1308491.0,192.0,198.0,32.0,107.0,1308.491
1308502.0,187.0,192.0,32.0,108.0,1308.502
1308512.0,182.0,192.0,32.0,111.0,1308.512
1308522.0,189.0,186.0,28.0,110.0,1308.522
1308532.0,194.0,193.0,32.0,116.0,1308.532
1308542.0,185.0,205.0,31.0,110.0,1308.542
1308552.0,177.0,192.0,29.0,105.0,1308.552
1308562.0,160.0,179.0,25.0,105.0,1308.562
1308572.0,163.0,177.0,26.0,102.0,1308.572
1308582.0,159.0,166.0,30.0,108.0,1308.582
1308592.0,147.0,159.0,34.0,108.0,1308.592
1308602.0,141.0,153.0,29.0,103.0,1308.602
1308612.0,137.0,144.0,30.0,98.0,1308.612
1308622.0,131.0,141.0,26.0,94.0,1308.622
1308632.0,123.0,140.0,27.0,99.0,1308.632
1308642.0,118.0,141.0,39.0,127.0,1308.642
1308652.0,114.0,132.0,41.0,124.0,1308.652
1308662.0,111.0,128.0,48.0,130.0,1308.662
1308672.0,105.0,123.0,51.0,120.0,1308.672
1308682.0,109.0,123.0,57.0,126.0,1308.682
1308692.0,109.0,115.0,54.0,124.0,1308.692
1308702.0,104.0,113.0,50.0,114.0,1308.702
1308712.0,101.0,114.0,44.0,111.0,1308.712
1308722.0,97.0,114.0,40.0,109.0,1308.722
1308732.0,93.0,114.0,41.0,104.0,1308.732
1308742.0,90.0,110.0,37.0,99.0,1308.742
1308752.0,91.0,101.0,36.0,97.0,1308.752
1308762.0,105.0,109.0,33.0,97.0,1308.762
1308772.0,109.0,111.0,28.0,91.0,1308.772
1308782.0,106.0,107.0,26.0,89.0,1308.782
1308792.0,100.0,109.0,29.0,87.0,1308.792
1308802.0,105.0,110.0,28.0,90.0,1308.802
1308812.0,110.0,108.0,32.0,102.0,1308.812
1308822.0,112.0,113.0,37.0,109.0,1308.822
1308832.0,113.0,111.0,43.0,108.0,1308.832
1308843.0,126.0,110.0,39.0,110.0,1308.843
1308853.0,127.0,109.0,39.0,105.0,1308.853
1308863.0,125.0,105.0,35.0,103.0,1308.863
1308873.0,122.0,100.0,31.0,94.0,1308.873
1308883.0,120.0,101.0,29.0,90.0,1308.883
1308893.0,133.0,105.0,27.0,87.0,1308.893
1308903.0,131.0,104.0,37.0,97.0,1308.903
1308913.0,136.0,102.0,44.0,104.0,1308.913
1308923.0,131.0,97.0,41.0,104.0,1308.923
1308933.0,131.0,95.0,43.0,106.0,1308.933
1308943.0,126.0,90.0,39.0,100.0,1308.943
1308953.0,123.0,88.0,35.0,92.0,1308.953
1308963.0,119.0,84.0,32.0,90.0,1308.963
1308973.0,122.0,87.0,30.0,86.0,1308.973
1308983.0,122.0,87.0,26.0,80.0,1308.983
1308993.0,122.0,89.0,23.0,74.0,1308.993
1309003.0,120.0,85.0,21.0,72.0,1309.003
1309014.0,118.0,79.0,18.0,66.0,1309.014
1309024.0,113.0,76.0,16.0,61.0,1309.024
1309034.0,110.0,75.0,15.0,57.0,1309.034
1309044.0,108.0,77.0,14.0,55.0,1309.044
1309054.0,108.0,77.0,12.0,56.0,1309.054
1309064.0,108.0,75.0,11.0,52.0,1309.064
1309074.0,110.0,77.0,11.0,56.0,1309.074
1309084.0,109.0,75.0,11.0,54.0,1309.084
1309094.0,104.0,75.0,11.0,62.0,1309.094
1309104.0,103.0,73.0,10.0,65.0,1309.104
1309114.0,102.0,69.0,9.0,65.0,1309.114
1309124.0,100.0,68.0,8.0,64.0,1309.124
1309134.0,100.0,65.0,8.0,64.0,1309.134
1309144.0,97.0,65.0,8.0,64.0,1309.144
1309154.0,92.0,64.0,7.0,62.0,1309.154
1309164.0,91.0,69.0,7.0,60.0,1309.164
1309174.0,89.0,69.0,6.0,59.0,1309.174
1309184.0,87.0,68.0,6.0,54.0,1309.184
1309194.0,84.0,74.0,5.0,54.0,1309.194
1309204.0,85.0,72.0,6.0,53.0,1309.204
1309214.0,82.0,72.0,6.0,53.0,1309.214
1309224.0,83.0,70.0,6.0,52.0,1309.224
1309234.0,81.0,68.0,5.0,56.0,1309.234
1309244.0,78.0,68.0,5.0,54.0,1309.244
1309254.0,80.0,70.0,6.0,53.0,1309.254
1309264.0,80.0,76.0,5.0,50.0,1309.264
1309274.0,89.0,75.0,6.0,52.0,1309.274
1309284.0,84.0,73.0,5.0,49.0,1309.284
1309294.0,81.0,70.0,5.0,46.0,1309.294
1309304.0,77.0,68.0,5.0,47.0,1309.304
1309314.0,77.0,69.0,5.0,49.0,1309.314
1309324.0,75.0,67.0,6.0,48.0,1309.324
1309334.0,72.0,63.0,4.0,47.0,1309.334
1309344.0,69.0,61.0,5.0,44.0,1309.344
1309355.0,67.0,63.0,5.0,42.0,1309.355
1309365.0,65.0,58.0,4.0,40.0,1309.365
1309375.0,64.0,55.0,5.0,39.0,1309.375
1309385.0,65.0,54.0,9.0,38.0,1309.385
1309395.0,66.0,52.0,10.0,36.0,1309.395
1309405.0,63.0,52.0,8.0,36.0,1309.405
1309415.0,63.0,50.0,14.0,37.0,1309.415
1309425.0,62.0,50.0,15.0,37.0,1309.425
1309435.0,64.0,52.0,15.0,37.0,1309.435
1309445.0,63.0,54.0,16.0,36.0,1309.445
1309455.0,64.0,56.0,19.0,35.0,1309.455
1309465.0,63.0,61.0,20.0,34.0,1309.465
1309475.0,62.0,61.0,23.0,33.0,1309.475
1309485.0,67.0,64.0,23.0,32.0,1309.485
1309495.0,66.0,63.0,21.0,33.0,1309.495
1309505.0,65.0,61.0,22.0,31.0,1309.505
1309515.0,67.0,62.0,31.0,35.0,1309.515
1309526.0,68.0,65.0,29.0,37.0,1309.526
1309536.0,70.0,63.0,27.0,39.0,1309.536
1309546.0,71.0,66.0,24.0,38.0,1309.546
1309556.0,71.0,65.0,23.0,37.0,1309.556
1309566.0,70.0,62.0,22.0,39.0,1309.566
1309576.0,70.0,61.0,23.0,39.0,1309.576
1309586.0,70.0,60.0,24.0,39.0,1309.586
1309596.0,68.0,59.0,25.0,39.0,1309.596
1309606.0,68.0,57.0,30.0,39.0,1309.606
1309616.0,65.0,58.0,26.0,40.0,1309.616
1309626.0,66.0,62.0,24.0,42.0,1309.626
1309636.0,67.0,60.0,25.0,41.0,1309.636
1309646.0,65.0,60.0,24.0,40.0,1309.646
1309656.0,68.0,61.0,22.0,39.0,1309.656
1309666.0,69.0,59.0,21.0,39.0,1309.666
1309676.0,72.0,58.0,22.0,40.0,1309.676
1309686.0,68.0,56.0,21.0,39.0,1309.686
1309696.0,72.0,59.0,21.0,40.0,1309.696
1309706.0,71.0,58.0,19.0,40.0,1309.706
1309716.0,70.0,58.0,24.0,40.0,1309.716
1309726.0,68.0,56.0,22.0,44.0,1309.726
1309736.0,70.0,57.0,19.0,42.0,1309.736
1309746.0,69.0,55.0,18.0,42.0,1309.746
1309756.0,70.0,60.0,16.0,43.0,1309.756
1309766.0,72.0,59.0,19.0,41.0,1309.766
1309776.0,70.0,60.0,18.0,43.0,1309.776
1309786.0,71.0,59.0,19.0,46.0,1309.786
1309796.0,73.0,62.0,17.0,46.0,1309.796
1309806.0,71.0,62.0,15.0,44.0,1309.806
1309816.0,73.0,59.0,15.0,42.0,1309.816
1309826.0,71.0,59.0,12.0,40.0,1309.826
1309836.0,68.0,58.0,15.0,39.0,1309.836
1309846.0,69.0,59.0,13.0,39.0,1309.846
1309856.0,70.0,62.0,11.0,41.0,1309.856
1309867.0,71.0,60.0,11.0,42.0,1309.867
1309877.0,71.0,60.0,9.0,43.0,1309.877
1309887.0,70.0,58.0,11.0,43.0,1309.887
1309897.0,69.0,58.0,9.0,45.0,1309.897
1309907.0,70.0,58.0,9.0,44.0,1309.907
1309917.0,68.0,57.0,9.0,45.0,1309.917
1309927.0,69.0,60.0,8.0,48.0,1309.927
1309937.0,69.0,60.0,8.0,49.0,1309.937
1309947.0,67.0,59.0,7.0,49.0,1309.947
1309957.0,67.0,56.0,7.0,50.0,1309.957
1309967.0,68.0,57.0,6.0,51.0,1309.967
1309977.0,69.0,57.0,6.0,50.0,1309.977
1309987.0,70.0,56.0,5.0,51.0,1309.987
1309997.0,69.0,56.0,5.0,51.0,1309.997
1310007.0,68.0,52.0,6.0,50.0,1310.007
1310017.0,73.0,56.0,5.0,50.0,1310.017
1310027.0,78.0,59.0,6.0,50.0,1310.027
1310038.0,74.0,57.0,4.0,51.0,1310.038
1310048.0,71.0,56.0,5.0,49.0,1310.048
1310058.0,72.0,57.0,5.0,50.0,1310.058
1310068.0,75.0,60.0,5.0,48.0,1310.068
1310078.0,80.0,66.0,5.0,48.0,1310.078
1310088.0,79.0,66.0,4.0,49.0,1310.088
1310098.0,79.0,63.0,5.0,47.0,1310.098
1310108.0,78.0,64.0,4.0,47.0,1310.108
1310118.0,78.0,66.0,4.0,45.0,1310.118
1310128.0,77.0,67.0,4.0,45.0,1310.128
1310138.0,73.0,63.0,3.0,44.0,1310.138
1310148.0,75.0,63.0,4.0,44.0,1310.148
1310158.0,74.0,65.0,3.0,44.0,1310.158
1310168.0,73.0,64.0,5.0,43.0,1310.168
1310178.0,70.0,62.0,3.0,43.0,1310.178
1310188.0,69.0,61.0,3.0,41.0,1310.188
1310198.0,69.0,62.0,4.0,40.0,1310.198
1310208.0,70.0,63.0,3.0,40.0,1310.208
1310218.0,69.0,60.0,3.0,39.0,1310.218
1310228.0,68.0,61.0,3.0,41.0,1310.228
1310238.0,68.0,61.0,5.0,42.0,1310.238
1310248.0,68.0,59.0,3.0,43.0,1310.248
1310258.0,68.0,59.0,4.0,44.0,1310.258
1310268.0,66.0,56.0,3.0,45.0,1310.268
1310278.0,69.0,64.0,3.0,43.0,1310.278
1310288.0,72.0,68.0,3.0,44.0,1310.288
1310298.0,74.0,71.0,3.0,43.0,1310.298
1310308.0,73.0,70.0,4.0,43.0,1310.308
1310318.0,71.0,67.0,3.0,41.0,1310.318
1310328.0,72.0,68.0,3.0,39.0,1310.328
1310338.0,77.0,72.0,4.0,39.0,1310.338
1310348.0,75.0,69.0,3.0,42.0,1310.348
1310358.0,80.0,74.0,5.0,46.0,1310.358
1310368.0,79.0,73.0,5.0,46.0,1310.368
1310379.0,81.0,74.0,6.0,47.0,1310.379
1310389.0,80.0,75.0,4.0,47.0,1310.389
1310399.0,78.0,75.0,5.0,45.0,1310.399
1310409.0,79.0,76.0,5.0,45.0,1310.409
1310419.0,75.0,77.0,3.0,42.0,1310.419
1310429.0,74.0,75.0,4.0,41.0,1310.429
1310439.0,76.0,78.0,3.0,42.0,1310.439
1310449.0,74.0,78.0,5.0,41.0,1310.449
1310459.0,71.0,77.0,4.0,41.0,1310.459
1310469.0,72.0,79.0,4.0,40.0,1310.469
1310479.0,71.0,80.0,3.0,39.0,1310.479
1310489.0,71.0,78.0,4.0,38.0,1310.489
1310499.0,72.0,84.0,3.0,37.0,1310.499
1310509.0,70.0,83.0,3.0,37.0,1310.509
1310519.0,68.0,79.0,4.0,35.0,1310.519
1310529.0,70.0,84.0,4.0,37.0,1310.529
1310539.0,70.0,83.0,4.0,36.0,1310.539
1310550.0,72.0,85.0,3.0,39.0,1310.55
1310560.0,72.0,86.0,3.0,39.0,1310.56
1310570.0,72.0,82.0,4.0,38.0,1310.57
1310580.0,72.0,85.0,3.0,37.0,1310.58
1310590.0,74.0,86.0,7.0,42.0,1310.59
1310600.0,74.0,87.0,6.0,42.0,1310.6
1310610.0,72.0,85.0,6.0,43.0,1310.61
1310620.0,75.0,81.0,6.0,44.0,1310.62
1310630.0,74.0,80.0,5.0,44.0,1310.63
1310640.0,73.0,76.0,4.0,42.0,1310.64
1310650.0,74.0,73.0,4.0,43.0,1310.65
1310660.0,73.0,72.0,5.0,43.0,1310.66
1310670.0,73.0,69.0,4.0,44.0,1310.67
1310680.0,73.0,68.0,5.0,43.0,1310.68
1310690.0,73.0,68.0,4.0,44.0,1310.69
1310700.0,73.0,69.0,3.0,44.0,1310.7
1310710.0,73.0,67.0,4.0,42.0,1310.71
1310720.0,71.0,66.0,3.0,42.0,1310.72
1310730.0,72.0,65.0,4.0,38.0,1310.73
1310740.0,71.0,63.0,4.0,39.0,1310.74
1310750.0,68.0,63.0,4.0,38.0,1310.75
1310760.0,68.0,61.0,4.0,38.0,1310.76
1310770.0,66.0,60.0,4.0,38.0,1310.77
1310780.0,66.0,58.0,3.0,38.0,1310.78
1310790.0,65.0,61.0,3.0,40.0,1310.79
1310800.0,65.0,60.0,4.0,40.0,1310.8
1310810.0,65.0,61.0,5.0,41.0,1310.81
1310820.0,63.0,59.0,2.0,39.0,1310.82
1310830.0,62.0,57.0,3.0,38.0,1310.83
1310840.0,64.0,57.0,3.0,40.0,1310.84
1310850.0,63.0,60.0,4.0,39.0,1310.85
1310860.0,66.0,61.0,3.0,39.0,1310.86
1310870.0,65.0,58.0,4.0,37.0,1310.87
1310880.0,64.0,57.0,4.0,36.0,1310.88
1310891.0,66.0,58.0,2.0,39.0,1310.891
1310901.0,68.0,57.0,4.0,39.0,1310.901
1310911.0,66.0,55.0,3.0,40.0,1310.911
1310921.0,65.0,52.0,4.0,38.0,1310.921
1310931.0,66.0,52.0,3.0,38.0,1310.931
1310941.0,66.0,52.0,3.0,36.0,1310.941
1310951.0,68.0,52.0,3.0,35.0,1310.951
1310961.0,66.0,53.0,2.0,34.0,1310.961
1310971.0,66.0,54.0,4.0,33.0,1310.971
1310981.0,68.0,56.0,3.0,34.0,1310.981
1310991.0,68.0,54.0,3.0,34.0,1310.991
1311001.0,69.0,52.0,4.0,33.0,1311.001
1311011.0,67.0,50.0,4.0,33.0,1311.011
1311021.0,68.0,50.0,3.0,33.0,1311.021
1311031.0,70.0,52.0,3.0,34.0,1311.031
1311041.0,71.0,52.0,3.0,35.0,1311.041
1311051.0,71.0,57.0,3.0,37.0,1311.051
1311062.0,71.0,54.0,3.0,36.0,1311.062
1311072.0,71.0,52.0,3.0,36.0,1311.072
1311082.0,76.0,53.0,4.0,40.0,1311.082
1311092.0,77.0,53.0,3.0,41.0,1311.092
1311102.0,76.0,51.0,2.0,41.0,1311.102
1311112.0,79.0,50.0,4.0,41.0,1311.112
1311122.0,75.0,50.0,3.0,41.0,1311.122
1311132.0,75.0,50.0,4.0,40.0,1311.132
1311142.0,76.0,49.0,3.0,40.0,1311.142
1311152.0,75.0,49.0,3.0,38.0,1311.152
1311162.0,78.0,49.0,3.0,40.0,1311.162
1311172.0,76.0,49.0,3.0,39.0,1311.172
1311182.0,76.0,47.0,4.0,37.0,1311.182
1311192.0,76.0,47.0,4.0,38.0,1311.192
1311202.0,72.0,48.0,3.0,36.0,1311.202
1311212.0,73.0,48.0,3.0,39.0,1311.212
1311222.0,72.0,47.0,4.0,38.0,1311.222
1311232.0,71.0,46.0,4.0,37.0,1311.232
1311242.0,70.0,46.0,4.0,39.0,1311.242
1311252.0,71.0,47.0,5.0,41.0,1311.252
1311262.0,72.0,49.0,5.0,43.0,1311.262
1311272.0,70.0,50.0,5.0,42.0,1311.272
1311282.0,68.0,49.0,5.0,41.0,1311.282
1311292.0,68.0,50.0,5.0,38.0,1311.292
1311302.0,67.0,49.0,5.0,36.0,1311.302
1311312.0,64.0,47.0,4.0,38.0,1311.312
1311322.0,65.0,48.0,5.0,42.0,1311.322
1311332.0,64.0,47.0,5.0,41.0,1311.332
1311342.0,65.0,44.0,9.0,38.0,1311.342
1311352.0,70.0,45.0,9.0,40.0,1311.352
1311362.0,70.0,45.0,9.0,40.0,1311.362
1311372.0,71.0,45.0,13.0,41.0,1311.372
1311382.0,70.0,46.0,11.0,39.0,1311.382
1311392.0,71.0,45.0,10.0,37.0,1311.392
1311403.0,71.0,46.0,8.0,35.0,1311.403
1311413.0,72.0,47.0,9.0,33.0,1311.413
1311423.0,70.0,47.0,16.0,43.0,1311.423
1311433.0,68.0,49.0,32.0,55.0,1311.433
1311443.0,67.0,52.0,75.0,68.0,1311.443
1311453.0,79.0,56.0,117.0,78.0,1311.453
1311463.0,80.0,59.0,167.0,113.0,1311.463
1311473.0,78.0,63.0,200.0,118.0,1311.473
1311483.0,83.0,71.0,197.0,121.0,1311.483
1311493.0,100.0,75.0,185.0,152.0,1311.493
1311503.0,117.0,82.0,192.0,235.0,1311.503
1311513.0,134.0,97.0,177.0,244.0,1311.513
1311523.0,145.0,106.0,174.0,292.0,1311.523
1311533.0,148.0,107.0,156.0,276.0,1311.533
1311543.0,155.0,114.0,156.0,301.0,1311.543
1311553.0,155.0,115.0,162.0,295.0,1311.553
1311563.0,157.0,119.0,162.0,275.0,1311.563
1311574.0,162.0,132.0,163.0,280.0,1311.574
1311584.0,158.0,131.0,180.0,274.0,1311.584
1311594.0,160.0,134.0,169.0,263.0,1311.594
1311604.0,163.0,145.0,170.0,287.0,1311.604
1311614.0,167.0,150.0,169.0,278.0,1311.614
1311624.0,167.0,152.0,177.0,280.0,1311.624
1311634.0,163.0,154.0,164.0,276.0,1311.634
1311644.0,161.0,156.0,159.0,261.0,1311.644
1311654.0,156.0,150.0,164.0,298.0,1311.654
1311664.0,150.0,149.0,146.0,287.0,1311.664
1311674.0,147.0,147.0,134.0,275.0,1311.674
1311684.0,142.0,144.0,118.0,296.0,1311.684
1311694.0,139.0,141.0,123.0,307.0,1311.694
1311704.0,135.0,138.0,154.0,299.0,1311.704
1311714.0,136.0,139.0,137.0,296.0,1311.714
1311724.0,137.0,136.0,129.0,297.0,1311.724
1311734.0,132.0,135.0,123.0,296.0,1311.734
1311744.0,133.0,136.0,112.0,297.0,1311.744
1311754.0,130.0,135.0,104.0,279.0,1311.754
1311764.0,126.0,132.0,101.0,276.0,1311.764
1311774.0,122.0,130.0,91.0,301.0,1311.774
1311784.0,120.0,127.0,108.0,310.0,1311.784
1311794.0,120.0,127.0,97.0,336.0,1311.794
1311804.0,118.0,125.0,84.0,332.0,1311.804
1311814.0,118.0,124.0,84.0,325.0,1311.814
1311824.0,115.0,121.0,74.0,317.0,1311.824
1311834.0,113.0,118.0,67.0,306.0,1311.834
1311844.0,113.0,117.0,60.0,284.0,1311.844
1311854.0,111.0,115.0,53.0,279.0,1311.854
1311864.0,110.0,112.0,58.0,295.0,1311.864
1311874.0,110.0,113.0,59.0,278.0,1311.874
1311884.0,108.0,108.0,55.0,252.0,1311.884
1311894.0,107.0,107.0,56.0,243.0,1311.894
1311904.0,107.0,106.0,51.0,234.0,1311.904
1311915.0,106.0,101.0,46.0,216.0,1311.915
1311925.0,104.0,99.0,53.0,217.0,1311.925
1311935.0,103.0,97.0,52.0,205.0,1311.935
1311945.0,102.0,96.0,44.0,200.0,1311.945
1311955.0,101.0,94.0,46.0,193.0,1311.955
1311965.0,99.0,93.0,48.0,185.0,1311.965
1311975.0,97.0,90.0,45.0,195.0,1311.975
1311985.0,95.0,84.0,44.0,188.0,1311.985
1311995.0,95.0,83.0,52.0,180.0,1311.995
1312005.0,93.0,80.0,52.0,165.0,1312.005
1312015.0,93.0,78.0,44.0,165.0,1312.015
1312025.0,95.0,77.0,39.0,156.0,1312.025
1312035.0,93.0,73.0,35.0,153.0,1312.035
1312045.0,91.0,71.0,43.0,147.0,1312.045
1312055.0,92.0,68.0,46.0,147.0,1312.055
1312065.0,89.0,65.0,53.0,152.0,1312.065
1312075.0,94.0,66.0,52.0,171.0,1312.075
1312086.0,94.0,64.0,45.0,159.0,1312.086
1312096.0,94.0,61.0,39.0,159.0,1312.096
1312106.0,95.0,59.0,36.0,155.0,1312.106
1312116.0,94.0,57.0,35.0,157.0,1312.116
1312126.0,94.0,55.0,31.0,162.0,1312.126
1312136.0,93.0,54.0,31.0,170.0,1312.136
1312146.0,95.0,53.0,43.0,179.0,1312.146
1312156.0,95.0,51.0,42.0,175.0,1312.156
1312166.0,96.0,50.0,38.0,183.0,1312.166
1312176.0,96.0,49.0,39.0,183.0,1312.176
1312186.0,97.0,50.0,40.0,181.0,1312.186
1312196.0,98.0,48.0,40.0,194.0,1312.196
1312206.0,97.0,48.0,45.0,175.0,1312.206
1312216.0,99.0,47.0,46.0,174.0,1312.216
1312226.0,98.0,46.0,41.0,174.0,1312.226
1312236.0,99.0,46.0,36.0,176.0,1312.236
1312246.0,97.0,47.0,46.0,175.0,1312.246
1312256.0,96.0,47.0,42.0,179.0,1312.256
1312266.0,97.0,46.0,38.0,168.0,1312.266
1312276.0,96.0,45.0,39.0,156.0,1312.276
1312286.0,97.0,44.0,36.0,162.0,1312.286
1312296.0,92.0,43.0,32.0,163.0,1312.296
1312306.0,90.0,45.0,39.0,168.0,1312.306
1312316.0,88.0,43.0,36.0,161.0,1312.316
1312326.0,86.0,44.0,31.0,156.0,1312.326
1312336.0,85.0,40.0,28.0,154.0,1312.336
1312346.0,83.0,40.0,25.0,147.0,1312.346
1312356.0,81.0,41.0,28.0,137.0,1312.356
1312366.0,79.0,43.0,30.0,137.0,1312.366
1312376.0,77.0,44.0,27.0,134.0,1312.376
1312386.0,76.0,43.0,23.0,124.0,1312.386
1312396.0,73.0,44.0,27.0,148.0,1312.396
1312406.0,71.0,43.0,24.0,141.0,1312.406
1312416.0,70.0,44.0,22.0,144.0,1312.416
1312427.0,70.0,45.0,21.0,158.0,1312.427
1312437.0,70.0,45.0,21.0,164.0,1312.437
1312447.0,68.0,43.0,22.0,153.0,1312.447
1312457.0,67.0,41.0,25.0,157.0,1312.457
1312467.0,66.0,44.0,25.0,159.0,1312.467
1312477.0,64.0,42.0,26.0,160.0,1312.477
1312487.0,65.0,42.0,30.0,152.0,1312.487
1312497.0,63.0,41.0,29.0,152.0,1312.497
1312507.0,63.0,40.0,26.0,141.0,1312.507
1312517.0,61.0,39.0,22.0,140.0,1312.517
1312527.0,62.0,41.0,22.0,143.0,1312.527
1312537.0,59.0,40.0,19.0,143.0,1312.537
1312547.0,59.0,42.0,18.0,144.0,1312.547
1312557.0,58.0,42.0,17.0,136.0,1312.557
1312567.0,56.0,42.0,17.0,151.0,1312.567
1312577.0,57.0,43.0,25.0,158.0,1312.577
1312587.0,55.0,43.0,23.0,157.0,1312.587
1312598.0,54.0,43.0,30.0,148.0,1312.598
1312608.0,55.0,45.0,27.0,145.0,1312.608
1312618.0,53.0,42.0,23.0,136.0,1312.618
1312628.0,53.0,42.0,21.0,133.0,1312.628
1312638.0,53.0,42.0,19.0,128.0,1312.638
1312648.0,56.0,42.0,18.0,126.0,1312.648
1312658.0,54.0,42.0,16.0,121.0,1312.658
1312668.0,56.0,41.0,16.0,125.0,1312.668
1312678.0,55.0,44.0,31.0,130.0,1312.678
1312688.0,55.0,42.0,35.0,123.0,1312.688
1312698.0,57.0,42.0,31.0,128.0,1312.698
1312708.0,57.0,42.0,29.0,124.0,1312.708
1312718.0,58.0,41.0,27.0,159.0,1312.718
1312728.0,56.0,40.0,25.0,152.0,1312.728
1312738.0,56.0,40.0,23.0,144.0,1312.738
1312748.0,55.0,41.0,20.0,140.0,1312.748
1312758.0,56.0,42.0,31.0,128.0,1312.758
1312768.0,58.0,44.0,31.0,123.0,1312.768
1312778.0,57.0,43.0,29.0,119.0,1312.778
1312788.0,59.0,43.0,27.0,118.0,1312.788
1312798.0,56.0,43.0,26.0,123.0,1312.798
1312808.0,56.0,43.0,24.0,122.0,1312.808
1312818.0,56.0,43.0,22.0,122.0,1312.818
1312828.0,58.0,44.0,21.0,124.0,1312.828
1312838.0,58.0,46.0,28.0,128.0,1312.838
1312848.0,58.0,48.0,24.0,140.0,1312.848
1312858.0,60.0,49.0,24.0,133.0,1312.858
1312868.0,60.0,50.0,26.0,132.0,1312.868
1312878.0,62.0,52.0,28.0,139.0,1312.878
1312888.0,61.0,52.0,26.0,137.0,1312.888
1312898.0,62.0,52.0,33.0,134.0,1312.898
1312908.0,65.0,54.0,41.0,137.0,1312.908
1312918.0,67.0,54.0,37.0,136.0,1312.918
1312928.0,70.0,54.0,33.0,131.0,1312.928
1312939.0,70.0,52.0,28.0,121.0,1312.939
1312949.0,70.0,50.0,25.0,112.0,1312.949
1312959.0,70.0,51.0,28.0,114.0,1312.959
1312969.0,69.0,48.0,31.0,108.0,1312.969
1312979.0,71.0,49.0,34.0,109.0,1312.979
1312989.0,73.0,52.0,37.0,108.0,1312.989
1312999.0,74.0,53.0,33.0,121.0,1312.999
1313009.0,72.0,54.0,28.0,121.0,1313.009
1313019.0,73.0,55.0,26.0,109.0,1313.019
1313029.0,72.0,54.0,22.0,116.0,1313.029
1313039.0,69.0,53.0,29.0,118.0,1313.039
1313049.0,68.0,54.0,27.0,110.0,1313.049
1313059.0,65.0,53.0,45.0,128.0,1313.059
1313069.0,66.0,53.0,46.0,136.0,1313.069
1313079.0,64.0,54.0,39.0,141.0,1313.079
1313089.0,63.0,53.0,36.0,128.0,1313.089
1313099.0,60.0,53.0,34.0,131.0,1313.099
1313110.0,61.0,54.0,30.0,128.0,1313.11
1313120.0,59.0,52.0,32.0,131.0,1313.12
1313130.0,60.0,54.0,28.0,121.0,1313.13
1313140.0,61.0,53.0,26.0,122.0,1313.14
1313150.0,58.0,53.0,22.0,116.0,1313.15
1313160.0,58.0,50.0,21.0,137.0,1313.16
1313170.0,57.0,51.0,22.0,147.0,1313.17
1313180.0,57.0,50.0,19.0,139.0,1313.18
1313190.0,57.0,48.0,29.0,133.0,1313.19
1313200.0,56.0,50.0,36.0,124.0,1313.2
1313210.0,57.0,49.0,33.0,131.0,1313.21
1313220.0,56.0,49.0,28.0,142.0,1313.22
1313230.0,56.0,48.0,32.0,148.0,1313.23
1313240.0,56.0,47.0,29.0,142.0,1313.24
1313250.0,56.0,48.0,25.0,140.0,1313.25
1313260.0,55.0,46.0,27.0,130.0,1313.26
1313270.0,53.0,45.0,23.0,125.0,1313.27
1313280.0,55.0,45.0,23.0,127.0,1313.28
1313290.0,52.0,44.0,23.0,140.0,1313.29
1313300.0,52.0,44.0,28.0,145.0,1313.3
1313310.0,52.0,44.0,26.0,159.0,1313.31
1313320.0,50.0,43.0,24.0,144.0,1313.32
1313330.0,50.0,42.0,23.0,130.0,1313.33
1313340.0,49.0,41.0,20.0,126.0,1313.34
1313350.0,48.0,40.0,19.0,119.0,1313.35
1313360.0,48.0,40.0,16.0,117.0,1313.36
1313370.0,48.0,40.0,28.0,119.0,1313.37
1313380.0,49.0,43.0,35.0,125.0,1313.38
1313390.0,48.0,43.0,33.0,121.0,1313.39
1313400.0,48.0,42.0,30.0,108.0,1313.4
1313410.0,47.0,42.0,27.0,108.0,1313.41
1313420.0,47.0,41.0,27.0,110.0,1313.42
1313430.0,47.0,40.0,23.0,117.0,1313.43
1313440.0,46.0,40.0,20.0,113.0,1313.44
1313451.0,46.0,39.0,19.0,111.0,1313.451
1313461.0,46.0,40.0,18.0,103.0,1313.461
1313471.0,47.0,40.0,33.0,128.0,1313.471
1313481.0,48.0,43.0,39.0,128.0,1313.481
1313491.0,49.0,43.0,41.0,125.0,1313.491
1313501.0,48.0,43.0,38.0,125.0,1313.501
1313511.0,48.0,44.0,35.0,122.0,1313.511
1313521.0,48.0,43.0,36.0,115.0,1313.521
1313531.0,49.0,43.0,34.0,109.0,1313.531
1313541.0,49.0,42.0,30.0,106.0,1313.541
1313551.0,47.0,41.0,26.0,106.0,1313.551
1313561.0,47.0,41.0,23.0,105.0,1313.561
1313571.0,47.0,40.0,22.0,125.0,1313.571
1313581.0,47.0,40.0,31.0,128.0,1313.581
1313591.0,48.0,41.0,43.0,148.0,1313.591
1313601.0,50.0,47.0,49.0,147.0,1313.601
1313611.0,50.0,48.0,43.0,143.0,1313.611
1313622.0,49.0,48.0,39.0,135.0,1313.622
1313632.0,49.0,47.0,40.0,123.0,1313.632
1313642.0,47.0,46.0,35.0,113.0,1313.642
1313652.0,46.0,43.0,30.0,129.0,1313.652
1313662.0,47.0,44.0,27.0,124.0,1313.662
1313672.0,46.0,43.0,24.0,129.0,1313.672
1313682.0,47.0,42.0,25.0,133.0,1313.682
1313692.0,46.0,42.0,36.0,134.0,1313.692
1313702.0,47.0,43.0,32.0,136.0,1313.702
1313712.0,48.0,44.0,36.0,138.0,1313.712
1313722.0,49.0,46.0,36.0,132.0,1313.722
1313732.0,49.0,45.0,32.0,123.0,1313.732
1313742.0,51.0,45.0,27.0,122.0,1313.742
1313752.0,49.0,44.0,25.0,115.0,1313.752
1313762.0,50.0,43.0,21.0,108.0,1313.762
1313772.0,51.0,43.0,23.0,117.0,1313.772
1313782.0,50.0,44.0,22.0,110.0,1313.782
1313792.0,48.0,43.0,21.0,101.0,1313.792
1313802.0,49.0,43.0,35.0,111.0,1313.802
1313812.0,48.0,44.0,31.0,120.0,1313.812
1313822.0,50.0,44.0,31.0,123.0,1313.822
1313832.0,49.0,45.0,38.0,130.0,1313.832
1313842.0,51.0,46.0,47.0,127.0,1313.842
1313852.0,51.0,46.0,40.0,121.0,1313.852
1313862.0,50.0,45.0,39.0,113.0,1313.862
1313872.0,51.0,46.0,37.0,113.0,1313.872
1313882.0,50.0,47.0,33.0,115.0,1313.882
1313892.0,50.0,46.0,31.0,119.0,1313.892
1313902.0,51.0,47.0,27.0,123.0,1313.902
1313912.0,51.0,47.0,31.0,114.0,1313.912
1313922.0,51.0,47.0,34.0,107.0,1313.922
1313932.0,49.0,46.0,30.0,105.0,1313.932
1313942.0,50.0,45.0,29.0,102.0,1313.942
1313952.0,51.0,46.0,26.0,116.0,1313.952
1313963.0,52.0,44.0,28.0,112.0,1313.963
1313973.0,53.0,46.0,27.0,126.0,1313.973
1313983.0,56.0,48.0,26.0,123.0,1313.983
1313993.0,56.0,50.0,24.0,117.0,1313.993
1314003.0,56.0,50.0,38.0,117.0,1314.003
1314013.0,57.0,51.0,46.0,113.0,1314.013
1314023.0,59.0,52.0,40.0,118.0,1314.023
1314033.0,60.0,50.0,37.0,128.0,1314.033
1314043.0,60.0,49.0,32.0,123.0,1314.043
1314053.0,60.0,48.0,32.0,124.0,1314.053
1314063.0,59.0,47.0,34.0,117.0,1314.063
1314073.0,59.0,46.0,31.0,115.0,1314.073
1314083.0,59.0,45.0,29.0,132.0,1314.083
1314093.0,59.0,47.0,29.0,142.0,1314.093
1314103.0,60.0,48.0,29.0,143.0,1314.103
1314113.0,60.0,49.0,29.0,135.0,1314.113
1314123.0,60.0,48.0,29.0,123.0,1314.123
1314134.0,57.0,48.0,28.0,113.0,1314.134
1314144.0,55.0,48.0,25.0,121.0,1314.144
1314154.0,54.0,48.0,23.0,125.0,1314.154
1314164.0,52.0,49.0,24.0,131.0,1314.164
1314174.0,53.0,50.0,28.0,133.0,1314.174
1314184.0,52.0,50.0,26.0,129.0,1314.184
1314194.0,51.0,49.0,24.0,147.0,1314.194
1314204.0,52.0,50.0,21.0,153.0,1314.204
1314214.0,52.0,49.0,19.0,141.0,1314.214
1314224.0,51.0,48.0,20.0,133.0,1314.224
1314234.0,49.0,47.0,19.0,130.0,1314.234
1314244.0,49.0,44.0,18.0,124.0,1314.244
1314254.0,49.0,47.0,25.0,118.0,1314.254
1314264.0,48.0,45.0,24.0,121.0,1314.264
1314274.0,49.0,44.0,22.0,121.0,1314.274
1314284.0,47.0,44.0,20.0,123.0,1314.284
1314294.0,47.0,42.0,20.0,123.0,1314.294
1314304.0,49.0,44.0,19.0,126.0,1314.304
1314314.0,49.0,42.0,19.0,140.0,1314.314
1314324.0,48.0,44.0,25.0,130.0,1314.324
1314334.0,50.0,43.0,27.0,131.0,1314.334
1314344.0,48.0,42.0,26.0,124.0,1314.344
1314354.0,48.0,42.0,23.0,122.0,1314.354
1314364.0,47.0,41.0,21.0,135.0,1314.364
1314374.0,46.0,41.0,19.0,124.0,1314.374
1314384.0,45.0,39.0,19.0,126.0,1314.384
1314394.0,44.0,39.0,17.0,137.0,1314.394
1314404.0,45.0,40.0,23.0,151.0,1314.404
1314414.0,46.0,42.0,29.0,139.0,1314.414
1314424.0,44.0,41.0,32.0,143.0,1314.424
1314434.0,46.0,39.0,31.0,143.0,1314.434
1314444.0,45.0,41.0,27.0,133.0,1314.444
1314454.0,46.0,41.0,24.0,126.0,1314.454
1314464.0,45.0,41.0,21.0,120.0,1314.464
1314475.0,45.0,41.0,19.0,120.0,1314.475
1314485.0,46.0,44.0,17.0,127.0,1314.485
1314495.0,46.0,44.0,18.0,136.0,1314.495
1314505.0,46.0,47.0,21.0,131.0,1314.505
1314515.0,46.0,47.0,24.0,130.0,1314.515
1314525.0,45.0,46.0,22.0,128.0,1314.525
1314535.0,45.0,46.0,22.0,132.0,1314.535
1314545.0,46.0,48.0,24.0,130.0,1314.545
1314555.0,47.0,47.0,20.0,126.0,1314.555
1314565.0,47.0,49.0,20.0,120.0,1314.565
1314575.0,47.0,49.0,17.0,120.0,1314.575
1314585.0,46.0,51.0,18.0,122.0,1314.585
1314595.0,48.0,52.0,30.0,122.0,1314.595
1314605.0,48.0,49.0,27.0,126.0,1314.605
1314615.0,46.0,48.0,24.0,143.0,1314.615
1314625.0,48.0,48.0,23.0,141.0,1314.625
1314635.0,47.0,47.0,26.0,134.0,1314.635
1314646.0,48.0,47.0,25.0,125.0,1314.646
1314656.0,47.0,48.0,23.0,117.0,1314.656
1314666.0,48.0,48.0,28.0,118.0,1314.666
1314676.0,47.0,49.0,32.0,114.0,1314.676
1314686.0,48.0,47.0,32.0,115.0,1314.686
1314696.0,47.0,47.0,27.0,115.0,1314.696
1314706.0,46.0,48.0,24.0,132.0,1314.706
1314716.0,46.0,49.0,22.0,127.0,1314.716
1314726.0,46.0,50.0,25.0,128.0,1314.726
1314736.0,47.0,48.0,23.0,124.0,1314.736
1314746.0,47.0,50.0,21.0,116.0,1314.746
1314756.0,49.0,48.0,21.0,112.0,1314.756
1314766.0,51.0,47.0,20.0,128.0,1314.766
1314776.0,50.0,48.0,18.0,128.0,1314.776
1314786.0,52.0,50.0,30.0,127.0,1314.786
1314796.0,51.0,50.0,29.0,124.0,1314.796
1314806.0,53.0,48.0,28.0,122.0,1314.806
1314816.0,53.0,47.0,26.0,127.0,1314.816
1314826.0,53.0,46.0,23.0,120.0,1314.826
1314836.0,53.0,44.0,20.0,119.0,1314.836
1314846.0,54.0,45.0,18.0,115.0,1314.846
1314856.0,53.0,45.0,19.0,122.0,1314.856
1314866.0,55.0,45.0,18.0,119.0,1314.866
1314876.0,55.0,42.0,20.0,110.0,1314.876
1314886.0,55.0,41.0,18.0,110.0,1314.886
1314896.0,56.0,40.0,18.0,113.0,1314.896
1314906.0,56.0,41.0,15.0,125.0,1314.906
1314916.0,55.0,40.0,14.0,119.0,1314.916
1314926.0,55.0,41.0,20.0,121.0,1314.926
1314936.0,55.0,39.0,19.0,116.0,1314.936
1314946.0,56.0,39.0,19.0,116.0,1314.946
1314956.0,55.0,40.0,25.0,110.0,1314.956
1314966.0,56.0,40.0,23.0,107.0,1314.966
1314976.0,56.0,39.0,21.0,99.0,1314.976
1314987.0,54.0,39.0,18.0,95.0,1314.987
1314997.0,53.0,39.0,17.0,99.0,1314.997
1315007.0,53.0,39.0,16.0,106.0,1315.007
1315017.0,52.0,38.0,16.0,110.0,1315.017
1315027.0,52.0,37.0,13.0,102.0,1315.027
1315037.0,51.0,39.0,20.0,96.0,1315.037
1315047.0,52.0,41.0,19.0,105.0,1315.047
1315057.0,50.0,40.0,22.0,103.0,1315.057
1315067.0,51.0,39.0,19.0,107.0,1315.067
1315077.0,50.0,39.0,17.0,106.0,1315.077
1315087.0,51.0,38.0,15.0,106.0,1315.087
1315097.0,50.0,37.0,14.0,103.0,1315.097
1315107.0,49.0,37.0,13.0,98.0,1315.107
1315117.0,50.0,35.0,12.0,91.0,1315.117
1315127.0,48.0,36.0,10.0,90.0,1315.127
1315137.0,48.0,36.0,10.0,88.0,1315.137
1315147.0,48.0,36.0,9.0,95.0,1315.147
1315158.0,48.0,36.0,8.0,88.0,1315.158
1315168.0,47.0,37.0,9.0,85.0,1315.168
1315178.0,47.0,36.0,9.0,91.0,1315.178
1315188.0,50.0,35.0,8.0,87.0,1315.188
1315198.0,50.0,36.0,7.0,81.0,1315.198
1315208.0,51.0,35.0,11.0,78.0,1315.208
1315218.0,52.0,36.0,12.0,80.0,1315.218
1315228.0,52.0,38.0,22.0,77.0,1315.228
1315238.0,53.0,37.0,25.0,74.0,1315.238
1315248.0,54.0,38.0,31.0,74.0,1315.248
1315258.0,56.0,37.0,35.0,90.0,1315.258
1315268.0,56.0,39.0,53.0,95.0,1315.268
1315278.0,61.0,39.0,48.0,92.0,1315.278
1315288.0,63.0,42.0,43.0,95.0,1315.288
1315298.0,63.0,39.0,38.0,87.0,1315.298
1315308.0,65.0,39.0,32.0,91.0,1315.308
1315318.0,64.0,38.0,28.0,90.0,1315.318
1315328.0,65.0,38.0,26.0,89.0,1315.328
1315338.0,64.0,37.0,22.0,83.0,1315.338
1315348.0,62.0,37.0,20.0,86.0,1315.348
1315358.0,62.0,38.0,21.0,85.0,1315.358
1315368.0,61.0,38.0,19.0,111.0,1315.368
1315378.0,62.0,39.0,16.0,122.0,1315.378
1315388.0,61.0,42.0,27.0,117.0,1315.388
1315398.0,61.0,45.0,26.0,113.0,1315.398
1315408.0,62.0,47.0,22.0,111.0,1315.408
1315418.0,61.0,47.0,26.0,105.0,1315.418
1315428.0,62.0,50.0,23.0,110.0,1315.428
1315438.0,62.0,50.0,20.0,107.0,1315.438
1315448.0,63.0,52.0,18.0,99.0,1315.448
1315458.0,64.0,53.0,19.0,91.0,1315.458
1315468.0,65.0,55.0,26.0,84.0,1315.468
1315478.0,64.0,57.0,37.0,94.0,1315.478
1315488.0,65.0,60.0,35.0,96.0,1315.488
1315499.0,64.0,62.0,30.0,94.0,1315.499
1315509.0,66.0,64.0,26.0,90.0,1315.509
1315519.0,67.0,65.0,23.0,86.0,1315.519
1315529.0,68.0,67.0,21.0,91.0,1315.529
1315539.0,69.0,66.0,20.0,94.0,1315.539
1315549.0,68.0,67.0,18.0,90.0,1315.549
1315559.0,71.0,69.0,18.0,91.0,1315.559
1315569.0,75.0,74.0,25.0,91.0,1315.569
1315579.0,76.0,75.0,21.0,86.0,1315.579
1315589.0,78.0,78.0,21.0,81.0,1315.589
1315599.0,79.0,81.0,20.0,82.0,1315.599
1315609.0,83.0,85.0,19.0,80.0,1315.609
1315619.0,84.0,87.0,20.0,78.0,1315.619
1315629.0,87.0,88.0,18.0,77.0,1315.629
1315639.0,89.0,90.0,16.0,79.0,1315.639
1315649.0,90.0,91.0,23.0,80.0,1315.649
1315659.0,95.0,94.0,20.0,80.0,1315.659
1315670.0,96.0,95.0,23.0,79.0,1315.67
1315680.0,101.0,98.0,22.0,79.0,1315.68
1315690.0,103.0,101.0,23.0,76.0,1315.69
1315700.0,106.0,104.0,21.0,77.0,1315.7
1315710.0,108.0,106.0,19.0,78.0,1315.71
1315720.0,107.0,105.0,17.0,81.0,1315.72
1315730.0,109.0,104.0,23.0,79.0,1315.73
1315740.0,109.0,108.0,34.0,78.0,1315.74
1315750.0,113.0,111.0,33.0,73.0,1315.75
1315760.0,112.0,112.0,35.0,74.0,1315.76
1315770.0,115.0,116.0,34.0,71.0,1315.77
1315780.0,116.0,120.0,32.0,66.0,1315.78
1315790.0,119.0,125.0,31.0,62.0,1315.79
1315800.0,120.0,126.0,36.0,66.0,1315.8
1315810.0,124.0,131.0,31.0,95.0,1315.81
1315820.0,126.0,133.0,28.0,94.0,1315.82
1315830.0,128.0,133.0,26.0,108.0,1315.83
1315840.0,133.0,136.0,23.0,124.0,1315.84
1315850.0,136.0,137.0,21.0,128.0,1315.85
1315860.0,136.0,136.0,19.0,117.0,1315.86
1315870.0,138.0,135.0,30.0,114.0,1315.87
1315880.0,139.0,136.0,25.0,110.0,1315.88
1315890.0,140.0,136.0,27.0,110.0,1315.89
1315900.0,140.0,136.0,26.0,113.0,1315.9
1315910.0,142.0,136.0,27.0,112.0,1315.91
1315920.0,143.0,136.0,25.0,108.0,1315.92
1315930.0,144.0,136.0,24.0,106.0,1315.93
1315940.0,145.0,136.0,20.0,107.0,1315.94
1315950.0,145.0,134.0,24.0,106.0,1315.95
1315960.0,148.0,136.0,22.0,106.0,1315.96
1315970.0,148.0,136.0,20.0,97.0,1315.97
1315980.0,148.0,136.0,18.0,103.0,1315.98
1315990.0,149.0,137.0,17.0,100.0,1315.99
1316000.0,151.0,141.0,15.0,99.0,1316.0
1316011.0,153.0,142.0,16.0,94.0,1316.011
1316021.0,153.0,144.0,14.0,97.0,1316.021
1316031.0,154.0,144.0,17.0,106.0,1316.031
1316041.0,156.0,147.0,14.0,104.0,1316.041
1316051.0,156.0,145.0,19.0,111.0,1316.051
1316061.0,158.0,145.0,17.0,105.0,1316.061
1316071.0,159.0,147.0,15.0,99.0,1316.071
1316081.0,159.0,145.0,14.0,102.0,1316.081
1316091.0,161.0,147.0,14.0,107.0,1316.091
