time (ms),signal 0,signal 1,signal 2,signal3,time (sec)
1399425.0,51.0,38.0,8.0,102.0,1399.425
1399435.0,51.0,39.0,8.0,98.0,1399.435
1399445.0,53.0,40.0,7.0,94.0,1399.445
1399455.0,53.0,40.0,7.0,96.0,1399.455
1399465.0,53.0,38.0,6.0,95.0,1399.465
1399475.0,53.0,40.0,7.0,95.0,1399.475
1399485.0,53.0,38.0,8.0,99.0,1399.485
1399495.0,52.0,39.0,6.0,98.0,1399.495
1399505.0,52.0,38.0,9.0,96.0,1399.505
1399515.0,52.0,38.0,8.0,103.0,1399.515
1399525.0,52.0,39.0,6.0,108.0,1399.525
1399535.0,52.0,38.0,7.0,100.0,1399.535
1399545.0,52.0,38.0,6.0,93.0,1399.545
1399555.0,52.0,38.0,6.0,86.0,1399.555
1399565.0,52.0,40.0,6.0,94.0,1399.565
1399575.0,51.0,40.0,6.0,85.0,1399.575
1399585.0,51.0,41.0,6.0,105.0,1399.585
1399595.0,51.0,41.0,7.0,111.0,1399.595
1399605.0,52.0,40.0,6.0,106.0,1399.605
1399615.0,52.0,41.0,5.0,108.0,1399.615
1399625.0,52.0,42.0,7.0,103.0,1399.625
1399635.0,53.0,41.0,6.0,110.0,1399.635
1399645.0,52.0,41.0,5.0,106.0,1399.645
1399655.0,52.0,41.0,6.0,109.0,1399.655
1399665.0,53.0,43.0,6.0,109.0,1399.665
1399675.0,55.0,40.0,5.0,100.0,1399.675
1399685.0,54.0,41.0,5.0,108.0,1399.685
1399695.0,57.0,41.0,6.0,116.0,1399.695
1399705.0,56.0,42.0,5.0,115.0,1399.705
1399715.0,56.0,41.0,6.0,124.0,1399.715
1399725.0,56.0,43.0,6.0,116.0,1399.725
1399735.0,56.0,44.0,6.0,115.0,1399.735
1399745.0,56.0,44.0,6.0,121.0,1399.745
1399755.0,56.0,45.0,5.0,119.0,1399.755
1399766.0,55.0,47.0,5.0,112.0,1399.766
1399776.0,56.0,47.0,6.0,116.0,1399.776
1399786.0,54.0,48.0,6.0,131.0,1399.786
1399796.0,56.0,46.0,8.0,125.0,1399.796
1399806.0,55.0,47.0,8.0,124.0,1399.806
1399816.0,55.0,46.0,7.0,124.0,1399.816
1399826.0,55.0,47.0,8.0,125.0,1399.826
1399836.0,53.0,46.0,8.0,117.0,1399.836
1399846.0,54.0,44.0,7.0,117.0,1399.846
1399856.0,52.0,44.0,7.0,112.0,1399.856
1399866.0,53.0,41.0,9.0,127.0,1399.866
1399876.0,51.0,42.0,10.0,138.0,1399.876
1399886.0,51.0,40.0,11.0,135.0,1399.886
1399896.0,51.0,39.0,11.0,136.0,1399.896
1399906.0,52.0,39.0,10.0,127.0,1399.906
1399916.0,53.0,38.0,10.0,121.0,1399.916
1399926.0,54.0,37.0,8.0,134.0,1399.926
1399936.0,53.0,37.0,9.0,127.0,1399.936
1399946.0,52.0,39.0,8.0,121.0,1399.946
1399956.0,51.0,37.0,8.0,110.0,1399.956
1399966.0,50.0,37.0,7.0,118.0,1399.966
1399976.0,49.0,36.0,12.0,120.0,1399.976
1399986.0,49.0,37.0,11.0,121.0,1399.986
1399996.0,48.0,37.0,12.0,119.0,1399.996
1400006.0,48.0,36.0,10.0,106.0,1400.006
1400016.0,46.0,36.0,9.0,101.0,1400.016
1400026.0,46.0,36.0,9.0,118.0,1400.026
1400036.0,45.0,36.0,8.0,114.0,1400.036
1400046.0,44.0,35.0,8.0,115.0,1400.046
1400056.0,45.0,34.0,7.0,110.0,1400.056
1400066.0,45.0,33.0,7.0,128.0,1400.066
1400076.0,46.0,34.0,7.0,125.0,1400.076
1400086.0,47.0,35.0,6.0,125.0,1400.086
1400096.0,48.0,34.0,7.0,124.0,1400.096
1400107.0,47.0,34.0,6.0,117.0,1400.107
1400117.0,47.0,35.0,8.0,121.0,1400.117
1400127.0,50.0,35.0,9.0,114.0,1400.127
1400137.0,50.0,36.0,8.0,108.0,1400.137
1400147.0,51.0,36.0,9.0,108.0,1400.147
1400157.0,51.0,36.0,9.0,105.0,1400.157
1400167.0,53.0,35.0,10.0,100.0,1400.167
1400177.0,55.0,35.0,9.0,101.0,1400.177
1400187.0,55.0,34.0,8.0,99.0,1400.187
1400197.0,57.0,35.0,7.0,98.0,1400.197
1400207.0,56.0,36.0,7.0,97.0,1400.207
1400217.0,55.0,37.0,7.0,101.0,1400.217
1400227.0,56.0,38.0,7.0,112.0,1400.227
1400237.0,55.0,39.0,7.0,109.0,1400.237
1400247.0,56.0,41.0,8.0,113.0,1400.247
1400257.0,55.0,44.0,8.0,106.0,1400.257
1400267.0,55.0,45.0,8.0,105.0,1400.267
1400278.0,52.0,45.0,6.0,106.0,1400.278
1400288.0,53.0,46.0,7.0,105.0,1400.288
1400298.0,53.0,47.0,9.0,109.0,1400.298
1400308.0,53.0,47.0,8.0,102.0,1400.308
1400318.0,53.0,46.0,7.0,99.0,1400.318
1400328.0,53.0,47.0,7.0,106.0,1400.328
1400338.0,54.0,47.0,7.0,108.0,1400.338
1400348.0,54.0,48.0,6.0,102.0,1400.348
1400358.0,55.0,49.0,7.0,99.0,1400.358
1400368.0,55.0,49.0,9.0,102.0,1400.368
1400378.0,56.0,50.0,8.0,101.0,1400.378
1400388.0,56.0,50.0,9.0,102.0,1400.388
1400398.0,57.0,52.0,9.0,100.0,1400.398
1400408.0,59.0,53.0,10.0,98.0,1400.408
1400418.0,58.0,55.0,9.0,105.0,1400.418
1400428.0,59.0,57.0,8.0,107.0,1400.428
1400438.0,58.0,56.0,9.0,105.0,1400.438
1400448.0,58.0,57.0,10.0,110.0,1400.448
1400458.0,59.0,56.0,9.0,108.0,1400.458
1400468.0,59.0,56.0,10.0,107.0,1400.468
1400478.0,60.0,56.0,10.0,103.0,1400.478
1400488.0,58.0,54.0,8.0,98.0,1400.488
1400498.0,60.0,54.0,9.0,103.0,1400.498
1400508.0,60.0,53.0,13.0,113.0,1400.508
1400518.0,61.0,53.0,15.0,130.0,1400.518
1400528.0,62.0,52.0,13.0,122.0,1400.528
1400538.0,61.0,52.0,12.0,116.0,1400.538
1400548.0,62.0,51.0,11.0,121.0,1400.548
1400558.0,62.0,52.0,9.0,121.0,1400.558
1400568.0,62.0,52.0,10.0,126.0,1400.568
1400578.0,64.0,52.0,9.0,119.0,1400.578
1400588.0,63.0,52.0,8.0,124.0,1400.588
1400598.0,66.0,54.0,8.0,122.0,1400.598
1400608.0,67.0,54.0,7.0,126.0,1400.608
1400619.0,68.0,54.0,9.0,117.0,1400.619
1400629.0,68.0,54.0,6.0,110.0,1400.629
1400639.0,68.0,53.0,7.0,108.0,1400.639
1400649.0,69.0,53.0,7.0,117.0,1400.649
1400659.0,72.0,54.0,7.0,116.0,1400.659
1400669.0,71.0,54.0,6.0,116.0,1400.669
1400679.0,72.0,57.0,5.0,122.0,1400.679
1400689.0,71.0,59.0,7.0,116.0,1400.689
1400699.0,72.0,61.0,4.0,111.0,1400.699
1400709.0,72.0,63.0,6.0,110.0,1400.709
1400719.0,73.0,65.0,6.0,103.0,1400.719
1400729.0,73.0,67.0,7.0,95.0,1400.729
1400739.0,75.0,68.0,8.0,98.0,1400.739
1400749.0,74.0,70.0,7.0,101.0,1400.749
1400759.0,75.0,69.0,8.0,99.0,1400.759
1400769.0,73.0,69.0,7.0,93.0,1400.769
1400779.0,72.0,69.0,6.0,93.0,1400.779
1400790.0,72.0,67.0,6.0,96.0,1400.79
1400800.0,71.0,68.0,6.0,91.0,1400.8
1400810.0,73.0,68.0,7.0,92.0,1400.81
1400820.0,73.0,66.0,7.0,100.0,1400.82
1400830.0,75.0,66.0,8.0,99.0,1400.83
1400840.0,73.0,66.0,9.0,103.0,1400.84
1400850.0,74.0,65.0,8.0,106.0,1400.85
1400860.0,73.0,64.0,8.0,113.0,1400.86
1400870.0,72.0,64.0,8.0,116.0,1400.87
1400880.0,72.0,62.0,7.0,121.0,1400.88
1400890.0,70.0,61.0,8.0,116.0,1400.89
1400900.0,71.0,62.0,8.0,110.0,1400.9
1400910.0,68.0,62.0,6.0,107.0,1400.91
1400920.0,68.0,63.0,6.0,111.0,1400.92
1400930.0,67.0,63.0,6.0,104.0,1400.93
1400940.0,67.0,65.0,5.0,102.0,1400.94
1400950.0,68.0,64.0,5.0,98.0,1400.95
1400960.0,67.0,67.0,5.0,104.0,1400.96
1400970.0,68.0,67.0,6.0,106.0,1400.97
1400980.0,67.0,67.0,6.0,99.0,1400.98
1400990.0,66.0,67.0,5.0,96.0,1400.99
1401000.0,68.0,69.0,5.0,97.0,1401.0
1401010.0,67.0,70.0,6.0,102.0,1401.01
1401020.0,67.0,71.0,6.0,100.0,1401.02
1401030.0,65.0,74.0,5.0,106.0,1401.03
1401040.0,65.0,76.0,8.0,111.0,1401.04
1401050.0,64.0,77.0,7.0,114.0,1401.05
1401060.0,63.0,78.0,6.0,106.0,1401.06
1401070.0,63.0,79.0,6.0,109.0,1401.07
1401080.0,65.0,84.0,6.0,115.0,1401.08
1401090.0,65.0,85.0,5.0,110.0,1401.09
1401100.0,65.0,87.0,5.0,107.0,1401.1
1401110.0,65.0,89.0,6.0,114.0,1401.11
1401120.0,66.0,91.0,6.0,115.0,1401.12
1401131.0,64.0,92.0,4.0,109.0,1401.131
1401141.0,63.0,93.0,5.0,103.0,1401.141
1401151.0,62.0,94.0,5.0,102.0,1401.151
1401161.0,63.0,94.0,5.0,98.0,1401.161
1401171.0,63.0,94.0,4.0,108.0,1401.171
1401181.0,63.0,94.0,5.0,107.0,1401.181
1401191.0,63.0,95.0,5.0,103.0,1401.191
1401201.0,61.0,95.0,6.0,97.0,1401.201
1401211.0,60.0,95.0,5.0,107.0,1401.211
1401221.0,61.0,96.0,4.0,106.0,1401.221
1401231.0,61.0,94.0,4.0,103.0,1401.231
1401241.0,62.0,95.0,8.0,106.0,1401.241
1401251.0,63.0,94.0,8.0,104.0,1401.251
1401261.0,63.0,93.0,8.0,103.0,1401.261
1401271.0,62.0,93.0,10.0,104.0,1401.271
1401281.0,61.0,88.0,10.0,98.0,1401.281
1401291.0,60.0,87.0,11.0,116.0,1401.291
1401302.0,60.0,93.0,10.0,110.0,1401.302
1401312.0,61.0,94.0,9.0,108.0,1401.312
1401322.0,61.0,95.0,9.0,109.0,1401.322
1401332.0,63.0,94.0,9.0,114.0,1401.332
1401342.0,60.0,92.0,7.0,111.0,1401.342
1401352.0,60.0,93.0,8.0,124.0,1401.352
1401362.0,59.0,94.0,7.0,118.0,1401.362
1401372.0,58.0,92.0,7.0,119.0,1401.372
1401382.0,57.0,91.0,10.0,146.0,1401.382
1401392.0,57.0,92.0,11.0,146.0,1401.392
1401402.0,57.0,91.0,10.0,143.0,1401.402
1401412.0,55.0,91.0,7.0,141.0,1401.412
1401422.0,55.0,91.0,8.0,139.0,1401.422
1401432.0,53.0,89.0,8.0,133.0,1401.432
1401442.0,55.0,87.0,8.0,123.0,1401.442
1401452.0,55.0,86.0,8.0,117.0,1401.452
1401462.0,55.0,85.0,9.0,114.0,1401.462
1401472.0,56.0,85.0,9.0,119.0,1401.472
1401482.0,55.0,84.0,8.0,116.0,1401.482
1401492.0,56.0,84.0,8.0,113.0,1401.492
1401502.0,56.0,83.0,7.0,111.0,1401.502
1401512.0,55.0,81.0,7.0,116.0,1401.512
1401522.0,55.0,79.0,7.0,130.0,1401.522
1401532.0,56.0,80.0,7.0,127.0,1401.532
1401542.0,59.0,79.0,7.0,120.0,1401.542
1401552.0,57.0,77.0,6.0,110.0,1401.552
1401562.0,55.0,81.0,5.0,109.0,1401.562
1401572.0,55.0,80.0,5.0,120.0,1401.572
1401582.0,56.0,81.0,6.0,125.0,1401.582
1401592.0,57.0,83.0,5.0,122.0,1401.592
1401602.0,56.0,79.0,5.0,116.0,1401.602
1401612.0,58.0,79.0,5.0,111.0,1401.612
1401622.0,56.0,78.0,4.0,112.0,1401.622
1401632.0,56.0,80.0,5.0,114.0,1401.632
1401643.0,58.0,82.0,4.0,111.0,1401.643
1401653.0,57.0,82.0,5.0,100.0,1401.653
1401663.0,58.0,80.0,4.0,96.0,1401.663
1401673.0,61.0,80.0,5.0,114.0,1401.673
1401683.0,62.0,81.0,5.0,117.0,1401.683
1401693.0,62.0,80.0,4.0,112.0,1401.693
1401703.0,63.0,77.0,5.0,106.0,1401.703
1401713.0,66.0,75.0,5.0,111.0,1401.713
1401723.0,71.0,74.0,5.0,102.0,1401.723
1401733.0,73.0,72.0,4.0,108.0,1401.733
1401743.0,77.0,78.0,4.0,104.0,1401.743
1401753.0,81.0,81.0,11.0,99.0,1401.753
1401763.0,86.0,97.0,19.0,104.0,1401.763
1401773.0,92.0,112.0,24.0,101.0,1401.773
1401783.0,94.0,109.0,30.0,93.0,1401.783
1401793.0,90.0,116.0,30.0,92.0,1401.793
1401803.0,88.0,114.0,39.0,94.0,1401.803
1401814.0,89.0,121.0,47.0,88.0,1401.814
1401824.0,89.0,124.0,51.0,93.0,1401.824
1401834.0,88.0,147.0,54.0,89.0,1401.834
1401844.0,86.0,137.0,48.0,81.0,1401.844
1401854.0,92.0,127.0,43.0,76.0,1401.854
1401864.0,94.0,117.0,38.0,70.0,1401.864
1401874.0,92.0,107.0,34.0,64.0,1401.874
1401884.0,99.0,100.0,29.0,61.0,1401.884
1401894.0,103.0,92.0,29.0,61.0,1401.894
1401904.0,100.0,88.0,28.0,59.0,1401.904
1401914.0,108.0,89.0,27.0,64.0,1401.914
1401924.0,110.0,85.0,30.0,79.0,1401.924
1401934.0,108.0,80.0,28.0,86.0,1401.934
1401944.0,103.0,76.0,29.0,90.0,1401.944
1401954.0,108.0,77.0,28.0,94.0,1401.954
1401964.0,111.0,77.0,32.0,90.0,1401.964
1401974.0,112.0,76.0,36.0,86.0,1401.974
1401984.0,110.0,82.0,37.0,81.0,1401.984
1401994.0,107.0,78.0,35.0,81.0,1401.994
1402004.0,99.0,84.0,39.0,75.0,1402.004
1402014.0,98.0,78.0,40.0,72.0,1402.014
1402024.0,97.0,78.0,42.0,71.0,1402.024
1402034.0,92.0,80.0,43.0,64.0,1402.034
1402044.0,90.0,82.0,48.0,62.0,1402.044
1402054.0,87.0,88.0,53.0,59.0,1402.054
1402064.0,94.0,89.0,54.0,58.0,1402.064
1402074.0,93.0,91.0,54.0,56.0,1402.074
1402084.0,89.0,95.0,54.0,52.0,1402.084
1402094.0,97.0,94.0,51.0,51.0,1402.094
1402104.0,95.0,94.0,51.0,48.0,1402.104
1402114.0,91.0,93.0,49.0,49.0,1402.114
1402124.0,86.0,94.0,46.0,46.0,1402.124
1402134.0,80.0,93.0,45.0,45.0,1402.134
1402144.0,76.0,94.0,49.0,43.0,1402.144
1402155.0,75.0,93.0,50.0,45.0,1402.155
1402165.0,73.0,93.0,45.0,47.0,1402.165
1402175.0,74.0,91.0,42.0,47.0,1402.175
1402185.0,76.0,92.0,42.0,47.0,1402.185
1402195.0,76.0,90.0,41.0,46.0,1402.195
1402205.0,76.0,91.0,42.0,45.0,1402.205
1402215.0,83.0,95.0,43.0,46.0,1402.215
1402225.0,79.0,91.0,41.0,46.0,1402.225
1402235.0,75.0,92.0,42.0,45.0,1402.235
1402245.0,71.0,90.0,39.0,44.0,1402.245
1402255.0,68.0,91.0,39.0,42.0,1402.255
1402265.0,67.0,92.0,40.0,39.0,1402.265
1402275.0,66.0,93.0,41.0,37.0,1402.275
1402285.0,65.0,94.0,41.0,38.0,1402.285
1402295.0,62.0,90.0,40.0,34.0,1402.295
1402305.0,62.0,90.0,41.0,33.0,1402.305
1402315.0,63.0,90.0,43.0,33.0,1402.315
1402326.0,66.0,87.0,43.0,33.0,1402.326
1402336.0,66.0,85.0,41.0,32.0,1402.336
1402346.0,67.0,83.0,41.0,31.0,1402.346
1402356.0,67.0,82.0,39.0,32.0,1402.356
1402366.0,66.0,78.0,40.0,31.0,1402.366
1402376.0,63.0,77.0,38.0,31.0,1402.376
1402386.0,64.0,73.0,37.0,29.0,1402.386
1402396.0,62.0,70.0,33.0,29.0,1402.396
1402406.0,60.0,69.0,31.0,28.0,1402.406
1402416.0,59.0,67.0,30.0,28.0,1402.416
1402426.0,58.0,66.0,27.0,29.0,1402.426
1402436.0,59.0,66.0,28.0,28.0,1402.436
1402446.0,61.0,63.0,25.0,29.0,1402.446
1402456.0,60.0,61.0,24.0,29.0,1402.456
1402466.0,59.0,59.0,22.0,29.0,1402.466
1402476.0,57.0,58.0,21.0,29.0,1402.476
1402486.0,58.0,57.0,22.0,29.0,1402.486
1402496.0,56.0,55.0,19.0,30.0,1402.496
1402506.0,55.0,54.0,18.0,28.0,1402.506
1402516.0,55.0,53.0,16.0,29.0,1402.516
1402526.0,55.0,52.0,15.0,29.0,1402.526
1402536.0,55.0,52.0,15.0,28.0,1402.536
1402546.0,55.0,55.0,15.0,27.0,1402.546
1402556.0,54.0,53.0,14.0,28.0,1402.556
1402566.0,56.0,57.0,14.0,28.0,1402.566
1402576.0,57.0,55.0,14.0,27.0,1402.576
1402586.0,58.0,57.0,15.0,26.0,1402.586
1402596.0,56.0,56.0,15.0,27.0,1402.596
1402606.0,58.0,56.0,15.0,27.0,1402.606
1402616.0,55.0,57.0,15.0,26.0,1402.616
1402626.0,54.0,56.0,15.0,27.0,1402.626
1402636.0,54.0,59.0,16.0,28.0,1402.636
1402646.0,53.0,58.0,15.0,26.0,1402.646
1402656.0,53.0,57.0,16.0,26.0,1402.656
1402667.0,53.0,57.0,15.0,27.0,1402.667
1402677.0,53.0,56.0,14.0,27.0,1402.677
1402687.0,54.0,55.0,13.0,27.0,1402.687
1402697.0,56.0,53.0,13.0,27.0,1402.697
1402707.0,54.0,53.0,11.0,28.0,1402.707
1402717.0,52.0,53.0,12.0,26.0,1402.717
1402727.0,52.0,54.0,11.0,28.0,1402.727
1402737.0,52.0,54.0,11.0,28.0,1402.737
1402747.0,50.0,54.0,9.0,27.0,1402.747
1402757.0,51.0,54.0,9.0,27.0,1402.757
1402767.0,54.0,53.0,9.0,27.0,1402.767
1402777.0,53.0,54.0,9.0,30.0,1402.777
1402787.0,53.0,52.0,9.0,28.0,1402.787
1402797.0,53.0,52.0,8.0,31.0,1402.797
1402807.0,53.0,52.0,8.0,29.0,1402.807
1402817.0,56.0,51.0,8.0,29.0,1402.817
1402827.0,55.0,53.0,6.0,29.0,1402.827
1402838.0,54.0,52.0,6.0,28.0,1402.838
1402848.0,54.0,51.0,6.0,28.0,1402.848
1402858.0,53.0,50.0,6.0,28.0,1402.858
1402868.0,53.0,50.0,5.0,27.0,1402.868
1402878.0,52.0,50.0,6.0,27.0,1402.878
1402888.0,51.0,51.0,5.0,26.0,1402.888
1402898.0,52.0,51.0,4.0,26.0,1402.898
1402908.0,51.0,49.0,5.0,26.0,1402.908
1402918.0,51.0,52.0,5.0,26.0,1402.918
1402928.0,52.0,51.0,5.0,26.0,1402.928
1402938.0,51.0,50.0,4.0,26.0,1402.938
1402948.0,50.0,51.0,5.0,26.0,1402.948
1402958.0,52.0,53.0,4.0,26.0,1402.958
1402968.0,51.0,53.0,4.0,26.0,1402.968
1402978.0,50.0,53.0,4.0,25.0,1402.978
1402988.0,50.0,55.0,3.0,27.0,1402.988
1402998.0,49.0,53.0,4.0,25.0,1402.998
1403008.0,49.0,53.0,3.0,26.0,1403.008
1403018.0,47.0,53.0,4.0,26.0,1403.018
1403028.0,48.0,53.0,4.0,26.0,1403.028
1403038.0,48.0,57.0,4.0,27.0,1403.038
1403048.0,48.0,53.0,4.0,27.0,1403.048
1403058.0,48.0,54.0,4.0,34.0,1403.058
1403068.0,48.0,54.0,3.0,38.0,1403.068
1403078.0,48.0,52.0,3.0,46.0,1403.078
1403088.0,47.0,53.0,4.0,47.0,1403.088
1403098.0,48.0,54.0,4.0,45.0,1403.098
1403108.0,47.0,54.0,2.0,43.0,1403.108
1403118.0,48.0,57.0,3.0,41.0,1403.118
1403128.0,50.0,58.0,4.0,40.0,1403.128
1403138.0,48.0,57.0,4.0,37.0,1403.138
1403148.0,48.0,58.0,3.0,35.0,1403.148
1403158.0,49.0,59.0,3.0,33.0,1403.158
1403168.0,48.0,59.0,3.0,31.0,1403.168
1403179.0,48.0,59.0,2.0,30.0,1403.179
1403189.0,48.0,58.0,3.0,31.0,1403.189
1403199.0,49.0,60.0,3.0,33.0,1403.199
1403209.0,49.0,58.0,3.0,33.0,1403.209
1403219.0,49.0,56.0,4.0,35.0,1403.219
1403229.0,50.0,56.0,3.0,35.0,1403.229
1403239.0,51.0,55.0,4.0,34.0,1403.239
1403249.0,49.0,54.0,2.0,33.0,1403.249
1403259.0,49.0,52.0,3.0,33.0,1403.259
1403269.0,49.0,52.0,2.0,32.0,1403.269
1403279.0,48.0,53.0,3.0,32.0,1403.279
1403289.0,49.0,52.0,3.0,31.0,1403.289
1403299.0,47.0,51.0,3.0,30.0,1403.299
1403309.0,47.0,50.0,3.0,32.0,1403.309
1403319.0,47.0,49.0,2.0,34.0,1403.319
1403329.0,48.0,49.0,3.0,34.0,1403.329
1403339.0,49.0,49.0,3.0,35.0,1403.339
1403350.0,49.0,49.0,3.0,32.0,1403.35
1403360.0,49.0,49.0,4.0,32.0,1403.36
1403370.0,47.0,50.0,3.0,42.0,1403.37
1403380.0,49.0,51.0,3.0,52.0,1403.38
1403390.0,50.0,51.0,2.0,53.0,1403.39
1403400.0,50.0,52.0,4.0,52.0,1403.4
1403410.0,51.0,51.0,3.0,51.0,1403.41
1403420.0,50.0,51.0,3.0,48.0,1403.42
1403430.0,50.0,52.0,3.0,49.0,1403.43
1403440.0,49.0,51.0,3.0,54.0,1403.44
1403450.0,50.0,50.0,4.0,51.0,1403.45
1403460.0,48.0,49.0,3.0,48.0,1403.46
1403470.0,48.0,48.0,3.0,45.0,1403.47
1403480.0,48.0,49.0,4.0,47.0,1403.48
1403490.0,47.0,49.0,3.0,48.0,1403.49
1403500.0,48.0,49.0,3.0,46.0,1403.5
1403510.0,49.0,50.0,2.0,44.0,1403.51
1403520.0,51.0,48.0,3.0,43.0,1403.52
1403530.0,52.0,48.0,4.0,46.0,1403.53
1403540.0,51.0,48.0,3.0,44.0,1403.54
1403550.0,52.0,48.0,3.0,45.0,1403.55
1403560.0,53.0,47.0,3.0,50.0,1403.56
1403570.0,53.0,47.0,3.0,56.0,1403.57
1403580.0,53.0,49.0,3.0,52.0,1403.58
1403590.0,53.0,50.0,4.0,48.0,1403.59
1403600.0,51.0,57.0,2.0,45.0,1403.6
1403610.0,52.0,56.0,4.0,43.0,1403.61
1403620.0,52.0,57.0,3.0,41.0,1403.62
1403630.0,53.0,59.0,3.0,38.0,1403.63
1403640.0,53.0,55.0,3.0,36.0,1403.64
1403650.0,51.0,58.0,3.0,39.0,1403.65
1403660.0,53.0,55.0,5.0,38.0,1403.66
1403670.0,53.0,53.0,4.0,36.0,1403.67
1403680.0,54.0,51.0,4.0,44.0,1403.68
1403691.0,55.0,51.0,3.0,46.0,1403.691
1403701.0,55.0,52.0,3.0,44.0,1403.701
1403711.0,57.0,50.0,4.0,44.0,1403.711
1403721.0,59.0,49.0,4.0,42.0,1403.721
1403731.0,59.0,50.0,8.0,41.0,1403.731
1403741.0,57.0,51.0,5.0,43.0,1403.741
1403751.0,56.0,56.0,7.0,48.0,1403.751
1403761.0,59.0,61.0,17.0,89.0,1403.761
1403771.0,71.0,80.0,67.0,115.0,1403.771
1403781.0,77.0,80.0,105.0,131.0,1403.781
1403791.0,78.0,81.0,140.0,169.0,1403.791
1403801.0,79.0,80.0,137.0,182.0,1403.801
1403811.0,86.0,83.0,152.0,199.0,1403.811
1403821.0,100.0,91.0,162.0,199.0,1403.821
1403831.0,106.0,88.0,146.0,198.0,1403.831
1403841.0,105.0,83.0,144.0,194.0,1403.841
1403851.0,101.0,82.0,149.0,226.0,1403.851
1403862.0,107.0,80.0,163.0,229.0,1403.862
1403872.0,114.0,79.0,146.0,245.0,1403.872
1403882.0,121.0,82.0,166.0,306.0,1403.882
1403892.0,116.0,77.0,166.0,291.0,1403.892
1403902.0,129.0,81.0,198.0,301.0,1403.902
1403912.0,135.0,89.0,222.0,310.0,1403.912
1403922.0,147.0,95.0,212.0,302.0,1403.922
1403932.0,153.0,105.0,209.0,302.0,1403.932
1403942.0,145.0,112.0,205.0,290.0,1403.942
1403952.0,152.0,117.0,208.0,308.0,1403.952
1403962.0,152.0,118.0,217.0,308.0,1403.962
1403972.0,156.0,126.0,211.0,334.0,1403.972
1403982.0,152.0,126.0,199.0,340.0,1403.982
1403992.0,146.0,124.0,200.0,356.0,1403.992
1404002.0,151.0,130.0,203.0,386.0,1404.002
1404012.0,151.0,131.0,186.0,362.0,1404.012
1404022.0,147.0,130.0,167.0,362.0,1404.022
1404032.0,145.0,134.0,172.0,344.0,1404.032
1404042.0,140.0,133.0,160.0,342.0,1404.042
1404052.0,135.0,136.0,142.0,327.0,1404.052
1404062.0,131.0,134.0,131.0,336.0,1404.062
1404072.0,128.0,134.0,131.0,337.0,1404.072
1404082.0,125.0,133.0,121.0,329.0,1404.082
1404092.0,124.0,134.0,112.0,308.0,1404.092
1404102.0,118.0,132.0,103.0,288.0,1404.102
1404112.0,111.0,129.0,103.0,285.0,1404.112
1404122.0,112.0,131.0,113.0,280.0,1404.122
1404132.0,111.0,131.0,99.0,299.0,1404.132
1404142.0,111.0,133.0,97.0,309.0,1404.142
1404152.0,109.0,131.0,99.0,292.0,1404.152
1404162.0,105.0,127.0,93.0,297.0,1404.162
1404172.0,106.0,127.0,89.0,272.0,1404.172
1404182.0,103.0,126.0,81.0,258.0,1404.182
1404192.0,100.0,128.0,80.0,255.0,1404.192
1404203.0,99.0,126.0,76.0,255.0,1404.203
1404213.0,94.0,122.0,85.0,263.0,1404.213
1404223.0,92.0,121.0,83.0,245.0,1404.223
1404233.0,93.0,121.0,97.0,239.0,1404.233
1404243.0,87.0,121.0,103.0,248.0,1404.243
1404253.0,91.0,120.0,96.0,233.0,1404.253
1404263.0,91.0,122.0,86.0,230.0,1404.263
1404273.0,90.0,123.0,82.0,228.0,1404.273
1404283.0,88.0,122.0,77.0,211.0,1404.283
1404293.0,85.0,120.0,82.0,223.0,1404.293
1404303.0,85.0,121.0,76.0,213.0,1404.303
1404313.0,80.0,120.0,72.0,197.0,1404.313
1404323.0,79.0,119.0,65.0,199.0,1404.323
1404333.0,77.0,118.0,61.0,190.0,1404.333
1404343.0,77.0,114.0,63.0,183.0,1404.343
1404353.0,82.0,116.0,66.0,172.0,1404.353
1404363.0,79.0,114.0,60.0,161.0,1404.363
1404374.0,77.0,111.0,57.0,153.0,1404.374
1404384.0,74.0,109.0,55.0,144.0,1404.384
1404394.0,73.0,107.0,49.0,142.0,1404.394
1404404.0,72.0,105.0,48.0,145.0,1404.404
1404414.0,75.0,100.0,48.0,147.0,1404.414
1404424.0,75.0,98.0,44.0,135.0,1404.424
1404434.0,73.0,96.0,41.0,130.0,1404.434
1404444.0,71.0,94.0,40.0,126.0,1404.444
1404454.0,76.0,89.0,36.0,132.0,1404.454
1404464.0,76.0,86.0,33.0,123.0,1404.464
1404474.0,74.0,84.0,33.0,129.0,1404.474
1404484.0,72.0,79.0,31.0,132.0,1404.484
1404494.0,70.0,76.0,30.0,131.0,1404.494
1404504.0,68.0,73.0,27.0,124.0,1404.504
1404514.0,68.0,70.0,25.0,121.0,1404.514
1404524.0,64.0,69.0,24.0,120.0,1404.524
1404534.0,63.0,69.0,26.0,137.0,1404.534
1404544.0,63.0,68.0,28.0,148.0,1404.544
1404554.0,62.0,66.0,25.0,145.0,1404.554
1404564.0,66.0,62.0,28.0,140.0,1404.564
1404574.0,68.0,64.0,29.0,137.0,1404.574
1404584.0,68.0,64.0,27.0,145.0,1404.584
1404594.0,66.0,62.0,28.0,151.0,1404.594
1404604.0,74.0,63.0,30.0,158.0,1404.604
1404614.0,71.0,62.0,27.0,150.0,1404.614
1404624.0,71.0,64.0,25.0,143.0,1404.624
1404634.0,69.0,60.0,23.0,148.0,1404.634
1404644.0,68.0,62.0,24.0,152.0,1404.644
1404654.0,67.0,62.0,23.0,144.0,1404.654
1404664.0,64.0,59.0,18.0,154.0,1404.664
1404674.0,63.0,58.0,18.0,151.0,1404.674
1404684.0,65.0,57.0,17.0,151.0,1404.684
1404694.0,70.0,58.0,16.0,156.0,1404.694
1404704.0,70.0,56.0,16.0,166.0,1404.704
1404715.0,67.0,56.0,15.0,165.0,1404.715
1404725.0,66.0,54.0,14.0,158.0,1404.725
1404735.0,63.0,52.0,12.0,148.0,1404.735
1404745.0,62.0,51.0,12.0,143.0,1404.745
1404755.0,61.0,50.0,11.0,141.0,1404.755
1404765.0,61.0,49.0,11.0,142.0,1404.765
1404775.0,60.0,47.0,9.0,140.0,1404.775
1404785.0,60.0,46.0,9.0,134.0,1404.785
1404795.0,62.0,45.0,9.0,131.0,1404.795
1404805.0,63.0,44.0,8.0,137.0,1404.805
1404815.0,62.0,43.0,11.0,139.0,1404.815
1404825.0,63.0,41.0,10.0,139.0,1404.825
1404835.0,61.0,42.0,10.0,132.0,1404.835
1404845.0,69.0,40.0,9.0,126.0,1404.845
1404855.0,72.0,41.0,8.0,123.0,1404.855
1404865.0,69.0,39.0,9.0,115.0,1404.865
1404875.0,67.0,39.0,8.0,124.0,1404.875
1404886.0,64.0,39.0,7.0,125.0,1404.886
1404896.0,61.0,37.0,7.0,121.0,1404.896
1404906.0,60.0,38.0,8.0,113.0,1404.906
1404916.0,59.0,38.0,8.0,133.0,1404.916
1404926.0,57.0,38.0,8.0,129.0,1404.926
1404936.0,56.0,37.0,9.0,123.0,1404.936
1404946.0,56.0,38.0,8.0,132.0,1404.946
1404956.0,56.0,37.0,7.0,119.0,1404.956
1404966.0,57.0,37.0,9.0,117.0,1404.966
1404976.0,63.0,39.0,11.0,133.0,1404.976
1404986.0,61.0,38.0,11.0,129.0,1404.986
1404996.0,60.0,39.0,9.0,129.0,1404.996
1405006.0,59.0,39.0,11.0,127.0,1405.006
1405016.0,58.0,38.0,9.0,121.0,1405.016
1405026.0,55.0,38.0,8.0,122.0,1405.026
1405036.0,57.0,37.0,9.0,118.0,1405.036
1405046.0,56.0,39.0,9.0,121.0,1405.046
1405056.0,56.0,38.0,10.0,116.0,1405.056
1405066.0,56.0,38.0,11.0,123.0,1405.066
1405076.0,57.0,39.0,15.0,126.0,1405.076
1405086.0,55.0,39.0,14.0,125.0,1405.086
1405096.0,62.0,38.0,12.0,116.0,1405.096
1405106.0,62.0,37.0,12.0,111.0,1405.106
1405116.0,61.0,37.0,11.0,110.0,1405.116
1405126.0,60.0,36.0,10.0,102.0,1405.126
1405136.0,60.0,36.0,9.0,122.0,1405.136
1405146.0,59.0,36.0,10.0,119.0,1405.146
1405156.0,60.0,35.0,8.0,117.0,1405.156
1405166.0,60.0,36.0,14.0,114.0,1405.166
1405176.0,60.0,36.0,14.0,113.0,1405.176
1405186.0,59.0,38.0,15.0,111.0,1405.186
1405196.0,60.0,36.0,17.0,104.0,1405.196
1405206.0,59.0,35.0,16.0,103.0,1405.206
1405216.0,59.0,36.0,15.0,98.0,1405.216
1405227.0,58.0,35.0,13.0,121.0,1405.227
1405237.0,57.0,36.0,12.0,119.0,1405.237
1405247.0,58.0,35.0,11.0,146.0,1405.247
1405257.0,59.0,35.0,10.0,163.0,1405.257
1405267.0,58.0,35.0,12.0,159.0,1405.267
1405277.0,58.0,38.0,13.0,170.0,1405.277
1405287.0,61.0,37.0,13.0,186.0,1405.287
1405297.0,62.0,37.0,12.0,191.0,1405.297
1405307.0,60.0,38.0,10.0,184.0,1405.307
1405317.0,59.0,37.0,9.0,169.0,1405.317
1405327.0,58.0,40.0,9.0,161.0,1405.327
1405337.0,59.0,39.0,9.0,168.0,1405.337
1405347.0,58.0,41.0,7.0,165.0,1405.347
1405357.0,57.0,42.0,7.0,163.0,1405.357
1405367.0,57.0,42.0,8.0,192.0,1405.367
1405377.0,56.0,41.0,7.0,186.0,1405.377
1405387.0,55.0,44.0,7.0,178.0,1405.387
1405398.0,56.0,44.0,7.0,173.0,1405.398
1405408.0,58.0,42.0,7.0,173.0,1405.408
1405418.0,60.0,43.0,7.0,173.0,1405.418
1405428.0,59.0,42.0,8.0,168.0,1405.428
1405438.0,58.0,41.0,7.0,160.0,1405.438
1405448.0,58.0,42.0,6.0,152.0,1405.448
1405458.0,57.0,40.0,7.0,143.0,1405.458
1405468.0,57.0,40.0,6.0,137.0,1405.468
1405478.0,58.0,39.0,6.0,142.0,1405.478
1405488.0,57.0,39.0,6.0,140.0,1405.488
1405498.0,56.0,39.0,11.0,142.0,1405.498
1405508.0,57.0,39.0,14.0,136.0,1405.508
1405518.0,56.0,39.0,12.0,131.0,1405.518
1405528.0,58.0,37.0,12.0,133.0,1405.528
1405538.0,58.0,37.0,10.0,129.0,1405.538
1405548.0,57.0,37.0,10.0,134.0,1405.548
1405558.0,57.0,37.0,9.0,134.0,1405.558
1405568.0,56.0,38.0,9.0,129.0,1405.568
1405578.0,57.0,37.0,8.0,121.0,1405.578
1405588.0,54.0,39.0,6.0,117.0,1405.588
1405598.0,55.0,39.0,7.0,115.0,1405.598
1405608.0,56.0,40.0,6.0,112.0,1405.608
1405618.0,55.0,40.0,7.0,110.0,1405.618
1405628.0,57.0,38.0,6.0,114.0,1405.628
1405638.0,57.0,38.0,6.0,118.0,1405.638
1405648.0,58.0,40.0,7.0,117.0,1405.648
1405658.0,56.0,39.0,5.0,111.0,1405.658
1405668.0,55.0,38.0,6.0,114.0,1405.668
1405678.0,55.0,40.0,8.0,123.0,1405.678
1405688.0,56.0,40.0,8.0,118.0,1405.688
1405698.0,57.0,39.0,9.0,119.0,1405.698
1405708.0,57.0,39.0,8.0,122.0,1405.708
1405718.0,57.0,39.0,9.0,118.0,1405.718
1405728.0,58.0,39.0,6.0,114.0,1405.728
1405739.0,59.0,39.0,7.0,117.0,1405.739
1405749.0,60.0,40.0,7.0,116.0,1405.749
1405759.0,59.0,39.0,7.0,121.0,1405.759
1405769.0,59.0,39.0,7.0,123.0,1405.769
1405779.0,58.0,39.0,9.0,116.0,1405.779
1405789.0,61.0,39.0,9.0,116.0,1405.789
1405799.0,58.0,41.0,12.0,122.0,1405.799
1405809.0,58.0,39.0,11.0,122.0,1405.809
1405819.0,59.0,39.0,10.0,117.0,1405.819
1405829.0,58.0,38.0,10.0,114.0,1405.829
1405839.0,57.0,38.0,11.0,129.0,1405.839
1405849.0,55.0,37.0,13.0,134.0,1405.849
1405859.0,60.0,38.0,13.0,134.0,1405.859
1405869.0,59.0,37.0,12.0,140.0,1405.869
1405879.0,60.0,36.0,13.0,157.0,1405.879
1405889.0,62.0,37.0,12.0,158.0,1405.889
1405899.0,66.0,37.0,14.0,243.0,1405.899
1405910.0,67.0,36.0,16.0,251.0,1405.91
1405920.0,68.0,38.0,15.0,249.0,1405.92
1405930.0,69.0,39.0,21.0,264.0,1405.93
1405940.0,68.0,40.0,20.0,276.0,1405.94
1405950.0,67.0,41.0,18.0,266.0,1405.95
1405960.0,67.0,39.0,18.0,245.0,1405.96
1405970.0,68.0,40.0,17.0,258.0,1405.97
1405980.0,69.0,39.0,17.0,276.0,1405.98
1405990.0,68.0,38.0,19.0,256.0,1405.99
1406000.0,69.0,38.0,17.0,249.0,1406.0
1406010.0,68.0,39.0,16.0,241.0,1406.01
1406020.0,67.0,40.0,15.0,241.0,1406.02
1406030.0,65.0,40.0,14.0,231.0,1406.03
1406040.0,65.0,39.0,12.0,224.0,1406.04
1406050.0,64.0,38.0,11.0,217.0,1406.05
1406060.0,64.0,39.0,10.0,203.0,1406.06
1406070.0,65.0,39.0,11.0,185.0,1406.07
1406080.0,62.0,40.0,9.0,178.0,1406.08
1406090.0,61.0,39.0,8.0,169.0,1406.09
1406100.0,58.0,40.0,8.0,160.0,1406.1
1406110.0,56.0,39.0,9.0,167.0,1406.11
1406120.0,56.0,38.0,9.0,161.0,1406.12
1406130.0,54.0,39.0,9.0,153.0,1406.13
1406140.0,56.0,41.0,10.0,143.0,1406.14
1406150.0,56.0,41.0,7.0,164.0,1406.15
1406160.0,56.0,42.0,7.0,163.0,1406.16
1406170.0,55.0,41.0,10.0,156.0,1406.17
1406180.0,54.0,44.0,9.0,149.0,1406.18
1406190.0,55.0,42.0,10.0,151.0,1406.19
1406200.0,55.0,43.0,9.0,165.0,1406.2
1406210.0,57.0,43.0,10.0,156.0,1406.21
1406220.0,59.0,42.0,8.0,148.0,1406.22
1406230.0,58.0,44.0,7.0,152.0,1406.23
1406240.0,59.0,43.0,9.0,158.0,1406.24
1406251.0,59.0,43.0,11.0,152.0,1406.251
1406261.0,59.0,42.0,10.0,151.0,1406.261
1406271.0,61.0,41.0,10.0,148.0,1406.271
1406281.0,61.0,40.0,10.0,151.0,1406.281
1406291.0,61.0,39.0,8.0,146.0,1406.291
1406301.0,60.0,39.0,8.0,135.0,1406.301
1406311.0,60.0,37.0,8.0,121.0,1406.311
1406321.0,61.0,38.0,7.0,120.0,1406.321
1406331.0,59.0,37.0,6.0,124.0,1406.331
1406341.0,60.0,38.0,5.0,138.0,1406.341
1406351.0,60.0,37.0,7.0,139.0,1406.351
1406361.0,60.0,37.0,6.0,142.0,1406.361
1406371.0,58.0,37.0,6.0,138.0,1406.371
1406381.0,58.0,36.0,5.0,152.0,1406.381
1406391.0,57.0,37.0,5.0,153.0,1406.391
1406401.0,58.0,36.0,6.0,144.0,1406.401
1406411.0,59.0,36.0,6.0,140.0,1406.411
1406422.0,59.0,37.0,11.0,151.0,1406.422
1406432.0,59.0,37.0,13.0,143.0,1406.432
1406442.0,60.0,39.0,12.0,145.0,1406.442
1406452.0,62.0,37.0,12.0,137.0,1406.452
1406462.0,62.0,39.0,11.0,131.0,1406.462
1406472.0,62.0,38.0,10.0,128.0,1406.472
1406482.0,61.0,39.0,9.0,135.0,1406.482
1406492.0,60.0,38.0,9.0,128.0,1406.492
1406502.0,60.0,38.0,9.0,132.0,1406.502
1406512.0,60.0,39.0,8.0,132.0,1406.512
1406522.0,59.0,37.0,14.0,137.0,1406.522
1406532.0,59.0,39.0,13.0,135.0,1406.532
1406542.0,59.0,38.0,12.0,137.0,1406.542
1406552.0,57.0,37.0,11.0,147.0,1406.552
1406562.0,55.0,36.0,10.0,144.0,1406.562
1406572.0,56.0,35.0,10.0,144.0,1406.572
1406582.0,54.0,35.0,8.0,135.0,1406.582
1406592.0,55.0,35.0,8.0,133.0,1406.592
1406602.0,54.0,36.0,7.0,133.0,1406.602
1406612.0,54.0,36.0,7.0,130.0,1406.612
1406622.0,55.0,36.0,6.0,129.0,1406.622
1406632.0,53.0,36.0,7.0,117.0,1406.632
1406642.0,54.0,35.0,6.0,116.0,1406.642
1406652.0,50.0,36.0,5.0,116.0,1406.652
1406662.0,50.0,36.0,6.0,110.0,1406.662
1406672.0,50.0,39.0,6.0,114.0,1406.672
1406682.0,51.0,36.0,6.0,117.0,1406.682
1406692.0,50.0,37.0,6.0,108.0,1406.692
1406702.0,49.0,40.0,8.0,115.0,1406.702
1406712.0,51.0,39.0,9.0,120.0,1406.712
1406722.0,52.0,39.0,7.0,127.0,1406.722
1406732.0,52.0,38.0,9.0,139.0,1406.732
1406742.0,52.0,39.0,9.0,140.0,1406.742
1406752.0,51.0,38.0,9.0,136.0,1406.752
1406763.0,51.0,37.0,8.0,131.0,1406.763
1406773.0,52.0,37.0,9.0,135.0,1406.773
1406783.0,51.0,37.0,9.0,127.0,1406.783
1406793.0,52.0,37.0,8.0,127.0,1406.793
1406803.0,53.0,37.0,8.0,127.0,1406.803
1406813.0,53.0,37.0,8.0,127.0,1406.813
1406823.0,53.0,37.0,7.0,128.0,1406.823
1406833.0,51.0,38.0,7.0,124.0,1406.833
1406843.0,49.0,40.0,8.0,119.0,1406.843
1406853.0,53.0,39.0,7.0,113.0,1406.853
1406863.0,50.0,42.0,6.0,109.0,1406.863
1406873.0,54.0,41.0,7.0,113.0,1406.873
1406883.0,54.0,40.0,6.0,117.0,1406.883
1406893.0,56.0,39.0,6.0,108.0,1406.893
1406903.0,57.0,38.0,5.0,103.0,1406.903
1406913.0,56.0,39.0,5.0,97.0,1406.913
1406923.0,56.0,41.0,6.0,95.0,1406.923
1406934.0,58.0,39.0,4.0,89.0,1406.934
1406944.0,61.0,38.0,5.0,88.0,1406.944
1406954.0,62.0,40.0,7.0,95.0,1406.954
1406964.0,63.0,39.0,8.0,94.0,1406.964
1406974.0,62.0,38.0,7.0,94.0,1406.974
1406984.0,63.0,38.0,7.0,91.0,1406.984
1406994.0,63.0,40.0,8.0,88.0,1406.994
1407004.0,62.0,39.0,6.0,96.0,1407.004
1407014.0,62.0,37.0,6.0,93.0,1407.014
1407024.0,60.0,40.0,6.0,101.0,1407.024
1407034.0,62.0,39.0,5.0,107.0,1407.034
1407044.0,61.0,38.0,5.0,104.0,1407.044
1407054.0,60.0,38.0,5.0,107.0,1407.054
1407064.0,61.0,40.0,7.0,101.0,1407.064
1407074.0,58.0,41.0,6.0,108.0,1407.074
1407084.0,58.0,41.0,6.0,103.0,1407.084
1407094.0,59.0,40.0,5.0,109.0,1407.094
1407104.0,58.0,39.0,4.0,110.0,1407.104
1407114.0,56.0,42.0,6.0,106.0,1407.114
1407124.0,56.0,41.0,5.0,104.0,1407.124
1407134.0,56.0,41.0,6.0,99.0,1407.134
1407144.0,54.0,40.0,4.0,99.0,1407.144
1407154.0,56.0,40.0,7.0,95.0,1407.154
1407164.0,54.0,40.0,6.0,93.0,1407.164
1407174.0,55.0,40.0,6.0,92.0,1407.174
1407184.0,55.0,39.0,6.0,87.0,1407.184
1407194.0,53.0,40.0,4.0,98.0,1407.194
1407204.0,55.0,42.0,6.0,104.0,1407.204
1407214.0,55.0,41.0,6.0,110.0,1407.214
1407224.0,56.0,40.0,7.0,107.0,1407.224
1407234.0,58.0,40.0,7.0,113.0,1407.234
1407244.0,58.0,41.0,7.0,110.0,1407.244
1407254.0,60.0,39.0,7.0,124.0,1407.254
1407264.0,60.0,39.0,9.0,113.0,1407.264
1407275.0,62.0,38.0,9.0,114.0,1407.275
1407285.0,62.0,38.0,7.0,126.0,1407.285
1407295.0,62.0,39.0,6.0,121.0,1407.295
1407305.0,61.0,40.0,7.0,127.0,1407.305
1407315.0,62.0,42.0,7.0,131.0,1407.315
1407325.0,63.0,42.0,8.0,133.0,1407.325
1407335.0,63.0,42.0,8.0,126.0,1407.335
1407345.0,65.0,41.0,8.0,129.0,1407.345
1407355.0,63.0,41.0,9.0,128.0,1407.355
1407365.0,62.0,41.0,9.0,117.0,1407.365
1407375.0,62.0,41.0,8.0,116.0,1407.375
1407385.0,63.0,43.0,7.0,110.0,1407.385
1407395.0,65.0,42.0,7.0,106.0,1407.395
1407405.0,65.0,42.0,5.0,110.0,1407.405
1407415.0,64.0,44.0,9.0,113.0,1407.415
1407425.0,63.0,43.0,10.0,116.0,1407.425
1407435.0,62.0,42.0,10.0,115.0,1407.435
1407446.0,61.0,41.0,9.0,111.0,1407.446
1407456.0,59.0,40.0,8.0,108.0,1407.456
1407466.0,58.0,38.0,8.0,108.0,1407.466
1407476.0,60.0,40.0,7.0,108.0,1407.476
1407486.0,60.0,39.0,8.0,101.0,1407.486
1407496.0,62.0,39.0,6.0,116.0,1407.496
1407506.0,60.0,39.0,7.0,121.0,1407.506
1407516.0,60.0,37.0,9.0,119.0,1407.516
1407526.0,61.0,38.0,8.0,113.0,1407.526
1407536.0,60.0,36.0,8.0,110.0,1407.536
1407546.0,61.0,37.0,7.0,124.0,1407.546
1407556.0,61.0,38.0,8.0,125.0,1407.556
1407566.0,60.0,37.0,7.0,118.0,1407.566
1407576.0,60.0,37.0,7.0,117.0,1407.576
1407586.0,60.0,36.0,6.0,111.0,1407.586
1407596.0,59.0,37.0,7.0,123.0,1407.596
1407606.0,60.0,36.0,8.0,121.0,1407.606
1407616.0,59.0,35.0,7.0,120.0,1407.616
1407626.0,60.0,35.0,8.0,112.0,1407.626
1407636.0,61.0,34.0,6.0,103.0,1407.636
1407646.0,60.0,34.0,7.0,100.0,1407.646
1407656.0,59.0,33.0,7.0,113.0,1407.656
1407666.0,58.0,34.0,7.0,116.0,1407.666
1407676.0,56.0,34.0,8.0,122.0,1407.676
1407686.0,55.0,34.0,9.0,118.0,1407.686
1407696.0,55.0,34.0,9.0,123.0,1407.696
1407706.0,57.0,34.0,8.0,119.0,1407.706
1407716.0,56.0,34.0,7.0,127.0,1407.716
1407726.0,56.0,34.0,9.0,128.0,1407.726
1407736.0,56.0,35.0,8.0,126.0,1407.736
1407746.0,57.0,34.0,8.0,132.0,1407.746
1407756.0,57.0,33.0,7.0,126.0,1407.756
1407766.0,55.0,34.0,7.0,122.0,1407.766
1407776.0,55.0,34.0,6.0,123.0,1407.776
1407787.0,54.0,33.0,6.0,127.0,1407.787
1407797.0,53.0,33.0,6.0,132.0,1407.797
1407807.0,52.0,34.0,5.0,127.0,1407.807
1407817.0,52.0,32.0,6.0,124.0,1407.817
1407827.0,53.0,34.0,5.0,126.0,1407.827
1407837.0,52.0,33.0,6.0,125.0,1407.837
1407847.0,53.0,34.0,6.0,129.0,1407.847
1407857.0,53.0,34.0,6.0,129.0,1407.857
1407867.0,53.0,35.0,5.0,120.0,1407.867
1407877.0,55.0,37.0,5.0,128.0,1407.877
1407887.0,55.0,36.0,6.0,128.0,1407.887
1407897.0,56.0,36.0,6.0,122.0,1407.897
1407907.0,56.0,36.0,6.0,130.0,1407.907
1407917.0,56.0,35.0,6.0,125.0,1407.917
1407927.0,54.0,35.0,4.0,136.0,1407.927
1407937.0,56.0,35.0,6.0,141.0,1407.937
1407947.0,54.0,36.0,7.0,145.0,1407.947
1407958.0,56.0,36.0,9.0,140.0,1407.958
1407968.0,56.0,35.0,8.0,135.0,1407.968
1407978.0,55.0,36.0,8.0,130.0,1407.978
1407988.0,56.0,37.0,8.0,131.0,1407.988
1407998.0,53.0,36.0,6.0,130.0,1407.998
1408008.0,54.0,36.0,6.0,127.0,1408.008
1408018.0,52.0,36.0,6.0,116.0,1408.018
1408028.0,51.0,36.0,6.0,106.0,1408.028
1408038.0,52.0,39.0,6.0,125.0,1408.038
1408048.0,51.0,38.0,6.0,127.0,1408.048
1408058.0,52.0,37.0,6.0,125.0,1408.058
1408068.0,51.0,37.0,5.0,123.0,1408.068
1408078.0,50.0,36.0,5.0,110.0,1408.078
1408088.0,52.0,38.0,5.0,111.0,1408.088
1408098.0,54.0,39.0,5.0,111.0,1408.098
1408108.0,55.0,38.0,6.0,109.0,1408.108
1408118.0,54.0,41.0,5.0,101.0,1408.118
1408128.0,55.0,40.0,5.0,97.0,1408.128
1408138.0,54.0,41.0,4.0,97.0,1408.138
1408148.0,56.0,42.0,5.0,103.0,1408.148
1408158.0,56.0,43.0,4.0,104.0,1408.158
1408168.0,56.0,42.0,3.0,104.0,1408.168
1408178.0,55.0,41.0,4.0,98.0,1408.178
1408188.0,57.0,43.0,4.0,103.0,1408.188
1408198.0,56.0,42.0,5.0,105.0,1408.198
1408208.0,55.0,43.0,6.0,107.0,1408.208
1408218.0,54.0,45.0,7.0,99.0,1408.218
1408228.0,55.0,46.0,6.0,99.0,1408.228
1408238.0,56.0,47.0,8.0,101.0,1408.238
1408248.0,55.0,47.0,7.0,107.0,1408.248
1408258.0,56.0,48.0,7.0,102.0,1408.258
1408268.0,56.0,47.0,6.0,99.0,1408.268
1408278.0,55.0,47.0,6.0,95.0,1408.278
1408288.0,57.0,48.0,6.0,93.0,1408.288
1408299.0,57.0,47.0,6.0,101.0,1408.299
1408309.0,58.0,47.0,7.0,100.0,1408.309
1408319.0,59.0,46.0,7.0,99.0,1408.319
1408329.0,57.0,45.0,5.0,97.0,1408.329
1408339.0,61.0,47.0,7.0,99.0,1408.339
1408349.0,61.0,46.0,6.0,109.0,1408.349
1408359.0,60.0,47.0,6.0,107.0,1408.359
1408369.0,61.0,47.0,7.0,102.0,1408.369
1408379.0,61.0,48.0,7.0,104.0,1408.379
1408389.0,61.0,46.0,7.0,100.0,1408.389
1408399.0,60.0,49.0,6.0,97.0,1408.399
1408409.0,60.0,48.0,6.0,95.0,1408.409
1408419.0,58.0,47.0,5.0,102.0,1408.419
1408429.0,55.0,45.0,6.0,107.0,1408.429
1408439.0,56.0,46.0,5.0,114.0,1408.439
1408449.0,56.0,49.0,5.0,128.0,1408.449
1408459.0,55.0,47.0,5.0,117.0,1408.459
1408470.0,53.0,47.0,4.0,105.0,1408.47
1408480.0,55.0,46.0,5.0,98.0,1408.48
1408490.0,54.0,45.0,5.0,104.0,1408.49
1408500.0,56.0,44.0,5.0,107.0,1408.5
1408510.0,55.0,43.0,4.0,109.0,1408.51
1408520.0,56.0,43.0,4.0,104.0,1408.52
1408530.0,56.0,41.0,4.0,100.0,1408.53
1408540.0,57.0,43.0,6.0,113.0,1408.54
1408550.0,57.0,43.0,5.0,118.0,1408.55
1408560.0,56.0,45.0,4.0,119.0,1408.56
1408570.0,57.0,46.0,5.0,119.0,1408.57
1408580.0,57.0,45.0,4.0,111.0,1408.58
1408590.0,58.0,45.0,4.0,109.0,1408.59
1408600.0,59.0,44.0,6.0,106.0,1408.6
1408610.0,58.0,45.0,5.0,113.0,1408.61
1408620.0,60.0,45.0,6.0,105.0,1408.62
1408630.0,58.0,43.0,5.0,95.0,1408.63
1408640.0,58.0,43.0,6.0,91.0,1408.64
1408650.0,57.0,41.0,5.0,117.0,1408.65
1408660.0,55.0,41.0,6.0,111.0,1408.66
1408670.0,55.0,40.0,7.0,119.0,1408.67
1408680.0,54.0,41.0,6.0,120.0,1408.68
1408690.0,55.0,39.0,7.0,116.0,1408.69
1408700.0,56.0,40.0,7.0,115.0,1408.7
1408710.0,56.0,41.0,6.0,120.0,1408.71
1408720.0,57.0,40.0,7.0,122.0,1408.72
1408730.0,57.0,40.0,6.0,121.0,1408.73
1408740.0,58.0,37.0,5.0,113.0,1408.74
1408750.0,59.0,36.0,5.0,114.0,1408.75
1408760.0,61.0,38.0,7.0,112.0,1408.76
1408770.0,60.0,37.0,6.0,118.0,1408.77
1408780.0,60.0,37.0,5.0,109.0,1408.78
1408790.0,61.0,37.0,5.0,107.0,1408.79
1408800.0,59.0,38.0,5.0,106.0,1408.8
1408811.0,60.0,37.0,6.0,100.0,1408.811
1408821.0,61.0,37.0,5.0,111.0,1408.821
1408831.0,61.0,38.0,6.0,114.0,1408.831
1408841.0,64.0,39.0,5.0,115.0,1408.841
1408851.0,64.0,39.0,5.0,109.0,1408.851
1408861.0,63.0,39.0,5.0,107.0,1408.861
1408871.0,62.0,39.0,4.0,114.0,1408.871
1408881.0,63.0,38.0,5.0,114.0,1408.881
1408891.0,64.0,39.0,4.0,111.0,1408.891
1408901.0,64.0,38.0,5.0,110.0,1408.901
1408911.0,66.0,39.0,5.0,103.0,1408.911
1408921.0,64.0,38.0,4.0,95.0,1408.921
1408931.0,63.0,37.0,5.0,103.0,1408.931
1408941.0,65.0,39.0,5.0,99.0,1408.941
1408951.0,64.0,38.0,6.0,106.0,1408.951
1408961.0,63.0,38.0,5.0,100.0,1408.961
1408971.0,64.0,37.0,10.0,98.0,1408.971
1408982.0,64.0,37.0,10.0,115.0,1408.982
1408992.0,64.0,37.0,8.0,116.0,1408.992
1409002.0,65.0,37.0,9.0,122.0,1409.002
1409012.0,64.0,37.0,7.0,116.0,1409.012
1409022.0,66.0,36.0,7.0,112.0,1409.022
1409032.0,65.0,36.0,6.0,104.0,1409.032
1409042.0,64.0,36.0,7.0,106.0,1409.042
1409052.0,66.0,36.0,6.0,116.0,1409.052
1409062.0,64.0,35.0,7.0,112.0,1409.062
1409072.0,63.0,35.0,7.0,108.0,1409.072
1409082.0,63.0,36.0,8.0,102.0,1409.082
1409092.0,63.0,36.0,8.0,98.0,1409.092
1409102.0,62.0,37.0,7.0,97.0,1409.102
1409112.0,62.0,36.0,7.0,106.0,1409.112
1409122.0,63.0,37.0,8.0,112.0,1409.122
1409132.0,64.0,38.0,6.0,113.0,1409.132
1409142.0,66.0,39.0,8.0,105.0,1409.142
1409152.0,66.0,40.0,7.0,103.0,1409.152
1409162.0,66.0,38.0,6.0,112.0,1409.162
1409172.0,67.0,38.0,5.0,122.0,1409.172
1409182.0,68.0,40.0,5.0,117.0,1409.182
1409192.0,68.0,39.0,6.0,110.0,1409.192
1409202.0,67.0,39.0,4.0,111.0,1409.202
1409212.0,66.0,39.0,4.0,103.0,1409.212
1409222.0,68.0,40.0,5.0,119.0,1409.222
1409232.0,68.0,39.0,4.0,116.0,1409.232
1409242.0,69.0,39.0,5.0,108.0,1409.242
1409252.0,71.0,39.0,5.0,103.0,1409.252
1409262.0,71.0,39.0,5.0,99.0,1409.262
1409272.0,70.0,38.0,4.0,97.0,1409.272
1409282.0,72.0,38.0,5.0,98.0,1409.282
1409292.0,73.0,38.0,3.0,106.0,1409.292
1409302.0,74.0,37.0,4.0,97.0,1409.302
1409312.0,73.0,36.0,6.0,113.0,1409.312
1409323.0,73.0,37.0,6.0,117.0,1409.323
1409333.0,73.0,35.0,7.0,115.0,1409.333
1409343.0,72.0,36.0,6.0,109.0,1409.343
1409353.0,74.0,36.0,6.0,100.0,1409.353
1409363.0,72.0,36.0,5.0,93.0,1409.363
1409373.0,70.0,34.0,5.0,85.0,1409.373
1409383.0,70.0,34.0,5.0,92.0,1409.383
1409393.0,68.0,35.0,5.0,90.0,1409.393
1409403.0,67.0,35.0,6.0,85.0,1409.403
1409413.0,65.0,36.0,5.0,88.0,1409.413
1409423.0,63.0,37.0,5.0,93.0,1409.423
1409433.0,63.0,37.0,4.0,97.0,1409.433
1409443.0,63.0,36.0,5.0,96.0,1409.443
1409453.0,63.0,36.0,6.0,107.0,1409.453
