time (ms),signal 0,signal 1,signal 2,signal3,time (sec)
1415463.0,52.0,84.0,3.0,28.0,1415.463
1415473.0,53.0,81.0,4.0,27.0,1415.473
1415483.0,53.0,80.0,4.0,29.0,1415.483
1415493.0,52.0,81.0,4.0,27.0,1415.493
1415503.0,51.0,79.0,3.0,29.0,1415.503
1415513.0,50.0,79.0,3.0,28.0,1415.513
1415523.0,51.0,80.0,4.0,26.0,1415.523
1415533.0,49.0,77.0,4.0,27.0,1415.533
1415543.0,49.0,77.0,4.0,27.0,1415.543
1415553.0,47.0,76.0,3.0,28.0,1415.553
1415563.0,47.0,77.0,4.0,33.0,1415.563
1415573.0,48.0,77.0,6.0,32.0,1415.573
1415583.0,54.0,80.0,6.0,49.0,1415.583
1415593.0,59.0,92.0,22.0,142.0,1415.593
1415603.0,61.0,89.0,25.0,172.0,1415.603
1415613.0,65.0,88.0,49.0,226.0,1415.613
1415623.0,76.0,91.0,94.0,276.0,1415.623
1415633.0,86.0,91.0,113.0,303.0,1415.633
1415643.0,83.0,86.0,117.0,337.0,1415.643
1415653.0,81.0,84.0,132.0,349.0,1415.653
1415663.0,89.0,96.0,145.0,359.0,1415.663
1415673.0,88.0,98.0,150.0,344.0,1415.673
1415683.0,88.0,98.0,147.0,346.0,1415.683
1415693.0,90.0,103.0,145.0,325.0,1415.693
1415703.0,92.0,107.0,134.0,319.0,1415.703
1415713.0,94.0,106.0,121.0,293.0,1415.713
1415723.0,91.0,102.0,117.0,325.0,1415.723
1415733.0,100.0,110.0,135.0,318.0,1415.733
1415743.0,106.0,120.0,129.0,296.0,1415.743
1415753.0,109.0,128.0,121.0,302.0,1415.753
1415763.0,114.0,141.0,123.0,305.0,1415.763
1415773.0,116.0,150.0,122.0,334.0,1415.773
1415783.0,114.0,157.0,122.0,315.0,1415.783
1415793.0,116.0,171.0,125.0,312.0,1415.793
1415803.0,116.0,180.0,120.0,331.0,1415.803
1415813.0,116.0,189.0,118.0,364.0,1415.813
1415823.0,115.0,198.0,118.0,351.0,1415.823
1415833.0,114.0,203.0,111.0,325.0,1415.833
1415843.0,111.0,207.0,103.0,298.0,1415.843
1415853.0,111.0,211.0,95.0,297.0,1415.853
1415863.0,107.0,212.0,91.0,282.0,1415.863
1415873.0,106.0,211.0,102.0,282.0,1415.873
1415883.0,105.0,214.0,111.0,272.0,1415.883
1415894.0,101.0,213.0,109.0,245.0,1415.894
1415904.0,101.0,214.0,95.0,230.0,1415.904
1415914.0,98.0,214.0,99.0,241.0,1415.914
1415924.0,98.0,214.0,92.0,228.0,1415.924
1415934.0,95.0,213.0,88.0,207.0,1415.934
1415944.0,91.0,210.0,79.0,202.0,1415.944
1415954.0,92.0,213.0,75.0,206.0,1415.954
1415964.0,91.0,211.0,70.0,190.0,1415.964
1415974.0,89.0,208.0,65.0,191.0,1415.974
1415984.0,88.0,206.0,70.0,186.0,1415.984
1415994.0,87.0,205.0,66.0,184.0,1415.994
1416004.0,88.0,205.0,64.0,177.0,1416.004
1416014.0,89.0,203.0,56.0,164.0,1416.014
1416024.0,90.0,203.0,54.0,158.0,1416.024
1416034.0,89.0,202.0,50.0,150.0,1416.034
1416044.0,91.0,201.0,47.0,143.0,1416.044
1416054.0,90.0,201.0,43.0,158.0,1416.054
1416064.0,91.0,200.0,40.0,145.0,1416.064
1416074.0,92.0,199.0,36.0,143.0,1416.074
1416084.0,93.0,198.0,41.0,134.0,1416.084
1416094.0,96.0,196.0,37.0,131.0,1416.094
1416104.0,96.0,193.0,36.0,133.0,1416.104
1416114.0,99.0,193.0,45.0,130.0,1416.114
1416124.0,100.0,193.0,40.0,128.0,1416.124
1416134.0,100.0,191.0,40.0,125.0,1416.134
1416144.0,101.0,189.0,39.0,119.0,1416.144
1416154.0,99.0,186.0,35.0,117.0,1416.154
1416164.0,100.0,185.0,31.0,111.0,1416.164
1416174.0,99.0,182.0,29.0,111.0,1416.174
1416184.0,98.0,179.0,31.0,135.0,1416.184
1416194.0,95.0,174.0,28.0,140.0,1416.194
1416204.0,95.0,172.0,30.0,132.0,1416.204
1416214.0,95.0,172.0,27.0,132.0,1416.214
1416224.0,95.0,170.0,26.0,127.0,1416.224
1416235.0,95.0,169.0,24.0,126.0,1416.235
1416245.0,93.0,166.0,20.0,125.0,1416.245
1416255.0,94.0,163.0,20.0,126.0,1416.255
1416265.0,90.0,159.0,18.0,131.0,1416.265
1416275.0,90.0,157.0,20.0,147.0,1416.275
1416285.0,88.0,155.0,19.0,153.0,1416.285
1416295.0,86.0,153.0,17.0,140.0,1416.295
1416305.0,85.0,149.0,18.0,141.0,1416.305
1416315.0,84.0,147.0,15.0,134.0,1416.315
1416325.0,84.0,144.0,19.0,135.0,1416.325
1416335.0,84.0,144.0,16.0,143.0,1416.335
1416345.0,83.0,143.0,17.0,151.0,1416.345
1416355.0,83.0,141.0,16.0,141.0,1416.355
1416365.0,83.0,141.0,15.0,131.0,1416.365
1416375.0,84.0,138.0,14.0,122.0,1416.375
1416385.0,84.0,137.0,12.0,116.0,1416.385
1416395.0,85.0,135.0,14.0,131.0,1416.395
1416406.0,85.0,134.0,11.0,131.0,1416.406
1416416.0,86.0,132.0,16.0,124.0,1416.416
1416426.0,87.0,129.0,14.0,114.0,1416.426
1416436.0,88.0,128.0,11.0,112.0,1416.436
1416446.0,85.0,126.0,16.0,116.0,1416.446
1416456.0,85.0,125.0,15.0,119.0,1416.456
1416466.0,86.0,123.0,15.0,121.0,1416.466
1416476.0,86.0,123.0,14.0,123.0,1416.476
1416486.0,86.0,120.0,13.0,117.0,1416.486
1416496.0,86.0,116.0,14.0,115.0,1416.496
1416506.0,87.0,115.0,14.0,130.0,1416.506
1416516.0,88.0,111.0,14.0,126.0,1416.516
1416526.0,88.0,107.0,17.0,114.0,1416.526
1416536.0,90.0,105.0,16.0,125.0,1416.536
1416546.0,91.0,104.0,16.0,124.0,1416.546
1416556.0,92.0,102.0,14.0,129.0,1416.556
1416566.0,94.0,102.0,18.0,125.0,1416.566
1416576.0,95.0,103.0,18.0,118.0,1416.576
1416586.0,99.0,100.0,16.0,116.0,1416.586
1416596.0,101.0,100.0,15.0,109.0,1416.596
1416606.0,101.0,97.0,18.0,103.0,1416.606
1416616.0,104.0,98.0,15.0,127.0,1416.616
1416626.0,103.0,95.0,14.0,125.0,1416.626
1416636.0,105.0,93.0,13.0,122.0,1416.636
1416646.0,105.0,91.0,14.0,118.0,1416.646
1416656.0,106.0,86.0,12.0,108.0,1416.656
1416666.0,107.0,85.0,11.0,123.0,1416.666
1416676.0,108.0,84.0,11.0,127.0,1416.676
1416686.0,108.0,83.0,10.0,122.0,1416.686
1416696.0,106.0,81.0,10.0,114.0,1416.696
1416706.0,105.0,79.0,8.0,119.0,1416.706
1416716.0,103.0,79.0,8.0,133.0,1416.716
1416726.0,101.0,76.0,8.0,122.0,1416.726
1416736.0,100.0,75.0,7.0,125.0,1416.736
1416747.0,99.0,73.0,7.0,121.0,1416.747
1416757.0,98.0,72.0,6.0,111.0,1416.757
1416767.0,98.0,70.0,6.0,128.0,1416.767
1416777.0,97.0,68.0,6.0,125.0,1416.777
1416787.0,98.0,68.0,5.0,119.0,1416.787
1416797.0,98.0,66.0,5.0,114.0,1416.797
1416807.0,98.0,64.0,6.0,110.0,1416.807
1416817.0,98.0,63.0,6.0,107.0,1416.817
1416827.0,98.0,61.0,5.0,106.0,1416.827
1416837.0,98.0,61.0,6.0,102.0,1416.837
1416847.0,100.0,59.0,6.0,108.0,1416.847
1416857.0,99.0,57.0,5.0,107.0,1416.857
1416867.0,96.0,54.0,6.0,114.0,1416.867
1416877.0,96.0,52.0,5.0,114.0,1416.877
1416887.0,94.0,50.0,5.0,111.0,1416.887
1416897.0,92.0,49.0,5.0,106.0,1416.897
1416907.0,90.0,48.0,4.0,105.0,1416.907
1416918.0,88.0,45.0,4.0,99.0,1416.918
1416928.0,86.0,46.0,4.0,95.0,1416.928
1416938.0,83.0,44.0,4.0,90.0,1416.938
1416948.0,84.0,43.0,4.0,86.0,1416.948
1416958.0,81.0,41.0,4.0,86.0,1416.958
1416968.0,80.0,41.0,4.0,92.0,1416.968
1416978.0,80.0,43.0,4.0,92.0,1416.978
1416988.0,80.0,43.0,4.0,90.0,1416.988
1416998.0,80.0,46.0,7.0,95.0,1416.998
1417008.0,78.0,46.0,7.0,90.0,1417.008
1417018.0,80.0,47.0,8.0,94.0,1417.018
1417028.0,77.0,47.0,8.0,103.0,1417.028
1417038.0,82.0,48.0,7.0,116.0,1417.038
1417048.0,82.0,47.0,6.0,115.0,1417.048
1417058.0,80.0,48.0,6.0,111.0,1417.058
1417068.0,80.0,49.0,5.0,106.0,1417.068
1417078.0,81.0,47.0,6.0,99.0,1417.078
1417088.0,80.0,45.0,5.0,108.0,1417.088
1417098.0,80.0,46.0,5.0,103.0,1417.098
1417108.0,80.0,45.0,6.0,102.0,1417.108
1417118.0,80.0,44.0,5.0,103.0,1417.118
1417128.0,81.0,41.0,5.0,97.0,1417.128
1417138.0,82.0,42.0,6.0,109.0,1417.138
1417148.0,80.0,41.0,5.0,112.0,1417.148
1417158.0,82.0,39.0,5.0,102.0,1417.158
1417168.0,82.0,39.0,5.0,106.0,1417.168
1417178.0,84.0,39.0,5.0,102.0,1417.178
1417188.0,81.0,38.0,4.0,115.0,1417.188
1417198.0,82.0,38.0,5.0,118.0,1417.198
1417208.0,83.0,38.0,4.0,114.0,1417.208
1417218.0,83.0,38.0,5.0,110.0,1417.218
1417228.0,82.0,37.0,5.0,110.0,1417.228
1417238.0,81.0,37.0,4.0,120.0,1417.238
1417248.0,83.0,36.0,5.0,115.0,1417.248
1417259.0,82.0,36.0,5.0,110.0,1417.259
1417269.0,81.0,35.0,4.0,109.0,1417.269
1417279.0,82.0,35.0,4.0,102.0,1417.279
1417289.0,80.0,35.0,5.0,92.0,1417.289
1417299.0,80.0,34.0,4.0,88.0,1417.299
1417309.0,78.0,34.0,3.0,94.0,1417.309
1417319.0,76.0,35.0,7.0,94.0,1417.319
1417329.0,74.0,34.0,6.0,94.0,1417.329
1417339.0,74.0,35.0,6.0,97.0,1417.339
1417349.0,76.0,35.0,6.0,98.0,1417.349
1417359.0,75.0,35.0,5.0,100.0,1417.359
1417369.0,74.0,36.0,6.0,101.0,1417.369
1417379.0,73.0,36.0,5.0,98.0,1417.379
1417389.0,73.0,35.0,5.0,96.0,1417.389
1417399.0,72.0,35.0,5.0,91.0,1417.399
1417409.0,70.0,35.0,5.0,88.0,1417.409
1417419.0,69.0,35.0,5.0,91.0,1417.419
1417430.0,67.0,35.0,5.0,90.0,1417.43
1417440.0,67.0,34.0,4.0,84.0,1417.44
1417450.0,67.0,34.0,4.0,81.0,1417.45
1417460.0,68.0,35.0,7.0,87.0,1417.46
1417470.0,68.0,34.0,5.0,83.0,1417.47
1417480.0,69.0,35.0,7.0,83.0,1417.48
1417490.0,68.0,35.0,7.0,82.0,1417.49
1417500.0,70.0,36.0,6.0,76.0,1417.5
1417510.0,71.0,36.0,7.0,82.0,1417.51
1417520.0,71.0,36.0,5.0,81.0,1417.52
1417530.0,71.0,37.0,6.0,79.0,1417.53
1417540.0,71.0,35.0,5.0,82.0,1417.54
1417550.0,71.0,37.0,5.0,86.0,1417.55
1417560.0,69.0,36.0,6.0,96.0,1417.56
1417570.0,69.0,37.0,7.0,112.0,1417.57
1417580.0,68.0,38.0,9.0,114.0,1417.58
1417590.0,69.0,39.0,9.0,117.0,1417.59
1417600.0,71.0,40.0,10.0,127.0,1417.6
1417610.0,71.0,40.0,8.0,117.0,1417.61
1417620.0,70.0,41.0,7.0,110.0,1417.62
1417630.0,71.0,40.0,7.0,112.0,1417.63
1417640.0,70.0,40.0,7.0,115.0,1417.64
1417650.0,70.0,38.0,7.0,108.0,1417.65
1417660.0,68.0,39.0,8.0,108.0,1417.66
1417670.0,68.0,38.0,8.0,118.0,1417.67
1417680.0,69.0,38.0,7.0,116.0,1417.68
1417690.0,68.0,38.0,6.0,113.0,1417.69
1417700.0,68.0,37.0,6.0,102.0,1417.7
1417710.0,69.0,40.0,6.0,100.0,1417.71
1417720.0,68.0,38.0,7.0,108.0,1417.72
1417730.0,69.0,38.0,6.0,101.0,1417.73
1417740.0,68.0,37.0,6.0,92.0,1417.74
1417750.0,68.0,35.0,6.0,91.0,1417.75
1417760.0,67.0,35.0,6.0,102.0,1417.76
1417771.0,69.0,36.0,7.0,96.0,1417.771
1417781.0,69.0,37.0,7.0,107.0,1417.781
1417791.0,68.0,36.0,7.0,104.0,1417.791
1417801.0,69.0,36.0,6.0,111.0,1417.801
1417811.0,69.0,39.0,7.0,107.0,1417.811
1417821.0,69.0,39.0,6.0,104.0,1417.821
1417831.0,67.0,38.0,6.0,106.0,1417.831
1417841.0,67.0,37.0,6.0,104.0,1417.841
1417851.0,67.0,38.0,7.0,114.0,1417.851
1417861.0,67.0,38.0,7.0,106.0,1417.861
1417871.0,67.0,39.0,6.0,107.0,1417.871
1417881.0,67.0,41.0,7.0,100.0,1417.881
1417891.0,67.0,42.0,8.0,116.0,1417.891
1417901.0,66.0,44.0,9.0,132.0,1417.901
1417911.0,67.0,45.0,9.0,124.0,1417.911
1417921.0,68.0,44.0,8.0,118.0,1417.921
1417931.0,67.0,42.0,7.0,108.0,1417.931
1417942.0,65.0,40.0,7.0,104.0,1417.942
1417952.0,63.0,41.0,9.0,124.0,1417.952
1417962.0,63.0,42.0,8.0,124.0,1417.962
1417972.0,62.0,45.0,7.0,112.0,1417.972
1417982.0,61.0,44.0,7.0,111.0,1417.982
1417992.0,62.0,47.0,7.0,105.0,1417.992
1418002.0,62.0,46.0,6.0,109.0,1418.002
1418012.0,63.0,47.0,6.0,106.0,1418.012
1418022.0,62.0,46.0,5.0,98.0,1418.022
1418032.0,63.0,47.0,6.0,94.0,1418.032
1418042.0,62.0,47.0,4.0,89.0,1418.042
1418052.0,62.0,47.0,5.0,85.0,1418.052
1418062.0,63.0,47.0,5.0,84.0,1418.062
1418072.0,63.0,46.0,5.0,99.0,1418.072
1418082.0,65.0,44.0,5.0,98.0,1418.082
1418092.0,64.0,43.0,4.0,92.0,1418.092
1418102.0,63.0,41.0,4.0,89.0,1418.102
1418112.0,64.0,42.0,4.0,96.0,1418.112
1418122.0,66.0,43.0,5.0,86.0,1418.122
1418132.0,65.0,45.0,4.0,84.0,1418.132
1418142.0,63.0,49.0,5.0,94.0,1418.142
1418152.0,65.0,50.0,5.0,92.0,1418.152
1418162.0,66.0,52.0,5.0,102.0,1418.162
1418172.0,68.0,51.0,6.0,93.0,1418.172
1418182.0,67.0,52.0,4.0,100.0,1418.182
1418192.0,67.0,50.0,5.0,91.0,1418.192
1418202.0,67.0,49.0,4.0,86.0,1418.202
1418212.0,71.0,50.0,3.0,85.0,1418.212
1418222.0,72.0,50.0,5.0,80.0,1418.222
1418232.0,69.0,50.0,5.0,79.0,1418.232
1418242.0,69.0,49.0,5.0,79.0,1418.242
1418252.0,79.0,50.0,4.0,74.0,1418.252
1418262.0,83.0,52.0,3.0,71.0,1418.262
1418272.0,83.0,51.0,4.0,68.0,1418.272
1418283.0,93.0,54.0,5.0,66.0,1418.283
1418293.0,97.0,55.0,9.0,63.0,1418.293
1418303.0,93.0,58.0,9.0,59.0,1418.303
1418313.0,91.0,63.0,16.0,61.0,1418.313
1418323.0,88.0,82.0,20.0,63.0,1418.323
1418333.0,87.0,89.0,25.0,63.0,1418.333
1418343.0,83.0,94.0,23.0,62.0,1418.343
1418353.0,85.0,94.0,22.0,62.0,1418.353
1418363.0,90.0,98.0,23.0,61.0,1418.363
1418373.0,87.0,115.0,27.0,63.0,1418.373
1418383.0,87.0,122.0,33.0,60.0,1418.383
1418393.0,92.0,114.0,30.0,58.0,1418.393
1418403.0,89.0,113.0,30.0,53.0,1418.403
1418413.0,90.0,111.0,27.0,56.0,1418.413
1418423.0,85.0,106.0,25.0,54.0,1418.423
1418433.0,94.0,100.0,22.0,52.0,1418.433
1418443.0,96.0,102.0,19.0,51.0,1418.443
1418454.0,94.0,101.0,18.0,51.0,1418.454
1418464.0,88.0,99.0,15.0,51.0,1418.464
1418474.0,85.0,107.0,14.0,49.0,1418.474
1418484.0,84.0,114.0,17.0,49.0,1418.484
1418494.0,83.0,119.0,17.0,48.0,1418.494
1418504.0,83.0,133.0,20.0,48.0,1418.504
1418514.0,77.0,133.0,17.0,54.0,1418.514
1418524.0,79.0,126.0,17.0,53.0,1418.524
1418534.0,76.0,126.0,14.0,50.0,1418.534
1418544.0,74.0,127.0,19.0,53.0,1418.544
1418554.0,72.0,130.0,18.0,56.0,1418.554
1418564.0,74.0,135.0,31.0,67.0,1418.564
1418574.0,79.0,140.0,33.0,78.0,1418.574
1418584.0,84.0,138.0,41.0,92.0,1418.584
1418594.0,80.0,137.0,41.0,93.0,1418.594
1418604.0,76.0,142.0,36.0,86.0,1418.604
1418614.0,73.0,144.0,33.0,79.0,1418.614
1418624.0,70.0,146.0,29.0,72.0,1418.624
1418634.0,71.0,152.0,26.0,68.0,1418.634
1418644.0,75.0,150.0,23.0,66.0,1418.644
1418654.0,76.0,151.0,21.0,77.0,1418.654
1418664.0,74.0,156.0,20.0,74.0,1418.664
1418674.0,74.0,155.0,18.0,70.0,1418.674
1418684.0,76.0,150.0,16.0,66.0,1418.684
1418694.0,81.0,149.0,15.0,65.0,1418.694
1418704.0,87.0,152.0,14.0,62.0,1418.704
1418714.0,90.0,145.0,12.0,59.0,1418.714
1418724.0,91.0,144.0,11.0,56.0,1418.724
1418734.0,88.0,143.0,11.0,53.0,1418.734
1418744.0,84.0,144.0,9.0,55.0,1418.744
1418754.0,80.0,144.0,12.0,59.0,1418.754
1418764.0,83.0,143.0,14.0,58.0,1418.764
1418774.0,82.0,142.0,13.0,55.0,1418.774
1418784.0,77.0,142.0,12.0,52.0,1418.784
1418795.0,73.0,142.0,11.0,48.0,1418.795
1418805.0,72.0,142.0,11.0,46.0,1418.805
1418815.0,72.0,143.0,10.0,48.0,1418.815
1418825.0,70.0,142.0,9.0,47.0,1418.825
1418835.0,70.0,140.0,8.0,45.0,1418.835
1418845.0,67.0,141.0,7.0,43.0,1418.845
1418855.0,67.0,142.0,7.0,44.0,1418.855
1418865.0,65.0,137.0,7.0,44.0,1418.865
1418875.0,64.0,137.0,8.0,43.0,1418.875
1418885.0,64.0,134.0,6.0,41.0,1418.885
1418895.0,63.0,134.0,5.0,39.0,1418.895
1418905.0,66.0,133.0,6.0,38.0,1418.905
1418915.0,71.0,140.0,8.0,49.0,1418.915
1418925.0,70.0,136.0,8.0,47.0,1418.925
1418935.0,69.0,129.0,7.0,45.0,1418.935
1418945.0,69.0,127.0,8.0,42.0,1418.945
1418955.0,69.0,124.0,6.0,40.0,1418.955
1418966.0,71.0,125.0,6.0,41.0,1418.966
1418976.0,68.0,124.0,6.0,39.0,1418.976
1418986.0,71.0,124.0,6.0,41.0,1418.986
1418996.0,70.0,120.0,9.0,44.0,1418.996
1419006.0,70.0,116.0,9.0,44.0,1419.006
1419016.0,70.0,112.0,9.0,44.0,1419.016
1419026.0,67.0,111.0,8.0,47.0,1419.026
1419036.0,67.0,111.0,6.0,44.0,1419.036
1419046.0,65.0,111.0,7.0,41.0,1419.046
1419056.0,67.0,112.0,6.0,42.0,1419.056
1419066.0,67.0,110.0,7.0,42.0,1419.066
1419076.0,66.0,108.0,6.0,41.0,1419.076
1419086.0,65.0,106.0,10.0,43.0,1419.086
1419096.0,65.0,102.0,9.0,42.0,1419.096
1419106.0,64.0,100.0,8.0,40.0,1419.106
1419116.0,66.0,101.0,7.0,40.0,1419.116
1419126.0,64.0,100.0,6.0,38.0,1419.126
1419136.0,64.0,98.0,9.0,40.0,1419.136
1419146.0,65.0,99.0,8.0,39.0,1419.146
1419156.0,63.0,96.0,8.0,37.0,1419.156
1419166.0,67.0,96.0,7.0,36.0,1419.166
1419176.0,65.0,95.0,6.0,37.0,1419.176
1419186.0,64.0,97.0,13.0,40.0,1419.186
1419196.0,62.0,96.0,11.0,41.0,1419.196
1419206.0,62.0,96.0,10.0,40.0,1419.206
1419216.0,64.0,93.0,9.0,39.0,1419.216
1419226.0,64.0,91.0,8.0,37.0,1419.226
1419236.0,67.0,91.0,8.0,37.0,1419.236
1419246.0,64.0,90.0,6.0,36.0,1419.246
1419256.0,62.0,89.0,7.0,34.0,1419.256
1419266.0,61.0,86.0,6.0,34.0,1419.266
1419276.0,61.0,87.0,7.0,36.0,1419.276
1419286.0,61.0,88.0,7.0,37.0,1419.286
1419296.0,59.0,85.0,6.0,37.0,1419.296
1419307.0,59.0,85.0,8.0,36.0,1419.307
1419317.0,58.0,87.0,7.0,39.0,1419.317
1419327.0,58.0,86.0,7.0,37.0,1419.327
1419337.0,57.0,85.0,7.0,37.0,1419.337
1419347.0,59.0,83.0,8.0,40.0,1419.347
1419357.0,57.0,81.0,7.0,40.0,1419.357
1419367.0,57.0,81.0,8.0,40.0,1419.367
1419377.0,60.0,81.0,13.0,45.0,1419.377
1419387.0,60.0,80.0,11.0,45.0,1419.387
1419397.0,60.0,79.0,10.0,46.0,1419.397
1419407.0,58.0,79.0,10.0,45.0,1419.407
1419417.0,57.0,80.0,9.0,44.0,1419.417
1419427.0,56.0,79.0,8.0,41.0,1419.427
1419437.0,55.0,76.0,10.0,42.0,1419.437
1419447.0,59.0,76.0,9.0,40.0,1419.447
1419457.0,58.0,74.0,7.0,38.0,1419.457
1419467.0,58.0,74.0,7.0,36.0,1419.467
1419478.0,57.0,72.0,8.0,36.0,1419.478
1419488.0,56.0,74.0,10.0,42.0,1419.488
1419498.0,57.0,73.0,8.0,41.0,1419.498
1419508.0,57.0,75.0,8.0,40.0,1419.508
1419518.0,57.0,74.0,10.0,43.0,1419.518
1419528.0,60.0,74.0,8.0,44.0,1419.528
1419538.0,60.0,72.0,8.0,41.0,1419.538
1419548.0,59.0,72.0,7.0,40.0,1419.548
1419558.0,59.0,70.0,8.0,40.0,1419.558
1419568.0,57.0,68.0,8.0,39.0,1419.568
1419578.0,56.0,68.0,8.0,37.0,1419.578
1419588.0,57.0,71.0,8.0,35.0,1419.588
1419598.0,56.0,71.0,6.0,35.0,1419.598
1419608.0,60.0,71.0,7.0,35.0,1419.608
1419618.0,57.0,73.0,5.0,35.0,1419.618
1419628.0,58.0,77.0,5.0,32.0,1419.628
1419638.0,60.0,76.0,6.0,33.0,1419.638
1419648.0,62.0,79.0,5.0,32.0,1419.648
1419658.0,63.0,79.0,6.0,31.0,1419.658
1419668.0,61.0,81.0,4.0,30.0,1419.668
1419678.0,60.0,80.0,4.0,29.0,1419.678
1419688.0,58.0,80.0,4.0,30.0,1419.688
1419698.0,60.0,79.0,4.0,29.0,1419.698
1419708.0,62.0,78.0,4.0,30.0,1419.708
1419718.0,61.0,79.0,3.0,29.0,1419.718
1419728.0,64.0,80.0,5.0,33.0,1419.728
1419738.0,61.0,82.0,4.0,37.0,1419.738
1419748.0,63.0,82.0,5.0,39.0,1419.748
1419758.0,65.0,82.0,4.0,39.0,1419.758
1419768.0,65.0,81.0,4.0,38.0,1419.768
1419778.0,68.0,81.0,4.0,37.0,1419.778
1419788.0,65.0,80.0,4.0,37.0,1419.788
1419798.0,66.0,78.0,4.0,35.0,1419.798
1419808.0,65.0,77.0,4.0,34.0,1419.808
1419819.0,63.0,77.0,4.0,33.0,1419.819
1419829.0,63.0,78.0,4.0,38.0,1419.829
1419839.0,62.0,77.0,3.0,37.0,1419.839
1419849.0,62.0,76.0,4.0,36.0,1419.849
1419859.0,61.0,76.0,3.0,36.0,1419.859
1419869.0,61.0,74.0,4.0,36.0,1419.869
1419879.0,62.0,75.0,4.0,35.0,1419.879
1419889.0,62.0,76.0,4.0,33.0,1419.889
1419899.0,64.0,76.0,3.0,33.0,1419.899
1419909.0,66.0,78.0,3.0,33.0,1419.909
1419919.0,67.0,78.0,3.0,32.0,1419.919
1419929.0,68.0,77.0,3.0,32.0,1419.929
1419939.0,70.0,78.0,4.0,31.0,1419.939
1419949.0,70.0,80.0,3.0,30.0,1419.949
1419959.0,70.0,81.0,3.0,32.0,1419.959
1419969.0,71.0,82.0,3.0,33.0,1419.969
1419979.0,72.0,82.0,3.0,32.0,1419.979
1419990.0,71.0,82.0,3.0,33.0,1419.99
1420000.0,73.0,80.0,3.0,37.0,1420.0
1420010.0,76.0,79.0,5.0,39.0,1420.01
1420020.0,76.0,80.0,4.0,37.0,1420.02
1420030.0,76.0,79.0,4.0,35.0,1420.03
1420040.0,75.0,77.0,4.0,36.0,1420.04
1420050.0,75.0,75.0,3.0,36.0,1420.05
1420060.0,78.0,72.0,4.0,34.0,1420.06
1420070.0,76.0,71.0,4.0,33.0,1420.07
1420080.0,77.0,68.0,4.0,34.0,1420.08
1420090.0,75.0,68.0,4.0,35.0,1420.09
1420100.0,74.0,68.0,3.0,34.0,1420.1
1420110.0,76.0,64.0,4.0,35.0,1420.11
1420120.0,75.0,63.0,3.0,34.0,1420.12
1420130.0,75.0,62.0,4.0,34.0,1420.13
1420140.0,75.0,62.0,4.0,33.0,1420.14
1420150.0,75.0,61.0,4.0,34.0,1420.15
1420160.0,75.0,60.0,4.0,33.0,1420.16
1420170.0,74.0,63.0,4.0,33.0,1420.17
1420180.0,75.0,61.0,4.0,33.0,1420.18
1420190.0,74.0,64.0,3.0,31.0,1420.19
1420200.0,75.0,62.0,3.0,29.0,1420.2
1420210.0,76.0,62.0,3.0,31.0,1420.21
1420220.0,77.0,60.0,4.0,30.0,1420.22
1420230.0,73.0,61.0,4.0,34.0,1420.23
1420240.0,72.0,60.0,4.0,36.0,1420.24
1420250.0,74.0,56.0,4.0,36.0,1420.25
1420260.0,72.0,56.0,3.0,37.0,1420.26
1420270.0,72.0,55.0,4.0,34.0,1420.27
1420280.0,72.0,55.0,3.0,33.0,1420.28
1420290.0,72.0,54.0,3.0,32.0,1420.29
1420300.0,72.0,54.0,4.0,32.0,1420.3
1420310.0,70.0,57.0,2.0,31.0,1420.31
1420320.0,68.0,57.0,4.0,32.0,1420.32
1420331.0,70.0,58.0,3.0,31.0,1420.331
1420341.0,69.0,56.0,3.0,30.0,1420.341
1420351.0,67.0,54.0,3.0,29.0,1420.351
1420361.0,68.0,53.0,4.0,29.0,1420.361
1420371.0,67.0,51.0,3.0,30.0,1420.371
1420381.0,68.0,50.0,2.0,30.0,1420.381
1420391.0,68.0,49.0,4.0,29.0,1420.391
1420401.0,67.0,52.0,3.0,29.0,1420.401
1420411.0,67.0,52.0,7.0,32.0,1420.411
1420421.0,64.0,60.0,9.0,47.0,1420.421
1420431.0,67.0,67.0,22.0,84.0,1420.431
1420441.0,70.0,67.0,46.0,128.0,1420.441
1420451.0,71.0,67.0,48.0,170.0,1420.451
1420461.0,74.0,69.0,54.0,176.0,1420.461
1420471.0,76.0,77.0,77.0,257.0,1420.471
1420481.0,81.0,73.0,76.0,288.0,1420.481
1420491.0,90.0,76.0,94.0,278.0,1420.491
1420502.0,89.0,75.0,97.0,312.0,1420.502
1420512.0,94.0,73.0,132.0,314.0,1420.512
1420522.0,104.0,72.0,125.0,302.0,1420.522
1420532.0,107.0,71.0,133.0,300.0,1420.532
1420542.0,119.0,79.0,140.0,300.0,1420.542
1420552.0,133.0,83.0,131.0,300.0,1420.552
1420562.0,144.0,85.0,130.0,278.0,1420.562
1420572.0,155.0,87.0,133.0,273.0,1420.572
1420582.0,177.0,97.0,120.0,287.0,1420.582
1420592.0,182.0,95.0,116.0,308.0,1420.592
1420602.0,186.0,99.0,126.0,335.0,1420.602
1420612.0,197.0,109.0,148.0,345.0,1420.612
1420622.0,201.0,118.0,174.0,347.0,1420.622
1420632.0,207.0,132.0,166.0,366.0,1420.632
1420642.0,203.0,143.0,156.0,392.0,1420.642
1420652.0,197.0,150.0,138.0,379.0,1420.652
1420662.0,188.0,158.0,135.0,371.0,1420.662
1420672.0,180.0,163.0,130.0,394.0,1420.672
1420682.0,172.0,172.0,119.0,389.0,1420.682
1420692.0,163.0,178.0,108.0,375.0,1420.692
1420702.0,158.0,184.0,98.0,348.0,1420.702
1420712.0,153.0,187.0,105.0,326.0,1420.712
1420722.0,150.0,189.0,106.0,356.0,1420.722
1420732.0,147.0,194.0,95.0,346.0,1420.732
1420742.0,143.0,196.0,99.0,327.0,1420.742
1420752.0,138.0,196.0,89.0,300.0,1420.752
1420762.0,137.0,197.0,80.0,279.0,1420.762
1420772.0,134.0,195.0,74.0,298.0,1420.772
1420782.0,132.0,196.0,76.0,306.0,1420.782
1420792.0,128.0,194.0,95.0,286.0,1420.792
1420802.0,126.0,194.0,100.0,270.0,1420.802
1420812.0,122.0,193.0,86.0,243.0,1420.812
1420822.0,121.0,191.0,75.0,229.0,1420.822
1420832.0,119.0,187.0,67.0,213.0,1420.832
1420843.0,116.0,186.0,62.0,206.0,1420.843
1420853.0,114.0,184.0,59.0,214.0,1420.853
1420863.0,110.0,182.0,57.0,209.0,1420.863
1420873.0,106.0,180.0,50.0,202.0,1420.873
1420883.0,105.0,179.0,46.0,191.0,1420.883
1420893.0,102.0,179.0,48.0,174.0,1420.893
1420903.0,99.0,177.0,50.0,181.0,1420.903
1420913.0,101.0,177.0,45.0,176.0,1420.913
1420923.0,96.0,176.0,41.0,172.0,1420.923
1420933.0,96.0,176.0,42.0,168.0,1420.933
1420943.0,93.0,171.0,56.0,169.0,1420.943
1420953.0,90.0,171.0,55.0,160.0,1420.953
1420963.0,92.0,172.0,50.0,158.0,1420.963
1420973.0,91.0,172.0,47.0,189.0,1420.973
1420983.0,92.0,170.0,44.0,180.0,1420.983
1420993.0,92.0,171.0,49.0,172.0,1420.993
1421003.0,91.0,169.0,45.0,163.0,1421.003
1421014.0,93.0,168.0,40.0,175.0,1421.014
1421024.0,94.0,166.0,42.0,170.0,1421.024
1421034.0,94.0,163.0,36.0,167.0,1421.034
1421044.0,94.0,162.0,39.0,152.0,1421.044
1421054.0,92.0,158.0,51.0,154.0,1421.054
1421064.0,92.0,161.0,56.0,153.0,1421.064
1421074.0,94.0,164.0,51.0,141.0,1421.074
1421084.0,91.0,161.0,52.0,132.0,1421.084
1421094.0,90.0,160.0,46.0,126.0,1421.094
1421104.0,89.0,157.0,41.0,124.0,1421.104
1421114.0,86.0,155.0,38.0,119.0,1421.114
1421124.0,85.0,152.0,39.0,115.0,1421.124
1421134.0,82.0,150.0,37.0,115.0,1421.134
1421144.0,81.0,149.0,34.0,118.0,1421.144
1421154.0,78.0,143.0,35.0,121.0,1421.154
1421164.0,79.0,144.0,36.0,115.0,1421.164
1421174.0,77.0,141.0,38.0,116.0,1421.174
1421184.0,78.0,141.0,38.0,120.0,1421.184
1421194.0,76.0,138.0,34.0,110.0,1421.194
1421204.0,75.0,136.0,35.0,112.0,1421.204
1421214.0,75.0,135.0,32.0,106.0,1421.214
1421224.0,73.0,131.0,37.0,101.0,1421.224
1421234.0,71.0,130.0,32.0,111.0,1421.234
1421244.0,74.0,129.0,30.0,123.0,1421.244
1421254.0,75.0,127.0,31.0,120.0,1421.254
1421264.0,76.0,124.0,30.0,112.0,1421.264
1421274.0,77.0,123.0,27.0,111.0,1421.274
1421284.0,77.0,120.0,29.0,113.0,1421.284
1421294.0,79.0,120.0,26.0,112.0,1421.294
1421304.0,78.0,119.0,22.0,114.0,1421.304
1421314.0,79.0,117.0,20.0,111.0,1421.314
1421324.0,80.0,116.0,18.0,112.0,1421.324
1421334.0,79.0,112.0,20.0,115.0,1421.334
1421344.0,79.0,113.0,24.0,123.0,1421.344
1421355.0,79.0,110.0,25.0,121.0,1421.355
1421365.0,81.0,110.0,24.0,117.0,1421.365
1421375.0,80.0,107.0,20.0,110.0,1421.375
1421385.0,81.0,105.0,19.0,111.0,1421.385
1421395.0,81.0,104.0,18.0,109.0,1421.395
1421405.0,81.0,100.0,18.0,108.0,1421.405
1421415.0,82.0,98.0,15.0,108.0,1421.415
1421425.0,81.0,98.0,15.0,103.0,1421.425
1421435.0,78.0,95.0,16.0,107.0,1421.435
1421445.0,78.0,95.0,14.0,107.0,1421.445
1421455.0,74.0,93.0,12.0,96.0,1421.455
1421465.0,73.0,94.0,14.0,102.0,1421.465
1421475.0,69.0,92.0,15.0,97.0,1421.475
1421485.0,67.0,89.0,17.0,100.0,1421.485
1421495.0,67.0,93.0,25.0,100.0,1421.495
1421505.0,67.0,94.0,21.0,96.0,1421.505
1421515.0,66.0,94.0,20.0,101.0,1421.515
1421526.0,66.0,93.0,18.0,103.0,1421.526
1421536.0,66.0,95.0,16.0,104.0,1421.536
1421546.0,66.0,95.0,17.0,110.0,1421.546
1421556.0,69.0,96.0,16.0,107.0,1421.556
1421566.0,68.0,93.0,13.0,97.0,1421.566
1421576.0,70.0,93.0,15.0,91.0,1421.576
1421586.0,69.0,89.0,13.0,90.0,1421.586
1421596.0,69.0,87.0,12.0,84.0,1421.596
1421606.0,70.0,88.0,10.0,82.0,1421.606
1421616.0,71.0,86.0,10.0,78.0,1421.616
1421626.0,72.0,86.0,9.0,74.0,1421.626
1421636.0,72.0,83.0,9.0,71.0,1421.636
1421646.0,72.0,82.0,9.0,80.0,1421.646
1421656.0,71.0,82.0,8.0,82.0,1421.656
1421666.0,70.0,81.0,8.0,105.0,1421.666
1421676.0,71.0,79.0,10.0,104.0,1421.676
1421686.0,70.0,78.0,10.0,101.0,1421.686
1421696.0,71.0,77.0,9.0,96.0,1421.696
1421706.0,69.0,75.0,8.0,100.0,1421.706
1421716.0,71.0,74.0,8.0,95.0,1421.716
1421726.0,70.0,73.0,7.0,92.0,1421.726
1421736.0,70.0,70.0,7.0,89.0,1421.736
1421746.0,70.0,67.0,7.0,88.0,1421.746
1421756.0,67.0,65.0,6.0,87.0,1421.756
1421766.0,68.0,64.0,7.0,87.0,1421.766
1421776.0,67.0,63.0,7.0,87.0,1421.776
1421786.0,65.0,62.0,10.0,88.0,1421.786
1421796.0,65.0,62.0,12.0,87.0,1421.796
1421806.0,63.0,62.0,15.0,86.0,1421.806
1421816.0,64.0,63.0,14.0,103.0,1421.816
1421826.0,64.0,63.0,11.0,98.0,1421.826
1421836.0,64.0,62.0,12.0,92.0,1421.836
1421846.0,64.0,61.0,10.0,85.0,1421.846
1421856.0,65.0,60.0,10.0,85.0,1421.856
1421867.0,63.0,59.0,8.0,84.0,1421.867
1421877.0,63.0,58.0,9.0,86.0,1421.877
1421887.0,64.0,57.0,16.0,113.0,1421.887
1421897.0,66.0,58.0,15.0,112.0,1421.897
1421907.0,66.0,55.0,14.0,106.0,1421.907
1421917.0,65.0,55.0,14.0,105.0,1421.917
1421927.0,65.0,54.0,16.0,118.0,1421.927
1421937.0,62.0,51.0,15.0,123.0,1421.937
1421947.0,62.0,51.0,13.0,111.0,1421.947
1421957.0,62.0,49.0,13.0,107.0,1421.957
1421967.0,61.0,49.0,13.0,103.0,1421.967
1421977.0,60.0,46.0,12.0,115.0,1421.977
1421987.0,60.0,46.0,11.0,112.0,1421.987
1421997.0,59.0,45.0,11.0,125.0,1421.997
1422007.0,58.0,45.0,10.0,129.0,1422.007
1422017.0,55.0,44.0,8.0,116.0,1422.017
1422027.0,54.0,43.0,7.0,109.0,1422.027
1422038.0,51.0,42.0,7.0,102.0,1422.038
1422048.0,51.0,42.0,7.0,92.0,1422.048
1422058.0,49.0,42.0,5.0,90.0,1422.058
1422068.0,48.0,43.0,6.0,85.0,1422.068
1422078.0,49.0,43.0,5.0,80.0,1422.078
1422088.0,47.0,43.0,5.0,74.0,1422.088
1422098.0,47.0,41.0,6.0,71.0,1422.098
1422108.0,45.0,42.0,5.0,68.0,1422.108
1422118.0,45.0,40.0,6.0,64.0,1422.118
1422128.0,45.0,41.0,4.0,64.0,1422.128
1422138.0,45.0,42.0,5.0,64.0,1422.138
1422148.0,45.0,42.0,5.0,70.0,1422.148
1422158.0,42.0,42.0,7.0,80.0,1422.158
1422168.0,45.0,43.0,9.0,80.0,1422.168
1422178.0,45.0,47.0,9.0,78.0,1422.178
1422188.0,46.0,46.0,10.0,88.0,1422.188
1422198.0,45.0,48.0,8.0,85.0,1422.198
1422208.0,45.0,48.0,8.0,83.0,1422.208
1422218.0,46.0,47.0,8.0,75.0,1422.218
1422228.0,45.0,47.0,7.0,73.0,1422.228
1422238.0,45.0,45.0,7.0,77.0,1422.238
1422248.0,45.0,46.0,9.0,82.0,1422.248
1422258.0,45.0,46.0,8.0,81.0,1422.258
1422268.0,46.0,45.0,8.0,77.0,1422.268
1422278.0,45.0,44.0,9.0,78.0,1422.278
1422288.0,45.0,42.0,8.0,83.0,1422.288
1422298.0,43.0,41.0,7.0,77.0,1422.298
1422308.0,44.0,41.0,7.0,76.0,1422.308
1422318.0,44.0,41.0,7.0,79.0,1422.318
1422328.0,43.0,39.0,6.0,76.0,1422.328
1422338.0,45.0,39.0,6.0,78.0,1422.338
1422348.0,45.0,38.0,5.0,82.0,1422.348
1422358.0,45.0,38.0,6.0,81.0,1422.358
1422368.0,44.0,37.0,5.0,87.0,1422.368
1422379.0,45.0,37.0,5.0,88.0,1422.379
1422389.0,46.0,39.0,6.0,90.0,1422.389
1422399.0,47.0,38.0,6.0,84.0,1422.399
1422409.0,47.0,38.0,5.0,85.0,1422.409
1422419.0,46.0,37.0,5.0,79.0,1422.419
1422429.0,46.0,36.0,5.0,73.0,1422.429
1422439.0,44.0,36.0,6.0,77.0,1422.439
1422449.0,44.0,36.0,6.0,79.0,1422.449
1422459.0,45.0,38.0,6.0,79.0,1422.459
1422469.0,46.0,36.0,6.0,76.0,1422.469
1422479.0,47.0,37.0,6.0,81.0,1422.479
1422489.0,47.0,37.0,5.0,78.0,1422.489
1422499.0,48.0,37.0,5.0,77.0,1422.499
1422509.0,49.0,37.0,5.0,78.0,1422.509
1422519.0,51.0,37.0,5.0,78.0,1422.519
1422529.0,51.0,38.0,5.0,79.0,1422.529
1422539.0,52.0,37.0,5.0,74.0,1422.539
1422550.0,51.0,36.0,5.0,77.0,1422.55
1422560.0,51.0,37.0,7.0,78.0,1422.56
1422570.0,52.0,37.0,8.0,75.0,1422.57
1422580.0,52.0,36.0,8.0,76.0,1422.58
1422590.0,52.0,36.0,9.0,71.0,1422.59
1422600.0,53.0,36.0,8.0,86.0,1422.6
1422610.0,53.0,36.0,8.0,94.0,1422.61
1422620.0,52.0,35.0,8.0,91.0,1422.62
1422630.0,53.0,36.0,7.0,88.0,1422.63
1422640.0,54.0,36.0,6.0,84.0,1422.64
1422650.0,52.0,36.0,7.0,78.0,1422.65
1422660.0,53.0,35.0,7.0,77.0,1422.66
1422670.0,52.0,35.0,7.0,83.0,1422.67
1422680.0,52.0,36.0,7.0,77.0,1422.68
1422690.0,51.0,35.0,6.0,80.0,1422.69
1422700.0,50.0,35.0,6.0,76.0,1422.7
1422710.0,52.0,35.0,9.0,70.0,1422.71
1422720.0,51.0,35.0,8.0,75.0,1422.72
1422730.0,52.0,35.0,7.0,84.0,1422.73
1422740.0,51.0,36.0,6.0,79.0,1422.74
1422750.0,51.0,37.0,6.0,74.0,1422.75
1422760.0,52.0,38.0,7.0,69.0,1422.76
1422770.0,50.0,39.0,6.0,64.0,1422.77
1422780.0,50.0,37.0,7.0,65.0,1422.78
1422790.0,48.0,37.0,6.0,64.0,1422.79
1422800.0,49.0,37.0,5.0,60.0,1422.8
1422810.0,50.0,37.0,4.0,58.0,1422.81
1422820.0,49.0,38.0,5.0,55.0,1422.82
1422830.0,50.0,38.0,5.0,58.0,1422.83
1422840.0,49.0,38.0,5.0,61.0,1422.84
1422850.0,51.0,37.0,4.0,56.0,1422.85
1422860.0,52.0,37.0,4.0,54.0,1422.86
1422870.0,51.0,36.0,7.0,53.0,1422.87
1422880.0,53.0,37.0,7.0,51.0,1422.88
1422891.0,53.0,36.0,6.0,49.0,1422.891
1422901.0,53.0,36.0,6.0,50.0,1422.901
1422911.0,52.0,35.0,5.0,52.0,1422.911
1422921.0,54.0,35.0,6.0,50.0,1422.921
1422931.0,54.0,35.0,6.0,49.0,1422.931
1422941.0,54.0,35.0,6.0,57.0,1422.941
1422951.0,53.0,34.0,6.0,56.0,1422.951
1422961.0,54.0,34.0,5.0,60.0,1422.961
1422971.0,54.0,34.0,5.0,62.0,1422.971
1422981.0,55.0,35.0,5.0,63.0,1422.981
1422991.0,55.0,35.0,6.0,61.0,1422.991
1423001.0,54.0,35.0,4.0,60.0,1423.001
1423011.0,52.0,37.0,5.0,60.0,1423.011
1423021.0,52.0,36.0,5.0,60.0,1423.021
1423031.0,53.0,39.0,6.0,60.0,1423.031
1423041.0,53.0,38.0,5.0,58.0,1423.041
1423051.0,53.0,37.0,5.0,58.0,1423.051
1423062.0,53.0,37.0,6.0,57.0,1423.062
1423072.0,52.0,36.0,4.0,58.0,1423.072
1423082.0,50.0,37.0,4.0,57.0,1423.082
1423092.0,51.0,36.0,4.0,58.0,1423.092
1423102.0,50.0,37.0,3.0,58.0,1423.102
1423112.0,50.0,36.0,5.0,58.0,1423.112
1423122.0,52.0,37.0,4.0,61.0,1423.122
1423132.0,52.0,37.0,5.0,58.0,1423.132
1423142.0,51.0,37.0,4.0,61.0,1423.142
1423152.0,50.0,38.0,3.0,57.0,1423.152
1423162.0,50.0,39.0,4.0,56.0,1423.162
1423172.0,50.0,39.0,3.0,58.0,1423.172
1423182.0,50.0,39.0,4.0,60.0,1423.182
1423192.0,50.0,41.0,3.0,57.0,1423.192
1423202.0,51.0,40.0,4.0,55.0,1423.202
1423212.0,51.0,39.0,4.0,52.0,1423.212
1423222.0,48.0,39.0,6.0,52.0,1423.222
1423232.0,50.0,37.0,8.0,53.0,1423.232
1423242.0,49.0,39.0,7.0,51.0,1423.242
1423252.0,48.0,39.0,7.0,52.0,1423.252
1423262.0,48.0,41.0,6.0,54.0,1423.262
1423272.0,47.0,43.0,7.0,51.0,1423.272
1423282.0,48.0,43.0,6.0,55.0,1423.282
1423292.0,47.0,45.0,8.0,55.0,1423.292
1423302.0,47.0,44.0,8.0,53.0,1423.302
1423312.0,49.0,47.0,7.0,55.0,1423.312
1423322.0,49.0,46.0,7.0,53.0,1423.322
1423332.0,49.0,48.0,7.0,51.0,1423.332
1423342.0,49.0,49.0,6.0,50.0,1423.342
1423352.0,50.0,49.0,6.0,50.0,1423.352
1423362.0,48.0,51.0,4.0,58.0,1423.362
1423372.0,48.0,52.0,6.0,61.0,1423.372
1423382.0,49.0,53.0,10.0,67.0,1423.382
1423392.0,49.0,52.0,9.0,64.0,1423.392
1423403.0,50.0,52.0,8.0,61.0,1423.403
1423413.0,51.0,52.0,7.0,60.0,1423.413
1423423.0,51.0,51.0,7.0,57.0,1423.423
1423433.0,52.0,50.0,6.0,57.0,1423.433
1423443.0,53.0,51.0,6.0,58.0,1423.443
1423453.0,52.0,48.0,6.0,58.0,1423.453
1423463.0,53.0,46.0,6.0,58.0,1423.463
1423473.0,53.0,46.0,6.0,56.0,1423.473
1423483.0,52.0,46.0,6.0,58.0,1423.483
1423493.0,52.0,46.0,6.0,58.0,1423.493
1423503.0,52.0,47.0,6.0,59.0,1423.503
1423513.0,52.0,48.0,6.0,59.0,1423.513
1423523.0,54.0,49.0,5.0,59.0,1423.523
1423533.0,55.0,48.0,6.0,59.0,1423.533
1423543.0,58.0,49.0,5.0,60.0,1423.543
1423553.0,59.0,49.0,6.0,58.0,1423.553
1423563.0,61.0,49.0,6.0,64.0,1423.563
1423574.0,59.0,48.0,5.0,62.0,1423.574
1423584.0,58.0,47.0,5.0,61.0,1423.584
1423594.0,58.0,48.0,5.0,63.0,1423.594
1423604.0,59.0,48.0,6.0,58.0,1423.604
1423614.0,58.0,48.0,7.0,60.0,1423.614
1423624.0,58.0,48.0,6.0,56.0,1423.624
1423634.0,58.0,47.0,6.0,51.0,1423.634
1423644.0,58.0,46.0,6.0,51.0,1423.644
1423654.0,57.0,45.0,5.0,50.0,1423.654
1423664.0,58.0,44.0,5.0,51.0,1423.664
1423674.0,57.0,44.0,5.0,54.0,1423.674
1423684.0,54.0,42.0,5.0,55.0,1423.684
1423694.0,53.0,42.0,5.0,62.0,1423.694
1423704.0,53.0,42.0,5.0,62.0,1423.704
1423714.0,52.0,42.0,4.0,60.0,1423.714
1423724.0,51.0,41.0,5.0,59.0,1423.724
1423734.0,51.0,41.0,5.0,59.0,1423.734
1423744.0,51.0,41.0,6.0,61.0,1423.744
1423754.0,51.0,39.0,5.0,60.0,1423.754
1423764.0,51.0,40.0,5.0,59.0,1423.764
1423774.0,53.0,42.0,6.0,57.0,1423.774
1423784.0,50.0,42.0,5.0,57.0,1423.784
1423794.0,51.0,41.0,5.0,59.0,1423.794
1423804.0,52.0,42.0,4.0,87.0,1423.804
1423814.0,51.0,42.0,5.0,95.0,1423.814
1423824.0,53.0,42.0,7.0,114.0,1423.824
1423834.0,52.0,44.0,6.0,122.0,1423.834
1423844.0,52.0,44.0,8.0,112.0,1423.844
1423854.0,50.0,44.0,6.0,102.0,1423.854
1423864.0,49.0,44.0,6.0,98.0,1423.864
1423874.0,48.0,44.0,6.0,91.0,1423.874
1423884.0,47.0,43.0,5.0,82.0,1423.884
1423894.0,47.0,42.0,6.0,82.0,1423.894
1423904.0,47.0,42.0,5.0,77.0,1423.904
1423915.0,47.0,41.0,6.0,74.0,1423.915
1423925.0,49.0,42.0,6.0,80.0,1423.925
1423935.0,49.0,43.0,6.0,87.0,1423.935
1423945.0,48.0,43.0,6.0,85.0,1423.945
1423955.0,48.0,43.0,5.0,80.0,1423.955
1423965.0,48.0,43.0,5.0,77.0,1423.965
1423975.0,47.0,44.0,5.0,85.0,1423.975
1423985.0,50.0,45.0,6.0,87.0,1423.985
1423995.0,49.0,46.0,6.0,84.0,1423.995
1424005.0,50.0,46.0,5.0,82.0,1424.005
1424015.0,52.0,45.0,5.0,79.0,1424.015
1424025.0,51.0,47.0,5.0,77.0,1424.025
1424035.0,50.0,44.0,5.0,76.0,1424.035
1424045.0,49.0,45.0,5.0,76.0,1424.045
1424055.0,51.0,45.0,7.0,93.0,1424.055
1424065.0,52.0,46.0,6.0,95.0,1424.065
1424075.0,51.0,46.0,6.0,103.0,1424.075
1424086.0,52.0,45.0,5.0,99.0,1424.086
1424096.0,51.0,46.0,5.0,97.0,1424.096
1424106.0,52.0,44.0,5.0,98.0,1424.106
1424116.0,52.0,44.0,4.0,93.0,1424.116
1424126.0,52.0,45.0,5.0,87.0,1424.126
1424136.0,51.0,44.0,4.0,91.0,1424.136
1424146.0,50.0,46.0,5.0,84.0,1424.146
1424156.0,50.0,47.0,6.0,87.0,1424.156
1424166.0,50.0,47.0,5.0,90.0,1424.166
1424176.0,52.0,47.0,5.0,85.0,1424.176
1424186.0,54.0,49.0,5.0,98.0,1424.186
1424196.0,57.0,49.0,6.0,98.0,1424.196
1424206.0,57.0,48.0,6.0,93.0,1424.206
1424216.0,57.0,48.0,5.0,91.0,1424.216
1424226.0,59.0,49.0,5.0,87.0,1424.226
1424236.0,59.0,49.0,5.0,86.0,1424.236
1424246.0,61.0,49.0,8.0,100.0,1424.246
1424256.0,61.0,48.0,7.0,101.0,1424.256
1424266.0,61.0,46.0,9.0,96.0,1424.266
1424276.0,62.0,47.0,8.0,94.0,1424.276
1424286.0,60.0,45.0,7.0,92.0,1424.286
1424296.0,61.0,43.0,7.0,88.0,1424.296
1424306.0,58.0,42.0,6.0,83.0,1424.306
1424316.0,60.0,42.0,7.0,89.0,1424.316
1424326.0,60.0,42.0,5.0,87.0,1424.326
1424336.0,60.0,40.0,7.0,88.0,1424.336
1424346.0,59.0,38.0,5.0,83.0,1424.346
1424356.0,59.0,40.0,6.0,89.0,1424.356
1424366.0,59.0,39.0,5.0,85.0,1424.366
1424376.0,58.0,39.0,5.0,89.0,1424.376
1424386.0,57.0,37.0,5.0,85.0,1424.386
1424396.0,56.0,37.0,4.0,78.0,1424.396
1424406.0,55.0,37.0,4.0,73.0,1424.406
1424416.0,55.0,37.0,4.0,69.0,1424.416
1424427.0,54.0,37.0,3.0,68.0,1424.427
1424437.0,53.0,36.0,4.0,75.0,1424.437
1424447.0,56.0,38.0,3.0,93.0,1424.447
1424457.0,56.0,36.0,4.0,87.0,1424.457
1424467.0,57.0,36.0,4.0,82.0,1424.467
1424477.0,59.0,36.0,3.0,86.0,1424.477
1424487.0,60.0,35.0,4.0,90.0,1424.487
1424497.0,60.0,34.0,4.0,87.0,1424.497
1424507.0,62.0,33.0,4.0,87.0,1424.507
1424517.0,62.0,34.0,3.0,86.0,1424.517
1424527.0,63.0,34.0,4.0,87.0,1424.527
1424537.0,64.0,34.0,4.0,83.0,1424.537
1424547.0,64.0,35.0,4.0,80.0,1424.547
1424557.0,63.0,36.0,3.0,80.0,1424.557
1424567.0,61.0,38.0,4.0,79.0,1424.567
1424577.0,63.0,37.0,4.0,76.0,1424.577
1424587.0,63.0,37.0,3.0,82.0,1424.587
1424598.0,64.0,36.0,4.0,78.0,1424.598
1424608.0,65.0,36.0,3.0,83.0,1424.608
1424618.0,65.0,36.0,5.0,84.0,1424.618
1424628.0,66.0,36.0,6.0,83.0,1424.628
1424638.0,66.0,36.0,4.0,78.0,1424.638
1424648.0,67.0,37.0,5.0,73.0,1424.648
1424658.0,64.0,37.0,4.0,68.0,1424.658
1424668.0,63.0,38.0,4.0,82.0,1424.668
1424678.0,64.0,37.0,4.0,87.0,1424.678
1424688.0,64.0,38.0,5.0,86.0,1424.688
1424698.0,64.0,39.0,6.0,80.0,1424.698
1424708.0,64.0,39.0,4.0,79.0,1424.708
1424718.0,63.0,40.0,6.0,77.0,1424.718
1424728.0,64.0,40.0,6.0,80.0,1424.728
1424738.0,64.0,41.0,6.0,90.0,1424.738
1424748.0,64.0,39.0,5.0,89.0,1424.748
1424758.0,63.0,39.0,5.0,85.0,1424.758
1424768.0,63.0,39.0,5.0,81.0,1424.768
1424778.0,63.0,39.0,4.0,78.0,1424.778
1424788.0,62.0,40.0,5.0,73.0,1424.788
1424798.0,63.0,40.0,5.0,78.0,1424.798
1424808.0,62.0,41.0,5.0,84.0,1424.808
1424818.0,61.0,43.0,5.0,87.0,1424.818
1424828.0,61.0,42.0,5.0,93.0,1424.828
1424838.0,63.0,41.0,5.0,95.0,1424.838
1424848.0,60.0,40.0,4.0,99.0,1424.848
1424858.0,61.0,41.0,6.0,98.0,1424.858
1424868.0,61.0,40.0,5.0,103.0,1424.868
1424878.0,61.0,39.0,5.0,98.0,1424.878
1424888.0,61.0,39.0,6.0,101.0,1424.888
1424898.0,61.0,38.0,7.0,105.0,1424.898
1424908.0,62.0,38.0,8.0,95.0,1424.908
1424918.0,62.0,39.0,6.0,91.0,1424.918
1424928.0,62.0,40.0,6.0,96.0,1424.928
1424939.0,63.0,40.0,6.0,97.0,1424.939
1424949.0,63.0,39.0,5.0,94.0,1424.949
1424959.0,65.0,38.0,5.0,92.0,1424.959
1424969.0,64.0,39.0,5.0,85.0,1424.969
1424979.0,65.0,40.0,8.0,82.0,1424.979
1424989.0,64.0,40.0,6.0,90.0,1424.989
1424999.0,65.0,41.0,6.0,101.0,1424.999
1425009.0,66.0,41.0,7.0,104.0,1425.009
1425019.0,66.0,40.0,8.0,96.0,1425.019
1425029.0,67.0,37.0,6.0,95.0,1425.029
1425039.0,65.0,38.0,5.0,89.0,1425.039
1425049.0,66.0,37.0,7.0,88.0,1425.049
1425059.0,66.0,35.0,6.0,91.0,1425.059
1425069.0,65.0,35.0,6.0,86.0,1425.069
1425079.0,66.0,35.0,6.0,87.0,1425.079
1425089.0,65.0,35.0,5.0,82.0,1425.089
1425099.0,65.0,34.0,5.0,87.0,1425.099
1425110.0,65.0,35.0,5.0,85.0,1425.11
1425120.0,66.0,35.0,5.0,80.0,1425.12
1425130.0,65.0,35.0,4.0,77.0,1425.13
1425140.0,63.0,35.0,4.0,76.0,1425.14
1425150.0,64.0,35.0,5.0,75.0,1425.15
1425160.0,64.0,37.0,5.0,86.0,1425.16
1425170.0,64.0,38.0,5.0,98.0,1425.17
1425180.0,63.0,37.0,5.0,92.0,1425.18
1425190.0,64.0,36.0,6.0,88.0,1425.19
1425200.0,62.0,37.0,5.0,81.0,1425.2
1425210.0,62.0,37.0,4.0,79.0,1425.21
1425220.0,63.0,37.0,7.0,73.0,1425.22
1425230.0,63.0,39.0,8.0,78.0,1425.23
1425240.0,63.0,37.0,8.0,77.0,1425.24
1425250.0,63.0,37.0,7.0,78.0,1425.25
1425260.0,63.0,36.0,7.0,79.0,1425.26
1425270.0,61.0,37.0,6.0,76.0,1425.27
1425280.0,63.0,36.0,6.0,79.0,1425.28
1425290.0,64.0,36.0,5.0,78.0,1425.29
1425300.0,64.0,37.0,4.0,74.0,1425.3
1425310.0,65.0,36.0,5.0,70.0,1425.31
1425320.0,65.0,36.0,4.0,69.0,1425.32
1425330.0,66.0,37.0,4.0,74.0,1425.33
1425340.0,65.0,38.0,5.0,81.0,1425.34
1425350.0,65.0,39.0,3.0,81.0,1425.35
1425360.0,66.0,37.0,4.0,77.0,1425.36
1425370.0,65.0,38.0,4.0,80.0,1425.37
1425380.0,65.0,38.0,4.0,80.0,1425.38
1425390.0,65.0,37.0,4.0,89.0,1425.39
1425400.0,64.0,37.0,4.0,92.0,1425.4
1425410.0,64.0,36.0,4.0,86.0,1425.41
1425420.0,62.0,36.0,4.0,93.0,1425.42
1425430.0,64.0,36.0,4.0,84.0,1425.43
1425440.0,66.0,37.0,3.0,87.0,1425.44
1425451.0,67.0,36.0,5.0,90.0,1425.451
1425461.0,67.0,37.0,4.0,93.0,1425.461
1425471.0,65.0,39.0,4.0,95.0,1425.471
1425481.0,68.0,39.0,5.0,87.0,1425.481
1425491.0,67.0,39.0,4.0,90.0,1425.491
