time (ms),signal 0,signal 1,signal 2,signal3,time (sec)
1444511.0,87.0,127.0,6.0,88.0,1444.511
1444521.0,90.0,128.0,6.0,83.0,1444.521
1444531.0,92.0,129.0,5.0,111.0,1444.531
1444541.0,92.0,129.0,6.0,120.0,1444.541
1444551.0,92.0,129.0,6.0,116.0,1444.551
1444561.0,94.0,130.0,5.0,110.0,1444.561
1444571.0,94.0,130.0,5.0,107.0,1444.571
1444581.0,93.0,132.0,5.0,106.0,1444.581
1444591.0,93.0,130.0,5.0,104.0,1444.591
1444601.0,92.0,130.0,4.0,104.0,1444.601
1444611.0,90.0,128.0,5.0,106.0,1444.611
1444621.0,91.0,128.0,5.0,109.0,1444.621
1444631.0,92.0,131.0,5.0,126.0,1444.631
1444641.0,93.0,129.0,5.0,129.0,1444.641
1444651.0,92.0,130.0,4.0,127.0,1444.651
1444661.0,93.0,129.0,5.0,118.0,1444.661
1444671.0,93.0,130.0,5.0,113.0,1444.671
1444681.0,93.0,130.0,6.0,113.0,1444.681
1444691.0,93.0,130.0,6.0,123.0,1444.691
1444701.0,94.0,131.0,5.0,125.0,1444.701
1444711.0,95.0,133.0,5.0,126.0,1444.711
1444721.0,95.0,135.0,6.0,119.0,1444.721
1444731.0,94.0,133.0,6.0,116.0,1444.731
1444741.0,96.0,135.0,6.0,117.0,1444.741
1444751.0,95.0,134.0,5.0,115.0,1444.751
1444761.0,96.0,135.0,6.0,113.0,1444.761
1444771.0,94.0,134.0,5.0,121.0,1444.771
1444781.0,96.0,136.0,8.0,115.0,1444.781
1444791.0,94.0,136.0,9.0,112.0,1444.791
1444801.0,94.0,136.0,11.0,109.0,1444.801
1444811.0,93.0,138.0,11.0,108.0,1444.811
1444822.0,92.0,139.0,10.0,105.0,1444.822
1444832.0,91.0,139.0,11.0,107.0,1444.832
1444842.0,88.0,141.0,10.0,109.0,1444.842
1444852.0,88.0,140.0,9.0,108.0,1444.852
1444862.0,87.0,140.0,9.0,110.0,1444.862
1444872.0,87.0,141.0,9.0,107.0,1444.872
1444882.0,87.0,142.0,8.0,103.0,1444.882
1444892.0,88.0,143.0,8.0,103.0,1444.892
1444902.0,88.0,144.0,8.0,107.0,1444.902
1444912.0,89.0,144.0,7.0,105.0,1444.912
1444922.0,90.0,142.0,7.0,104.0,1444.922
1444932.0,92.0,145.0,7.0,99.0,1444.932
1444942.0,94.0,144.0,6.0,98.0,1444.942
1444952.0,94.0,141.0,6.0,105.0,1444.952
1444962.0,96.0,140.0,5.0,110.0,1444.962
1444972.0,97.0,137.0,6.0,109.0,1444.972
1444982.0,98.0,137.0,4.0,107.0,1444.982
1444992.0,99.0,134.0,7.0,99.0,1444.992
1445002.0,100.0,133.0,6.0,105.0,1445.002
1445012.0,102.0,133.0,5.0,104.0,1445.012
1445022.0,102.0,132.0,5.0,107.0,1445.022
1445032.0,101.0,132.0,5.0,109.0,1445.032
1445042.0,103.0,131.0,6.0,102.0,1445.042
1445052.0,100.0,130.0,4.0,95.0,1445.052
1445062.0,99.0,129.0,9.0,111.0,1445.062
1445072.0,100.0,128.0,11.0,125.0,1445.072
1445082.0,99.0,128.0,10.0,119.0,1445.082
1445092.0,99.0,126.0,9.0,119.0,1445.092
1445102.0,98.0,127.0,8.0,110.0,1445.102
1445112.0,98.0,126.0,9.0,113.0,1445.112
1445122.0,97.0,125.0,7.0,114.0,1445.122
1445132.0,95.0,124.0,7.0,107.0,1445.132
1445142.0,94.0,124.0,6.0,98.0,1445.142
1445152.0,93.0,124.0,6.0,91.0,1445.152
1445163.0,93.0,123.0,6.0,105.0,1445.163
1445173.0,91.0,122.0,5.0,107.0,1445.173
1445183.0,91.0,121.0,7.0,102.0,1445.183
1445193.0,91.0,120.0,6.0,100.0,1445.193
1445203.0,91.0,117.0,8.0,102.0,1445.203
1445213.0,91.0,117.0,8.0,100.0,1445.213
1445223.0,91.0,117.0,8.0,99.0,1445.223
1445233.0,91.0,114.0,9.0,97.0,1445.233
1445243.0,90.0,112.0,8.0,101.0,1445.243
1445253.0,90.0,110.0,7.0,100.0,1445.253
1445263.0,89.0,109.0,7.0,101.0,1445.263
1445273.0,88.0,108.0,7.0,111.0,1445.273
1445283.0,87.0,108.0,7.0,116.0,1445.283
1445293.0,85.0,107.0,6.0,110.0,1445.293
1445303.0,84.0,106.0,7.0,106.0,1445.303
1445313.0,84.0,106.0,6.0,99.0,1445.313
1445323.0,83.0,105.0,6.0,94.0,1445.323
1445334.0,82.0,104.0,5.0,109.0,1445.334
1445344.0,80.0,103.0,5.0,106.0,1445.344
1445354.0,81.0,102.0,5.0,106.0,1445.354
1445364.0,79.0,100.0,5.0,100.0,1445.364
1445374.0,80.0,98.0,6.0,98.0,1445.374
1445384.0,79.0,98.0,5.0,99.0,1445.384
1445394.0,81.0,97.0,6.0,107.0,1445.394
1445404.0,79.0,95.0,4.0,104.0,1445.404
1445414.0,79.0,95.0,7.0,103.0,1445.414
1445424.0,79.0,93.0,6.0,101.0,1445.424
1445434.0,78.0,93.0,6.0,97.0,1445.434
1445444.0,78.0,92.0,7.0,110.0,1445.444
1445454.0,77.0,91.0,5.0,112.0,1445.454
1445464.0,77.0,90.0,7.0,119.0,1445.464
1445474.0,77.0,88.0,6.0,115.0,1445.474
1445484.0,74.0,86.0,7.0,112.0,1445.484
1445494.0,74.0,85.0,9.0,113.0,1445.494
1445504.0,72.0,85.0,8.0,110.0,1445.504
1445514.0,71.0,84.0,7.0,106.0,1445.514
1445524.0,69.0,82.0,9.0,105.0,1445.524
1445534.0,70.0,82.0,10.0,105.0,1445.534
1445544.0,71.0,82.0,7.0,110.0,1445.544
1445554.0,68.0,79.0,6.0,113.0,1445.554
1445564.0,69.0,78.0,7.0,105.0,1445.564
1445574.0,67.0,77.0,6.0,105.0,1445.574
1445584.0,66.0,73.0,12.0,100.0,1445.584
1445594.0,66.0,72.0,10.0,98.0,1445.594
1445604.0,64.0,70.0,12.0,97.0,1445.604
1445614.0,66.0,70.0,10.0,96.0,1445.614
1445624.0,64.0,70.0,8.0,92.0,1445.624
1445634.0,65.0,69.0,9.0,91.0,1445.634
1445644.0,65.0,71.0,7.0,92.0,1445.644
1445654.0,64.0,70.0,7.0,89.0,1445.654
1445664.0,63.0,70.0,9.0,88.0,1445.664
1445675.0,64.0,70.0,9.0,91.0,1445.675
1445685.0,65.0,70.0,8.0,113.0,1445.685
1445695.0,64.0,69.0,7.0,104.0,1445.695
1445705.0,63.0,68.0,7.0,101.0,1445.705
1445715.0,63.0,68.0,7.0,99.0,1445.715
1445725.0,63.0,65.0,6.0,102.0,1445.725
1445735.0,64.0,64.0,7.0,105.0,1445.735
1445745.0,62.0,63.0,7.0,105.0,1445.745
1445755.0,61.0,62.0,6.0,102.0,1445.755
1445765.0,58.0,61.0,7.0,102.0,1445.765
1445775.0,57.0,60.0,7.0,107.0,1445.775
1445785.0,56.0,60.0,7.0,115.0,1445.785
1445795.0,57.0,58.0,6.0,126.0,1445.795
1445805.0,55.0,56.0,11.0,119.0,1445.805
1445815.0,55.0,54.0,11.0,115.0,1445.815
1445825.0,55.0,51.0,10.0,109.0,1445.825
1445835.0,52.0,49.0,7.0,117.0,1445.835
1445846.0,54.0,47.0,8.0,117.0,1445.846
1445856.0,54.0,45.0,7.0,115.0,1445.856
1445866.0,53.0,44.0,8.0,112.0,1445.866
1445876.0,53.0,42.0,6.0,110.0,1445.876
1445886.0,52.0,41.0,7.0,127.0,1445.886
1445896.0,53.0,41.0,7.0,130.0,1445.896
1445906.0,52.0,39.0,7.0,124.0,1445.906
1445916.0,54.0,39.0,8.0,126.0,1445.916
1445926.0,56.0,40.0,8.0,118.0,1445.926
1445936.0,57.0,38.0,8.0,127.0,1445.936
1445946.0,58.0,37.0,7.0,134.0,1445.946
1445956.0,57.0,37.0,7.0,126.0,1445.956
1445966.0,58.0,35.0,8.0,125.0,1445.966
1445976.0,56.0,36.0,6.0,123.0,1445.976
1445986.0,57.0,36.0,5.0,123.0,1445.986
1445996.0,56.0,37.0,9.0,127.0,1445.996
1446006.0,57.0,36.0,8.0,122.0,1446.006
1446016.0,55.0,35.0,8.0,117.0,1446.016
1446026.0,56.0,36.0,8.0,108.0,1446.026
1446036.0,57.0,35.0,9.0,107.0,1446.036
1446046.0,56.0,36.0,7.0,107.0,1446.046
1446056.0,55.0,35.0,8.0,102.0,1446.056
1446066.0,55.0,37.0,8.0,98.0,1446.066
1446076.0,55.0,38.0,7.0,96.0,1446.076
1446086.0,54.0,36.0,8.0,98.0,1446.086
1446096.0,53.0,37.0,8.0,97.0,1446.096
1446106.0,53.0,39.0,7.0,112.0,1446.106
1446116.0,52.0,40.0,6.0,113.0,1446.116
1446126.0,52.0,41.0,6.0,105.0,1446.126
1446136.0,51.0,40.0,6.0,101.0,1446.136
1446146.0,51.0,41.0,6.0,104.0,1446.146
1446156.0,50.0,40.0,6.0,116.0,1446.156
1446166.0,49.0,41.0,8.0,120.0,1446.166
1446176.0,51.0,42.0,10.0,119.0,1446.176
1446187.0,50.0,41.0,8.0,112.0,1446.187
1446197.0,51.0,41.0,7.0,105.0,1446.197
1446207.0,52.0,40.0,7.0,108.0,1446.207
1446217.0,51.0,40.0,7.0,110.0,1446.217
1446227.0,53.0,40.0,7.0,105.0,1446.227
1446237.0,51.0,40.0,5.0,107.0,1446.237
1446247.0,52.0,42.0,8.0,105.0,1446.247
1446257.0,50.0,43.0,8.0,104.0,1446.257
1446267.0,50.0,43.0,8.0,128.0,1446.267
1446277.0,50.0,43.0,8.0,128.0,1446.277
1446287.0,50.0,45.0,9.0,130.0,1446.287
1446297.0,52.0,46.0,9.0,128.0,1446.297
1446307.0,51.0,47.0,8.0,121.0,1446.307
1446317.0,51.0,46.0,9.0,113.0,1446.317
1446327.0,50.0,43.0,7.0,122.0,1446.327
1446337.0,48.0,42.0,8.0,113.0,1446.337
1446347.0,49.0,41.0,9.0,110.0,1446.347
1446358.0,51.0,42.0,10.0,106.0,1446.358
1446368.0,51.0,40.0,9.0,102.0,1446.368
1446378.0,52.0,43.0,7.0,93.0,1446.378
1446388.0,53.0,43.0,8.0,103.0,1446.388
1446398.0,52.0,45.0,6.0,97.0,1446.398
1446408.0,53.0,46.0,8.0,95.0,1446.408
1446418.0,52.0,47.0,6.0,91.0,1446.418
1446428.0,51.0,48.0,7.0,92.0,1446.428
1446438.0,52.0,50.0,6.0,84.0,1446.438
1446448.0,53.0,53.0,6.0,85.0,1446.448
1446458.0,52.0,51.0,7.0,89.0,1446.458
1446468.0,50.0,53.0,6.0,95.0,1446.468
1446478.0,50.0,56.0,5.0,101.0,1446.478
1446488.0,49.0,58.0,5.0,96.0,1446.488
1446498.0,48.0,61.0,6.0,88.0,1446.498
1446508.0,48.0,62.0,6.0,86.0,1446.508
1446518.0,48.0,64.0,5.0,87.0,1446.518
1446528.0,48.0,66.0,7.0,92.0,1446.528
1446538.0,48.0,67.0,7.0,101.0,1446.538
1446548.0,47.0,68.0,7.0,95.0,1446.548
1446558.0,48.0,69.0,5.0,93.0,1446.558
1446568.0,49.0,73.0,5.0,100.0,1446.568
1446578.0,50.0,73.0,6.0,102.0,1446.578
1446588.0,50.0,74.0,5.0,112.0,1446.588
1446598.0,50.0,75.0,6.0,107.0,1446.598
1446608.0,52.0,75.0,6.0,101.0,1446.608
1446618.0,50.0,77.0,6.0,114.0,1446.618
1446628.0,54.0,79.0,6.0,110.0,1446.628
1446638.0,53.0,83.0,5.0,102.0,1446.638
1446648.0,55.0,84.0,5.0,92.0,1446.648
1446658.0,55.0,85.0,4.0,96.0,1446.658
1446668.0,56.0,88.0,8.0,91.0,1446.668
1446678.0,56.0,89.0,7.0,90.0,1446.678
1446688.0,54.0,91.0,6.0,85.0,1446.688
1446699.0,55.0,91.0,6.0,83.0,1446.699
1446709.0,57.0,92.0,5.0,79.0,1446.709
1446719.0,58.0,92.0,6.0,76.0,1446.719
1446729.0,59.0,92.0,6.0,95.0,1446.729
1446739.0,59.0,94.0,7.0,94.0,1446.739
1446749.0,59.0,94.0,6.0,91.0,1446.749
1446759.0,58.0,97.0,6.0,87.0,1446.759
1446769.0,59.0,97.0,6.0,84.0,1446.769
1446779.0,60.0,100.0,8.0,98.0,1446.779
1446789.0,60.0,101.0,7.0,102.0,1446.789
1446799.0,61.0,104.0,7.0,97.0,1446.799
1446809.0,59.0,105.0,7.0,96.0,1446.809
1446819.0,60.0,105.0,6.0,90.0,1446.819
1446829.0,60.0,108.0,6.0,94.0,1446.829
1446839.0,61.0,108.0,7.0,89.0,1446.839
1446849.0,61.0,109.0,6.0,89.0,1446.849
1446859.0,63.0,110.0,6.0,84.0,1446.859
1446870.0,63.0,110.0,6.0,87.0,1446.87
1446880.0,64.0,110.0,7.0,91.0,1446.88
1446890.0,66.0,110.0,6.0,90.0,1446.89
1446900.0,67.0,111.0,6.0,92.0,1446.9
1446910.0,68.0,111.0,6.0,89.0,1446.91
1446920.0,68.0,111.0,6.0,89.0,1446.92
1446930.0,70.0,110.0,5.0,81.0,1446.93
1446940.0,71.0,109.0,6.0,82.0,1446.94
1446950.0,73.0,110.0,6.0,89.0,1446.95
1446960.0,74.0,111.0,7.0,86.0,1446.96
1446970.0,74.0,111.0,5.0,99.0,1446.97
1446980.0,78.0,113.0,5.0,100.0,1446.98
1446990.0,80.0,115.0,5.0,101.0,1446.99
1447000.0,80.0,113.0,5.0,97.0,1447.0
1447010.0,82.0,114.0,5.0,100.0,1447.01
1447020.0,83.0,115.0,8.0,105.0,1447.02
1447030.0,84.0,115.0,9.0,98.0,1447.03
1447040.0,84.0,115.0,7.0,96.0,1447.04
1447050.0,86.0,115.0,9.0,95.0,1447.05
1447060.0,86.0,115.0,9.0,98.0,1447.06
1447070.0,86.0,115.0,8.0,98.0,1447.07
1447080.0,88.0,114.0,7.0,93.0,1447.08
1447090.0,88.0,115.0,5.0,86.0,1447.09
1447100.0,88.0,115.0,8.0,91.0,1447.1
1447110.0,88.0,117.0,6.0,85.0,1447.11
1447120.0,90.0,118.0,6.0,96.0,1447.12
1447130.0,90.0,120.0,7.0,98.0,1447.13
1447140.0,91.0,122.0,6.0,92.0,1447.14
1447150.0,91.0,122.0,7.0,90.0,1447.15
1447160.0,92.0,125.0,5.0,87.0,1447.16
1447170.0,94.0,127.0,7.0,90.0,1447.17
1447180.0,93.0,128.0,6.0,102.0,1447.18
1447190.0,93.0,129.0,6.0,103.0,1447.19
1447200.0,93.0,131.0,6.0,99.0,1447.2
1447211.0,94.0,131.0,6.0,105.0,1447.211
1447221.0,95.0,130.0,6.0,100.0,1447.221
1447231.0,96.0,131.0,5.0,94.0,1447.231
1447241.0,99.0,131.0,6.0,103.0,1447.241
1447251.0,96.0,129.0,6.0,98.0,1447.251
1447261.0,98.0,128.0,6.0,94.0,1447.261
1447271.0,97.0,126.0,6.0,101.0,1447.271
1447281.0,97.0,126.0,5.0,98.0,1447.281
1447291.0,97.0,124.0,6.0,102.0,1447.291
1447301.0,96.0,122.0,6.0,98.0,1447.301
1447311.0,97.0,121.0,8.0,102.0,1447.311
1447321.0,98.0,119.0,6.0,98.0,1447.321
1447331.0,98.0,119.0,7.0,109.0,1447.331
1447341.0,99.0,117.0,7.0,109.0,1447.341
1447351.0,98.0,117.0,6.0,103.0,1447.351
1447361.0,98.0,113.0,6.0,96.0,1447.361
1447371.0,97.0,112.0,5.0,108.0,1447.371
1447382.0,100.0,111.0,7.0,122.0,1447.382
1447392.0,99.0,110.0,7.0,114.0,1447.392
1447402.0,100.0,110.0,6.0,105.0,1447.402
1447412.0,101.0,110.0,6.0,99.0,1447.412
1447422.0,100.0,111.0,5.0,95.0,1447.422
1447432.0,101.0,109.0,5.0,91.0,1447.432
1447442.0,103.0,110.0,5.0,106.0,1447.442
1447452.0,105.0,109.0,7.0,104.0,1447.452
1447462.0,106.0,109.0,5.0,103.0,1447.462
1447472.0,105.0,108.0,6.0,95.0,1447.472
1447482.0,107.0,107.0,6.0,90.0,1447.482
1447492.0,103.0,102.0,5.0,89.0,1447.492
1447502.0,108.0,100.0,5.0,93.0,1447.502
1447512.0,106.0,99.0,5.0,100.0,1447.512
1447522.0,106.0,97.0,6.0,95.0,1447.522
1447532.0,114.0,93.0,6.0,90.0,1447.532
1447542.0,123.0,91.0,7.0,88.0,1447.542
1447552.0,124.0,101.0,14.0,85.0,1447.552
1447562.0,137.0,103.0,14.0,84.0,1447.562
1447572.0,158.0,99.0,17.0,84.0,1447.572
1447582.0,157.0,97.0,17.0,82.0,1447.582
1447592.0,180.0,95.0,18.0,91.0,1447.592
1447602.0,201.0,99.0,21.0,90.0,1447.602
1447612.0,196.0,106.0,25.0,87.0,1447.612
1447622.0,190.0,112.0,24.0,81.0,1447.622
1447632.0,179.0,117.0,30.0,84.0,1447.632
1447642.0,190.0,120.0,29.0,81.0,1447.642
1447652.0,187.0,117.0,27.0,75.0,1447.652
1447662.0,192.0,113.0,24.0,72.0,1447.662
1447672.0,187.0,106.0,22.0,70.0,1447.672
1447682.0,183.0,105.0,22.0,82.0,1447.682
1447692.0,194.0,110.0,21.0,80.0,1447.692
1447702.0,197.0,108.0,19.0,79.0,1447.702
1447712.0,199.0,107.0,18.0,77.0,1447.712
1447723.0,200.0,105.0,16.0,84.0,1447.723
1447733.0,194.0,98.0,15.0,84.0,1447.733
1447743.0,187.0,91.0,14.0,81.0,1447.743
1447753.0,174.0,85.0,12.0,80.0,1447.753
1447763.0,165.0,101.0,12.0,81.0,1447.763
1447773.0,154.0,113.0,17.0,78.0,1447.773
1447783.0,153.0,115.0,16.0,82.0,1447.783
1447793.0,150.0,124.0,15.0,84.0,1447.793
1447803.0,143.0,121.0,13.0,86.0,1447.803
1447813.0,138.0,114.0,13.0,83.0,1447.813
1447823.0,132.0,111.0,10.0,83.0,1447.823
1447833.0,130.0,108.0,10.0,81.0,1447.833
1447843.0,126.0,112.0,10.0,80.0,1447.843
1447853.0,123.0,107.0,10.0,80.0,1447.853
1447863.0,122.0,104.0,9.0,80.0,1447.863
1447873.0,120.0,104.0,11.0,78.0,1447.873
1447883.0,123.0,111.0,12.0,75.0,1447.883
1447894.0,121.0,107.0,11.0,72.0,1447.894
1447904.0,121.0,101.0,12.0,73.0,1447.904
1447914.0,124.0,99.0,11.0,73.0,1447.914
1447924.0,121.0,99.0,11.0,72.0,1447.924
1447934.0,120.0,106.0,12.0,68.0,1447.934
1447944.0,121.0,102.0,11.0,67.0,1447.944
1447954.0,116.0,96.0,11.0,66.0,1447.954
1447964.0,119.0,95.0,8.0,65.0,1447.964
1447974.0,117.0,89.0,9.0,64.0,1447.974
1447984.0,115.0,88.0,8.0,64.0,1447.984
1447994.0,115.0,82.0,8.0,61.0,1447.994
1448004.0,114.0,81.0,8.0,59.0,1448.004
1448014.0,111.0,80.0,7.0,59.0,1448.014
1448024.0,114.0,81.0,8.0,58.0,1448.024
1448034.0,113.0,77.0,8.0,56.0,1448.034
1448044.0,116.0,73.0,7.0,55.0,1448.044
1448054.0,117.0,71.0,7.0,52.0,1448.054
1448064.0,115.0,76.0,7.0,52.0,1448.064
1448074.0,115.0,76.0,8.0,49.0,1448.074
1448084.0,116.0,77.0,7.0,49.0,1448.084
1448094.0,118.0,74.0,8.0,48.0,1448.094
1448104.0,116.0,70.0,6.0,46.0,1448.104
1448114.0,116.0,65.0,6.0,47.0,1448.114
1448124.0,115.0,65.0,6.0,45.0,1448.124
1448134.0,124.0,61.0,6.0,46.0,1448.134
1448144.0,123.0,64.0,6.0,47.0,1448.144
1448154.0,123.0,64.0,5.0,45.0,1448.154
1448164.0,122.0,60.0,6.0,51.0,1448.164
1448174.0,122.0,57.0,5.0,51.0,1448.174
1448184.0,121.0,53.0,5.0,48.0,1448.184
1448194.0,123.0,51.0,5.0,47.0,1448.194
1448204.0,120.0,50.0,3.0,45.0,1448.204
1448214.0,121.0,48.0,5.0,44.0,1448.214
1448224.0,122.0,49.0,4.0,44.0,1448.224
1448235.0,121.0,58.0,6.0,42.0,1448.235
1448245.0,122.0,59.0,4.0,43.0,1448.245
1448255.0,121.0,60.0,5.0,42.0,1448.255
1448265.0,121.0,59.0,4.0,44.0,1448.265
1448275.0,123.0,56.0,4.0,42.0,1448.275
1448285.0,123.0,54.0,4.0,44.0,1448.285
1448295.0,121.0,53.0,3.0,43.0,1448.295
1448305.0,119.0,51.0,7.0,42.0,1448.305
1448315.0,116.0,49.0,6.0,42.0,1448.315
1448325.0,116.0,48.0,5.0,41.0,1448.325
1448335.0,116.0,47.0,4.0,45.0,1448.335
1448345.0,113.0,51.0,5.0,44.0,1448.345
1448355.0,112.0,51.0,5.0,43.0,1448.355
1448365.0,113.0,53.0,5.0,42.0,1448.365
1448375.0,109.0,59.0,6.0,40.0,1448.375
1448385.0,110.0,64.0,4.0,40.0,1448.385
1448395.0,110.0,63.0,4.0,37.0,1448.395
1448406.0,110.0,62.0,4.0,37.0,1448.406
1448416.0,109.0,61.0,5.0,35.0,1448.416
1448426.0,109.0,58.0,5.0,36.0,1448.426
1448436.0,106.0,62.0,5.0,35.0,1448.436
1448446.0,110.0,62.0,5.0,35.0,1448.446
1448456.0,109.0,64.0,4.0,35.0,1448.456
1448466.0,108.0,62.0,4.0,35.0,1448.466
1448476.0,107.0,60.0,4.0,35.0,1448.476
1448486.0,105.0,57.0,3.0,34.0,1448.486
1448496.0,106.0,55.0,3.0,32.0,1448.496
1448506.0,106.0,54.0,3.0,35.0,1448.506
1448516.0,107.0,53.0,4.0,33.0,1448.516
1448526.0,105.0,51.0,4.0,34.0,1448.526
1448536.0,103.0,53.0,4.0,34.0,1448.536
1448546.0,106.0,52.0,4.0,35.0,1448.546
1448556.0,107.0,50.0,3.0,35.0,1448.556
1448566.0,106.0,48.0,4.0,32.0,1448.566
1448576.0,107.0,49.0,3.0,33.0,1448.576
1448586.0,107.0,46.0,4.0,31.0,1448.586
1448596.0,107.0,46.0,4.0,31.0,1448.596
1448606.0,102.0,46.0,3.0,30.0,1448.606
1448616.0,104.0,49.0,4.0,31.0,1448.616
1448626.0,104.0,50.0,3.0,31.0,1448.626
1448636.0,103.0,47.0,4.0,28.0,1448.636
1448646.0,102.0,48.0,3.0,30.0,1448.646
1448656.0,102.0,46.0,4.0,29.0,1448.656
1448666.0,102.0,45.0,3.0,28.0,1448.666
1448676.0,100.0,49.0,3.0,28.0,1448.676
1448686.0,98.0,49.0,3.0,28.0,1448.686
1448696.0,100.0,49.0,3.0,30.0,1448.696
1448706.0,101.0,47.0,3.0,29.0,1448.706
1448716.0,101.0,47.0,3.0,30.0,1448.716
1448726.0,101.0,48.0,4.0,31.0,1448.726
1448736.0,100.0,48.0,4.0,32.0,1448.736
1448747.0,98.0,48.0,3.0,33.0,1448.747
1448757.0,96.0,48.0,3.0,35.0,1448.757
1448767.0,93.0,52.0,3.0,36.0,1448.767
1448777.0,92.0,52.0,3.0,36.0,1448.777
1448787.0,92.0,51.0,3.0,37.0,1448.787
1448797.0,91.0,52.0,3.0,38.0,1448.797
1448807.0,90.0,55.0,4.0,37.0,1448.807
1448817.0,89.0,56.0,2.0,38.0,1448.817
1448827.0,89.0,53.0,3.0,37.0,1448.827
1448837.0,90.0,58.0,2.0,39.0,1448.837
1448847.0,86.0,60.0,3.0,36.0,1448.847
1448857.0,88.0,65.0,3.0,35.0,1448.857
1448867.0,89.0,65.0,2.0,36.0,1448.867
1448877.0,88.0,60.0,3.0,35.0,1448.877
1448887.0,88.0,60.0,3.0,35.0,1448.887
1448897.0,91.0,58.0,3.0,33.0,1448.897
1448907.0,89.0,63.0,3.0,33.0,1448.907
1448918.0,91.0,58.0,3.0,32.0,1448.918
1448928.0,92.0,58.0,3.0,32.0,1448.928
1448938.0,91.0,59.0,4.0,31.0,1448.938
1448948.0,93.0,56.0,4.0,31.0,1448.948
1448958.0,90.0,57.0,2.0,30.0,1448.958
1448968.0,92.0,55.0,5.0,29.0,1448.968
1448978.0,90.0,56.0,3.0,30.0,1448.978
1448988.0,90.0,56.0,3.0,28.0,1448.988
1448998.0,93.0,55.0,3.0,29.0,1448.998
1449008.0,93.0,53.0,3.0,28.0,1449.008
1449018.0,95.0,53.0,4.0,27.0,1449.018
1449028.0,90.0,56.0,2.0,26.0,1449.028
1449038.0,91.0,53.0,3.0,26.0,1449.038
1449048.0,87.0,57.0,2.0,26.0,1449.048
1449058.0,87.0,57.0,3.0,26.0,1449.058
1449068.0,85.0,55.0,3.0,26.0,1449.068
1449078.0,85.0,57.0,4.0,26.0,1449.078
1449088.0,84.0,58.0,3.0,26.0,1449.088
1449098.0,83.0,62.0,2.0,27.0,1449.098
1449108.0,82.0,65.0,4.0,27.0,1449.108
1449118.0,80.0,68.0,3.0,28.0,1449.118
1449128.0,80.0,69.0,3.0,30.0,1449.128
1449138.0,79.0,72.0,4.0,31.0,1449.138
1449148.0,77.0,73.0,4.0,32.0,1449.148
1449158.0,76.0,75.0,5.0,31.0,1449.158
1449168.0,73.0,76.0,2.0,32.0,1449.168
1449178.0,74.0,78.0,4.0,31.0,1449.178
1449188.0,74.0,80.0,3.0,32.0,1449.188
1449198.0,73.0,80.0,3.0,32.0,1449.198
1449208.0,73.0,80.0,3.0,33.0,1449.208
1449218.0,73.0,84.0,3.0,33.0,1449.218
1449228.0,74.0,83.0,5.0,33.0,1449.228
1449238.0,71.0,83.0,4.0,34.0,1449.238
1449248.0,71.0,82.0,3.0,35.0,1449.248
1449259.0,71.0,82.0,3.0,35.0,1449.259
1449269.0,72.0,78.0,3.0,34.0,1449.269
1449279.0,71.0,78.0,3.0,36.0,1449.279
1449289.0,69.0,76.0,4.0,36.0,1449.289
1449299.0,72.0,77.0,4.0,35.0,1449.299
1449309.0,69.0,77.0,3.0,37.0,1449.309
1449319.0,68.0,78.0,3.0,35.0,1449.319
1449329.0,70.0,77.0,4.0,37.0,1449.329
1449339.0,69.0,76.0,3.0,35.0,1449.339
1449349.0,70.0,75.0,3.0,35.0,1449.349
1449359.0,69.0,73.0,3.0,34.0,1449.359
1449369.0,70.0,73.0,4.0,33.0,1449.369
1449379.0,69.0,73.0,3.0,31.0,1449.379
1449389.0,71.0,74.0,3.0,30.0,1449.389
1449399.0,70.0,74.0,3.0,30.0,1449.399
1449409.0,72.0,73.0,3.0,28.0,1449.409
1449419.0,70.0,74.0,4.0,30.0,1449.419
1449430.0,73.0,72.0,3.0,29.0,1449.43
1449440.0,73.0,70.0,4.0,29.0,1449.44
1449450.0,71.0,71.0,4.0,28.0,1449.45
1449460.0,70.0,72.0,4.0,28.0,1449.46
1449470.0,69.0,71.0,3.0,27.0,1449.47
1449480.0,70.0,70.0,4.0,27.0,1449.48
1449490.0,69.0,68.0,3.0,26.0,1449.49
1449500.0,65.0,72.0,3.0,26.0,1449.5
1449510.0,67.0,72.0,5.0,25.0,1449.51
1449520.0,66.0,74.0,4.0,26.0,1449.52
1449530.0,67.0,71.0,4.0,25.0,1449.53
1449540.0,67.0,72.0,3.0,25.0,1449.54
1449550.0,65.0,71.0,3.0,25.0,1449.55
1449560.0,64.0,69.0,3.0,25.0,1449.56
1449570.0,62.0,69.0,3.0,26.0,1449.57
1449580.0,64.0,70.0,4.0,25.0,1449.58
1449590.0,62.0,67.0,3.0,26.0,1449.59
1449600.0,61.0,66.0,4.0,25.0,1449.6
1449610.0,61.0,67.0,3.0,25.0,1449.61
1449620.0,62.0,65.0,3.0,26.0,1449.62
1449630.0,62.0,64.0,4.0,25.0,1449.63
1449640.0,61.0,63.0,4.0,27.0,1449.64
1449650.0,59.0,62.0,4.0,26.0,1449.65
1449660.0,61.0,63.0,3.0,26.0,1449.66
1449670.0,60.0,61.0,3.0,25.0,1449.67
1449680.0,60.0,61.0,4.0,25.0,1449.68
1449690.0,60.0,63.0,4.0,26.0,1449.69
1449700.0,62.0,61.0,3.0,26.0,1449.7
1449710.0,64.0,60.0,3.0,28.0,1449.71
1449720.0,63.0,59.0,3.0,27.0,1449.72
1449730.0,63.0,58.0,3.0,28.0,1449.73
1449740.0,62.0,58.0,3.0,28.0,1449.74
1449750.0,62.0,57.0,3.0,28.0,1449.75
1449760.0,62.0,58.0,3.0,29.0,1449.76
1449771.0,61.0,58.0,3.0,27.0,1449.771
1449781.0,61.0,56.0,3.0,27.0,1449.781
1449791.0,63.0,55.0,4.0,27.0,1449.791
1449801.0,61.0,56.0,4.0,27.0,1449.801
1449811.0,60.0,56.0,3.0,27.0,1449.811
1449821.0,61.0,55.0,3.0,27.0,1449.821
1449831.0,59.0,55.0,3.0,27.0,1449.831
1449841.0,58.0,54.0,3.0,26.0,1449.841
1449851.0,56.0,54.0,3.0,26.0,1449.851
1449861.0,55.0,54.0,3.0,26.0,1449.861
1449871.0,56.0,55.0,3.0,26.0,1449.871
1449881.0,55.0,57.0,2.0,26.0,1449.881
1449891.0,56.0,57.0,3.0,25.0,1449.891
1449901.0,54.0,58.0,2.0,26.0,1449.901
1449911.0,56.0,56.0,3.0,26.0,1449.911
1449921.0,56.0,55.0,3.0,26.0,1449.921
1449931.0,56.0,54.0,4.0,27.0,1449.931
1449942.0,57.0,54.0,3.0,29.0,1449.942
1449952.0,55.0,53.0,3.0,30.0,1449.952
1449962.0,57.0,53.0,3.0,29.0,1449.962
1449972.0,57.0,55.0,3.0,30.0,1449.972
1449982.0,58.0,54.0,3.0,27.0,1449.982
1449992.0,59.0,54.0,3.0,29.0,1449.992
1450002.0,60.0,53.0,4.0,27.0,1450.002
1450012.0,61.0,51.0,3.0,27.0,1450.012
1450022.0,60.0,51.0,2.0,28.0,1450.022
1450032.0,63.0,49.0,4.0,28.0,1450.032
1450042.0,63.0,48.0,3.0,28.0,1450.042
1450052.0,64.0,47.0,3.0,26.0,1450.052
1450062.0,65.0,47.0,3.0,26.0,1450.062
1450072.0,65.0,47.0,3.0,26.0,1450.072
1450082.0,66.0,45.0,4.0,26.0,1450.082
1450092.0,64.0,46.0,4.0,25.0,1450.092
1450102.0,63.0,45.0,3.0,24.0,1450.102
1450112.0,62.0,46.0,2.0,25.0,1450.112
1450122.0,62.0,46.0,3.0,24.0,1450.122
1450132.0,62.0,46.0,3.0,25.0,1450.132
1450142.0,61.0,46.0,3.0,25.0,1450.142
1450152.0,63.0,45.0,4.0,25.0,1450.152
1450162.0,61.0,45.0,4.0,25.0,1450.162
1450172.0,62.0,45.0,3.0,24.0,1450.172
1450182.0,61.0,46.0,3.0,25.0,1450.182
1450192.0,61.0,46.0,3.0,24.0,1450.192
1450202.0,60.0,45.0,3.0,25.0,1450.202
1450212.0,59.0,45.0,3.0,24.0,1450.212
1450222.0,58.0,46.0,4.0,25.0,1450.222
1450232.0,56.0,44.0,2.0,26.0,1450.232
1450242.0,57.0,44.0,4.0,26.0,1450.242
1450252.0,58.0,45.0,3.0,27.0,1450.252
1450262.0,58.0,46.0,3.0,26.0,1450.262
1450272.0,57.0,50.0,4.0,26.0,1450.272
1450283.0,57.0,54.0,4.0,26.0,1450.283
1450293.0,57.0,51.0,4.0,26.0,1450.293
1450303.0,55.0,50.0,2.0,26.0,1450.303
1450313.0,54.0,52.0,3.0,26.0,1450.313
1450323.0,54.0,56.0,3.0,34.0,1450.323
1450333.0,56.0,64.0,16.0,58.0,1450.333
1450343.0,79.0,88.0,70.0,146.0,1450.343
1450353.0,91.0,96.0,77.0,175.0,1450.353
1450363.0,99.0,102.0,111.0,216.0,1450.363
1450373.0,116.0,98.0,122.0,211.0,1450.373
1450383.0,116.0,93.0,125.0,211.0,1450.383
1450393.0,119.0,96.0,129.0,223.0,1450.393
1450403.0,118.0,94.0,123.0,276.0,1450.403
1450413.0,122.0,103.0,200.0,316.0,1450.413
1450423.0,117.0,106.0,212.0,334.0,1450.423
1450433.0,121.0,110.0,218.0,324.0,1450.433
1450443.0,124.0,117.0,202.0,309.0,1450.443
1450454.0,135.0,128.0,193.0,296.0,1450.454
1450464.0,135.0,127.0,206.0,293.0,1450.464
1450474.0,135.0,121.0,185.0,292.0,1450.474
1450484.0,131.0,130.0,166.0,311.0,1450.484
1450494.0,131.0,137.0,155.0,296.0,1450.494
1450504.0,133.0,150.0,145.0,298.0,1450.504
1450514.0,132.0,161.0,129.0,270.0,1450.514
1450524.0,126.0,165.0,121.0,283.0,1450.524
1450534.0,122.0,172.0,106.0,273.0,1450.534
1450544.0,117.0,174.0,94.0,282.0,1450.544
1450554.0,114.0,175.0,92.0,278.0,1450.554
1450564.0,113.0,176.0,93.0,259.0,1450.564
1450574.0,108.0,177.0,82.0,238.0,1450.574
1450584.0,104.0,177.0,82.0,228.0,1450.584
1450594.0,100.0,179.0,80.0,221.0,1450.594
1450604.0,96.0,179.0,71.0,231.0,1450.604
1450614.0,90.0,176.0,99.0,219.0,1450.614
1450624.0,88.0,177.0,91.0,206.0,1450.624
1450634.0,85.0,178.0,79.0,195.0,1450.634
1450644.0,83.0,179.0,70.0,190.0,1450.644
1450654.0,82.0,179.0,66.0,179.0,1450.654
1450664.0,82.0,181.0,57.0,166.0,1450.664
1450674.0,79.0,180.0,53.0,165.0,1450.674
1450684.0,78.0,181.0,63.0,165.0,1450.684
1450694.0,76.0,178.0,57.0,154.0,1450.694
1450704.0,80.0,180.0,52.0,148.0,1450.704
1450714.0,77.0,178.0,57.0,142.0,1450.714
1450724.0,76.0,178.0,52.0,136.0,1450.724
1450734.0,74.0,178.0,48.0,131.0,1450.734
1450744.0,73.0,179.0,52.0,122.0,1450.744
1450754.0,73.0,180.0,46.0,119.0,1450.754
1450764.0,71.0,179.0,45.0,111.0,1450.764
1450774.0,70.0,178.0,39.0,112.0,1450.774
1450784.0,69.0,176.0,38.0,116.0,1450.784
1450795.0,69.0,174.0,42.0,115.0,1450.795
1450805.0,68.0,173.0,42.0,119.0,1450.805
1450815.0,68.0,169.0,47.0,121.0,1450.815
1450825.0,71.0,171.0,42.0,124.0,1450.825
1450835.0,71.0,170.0,41.0,115.0,1450.835
1450845.0,69.0,168.0,49.0,107.0,1450.845
1450855.0,69.0,165.0,45.0,107.0,1450.855
1450865.0,70.0,161.0,40.0,101.0,1450.865
1450875.0,68.0,160.0,35.0,98.0,1450.875
1450885.0,68.0,160.0,32.0,97.0,1450.885
1450895.0,66.0,157.0,30.0,103.0,1450.895
1450905.0,66.0,153.0,31.0,99.0,1450.905
1450915.0,64.0,152.0,27.0,97.0,1450.915
1450925.0,61.0,148.0,29.0,97.0,1450.925
1450935.0,62.0,144.0,40.0,102.0,1450.935
1450945.0,58.0,141.0,40.0,100.0,1450.945
1450955.0,61.0,138.0,38.0,97.0,1450.955
1450966.0,59.0,136.0,34.0,94.0,1450.966
1450976.0,58.0,132.0,30.0,87.0,1450.976
1450986.0,57.0,127.0,29.0,90.0,1450.986
1450996.0,56.0,123.0,33.0,88.0,1450.996
1451006.0,56.0,121.0,34.0,83.0,1451.006
1451016.0,55.0,119.0,44.0,86.0,1451.016
1451026.0,57.0,117.0,42.0,83.0,1451.026
1451036.0,57.0,116.0,44.0,83.0,1451.036
1451046.0,57.0,113.0,39.0,85.0,1451.046
1451056.0,57.0,110.0,39.0,95.0,1451.056
1451066.0,57.0,106.0,44.0,114.0,1451.066
1451076.0,62.0,106.0,39.0,111.0,1451.076
1451086.0,62.0,106.0,34.0,118.0,1451.086
1451096.0,61.0,105.0,34.0,112.0,1451.096
1451106.0,61.0,105.0,30.0,111.0,1451.106
1451116.0,59.0,104.0,26.0,108.0,1451.116
1451126.0,59.0,102.0,28.0,105.0,1451.126
1451136.0,57.0,101.0,25.0,99.0,1451.136
1451146.0,60.0,99.0,24.0,99.0,1451.146
1451156.0,58.0,99.0,21.0,96.0,1451.156
1451166.0,57.0,97.0,22.0,99.0,1451.166
1451176.0,55.0,97.0,20.0,100.0,1451.176
1451186.0,55.0,96.0,19.0,93.0,1451.186
1451196.0,54.0,95.0,18.0,93.0,1451.196
1451206.0,53.0,93.0,16.0,97.0,1451.206
1451216.0,54.0,91.0,16.0,94.0,1451.216
1451226.0,52.0,90.0,16.0,91.0,1451.226
1451236.0,51.0,87.0,18.0,97.0,1451.236
1451246.0,51.0,86.0,16.0,93.0,1451.246
1451256.0,49.0,82.0,15.0,94.0,1451.256
1451266.0,49.0,79.0,15.0,101.0,1451.266
1451276.0,47.0,76.0,13.0,99.0,1451.276
1451286.0,48.0,72.0,14.0,95.0,1451.286
1451296.0,50.0,71.0,12.0,91.0,1451.296
1451307.0,50.0,69.0,13.0,88.0,1451.307
1451317.0,50.0,67.0,13.0,87.0,1451.317
1451327.0,51.0,63.0,18.0,83.0,1451.327
1451337.0,51.0,60.0,20.0,82.0,1451.337
1451347.0,53.0,58.0,18.0,86.0,1451.347
1451357.0,52.0,56.0,18.0,80.0,1451.357
1451367.0,52.0,54.0,16.0,78.0,1451.367
1451377.0,52.0,53.0,15.0,72.0,1451.377
1451387.0,51.0,53.0,14.0,75.0,1451.387
1451397.0,51.0,54.0,13.0,73.0,1451.397
1451407.0,50.0,53.0,13.0,73.0,1451.407
1451417.0,49.0,53.0,13.0,74.0,1451.417
1451427.0,50.0,54.0,12.0,76.0,1451.427
1451437.0,49.0,53.0,12.0,77.0,1451.437
1451447.0,50.0,52.0,12.0,86.0,1451.447
1451457.0,51.0,50.0,14.0,94.0,1451.457
1451467.0,51.0,52.0,13.0,91.0,1451.467
1451478.0,52.0,52.0,14.0,95.0,1451.478
1451488.0,51.0,52.0,15.0,93.0,1451.488
1451498.0,52.0,52.0,14.0,92.0,1451.498
1451508.0,52.0,52.0,12.0,92.0,1451.508
1451518.0,54.0,53.0,13.0,91.0,1451.518
1451528.0,54.0,52.0,12.0,90.0,1451.528
1451538.0,55.0,52.0,11.0,89.0,1451.538
1451548.0,54.0,50.0,13.0,82.0,1451.548
1451558.0,55.0,49.0,13.0,82.0,1451.558
1451568.0,56.0,49.0,15.0,94.0,1451.568
1451578.0,58.0,50.0,12.0,91.0,1451.578
1451588.0,57.0,50.0,12.0,85.0,1451.588
1451598.0,58.0,49.0,10.0,79.0,1451.598
1451608.0,57.0,50.0,9.0,77.0,1451.608
1451618.0,57.0,49.0,9.0,77.0,1451.618
1451628.0,58.0,48.0,8.0,74.0,1451.628
1451638.0,58.0,47.0,11.0,76.0,1451.638
1451648.0,58.0,47.0,12.0,73.0,1451.648
1451658.0,58.0,48.0,14.0,82.0,1451.658
1451668.0,59.0,49.0,12.0,79.0,1451.668
1451678.0,58.0,50.0,10.0,81.0,1451.678
1451688.0,59.0,50.0,10.0,80.0,1451.688
1451698.0,58.0,47.0,9.0,83.0,1451.698
1451708.0,59.0,46.0,10.0,79.0,1451.708
1451718.0,57.0,46.0,9.0,75.0,1451.718
1451728.0,56.0,48.0,10.0,75.0,1451.728
1451738.0,55.0,47.0,10.0,73.0,1451.738
1451748.0,54.0,48.0,10.0,73.0,1451.748
1451758.0,54.0,46.0,9.0,76.0,1451.758
1451768.0,54.0,43.0,9.0,76.0,1451.768
1451778.0,53.0,45.0,9.0,82.0,1451.778
1451788.0,54.0,42.0,8.0,85.0,1451.788
1451798.0,54.0,41.0,7.0,85.0,1451.798
1451808.0,54.0,38.0,7.0,84.0,1451.808
1451819.0,54.0,39.0,7.0,81.0,1451.819
1451829.0,54.0,38.0,8.0,78.0,1451.829
1451839.0,55.0,38.0,8.0,75.0,1451.839
1451849.0,55.0,37.0,7.0,74.0,1451.849
1451859.0,56.0,38.0,7.0,70.0,1451.859
1451869.0,56.0,38.0,7.0,70.0,1451.869
1451879.0,58.0,37.0,7.0,71.0,1451.879
1451889.0,59.0,39.0,6.0,67.0,1451.889
1451899.0,60.0,37.0,6.0,64.0,1451.899
1451909.0,60.0,38.0,6.0,70.0,1451.909
1451919.0,58.0,39.0,6.0,67.0,1451.919
1451929.0,60.0,38.0,7.0,67.0,1451.929
1451939.0,58.0,37.0,6.0,67.0,1451.939
1451949.0,60.0,37.0,7.0,68.0,1451.949
1451959.0,59.0,36.0,6.0,67.0,1451.959
1451969.0,59.0,35.0,5.0,63.0,1451.969
1451979.0,57.0,34.0,5.0,58.0,1451.979
1451990.0,56.0,35.0,8.0,62.0,1451.99
1452000.0,55.0,35.0,7.0,66.0,1452.0
1452010.0,52.0,34.0,6.0,68.0,1452.01
1452020.0,52.0,33.0,6.0,63.0,1452.02
1452030.0,51.0,34.0,5.0,61.0,1452.03
1452040.0,52.0,34.0,5.0,59.0,1452.04
1452050.0,52.0,35.0,5.0,62.0,1452.05
1452060.0,52.0,37.0,5.0,61.0,1452.06
1452070.0,53.0,38.0,6.0,67.0,1452.07
1452080.0,53.0,39.0,5.0,64.0,1452.08
1452090.0,53.0,39.0,5.0,61.0,1452.09
1452100.0,52.0,41.0,5.0,63.0,1452.1
1452110.0,54.0,41.0,6.0,66.0,1452.11
1452120.0,54.0,44.0,6.0,65.0,1452.12
1452130.0,53.0,45.0,5.0,68.0,1452.13
1452140.0,52.0,45.0,7.0,80.0,1452.14
1452150.0,50.0,46.0,5.0,80.0,1452.15
1452160.0,51.0,45.0,7.0,80.0,1452.16
1452170.0,51.0,45.0,6.0,88.0,1452.17
1452180.0,51.0,44.0,5.0,84.0,1452.18
1452190.0,53.0,44.0,5.0,82.0,1452.19
1452200.0,52.0,45.0,5.0,78.0,1452.2
1452210.0,53.0,45.0,5.0,76.0,1452.21
1452220.0,53.0,46.0,8.0,72.0,1452.22
1452230.0,53.0,47.0,8.0,70.0,1452.23
1452240.0,54.0,49.0,7.0,70.0,1452.24
1452250.0,53.0,50.0,6.0,69.0,1452.25
1452260.0,53.0,50.0,10.0,68.0,1452.26
1452270.0,53.0,51.0,9.0,68.0,1452.27
1452280.0,55.0,51.0,10.0,70.0,1452.28
1452290.0,53.0,52.0,8.0,68.0,1452.29
1452300.0,52.0,53.0,7.0,69.0,1452.3
1452310.0,52.0,55.0,7.0,70.0,1452.31
1452320.0,52.0,57.0,7.0,66.0,1452.32
1452331.0,53.0,58.0,6.0,70.0,1452.331
1452341.0,53.0,59.0,5.0,69.0,1452.341
1452351.0,55.0,61.0,8.0,75.0,1452.351
1452361.0,56.0,63.0,7.0,72.0,1452.361
1452371.0,56.0,65.0,8.0,70.0,1452.371
1452381.0,58.0,66.0,8.0,69.0,1452.381
1452391.0,58.0,69.0,9.0,70.0,1452.391
1452401.0,59.0,69.0,8.0,76.0,1452.401
1452411.0,61.0,70.0,7.0,74.0,1452.411
1452421.0,62.0,71.0,8.0,70.0,1452.421
1452431.0,63.0,73.0,6.0,64.0,1452.431
1452441.0,66.0,74.0,7.0,63.0,1452.441
1452451.0,67.0,73.0,6.0,63.0,1452.451
1452461.0,68.0,74.0,6.0,59.0,1452.461
1452471.0,70.0,74.0,6.0,55.0,1452.471
1452481.0,73.0,75.0,7.0,59.0,1452.481
1452491.0,76.0,75.0,7.0,56.0,1452.491
1452502.0,78.0,75.0,6.0,56.0,1452.502
1452512.0,80.0,75.0,6.0,68.0,1452.512
1452522.0,83.0,74.0,7.0,76.0,1452.522
1452532.0,85.0,74.0,8.0,78.0,1452.532
1452542.0,87.0,72.0,8.0,80.0,1452.542
1452552.0,91.0,72.0,7.0,81.0,1452.552
1452562.0,93.0,71.0,8.0,78.0,1452.562
1452572.0,96.0,70.0,6.0,70.0,1452.572
1452582.0,98.0,70.0,6.0,71.0,1452.582
1452592.0,101.0,69.0,6.0,69.0,1452.592
1452602.0,102.0,69.0,5.0,72.0,1452.602
1452612.0,105.0,68.0,6.0,76.0,1452.612
1452622.0,108.0,67.0,5.0,74.0,1452.622
1452632.0,110.0,67.0,6.0,80.0,1452.632
1452642.0,114.0,66.0,6.0,79.0,1452.642
1452652.0,116.0,65.0,5.0,77.0,1452.652
1452662.0,119.0,64.0,5.0,73.0,1452.662
1452672.0,121.0,65.0,5.0,71.0,1452.672
1452682.0,125.0,62.0,5.0,68.0,1452.682
1452692.0,128.0,62.0,5.0,66.0,1452.692
1452702.0,131.0,61.0,5.0,62.0,1452.702
1452712.0,132.0,61.0,5.0,63.0,1452.712
1452722.0,135.0,60.0,4.0,62.0,1452.722
1452732.0,139.0,59.0,5.0,61.0,1452.732
1452742.0,141.0,60.0,9.0,68.0,1452.742
1452752.0,144.0,58.0,7.0,67.0,1452.752
1452762.0,146.0,57.0,7.0,67.0,1452.762
1452772.0,151.0,57.0,9.0,71.0,1452.772
1452782.0,152.0,56.0,9.0,71.0,1452.782
1452792.0,155.0,56.0,9.0,70.0,1452.792
1452802.0,156.0,54.0,8.0,75.0,1452.802
1452812.0,160.0,55.0,8.0,77.0,1452.812
1452822.0,163.0,53.0,8.0,76.0,1452.822
1452832.0,166.0,52.0,7.0,75.0,1452.832
1452843.0,170.0,53.0,8.0,68.0,1452.843
1452853.0,174.0,51.0,11.0,69.0,1452.853
1452863.0,178.0,52.0,12.0,68.0,1452.863
1452873.0,182.0,52.0,12.0,68.0,1452.873
1452883.0,184.0,51.0,11.0,79.0,1452.883
1452893.0,191.0,50.0,12.0,82.0,1452.893
1452903.0,192.0,50.0,11.0,79.0,1452.903
1452913.0,195.0,49.0,12.0,76.0,1452.913
1452923.0,200.0,48.0,11.0,75.0,1452.923
1452933.0,200.0,48.0,12.0,80.0,1452.933
1452943.0,203.0,47.0,13.0,81.0,1452.943
1452953.0,206.0,48.0,12.0,79.0,1452.953
1452963.0,209.0,46.0,11.0,76.0,1452.963
1452973.0,210.0,46.0,9.0,75.0,1452.973
1452983.0,212.0,46.0,9.0,70.0,1452.983
1452993.0,214.0,46.0,8.0,80.0,1452.993
1453003.0,217.0,45.0,8.0,75.0,1453.003
1453014.0,218.0,45.0,9.0,76.0,1453.014
1453024.0,219.0,46.0,9.0,82.0,1453.024
1453034.0,220.0,44.0,8.0,76.0,1453.034
1453044.0,221.0,44.0,7.0,78.0,1453.044
1453054.0,221.0,44.0,8.0,80.0,1453.054
1453064.0,223.0,43.0,10.0,79.0,1453.064
1453074.0,222.0,43.0,10.0,76.0,1453.074
1453084.0,223.0,42.0,9.0,79.0,1453.084
1453094.0,224.0,43.0,9.0,77.0,1453.094
1453104.0,224.0,42.0,8.0,70.0,1453.104
1453114.0,225.0,42.0,7.0,63.0,1453.114
1453124.0,225.0,42.0,7.0,61.0,1453.124
1453134.0,229.0,42.0,9.0,63.0,1453.134
1453144.0,230.0,41.0,11.0,64.0,1453.144
1453154.0,233.0,41.0,12.0,61.0,1453.154
1453164.0,235.0,41.0,11.0,62.0,1453.164
1453174.0,235.0,40.0,10.0,59.0,1453.174
1453184.0,236.0,39.0,9.0,55.0,1453.184
1453194.0,236.0,39.0,8.0,56.0,1453.194
1453204.0,239.0,40.0,10.0,55.0,1453.204
1453214.0,242.0,40.0,7.0,54.0,1453.214
1453224.0,244.0,40.0,7.0,56.0,1453.224
1453234.0,245.0,39.0,6.0,58.0,1453.234
1453244.0,243.0,39.0,6.0,58.0,1453.244
1453254.0,244.0,39.0,6.0,62.0,1453.254
1453264.0,243.0,39.0,5.0,66.0,1453.264
1453274.0,244.0,38.0,6.0,68.0,1453.274
1453284.0,242.0,38.0,6.0,68.0,1453.284
1453294.0,241.0,38.0,5.0,68.0,1453.294
1453304.0,241.0,38.0,5.0,65.0,1453.304
1453314.0,240.0,38.0,4.0,71.0,1453.314
1453324.0,238.0,38.0,5.0,76.0,1453.324
1453334.0,237.0,37.0,4.0,78.0,1453.334
1453344.0,236.0,37.0,4.0,73.0,1453.344
1453355.0,234.0,36.0,6.0,72.0,1453.355
1453365.0,233.0,36.0,6.0,68.0,1453.365
1453375.0,233.0,36.0,6.0,67.0,1453.375
1453385.0,233.0,36.0,6.0,62.0,1453.385
1453395.0,231.0,34.0,6.0,62.0,1453.395
1453405.0,233.0,35.0,8.0,67.0,1453.405
1453415.0,233.0,35.0,12.0,84.0,1453.415
1453425.0,232.0,34.0,10.0,82.0,1453.425
1453435.0,233.0,33.0,9.0,84.0,1453.435
1453445.0,233.0,33.0,8.0,79.0,1453.445
1453455.0,232.0,35.0,8.0,86.0,1453.455
1453465.0,232.0,34.0,9.0,86.0,1453.465
1453475.0,233.0,34.0,9.0,89.0,1453.475
1453485.0,233.0,33.0,11.0,92.0,1453.485
1453495.0,234.0,33.0,10.0,90.0,1453.495
1453505.0,235.0,34.0,9.0,87.0,1453.505
1453515.0,233.0,33.0,8.0,85.0,1453.515
1453526.0,232.0,34.0,9.0,87.0,1453.526
1453536.0,231.0,32.0,9.0,85.0,1453.536
1453546.0,229.0,33.0,8.0,87.0,1453.546
1453556.0,227.0,32.0,9.0,86.0,1453.556
1453566.0,225.0,31.0,8.0,83.0,1453.566
1453576.0,222.0,32.0,8.0,79.0,1453.576
1453586.0,222.0,32.0,8.0,78.0,1453.586
1453596.0,220.0,33.0,7.0,74.0,1453.596
1453606.0,218.0,32.0,7.0,68.0,1453.606
1453616.0,216.0,32.0,5.0,63.0,1453.616
1453626.0,216.0,32.0,7.0,59.0,1453.626
1453636.0,214.0,31.0,6.0,55.0,1453.636
1453646.0,213.0,32.0,5.0,51.0,1453.646
1453656.0,213.0,32.0,5.0,49.0,1453.656
1453666.0,211.0,33.0,5.0,50.0,1453.666
1453676.0,213.0,32.0,5.0,48.0,1453.676
1453686.0,212.0,31.0,4.0,51.0,1453.686
1453696.0,212.0,32.0,6.0,50.0,1453.696
1453706.0,212.0,31.0,6.0,52.0,1453.706
1453716.0,211.0,31.0,6.0,51.0,1453.716
1453726.0,210.0,32.0,7.0,50.0,1453.726
1453736.0,209.0,32.0,13.0,51.0,1453.736
1453746.0,209.0,31.0,14.0,50.0,1453.746
1453756.0,208.0,31.0,12.0,52.0,1453.756
1453766.0,205.0,31.0,16.0,62.0,1453.766
1453776.0,203.0,31.0,16.0,72.0,1453.776
1453786.0,200.0,30.0,14.0,75.0,1453.786
1453796.0,199.0,29.0,12.0,73.0,1453.796
1453806.0,197.0,31.0,12.0,77.0,1453.806
1453816.0,195.0,29.0,11.0,75.0,1453.816
1453826.0,193.0,29.0,10.0,74.0,1453.826
1453836.0,191.0,30.0,9.0,73.0,1453.836
1453846.0,187.0,29.0,9.0,69.0,1453.846
1453856.0,184.0,29.0,8.0,72.0,1453.856
1453867.0,181.0,29.0,8.0,69.0,1453.867
1453877.0,179.0,30.0,8.0,73.0,1453.877
1453887.0,179.0,28.0,7.0,68.0,1453.887
1453897.0,175.0,28.0,6.0,69.0,1453.897
1453907.0,172.0,29.0,6.0,65.0,1453.907
1453917.0,170.0,28.0,7.0,62.0,1453.917
1453927.0,167.0,29.0,6.0,61.0,1453.927
1453937.0,166.0,28.0,6.0,61.0,1453.937
1453947.0,163.0,30.0,9.0,60.0,1453.947
1453957.0,163.0,28.0,9.0,58.0,1453.957
1453967.0,162.0,28.0,8.0,69.0,1453.967
1453977.0,160.0,29.0,8.0,70.0,1453.977
1453987.0,159.0,27.0,8.0,67.0,1453.987
1453997.0,155.0,29.0,6.0,66.0,1453.997
1454007.0,151.0,28.0,6.0,64.0,1454.007
1454017.0,149.0,29.0,6.0,65.0,1454.017
1454027.0,144.0,29.0,6.0,66.0,1454.027
1454038.0,143.0,28.0,5.0,65.0,1454.038
1454048.0,139.0,29.0,6.0,66.0,1454.048
1454058.0,137.0,29.0,5.0,63.0,1454.058
1454068.0,134.0,29.0,4.0,74.0,1454.068
1454078.0,129.0,28.0,5.0,70.0,1454.078
1454088.0,129.0,29.0,6.0,72.0,1454.088
1454098.0,128.0,29.0,6.0,72.0,1454.098
1454108.0,128.0,28.0,6.0,71.0,1454.108
1454118.0,127.0,29.0,5.0,69.0,1454.118
1454128.0,127.0,29.0,6.0,69.0,1454.128
1454138.0,124.0,29.0,4.0,78.0,1454.138
1454148.0,122.0,29.0,5.0,77.0,1454.148
1454158.0,120.0,30.0,5.0,76.0,1454.158
1454168.0,118.0,29.0,8.0,86.0,1454.168
1454178.0,117.0,29.0,8.0,85.0,1454.178
1454188.0,116.0,29.0,8.0,91.0,1454.188
1454198.0,113.0,29.0,8.0,91.0,1454.198
1454208.0,111.0,29.0,8.0,89.0,1454.208
1454218.0,108.0,29.0,7.0,92.0,1454.218
1454228.0,107.0,30.0,7.0,92.0,1454.228
1454238.0,103.0,30.0,7.0,90.0,1454.238
1454248.0,100.0,30.0,7.0,86.0,1454.248
1454258.0,98.0,29.0,5.0,85.0,1454.258
1454268.0,96.0,30.0,7.0,83.0,1454.268
1454278.0,92.0,30.0,6.0,75.0,1454.278
1454288.0,90.0,29.0,5.0,72.0,1454.288
1454298.0,88.0,29.0,6.0,67.0,1454.298
1454308.0,85.0,30.0,5.0,70.0,1454.308
1454318.0,83.0,29.0,5.0,66.0,1454.318
1454328.0,79.0,31.0,4.0,64.0,1454.328
1454338.0,79.0,30.0,5.0,62.0,1454.338
1454348.0,78.0,30.0,4.0,63.0,1454.348
1454358.0,75.0,30.0,4.0,61.0,1454.358
1454368.0,74.0,30.0,4.0,59.0,1454.368
1454379.0,71.0,31.0,3.0,55.0,1454.379
1454389.0,68.0,30.0,4.0,54.0,1454.389
1454399.0,65.0,30.0,3.0,54.0,1454.399
1454409.0,64.0,30.0,5.0,66.0,1454.409
1454419.0,62.0,30.0,6.0,73.0,1454.419
1454429.0,61.0,30.0,7.0,71.0,1454.429
1454439.0,59.0,29.0,6.0,79.0,1454.439
1454449.0,58.0,31.0,6.0,79.0,1454.449
1454459.0,58.0,30.0,6.0,76.0,1454.459
1454469.0,55.0,31.0,6.0,74.0,1454.469
1454479.0,53.0,30.0,7.0,73.0,1454.479
1454489.0,53.0,31.0,6.0,78.0,1454.489
1454499.0,50.0,30.0,6.0,76.0,1454.499
1454509.0,50.0,30.0,5.0,70.0,1454.509
1454519.0,48.0,31.0,5.0,67.0,1454.519
1454529.0,48.0,30.0,7.0,64.0,1454.529
1454539.0,48.0,31.0,8.0,61.0,1454.539
