time (ms),signal 0,signal 1,signal 2,signal3,time (sec)
1429944.0,49.0,45.0,4.0,92.0,1429.944
1429954.0,47.0,43.0,4.0,93.0,1429.954
1429964.0,47.0,41.0,4.0,108.0,1429.964
1429974.0,47.0,42.0,3.0,112.0,1429.974
1429984.0,45.0,39.0,4.0,110.0,1429.984
1429994.0,45.0,39.0,4.0,103.0,1429.994
1430004.0,45.0,39.0,6.0,105.0,1430.004
1430014.0,44.0,38.0,5.0,110.0,1430.014
1430024.0,44.0,38.0,5.0,109.0,1430.024
1430034.0,45.0,37.0,5.0,102.0,1430.034
1430044.0,45.0,39.0,5.0,96.0,1430.044
1430054.0,46.0,36.0,5.0,99.0,1430.054
1430064.0,44.0,38.0,4.0,96.0,1430.064
1430074.0,45.0,37.0,6.0,102.0,1430.074
1430084.0,44.0,38.0,4.0,102.0,1430.084
1430094.0,44.0,38.0,5.0,97.0,1430.094
1430104.0,44.0,37.0,5.0,93.0,1430.104
1430114.0,43.0,39.0,5.0,92.0,1430.114
1430124.0,44.0,38.0,5.0,90.0,1430.124
1430134.0,44.0,38.0,7.0,101.0,1430.134
1430144.0,45.0,38.0,7.0,97.0,1430.144
1430154.0,47.0,39.0,6.0,90.0,1430.154
1430164.0,46.0,40.0,6.0,94.0,1430.164
1430174.0,47.0,43.0,6.0,91.0,1430.174
1430184.0,46.0,44.0,11.0,98.0,1430.184
1430194.0,47.0,43.0,10.0,102.0,1430.194
1430204.0,47.0,41.0,8.0,95.0,1430.204
1430214.0,49.0,41.0,8.0,92.0,1430.214
1430224.0,49.0,43.0,8.0,93.0,1430.224
1430234.0,49.0,43.0,7.0,96.0,1430.234
1430244.0,49.0,43.0,7.0,97.0,1430.244
1430254.0,50.0,44.0,7.0,99.0,1430.254
1430264.0,49.0,43.0,7.0,98.0,1430.264
1430274.0,49.0,43.0,9.0,107.0,1430.274
1430284.0,47.0,43.0,10.0,101.0,1430.284
1430294.0,47.0,45.0,9.0,103.0,1430.294
1430304.0,48.0,44.0,7.0,103.0,1430.304
1430315.0,48.0,44.0,8.0,93.0,1430.315
1430325.0,47.0,45.0,7.0,96.0,1430.325
1430335.0,47.0,44.0,7.0,87.0,1430.335
1430345.0,47.0,44.0,6.0,85.0,1430.345
1430355.0,46.0,44.0,7.0,89.0,1430.355
1430365.0,45.0,42.0,6.0,83.0,1430.365
1430375.0,44.0,42.0,4.0,76.0,1430.375
1430385.0,45.0,41.0,6.0,103.0,1430.385
1430395.0,43.0,42.0,5.0,106.0,1430.395
1430405.0,45.0,39.0,5.0,98.0,1430.405
1430415.0,45.0,39.0,5.0,91.0,1430.415
1430425.0,44.0,39.0,6.0,97.0,1430.425
1430435.0,45.0,37.0,6.0,99.0,1430.435
1430445.0,44.0,37.0,5.0,100.0,1430.445
1430455.0,44.0,36.0,5.0,103.0,1430.455
1430465.0,43.0,37.0,6.0,104.0,1430.465
1430475.0,42.0,36.0,6.0,94.0,1430.475
1430486.0,43.0,35.0,5.0,89.0,1430.486
1430496.0,43.0,36.0,5.0,90.0,1430.496
1430506.0,43.0,35.0,6.0,91.0,1430.506
1430516.0,42.0,36.0,5.0,89.0,1430.516
1430526.0,43.0,36.0,4.0,87.0,1430.526
1430536.0,42.0,37.0,4.0,84.0,1430.536
1430546.0,43.0,36.0,4.0,88.0,1430.546
1430556.0,44.0,36.0,4.0,86.0,1430.556
1430566.0,43.0,38.0,4.0,81.0,1430.566
1430576.0,43.0,38.0,4.0,84.0,1430.576
1430586.0,44.0,40.0,4.0,83.0,1430.586
1430596.0,43.0,41.0,3.0,91.0,1430.596
1430606.0,43.0,44.0,5.0,96.0,1430.606
1430616.0,44.0,44.0,4.0,97.0,1430.616
1430626.0,45.0,46.0,5.0,94.0,1430.626
1430636.0,46.0,46.0,5.0,94.0,1430.636
1430646.0,47.0,46.0,6.0,88.0,1430.646
1430656.0,46.0,47.0,5.0,85.0,1430.656
1430666.0,46.0,47.0,4.0,80.0,1430.666
1430676.0,46.0,49.0,5.0,82.0,1430.676
1430686.0,47.0,49.0,5.0,80.0,1430.686
1430696.0,48.0,49.0,4.0,75.0,1430.696
1430706.0,48.0,51.0,5.0,85.0,1430.706
1430716.0,48.0,52.0,5.0,83.0,1430.716
1430726.0,48.0,52.0,4.0,81.0,1430.726
1430736.0,48.0,52.0,4.0,85.0,1430.736
1430746.0,48.0,50.0,4.0,81.0,1430.746
1430756.0,47.0,50.0,3.0,85.0,1430.756
1430766.0,47.0,48.0,6.0,93.0,1430.766
1430776.0,46.0,47.0,5.0,100.0,1430.776
1430786.0,47.0,47.0,7.0,95.0,1430.786
1430796.0,47.0,46.0,4.0,95.0,1430.796
1430806.0,48.0,46.0,4.0,97.0,1430.806
1430816.0,48.0,45.0,4.0,92.0,1430.816
1430827.0,47.0,45.0,3.0,92.0,1430.827
1430837.0,48.0,46.0,4.0,86.0,1430.837
1430847.0,46.0,47.0,5.0,81.0,1430.847
1430857.0,47.0,46.0,6.0,78.0,1430.857
1430867.0,45.0,46.0,4.0,74.0,1430.867
1430877.0,45.0,45.0,6.0,76.0,1430.877
1430887.0,44.0,45.0,5.0,78.0,1430.887
1430897.0,45.0,46.0,4.0,78.0,1430.897
1430907.0,45.0,45.0,5.0,83.0,1430.907
1430917.0,47.0,45.0,5.0,84.0,1430.917
1430927.0,46.0,45.0,4.0,80.0,1430.927
1430937.0,49.0,46.0,4.0,80.0,1430.937
1430947.0,48.0,48.0,4.0,76.0,1430.947
1430957.0,49.0,49.0,4.0,69.0,1430.957
1430967.0,48.0,52.0,4.0,67.0,1430.967
1430977.0,46.0,52.0,5.0,63.0,1430.977
1430987.0,47.0,53.0,5.0,67.0,1430.987
1430998.0,47.0,53.0,8.0,68.0,1430.998
1431008.0,49.0,52.0,6.0,74.0,1431.008
1431018.0,48.0,52.0,7.0,81.0,1431.018
1431028.0,49.0,51.0,6.0,80.0,1431.028
1431038.0,50.0,50.0,6.0,75.0,1431.038
1431048.0,51.0,49.0,6.0,72.0,1431.048
1431058.0,51.0,48.0,6.0,70.0,1431.058
1431068.0,53.0,50.0,7.0,69.0,1431.068
1431078.0,53.0,50.0,6.0,81.0,1431.078
1431088.0,53.0,49.0,5.0,82.0,1431.088
1431098.0,55.0,49.0,6.0,79.0,1431.098
1431108.0,55.0,49.0,5.0,76.0,1431.108
1431118.0,56.0,47.0,5.0,73.0,1431.118
1431128.0,56.0,46.0,5.0,82.0,1431.128
1431138.0,55.0,47.0,6.0,84.0,1431.138
1431148.0,57.0,47.0,4.0,84.0,1431.148
1431158.0,55.0,48.0,5.0,94.0,1431.158
1431168.0,58.0,46.0,6.0,88.0,1431.168
1431178.0,58.0,46.0,5.0,87.0,1431.178
1431188.0,59.0,43.0,5.0,90.0,1431.188
1431198.0,58.0,44.0,7.0,89.0,1431.198
1431208.0,60.0,43.0,8.0,85.0,1431.208
1431218.0,61.0,42.0,6.0,86.0,1431.218
1431228.0,62.0,41.0,4.0,88.0,1431.228
1431238.0,63.0,40.0,6.0,93.0,1431.238
1431248.0,65.0,40.0,5.0,92.0,1431.248
1431258.0,66.0,39.0,6.0,91.0,1431.258
1431268.0,66.0,39.0,6.0,89.0,1431.268
1431278.0,66.0,39.0,6.0,90.0,1431.278
1431288.0,66.0,38.0,6.0,87.0,1431.288
1431298.0,65.0,38.0,5.0,81.0,1431.298
1431308.0,65.0,37.0,6.0,81.0,1431.308
1431318.0,64.0,38.0,5.0,87.0,1431.318
1431328.0,65.0,38.0,5.0,84.0,1431.328
1431339.0,65.0,39.0,5.0,79.0,1431.339
1431349.0,67.0,40.0,6.0,83.0,1431.349
1431359.0,67.0,40.0,8.0,89.0,1431.359
1431369.0,68.0,39.0,10.0,103.0,1431.369
1431379.0,67.0,39.0,10.0,101.0,1431.379
1431389.0,69.0,39.0,10.0,103.0,1431.389
1431399.0,70.0,38.0,10.0,100.0,1431.399
1431409.0,70.0,37.0,9.0,98.0,1431.409
1431419.0,69.0,37.0,12.0,103.0,1431.419
1431429.0,71.0,38.0,13.0,113.0,1431.429
1431439.0,70.0,40.0,10.0,112.0,1431.439
1431449.0,70.0,41.0,10.0,115.0,1431.449
1431459.0,71.0,43.0,9.0,110.0,1431.459
1431469.0,73.0,45.0,8.0,105.0,1431.469
1431479.0,72.0,44.0,10.0,98.0,1431.479
1431489.0,75.0,47.0,11.0,106.0,1431.489
1431499.0,75.0,46.0,22.0,118.0,1431.499
1431510.0,74.0,49.0,23.0,118.0,1431.51
1431520.0,78.0,50.0,20.0,117.0,1431.52
1431530.0,79.0,53.0,18.0,123.0,1431.53
1431540.0,81.0,55.0,16.0,120.0,1431.54
1431550.0,82.0,56.0,15.0,125.0,1431.55
1431560.0,81.0,58.0,13.0,121.0,1431.56
1431570.0,83.0,59.0,13.0,111.0,1431.57
1431580.0,82.0,60.0,10.0,106.0,1431.58
1431590.0,80.0,59.0,10.0,97.0,1431.59
1431600.0,80.0,59.0,10.0,104.0,1431.6
1431610.0,79.0,58.0,11.0,116.0,1431.61
1431620.0,77.0,58.0,17.0,124.0,1431.62
1431630.0,79.0,62.0,16.0,118.0,1431.63
1431640.0,80.0,64.0,15.0,116.0,1431.64
1431650.0,78.0,66.0,12.0,120.0,1431.65
1431660.0,79.0,67.0,12.0,109.0,1431.66
1431670.0,80.0,67.0,10.0,106.0,1431.67
1431680.0,79.0,66.0,10.0,108.0,1431.68
1431690.0,78.0,64.0,15.0,109.0,1431.69
1431700.0,77.0,66.0,17.0,117.0,1431.7
1431710.0,79.0,67.0,17.0,135.0,1431.71
1431720.0,77.0,69.0,18.0,130.0,1431.72
1431730.0,76.0,69.0,19.0,124.0,1431.73
1431740.0,79.0,73.0,17.0,118.0,1431.74
1431750.0,79.0,74.0,15.0,116.0,1431.75
1431760.0,79.0,74.0,19.0,118.0,1431.76
1431770.0,79.0,76.0,17.0,117.0,1431.77
1431780.0,82.0,77.0,17.0,123.0,1431.78
1431790.0,82.0,79.0,15.0,121.0,1431.79
1431800.0,81.0,81.0,13.0,130.0,1431.8
1431810.0,83.0,82.0,13.0,136.0,1431.81
1431820.0,83.0,82.0,16.0,143.0,1431.82
1431830.0,85.0,82.0,14.0,130.0,1431.83
1431840.0,85.0,83.0,13.0,122.0,1431.84
1431851.0,87.0,82.0,13.0,128.0,1431.851
1431861.0,84.0,80.0,14.0,128.0,1431.861
1431871.0,85.0,80.0,16.0,123.0,1431.871
1431881.0,87.0,81.0,14.0,117.0,1431.881
1431891.0,89.0,82.0,12.0,113.0,1431.891
1431901.0,90.0,81.0,11.0,116.0,1431.901
1431911.0,91.0,82.0,11.0,114.0,1431.911
1431921.0,94.0,83.0,11.0,136.0,1431.921
1431931.0,93.0,83.0,14.0,136.0,1431.931
1431941.0,94.0,85.0,13.0,129.0,1431.941
1431951.0,93.0,85.0,14.0,131.0,1431.951
1431961.0,91.0,87.0,14.0,132.0,1431.961
1431971.0,92.0,87.0,12.0,136.0,1431.971
1431981.0,91.0,87.0,12.0,129.0,1431.981
1431991.0,92.0,87.0,12.0,128.0,1431.991
1432001.0,91.0,85.0,12.0,119.0,1432.001
1432011.0,90.0,84.0,11.0,110.0,1432.011
1432022.0,89.0,83.0,10.0,106.0,1432.022
1432032.0,88.0,82.0,10.0,111.0,1432.032
1432042.0,87.0,78.0,10.0,103.0,1432.042
1432052.0,87.0,78.0,8.0,106.0,1432.052
1432062.0,88.0,77.0,9.0,114.0,1432.062
1432072.0,87.0,75.0,10.0,110.0,1432.072
1432082.0,86.0,75.0,12.0,111.0,1432.082
1432092.0,86.0,73.0,11.0,114.0,1432.092
1432102.0,87.0,73.0,9.0,112.0,1432.102
1432112.0,87.0,72.0,9.0,104.0,1432.112
1432122.0,87.0,71.0,8.0,106.0,1432.122
1432132.0,85.0,69.0,9.0,107.0,1432.132
1432142.0,84.0,68.0,10.0,116.0,1432.142
1432152.0,84.0,68.0,8.0,116.0,1432.152
1432162.0,82.0,66.0,10.0,111.0,1432.162
1432172.0,81.0,69.0,10.0,115.0,1432.172
1432182.0,81.0,70.0,9.0,118.0,1432.182
1432192.0,81.0,70.0,9.0,112.0,1432.192
1432202.0,79.0,68.0,17.0,118.0,1432.202
1432212.0,81.0,67.0,15.0,119.0,1432.212
1432222.0,81.0,68.0,14.0,116.0,1432.222
1432232.0,80.0,67.0,12.0,125.0,1432.232
1432242.0,80.0,68.0,11.0,121.0,1432.242
1432252.0,81.0,66.0,11.0,113.0,1432.252
1432262.0,81.0,65.0,10.0,115.0,1432.262
1432272.0,84.0,64.0,13.0,111.0,1432.272
1432282.0,85.0,64.0,13.0,107.0,1432.282
1432292.0,86.0,63.0,12.0,110.0,1432.292
1432302.0,88.0,62.0,11.0,104.0,1432.302
1432312.0,88.0,60.0,9.0,109.0,1432.312
1432322.0,87.0,59.0,10.0,106.0,1432.322
1432332.0,89.0,59.0,9.0,102.0,1432.332
1432342.0,90.0,59.0,9.0,98.0,1432.342
1432352.0,90.0,57.0,9.0,93.0,1432.352
1432363.0,90.0,58.0,7.0,92.0,1432.363
1432373.0,90.0,57.0,8.0,89.0,1432.373
1432383.0,90.0,57.0,9.0,98.0,1432.383
1432393.0,90.0,57.0,9.0,103.0,1432.393
1432403.0,92.0,58.0,8.0,107.0,1432.403
1432413.0,92.0,59.0,8.0,110.0,1432.413
1432423.0,92.0,58.0,7.0,119.0,1432.423
1432433.0,90.0,59.0,6.0,113.0,1432.433
1432443.0,91.0,60.0,6.0,109.0,1432.443
1432453.0,90.0,61.0,6.0,107.0,1432.453
1432463.0,89.0,60.0,6.0,124.0,1432.463
1432473.0,90.0,61.0,5.0,119.0,1432.473
1432483.0,89.0,61.0,8.0,116.0,1432.483
1432493.0,89.0,61.0,9.0,110.0,1432.493
1432503.0,88.0,60.0,7.0,103.0,1432.503
1432513.0,86.0,57.0,6.0,106.0,1432.513
1432523.0,86.0,59.0,6.0,108.0,1432.523
1432534.0,85.0,58.0,6.0,102.0,1432.534
1432544.0,83.0,55.0,6.0,99.0,1432.544
1432554.0,83.0,55.0,5.0,97.0,1432.554
1432564.0,82.0,55.0,6.0,95.0,1432.564
1432574.0,79.0,53.0,6.0,96.0,1432.574
1432584.0,80.0,53.0,7.0,102.0,1432.584
1432594.0,78.0,53.0,10.0,97.0,1432.594
1432604.0,80.0,52.0,9.0,92.0,1432.604
1432614.0,78.0,50.0,9.0,86.0,1432.614
1432624.0,77.0,50.0,9.0,81.0,1432.624
1432634.0,78.0,49.0,9.0,75.0,1432.634
1432644.0,76.0,48.0,8.0,79.0,1432.644
1432654.0,77.0,48.0,10.0,93.0,1432.654
1432664.0,77.0,47.0,9.0,97.0,1432.664
1432674.0,77.0,48.0,8.0,98.0,1432.674
1432684.0,76.0,46.0,7.0,94.0,1432.684
1432694.0,75.0,46.0,7.0,90.0,1432.694
1432704.0,74.0,44.0,6.0,96.0,1432.704
1432714.0,74.0,44.0,6.0,89.0,1432.714
1432724.0,72.0,42.0,6.0,101.0,1432.724
1432734.0,70.0,42.0,6.0,103.0,1432.734
1432744.0,70.0,41.0,6.0,96.0,1432.744
1432754.0,71.0,39.0,6.0,93.0,1432.754
1432764.0,69.0,39.0,7.0,89.0,1432.764
1432774.0,70.0,38.0,8.0,80.0,1432.774
1432784.0,69.0,38.0,6.0,75.0,1432.784
1432794.0,68.0,38.0,5.0,76.0,1432.794
1432804.0,68.0,37.0,6.0,73.0,1432.804
1432814.0,67.0,51.0,7.0,73.0,1432.814
1432824.0,69.0,58.0,11.0,70.0,1432.824
1432834.0,68.0,68.0,9.0,71.0,1432.834
1432844.0,66.0,80.0,14.0,86.0,1432.844
1432854.0,67.0,83.0,13.0,84.0,1432.854
1432864.0,66.0,92.0,16.0,79.0,1432.864
1432875.0,65.0,115.0,31.0,87.0,1432.875
1432885.0,69.0,118.0,35.0,83.0,1432.885
1432895.0,72.0,110.0,33.0,76.0,1432.895
1432905.0,72.0,106.0,28.0,70.0,1432.905
1432915.0,77.0,115.0,35.0,69.0,1432.915
1432925.0,76.0,120.0,34.0,75.0,1432.925
1432935.0,80.0,136.0,48.0,77.0,1432.935
1432945.0,84.0,125.0,47.0,78.0,1432.945
1432955.0,85.0,119.0,43.0,74.0,1432.955
1432965.0,88.0,110.0,38.0,71.0,1432.965
1432975.0,96.0,105.0,33.0,71.0,1432.975
1432985.0,101.0,106.0,31.0,66.0,1432.985
1432995.0,100.0,102.0,25.0,60.0,1432.995
1433005.0,138.0,112.0,24.0,64.0,1433.005
1433015.0,153.0,109.0,21.0,60.0,1433.015
1433025.0,146.0,108.0,26.0,64.0,1433.025
1433035.0,149.0,104.0,29.0,74.0,1433.035
1433046.0,147.0,110.0,26.0,75.0,1433.046
1433056.0,159.0,105.0,27.0,75.0,1433.056
1433066.0,153.0,103.0,25.0,72.0,1433.066
1433076.0,140.0,105.0,22.0,65.0,1433.076
1433086.0,141.0,105.0,20.0,62.0,1433.086
1433096.0,132.0,109.0,18.0,57.0,1433.096
1433106.0,123.0,117.0,17.0,55.0,1433.106
1433116.0,119.0,121.0,15.0,55.0,1433.116
1433126.0,115.0,129.0,19.0,57.0,1433.126
1433136.0,109.0,135.0,17.0,54.0,1433.136
1433146.0,103.0,135.0,15.0,51.0,1433.146
1433156.0,98.0,133.0,17.0,49.0,1433.156
1433166.0,97.0,137.0,17.0,47.0,1433.166
1433176.0,91.0,135.0,15.0,46.0,1433.176
1433186.0,87.0,138.0,15.0,44.0,1433.186
1433196.0,100.0,146.0,15.0,43.0,1433.196
1433206.0,93.0,144.0,13.0,41.0,1433.206
1433216.0,92.0,149.0,14.0,39.0,1433.216
1433226.0,87.0,149.0,13.0,39.0,1433.226
1433236.0,83.0,150.0,11.0,40.0,1433.236
1433246.0,84.0,152.0,16.0,38.0,1433.246
1433256.0,80.0,150.0,16.0,38.0,1433.256
1433266.0,77.0,149.0,14.0,38.0,1433.266
1433276.0,75.0,146.0,14.0,40.0,1433.276
1433286.0,74.0,153.0,16.0,40.0,1433.286
1433296.0,75.0,160.0,16.0,41.0,1433.296
1433306.0,74.0,159.0,15.0,47.0,1433.306
1433316.0,75.0,160.0,14.0,48.0,1433.316
1433326.0,76.0,160.0,13.0,46.0,1433.326
1433336.0,81.0,159.0,15.0,45.0,1433.336
1433346.0,96.0,157.0,14.0,43.0,1433.346
1433356.0,94.0,153.0,12.0,43.0,1433.356
1433366.0,87.0,148.0,12.0,41.0,1433.366
1433376.0,84.0,141.0,11.0,43.0,1433.376
1433387.0,84.0,146.0,11.0,40.0,1433.387
1433397.0,86.0,149.0,13.0,40.0,1433.397
1433407.0,83.0,149.0,12.0,39.0,1433.407
1433417.0,79.0,145.0,11.0,39.0,1433.417
1433427.0,75.0,143.0,9.0,38.0,1433.427
1433437.0,73.0,141.0,8.0,36.0,1433.437
1433447.0,74.0,142.0,8.0,37.0,1433.447
1433457.0,73.0,141.0,7.0,34.0,1433.457
1433467.0,71.0,143.0,8.0,34.0,1433.467
1433477.0,74.0,145.0,7.0,33.0,1433.477
1433487.0,71.0,137.0,7.0,33.0,1433.487
1433497.0,68.0,135.0,6.0,34.0,1433.497
1433507.0,69.0,134.0,6.0,34.0,1433.507
1433517.0,68.0,134.0,7.0,34.0,1433.517
1433527.0,67.0,134.0,7.0,33.0,1433.527
1433537.0,67.0,132.0,6.0,33.0,1433.537
1433547.0,64.0,132.0,8.0,32.0,1433.547
1433558.0,67.0,134.0,8.0,31.0,1433.558
1433568.0,67.0,135.0,7.0,32.0,1433.568
1433578.0,64.0,133.0,8.0,31.0,1433.578
1433588.0,63.0,130.0,8.0,33.0,1433.588
1433598.0,61.0,128.0,8.0,32.0,1433.598
1433608.0,60.0,126.0,9.0,30.0,1433.608
1433618.0,61.0,123.0,9.0,30.0,1433.618
1433628.0,62.0,120.0,10.0,31.0,1433.628
1433638.0,62.0,119.0,10.0,31.0,1433.638
1433648.0,62.0,116.0,9.0,30.0,1433.648
1433658.0,62.0,113.0,8.0,31.0,1433.658
1433668.0,64.0,111.0,9.0,31.0,1433.668
1433678.0,61.0,111.0,8.0,31.0,1433.678
1433688.0,58.0,109.0,8.0,31.0,1433.688
1433698.0,60.0,107.0,9.0,30.0,1433.698
1433708.0,58.0,104.0,7.0,31.0,1433.708
1433718.0,58.0,103.0,9.0,31.0,1433.718
1433728.0,56.0,100.0,8.0,33.0,1433.728
1433738.0,57.0,99.0,8.0,34.0,1433.738
1433748.0,58.0,97.0,7.0,36.0,1433.748
1433758.0,57.0,97.0,7.0,38.0,1433.758
1433768.0,58.0,98.0,8.0,40.0,1433.768
1433778.0,57.0,97.0,5.0,41.0,1433.778
1433788.0,59.0,94.0,6.0,41.0,1433.788
1433798.0,60.0,93.0,6.0,40.0,1433.798
1433808.0,58.0,91.0,5.0,42.0,1433.808
1433818.0,58.0,89.0,6.0,41.0,1433.818
1433828.0,61.0,96.0,5.0,41.0,1433.828
1433838.0,60.0,91.0,7.0,40.0,1433.838
1433848.0,60.0,92.0,6.0,39.0,1433.848
1433858.0,59.0,90.0,6.0,40.0,1433.858
1433868.0,57.0,88.0,5.0,39.0,1433.868
1433878.0,57.0,83.0,5.0,39.0,1433.878
1433888.0,60.0,84.0,5.0,38.0,1433.888
1433899.0,59.0,82.0,4.0,38.0,1433.899
1433909.0,60.0,79.0,6.0,38.0,1433.909
1433919.0,60.0,80.0,5.0,39.0,1433.919
1433929.0,60.0,82.0,5.0,41.0,1433.929
1433939.0,61.0,87.0,5.0,45.0,1433.939
1433949.0,62.0,86.0,4.0,44.0,1433.949
1433959.0,64.0,83.0,5.0,44.0,1433.959
1433969.0,62.0,79.0,5.0,46.0,1433.969
1433979.0,63.0,73.0,6.0,45.0,1433.979
1433989.0,64.0,70.0,5.0,44.0,1433.989
1433999.0,62.0,67.0,5.0,41.0,1433.999
1434009.0,62.0,65.0,4.0,40.0,1434.009
1434019.0,64.0,70.0,5.0,39.0,1434.019
1434029.0,64.0,71.0,5.0,38.0,1434.029
1434039.0,64.0,66.0,4.0,36.0,1434.039
1434049.0,67.0,63.0,5.0,34.0,1434.049
1434059.0,64.0,61.0,5.0,34.0,1434.059
1434070.0,64.0,61.0,5.0,33.0,1434.07
1434080.0,65.0,57.0,5.0,32.0,1434.08
1434090.0,65.0,57.0,5.0,30.0,1434.09
1434100.0,65.0,54.0,5.0,29.0,1434.1
1434110.0,65.0,52.0,5.0,29.0,1434.11
1434120.0,64.0,58.0,6.0,28.0,1434.12
1434130.0,65.0,57.0,5.0,28.0,1434.13
1434140.0,68.0,61.0,6.0,29.0,1434.14
1434150.0,71.0,65.0,6.0,30.0,1434.15
1434160.0,70.0,61.0,5.0,31.0,1434.16
1434170.0,67.0,56.0,6.0,30.0,1434.17
1434180.0,65.0,57.0,5.0,30.0,1434.18
1434190.0,63.0,56.0,6.0,31.0,1434.19
1434200.0,60.0,53.0,5.0,30.0,1434.2
1434210.0,60.0,55.0,5.0,31.0,1434.21
1434220.0,58.0,53.0,5.0,31.0,1434.22
1434230.0,57.0,54.0,5.0,32.0,1434.23
1434240.0,57.0,52.0,4.0,31.0,1434.24
1434250.0,57.0,55.0,4.0,32.0,1434.25
1434260.0,57.0,54.0,4.0,32.0,1434.26
1434270.0,59.0,55.0,4.0,34.0,1434.27
1434280.0,55.0,51.0,4.0,33.0,1434.28
1434290.0,59.0,51.0,4.0,31.0,1434.29
1434300.0,58.0,53.0,3.0,32.0,1434.3
1434310.0,56.0,51.0,4.0,30.0,1434.31
1434320.0,57.0,51.0,4.0,29.0,1434.32
1434330.0,57.0,52.0,5.0,30.0,1434.33
1434340.0,58.0,52.0,5.0,29.0,1434.34
1434350.0,57.0,51.0,4.0,28.0,1434.35
1434360.0,59.0,59.0,4.0,28.0,1434.36
1434370.0,58.0,58.0,4.0,28.0,1434.37
1434380.0,57.0,56.0,4.0,28.0,1434.38
1434390.0,57.0,55.0,3.0,28.0,1434.39
1434400.0,58.0,54.0,4.0,27.0,1434.4
1434411.0,59.0,56.0,3.0,28.0,1434.411
1434421.0,58.0,56.0,2.0,28.0,1434.421
1434431.0,57.0,53.0,4.0,28.0,1434.431
1434441.0,57.0,54.0,3.0,29.0,1434.441
1434451.0,55.0,58.0,3.0,28.0,1434.451
1434461.0,55.0,60.0,3.0,29.0,1434.461
1434471.0,56.0,58.0,3.0,27.0,1434.471
1434481.0,57.0,61.0,4.0,31.0,1434.481
1434491.0,57.0,68.0,2.0,31.0,1434.491
1434501.0,59.0,66.0,4.0,30.0,1434.501
1434511.0,58.0,64.0,3.0,31.0,1434.511
1434521.0,56.0,58.0,3.0,30.0,1434.521
1434531.0,57.0,56.0,3.0,30.0,1434.531
1434541.0,58.0,55.0,3.0,30.0,1434.541
1434551.0,60.0,53.0,4.0,30.0,1434.551
1434561.0,60.0,52.0,2.0,31.0,1434.561
1434571.0,60.0,49.0,3.0,31.0,1434.571
1434582.0,61.0,51.0,3.0,32.0,1434.582
1434592.0,60.0,56.0,3.0,30.0,1434.592
1434602.0,60.0,53.0,3.0,30.0,1434.602
1434612.0,60.0,54.0,4.0,30.0,1434.612
1434622.0,63.0,51.0,3.0,29.0,1434.622
1434632.0,60.0,52.0,4.0,29.0,1434.632
1434642.0,58.0,51.0,4.0,29.0,1434.642
1434652.0,59.0,52.0,3.0,30.0,1434.652
1434662.0,59.0,58.0,3.0,28.0,1434.662
1434672.0,58.0,57.0,3.0,29.0,1434.672
1434682.0,59.0,56.0,3.0,29.0,1434.682
1434692.0,59.0,53.0,4.0,30.0,1434.692
1434702.0,58.0,51.0,2.0,31.0,1434.702
1434712.0,59.0,50.0,4.0,30.0,1434.712
1434722.0,57.0,50.0,3.0,31.0,1434.722
1434732.0,57.0,49.0,3.0,29.0,1434.732
1434742.0,57.0,54.0,3.0,28.0,1434.742
1434752.0,59.0,58.0,3.0,29.0,1434.752
1434762.0,61.0,57.0,4.0,30.0,1434.762
1434772.0,60.0,58.0,2.0,30.0,1434.772
1434782.0,66.0,64.0,4.0,31.0,1434.782
1434792.0,67.0,62.0,3.0,33.0,1434.792
1434802.0,69.0,64.0,3.0,33.0,1434.802
1434812.0,68.0,62.0,3.0,34.0,1434.812
1434822.0,68.0,61.0,3.0,35.0,1434.822
1434832.0,69.0,62.0,5.0,35.0,1434.832
1434842.0,67.0,59.0,3.0,34.0,1434.842
1434852.0,67.0,57.0,3.0,36.0,1434.852
1434862.0,65.0,55.0,3.0,38.0,1434.862
1434872.0,67.0,52.0,3.0,37.0,1434.872
1434882.0,66.0,51.0,3.0,38.0,1434.882
1434892.0,65.0,53.0,3.0,37.0,1434.892
1434902.0,65.0,54.0,4.0,37.0,1434.902
1434912.0,63.0,54.0,4.0,38.0,1434.912
1434923.0,62.0,53.0,4.0,37.0,1434.923
1434933.0,62.0,54.0,3.0,37.0,1434.933
1434943.0,63.0,52.0,3.0,36.0,1434.943
1434953.0,64.0,50.0,3.0,37.0,1434.953
1434963.0,64.0,50.0,3.0,38.0,1434.963
1434973.0,65.0,48.0,3.0,37.0,1434.973
1434983.0,64.0,50.0,2.0,38.0,1434.983
1434993.0,63.0,49.0,3.0,35.0,1434.993
1435003.0,66.0,51.0,3.0,36.0,1435.003
1435013.0,66.0,49.0,3.0,34.0,1435.013
1435023.0,66.0,48.0,3.0,33.0,1435.023
1435033.0,65.0,47.0,3.0,32.0,1435.033
1435043.0,68.0,45.0,4.0,31.0,1435.043
1435053.0,67.0,44.0,3.0,31.0,1435.053
1435063.0,66.0,43.0,4.0,29.0,1435.063
1435073.0,68.0,43.0,3.0,29.0,1435.073
1435083.0,67.0,42.0,3.0,30.0,1435.083
1435094.0,68.0,41.0,3.0,29.0,1435.094
1435104.0,67.0,39.0,3.0,29.0,1435.104
1435114.0,67.0,40.0,4.0,30.0,1435.114
1435124.0,64.0,41.0,2.0,30.0,1435.124
1435134.0,63.0,40.0,3.0,33.0,1435.134
1435144.0,63.0,40.0,2.0,37.0,1435.144
1435154.0,64.0,41.0,3.0,40.0,1435.154
1435164.0,62.0,40.0,4.0,39.0,1435.164
1435174.0,61.0,41.0,4.0,39.0,1435.174
1435184.0,61.0,41.0,4.0,38.0,1435.184
1435194.0,61.0,40.0,2.0,37.0,1435.194
1435204.0,62.0,40.0,3.0,35.0,1435.204
1435214.0,59.0,41.0,4.0,34.0,1435.214
1435224.0,59.0,41.0,3.0,33.0,1435.224
1435234.0,60.0,42.0,3.0,32.0,1435.234
1435244.0,63.0,44.0,4.0,31.0,1435.244
1435254.0,63.0,45.0,4.0,31.0,1435.254
1435264.0,63.0,48.0,3.0,31.0,1435.264
1435274.0,62.0,48.0,3.0,32.0,1435.274
1435284.0,61.0,49.0,3.0,32.0,1435.284
1435294.0,61.0,51.0,3.0,30.0,1435.294
1435304.0,62.0,50.0,4.0,30.0,1435.304
1435314.0,61.0,50.0,3.0,30.0,1435.314
1435324.0,61.0,48.0,4.0,28.0,1435.324
1435334.0,61.0,49.0,3.0,28.0,1435.334
1435344.0,60.0,50.0,3.0,27.0,1435.344
1435354.0,61.0,49.0,4.0,27.0,1435.354
1435364.0,62.0,50.0,3.0,27.0,1435.364
1435374.0,61.0,48.0,3.0,27.0,1435.374
1435384.0,61.0,51.0,3.0,28.0,1435.384
1435394.0,59.0,50.0,3.0,27.0,1435.394
1435404.0,59.0,50.0,3.0,29.0,1435.404
1435414.0,58.0,50.0,3.0,30.0,1435.414
1435424.0,57.0,49.0,3.0,32.0,1435.424
1435435.0,57.0,51.0,3.0,33.0,1435.435
1435445.0,57.0,50.0,3.0,32.0,1435.445
1435455.0,55.0,49.0,3.0,32.0,1435.455
1435465.0,57.0,51.0,3.0,31.0,1435.465
1435475.0,56.0,51.0,3.0,31.0,1435.475
1435485.0,57.0,52.0,3.0,30.0,1435.485
1435495.0,56.0,51.0,3.0,30.0,1435.495
1435505.0,56.0,52.0,3.0,31.0,1435.505
1435515.0,57.0,51.0,3.0,31.0,1435.515
1435525.0,56.0,51.0,3.0,31.0,1435.525
1435535.0,57.0,51.0,3.0,31.0,1435.535
1435545.0,58.0,49.0,3.0,30.0,1435.545
1435555.0,59.0,48.0,2.0,30.0,1435.555
1435565.0,61.0,47.0,3.0,29.0,1435.565
1435575.0,59.0,48.0,3.0,29.0,1435.575
1435585.0,59.0,47.0,3.0,28.0,1435.585
1435595.0,58.0,46.0,4.0,27.0,1435.595
1435606.0,59.0,47.0,4.0,29.0,1435.606
1435616.0,58.0,46.0,4.0,29.0,1435.616
1435626.0,56.0,47.0,4.0,31.0,1435.626
1435636.0,57.0,47.0,4.0,33.0,1435.636
1435646.0,58.0,47.0,3.0,35.0,1435.646
1435656.0,58.0,47.0,3.0,33.0,1435.656
1435666.0,58.0,47.0,3.0,35.0,1435.666
1435676.0,57.0,47.0,4.0,34.0,1435.676
1435686.0,58.0,47.0,4.0,33.0,1435.686
1435696.0,57.0,46.0,3.0,32.0,1435.696
1435706.0,59.0,45.0,3.0,33.0,1435.706
1435716.0,59.0,46.0,3.0,34.0,1435.716
1435726.0,61.0,46.0,3.0,32.0,1435.726
1435736.0,61.0,47.0,3.0,33.0,1435.736
1435746.0,62.0,48.0,3.0,32.0,1435.746
1435756.0,62.0,48.0,3.0,33.0,1435.756
1435766.0,62.0,49.0,2.0,32.0,1435.766
1435776.0,64.0,49.0,4.0,31.0,1435.776
1435786.0,65.0,50.0,3.0,32.0,1435.786
1435796.0,66.0,50.0,3.0,30.0,1435.796
1435806.0,65.0,50.0,3.0,31.0,1435.806
1435816.0,67.0,51.0,3.0,31.0,1435.816
1435826.0,66.0,51.0,3.0,32.0,1435.826
1435836.0,68.0,54.0,3.0,33.0,1435.836
1435846.0,70.0,54.0,4.0,33.0,1435.846
1435856.0,69.0,56.0,3.0,34.0,1435.856
1435866.0,70.0,54.0,3.0,34.0,1435.866
1435876.0,71.0,52.0,3.0,34.0,1435.876
1435886.0,69.0,51.0,3.0,33.0,1435.886
1435896.0,71.0,50.0,3.0,31.0,1435.896
1435906.0,72.0,51.0,3.0,31.0,1435.906
1435916.0,72.0,51.0,3.0,32.0,1435.916
1435926.0,72.0,51.0,3.0,31.0,1435.926
1435936.0,73.0,51.0,3.0,30.0,1435.936
1435947.0,73.0,50.0,3.0,28.0,1435.947
1435957.0,71.0,50.0,3.0,28.0,1435.957
1435967.0,72.0,50.0,4.0,27.0,1435.967
1435977.0,70.0,49.0,4.0,28.0,1435.977
1435987.0,70.0,49.0,3.0,28.0,1435.987
1435997.0,70.0,50.0,3.0,30.0,1435.997
1436007.0,69.0,50.0,3.0,32.0,1436.007
1436017.0,70.0,52.0,3.0,32.0,1436.017
1436027.0,70.0,54.0,3.0,31.0,1436.027
1436037.0,70.0,54.0,3.0,32.0,1436.037
1436047.0,70.0,54.0,2.0,35.0,1436.047
1436057.0,69.0,54.0,3.0,33.0,1436.057
1436067.0,69.0,55.0,3.0,33.0,1436.067
1436077.0,68.0,57.0,4.0,32.0,1436.077
1436087.0,66.0,54.0,4.0,31.0,1436.087
1436097.0,66.0,53.0,3.0,30.0,1436.097
1436107.0,67.0,51.0,4.0,29.0,1436.107
1436118.0,70.0,49.0,2.0,28.0,1436.118
1436128.0,69.0,48.0,3.0,29.0,1436.128
1436138.0,68.0,49.0,3.0,31.0,1436.138
1436148.0,71.0,48.0,3.0,30.0,1436.148
1436158.0,71.0,47.0,3.0,29.0,1436.158
1436168.0,72.0,48.0,3.0,30.0,1436.168
1436178.0,74.0,45.0,4.0,31.0,1436.178
1436188.0,72.0,44.0,4.0,33.0,1436.188
1436198.0,73.0,44.0,4.0,33.0,1436.198
1436208.0,76.0,42.0,3.0,32.0,1436.208
1436218.0,74.0,41.0,3.0,36.0,1436.218
1436228.0,73.0,39.0,3.0,34.0,1436.228
1436238.0,73.0,40.0,3.0,34.0,1436.238
1436248.0,75.0,39.0,4.0,34.0,1436.248
1436258.0,76.0,39.0,3.0,33.0,1436.258
1436268.0,75.0,39.0,3.0,35.0,1436.268
1436278.0,75.0,39.0,3.0,34.0,1436.278
1436288.0,74.0,38.0,3.0,33.0,1436.288
1436298.0,75.0,38.0,3.0,35.0,1436.298
1436308.0,74.0,37.0,3.0,37.0,1436.308
1436318.0,77.0,38.0,5.0,37.0,1436.318
1436328.0,75.0,40.0,4.0,44.0,1436.328
1436338.0,76.0,49.0,15.0,83.0,1436.338
1436348.0,80.0,53.0,40.0,135.0,1436.348
1436358.0,86.0,63.0,112.0,166.0,1436.358
1436368.0,96.0,59.0,125.0,201.0,1436.368
1436378.0,100.0,59.0,126.0,252.0,1436.378
1436388.0,124.0,60.0,165.0,253.0,1436.388
1436398.0,134.0,72.0,179.0,289.0,1436.398
1436408.0,134.0,81.0,246.0,356.0,1436.408
1436418.0,144.0,97.0,248.0,380.0,1436.418
1436428.0,148.0,112.0,288.0,391.0,1436.428
1436438.0,145.0,116.0,281.0,419.0,1436.438
1436448.0,140.0,118.0,274.0,432.0,1436.448
1436459.0,143.0,128.0,267.0,421.0,1436.459
1436469.0,139.0,134.0,322.0,496.0,1436.469
1436479.0,138.0,128.0,295.0,481.0,1436.479
1436489.0,150.0,131.0,312.0,529.0,1436.489
1436499.0,141.0,129.0,291.0,498.0,1436.499
1436509.0,154.0,130.0,276.0,478.0,1436.509
1436519.0,190.0,143.0,268.0,454.0,1436.519
1436529.0,189.0,144.0,249.0,436.0,1436.529
1436539.0,188.0,145.0,237.0,465.0,1436.539
1436549.0,190.0,160.0,234.0,472.0,1436.549
1436559.0,184.0,169.0,225.0,466.0,1436.559
1436569.0,174.0,179.0,214.0,443.0,1436.569
1436579.0,161.0,181.0,204.0,440.0,1436.579
1436589.0,159.0,191.0,208.0,457.0,1436.589
1436599.0,155.0,198.0,192.0,442.0,1436.599
1436609.0,154.0,205.0,180.0,402.0,1436.609
1436619.0,150.0,209.0,176.0,380.0,1436.619
1436630.0,147.0,210.0,164.0,377.0,1436.63
1436640.0,144.0,212.0,153.0,347.0,1436.64
1436650.0,142.0,211.0,136.0,334.0,1436.65
1436660.0,137.0,208.0,128.0,338.0,1436.66
1436670.0,131.0,206.0,123.0,330.0,1436.67
1436680.0,135.0,207.0,113.0,325.0,1436.68
1436690.0,134.0,206.0,103.0,299.0,1436.69
1436700.0,135.0,203.0,119.0,312.0,1436.7
1436710.0,133.0,205.0,105.0,287.0,1436.71
1436720.0,127.0,200.0,108.0,274.0,1436.72
1436730.0,127.0,201.0,95.0,255.0,1436.73
1436740.0,125.0,199.0,87.0,239.0,1436.74
1436750.0,124.0,197.0,85.0,224.0,1436.75
1436760.0,118.0,191.0,86.0,207.0,1436.76
1436770.0,119.0,192.0,80.0,251.0,1436.77
1436780.0,117.0,190.0,89.0,253.0,1436.78
1436790.0,113.0,186.0,81.0,237.0,1436.79
1436800.0,109.0,183.0,79.0,236.0,1436.8
1436810.0,107.0,181.0,73.0,225.0,1436.81
1436820.0,105.0,177.0,79.0,218.0,1436.82
1436830.0,104.0,175.0,68.0,219.0,1436.83
1436840.0,102.0,168.0,76.0,203.0,1436.84
1436850.0,101.0,166.0,67.0,203.0,1436.85
1436860.0,99.0,161.0,63.0,215.0,1436.86
1436870.0,98.0,157.0,71.0,208.0,1436.87
1436880.0,97.0,154.0,73.0,197.0,1436.88
1436890.0,99.0,152.0,71.0,190.0,1436.89
1436900.0,94.0,145.0,84.0,204.0,1436.9
1436910.0,99.0,145.0,89.0,230.0,1436.91
1436920.0,99.0,144.0,78.0,215.0,1436.92
1436930.0,97.0,141.0,75.0,198.0,1436.93
1436940.0,96.0,135.0,80.0,184.0,1436.94
1436950.0,93.0,132.0,77.0,189.0,1436.95
1436960.0,92.0,129.0,75.0,187.0,1436.96
1436971.0,89.0,126.0,77.0,182.0,1436.971
1436981.0,86.0,121.0,69.0,181.0,1436.981
1436991.0,86.0,120.0,64.0,175.0,1436.991
1437001.0,85.0,119.0,58.0,163.0,1437.001
1437011.0,81.0,113.0,60.0,166.0,1437.011
1437021.0,81.0,112.0,69.0,154.0,1437.021
1437031.0,79.0,107.0,77.0,148.0,1437.031
1437041.0,79.0,106.0,78.0,147.0,1437.041
1437051.0,78.0,104.0,71.0,156.0,1437.051
1437061.0,77.0,100.0,65.0,169.0,1437.061
1437071.0,77.0,99.0,61.0,161.0,1437.071
1437081.0,75.0,94.0,61.0,156.0,1437.081
1437091.0,73.0,93.0,55.0,164.0,1437.091
1437101.0,73.0,91.0,54.0,157.0,1437.101
1437111.0,70.0,86.0,47.0,188.0,1437.111
1437121.0,70.0,85.0,49.0,211.0,1437.121
1437131.0,69.0,83.0,48.0,218.0,1437.131
1437142.0,66.0,80.0,43.0,203.0,1437.142
1437152.0,64.0,76.0,54.0,191.0,1437.152
1437162.0,61.0,74.0,52.0,191.0,1437.162
1437172.0,62.0,73.0,51.0,191.0,1437.172
1437182.0,62.0,70.0,62.0,238.0,1437.182
1437192.0,61.0,70.0,65.0,246.0,1437.192
1437202.0,62.0,68.0,60.0,274.0,1437.202
1437212.0,64.0,69.0,53.0,288.0,1437.212
1437222.0,63.0,66.0,58.0,261.0,1437.222
1437232.0,61.0,63.0,59.0,261.0,1437.232
1437242.0,61.0,64.0,52.0,248.0,1437.242
1437252.0,60.0,63.0,49.0,248.0,1437.252
1437262.0,59.0,64.0,46.0,246.0,1437.262
1437272.0,59.0,64.0,41.0,230.0,1437.272
1437282.0,58.0,63.0,50.0,244.0,1437.282
1437292.0,58.0,64.0,49.0,239.0,1437.292
1437302.0,56.0,63.0,44.0,234.0,1437.302
1437312.0,55.0,62.0,41.0,214.0,1437.312
1437322.0,56.0,62.0,50.0,207.0,1437.322
1437332.0,54.0,61.0,44.0,206.0,1437.332
1437342.0,52.0,58.0,39.0,199.0,1437.342
1437352.0,51.0,58.0,34.0,189.0,1437.352
1437362.0,50.0,54.0,36.0,190.0,1437.362
1437372.0,49.0,54.0,45.0,190.0,1437.372
1437382.0,52.0,54.0,43.0,187.0,1437.382
1437392.0,51.0,51.0,37.0,176.0,1437.392
1437402.0,52.0,51.0,34.0,180.0,1437.402
1437412.0,52.0,49.0,30.0,178.0,1437.412
1437422.0,51.0,50.0,40.0,180.0,1437.422
1437432.0,51.0,48.0,42.0,174.0,1437.432
1437442.0,51.0,48.0,37.0,169.0,1437.442
1437452.0,51.0,47.0,33.0,166.0,1437.452
1437462.0,51.0,47.0,33.0,163.0,1437.462
1437472.0,50.0,47.0,31.0,183.0,1437.472
1437483.0,51.0,47.0,27.0,204.0,1437.483
1437493.0,51.0,47.0,25.0,199.0,1437.493
1437503.0,49.0,45.0,25.0,188.0,1437.503
1437513.0,50.0,46.0,36.0,198.0,1437.513
1437523.0,49.0,44.0,35.0,231.0,1437.523
1437533.0,51.0,43.0,32.0,256.0,1437.533
1437543.0,48.0,42.0,28.0,228.0,1437.543
1437553.0,50.0,41.0,24.0,202.0,1437.553
1437563.0,49.0,42.0,23.0,214.0,1437.563
1437573.0,50.0,40.0,27.0,209.0,1437.573
1437583.0,50.0,39.0,24.0,206.0,1437.583
1437593.0,51.0,40.0,23.0,198.0,1437.593
1437603.0,50.0,40.0,21.0,201.0,1437.603
1437613.0,48.0,39.0,18.0,193.0,1437.613
1437623.0,52.0,43.0,36.0,176.0,1437.623
1437633.0,52.0,42.0,33.0,181.0,1437.633
1437643.0,51.0,40.0,30.0,171.0,1437.643
1437654.0,51.0,39.0,26.0,178.0,1437.654
1437664.0,51.0,40.0,24.0,174.0,1437.664
1437674.0,52.0,39.0,20.0,181.0,1437.674
1437684.0,50.0,39.0,21.0,177.0,1437.684
1437694.0,48.0,37.0,20.0,173.0,1437.694
1437704.0,48.0,38.0,19.0,168.0,1437.704
1437714.0,48.0,37.0,19.0,166.0,1437.714
1437724.0,49.0,38.0,17.0,157.0,1437.724
1437734.0,49.0,37.0,15.0,158.0,1437.734
1437744.0,49.0,35.0,15.0,145.0,1437.744
1437754.0,48.0,37.0,12.0,140.0,1437.754
1437764.0,47.0,36.0,15.0,141.0,1437.764
1437774.0,48.0,37.0,13.0,141.0,1437.774
1437784.0,49.0,37.0,11.0,158.0,1437.784
1437794.0,49.0,38.0,21.0,162.0,1437.794
1437804.0,49.0,37.0,21.0,172.0,1437.804
1437814.0,51.0,37.0,23.0,163.0,1437.814
1437824.0,51.0,39.0,20.0,175.0,1437.824
1437834.0,53.0,38.0,18.0,174.0,1437.834
1437844.0,53.0,39.0,17.0,170.0,1437.844
1437854.0,53.0,39.0,18.0,167.0,1437.854
1437864.0,54.0,38.0,16.0,161.0,1437.864
1437874.0,53.0,38.0,14.0,153.0,1437.874
1437884.0,55.0,38.0,13.0,153.0,1437.884
1437894.0,54.0,39.0,12.0,164.0,1437.894
1437904.0,53.0,39.0,12.0,177.0,1437.904
1437914.0,53.0,39.0,18.0,165.0,1437.914
1437924.0,53.0,39.0,17.0,155.0,1437.924
1437934.0,54.0,38.0,17.0,149.0,1437.934
1437944.0,53.0,38.0,15.0,158.0,1437.944
1437954.0,53.0,38.0,14.0,156.0,1437.954
1437964.0,51.0,39.0,12.0,148.0,1437.964
1437974.0,50.0,39.0,13.0,155.0,1437.974
1437984.0,50.0,40.0,18.0,152.0,1437.984
1437995.0,50.0,40.0,18.0,164.0,1437.995
1438005.0,50.0,39.0,16.0,152.0,1438.005
1438015.0,49.0,41.0,15.0,150.0,1438.015
1438025.0,50.0,42.0,31.0,154.0,1438.025
1438035.0,51.0,42.0,26.0,157.0,1438.035
1438045.0,50.0,41.0,23.0,151.0,1438.045
1438055.0,50.0,40.0,22.0,151.0,1438.055
1438065.0,49.0,41.0,19.0,145.0,1438.065
1438075.0,48.0,39.0,18.0,145.0,1438.075
1438085.0,49.0,39.0,15.0,139.0,1438.085
1438095.0,49.0,39.0,15.0,140.0,1438.095
1438105.0,48.0,37.0,12.0,130.0,1438.105
1438115.0,48.0,37.0,12.0,133.0,1438.115
1438125.0,46.0,37.0,20.0,126.0,1438.125
1438135.0,49.0,38.0,19.0,120.0,1438.135
1438145.0,49.0,36.0,18.0,118.0,1438.145
1438155.0,50.0,37.0,16.0,117.0,1438.155
1438166.0,52.0,37.0,16.0,115.0,1438.166
1438176.0,52.0,38.0,13.0,121.0,1438.176
1438186.0,53.0,40.0,12.0,133.0,1438.186
1438196.0,52.0,39.0,12.0,142.0,1438.196
1438206.0,51.0,41.0,11.0,154.0,1438.206
1438216.0,51.0,42.0,10.0,152.0,1438.216
1438226.0,51.0,43.0,9.0,149.0,1438.226
1438236.0,51.0,45.0,9.0,160.0,1438.236
1438246.0,50.0,45.0,9.0,154.0,1438.246
1438256.0,52.0,46.0,7.0,160.0,1438.256
1438266.0,52.0,45.0,14.0,149.0,1438.266
1438276.0,51.0,44.0,13.0,140.0,1438.276
1438286.0,52.0,44.0,12.0,136.0,1438.286
1438296.0,53.0,45.0,11.0,134.0,1438.296
1438306.0,52.0,44.0,11.0,135.0,1438.306
1438316.0,53.0,43.0,10.0,134.0,1438.316
1438326.0,52.0,45.0,7.0,128.0,1438.326
1438336.0,53.0,44.0,10.0,131.0,1438.336
1438346.0,53.0,44.0,10.0,122.0,1438.346
1438356.0,56.0,44.0,10.0,119.0,1438.356
1438366.0,55.0,43.0,10.0,115.0,1438.366
1438376.0,59.0,43.0,13.0,112.0,1438.376
1438386.0,60.0,41.0,11.0,114.0,1438.386
1438396.0,62.0,42.0,10.0,110.0,1438.396
1438406.0,62.0,41.0,9.0,106.0,1438.406
1438416.0,63.0,44.0,8.0,99.0,1438.416
1438426.0,63.0,44.0,10.0,101.0,1438.426
1438436.0,66.0,45.0,10.0,111.0,1438.436
1438446.0,66.0,46.0,10.0,125.0,1438.446
1438456.0,66.0,46.0,9.0,119.0,1438.456
1438466.0,68.0,48.0,7.0,118.0,1438.466
1438476.0,67.0,48.0,8.0,123.0,1438.476
1438486.0,66.0,49.0,8.0,130.0,1438.486
1438496.0,65.0,47.0,7.0,123.0,1438.496
1438507.0,65.0,46.0,7.0,119.0,1438.507
1438517.0,64.0,46.0,7.0,130.0,1438.517
1438527.0,65.0,46.0,6.0,123.0,1438.527
1438537.0,64.0,47.0,5.0,120.0,1438.537
1438547.0,65.0,48.0,5.0,121.0,1438.547
1438557.0,65.0,49.0,5.0,127.0,1438.557
1438567.0,67.0,50.0,5.0,140.0,1438.567
1438577.0,65.0,49.0,5.0,144.0,1438.577
1438587.0,67.0,51.0,5.0,141.0,1438.587
1438597.0,67.0,51.0,5.0,138.0,1438.597
1438607.0,66.0,53.0,4.0,136.0,1438.607
1438617.0,68.0,53.0,5.0,131.0,1438.617
1438627.0,69.0,56.0,5.0,130.0,1438.627
1438637.0,69.0,56.0,6.0,120.0,1438.637
1438647.0,69.0,56.0,5.0,144.0,1438.647
1438657.0,65.0,53.0,7.0,135.0,1438.657
1438667.0,69.0,54.0,8.0,131.0,1438.667
1438678.0,70.0,55.0,6.0,130.0,1438.678
1438688.0,68.0,53.0,8.0,127.0,1438.688
1438698.0,67.0,52.0,7.0,132.0,1438.698
1438708.0,66.0,52.0,7.0,140.0,1438.708
1438718.0,65.0,50.0,6.0,131.0,1438.718
1438728.0,65.0,52.0,7.0,129.0,1438.728
1438738.0,67.0,51.0,7.0,122.0,1438.738
1438748.0,66.0,52.0,6.0,115.0,1438.748
1438758.0,66.0,51.0,5.0,104.0,1438.758
1438768.0,67.0,53.0,6.0,111.0,1438.768
1438778.0,67.0,52.0,8.0,117.0,1438.778
1438788.0,68.0,52.0,9.0,121.0,1438.788
1438798.0,68.0,53.0,9.0,117.0,1438.798
1438808.0,69.0,53.0,10.0,112.0,1438.808
1438818.0,69.0,57.0,9.0,109.0,1438.818
1438828.0,69.0,57.0,9.0,111.0,1438.828
1438838.0,66.0,56.0,7.0,114.0,1438.838
1438848.0,66.0,56.0,7.0,118.0,1438.848
1438858.0,67.0,58.0,7.0,123.0,1438.858
1438868.0,66.0,59.0,8.0,118.0,1438.868
1438878.0,68.0,61.0,9.0,122.0,1438.878
1438888.0,66.0,61.0,6.0,122.0,1438.888
1438898.0,67.0,61.0,9.0,117.0,1438.898
1438908.0,69.0,61.0,8.0,118.0,1438.908
1438918.0,69.0,60.0,7.0,120.0,1438.918
1438928.0,68.0,60.0,10.0,120.0,1438.928
1438938.0,68.0,62.0,8.0,115.0,1438.938
1438948.0,69.0,63.0,9.0,111.0,1438.948
1438958.0,67.0,62.0,7.0,104.0,1438.958
1438968.0,67.0,62.0,7.0,101.0,1438.968
1438978.0,68.0,63.0,6.0,100.0,1438.978
1438988.0,66.0,61.0,6.0,101.0,1438.988
1438998.0,67.0,60.0,6.0,106.0,1438.998
1439008.0,68.0,59.0,5.0,102.0,1439.008
1439019.0,69.0,59.0,11.0,105.0,1439.019
1439029.0,69.0,59.0,8.0,106.0,1439.029
1439039.0,68.0,57.0,9.0,105.0,1439.039
1439049.0,70.0,57.0,8.0,116.0,1439.049
1439059.0,71.0,57.0,8.0,113.0,1439.059
1439069.0,71.0,55.0,7.0,109.0,1439.069
1439079.0,69.0,57.0,6.0,100.0,1439.079
1439089.0,70.0,58.0,7.0,105.0,1439.089
1439099.0,68.0,59.0,5.0,105.0,1439.099
1439109.0,66.0,60.0,5.0,100.0,1439.109
1439119.0,67.0,61.0,6.0,107.0,1439.119
1439129.0,67.0,63.0,5.0,98.0,1439.129
1439139.0,67.0,60.0,5.0,94.0,1439.139
1439149.0,66.0,62.0,6.0,92.0,1439.149
1439159.0,68.0,61.0,6.0,92.0,1439.159
1439169.0,68.0,60.0,5.0,92.0,1439.169
1439179.0,66.0,59.0,5.0,95.0,1439.179
1439190.0,67.0,60.0,5.0,96.0,1439.19
1439200.0,66.0,61.0,5.0,95.0,1439.2
1439210.0,65.0,60.0,5.0,96.0,1439.21
1439220.0,64.0,62.0,5.0,89.0,1439.22
1439230.0,65.0,61.0,5.0,90.0,1439.23
1439240.0,64.0,62.0,5.0,95.0,1439.24
1439250.0,64.0,62.0,6.0,91.0,1439.25
1439260.0,66.0,63.0,7.0,89.0,1439.26
1439270.0,64.0,63.0,6.0,103.0,1439.27
1439280.0,65.0,62.0,6.0,103.0,1439.28
1439290.0,65.0,63.0,5.0,98.0,1439.29
1439300.0,67.0,64.0,6.0,96.0,1439.3
1439310.0,67.0,63.0,5.0,104.0,1439.31
1439320.0,67.0,63.0,8.0,105.0,1439.32
1439330.0,67.0,61.0,9.0,105.0,1439.33
1439340.0,67.0,62.0,9.0,106.0,1439.34
1439350.0,69.0,62.0,8.0,114.0,1439.35
1439360.0,68.0,62.0,8.0,109.0,1439.36
1439370.0,70.0,62.0,8.0,111.0,1439.37
1439380.0,69.0,61.0,8.0,113.0,1439.38
1439390.0,68.0,61.0,7.0,107.0,1439.39
1439400.0,68.0,61.0,9.0,123.0,1439.4
1439410.0,67.0,60.0,8.0,123.0,1439.41
1439420.0,67.0,58.0,8.0,124.0,1439.42
1439430.0,68.0,58.0,7.0,127.0,1439.43
1439440.0,67.0,56.0,7.0,119.0,1439.44
1439450.0,67.0,56.0,7.0,125.0,1439.45
1439460.0,68.0,57.0,6.0,121.0,1439.46
1439470.0,67.0,57.0,7.0,121.0,1439.47
1439480.0,70.0,58.0,7.0,115.0,1439.48
1439490.0,69.0,56.0,7.0,117.0,1439.49
1439500.0,71.0,56.0,6.0,129.0,1439.5
1439510.0,72.0,55.0,6.0,128.0,1439.51
1439520.0,73.0,54.0,7.0,119.0,1439.52
1439531.0,74.0,54.0,6.0,116.0,1439.531
1439541.0,74.0,54.0,6.0,123.0,1439.541
1439551.0,74.0,54.0,6.0,125.0,1439.551
1439561.0,75.0,53.0,5.0,125.0,1439.561
1439571.0,75.0,51.0,5.0,121.0,1439.571
1439581.0,74.0,50.0,6.0,119.0,1439.581
1439591.0,73.0,48.0,7.0,125.0,1439.591
1439601.0,73.0,47.0,5.0,119.0,1439.601
1439611.0,74.0,45.0,6.0,121.0,1439.611
1439621.0,73.0,46.0,6.0,119.0,1439.621
1439631.0,73.0,44.0,6.0,116.0,1439.631
1439641.0,73.0,43.0,5.0,114.0,1439.641
1439651.0,72.0,42.0,7.0,111.0,1439.651
1439661.0,73.0,42.0,7.0,109.0,1439.661
1439671.0,71.0,42.0,5.0,109.0,1439.671
1439681.0,74.0,44.0,6.0,108.0,1439.681
1439691.0,72.0,45.0,6.0,113.0,1439.691
1439702.0,72.0,46.0,7.0,114.0,1439.702
1439712.0,72.0,46.0,9.0,110.0,1439.712
1439722.0,71.0,46.0,11.0,119.0,1439.722
1439732.0,72.0,46.0,11.0,124.0,1439.732
1439742.0,70.0,47.0,9.0,121.0,1439.742
1439752.0,70.0,46.0,9.0,112.0,1439.752
1439762.0,69.0,47.0,9.0,113.0,1439.762
1439772.0,67.0,48.0,8.0,107.0,1439.772
1439782.0,67.0,47.0,8.0,111.0,1439.782
1439792.0,67.0,48.0,6.0,117.0,1439.792
1439802.0,68.0,48.0,8.0,119.0,1439.802
1439812.0,68.0,50.0,6.0,117.0,1439.812
1439822.0,70.0,50.0,6.0,113.0,1439.822
1439832.0,70.0,50.0,5.0,119.0,1439.832
1439842.0,71.0,52.0,6.0,116.0,1439.842
1439852.0,72.0,52.0,6.0,118.0,1439.852
1439862.0,72.0,54.0,7.0,116.0,1439.862
1439872.0,74.0,54.0,9.0,112.0,1439.872
1439882.0,74.0,55.0,8.0,109.0,1439.882
1439892.0,74.0,55.0,7.0,121.0,1439.892
1439902.0,76.0,56.0,8.0,118.0,1439.902
1439912.0,77.0,56.0,7.0,114.0,1439.912
1439922.0,77.0,54.0,10.0,108.0,1439.922
1439932.0,77.0,55.0,9.0,106.0,1439.932
1439942.0,77.0,53.0,9.0,118.0,1439.942
1439952.0,78.0,53.0,10.0,118.0,1439.952
1439962.0,78.0,52.0,10.0,120.0,1439.962
1439972.0,79.0,53.0,12.0,121.0,1439.972
