time (ms),signal 0,signal 1,signal 2,signal3,time (sec)
1459169.0,67.0,30.0,4.0,65.0,1459.169
1459179.0,66.0,29.0,3.0,65.0,1459.179
1459189.0,66.0,29.0,4.0,63.0,1459.189
1459200.0,66.0,29.0,4.0,64.0,1459.2
1459210.0,65.0,29.0,4.0,63.0,1459.21
1459220.0,67.0,30.0,5.0,63.0,1459.22
1459230.0,64.0,30.0,4.0,66.0,1459.23
1459240.0,63.0,29.0,4.0,68.0,1459.24
1459250.0,64.0,29.0,4.0,64.0,1459.25
1459260.0,64.0,29.0,4.0,62.0,1459.26
1459270.0,63.0,30.0,4.0,61.0,1459.27
1459280.0,61.0,29.0,4.0,66.0,1459.28
1459290.0,63.0,28.0,4.0,64.0,1459.29
1459300.0,64.0,30.0,4.0,66.0,1459.3
1459310.0,64.0,29.0,4.0,64.0,1459.31
1459320.0,65.0,30.0,5.0,68.0,1459.32
1459330.0,66.0,30.0,5.0,65.0,1459.33
1459340.0,65.0,29.0,5.0,63.0,1459.34
1459350.0,65.0,30.0,5.0,65.0,1459.35
1459360.0,67.0,30.0,5.0,66.0,1459.36
1459371.0,66.0,30.0,4.0,70.0,1459.371
1459381.0,65.0,29.0,8.0,71.0,1459.381
1459391.0,67.0,29.0,7.0,79.0,1459.391
1459401.0,67.0,30.0,8.0,76.0,1459.401
1459411.0,69.0,29.0,7.0,72.0,1459.411
1459421.0,70.0,30.0,7.0,74.0,1459.421
1459431.0,73.0,30.0,8.0,78.0,1459.431
1459441.0,74.0,30.0,6.0,77.0,1459.441
1459451.0,75.0,29.0,6.0,77.0,1459.451
1459461.0,76.0,30.0,6.0,76.0,1459.461
1459471.0,76.0,30.0,5.0,70.0,1459.471
1459481.0,77.0,30.0,5.0,69.0,1459.481
1459491.0,76.0,30.0,5.0,68.0,1459.491
1459501.0,78.0,30.0,5.0,64.0,1459.501
1459511.0,78.0,30.0,4.0,62.0,1459.511
1459521.0,79.0,29.0,5.0,61.0,1459.521
1459531.0,83.0,30.0,4.0,58.0,1459.531
1459542.0,86.0,30.0,4.0,58.0,1459.542
1459552.0,89.0,28.0,4.0,58.0,1459.552
1459562.0,92.0,30.0,5.0,60.0,1459.562
1459572.0,94.0,29.0,6.0,65.0,1459.572
1459582.0,96.0,30.0,6.0,76.0,1459.582
1459592.0,99.0,30.0,7.0,69.0,1459.592
1459602.0,101.0,30.0,6.0,76.0,1459.602
1459612.0,102.0,30.0,6.0,73.0,1459.612
1459622.0,104.0,30.0,9.0,71.0,1459.622
1459632.0,105.0,30.0,8.0,69.0,1459.632
1459642.0,109.0,31.0,9.0,65.0,1459.642
1459652.0,110.0,30.0,7.0,64.0,1459.652
1459662.0,112.0,30.0,7.0,70.0,1459.662
1459672.0,114.0,29.0,10.0,74.0,1459.672
1459682.0,115.0,31.0,10.0,70.0,1459.682
1459692.0,116.0,30.0,11.0,70.0,1459.692
1459702.0,119.0,30.0,9.0,67.0,1459.702
1459712.0,121.0,30.0,10.0,69.0,1459.712
1459722.0,123.0,30.0,7.0,68.0,1459.722
1459732.0,125.0,30.0,7.0,67.0,1459.732
1459742.0,127.0,29.0,8.0,64.0,1459.742
1459752.0,130.0,31.0,8.0,64.0,1459.752
1459762.0,131.0,30.0,7.0,60.0,1459.762
1459772.0,132.0,30.0,6.0,61.0,1459.772
1459782.0,134.0,30.0,7.0,60.0,1459.782
1459792.0,135.0,30.0,8.0,65.0,1459.792
1459802.0,138.0,30.0,7.0,70.0,1459.802
1459812.0,141.0,29.0,7.0,70.0,1459.812
1459822.0,143.0,31.0,7.0,67.0,1459.822
1459832.0,147.0,30.0,6.0,66.0,1459.832
1459842.0,149.0,31.0,5.0,68.0,1459.842
1459852.0,152.0,30.0,6.0,65.0,1459.852
1459862.0,157.0,31.0,5.0,62.0,1459.862
1459872.0,158.0,30.0,4.0,59.0,1459.872
1459883.0,164.0,30.0,5.0,57.0,1459.883
1459893.0,168.0,31.0,5.0,55.0,1459.893
1459903.0,174.0,30.0,5.0,54.0,1459.903
1459913.0,177.0,30.0,5.0,61.0,1459.913
1459923.0,180.0,30.0,7.0,59.0,1459.923
1459933.0,183.0,30.0,6.0,56.0,1459.933
1459943.0,189.0,31.0,6.0,56.0,1459.943
1459953.0,194.0,29.0,5.0,55.0,1459.953
1459963.0,199.0,31.0,5.0,57.0,1459.963
1459973.0,204.0,30.0,5.0,56.0,1459.973
1459983.0,207.0,30.0,5.0,55.0,1459.983
1459993.0,211.0,30.0,8.0,59.0,1459.993
1460003.0,216.0,30.0,9.0,63.0,1460.003
1460013.0,220.0,30.0,10.0,63.0,1460.013
1460023.0,225.0,31.0,10.0,70.0,1460.023
1460033.0,230.0,31.0,9.0,71.0,1460.033
1460043.0,234.0,31.0,8.0,66.0,1460.043
1460054.0,238.0,31.0,8.0,66.0,1460.054
1460064.0,242.0,31.0,8.0,69.0,1460.064
1460074.0,247.0,31.0,7.0,68.0,1460.074
1460084.0,250.0,32.0,6.0,66.0,1460.084
1460094.0,255.0,31.0,6.0,66.0,1460.094
1460104.0,260.0,32.0,5.0,67.0,1460.104
1460114.0,264.0,31.0,5.0,68.0,1460.114
1460124.0,268.0,31.0,7.0,83.0,1460.124
1460134.0,271.0,31.0,5.0,86.0,1460.134
1460144.0,274.0,31.0,5.0,86.0,1460.144
1460154.0,276.0,31.0,4.0,80.0,1460.154
1460164.0,279.0,32.0,5.0,80.0,1460.164
1460174.0,281.0,32.0,5.0,81.0,1460.174
1460184.0,283.0,32.0,6.0,80.0,1460.184
1460194.0,284.0,32.0,5.0,81.0,1460.194
1460204.0,287.0,32.0,5.0,83.0,1460.204
1460214.0,288.0,32.0,5.0,86.0,1460.214
1460224.0,290.0,32.0,4.0,83.0,1460.224
1460234.0,292.0,32.0,7.0,88.0,1460.234
1460244.0,293.0,33.0,7.0,90.0,1460.244
1460254.0,297.0,32.0,6.0,86.0,1460.254
1460264.0,298.0,32.0,5.0,87.0,1460.264
1460274.0,300.0,32.0,6.0,90.0,1460.274
1460284.0,302.0,32.0,6.0,85.0,1460.284
1460294.0,302.0,33.0,4.0,81.0,1460.294
1460304.0,303.0,32.0,5.0,77.0,1460.304
1460314.0,302.0,32.0,5.0,83.0,1460.314
1460324.0,302.0,32.0,5.0,78.0,1460.324
1460334.0,304.0,32.0,5.0,82.0,1460.334
1460344.0,304.0,32.0,5.0,86.0,1460.344
1460354.0,308.0,32.0,7.0,83.0,1460.354
1460364.0,306.0,32.0,4.0,80.0,1460.364
1460374.0,308.0,32.0,6.0,77.0,1460.374
1460384.0,309.0,33.0,6.0,74.0,1460.384
1460395.0,309.0,32.0,5.0,72.0,1460.395
1460405.0,309.0,32.0,5.0,72.0,1460.405
1460415.0,310.0,32.0,8.0,72.0,1460.415
1460425.0,312.0,31.0,8.0,73.0,1460.425
1460435.0,312.0,31.0,6.0,70.0,1460.435
1460445.0,312.0,32.0,6.0,65.0,1460.445
1460455.0,312.0,32.0,6.0,69.0,1460.455
1460465.0,311.0,32.0,6.0,64.0,1460.465
1460475.0,310.0,30.0,6.0,59.0,1460.475
1460485.0,309.0,32.0,5.0,64.0,1460.485
1460495.0,309.0,31.0,8.0,65.0,1460.495
1460505.0,307.0,31.0,8.0,65.0,1460.505
1460515.0,306.0,31.0,7.0,63.0,1460.515
1460525.0,306.0,31.0,7.0,65.0,1460.525
1460535.0,305.0,32.0,9.0,65.0,1460.535
1460545.0,304.0,30.0,8.0,67.0,1460.545
1460555.0,301.0,32.0,8.0,65.0,1460.555
1460566.0,302.0,31.0,9.0,62.0,1460.566
1460576.0,299.0,31.0,6.0,66.0,1460.576
1460586.0,299.0,31.0,7.0,64.0,1460.586
1460596.0,299.0,32.0,7.0,61.0,1460.596
1460606.0,300.0,32.0,6.0,59.0,1460.606
1460616.0,301.0,30.0,8.0,58.0,1460.616
1460626.0,300.0,31.0,7.0,65.0,1460.626
1460636.0,301.0,32.0,7.0,72.0,1460.636
1460646.0,301.0,31.0,6.0,69.0,1460.646
1460656.0,301.0,32.0,7.0,65.0,1460.656
1460666.0,300.0,32.0,7.0,63.0,1460.666
1460676.0,298.0,32.0,6.0,58.0,1460.676
1460686.0,296.0,32.0,6.0,60.0,1460.686
1460696.0,294.0,32.0,5.0,61.0,1460.696
1460706.0,293.0,32.0,7.0,60.0,1460.706
1460716.0,292.0,32.0,6.0,58.0,1460.716
1460726.0,290.0,33.0,6.0,54.0,1460.726
1460736.0,289.0,32.0,6.0,55.0,1460.736
1460746.0,287.0,33.0,6.0,54.0,1460.746
1460756.0,287.0,32.0,6.0,56.0,1460.756
1460766.0,287.0,33.0,5.0,58.0,1460.766
1460776.0,287.0,33.0,7.0,62.0,1460.776
1460786.0,286.0,32.0,8.0,71.0,1460.786
1460796.0,286.0,34.0,11.0,73.0,1460.796
1460806.0,286.0,33.0,10.0,71.0,1460.806
1460816.0,287.0,34.0,9.0,67.0,1460.816
1460826.0,286.0,32.0,8.0,64.0,1460.826
1460836.0,285.0,33.0,7.0,63.0,1460.836
1460846.0,286.0,33.0,8.0,62.0,1460.846
1460856.0,285.0,33.0,7.0,59.0,1460.856
1460866.0,284.0,32.0,7.0,61.0,1460.866
1460876.0,285.0,32.0,7.0,62.0,1460.876
1460886.0,285.0,33.0,9.0,69.0,1460.886
1460896.0,286.0,32.0,9.0,66.0,1460.896
1460907.0,286.0,33.0,8.0,61.0,1460.907
1460917.0,285.0,32.0,8.0,60.0,1460.917
1460927.0,284.0,32.0,8.0,56.0,1460.927
1460937.0,283.0,32.0,8.0,61.0,1460.937
1460947.0,280.0,32.0,8.0,63.0,1460.947
1460957.0,279.0,33.0,8.0,62.0,1460.957
1460967.0,278.0,32.0,7.0,62.0,1460.967
1460977.0,276.0,33.0,7.0,59.0,1460.977
1460987.0,275.0,32.0,6.0,58.0,1460.987
1460997.0,274.0,32.0,7.0,57.0,1460.997
1461007.0,273.0,32.0,6.0,57.0,1461.007
1461017.0,273.0,32.0,7.0,58.0,1461.017
1461027.0,272.0,33.0,7.0,63.0,1461.027
1461037.0,270.0,32.0,7.0,62.0,1461.037
1461047.0,268.0,32.0,7.0,63.0,1461.047
1461057.0,266.0,32.0,8.0,59.0,1461.057
1461067.0,264.0,31.0,8.0,57.0,1461.067
1461078.0,263.0,32.0,7.0,58.0,1461.078
1461088.0,262.0,32.0,7.0,55.0,1461.088
1461098.0,262.0,33.0,7.0,57.0,1461.098
1461108.0,262.0,32.0,6.0,54.0,1461.108
1461118.0,261.0,31.0,5.0,53.0,1461.118
1461128.0,259.0,32.0,7.0,53.0,1461.128
1461138.0,259.0,31.0,6.0,54.0,1461.138
1461148.0,255.0,32.0,5.0,56.0,1461.148
1461158.0,254.0,31.0,6.0,59.0,1461.158
1461168.0,251.0,33.0,8.0,58.0,1461.168
1461178.0,250.0,31.0,7.0,52.0,1461.178
1461188.0,246.0,32.0,7.0,53.0,1461.188
1461198.0,243.0,32.0,8.0,54.0,1461.198
1461208.0,239.0,31.0,6.0,57.0,1461.208
1461218.0,235.0,32.0,7.0,62.0,1461.218
1461228.0,233.0,32.0,8.0,60.0,1461.228
1461238.0,231.0,32.0,8.0,57.0,1461.238
1461248.0,229.0,31.0,7.0,55.0,1461.248
1461258.0,227.0,31.0,6.0,58.0,1461.258
1461268.0,224.0,31.0,6.0,57.0,1461.268
1461278.0,222.0,31.0,6.0,59.0,1461.278
1461288.0,220.0,32.0,6.0,68.0,1461.288
1461298.0,220.0,31.0,7.0,67.0,1461.298
1461308.0,218.0,32.0,6.0,65.0,1461.308
1461318.0,216.0,32.0,6.0,62.0,1461.318
1461328.0,215.0,32.0,5.0,59.0,1461.328
1461338.0,213.0,32.0,5.0,58.0,1461.338
1461348.0,214.0,31.0,6.0,55.0,1461.348
1461358.0,212.0,31.0,4.0,58.0,1461.358
1461368.0,213.0,32.0,5.0,57.0,1461.368
1461378.0,213.0,32.0,5.0,57.0,1461.378
1461388.0,213.0,31.0,6.0,56.0,1461.388
1461398.0,214.0,32.0,7.0,56.0,1461.398
1461408.0,213.0,31.0,5.0,61.0,1461.408
1461419.0,213.0,31.0,6.0,58.0,1461.419
1461429.0,212.0,32.0,6.0,58.0,1461.429
1461439.0,210.0,31.0,5.0,57.0,1461.439
1461449.0,208.0,32.0,5.0,59.0,1461.449
1461459.0,206.0,32.0,5.0,56.0,1461.459
1461469.0,207.0,31.0,5.0,56.0,1461.469
1461479.0,205.0,32.0,5.0,54.0,1461.479
1461489.0,205.0,31.0,6.0,51.0,1461.489
1461499.0,204.0,31.0,5.0,51.0,1461.499
1461509.0,203.0,31.0,5.0,51.0,1461.509
1461519.0,202.0,32.0,5.0,49.0,1461.519
1461529.0,200.0,31.0,3.0,54.0,1461.529
1461539.0,199.0,32.0,6.0,59.0,1461.539
1461549.0,197.0,31.0,5.0,56.0,1461.549
1461559.0,197.0,31.0,6.0,54.0,1461.559
1461569.0,195.0,31.0,4.0,51.0,1461.569
1461579.0,193.0,31.0,5.0,49.0,1461.579
1461590.0,192.0,32.0,5.0,49.0,1461.59
1461600.0,191.0,31.0,4.0,48.0,1461.6
1461610.0,189.0,30.0,4.0,48.0,1461.61
1461620.0,188.0,31.0,4.0,49.0,1461.62
1461630.0,188.0,31.0,6.0,54.0,1461.63
1461640.0,187.0,31.0,4.0,52.0,1461.64
1461650.0,188.0,31.0,6.0,52.0,1461.65
1461660.0,188.0,32.0,6.0,53.0,1461.66
1461670.0,187.0,32.0,5.0,50.0,1461.67
1461680.0,187.0,30.0,5.0,50.0,1461.68
1461690.0,186.0,32.0,5.0,50.0,1461.69
1461700.0,187.0,31.0,6.0,47.0,1461.7
1461710.0,187.0,31.0,4.0,48.0,1461.71
1461720.0,187.0,32.0,4.0,48.0,1461.72
1461730.0,185.0,32.0,4.0,49.0,1461.73
1461740.0,185.0,31.0,5.0,52.0,1461.74
1461750.0,186.0,32.0,5.0,50.0,1461.75
1461760.0,185.0,31.0,4.0,50.0,1461.76
1461770.0,186.0,31.0,8.0,50.0,1461.77
1461780.0,185.0,31.0,6.0,49.0,1461.78
1461790.0,184.0,31.0,6.0,46.0,1461.79
1461800.0,184.0,31.0,6.0,47.0,1461.8
1461810.0,182.0,31.0,5.0,50.0,1461.81
1461820.0,181.0,32.0,6.0,50.0,1461.82
1461830.0,181.0,31.0,6.0,52.0,1461.83
1461840.0,180.0,31.0,7.0,49.0,1461.84
1461850.0,179.0,31.0,6.0,53.0,1461.85
1461860.0,178.0,31.0,6.0,51.0,1461.86
1461870.0,177.0,31.0,5.0,53.0,1461.87
1461880.0,175.0,32.0,5.0,53.0,1461.88
1461890.0,174.0,30.0,5.0,55.0,1461.89
1461900.0,173.0,31.0,5.0,61.0,1461.9
1461910.0,172.0,31.0,7.0,61.0,1461.91
1461920.0,172.0,31.0,6.0,60.0,1461.92
1461931.0,171.0,31.0,5.0,58.0,1461.931
1461941.0,172.0,32.0,5.0,57.0,1461.941
1461951.0,173.0,31.0,5.0,54.0,1461.951
1461961.0,172.0,30.0,5.0,51.0,1461.961
1461971.0,171.0,31.0,4.0,49.0,1461.971
1461981.0,172.0,31.0,4.0,51.0,1461.981
1461991.0,170.0,31.0,4.0,47.0,1461.991
1462001.0,170.0,31.0,4.0,48.0,1462.001
1462011.0,168.0,30.0,3.0,50.0,1462.011
1462021.0,168.0,31.0,4.0,57.0,1462.021
1462031.0,168.0,30.0,4.0,60.0,1462.031
1462041.0,165.0,30.0,4.0,58.0,1462.041
1462051.0,166.0,31.0,5.0,55.0,1462.051
1462061.0,165.0,31.0,5.0,51.0,1462.061
1462071.0,163.0,31.0,4.0,50.0,1462.071
1462081.0,163.0,30.0,4.0,52.0,1462.081
1462091.0,161.0,32.0,3.0,52.0,1462.091
1462102.0,161.0,30.0,4.0,52.0,1462.102
1462112.0,160.0,30.0,4.0,50.0,1462.112
1462122.0,160.0,31.0,5.0,49.0,1462.122
1462132.0,158.0,30.0,4.0,46.0,1462.132
1462142.0,156.0,30.0,3.0,43.0,1462.142
1462152.0,154.0,31.0,4.0,46.0,1462.152
1462162.0,153.0,31.0,3.0,44.0,1462.162
1462172.0,150.0,30.0,6.0,46.0,1462.172
1462182.0,148.0,30.0,5.0,46.0,1462.182
1462192.0,147.0,31.0,6.0,47.0,1462.192
1462202.0,144.0,30.0,6.0,47.0,1462.202
1462212.0,140.0,30.0,4.0,46.0,1462.212
1462222.0,137.0,29.0,7.0,52.0,1462.222
1462232.0,137.0,32.0,6.0,55.0,1462.232
1462242.0,135.0,31.0,6.0,50.0,1462.242
1462252.0,134.0,31.0,5.0,50.0,1462.252
1462262.0,133.0,32.0,6.0,46.0,1462.262
1462272.0,133.0,31.0,5.0,46.0,1462.272
1462282.0,130.0,32.0,4.0,45.0,1462.282
1462292.0,128.0,31.0,5.0,42.0,1462.292
1462302.0,126.0,33.0,5.0,43.0,1462.302
1462312.0,124.0,31.0,6.0,42.0,1462.312
1462322.0,121.0,31.0,6.0,42.0,1462.322
1462332.0,120.0,32.0,5.0,43.0,1462.332
1462342.0,120.0,31.0,6.0,45.0,1462.342
1462352.0,117.0,32.0,5.0,44.0,1462.352
1462362.0,116.0,32.0,5.0,41.0,1462.362
1462372.0,114.0,32.0,4.0,45.0,1462.372
1462382.0,112.0,32.0,5.0,47.0,1462.382
1462392.0,111.0,31.0,5.0,50.0,1462.392
1462402.0,110.0,32.0,5.0,52.0,1462.402
1462412.0,111.0,31.0,6.0,51.0,1462.412
1462422.0,109.0,32.0,4.0,48.0,1462.422
1462432.0,109.0,32.0,6.0,48.0,1462.432
1462443.0,109.0,31.0,5.0,50.0,1462.443
1462453.0,108.0,32.0,5.0,48.0,1462.453
1462463.0,106.0,32.0,5.0,49.0,1462.463
1462473.0,104.0,32.0,4.0,48.0,1462.473
1462483.0,103.0,32.0,6.0,47.0,1462.483
1462493.0,100.0,32.0,6.0,45.0,1462.493
1462503.0,99.0,31.0,5.0,47.0,1462.503
1462513.0,96.0,33.0,5.0,49.0,1462.513
1462523.0,92.0,31.0,5.0,52.0,1462.523
1462533.0,90.0,32.0,5.0,53.0,1462.533
1462543.0,86.0,32.0,5.0,53.0,1462.543
1462553.0,85.0,31.0,5.0,54.0,1462.553
1462563.0,80.0,31.0,4.0,54.0,1462.563
1462573.0,77.0,31.0,5.0,50.0,1462.573
1462583.0,75.0,32.0,5.0,56.0,1462.583
1462593.0,72.0,31.0,4.0,55.0,1462.593
1462603.0,72.0,31.0,4.0,55.0,1462.603
1462614.0,69.0,32.0,5.0,54.0,1462.614
1462624.0,67.0,32.0,5.0,54.0,1462.624
1462634.0,64.0,32.0,4.0,52.0,1462.634
1462644.0,63.0,32.0,4.0,55.0,1462.644
1462654.0,60.0,33.0,4.0,57.0,1462.654
1462664.0,57.0,32.0,4.0,53.0,1462.664
1462674.0,55.0,31.0,5.0,53.0,1462.674
1462684.0,53.0,31.0,5.0,53.0,1462.684
1462694.0,54.0,31.0,7.0,51.0,1462.694
1462704.0,51.0,31.0,5.0,50.0,1462.704
1462714.0,50.0,30.0,5.0,53.0,1462.714
1462724.0,49.0,31.0,5.0,53.0,1462.724
1462734.0,48.0,31.0,5.0,52.0,1462.734
1462744.0,47.0,30.0,5.0,49.0,1462.744
1462754.0,45.0,31.0,5.0,49.0,1462.754
1462764.0,46.0,31.0,5.0,52.0,1462.764
1462774.0,44.0,31.0,4.0,53.0,1462.774
1462784.0,44.0,31.0,5.0,55.0,1462.784
1462794.0,44.0,31.0,5.0,59.0,1462.794
1462804.0,43.0,31.0,5.0,59.0,1462.804
1462814.0,52.0,30.0,6.0,55.0,1462.814
1462824.0,59.0,31.0,5.0,54.0,1462.824
1462834.0,62.0,30.0,7.0,53.0,1462.834
1462844.0,67.0,30.0,10.0,52.0,1462.844
1462854.0,90.0,31.0,10.0,53.0,1462.854
1462864.0,88.0,31.0,9.0,52.0,1462.864
1462874.0,84.0,31.0,10.0,62.0,1462.874
1462884.0,94.0,30.0,10.0,60.0,1462.884
1462894.0,88.0,31.0,15.0,69.0,1462.894
1462904.0,82.0,31.0,14.0,72.0,1462.904
1462914.0,80.0,31.0,15.0,68.0,1462.914
1462924.0,73.0,32.0,14.0,69.0,1462.924
1462934.0,80.0,31.0,23.0,84.0,1462.934
1462944.0,93.0,32.0,25.0,90.0,1462.944
1462955.0,104.0,32.0,30.0,91.0,1462.955
1462965.0,107.0,33.0,27.0,85.0,1462.965
1462975.0,116.0,32.0,30.0,78.0,1462.975
1462985.0,122.0,31.0,37.0,75.0,1462.985
1462995.0,139.0,32.0,36.0,77.0,1462.995
1463005.0,147.0,32.0,33.0,74.0,1463.005
1463015.0,150.0,33.0,31.0,78.0,1463.015
1463025.0,178.0,32.0,28.0,80.0,1463.025
1463035.0,189.0,32.0,25.0,82.0,1463.035
1463045.0,184.0,33.0,25.0,82.0,1463.045
1463055.0,177.0,32.0,21.0,81.0,1463.055
1463065.0,166.0,33.0,19.0,85.0,1463.065
1463075.0,177.0,32.0,17.0,85.0,1463.075
1463085.0,178.0,34.0,15.0,86.0,1463.085
1463095.0,168.0,32.0,14.0,87.0,1463.095
1463105.0,155.0,33.0,13.0,91.0,1463.105
1463115.0,145.0,32.0,13.0,88.0,1463.115
1463126.0,138.0,31.0,15.0,85.0,1463.126
1463136.0,130.0,32.0,19.0,86.0,1463.136
1463146.0,132.0,32.0,18.0,85.0,1463.146
1463156.0,126.0,33.0,19.0,94.0,1463.156
1463166.0,124.0,32.0,18.0,94.0,1463.166
1463176.0,120.0,31.0,16.0,92.0,1463.176
1463186.0,121.0,31.0,14.0,88.0,1463.186
1463196.0,125.0,31.0,22.0,83.0,1463.196
1463206.0,121.0,31.0,20.0,84.0,1463.206
1463216.0,123.0,31.0,19.0,79.0,1463.216
1463226.0,119.0,32.0,17.0,82.0,1463.226
1463236.0,116.0,31.0,17.0,86.0,1463.236
1463246.0,116.0,32.0,15.0,89.0,1463.246
1463256.0,121.0,32.0,14.0,85.0,1463.256
1463266.0,118.0,31.0,12.0,84.0,1463.266
1463276.0,116.0,31.0,10.0,81.0,1463.276
1463286.0,117.0,31.0,10.0,77.0,1463.286
1463296.0,115.0,32.0,10.0,77.0,1463.296
1463306.0,115.0,31.0,8.0,74.0,1463.306
1463316.0,117.0,31.0,7.0,74.0,1463.316
1463326.0,115.0,31.0,11.0,76.0,1463.326
1463336.0,113.0,31.0,10.0,83.0,1463.336
1463346.0,112.0,31.0,10.0,83.0,1463.346
1463356.0,108.0,31.0,9.0,81.0,1463.356
1463366.0,109.0,33.0,8.0,81.0,1463.366
1463376.0,110.0,31.0,7.0,79.0,1463.376
1463386.0,110.0,31.0,7.0,76.0,1463.386
1463396.0,109.0,32.0,7.0,76.0,1463.396
1463406.0,112.0,31.0,7.0,73.0,1463.406
1463416.0,110.0,31.0,6.0,73.0,1463.416
1463426.0,111.0,31.0,6.0,74.0,1463.426
1463436.0,109.0,32.0,6.0,76.0,1463.436
1463446.0,111.0,31.0,5.0,74.0,1463.446
1463456.0,108.0,32.0,5.0,74.0,1463.456
1463467.0,108.0,32.0,5.0,78.0,1463.467
1463477.0,109.0,31.0,5.0,77.0,1463.477
1463487.0,108.0,32.0,4.0,75.0,1463.487
1463497.0,108.0,31.0,4.0,72.0,1463.497
1463507.0,108.0,32.0,5.0,68.0,1463.507
1463517.0,108.0,32.0,4.0,64.0,1463.517
1463527.0,109.0,30.0,4.0,61.0,1463.527
1463537.0,107.0,31.0,4.0,62.0,1463.537
1463547.0,105.0,31.0,5.0,62.0,1463.547
1463557.0,103.0,31.0,5.0,59.0,1463.557
1463567.0,101.0,31.0,5.0,61.0,1463.567
1463577.0,98.0,32.0,4.0,60.0,1463.577
1463587.0,98.0,31.0,5.0,60.0,1463.587
1463597.0,95.0,31.0,4.0,60.0,1463.597
1463607.0,93.0,32.0,4.0,59.0,1463.607
1463617.0,90.0,31.0,5.0,58.0,1463.617
1463627.0,90.0,31.0,4.0,56.0,1463.627
1463638.0,90.0,31.0,4.0,53.0,1463.638
1463648.0,88.0,31.0,3.0,53.0,1463.648
1463658.0,87.0,30.0,3.0,50.0,1463.658
1463668.0,85.0,31.0,4.0,53.0,1463.668
1463678.0,85.0,31.0,4.0,49.0,1463.678
1463688.0,82.0,30.0,4.0,50.0,1463.688
1463698.0,80.0,31.0,2.0,51.0,1463.698
1463708.0,80.0,30.0,4.0,49.0,1463.708
1463718.0,77.0,31.0,3.0,51.0,1463.718
1463728.0,80.0,31.0,3.0,50.0,1463.728
1463738.0,81.0,31.0,5.0,49.0,1463.738
1463748.0,81.0,31.0,4.0,49.0,1463.748
1463758.0,81.0,31.0,4.0,49.0,1463.758
1463768.0,78.0,31.0,4.0,49.0,1463.768
1463778.0,81.0,31.0,3.0,48.0,1463.778
1463788.0,78.0,31.0,3.0,47.0,1463.788
1463798.0,76.0,30.0,4.0,48.0,1463.798
1463808.0,74.0,30.0,4.0,52.0,1463.808
1463818.0,73.0,31.0,4.0,51.0,1463.818
1463828.0,71.0,30.0,4.0,51.0,1463.828
1463838.0,68.0,31.0,3.0,52.0,1463.838
1463848.0,71.0,31.0,4.0,52.0,1463.848
1463858.0,68.0,31.0,3.0,50.0,1463.858
1463868.0,67.0,31.0,3.0,50.0,1463.868
1463878.0,65.0,30.0,4.0,49.0,1463.878
1463888.0,65.0,30.0,4.0,48.0,1463.888
1463898.0,65.0,31.0,4.0,46.0,1463.898
1463908.0,64.0,30.0,4.0,45.0,1463.908
1463918.0,61.0,31.0,4.0,49.0,1463.918
1463928.0,60.0,31.0,3.0,50.0,1463.928
1463938.0,58.0,31.0,3.0,50.0,1463.938
1463948.0,62.0,30.0,4.0,50.0,1463.948
1463958.0,62.0,31.0,3.0,49.0,1463.958
1463968.0,65.0,31.0,4.0,48.0,1463.968
1463979.0,66.0,31.0,3.0,49.0,1463.979
1463989.0,67.0,31.0,3.0,48.0,1463.989
1463999.0,70.0,31.0,4.0,49.0,1463.999
1464009.0,74.0,32.0,3.0,49.0,1464.009
1464019.0,81.0,31.0,4.0,47.0,1464.019
1464029.0,88.0,32.0,3.0,48.0,1464.029
1464039.0,98.0,31.0,4.0,47.0,1464.039
1464049.0,107.0,31.0,4.0,47.0,1464.049
1464059.0,116.0,31.0,3.0,46.0,1464.059
1464069.0,124.0,32.0,3.0,45.0,1464.069
1464079.0,128.0,32.0,3.0,44.0,1464.079
1464089.0,141.0,30.0,4.0,43.0,1464.089
1464099.0,148.0,31.0,3.0,41.0,1464.099
1464109.0,153.0,31.0,4.0,41.0,1464.109
1464119.0,160.0,31.0,4.0,41.0,1464.119
1464129.0,162.0,31.0,3.0,40.0,1464.129
1464139.0,168.0,31.0,3.0,40.0,1464.139
1464150.0,170.0,31.0,3.0,40.0,1464.15
1464160.0,173.0,30.0,4.0,38.0,1464.16
1464170.0,176.0,31.0,4.0,40.0,1464.17
1464180.0,178.0,31.0,4.0,41.0,1464.18
1464190.0,179.0,30.0,4.0,42.0,1464.19
1464200.0,178.0,31.0,4.0,41.0,1464.2
1464210.0,178.0,31.0,4.0,42.0,1464.21
1464220.0,177.0,32.0,3.0,42.0,1464.22
1464230.0,175.0,30.0,4.0,42.0,1464.23
1464240.0,173.0,31.0,4.0,42.0,1464.24
1464250.0,172.0,31.0,2.0,41.0,1464.25
1464260.0,171.0,30.0,2.0,39.0,1464.26
1464270.0,170.0,31.0,3.0,39.0,1464.27
1464280.0,168.0,31.0,3.0,39.0,1464.28
1464290.0,168.0,32.0,3.0,38.0,1464.29
1464300.0,165.0,30.0,4.0,36.0,1464.3
1464310.0,161.0,31.0,3.0,35.0,1464.31
1464320.0,160.0,30.0,4.0,35.0,1464.32
1464330.0,159.0,30.0,3.0,33.0,1464.33
1464340.0,157.0,30.0,3.0,32.0,1464.34
1464350.0,155.0,29.0,3.0,32.0,1464.35
1464360.0,153.0,31.0,3.0,31.0,1464.36
1464370.0,150.0,30.0,4.0,30.0,1464.37
1464380.0,148.0,30.0,3.0,30.0,1464.38
1464390.0,145.0,31.0,4.0,29.0,1464.39
1464400.0,144.0,30.0,3.0,28.0,1464.4
1464410.0,142.0,31.0,3.0,28.0,1464.41
1464420.0,139.0,30.0,4.0,27.0,1464.42
1464430.0,136.0,31.0,3.0,27.0,1464.43
1464440.0,133.0,30.0,4.0,26.0,1464.44
1464450.0,133.0,30.0,3.0,26.0,1464.45
1464460.0,129.0,30.0,4.0,26.0,1464.46
1464470.0,127.0,30.0,3.0,26.0,1464.47
1464480.0,125.0,31.0,3.0,26.0,1464.48
1464491.0,124.0,31.0,3.0,26.0,1464.491
1464501.0,122.0,32.0,3.0,28.0,1464.501
1464511.0,120.0,32.0,4.0,28.0,1464.511
1464521.0,118.0,31.0,3.0,28.0,1464.521
1464531.0,116.0,31.0,4.0,27.0,1464.531
1464541.0,113.0,31.0,3.0,27.0,1464.541
1464551.0,112.0,31.0,4.0,27.0,1464.551
1464561.0,110.0,30.0,3.0,27.0,1464.561
1464571.0,110.0,31.0,3.0,27.0,1464.571
1464581.0,108.0,30.0,3.0,26.0,1464.581
1464591.0,106.0,31.0,3.0,26.0,1464.591
1464601.0,104.0,31.0,4.0,25.0,1464.601
1464611.0,104.0,31.0,3.0,25.0,1464.611
1464621.0,103.0,31.0,2.0,26.0,1464.621
1464631.0,104.0,30.0,4.0,25.0,1464.631
1464641.0,103.0,32.0,3.0,26.0,1464.641
1464651.0,102.0,31.0,3.0,25.0,1464.651
1464662.0,101.0,31.0,3.0,25.0,1464.662
1464672.0,99.0,31.0,4.0,26.0,1464.672
1464682.0,98.0,31.0,3.0,25.0,1464.682
1464692.0,94.0,31.0,2.0,26.0,1464.692
1464702.0,94.0,29.0,4.0,27.0,1464.702
1464712.0,91.0,30.0,2.0,28.0,1464.712
1464722.0,89.0,30.0,3.0,26.0,1464.722
1464732.0,88.0,31.0,3.0,27.0,1464.732
1464742.0,85.0,31.0,4.0,28.0,1464.742
1464752.0,87.0,30.0,4.0,28.0,1464.752
1464762.0,84.0,31.0,4.0,29.0,1464.762
1464772.0,82.0,31.0,3.0,28.0,1464.772
1464782.0,79.0,31.0,3.0,29.0,1464.782
1464792.0,80.0,31.0,3.0,27.0,1464.792
1464802.0,79.0,30.0,4.0,27.0,1464.802
1464812.0,77.0,31.0,3.0,26.0,1464.812
1464822.0,80.0,31.0,4.0,27.0,1464.822
1464832.0,79.0,31.0,3.0,28.0,1464.832
1464842.0,79.0,31.0,3.0,27.0,1464.842
1464852.0,79.0,32.0,3.0,30.0,1464.852
1464862.0,78.0,32.0,3.0,30.0,1464.862
1464872.0,77.0,31.0,3.0,33.0,1464.872
1464882.0,75.0,32.0,3.0,35.0,1464.882
1464892.0,75.0,31.0,4.0,35.0,1464.892
1464902.0,72.0,31.0,2.0,36.0,1464.902
1464912.0,73.0,32.0,4.0,37.0,1464.912
1464922.0,71.0,31.0,4.0,36.0,1464.922
1464932.0,71.0,32.0,3.0,34.0,1464.932
1464942.0,71.0,31.0,4.0,35.0,1464.942
1464952.0,70.0,32.0,4.0,36.0,1464.952
1464962.0,69.0,31.0,3.0,38.0,1464.962
1464972.0,70.0,31.0,2.0,38.0,1464.972
1464982.0,70.0,32.0,4.0,40.0,1464.982
1464992.0,68.0,33.0,3.0,42.0,1464.992
1465003.0,69.0,32.0,3.0,42.0,1465.003
1465013.0,70.0,32.0,4.0,44.0,1465.013
1465023.0,67.0,32.0,4.0,43.0,1465.023
1465033.0,71.0,33.0,4.0,43.0,1465.033
1465043.0,68.0,33.0,4.0,45.0,1465.043
1465053.0,71.0,33.0,4.0,44.0,1465.053
1465063.0,70.0,33.0,3.0,44.0,1465.063
1465073.0,70.0,33.0,3.0,41.0,1465.073
1465083.0,70.0,32.0,4.0,42.0,1465.083
1465093.0,70.0,33.0,3.0,42.0,1465.093
1465103.0,69.0,33.0,5.0,42.0,1465.103
1465113.0,70.0,33.0,4.0,43.0,1465.113
1465123.0,70.0,32.0,4.0,42.0,1465.123
1465133.0,72.0,33.0,4.0,43.0,1465.133
1465143.0,71.0,33.0,3.0,41.0,1465.143
1465153.0,74.0,32.0,3.0,41.0,1465.153
1465163.0,76.0,33.0,4.0,41.0,1465.163
1465174.0,77.0,32.0,5.0,39.0,1465.174
1465184.0,76.0,32.0,4.0,39.0,1465.184
1465194.0,77.0,32.0,4.0,37.0,1465.194
1465204.0,78.0,33.0,4.0,37.0,1465.204
1465214.0,78.0,32.0,3.0,36.0,1465.214
1465224.0,76.0,32.0,4.0,35.0,1465.224
1465234.0,76.0,31.0,3.0,34.0,1465.234
1465244.0,77.0,31.0,4.0,34.0,1465.244
1465254.0,76.0,31.0,4.0,34.0,1465.254
1465264.0,77.0,32.0,4.0,34.0,1465.264
1465274.0,78.0,32.0,4.0,35.0,1465.274
1465284.0,79.0,32.0,3.0,36.0,1465.284
1465294.0,77.0,32.0,4.0,34.0,1465.294
1465304.0,78.0,33.0,4.0,37.0,1465.304
1465314.0,80.0,32.0,4.0,34.0,1465.314
1465324.0,78.0,31.0,3.0,34.0,1465.324
1465334.0,80.0,32.0,3.0,33.0,1465.334
1465344.0,78.0,31.0,4.0,32.0,1465.344
1465354.0,80.0,32.0,3.0,32.0,1465.354
1465364.0,80.0,31.0,3.0,30.0,1465.364
1465374.0,80.0,31.0,4.0,30.0,1465.374
1465384.0,82.0,31.0,5.0,29.0,1465.384
1465394.0,83.0,31.0,3.0,29.0,1465.394
1465404.0,84.0,31.0,3.0,29.0,1465.404
1465414.0,86.0,32.0,4.0,29.0,1465.414
1465424.0,87.0,32.0,3.0,29.0,1465.424
1465434.0,88.0,31.0,4.0,28.0,1465.434
1465444.0,88.0,31.0,3.0,28.0,1465.444
1465454.0,88.0,31.0,4.0,28.0,1465.454
1465464.0,89.0,31.0,4.0,29.0,1465.464
1465474.0,89.0,32.0,4.0,29.0,1465.474
1465484.0,91.0,31.0,4.0,28.0,1465.484
1465494.0,91.0,32.0,3.0,29.0,1465.494
1465504.0,90.0,30.0,4.0,28.0,1465.504
1465515.0,91.0,30.0,3.0,28.0,1465.515
1465525.0,91.0,31.0,4.0,28.0,1465.525
1465535.0,91.0,30.0,4.0,28.0,1465.535
1465545.0,90.0,31.0,4.0,28.0,1465.545
1465555.0,90.0,31.0,4.0,29.0,1465.555
1465565.0,90.0,31.0,4.0,32.0,1465.565
1465575.0,91.0,30.0,4.0,32.0,1465.575
1465585.0,92.0,31.0,3.0,33.0,1465.585
1465595.0,90.0,32.0,4.0,32.0,1465.595
1465605.0,89.0,31.0,4.0,31.0,1465.605
1465615.0,88.0,32.0,4.0,31.0,1465.615
1465625.0,89.0,33.0,3.0,30.0,1465.625
1465635.0,89.0,33.0,4.0,30.0,1465.635
1465645.0,89.0,32.0,4.0,29.0,1465.645
1465655.0,89.0,33.0,4.0,29.0,1465.655
1465665.0,89.0,33.0,4.0,30.0,1465.665
1465675.0,88.0,33.0,3.0,29.0,1465.675
1465686.0,90.0,32.0,3.0,29.0,1465.686
1465696.0,89.0,33.0,4.0,30.0,1465.696
1465706.0,90.0,34.0,3.0,31.0,1465.706
1465716.0,89.0,32.0,4.0,30.0,1465.716
1465726.0,89.0,32.0,4.0,33.0,1465.726
1465736.0,91.0,33.0,4.0,32.0,1465.736
1465746.0,92.0,33.0,4.0,33.0,1465.746
1465756.0,91.0,33.0,4.0,34.0,1465.756
1465766.0,92.0,32.0,4.0,33.0,1465.766
1465776.0,92.0,32.0,3.0,34.0,1465.776
1465786.0,93.0,32.0,4.0,34.0,1465.786
1465796.0,94.0,32.0,4.0,36.0,1465.796
1465806.0,93.0,32.0,4.0,36.0,1465.806
1465816.0,95.0,32.0,4.0,38.0,1465.816
1465826.0,94.0,33.0,4.0,39.0,1465.826
1465836.0,93.0,32.0,6.0,44.0,1465.836
1465846.0,95.0,33.0,6.0,44.0,1465.846
1465856.0,95.0,32.0,6.0,44.0,1465.856
1465866.0,100.0,32.0,7.0,46.0,1465.866
1465876.0,104.0,32.0,9.0,52.0,1465.876
1465886.0,108.0,31.0,9.0,55.0,1465.886
1465896.0,105.0,33.0,30.0,60.0,1465.896
1465906.0,109.0,32.0,38.0,61.0,1465.906
1465916.0,114.0,33.0,39.0,81.0,1465.916
1465926.0,118.0,33.0,81.0,87.0,1465.926
1465936.0,121.0,33.0,94.0,97.0,1465.936
1465946.0,120.0,33.0,104.0,115.0,1465.946
1465956.0,119.0,33.0,95.0,120.0,1465.956
1465966.0,120.0,34.0,86.0,148.0,1465.966
1465976.0,122.0,33.0,85.0,183.0,1465.976
1465986.0,133.0,35.0,81.0,207.0,1465.986
1465996.0,133.0,34.0,118.0,198.0,1465.996
1466006.0,143.0,34.0,109.0,265.0,1466.006
1466016.0,149.0,34.0,117.0,259.0,1466.016
1466027.0,156.0,34.0,104.0,262.0,1466.027
1466037.0,164.0,35.0,108.0,269.0,1466.037
1466047.0,160.0,33.0,108.0,270.0,1466.047
1466057.0,181.0,35.0,113.0,271.0,1466.057
1466067.0,185.0,34.0,137.0,344.0,1466.067
1466077.0,188.0,34.0,137.0,334.0,1466.077
1466087.0,189.0,35.0,127.0,336.0,1466.087
1466097.0,193.0,35.0,121.0,319.0,1466.097
1466107.0,190.0,34.0,110.0,306.0,1466.107
1466117.0,192.0,35.0,102.0,378.0,1466.117
1466127.0,192.0,35.0,102.0,357.0,1466.127
1466137.0,191.0,34.0,99.0,327.0,1466.137
1466147.0,187.0,34.0,88.0,318.0,1466.147
1466157.0,187.0,35.0,83.0,309.0,1466.157
1466167.0,184.0,33.0,76.0,304.0,1466.167
1466177.0,183.0,33.0,76.0,322.0,1466.177
1466187.0,180.0,33.0,75.0,314.0,1466.187
1466198.0,178.0,34.0,74.0,310.0,1466.198
1466208.0,176.0,34.0,74.0,323.0,1466.208
1466218.0,167.0,33.0,75.0,338.0,1466.218
1466228.0,169.0,33.0,71.0,312.0,1466.228
1466238.0,171.0,32.0,65.0,296.0,1466.238
1466248.0,170.0,33.0,61.0,278.0,1466.248
1466258.0,166.0,33.0,66.0,266.0,1466.258
1466268.0,161.0,34.0,58.0,262.0,1466.268
1466278.0,161.0,34.0,54.0,247.0,1466.278
1466288.0,159.0,32.0,66.0,319.0,1466.288
1466298.0,156.0,35.0,71.0,308.0,1466.298
1466308.0,154.0,33.0,65.0,291.0,1466.308
1466318.0,149.0,33.0,58.0,264.0,1466.318
1466328.0,147.0,33.0,60.0,256.0,1466.328
1466338.0,145.0,33.0,61.0,263.0,1466.338
1466348.0,147.0,33.0,64.0,253.0,1466.348
1466358.0,147.0,32.0,57.0,242.0,1466.358
1466368.0,146.0,33.0,53.0,243.0,1466.368
1466378.0,143.0,32.0,51.0,232.0,1466.378
1466388.0,138.0,33.0,57.0,223.0,1466.388
1466398.0,136.0,33.0,59.0,235.0,1466.398
1466408.0,132.0,33.0,58.0,227.0,1466.408
1466418.0,132.0,34.0,56.0,216.0,1466.418
1466428.0,132.0,32.0,49.0,200.0,1466.428
1466438.0,129.0,32.0,43.0,189.0,1466.438
1466448.0,126.0,32.0,41.0,189.0,1466.448
1466458.0,126.0,31.0,40.0,187.0,1466.458
1466468.0,121.0,32.0,40.0,182.0,1466.468
1466478.0,121.0,32.0,40.0,175.0,1466.478
1466488.0,114.0,31.0,45.0,190.0,1466.488
1466498.0,119.0,32.0,45.0,197.0,1466.498
1466508.0,116.0,33.0,41.0,197.0,1466.508
1466518.0,119.0,32.0,42.0,197.0,1466.518
1466528.0,116.0,32.0,37.0,201.0,1466.528
1466539.0,113.0,32.0,33.0,194.0,1466.539
1466549.0,114.0,31.0,29.0,199.0,1466.549
1466559.0,110.0,33.0,46.0,188.0,1466.559
1466569.0,109.0,32.0,44.0,178.0,1466.569
1466579.0,107.0,32.0,43.0,190.0,1466.579
1466589.0,105.0,32.0,42.0,209.0,1466.589
1466599.0,106.0,32.0,46.0,208.0,1466.599
1466609.0,106.0,32.0,39.0,200.0,1466.609
1466619.0,105.0,32.0,36.0,183.0,1466.619
1466629.0,103.0,33.0,37.0,235.0,1466.629
1466639.0,102.0,32.0,42.0,234.0,1466.639
1466649.0,100.0,32.0,38.0,220.0,1466.649
1466659.0,100.0,32.0,36.0,205.0,1466.659
1466669.0,101.0,31.0,36.0,204.0,1466.669
1466679.0,98.0,32.0,38.0,199.0,1466.679
1466689.0,98.0,32.0,34.0,194.0,1466.689
1466699.0,96.0,32.0,42.0,183.0,1466.699
1466710.0,95.0,30.0,38.0,182.0,1466.71
1466720.0,96.0,31.0,37.0,178.0,1466.72
1466730.0,94.0,32.0,42.0,182.0,1466.73
1466740.0,93.0,31.0,38.0,183.0,1466.74
1466750.0,92.0,32.0,35.0,168.0,1466.75
1466760.0,89.0,31.0,33.0,169.0,1466.76
1466770.0,87.0,33.0,31.0,178.0,1466.77
1466780.0,86.0,32.0,39.0,172.0,1466.78
1466790.0,85.0,31.0,33.0,174.0,1466.79
1466800.0,85.0,32.0,34.0,172.0,1466.8
1466810.0,88.0,31.0,30.0,161.0,1466.81
1466820.0,86.0,31.0,26.0,157.0,1466.82
1466830.0,87.0,31.0,25.0,145.0,1466.83
1466840.0,83.0,31.0,23.0,156.0,1466.84
1466850.0,87.0,31.0,21.0,150.0,1466.85
1466860.0,87.0,30.0,19.0,140.0,1466.86
1466870.0,84.0,31.0,23.0,147.0,1466.87
1466880.0,84.0,31.0,27.0,147.0,1466.88
1466890.0,82.0,31.0,24.0,139.0,1466.89
1466900.0,80.0,31.0,22.0,145.0,1466.9
1466910.0,80.0,31.0,20.0,150.0,1466.91
1466920.0,77.0,31.0,31.0,152.0,1466.92
1466930.0,78.0,31.0,29.0,144.0,1466.93
1466940.0,76.0,31.0,35.0,140.0,1466.94
1466950.0,78.0,31.0,32.0,130.0,1466.95
1466960.0,74.0,31.0,28.0,131.0,1466.96
1466970.0,72.0,30.0,26.0,139.0,1466.97
1466980.0,69.0,31.0,24.0,133.0,1466.98
1466990.0,67.0,31.0,21.0,126.0,1466.99
1467000.0,73.0,31.0,20.0,139.0,1467.0
1467010.0,71.0,31.0,17.0,144.0,1467.01
1467020.0,69.0,30.0,24.0,143.0,1467.02
1467030.0,66.0,31.0,20.0,138.0,1467.03
1467040.0,63.0,31.0,20.0,140.0,1467.04
1467051.0,61.0,31.0,19.0,139.0,1467.051
1467061.0,59.0,30.0,18.0,134.0,1467.061
1467071.0,58.0,30.0,17.0,123.0,1467.071
1467081.0,56.0,30.0,15.0,120.0,1467.081
1467091.0,55.0,31.0,15.0,118.0,1467.091
1467101.0,54.0,30.0,14.0,111.0,1467.101
1467111.0,53.0,30.0,12.0,120.0,1467.111
1467121.0,51.0,31.0,19.0,113.0,1467.121
1467131.0,51.0,31.0,29.0,108.0,1467.131
1467141.0,51.0,30.0,30.0,124.0,1467.141
1467151.0,49.0,31.0,27.0,123.0,1467.151
1467161.0,52.0,30.0,25.0,125.0,1467.161
1467171.0,49.0,31.0,22.0,117.0,1467.171
1467181.0,48.0,31.0,20.0,111.0,1467.181
1467191.0,48.0,31.0,22.0,119.0,1467.191
1467201.0,50.0,31.0,21.0,138.0,1467.201
1467211.0,58.0,31.0,19.0,136.0,1467.211
1467222.0,57.0,31.0,17.0,124.0,1467.222
1467232.0,57.0,30.0,17.0,111.0,1467.232
1467242.0,54.0,30.0,14.0,131.0,1467.242
1467252.0,53.0,31.0,15.0,140.0,1467.252
1467262.0,52.0,31.0,14.0,132.0,1467.262
1467272.0,51.0,32.0,15.0,127.0,1467.272
1467282.0,51.0,30.0,13.0,126.0,1467.282
1467292.0,49.0,31.0,12.0,131.0,1467.292
1467302.0,51.0,30.0,12.0,132.0,1467.302
1467312.0,50.0,30.0,10.0,126.0,1467.312
1467322.0,50.0,30.0,18.0,133.0,1467.322
1467332.0,48.0,30.0,16.0,129.0,1467.332
1467342.0,47.0,31.0,14.0,142.0,1467.342
1467352.0,47.0,31.0,13.0,147.0,1467.352
1467362.0,49.0,30.0,13.0,146.0,1467.362
1467372.0,49.0,30.0,12.0,133.0,1467.372
1467382.0,49.0,30.0,10.0,135.0,1467.382
1467392.0,48.0,30.0,12.0,140.0,1467.392
1467402.0,49.0,31.0,13.0,138.0,1467.402
1467412.0,49.0,31.0,15.0,132.0,1467.412
1467422.0,49.0,30.0,13.0,122.0,1467.422
1467432.0,57.0,30.0,13.0,137.0,1467.432
1467442.0,59.0,30.0,12.0,140.0,1467.442
1467452.0,59.0,31.0,10.0,136.0,1467.452
1467462.0,56.0,30.0,12.0,143.0,1467.462
1467472.0,56.0,30.0,12.0,142.0,1467.472
1467482.0,54.0,31.0,11.0,136.0,1467.482
1467492.0,53.0,30.0,11.0,157.0,1467.492
1467502.0,53.0,30.0,13.0,169.0,1467.502
1467512.0,52.0,30.0,13.0,159.0,1467.512
1467522.0,53.0,30.0,12.0,152.0,1467.522
1467532.0,53.0,30.0,14.0,139.0,1467.532
1467542.0,53.0,31.0,15.0,173.0,1467.542
1467552.0,52.0,31.0,13.0,160.0,1467.552
1467563.0,50.0,30.0,12.0,142.0,1467.563
1467573.0,49.0,30.0,12.0,140.0,1467.573
1467583.0,50.0,30.0,14.0,144.0,1467.583
1467593.0,51.0,30.0,12.0,141.0,1467.593
1467603.0,51.0,30.0,11.0,137.0,1467.603
1467613.0,53.0,29.0,10.0,131.0,1467.613
1467623.0,53.0,31.0,11.0,128.0,1467.623
1467633.0,54.0,30.0,14.0,130.0,1467.633
1467643.0,54.0,30.0,15.0,126.0,1467.643
1467653.0,55.0,30.0,14.0,124.0,1467.653
1467663.0,54.0,30.0,12.0,113.0,1467.663
1467673.0,54.0,30.0,12.0,119.0,1467.673
1467683.0,54.0,29.0,11.0,126.0,1467.683
1467693.0,55.0,31.0,10.0,129.0,1467.693
1467703.0,54.0,30.0,10.0,126.0,1467.703
1467713.0,55.0,30.0,10.0,127.0,1467.713
1467723.0,57.0,30.0,12.0,123.0,1467.723
1467734.0,58.0,31.0,10.0,118.0,1467.734
1467744.0,60.0,31.0,9.0,119.0,1467.744
1467754.0,60.0,30.0,10.0,113.0,1467.754
1467764.0,59.0,31.0,8.0,111.0,1467.764
1467774.0,59.0,30.0,10.0,118.0,1467.774
1467784.0,58.0,31.0,9.0,118.0,1467.784
1467794.0,57.0,30.0,9.0,115.0,1467.794
1467804.0,59.0,30.0,9.0,114.0,1467.804
1467814.0,58.0,30.0,10.0,109.0,1467.814
1467824.0,59.0,29.0,10.0,107.0,1467.824
1467834.0,57.0,31.0,9.0,113.0,1467.834
1467844.0,57.0,30.0,9.0,108.0,1467.844
1467854.0,56.0,30.0,9.0,122.0,1467.854
1467864.0,55.0,31.0,10.0,123.0,1467.864
1467874.0,55.0,30.0,9.0,117.0,1467.874
1467884.0,52.0,31.0,8.0,113.0,1467.884
1467894.0,52.0,29.0,9.0,107.0,1467.894
1467904.0,51.0,32.0,9.0,109.0,1467.904
1467914.0,52.0,30.0,9.0,104.0,1467.914
1467924.0,52.0,30.0,8.0,111.0,1467.924
1467934.0,52.0,31.0,8.0,112.0,1467.934
1467944.0,53.0,30.0,10.0,106.0,1467.944
1467954.0,54.0,31.0,12.0,107.0,1467.954
1467964.0,53.0,31.0,12.0,100.0,1467.964
1467974.0,53.0,32.0,13.0,100.0,1467.974
1467984.0,52.0,30.0,12.0,118.0,1467.984
1467994.0,52.0,31.0,11.0,111.0,1467.994
1468004.0,52.0,31.0,10.0,107.0,1468.004
1468014.0,54.0,31.0,10.0,109.0,1468.014
1468024.0,52.0,32.0,10.0,102.0,1468.024
1468034.0,51.0,32.0,9.0,105.0,1468.034
1468044.0,51.0,33.0,11.0,108.0,1468.044
1468054.0,51.0,32.0,10.0,112.0,1468.054
1468064.0,49.0,32.0,8.0,116.0,1468.064
1468075.0,49.0,32.0,8.0,110.0,1468.075
1468085.0,50.0,31.0,8.0,110.0,1468.085
1468095.0,48.0,31.0,6.0,117.0,1468.095
1468105.0,49.0,31.0,8.0,120.0,1468.105
1468115.0,48.0,33.0,8.0,114.0,1468.115
1468125.0,47.0,32.0,8.0,107.0,1468.125
1468135.0,47.0,32.0,8.0,121.0,1468.135
1468145.0,48.0,33.0,7.0,125.0,1468.145
1468155.0,49.0,32.0,7.0,134.0,1468.155
1468165.0,48.0,32.0,6.0,133.0,1468.165
1468175.0,49.0,32.0,7.0,124.0,1468.175
1468185.0,49.0,33.0,8.0,122.0,1468.185
1468195.0,49.0,32.0,7.0,130.0,1468.195
1468205.0,49.0,32.0,9.0,128.0,1468.205
1468215.0,48.0,32.0,8.0,130.0,1468.215
1468225.0,49.0,31.0,9.0,132.0,1468.225
1468235.0,50.0,32.0,6.0,131.0,1468.235
1468246.0,49.0,32.0,7.0,125.0,1468.246
1468256.0,48.0,33.0,6.0,119.0,1468.256
1468266.0,48.0,32.0,7.0,112.0,1468.266
1468276.0,48.0,31.0,5.0,111.0,1468.276
1468286.0,47.0,32.0,5.0,104.0,1468.286
1468296.0,47.0,31.0,6.0,104.0,1468.296
1468306.0,46.0,32.0,4.0,97.0,1468.306
1468316.0,46.0,32.0,5.0,95.0,1468.316
1468326.0,47.0,32.0,5.0,100.0,1468.326
1468336.0,46.0,32.0,6.0,93.0,1468.336
1468346.0,46.0,32.0,9.0,90.0,1468.346
1468356.0,45.0,33.0,9.0,93.0,1468.356
1468366.0,46.0,31.0,9.0,91.0,1468.366
1468376.0,46.0,33.0,8.0,94.0,1468.376
1468386.0,46.0,33.0,7.0,93.0,1468.386
1468396.0,46.0,34.0,6.0,103.0,1468.396
1468406.0,46.0,34.0,6.0,104.0,1468.406
1468416.0,46.0,32.0,6.0,97.0,1468.416
1468426.0,45.0,33.0,7.0,113.0,1468.426
1468436.0,47.0,34.0,8.0,113.0,1468.436
1468446.0,45.0,34.0,7.0,123.0,1468.446
1468456.0,45.0,33.0,7.0,116.0,1468.456
1468466.0,44.0,34.0,7.0,113.0,1468.466
1468476.0,45.0,34.0,8.0,111.0,1468.476
1468486.0,44.0,32.0,7.0,108.0,1468.486
1468496.0,44.0,33.0,7.0,107.0,1468.496
1468506.0,46.0,32.0,6.0,107.0,1468.506
1468516.0,46.0,33.0,6.0,109.0,1468.516
1468526.0,46.0,33.0,6.0,116.0,1468.526
1468536.0,46.0,33.0,6.0,110.0,1468.536
1468546.0,45.0,33.0,8.0,132.0,1468.546
1468556.0,45.0,32.0,8.0,141.0,1468.556
1468566.0,44.0,33.0,7.0,132.0,1468.566
1468576.0,45.0,32.0,8.0,119.0,1468.576
1468587.0,44.0,31.0,7.0,115.0,1468.587
1468597.0,46.0,31.0,7.0,116.0,1468.597
1468607.0,47.0,32.0,7.0,118.0,1468.607
1468617.0,47.0,32.0,7.0,123.0,1468.617
1468627.0,47.0,32.0,7.0,118.0,1468.627
1468637.0,46.0,32.0,7.0,111.0,1468.637
1468647.0,47.0,32.0,8.0,105.0,1468.647
1468657.0,44.0,31.0,6.0,96.0,1468.657
1468667.0,45.0,31.0,6.0,94.0,1468.667
1468677.0,46.0,31.0,6.0,89.0,1468.677
1468687.0,45.0,32.0,7.0,90.0,1468.687
1468697.0,46.0,30.0,8.0,91.0,1468.697
1468707.0,45.0,31.0,8.0,89.0,1468.707
1468717.0,47.0,31.0,9.0,93.0,1468.717
1468727.0,46.0,31.0,7.0,97.0,1468.727
1468737.0,46.0,32.0,7.0,109.0,1468.737
1468747.0,46.0,31.0,6.0,121.0,1468.747
1468758.0,45.0,32.0,6.0,121.0,1468.758
1468768.0,45.0,31.0,6.0,125.0,1468.768
1468778.0,46.0,32.0,5.0,123.0,1468.778
1468788.0,46.0,33.0,7.0,115.0,1468.788
1468798.0,46.0,31.0,5.0,106.0,1468.798
1468808.0,46.0,31.0,7.0,107.0,1468.808
1468818.0,46.0,32.0,9.0,106.0,1468.818
1468828.0,46.0,32.0,11.0,119.0,1468.828
1468838.0,46.0,32.0,12.0,148.0,1468.838
1468848.0,47.0,31.0,11.0,148.0,1468.848
1468858.0,47.0,32.0,11.0,142.0,1468.858
1468868.0,48.0,31.0,9.0,138.0,1468.868
1468878.0,48.0,31.0,9.0,132.0,1468.878
1468888.0,50.0,31.0,11.0,134.0,1468.888
1468898.0,50.0,32.0,10.0,133.0,1468.898
1468908.0,50.0,31.0,9.0,122.0,1468.908
1468918.0,49.0,31.0,9.0,136.0,1468.918
1468928.0,50.0,31.0,10.0,131.0,1468.928
1468938.0,50.0,31.0,10.0,120.0,1468.938
1468948.0,50.0,31.0,9.0,118.0,1468.948
1468958.0,52.0,31.0,15.0,138.0,1468.958
1468968.0,51.0,31.0,13.0,138.0,1468.968
1468978.0,51.0,32.0,12.0,138.0,1468.978
1468988.0,52.0,31.0,11.0,132.0,1468.988
1468998.0,51.0,31.0,10.0,126.0,1468.998
1469008.0,50.0,32.0,12.0,124.0,1469.008
1469018.0,50.0,32.0,14.0,124.0,1469.018
1469028.0,50.0,31.0,14.0,122.0,1469.028
1469038.0,49.0,33.0,13.0,123.0,1469.038
1469048.0,49.0,32.0,12.0,114.0,1469.048
1469058.0,49.0,32.0,11.0,112.0,1469.058
1469068.0,50.0,32.0,12.0,110.0,1469.068
1469078.0,53.0,31.0,12.0,125.0,1469.078
1469088.0,50.0,31.0,10.0,119.0,1469.088
1469099.0,50.0,32.0,10.0,111.0,1469.099
1469109.0,51.0,33.0,10.0,131.0,1469.109
1469119.0,51.0,32.0,9.0,126.0,1469.119
1469129.0,52.0,31.0,9.0,120.0,1469.129
1469139.0,53.0,31.0,14.0,112.0,1469.139
1469149.0,53.0,31.0,13.0,115.0,1469.149
1469159.0,54.0,31.0,11.0,111.0,1469.159
1469169.0,54.0,31.0,10.0,121.0,1469.169
1469179.0,53.0,32.0,9.0,118.0,1469.179
1469189.0,54.0,30.0,9.0,112.0,1469.189
1469199.0,55.0,31.0,8.0,116.0,1469.199
