time (ms),signal 0,signal 1,signal 2,signal3,time (sec)
1517606.0,56.0,40.0,7.0,38.0,1517.606
1517616.0,58.0,40.0,8.0,38.0,1517.616
1517626.0,56.0,40.0,6.0,40.0,1517.626
1517636.0,57.0,39.0,6.0,41.0,1517.636
1517646.0,57.0,40.0,11.0,46.0,1517.646
1517656.0,58.0,38.0,10.0,44.0,1517.656
1517666.0,56.0,37.0,9.0,44.0,1517.666
1517676.0,56.0,36.0,9.0,44.0,1517.676
1517686.0,56.0,37.0,8.0,43.0,1517.686
1517696.0,53.0,37.0,8.0,42.0,1517.696
1517706.0,52.0,37.0,7.0,42.0,1517.706
1517716.0,51.0,38.0,9.0,45.0,1517.716
1517726.0,52.0,37.0,8.0,44.0,1517.726
1517736.0,52.0,40.0,8.0,44.0,1517.736
1517746.0,53.0,42.0,9.0,44.0,1517.746
1517756.0,56.0,42.0,10.0,46.0,1517.756
1517766.0,55.0,42.0,9.0,46.0,1517.766
1517776.0,55.0,43.0,10.0,44.0,1517.776
1517786.0,56.0,46.0,9.0,45.0,1517.786
1517796.0,55.0,46.0,9.0,40.0,1517.796
1517806.0,55.0,46.0,8.0,38.0,1517.806
1517816.0,54.0,48.0,7.0,39.0,1517.816
1517826.0,54.0,48.0,8.0,36.0,1517.826
1517836.0,53.0,50.0,7.0,40.0,1517.836
1517846.0,53.0,49.0,8.0,39.0,1517.846
1517856.0,52.0,50.0,10.0,39.0,1517.856
1517867.0,54.0,49.0,9.0,37.0,1517.867
1517877.0,54.0,48.0,8.0,38.0,1517.877
1517887.0,55.0,48.0,7.0,41.0,1517.887
1517897.0,57.0,50.0,8.0,41.0,1517.897
1517907.0,58.0,50.0,6.0,40.0,1517.907
1517917.0,58.0,51.0,7.0,39.0,1517.917
1517927.0,58.0,51.0,9.0,41.0,1517.927
1517937.0,58.0,50.0,7.0,38.0,1517.937
1517947.0,58.0,50.0,7.0,39.0,1517.947
1517957.0,57.0,49.0,5.0,41.0,1517.957
1517967.0,57.0,48.0,6.0,41.0,1517.967
1517977.0,55.0,48.0,6.0,41.0,1517.977
1517987.0,55.0,48.0,6.0,40.0,1517.987
1517997.0,55.0,48.0,6.0,44.0,1517.997
1518007.0,54.0,47.0,6.0,44.0,1518.007
1518017.0,54.0,48.0,7.0,42.0,1518.017
1518027.0,55.0,47.0,9.0,41.0,1518.027
1518038.0,56.0,46.0,9.0,39.0,1518.038
1518048.0,54.0,46.0,6.0,37.0,1518.048
1518058.0,54.0,47.0,7.0,37.0,1518.058
1518068.0,52.0,47.0,8.0,42.0,1518.068
1518078.0,51.0,46.0,9.0,44.0,1518.078
1518088.0,51.0,46.0,8.0,44.0,1518.088
1518098.0,49.0,49.0,7.0,44.0,1518.098
1518108.0,51.0,48.0,9.0,43.0,1518.108
1518118.0,50.0,50.0,7.0,43.0,1518.118
1518128.0,52.0,49.0,9.0,43.0,1518.128
1518138.0,52.0,49.0,7.0,42.0,1518.138
1518148.0,53.0,50.0,7.0,44.0,1518.148
1518158.0,57.0,49.0,7.0,45.0,1518.158
1518168.0,58.0,50.0,7.0,44.0,1518.168
1518178.0,59.0,51.0,11.0,43.0,1518.178
1518188.0,58.0,49.0,9.0,41.0,1518.188
1518198.0,59.0,49.0,10.0,42.0,1518.198
1518208.0,60.0,49.0,10.0,41.0,1518.208
1518218.0,59.0,49.0,10.0,39.0,1518.218
1518228.0,61.0,48.0,10.0,38.0,1518.228
1518238.0,61.0,49.0,8.0,39.0,1518.238
1518248.0,63.0,49.0,10.0,41.0,1518.248
1518258.0,62.0,48.0,8.0,41.0,1518.258
1518268.0,62.0,48.0,8.0,41.0,1518.268
1518278.0,61.0,49.0,10.0,40.0,1518.278
1518288.0,61.0,49.0,9.0,41.0,1518.288
1518298.0,61.0,51.0,13.0,39.0,1518.298
1518308.0,63.0,50.0,13.0,42.0,1518.308
1518318.0,62.0,49.0,13.0,41.0,1518.318
1518328.0,63.0,50.0,13.0,49.0,1518.328
1518338.0,63.0,51.0,15.0,49.0,1518.338
1518348.0,62.0,51.0,21.0,53.0,1518.348
1518358.0,62.0,51.0,19.0,60.0,1518.358
1518368.0,60.0,54.0,36.0,71.0,1518.368
1518379.0,59.0,56.0,41.0,104.0,1518.379
1518389.0,60.0,55.0,49.0,101.0,1518.389
1518399.0,59.0,55.0,46.0,109.0,1518.399
1518409.0,59.0,55.0,49.0,112.0,1518.409
1518419.0,60.0,56.0,44.0,112.0,1518.419
1518429.0,60.0,56.0,41.0,111.0,1518.429
1518439.0,60.0,56.0,36.0,102.0,1518.439
1518449.0,58.0,59.0,35.0,96.0,1518.449
1518459.0,59.0,60.0,34.0,88.0,1518.459
1518469.0,57.0,63.0,36.0,83.0,1518.469
1518479.0,57.0,68.0,58.0,87.0,1518.479
1518489.0,61.0,64.0,52.0,87.0,1518.489
1518499.0,60.0,69.0,51.0,84.0,1518.499
1518509.0,62.0,70.0,48.0,82.0,1518.509
1518519.0,63.0,72.0,50.0,83.0,1518.519
1518529.0,65.0,71.0,44.0,79.0,1518.529
1518539.0,66.0,73.0,40.0,74.0,1518.539
1518550.0,65.0,72.0,38.0,70.0,1518.55
1518560.0,68.0,72.0,35.0,72.0,1518.56
1518570.0,67.0,77.0,35.0,71.0,1518.57
1518580.0,69.0,85.0,41.0,68.0,1518.58
1518590.0,68.0,86.0,38.0,66.0,1518.59
1518600.0,69.0,87.0,40.0,64.0,1518.6
1518610.0,68.0,84.0,44.0,62.0,1518.61
1518620.0,70.0,82.0,42.0,63.0,1518.62
1518630.0,71.0,83.0,44.0,66.0,1518.63
1518640.0,72.0,82.0,44.0,65.0,1518.64
1518650.0,70.0,86.0,54.0,62.0,1518.65
1518660.0,73.0,86.0,62.0,64.0,1518.66
1518670.0,74.0,83.0,60.0,63.0,1518.67
1518680.0,73.0,81.0,55.0,60.0,1518.68
1518690.0,73.0,82.0,59.0,67.0,1518.69
1518700.0,73.0,80.0,55.0,65.0,1518.7
1518710.0,71.0,82.0,54.0,68.0,1518.71
1518720.0,70.0,81.0,64.0,68.0,1518.72
1518730.0,71.0,81.0,75.0,65.0,1518.73
1518740.0,72.0,82.0,73.0,64.0,1518.74
1518750.0,71.0,85.0,72.0,66.0,1518.75
1518760.0,70.0,86.0,76.0,68.0,1518.76
1518770.0,71.0,87.0,73.0,67.0,1518.77
1518780.0,68.0,89.0,64.0,67.0,1518.78
1518790.0,66.0,90.0,75.0,73.0,1518.79
1518800.0,67.0,89.0,82.0,76.0,1518.8
1518810.0,67.0,88.0,74.0,79.0,1518.81
1518820.0,67.0,87.0,65.0,78.0,1518.82
1518830.0,66.0,87.0,58.0,76.0,1518.83
1518840.0,66.0,87.0,52.0,71.0,1518.84
1518850.0,64.0,88.0,52.0,68.0,1518.85
1518860.0,64.0,92.0,75.0,69.0,1518.86
1518870.0,66.0,88.0,76.0,69.0,1518.87
1518880.0,64.0,86.0,69.0,65.0,1518.88
1518891.0,62.0,84.0,70.0,71.0,1518.891
1518901.0,62.0,82.0,70.0,71.0,1518.901
1518911.0,62.0,78.0,63.0,67.0,1518.911
1518921.0,59.0,78.0,59.0,68.0,1518.921
1518931.0,60.0,76.0,52.0,63.0,1518.931
1518941.0,59.0,75.0,55.0,64.0,1518.941
1518951.0,57.0,74.0,51.0,61.0,1518.951
1518961.0,58.0,75.0,51.0,67.0,1518.961
1518971.0,58.0,77.0,52.0,64.0,1518.971
1518981.0,57.0,77.0,54.0,64.0,1518.981
1518991.0,56.0,75.0,48.0,67.0,1518.991
1519001.0,56.0,77.0,49.0,76.0,1519.001
1519011.0,56.0,77.0,44.0,77.0,1519.011
1519021.0,59.0,77.0,41.0,75.0,1519.021
1519031.0,59.0,78.0,40.0,71.0,1519.031
1519041.0,57.0,79.0,41.0,69.0,1519.041
1519051.0,57.0,79.0,36.0,64.0,1519.051
1519062.0,58.0,80.0,50.0,68.0,1519.062
1519072.0,59.0,79.0,50.0,66.0,1519.072
1519082.0,57.0,83.0,60.0,66.0,1519.082
1519092.0,56.0,83.0,64.0,66.0,1519.092
1519102.0,56.0,80.0,60.0,65.0,1519.102
1519112.0,56.0,79.0,57.0,71.0,1519.112
1519122.0,55.0,80.0,55.0,68.0,1519.122
1519132.0,56.0,81.0,56.0,67.0,1519.132
1519142.0,56.0,79.0,50.0,64.0,1519.142
1519152.0,55.0,80.0,47.0,61.0,1519.152
1519162.0,54.0,81.0,50.0,59.0,1519.162
1519172.0,57.0,86.0,66.0,66.0,1519.172
1519182.0,56.0,83.0,69.0,68.0,1519.182
1519192.0,55.0,84.0,68.0,64.0,1519.192
1519202.0,55.0,84.0,62.0,61.0,1519.202
1519212.0,54.0,85.0,61.0,57.0,1519.212
1519222.0,55.0,86.0,63.0,58.0,1519.222
1519232.0,55.0,86.0,65.0,61.0,1519.232
1519242.0,55.0,85.0,68.0,60.0,1519.242
1519252.0,54.0,84.0,64.0,59.0,1519.252
1519262.0,54.0,83.0,72.0,61.0,1519.262
1519272.0,53.0,82.0,63.0,59.0,1519.272
1519282.0,51.0,85.0,66.0,59.0,1519.282
1519292.0,50.0,84.0,62.0,64.0,1519.292
1519302.0,49.0,85.0,61.0,64.0,1519.302
1519312.0,50.0,86.0,59.0,60.0,1519.312
1519322.0,50.0,86.0,57.0,62.0,1519.322
1519332.0,50.0,88.0,51.0,59.0,1519.332
1519342.0,49.0,88.0,46.0,56.0,1519.342
1519352.0,50.0,92.0,56.0,59.0,1519.352
1519362.0,50.0,87.0,54.0,58.0,1519.362
1519372.0,49.0,91.0,51.0,58.0,1519.372
1519382.0,49.0,91.0,56.0,59.0,1519.382
1519392.0,48.0,90.0,50.0,57.0,1519.392
1519403.0,48.0,92.0,49.0,53.0,1519.403
1519413.0,50.0,91.0,49.0,58.0,1519.413
1519423.0,49.0,89.0,45.0,58.0,1519.423
1519433.0,48.0,87.0,42.0,56.0,1519.433
1519443.0,47.0,86.0,40.0,54.0,1519.443
1519453.0,47.0,87.0,37.0,51.0,1519.453
1519463.0,46.0,86.0,33.0,48.0,1519.463
1519473.0,46.0,88.0,42.0,47.0,1519.473
1519483.0,48.0,88.0,46.0,48.0,1519.483
1519493.0,46.0,86.0,42.0,48.0,1519.493
1519503.0,47.0,86.0,38.0,46.0,1519.503
1519513.0,46.0,87.0,35.0,48.0,1519.513
1519523.0,47.0,88.0,36.0,47.0,1519.523
1519533.0,47.0,88.0,36.0,49.0,1519.533
1519543.0,47.0,86.0,38.0,48.0,1519.543
1519553.0,47.0,88.0,40.0,45.0,1519.553
1519563.0,48.0,86.0,38.0,46.0,1519.563
1519574.0,48.0,84.0,34.0,46.0,1519.574
1519584.0,46.0,87.0,32.0,46.0,1519.584
1519594.0,47.0,89.0,39.0,45.0,1519.594
1519604.0,49.0,89.0,39.0,45.0,1519.604
1519614.0,48.0,88.0,34.0,43.0,1519.614
1519624.0,47.0,88.0,32.0,41.0,1519.624
1519634.0,47.0,90.0,43.0,48.0,1519.634
1519644.0,48.0,88.0,41.0,50.0,1519.644
1519654.0,48.0,87.0,40.0,51.0,1519.654
1519664.0,47.0,86.0,36.0,48.0,1519.664
1519674.0,49.0,84.0,40.0,48.0,1519.674
1519684.0,47.0,83.0,38.0,48.0,1519.684
1519694.0,48.0,81.0,33.0,45.0,1519.694
1519704.0,48.0,82.0,31.0,44.0,1519.704
1519714.0,47.0,83.0,28.0,44.0,1519.714
1519724.0,49.0,85.0,34.0,51.0,1519.724
1519734.0,49.0,84.0,30.0,50.0,1519.734
1519744.0,50.0,82.0,27.0,48.0,1519.744
1519754.0,49.0,82.0,30.0,49.0,1519.754
1519764.0,51.0,80.0,30.0,48.0,1519.764
1519774.0,50.0,79.0,32.0,47.0,1519.774
1519784.0,51.0,77.0,33.0,45.0,1519.784
1519794.0,50.0,76.0,36.0,44.0,1519.794
1519804.0,49.0,74.0,35.0,42.0,1519.804
1519814.0,50.0,71.0,33.0,41.0,1519.814
1519824.0,49.0,71.0,30.0,40.0,1519.824
1519834.0,50.0,71.0,32.0,41.0,1519.834
1519844.0,49.0,71.0,30.0,40.0,1519.844
1519854.0,49.0,71.0,29.0,42.0,1519.854
1519864.0,51.0,71.0,35.0,45.0,1519.864
1519874.0,50.0,71.0,45.0,49.0,1519.874
1519884.0,52.0,69.0,40.0,50.0,1519.884
1519894.0,53.0,68.0,35.0,48.0,1519.894
1519904.0,54.0,65.0,31.0,45.0,1519.904
1519915.0,52.0,66.0,42.0,44.0,1519.915
1519925.0,55.0,63.0,39.0,43.0,1519.925
1519935.0,54.0,63.0,35.0,43.0,1519.935
1519945.0,54.0,62.0,37.0,42.0,1519.945
1519955.0,56.0,62.0,36.0,42.0,1519.955
1519965.0,55.0,62.0,32.0,42.0,1519.965
1519975.0,55.0,63.0,34.0,44.0,1519.975
1519985.0,54.0,65.0,34.0,44.0,1519.985
1519995.0,54.0,64.0,35.0,45.0,1519.995
1520005.0,55.0,64.0,33.0,48.0,1520.005
1520015.0,53.0,62.0,29.0,46.0,1520.015
1520025.0,54.0,63.0,26.0,45.0,1520.025
1520035.0,51.0,64.0,24.0,46.0,1520.035
1520045.0,51.0,62.0,21.0,45.0,1520.045
1520055.0,49.0,62.0,23.0,42.0,1520.055
1520065.0,50.0,66.0,47.0,46.0,1520.065
1520075.0,51.0,63.0,47.0,50.0,1520.075
1520086.0,51.0,66.0,41.0,50.0,1520.086
1520096.0,52.0,67.0,37.0,47.0,1520.096
1520106.0,49.0,68.0,34.0,45.0,1520.106
1520116.0,49.0,69.0,33.0,43.0,1520.116
1520126.0,48.0,72.0,32.0,44.0,1520.126
1520136.0,49.0,70.0,38.0,44.0,1520.136
1520146.0,49.0,69.0,34.0,46.0,1520.146
1520156.0,49.0,69.0,31.0,45.0,1520.156
1520166.0,50.0,69.0,33.0,47.0,1520.166
1520176.0,50.0,70.0,29.0,46.0,1520.176
1520186.0,49.0,69.0,26.0,43.0,1520.186
1520196.0,50.0,71.0,23.0,41.0,1520.196
1520206.0,50.0,70.0,24.0,39.0,1520.206
1520216.0,50.0,70.0,41.0,40.0,1520.216
1520226.0,52.0,69.0,40.0,41.0,1520.226
1520236.0,53.0,67.0,37.0,43.0,1520.236
1520246.0,52.0,68.0,33.0,41.0,1520.246
1520256.0,53.0,72.0,33.0,43.0,1520.256
1520266.0,53.0,71.0,38.0,45.0,1520.266
1520276.0,53.0,70.0,37.0,44.0,1520.276
1520286.0,53.0,68.0,32.0,41.0,1520.286
1520296.0,52.0,68.0,28.0,39.0,1520.296
1520306.0,53.0,67.0,28.0,39.0,1520.306
1520316.0,52.0,66.0,24.0,42.0,1520.316
1520326.0,52.0,64.0,21.0,39.0,1520.326
1520336.0,54.0,63.0,19.0,39.0,1520.336
1520346.0,54.0,66.0,21.0,40.0,1520.346
1520356.0,55.0,64.0,35.0,41.0,1520.356
1520366.0,56.0,63.0,32.0,40.0,1520.366
1520376.0,59.0,61.0,29.0,42.0,1520.376
1520386.0,58.0,61.0,26.0,42.0,1520.386
1520396.0,56.0,62.0,28.0,40.0,1520.396
1520406.0,58.0,63.0,27.0,39.0,1520.406
1520416.0,57.0,63.0,32.0,39.0,1520.416
1520427.0,57.0,61.0,29.0,37.0,1520.427
1520437.0,56.0,63.0,29.0,39.0,1520.437
1520447.0,57.0,62.0,27.0,38.0,1520.447
1520457.0,58.0,62.0,24.0,40.0,1520.457
1520467.0,57.0,65.0,28.0,43.0,1520.467
1520477.0,61.0,63.0,26.0,43.0,1520.477
1520487.0,61.0,67.0,26.0,42.0,1520.487
1520497.0,62.0,66.0,24.0,42.0,1520.497
1520507.0,63.0,67.0,21.0,42.0,1520.507
1520517.0,64.0,68.0,19.0,40.0,1520.517
1520527.0,64.0,68.0,18.0,39.0,1520.527
1520537.0,65.0,66.0,17.0,38.0,1520.537
1520547.0,68.0,65.0,15.0,37.0,1520.547
1520557.0,66.0,68.0,23.0,40.0,1520.557
1520567.0,67.0,67.0,22.0,39.0,1520.567
1520577.0,67.0,65.0,19.0,40.0,1520.577
1520587.0,67.0,64.0,19.0,39.0,1520.587
1520598.0,66.0,66.0,27.0,43.0,1520.598
1520608.0,66.0,66.0,39.0,47.0,1520.608
1520618.0,67.0,64.0,37.0,49.0,1520.618
1520628.0,65.0,63.0,31.0,50.0,1520.628
1520638.0,63.0,64.0,28.0,47.0,1520.638
1520648.0,63.0,65.0,27.0,47.0,1520.648
1520658.0,64.0,62.0,26.0,47.0,1520.658
1520668.0,62.0,63.0,26.0,45.0,1520.668
1520678.0,62.0,62.0,26.0,48.0,1520.678
1520688.0,61.0,64.0,29.0,47.0,1520.688
1520698.0,59.0,63.0,30.0,51.0,1520.698
1520708.0,60.0,60.0,26.0,50.0,1520.708
1520718.0,59.0,60.0,25.0,50.0,1520.718
1520728.0,57.0,59.0,27.0,48.0,1520.728
1520738.0,59.0,56.0,28.0,53.0,1520.738
1520748.0,60.0,55.0,23.0,54.0,1520.748
1520758.0,60.0,53.0,21.0,54.0,1520.758
1520768.0,58.0,54.0,20.0,52.0,1520.768
1520778.0,59.0,52.0,18.0,50.0,1520.778
1520788.0,57.0,55.0,22.0,48.0,1520.788
1520798.0,57.0,53.0,20.0,49.0,1520.798
1520808.0,56.0,54.0,28.0,50.0,1520.808
1520818.0,56.0,54.0,26.0,49.0,1520.818
1520828.0,55.0,54.0,28.0,45.0,1520.828
1520838.0,55.0,55.0,25.0,44.0,1520.838
1520848.0,55.0,55.0,22.0,44.0,1520.848
1520858.0,55.0,55.0,20.0,44.0,1520.858
1520868.0,53.0,58.0,25.0,44.0,1520.868
1520878.0,55.0,57.0,25.0,45.0,1520.878
1520888.0,52.0,57.0,23.0,43.0,1520.888
1520898.0,52.0,58.0,26.0,41.0,1520.898
1520908.0,52.0,60.0,24.0,41.0,1520.908
1520918.0,51.0,58.0,22.0,38.0,1520.918
1520928.0,51.0,58.0,22.0,38.0,1520.928
1520939.0,49.0,59.0,31.0,37.0,1520.939
1520949.0,50.0,57.0,30.0,37.0,1520.949
1520959.0,50.0,56.0,29.0,36.0,1520.959
1520969.0,50.0,56.0,35.0,38.0,1520.969
1520979.0,51.0,56.0,34.0,40.0,1520.979
1520989.0,51.0,55.0,33.0,39.0,1520.989
1520999.0,50.0,55.0,29.0,40.0,1520.999
1521009.0,49.0,55.0,35.0,37.0,1521.009
1521019.0,50.0,56.0,40.0,35.0,1521.019
1521029.0,50.0,55.0,34.0,35.0,1521.029
1521039.0,49.0,56.0,35.0,35.0,1521.039
1521049.0,48.0,57.0,35.0,37.0,1521.049
1521059.0,47.0,56.0,34.0,41.0,1521.059
1521069.0,46.0,55.0,34.0,41.0,1521.069
1521079.0,47.0,55.0,31.0,42.0,1521.079
1521089.0,47.0,53.0,35.0,42.0,1521.089
1521099.0,46.0,54.0,29.0,40.0,1521.099
1521110.0,46.0,52.0,29.0,40.0,1521.11
1521120.0,46.0,53.0,40.0,43.0,1521.12
1521130.0,48.0,53.0,35.0,43.0,1521.13
1521140.0,47.0,52.0,32.0,43.0,1521.14
1521150.0,47.0,53.0,44.0,43.0,1521.15
1521160.0,52.0,52.0,40.0,43.0,1521.16
1521170.0,51.0,53.0,39.0,41.0,1521.17
1521180.0,50.0,53.0,41.0,40.0,1521.18
1521190.0,51.0,53.0,38.0,43.0,1521.19
1521200.0,50.0,53.0,34.0,42.0,1521.2
1521210.0,50.0,54.0,37.0,42.0,1521.21
1521220.0,50.0,55.0,35.0,46.0,1521.22
1521230.0,51.0,53.0,35.0,46.0,1521.23
1521240.0,52.0,53.0,31.0,45.0,1521.24
1521250.0,53.0,53.0,34.0,43.0,1521.25
1521260.0,54.0,53.0,30.0,45.0,1521.26
1521270.0,53.0,55.0,32.0,43.0,1521.27
1521280.0,53.0,57.0,36.0,44.0,1521.28
1521290.0,55.0,56.0,38.0,50.0,1521.29
1521300.0,57.0,56.0,35.0,51.0,1521.3
1521310.0,55.0,58.0,36.0,51.0,1521.31
1521320.0,57.0,61.0,45.0,54.0,1521.32
1521330.0,58.0,67.0,72.0,82.0,1521.33
1521340.0,67.0,71.0,95.0,95.0,1521.34
1521350.0,71.0,69.0,100.0,143.0,1521.35
1521360.0,68.0,71.0,105.0,164.0,1521.36
1521370.0,70.0,75.0,135.0,217.0,1521.37
1521380.0,79.0,82.0,176.0,291.0,1521.38
1521390.0,101.0,97.0,219.0,371.0,1521.39
1521400.0,108.0,95.0,205.0,376.0,1521.4
1521410.0,110.0,99.0,231.0,422.0,1521.41
1521420.0,114.0,100.0,238.0,420.0,1521.42
1521430.0,112.0,100.0,210.0,416.0,1521.43
1521440.0,118.0,98.0,197.0,417.0,1521.44
1521451.0,116.0,91.0,192.0,393.0,1521.451
1521461.0,116.0,87.0,208.0,410.0,1521.461
1521471.0,121.0,88.0,211.0,399.0,1521.471
1521481.0,120.0,85.0,190.0,391.0,1521.481
1521491.0,118.0,80.0,174.0,402.0,1521.491
1521501.0,116.0,79.0,161.0,372.0,1521.501
1521511.0,113.0,75.0,143.0,359.0,1521.511
1521521.0,110.0,74.0,134.0,338.0,1521.521
1521531.0,110.0,71.0,121.0,321.0,1521.531
1521541.0,122.0,69.0,119.0,326.0,1521.541
1521551.0,124.0,69.0,109.0,300.0,1521.551
1521561.0,123.0,66.0,111.0,281.0,1521.561
1521571.0,119.0,64.0,99.0,278.0,1521.571
1521581.0,112.0,62.0,94.0,267.0,1521.581
1521591.0,107.0,59.0,88.0,251.0,1521.591
1521601.0,100.0,58.0,86.0,246.0,1521.601
1521611.0,99.0,56.0,79.0,232.0,1521.611
1521622.0,94.0,55.0,89.0,214.0,1521.622
1521632.0,91.0,55.0,95.0,214.0,1521.632
1521642.0,90.0,55.0,87.0,213.0,1521.642
1521652.0,87.0,54.0,86.0,203.0,1521.652
1521662.0,87.0,55.0,85.0,198.0,1521.662
1521672.0,84.0,53.0,96.0,206.0,1521.672
1521682.0,83.0,53.0,90.0,198.0,1521.682
1521692.0,82.0,52.0,83.0,192.0,1521.692
1521702.0,79.0,51.0,87.0,180.0,1521.702
1521712.0,79.0,50.0,82.0,176.0,1521.712
1521722.0,77.0,50.0,79.0,171.0,1521.722
1521732.0,79.0,48.0,83.0,167.0,1521.732
1521742.0,78.0,49.0,80.0,172.0,1521.742
1521752.0,77.0,48.0,78.0,172.0,1521.752
1521762.0,75.0,49.0,72.0,176.0,1521.762
1521772.0,74.0,48.0,73.0,167.0,1521.772
1521782.0,75.0,49.0,76.0,163.0,1521.782
1521792.0,73.0,48.0,73.0,156.0,1521.792
1521802.0,73.0,47.0,70.0,158.0,1521.802
1521812.0,71.0,46.0,60.0,154.0,1521.812
1521822.0,71.0,45.0,62.0,154.0,1521.822
1521832.0,69.0,47.0,69.0,160.0,1521.832
1521842.0,69.0,49.0,65.0,163.0,1521.842
1521852.0,69.0,50.0,59.0,159.0,1521.852
1521862.0,68.0,50.0,61.0,156.0,1521.862
1521872.0,67.0,49.0,57.0,149.0,1521.872
1521882.0,64.0,49.0,50.0,143.0,1521.882
1521892.0,63.0,48.0,46.0,144.0,1521.892
1521902.0,63.0,49.0,53.0,140.0,1521.902
1521912.0,62.0,48.0,59.0,144.0,1521.912
1521922.0,64.0,48.0,64.0,149.0,1521.922
1521932.0,62.0,48.0,65.0,139.0,1521.932
1521942.0,62.0,47.0,57.0,129.0,1521.942
1521952.0,62.0,47.0,52.0,129.0,1521.952
1521963.0,62.0,45.0,47.0,143.0,1521.963
1521973.0,63.0,47.0,62.0,138.0,1521.973
1521983.0,61.0,47.0,75.0,132.0,1521.983
1521993.0,62.0,48.0,68.0,130.0,1521.993
1522003.0,61.0,48.0,65.0,131.0,1522.003
1522013.0,63.0,49.0,58.0,129.0,1522.013
1522023.0,63.0,48.0,53.0,138.0,1522.023
1522033.0,61.0,48.0,58.0,142.0,1522.033
1522043.0,63.0,50.0,63.0,148.0,1522.043
1522053.0,62.0,49.0,56.0,157.0,1522.053
1522063.0,63.0,48.0,55.0,165.0,1522.063
1522073.0,63.0,47.0,50.0,159.0,1522.073
1522083.0,62.0,47.0,51.0,170.0,1522.083
1522093.0,62.0,48.0,57.0,168.0,1522.093
1522103.0,62.0,46.0,69.0,153.0,1522.103
1522113.0,62.0,45.0,62.0,159.0,1522.113
1522123.0,62.0,45.0,60.0,160.0,1522.123
1522134.0,61.0,44.0,57.0,159.0,1522.134
1522144.0,61.0,47.0,59.0,160.0,1522.144
1522154.0,64.0,48.0,64.0,148.0,1522.154
1522164.0,64.0,47.0,66.0,142.0,1522.164
1522174.0,63.0,46.0,58.0,156.0,1522.174
1522184.0,60.0,45.0,57.0,155.0,1522.184
1522194.0,60.0,46.0,58.0,156.0,1522.194
1522204.0,59.0,44.0,57.0,153.0,1522.204
1522214.0,57.0,45.0,65.0,148.0,1522.214
1522224.0,59.0,45.0,68.0,141.0,1522.224
1522234.0,58.0,45.0,60.0,139.0,1522.234
1522244.0,58.0,44.0,52.0,137.0,1522.244
1522254.0,61.0,43.0,47.0,138.0,1522.254
1522264.0,61.0,43.0,45.0,138.0,1522.264
1522274.0,61.0,42.0,48.0,157.0,1522.274
1522284.0,61.0,43.0,47.0,154.0,1522.284
1522294.0,61.0,43.0,55.0,151.0,1522.294
1522304.0,60.0,44.0,59.0,156.0,1522.304
1522314.0,62.0,44.0,53.0,157.0,1522.314
1522324.0,62.0,44.0,54.0,161.0,1522.324
1522334.0,61.0,43.0,49.0,155.0,1522.334
1522344.0,63.0,46.0,55.0,151.0,1522.344
1522354.0,64.0,45.0,57.0,148.0,1522.354
1522364.0,66.0,43.0,51.0,133.0,1522.364
1522374.0,66.0,42.0,46.0,126.0,1522.374
1522384.0,65.0,41.0,40.0,136.0,1522.384
1522394.0,66.0,41.0,37.0,135.0,1522.394
1522404.0,66.0,41.0,37.0,139.0,1522.404
1522414.0,67.0,40.0,37.0,140.0,1522.414
1522424.0,65.0,41.0,49.0,138.0,1522.424
1522434.0,66.0,41.0,49.0,143.0,1522.434
1522444.0,66.0,41.0,49.0,141.0,1522.444
1522454.0,64.0,42.0,47.0,133.0,1522.454
1522464.0,63.0,43.0,42.0,124.0,1522.464
1522475.0,62.0,45.0,39.0,123.0,1522.475
1522485.0,62.0,44.0,35.0,112.0,1522.485
1522495.0,61.0,47.0,41.0,124.0,1522.495
1522505.0,61.0,48.0,39.0,125.0,1522.505
1522515.0,61.0,49.0,44.0,123.0,1522.515
1522525.0,60.0,50.0,46.0,127.0,1522.525
1522535.0,60.0,47.0,41.0,123.0,1522.535
1522545.0,59.0,48.0,43.0,124.0,1522.545
1522555.0,59.0,48.0,38.0,122.0,1522.555
1522565.0,60.0,47.0,36.0,141.0,1522.565
1522575.0,60.0,47.0,36.0,132.0,1522.575
1522585.0,60.0,50.0,39.0,124.0,1522.585
1522595.0,58.0,50.0,39.0,125.0,1522.595
1522605.0,59.0,49.0,37.0,128.0,1522.605
1522615.0,57.0,51.0,33.0,126.0,1522.615
1522625.0,57.0,50.0,34.0,124.0,1522.625
1522635.0,56.0,50.0,31.0,120.0,1522.635
1522646.0,55.0,51.0,28.0,114.0,1522.646
1522656.0,54.0,52.0,27.0,107.0,1522.656
1522666.0,53.0,52.0,28.0,111.0,1522.666
1522676.0,53.0,51.0,25.0,109.0,1522.676
1522686.0,54.0,56.0,31.0,111.0,1522.686
1522696.0,53.0,52.0,35.0,112.0,1522.696
1522706.0,53.0,51.0,32.0,121.0,1522.706
1522716.0,52.0,51.0,30.0,114.0,1522.716
1522726.0,52.0,50.0,28.0,103.0,1522.726
1522736.0,50.0,51.0,24.0,101.0,1522.736
1522746.0,51.0,51.0,23.0,97.0,1522.746
1522756.0,50.0,51.0,20.0,97.0,1522.756
1522766.0,49.0,51.0,19.0,88.0,1522.766
1522776.0,49.0,52.0,16.0,83.0,1522.776
1522786.0,49.0,53.0,17.0,82.0,1522.786
1522796.0,50.0,54.0,16.0,91.0,1522.796
1522806.0,49.0,54.0,40.0,92.0,1522.806
1522816.0,51.0,56.0,47.0,97.0,1522.816
1522826.0,52.0,56.0,41.0,101.0,1522.826
1522836.0,52.0,55.0,35.0,95.0,1522.836
1522846.0,51.0,57.0,32.0,98.0,1522.846
1522856.0,51.0,56.0,35.0,101.0,1522.856
1522866.0,52.0,55.0,32.0,104.0,1522.866
1522876.0,50.0,57.0,32.0,106.0,1522.876
1522886.0,54.0,56.0,30.0,105.0,1522.886
1522896.0,52.0,59.0,31.0,104.0,1522.896
1522906.0,54.0,58.0,36.0,103.0,1522.906
1522916.0,54.0,58.0,33.0,101.0,1522.916
1522926.0,53.0,58.0,29.0,100.0,1522.926
1522936.0,54.0,58.0,28.0,95.0,1522.936
1522946.0,52.0,59.0,33.0,96.0,1522.946
1522956.0,53.0,59.0,31.0,91.0,1522.956
1522966.0,52.0,60.0,27.0,90.0,1522.966
1522976.0,52.0,63.0,30.0,89.0,1522.976
1522987.0,54.0,61.0,33.0,92.0,1522.987
1522997.0,53.0,62.0,39.0,107.0,1522.997
1523007.0,53.0,62.0,36.0,103.0,1523.007
1523017.0,52.0,64.0,32.0,100.0,1523.017
1523027.0,51.0,65.0,28.0,94.0,1523.027
1523037.0,50.0,69.0,26.0,95.0,1523.037
1523047.0,50.0,68.0,23.0,111.0,1523.047
1523057.0,50.0,68.0,26.0,113.0,1523.057
1523067.0,49.0,69.0,36.0,109.0,1523.067
1523077.0,51.0,68.0,34.0,108.0,1523.077
1523087.0,50.0,69.0,40.0,104.0,1523.087
1523097.0,50.0,69.0,46.0,100.0,1523.097
1523107.0,51.0,68.0,40.0,97.0,1523.107
1523117.0,49.0,69.0,37.0,92.0,1523.117
1523127.0,50.0,67.0,34.0,99.0,1523.127
1523137.0,49.0,66.0,32.0,98.0,1523.137
1523147.0,50.0,66.0,34.0,100.0,1523.147
1523158.0,51.0,64.0,32.0,97.0,1523.158
1523168.0,51.0,62.0,29.0,94.0,1523.168
1523178.0,51.0,63.0,25.0,92.0,1523.178
1523188.0,51.0,61.0,31.0,92.0,1523.188
1523198.0,51.0,58.0,28.0,90.0,1523.198
1523208.0,51.0,58.0,29.0,89.0,1523.208
1523218.0,51.0,59.0,36.0,85.0,1523.218
1523228.0,51.0,59.0,34.0,92.0,1523.228
1523238.0,52.0,61.0,46.0,97.0,1523.238
1523248.0,51.0,61.0,40.0,100.0,1523.248
1523258.0,51.0,62.0,35.0,102.0,1523.258
1523268.0,52.0,63.0,31.0,102.0,1523.268
1523278.0,52.0,63.0,28.0,104.0,1523.278
1523288.0,53.0,62.0,28.0,98.0,1523.288
1523298.0,52.0,63.0,38.0,104.0,1523.298
1523308.0,54.0,60.0,40.0,109.0,1523.308
1523318.0,54.0,60.0,43.0,111.0,1523.318
1523328.0,55.0,58.0,43.0,108.0,1523.328
1523338.0,56.0,54.0,38.0,102.0,1523.338
1523348.0,57.0,55.0,33.0,95.0,1523.348
1523358.0,59.0,54.0,31.0,103.0,1523.358
1523368.0,59.0,54.0,28.0,99.0,1523.368
1523378.0,59.0,53.0,27.0,92.0,1523.378
1523388.0,59.0,53.0,23.0,96.0,1523.388
1523398.0,58.0,52.0,20.0,99.0,1523.398
1523408.0,59.0,54.0,29.0,98.0,1523.408
1523418.0,59.0,53.0,25.0,93.0,1523.418
1523428.0,59.0,54.0,23.0,91.0,1523.428
1523438.0,59.0,56.0,22.0,93.0,1523.438
1523448.0,58.0,56.0,20.0,84.0,1523.448
1523458.0,60.0,56.0,18.0,83.0,1523.458
1523468.0,58.0,57.0,16.0,79.0,1523.468
1523478.0,58.0,56.0,23.0,106.0,1523.478
1523488.0,57.0,57.0,28.0,100.0,1523.488
1523499.0,58.0,56.0,31.0,98.0,1523.499
1523509.0,59.0,56.0,29.0,93.0,1523.509
1523519.0,58.0,56.0,26.0,91.0,1523.519
1523529.0,60.0,55.0,23.0,83.0,1523.529
1523539.0,59.0,57.0,19.0,81.0,1523.539
1523549.0,58.0,54.0,18.0,77.0,1523.549
1523559.0,57.0,58.0,17.0,84.0,1523.559
1523569.0,55.0,59.0,19.0,80.0,1523.569
1523579.0,55.0,61.0,28.0,77.0,1523.579
1523589.0,54.0,61.0,30.0,77.0,1523.589
1523599.0,54.0,63.0,36.0,75.0,1523.599
1523609.0,53.0,64.0,31.0,84.0,1523.609
1523619.0,54.0,62.0,28.0,87.0,1523.619
1523629.0,55.0,65.0,25.0,89.0,1523.629
1523639.0,54.0,65.0,22.0,82.0,1523.639
1523649.0,53.0,68.0,21.0,83.0,1523.649
1523659.0,54.0,68.0,21.0,82.0,1523.659
1523670.0,55.0,70.0,28.0,94.0,1523.67
1523680.0,54.0,72.0,34.0,90.0,1523.68
1523690.0,53.0,70.0,29.0,85.0,1523.69
1523700.0,53.0,72.0,27.0,98.0,1523.7
1523710.0,51.0,71.0,27.0,96.0,1523.71
1523720.0,52.0,71.0,29.0,94.0,1523.72
1523730.0,52.0,71.0,34.0,96.0,1523.73
1523740.0,54.0,71.0,31.0,93.0,1523.74
1523750.0,53.0,71.0,27.0,88.0,1523.75
1523760.0,52.0,70.0,26.0,82.0,1523.76
1523770.0,53.0,72.0,24.0,89.0,1523.77
1523780.0,53.0,71.0,21.0,93.0,1523.78
1523790.0,56.0,71.0,23.0,91.0,1523.79
1523800.0,55.0,75.0,28.0,92.0,1523.8
1523810.0,54.0,76.0,29.0,95.0,1523.81
1523820.0,55.0,74.0,27.0,96.0,1523.82
1523830.0,55.0,74.0,24.0,98.0,1523.83
1523840.0,53.0,75.0,21.0,95.0,1523.84
1523850.0,53.0,77.0,19.0,90.0,1523.85
1523860.0,51.0,77.0,17.0,84.0,1523.86
1523870.0,49.0,80.0,18.0,77.0,1523.87
1523880.0,48.0,79.0,18.0,79.0,1523.88
1523890.0,47.0,82.0,16.0,87.0,1523.89
1523900.0,47.0,84.0,20.0,86.0,1523.9
1523910.0,47.0,81.0,20.0,88.0,1523.91
1523920.0,45.0,81.0,20.0,88.0,1523.92
1523930.0,47.0,80.0,18.0,85.0,1523.93
1523940.0,46.0,79.0,16.0,86.0,1523.94
1523950.0,47.0,80.0,21.0,83.0,1523.95
1523960.0,47.0,79.0,22.0,87.0,1523.96
1523970.0,47.0,80.0,23.0,82.0,1523.97
1523980.0,47.0,82.0,22.0,84.0,1523.98
1523990.0,47.0,80.0,25.0,80.0,1523.99
1524000.0,49.0,80.0,24.0,78.0,1524.0
1524011.0,48.0,82.0,24.0,85.0,1524.011
1524021.0,48.0,85.0,29.0,83.0,1524.021
1524031.0,50.0,83.0,29.0,84.0,1524.031
1524041.0,51.0,82.0,27.0,92.0,1524.041
1524051.0,52.0,83.0,30.0,87.0,1524.051
1524061.0,51.0,83.0,26.0,86.0,1524.061
1524071.0,51.0,82.0,25.0,81.0,1524.071
1524081.0,49.0,84.0,21.0,83.0,1524.081
1524091.0,49.0,83.0,19.0,84.0,1524.091
1524101.0,48.0,83.0,19.0,85.0,1524.101
1524111.0,48.0,83.0,22.0,80.0,1524.111
1524121.0,49.0,82.0,25.0,87.0,1524.121
1524131.0,51.0,82.0,21.0,85.0,1524.131
1524141.0,52.0,83.0,29.0,83.0,1524.141
1524151.0,50.0,83.0,26.0,81.0,1524.151
1524161.0,51.0,81.0,23.0,77.0,1524.161
1524171.0,53.0,81.0,19.0,77.0,1524.171
1524182.0,52.0,80.0,18.0,80.0,1524.182
1524192.0,52.0,82.0,24.0,85.0,1524.192
1524202.0,53.0,82.0,25.0,91.0,1524.202
1524212.0,54.0,82.0,21.0,89.0,1524.212
1524222.0,53.0,81.0,25.0,88.0,1524.222
1524232.0,53.0,80.0,25.0,89.0,1524.232
1524242.0,52.0,80.0,21.0,83.0,1524.242
1524252.0,51.0,79.0,19.0,79.0,1524.252
1524262.0,53.0,77.0,18.0,76.0,1524.262
1524272.0,54.0,78.0,16.0,74.0,1524.272
1524282.0,53.0,79.0,17.0,79.0,1524.282
1524292.0,54.0,78.0,29.0,82.0,1524.292
1524302.0,55.0,77.0,32.0,81.0,1524.302
1524312.0,57.0,74.0,31.0,84.0,1524.312
1524322.0,58.0,73.0,28.0,78.0,1524.322
1524332.0,58.0,72.0,24.0,76.0,1524.332
1524342.0,58.0,75.0,21.0,78.0,1524.342
1524352.0,56.0,76.0,32.0,82.0,1524.352
1524362.0,56.0,77.0,44.0,86.0,1524.362
1524372.0,57.0,73.0,40.0,81.0,1524.372
1524382.0,57.0,74.0,37.0,81.0,1524.382
1524392.0,56.0,74.0,32.0,80.0,1524.392
1524402.0,56.0,73.0,29.0,77.0,1524.402
1524412.0,54.0,76.0,25.0,81.0,1524.412
1524422.0,56.0,74.0,23.0,80.0,1524.422
1524432.0,56.0,77.0,25.0,77.0,1524.432
1524442.0,55.0,79.0,34.0,74.0,1524.442
1524452.0,55.0,78.0,32.0,72.0,1524.452
1524462.0,53.0,78.0,30.0,78.0,1524.462
1524472.0,54.0,76.0,28.0,79.0,1524.472
1524482.0,53.0,77.0,25.0,77.0,1524.482
1524492.0,53.0,77.0,25.0,72.0,1524.492
1524502.0,53.0,75.0,21.0,73.0,1524.502
1524512.0,54.0,75.0,18.0,70.0,1524.512
1524523.0,54.0,77.0,38.0,77.0,1524.523
1524533.0,55.0,73.0,35.0,79.0,1524.533
1524543.0,56.0,71.0,31.0,77.0,1524.543
1524553.0,56.0,70.0,27.0,74.0,1524.553
1524563.0,55.0,70.0,27.0,73.0,1524.563
1524573.0,56.0,70.0,28.0,74.0,1524.573
1524583.0,58.0,69.0,24.0,73.0,1524.583
1524593.0,59.0,69.0,23.0,72.0,1524.593
1524603.0,59.0,69.0,34.0,70.0,1524.603
1524613.0,61.0,68.0,31.0,68.0,1524.613
1524623.0,62.0,69.0,26.0,64.0,1524.623
1524633.0,63.0,69.0,26.0,64.0,1524.633
1524643.0,63.0,68.0,23.0,66.0,1524.643
1524653.0,65.0,67.0,20.0,68.0,1524.653
1524663.0,66.0,67.0,19.0,65.0,1524.663
1524673.0,67.0,67.0,18.0,69.0,1524.673
1524683.0,67.0,65.0,21.0,72.0,1524.683
1524694.0,66.0,67.0,25.0,80.0,1524.694
1524704.0,70.0,62.0,23.0,75.0,1524.704
1524714.0,70.0,60.0,22.0,74.0,1524.714
1524724.0,72.0,57.0,20.0,76.0,1524.724
1524734.0,73.0,56.0,22.0,74.0,1524.734
1524744.0,73.0,55.0,20.0,78.0,1524.744
1524754.0,72.0,54.0,20.0,71.0,1524.754
1524764.0,72.0,55.0,24.0,69.0,1524.764
1524774.0,70.0,54.0,33.0,76.0,1524.774
1524784.0,72.0,51.0,32.0,73.0,1524.784
1524794.0,69.0,52.0,28.0,80.0,1524.794
1524804.0,70.0,51.0,26.0,84.0,1524.804
1524814.0,68.0,51.0,23.0,79.0,1524.814
1524824.0,67.0,48.0,24.0,76.0,1524.824
1524834.0,66.0,48.0,34.0,79.0,1524.834
1524844.0,64.0,50.0,34.0,78.0,1524.844
1524854.0,63.0,48.0,32.0,76.0,1524.854
1524864.0,63.0,50.0,27.0,74.0,1524.864
1524874.0,63.0,48.0,24.0,76.0,1524.874
1524884.0,62.0,49.0,26.0,73.0,1524.884
1524894.0,62.0,48.0,28.0,72.0,1524.894
1524904.0,61.0,49.0,31.0,72.0,1524.904
1524914.0,61.0,47.0,28.0,69.0,1524.914
1524924.0,61.0,46.0,25.0,70.0,1524.924
1524934.0,59.0,46.0,24.0,69.0,1524.934
1524944.0,58.0,46.0,27.0,80.0,1524.944
1524954.0,58.0,47.0,24.0,77.0,1524.954
1524964.0,56.0,48.0,27.0,75.0,1524.964
1524974.0,58.0,49.0,28.0,73.0,1524.974
1524984.0,59.0,48.0,25.0,74.0,1524.984
1524994.0,59.0,48.0,22.0,71.0,1524.994
1525004.0,58.0,49.0,20.0,72.0,1525.004
1525014.0,58.0,49.0,21.0,71.0,1525.014
1525024.0,56.0,50.0,20.0,68.0,1525.024
1525035.0,57.0,49.0,19.0,67.0,1525.035
1525045.0,56.0,50.0,17.0,61.0,1525.045
1525055.0,56.0,53.0,27.0,65.0,1525.055
1525065.0,57.0,51.0,28.0,70.0,1525.065
1525075.0,56.0,51.0,26.0,75.0,1525.075
1525085.0,57.0,51.0,24.0,72.0,1525.085
1525095.0,55.0,51.0,21.0,74.0,1525.095
1525105.0,55.0,51.0,25.0,73.0,1525.105
1525115.0,57.0,50.0,24.0,70.0,1525.115
1525125.0,56.0,49.0,22.0,74.0,1525.125
1525135.0,56.0,47.0,20.0,72.0,1525.135
1525145.0,55.0,50.0,24.0,71.0,1525.145
1525155.0,57.0,48.0,25.0,82.0,1525.155
1525165.0,56.0,47.0,21.0,79.0,1525.165
1525175.0,57.0,46.0,19.0,76.0,1525.175
1525185.0,57.0,45.0,17.0,72.0,1525.185
1525195.0,56.0,45.0,15.0,69.0,1525.195
1525206.0,57.0,44.0,17.0,75.0,1525.206
1525216.0,56.0,44.0,18.0,74.0,1525.216
1525226.0,56.0,46.0,27.0,77.0,1525.226
1525236.0,56.0,46.0,32.0,81.0,1525.236
1525246.0,54.0,47.0,31.0,75.0,1525.246
1525256.0,54.0,47.0,27.0,73.0,1525.256
1525266.0,53.0,48.0,25.0,76.0,1525.266
1525276.0,53.0,46.0,27.0,73.0,1525.276
1525286.0,52.0,47.0,23.0,71.0,1525.286
1525296.0,53.0,48.0,21.0,65.0,1525.296
1525306.0,54.0,48.0,23.0,76.0,1525.306
1525316.0,55.0,50.0,33.0,74.0,1525.316
1525326.0,57.0,47.0,32.0,74.0,1525.326
1525336.0,58.0,47.0,28.0,75.0,1525.336
1525346.0,58.0,47.0,30.0,75.0,1525.346
1525356.0,59.0,46.0,29.0,71.0,1525.356
1525366.0,60.0,49.0,36.0,74.0,1525.366
1525376.0,60.0,47.0,32.0,70.0,1525.376
1525386.0,61.0,48.0,26.0,68.0,1525.386
1525396.0,61.0,48.0,25.0,67.0,1525.396
1525406.0,62.0,47.0,21.0,63.0,1525.406
1525416.0,61.0,48.0,21.0,65.0,1525.416
1525426.0,62.0,47.0,18.0,65.0,1525.426
1525436.0,62.0,48.0,17.0,64.0,1525.436
1525446.0,61.0,50.0,34.0,72.0,1525.446
1525456.0,61.0,50.0,32.0,67.0,1525.456
1525466.0,61.0,51.0,35.0,68.0,1525.466
1525476.0,61.0,52.0,31.0,68.0,1525.476
1525486.0,63.0,52.0,34.0,71.0,1525.486
1525496.0,64.0,51.0,29.0,67.0,1525.496
1525506.0,63.0,53.0,28.0,70.0,1525.506
1525516.0,65.0,53.0,35.0,74.0,1525.516
1525526.0,64.0,53.0,34.0,74.0,1525.526
1525536.0,64.0,50.0,32.0,81.0,1525.536
1525547.0,61.0,51.0,32.0,81.0,1525.547
1525557.0,62.0,49.0,30.0,78.0,1525.557
1525567.0,62.0,49.0,27.0,87.0,1525.567
1525577.0,61.0,51.0,29.0,85.0,1525.577
1525587.0,62.0,50.0,27.0,99.0,1525.587
1525597.0,62.0,50.0,24.0,95.0,1525.597
1525607.0,62.0,49.0,23.0,89.0,1525.607
1525617.0,62.0,50.0,21.0,82.0,1525.617
1525627.0,63.0,50.0,20.0,79.0,1525.627
1525637.0,62.0,54.0,29.0,80.0,1525.637
1525647.0,61.0,52.0,34.0,86.0,1525.647
1525657.0,63.0,51.0,33.0,85.0,1525.657
1525667.0,63.0,53.0,29.0,81.0,1525.667
1525677.0,63.0,51.0,25.0,74.0,1525.677
1525687.0,63.0,52.0,24.0,73.0,1525.687
1525697.0,61.0,51.0,23.0,71.0,1525.697
1525707.0,60.0,52.0,20.0,74.0,1525.707
1525718.0,58.0,53.0,18.0,71.0,1525.718
1525728.0,60.0,51.0,27.0,73.0,1525.728
1525738.0,59.0,51.0,25.0,80.0,1525.738
1525748.0,58.0,50.0,23.0,82.0,1525.748
1525758.0,59.0,49.0,20.0,80.0,1525.758
1525768.0,59.0,50.0,19.0,75.0,1525.768
1525778.0,58.0,53.0,29.0,73.0,1525.778
1525788.0,56.0,54.0,30.0,72.0,1525.788
1525798.0,57.0,54.0,28.0,69.0,1525.798
1525808.0,55.0,52.0,24.0,67.0,1525.808
1525818.0,54.0,52.0,22.0,68.0,1525.818
1525828.0,53.0,50.0,19.0,68.0,1525.828
1525838.0,52.0,48.0,19.0,64.0,1525.838
1525848.0,53.0,48.0,23.0,68.0,1525.848
1525858.0,52.0,51.0,31.0,68.0,1525.858
1525868.0,53.0,49.0,29.0,67.0,1525.868
1525878.0,51.0,47.0,27.0,67.0,1525.878
1525888.0,51.0,46.0,24.0,63.0,1525.888
1525898.0,50.0,46.0,22.0,60.0,1525.898
1525908.0,49.0,46.0,19.0,56.0,1525.908
1525918.0,49.0,46.0,18.0,55.0,1525.918
1525928.0,47.0,48.0,15.0,54.0,1525.928
1525938.0,48.0,48.0,16.0,54.0,1525.938
1525948.0,48.0,51.0,27.0,65.0,1525.948
1525958.0,47.0,50.0,25.0,62.0,1525.958
1525968.0,47.0,50.0,23.0,65.0,1525.968
1525978.0,46.0,51.0,21.0,64.0,1525.978
1525988.0,47.0,50.0,20.0,60.0,1525.988
1525998.0,46.0,51.0,22.0,59.0,1525.998
1526008.0,48.0,51.0,22.0,57.0,1526.008
1526018.0,46.0,51.0,18.0,62.0,1526.018
1526028.0,47.0,53.0,22.0,62.0,1526.028
1526038.0,47.0,52.0,20.0,64.0,1526.038
1526048.0,47.0,52.0,20.0,65.0,1526.048
1526059.0,46.0,52.0,20.0,61.0,1526.059
1526069.0,46.0,55.0,26.0,62.0,1526.069
1526079.0,47.0,54.0,30.0,72.0,1526.079
1526089.0,46.0,54.0,27.0,76.0,1526.089
1526099.0,46.0,55.0,24.0,73.0,1526.099
1526109.0,46.0,53.0,26.0,75.0,1526.109
1526119.0,46.0,53.0,22.0,70.0,1526.119
1526129.0,46.0,53.0,20.0,64.0,1526.129
1526139.0,45.0,53.0,18.0,62.0,1526.139
1526149.0,46.0,54.0,18.0,64.0,1526.149
1526159.0,45.0,55.0,25.0,70.0,1526.159
1526169.0,45.0,56.0,25.0,69.0,1526.169
1526179.0,45.0,57.0,23.0,65.0,1526.179
1526189.0,45.0,56.0,21.0,66.0,1526.189
1526199.0,45.0,55.0,19.0,61.0,1526.199
1526209.0,44.0,56.0,21.0,60.0,1526.209
1526219.0,44.0,57.0,23.0,61.0,1526.219
1526230.0,44.0,58.0,21.0,57.0,1526.23
1526240.0,45.0,56.0,26.0,54.0,1526.24
1526250.0,44.0,57.0,23.0,64.0,1526.25
1526260.0,44.0,58.0,23.0,65.0,1526.26
1526270.0,47.0,58.0,21.0,60.0,1526.27
1526280.0,47.0,58.0,21.0,59.0,1526.28
1526290.0,47.0,58.0,20.0,65.0,1526.29
1526300.0,48.0,56.0,18.0,60.0,1526.3
1526310.0,49.0,57.0,23.0,60.0,1526.31
1526320.0,50.0,55.0,26.0,62.0,1526.32
1526330.0,53.0,55.0,24.0,64.0,1526.33
1526340.0,54.0,54.0,21.0,59.0,1526.34
1526350.0,54.0,53.0,20.0,58.0,1526.35
1526360.0,55.0,54.0,19.0,54.0,1526.36
1526370.0,55.0,54.0,17.0,55.0,1526.37
1526380.0,54.0,56.0,16.0,51.0,1526.38
1526390.0,54.0,55.0,14.0,52.0,1526.39
1526400.0,53.0,57.0,23.0,55.0,1526.4
1526410.0,53.0,58.0,24.0,53.0,1526.41
1526420.0,54.0,56.0,21.0,50.0,1526.42
1526430.0,53.0,57.0,23.0,51.0,1526.43
1526440.0,53.0,56.0,24.0,54.0,1526.44
1526450.0,53.0,56.0,24.0,53.0,1526.45
1526460.0,52.0,52.0,22.0,51.0,1526.46
1526470.0,53.0,51.0,20.0,53.0,1526.47
1526480.0,52.0,49.0,18.0,52.0,1526.48
1526490.0,52.0,50.0,23.0,49.0,1526.49
1526500.0,51.0,48.0,25.0,49.0,1526.5
1526510.0,51.0,48.0,27.0,53.0,1526.51
1526520.0,51.0,47.0,25.0,54.0,1526.52
1526530.0,51.0,45.0,27.0,58.0,1526.53
1526540.0,51.0,45.0,25.0,59.0,1526.54
1526550.0,51.0,45.0,27.0,57.0,1526.55
1526560.0,51.0,45.0,26.0,57.0,1526.56
1526571.0,50.0,45.0,23.0,61.0,1526.571
1526581.0,51.0,45.0,22.0,59.0,1526.581
1526591.0,48.0,47.0,19.0,56.0,1526.591
1526601.0,48.0,48.0,18.0,60.0,1526.601
1526611.0,47.0,49.0,24.0,62.0,1526.611
1526621.0,47.0,49.0,25.0,61.0,1526.621
1526631.0,48.0,50.0,28.0,66.0,1526.631
1526641.0,47.0,50.0,32.0,68.0,1526.641
1526651.0,48.0,47.0,29.0,64.0,1526.651
1526661.0,48.0,47.0,30.0,65.0,1526.661
1526671.0,47.0,45.0,28.0,62.0,1526.671
1526681.0,46.0,45.0,28.0,64.0,1526.681
1526691.0,47.0,43.0,24.0,62.0,1526.691
1526701.0,49.0,42.0,22.0,61.0,1526.701
1526711.0,50.0,42.0,20.0,61.0,1526.711
1526721.0,51.0,43.0,33.0,64.0,1526.721
1526731.0,53.0,43.0,31.0,63.0,1526.731
1526742.0,54.0,41.0,31.0,65.0,1526.742
1526752.0,53.0,42.0,29.0,67.0,1526.752
1526762.0,53.0,42.0,26.0,62.0,1526.762
1526772.0,54.0,41.0,23.0,61.0,1526.772
1526782.0,53.0,42.0,24.0,66.0,1526.782
1526792.0,53.0,45.0,26.0,64.0,1526.792
1526802.0,55.0,45.0,24.0,62.0,1526.802
1526812.0,54.0,43.0,22.0,63.0,1526.812
1526822.0,54.0,44.0,20.0,62.0,1526.822
1526832.0,53.0,45.0,21.0,66.0,1526.832
1526842.0,54.0,43.0,18.0,63.0,1526.842
1526852.0,52.0,45.0,16.0,59.0,1526.852
1526862.0,53.0,47.0,16.0,56.0,1526.862
1526872.0,52.0,48.0,14.0,57.0,1526.872
1526882.0,52.0,48.0,13.0,56.0,1526.882
1526892.0,52.0,47.0,11.0,58.0,1526.892
1526902.0,51.0,50.0,14.0,57.0,1526.902
1526912.0,53.0,49.0,15.0,57.0,1526.912
1526922.0,53.0,49.0,15.0,58.0,1526.922
1526932.0,54.0,49.0,16.0,57.0,1526.932
1526942.0,53.0,49.0,15.0,56.0,1526.942
1526952.0,54.0,48.0,14.0,54.0,1526.952
1526962.0,54.0,51.0,25.0,52.0,1526.962
1526972.0,55.0,52.0,29.0,55.0,1526.972
1526982.0,56.0,51.0,25.0,55.0,1526.982
1526992.0,55.0,51.0,23.0,53.0,1526.992
1527002.0,57.0,51.0,21.0,51.0,1527.002
1527012.0,55.0,52.0,19.0,56.0,1527.012
1527022.0,55.0,51.0,17.0,56.0,1527.022
1527032.0,56.0,49.0,15.0,55.0,1527.032
1527042.0,55.0,47.0,17.0,53.0,1527.042
1527052.0,55.0,49.0,29.0,55.0,1527.052
1527062.0,54.0,48.0,25.0,58.0,1527.062
1527072.0,56.0,47.0,22.0,57.0,1527.072
1527083.0,54.0,47.0,20.0,57.0,1527.083
1527093.0,55.0,47.0,19.0,54.0,1527.093
1527103.0,54.0,48.0,17.0,57.0,1527.103
1527113.0,54.0,47.0,15.0,54.0,1527.113
1527123.0,55.0,46.0,14.0,55.0,1527.123
1527133.0,55.0,49.0,21.0,58.0,1527.133
1527143.0,55.0,48.0,29.0,54.0,1527.143
1527153.0,55.0,47.0,25.0,54.0,1527.153
1527163.0,54.0,47.0,25.0,53.0,1527.163
1527173.0,55.0,47.0,25.0,56.0,1527.173
1527183.0,55.0,47.0,23.0,54.0,1527.183
1527193.0,57.0,46.0,22.0,55.0,1527.193
1527203.0,57.0,46.0,19.0,58.0,1527.203
1527213.0,59.0,45.0,18.0,56.0,1527.213
1527223.0,59.0,49.0,30.0,64.0,1527.223
1527233.0,59.0,47.0,27.0,63.0,1527.233
1527243.0,60.0,45.0,24.0,63.0,1527.243
1527254.0,60.0,44.0,22.0,65.0,1527.254
1527264.0,61.0,42.0,21.0,62.0,1527.264
1527274.0,59.0,42.0,18.0,59.0,1527.274
1527284.0,59.0,42.0,16.0,56.0,1527.284
1527294.0,58.0,43.0,15.0,56.0,1527.294
1527304.0,57.0,47.0,19.0,60.0,1527.304
1527314.0,60.0,47.0,28.0,64.0,1527.314
1527324.0,60.0,45.0,25.0,62.0,1527.324
1527334.0,62.0,44.0,23.0,62.0,1527.334
1527344.0,61.0,46.0,21.0,64.0,1527.344
1527354.0,60.0,47.0,21.0,60.0,1527.354
1527364.0,58.0,47.0,18.0,60.0,1527.364
1527374.0,56.0,51.0,27.0,59.0,1527.374
1527384.0,55.0,49.0,25.0,56.0,1527.384
1527394.0,54.0,50.0,21.0,56.0,1527.394
1527404.0,54.0,50.0,20.0,54.0,1527.404
1527414.0,52.0,51.0,17.0,55.0,1527.414
1527424.0,52.0,51.0,16.0,56.0,1527.424
1527434.0,52.0,51.0,14.0,52.0,1527.434
1527444.0,51.0,53.0,14.0,54.0,1527.444
1527454.0,51.0,53.0,14.0,53.0,1527.454
1527464.0,51.0,55.0,19.0,58.0,1527.464
1527474.0,51.0,57.0,32.0,56.0,1527.474
1527484.0,52.0,54.0,29.0,55.0,1527.484
1527494.0,53.0,52.0,27.0,55.0,1527.494
1527504.0,53.0,52.0,24.0,53.0,1527.504
1527514.0,52.0,54.0,23.0,55.0,1527.514
1527524.0,53.0,55.0,21.0,59.0,1527.524
1527534.0,51.0,57.0,21.0,66.0,1527.534
1527544.0,52.0,57.0,20.0,61.0,1527.544
1527554.0,52.0,59.0,20.0,58.0,1527.554
1527564.0,53.0,61.0,23.0,66.0,1527.564
1527574.0,54.0,61.0,20.0,64.0,1527.574
1527584.0,54.0,61.0,18.0,61.0,1527.584
1527595.0,55.0,62.0,19.0,66.0,1527.595
1527605.0,56.0,63.0,19.0,66.0,1527.605
1527615.0,57.0,62.0,19.0,60.0,1527.615
1527625.0,57.0,61.0,16.0,55.0,1527.625
1527635.0,58.0,61.0,16.0,53.0,1527.635
