time (ms),signal 0,signal 1,signal 2,signal3,time (sec)
1504596.0,62.0,85.0,23.0,65.0,1504.596
1504606.0,63.0,86.0,21.0,64.0,1504.606
1504616.0,62.0,85.0,22.0,60.0,1504.616
1504626.0,61.0,84.0,21.0,57.0,1504.626
1504636.0,63.0,84.0,29.0,56.0,1504.636
1504646.0,60.0,84.0,32.0,58.0,1504.646
1504656.0,60.0,80.0,36.0,56.0,1504.656
1504666.0,58.0,81.0,42.0,60.0,1504.666
1504676.0,59.0,79.0,42.0,64.0,1504.676
1504686.0,59.0,78.0,38.0,62.0,1504.686
1504696.0,58.0,79.0,35.0,63.0,1504.696
1504706.0,58.0,78.0,40.0,64.0,1504.706
1504716.0,57.0,76.0,36.0,63.0,1504.716
1504726.0,57.0,76.0,37.0,61.0,1504.726
1504736.0,57.0,76.0,32.0,58.0,1504.736
1504746.0,56.0,78.0,34.0,55.0,1504.746
1504756.0,57.0,76.0,37.0,54.0,1504.756
1504766.0,56.0,79.0,41.0,59.0,1504.766
1504776.0,57.0,78.0,41.0,64.0,1504.776
1504786.0,58.0,78.0,37.0,62.0,1504.786
1504796.0,58.0,77.0,37.0,63.0,1504.796
1504806.0,59.0,77.0,33.0,64.0,1504.806
1504816.0,59.0,79.0,35.0,63.0,1504.816
1504826.0,60.0,76.0,33.0,61.0,1504.826
1504836.0,61.0,76.0,33.0,61.0,1504.836
1504846.0,62.0,74.0,30.0,59.0,1504.846
1504856.0,62.0,74.0,29.0,58.0,1504.856
1504866.0,64.0,74.0,30.0,57.0,1504.866
1504876.0,64.0,73.0,33.0,55.0,1504.876
1504886.0,64.0,75.0,30.0,57.0,1504.886
1504896.0,63.0,73.0,27.0,60.0,1504.896
1504906.0,61.0,74.0,25.0,61.0,1504.906
1504916.0,61.0,73.0,23.0,59.0,1504.916
1504926.0,60.0,74.0,32.0,55.0,1504.926
1504936.0,60.0,74.0,34.0,52.0,1504.936
1504946.0,61.0,75.0,37.0,59.0,1504.946
1504956.0,62.0,76.0,42.0,64.0,1504.956
1504966.0,63.0,75.0,37.0,61.0,1504.966
1504976.0,61.0,77.0,33.0,60.0,1504.976
1504986.0,62.0,76.0,29.0,58.0,1504.986
1504996.0,61.0,77.0,35.0,64.0,1504.996
1505006.0,61.0,75.0,33.0,66.0,1505.006
1505016.0,61.0,73.0,30.0,68.0,1505.016
1505026.0,60.0,73.0,31.0,74.0,1505.026
1505036.0,60.0,72.0,35.0,70.0,1505.036
1505046.0,59.0,70.0,32.0,67.0,1505.046
1505056.0,58.0,70.0,32.0,66.0,1505.056
1505067.0,58.0,70.0,49.0,68.0,1505.067
1505077.0,55.0,70.0,43.0,67.0,1505.077
1505087.0,54.0,69.0,37.0,61.0,1505.087
1505097.0,52.0,70.0,34.0,56.0,1505.097
1505107.0,51.0,69.0,31.0,56.0,1505.107
1505117.0,51.0,68.0,38.0,54.0,1505.117
1505127.0,50.0,68.0,35.0,53.0,1505.127
1505137.0,50.0,66.0,34.0,54.0,1505.137
1505147.0,47.0,71.0,32.0,57.0,1505.147
1505157.0,47.0,70.0,31.0,56.0,1505.157
1505167.0,46.0,77.0,30.0,63.0,1505.167
1505177.0,47.0,75.0,28.0,65.0,1505.177
1505187.0,48.0,90.0,32.0,76.0,1505.187
1505197.0,49.0,87.0,28.0,84.0,1505.197
1505207.0,49.0,84.0,28.0,88.0,1505.207
1505217.0,50.0,82.0,30.0,87.0,1505.217
1505227.0,52.0,81.0,28.0,87.0,1505.227
1505238.0,51.0,83.0,24.0,88.0,1505.238
1505248.0,51.0,88.0,27.0,85.0,1505.248
1505258.0,52.0,89.0,32.0,81.0,1505.258
1505268.0,51.0,96.0,35.0,79.0,1505.268
1505278.0,51.0,93.0,32.0,77.0,1505.278
1505288.0,50.0,99.0,34.0,75.0,1505.288
1505298.0,53.0,99.0,32.0,74.0,1505.298
1505308.0,52.0,102.0,38.0,74.0,1505.308
1505318.0,52.0,108.0,41.0,73.0,1505.318
1505328.0,54.0,106.0,52.0,71.0,1505.328
1505338.0,53.0,110.0,50.0,73.0,1505.338
1505348.0,59.0,116.0,65.0,79.0,1505.348
1505358.0,57.0,121.0,58.0,80.0,1505.358
1505368.0,57.0,124.0,70.0,77.0,1505.368
1505378.0,56.0,129.0,63.0,75.0,1505.378
1505388.0,58.0,138.0,81.0,80.0,1505.388
1505398.0,57.0,138.0,80.0,80.0,1505.398
1505408.0,56.0,143.0,77.0,77.0,1505.408
1505418.0,57.0,145.0,73.0,81.0,1505.418
1505428.0,55.0,149.0,72.0,77.0,1505.428
1505438.0,55.0,153.0,65.0,72.0,1505.438
1505448.0,55.0,157.0,62.0,68.0,1505.448
1505458.0,55.0,157.0,58.0,64.0,1505.458
1505468.0,54.0,156.0,63.0,63.0,1505.468
1505478.0,53.0,160.0,61.0,65.0,1505.478
1505488.0,55.0,157.0,65.0,68.0,1505.488
1505498.0,54.0,155.0,64.0,68.0,1505.498
1505508.0,53.0,153.0,57.0,64.0,1505.508
1505518.0,51.0,152.0,50.0,61.0,1505.518
1505528.0,50.0,152.0,44.0,56.0,1505.528
1505538.0,50.0,153.0,48.0,54.0,1505.538
1505548.0,50.0,151.0,56.0,61.0,1505.548
1505558.0,49.0,151.0,53.0,59.0,1505.558
1505568.0,49.0,149.0,49.0,60.0,1505.568
1505579.0,49.0,147.0,44.0,59.0,1505.579
1505589.0,48.0,148.0,42.0,58.0,1505.589
1505599.0,49.0,146.0,41.0,57.0,1505.599
1505609.0,50.0,148.0,56.0,62.0,1505.609
1505619.0,52.0,144.0,57.0,67.0,1505.619
1505629.0,51.0,143.0,56.0,65.0,1505.629
1505639.0,52.0,146.0,57.0,65.0,1505.639
1505649.0,50.0,140.0,51.0,67.0,1505.649
1505659.0,50.0,140.0,52.0,66.0,1505.659
1505669.0,53.0,139.0,67.0,68.0,1505.669
1505679.0,52.0,134.0,64.0,66.0,1505.679
1505689.0,50.0,134.0,55.0,63.0,1505.689
1505699.0,50.0,133.0,56.0,61.0,1505.699
1505709.0,49.0,131.0,54.0,61.0,1505.709
1505719.0,48.0,130.0,48.0,57.0,1505.719
1505729.0,49.0,129.0,44.0,53.0,1505.729
1505739.0,49.0,129.0,45.0,53.0,1505.739
1505750.0,50.0,126.0,53.0,57.0,1505.75
1505760.0,53.0,127.0,61.0,62.0,1505.76
1505770.0,52.0,124.0,56.0,63.0,1505.77
1505780.0,50.0,125.0,50.0,61.0,1505.78
1505790.0,52.0,128.0,57.0,65.0,1505.79
1505800.0,51.0,126.0,51.0,65.0,1505.8
1505810.0,49.0,126.0,45.0,60.0,1505.81
1505820.0,48.0,122.0,40.0,55.0,1505.82
1505830.0,47.0,123.0,40.0,53.0,1505.83
1505840.0,47.0,119.0,36.0,50.0,1505.84
1505850.0,48.0,117.0,32.0,47.0,1505.85
1505860.0,46.0,117.0,42.0,51.0,1505.86
1505870.0,50.0,117.0,64.0,57.0,1505.87
1505880.0,51.0,115.0,59.0,58.0,1505.88
1505890.0,51.0,112.0,53.0,54.0,1505.89
1505900.0,49.0,111.0,45.0,52.0,1505.9
1505910.0,49.0,110.0,41.0,48.0,1505.91
1505920.0,48.0,110.0,36.0,45.0,1505.92
1505930.0,46.0,109.0,32.0,43.0,1505.93
1505940.0,49.0,109.0,52.0,47.0,1505.94
1505950.0,49.0,109.0,52.0,48.0,1505.95
1505960.0,49.0,107.0,53.0,44.0,1505.96
1505970.0,51.0,106.0,56.0,45.0,1505.97
1505980.0,49.0,103.0,56.0,47.0,1505.98
1505990.0,49.0,102.0,48.0,45.0,1505.99
1506000.0,50.0,104.0,50.0,43.0,1506.0
1506010.0,49.0,100.0,55.0,45.0,1506.01
1506020.0,48.0,100.0,53.0,50.0,1506.02
1506030.0,49.0,100.0,54.0,48.0,1506.03
1506040.0,49.0,101.0,53.0,67.0,1506.04
1506050.0,49.0,100.0,51.0,77.0,1506.05
1506060.0,50.0,99.0,60.0,77.0,1506.06
1506070.0,49.0,98.0,61.0,78.0,1506.07
1506080.0,48.0,99.0,65.0,85.0,1506.08
1506091.0,50.0,97.0,58.0,93.0,1506.091
1506101.0,51.0,94.0,56.0,92.0,1506.101
1506111.0,49.0,96.0,61.0,88.0,1506.111
1506121.0,51.0,95.0,61.0,89.0,1506.121
1506131.0,50.0,98.0,61.0,85.0,1506.131
1506141.0,51.0,97.0,59.0,84.0,1506.141
1506151.0,50.0,97.0,56.0,77.0,1506.151
1506161.0,50.0,100.0,60.0,82.0,1506.161
1506171.0,51.0,99.0,58.0,85.0,1506.171
1506181.0,52.0,97.0,57.0,83.0,1506.181
1506191.0,51.0,97.0,54.0,81.0,1506.191
1506201.0,50.0,97.0,47.0,76.0,1506.201
1506211.0,48.0,98.0,42.0,70.0,1506.211
1506221.0,48.0,99.0,36.0,65.0,1506.221
1506231.0,48.0,100.0,50.0,69.0,1506.231
1506241.0,50.0,102.0,64.0,72.0,1506.241
1506251.0,51.0,101.0,64.0,72.0,1506.251
1506262.0,49.0,100.0,60.0,73.0,1506.262
1506272.0,48.0,103.0,58.0,70.0,1506.272
1506282.0,50.0,104.0,55.0,66.0,1506.282
1506292.0,51.0,105.0,64.0,68.0,1506.292
1506302.0,50.0,108.0,62.0,65.0,1506.302
1506312.0,49.0,106.0,55.0,60.0,1506.312
1506322.0,49.0,108.0,49.0,57.0,1506.322
1506332.0,47.0,109.0,45.0,57.0,1506.332
1506342.0,47.0,112.0,49.0,57.0,1506.342
1506352.0,48.0,113.0,56.0,57.0,1506.352
1506362.0,47.0,110.0,52.0,57.0,1506.362
1506372.0,48.0,111.0,54.0,56.0,1506.372
1506382.0,49.0,110.0,51.0,51.0,1506.382
1506392.0,48.0,109.0,47.0,51.0,1506.392
1506402.0,48.0,110.0,45.0,48.0,1506.402
1506412.0,50.0,111.0,43.0,46.0,1506.412
1506422.0,48.0,112.0,41.0,46.0,1506.422
1506432.0,47.0,110.0,37.0,46.0,1506.432
1506442.0,47.0,109.0,33.0,45.0,1506.442
1506452.0,47.0,108.0,35.0,44.0,1506.452
1506462.0,47.0,106.0,31.0,44.0,1506.462
1506472.0,47.0,108.0,37.0,47.0,1506.472
1506482.0,49.0,107.0,49.0,47.0,1506.482
1506492.0,48.0,105.0,54.0,52.0,1506.492
1506502.0,47.0,106.0,53.0,55.0,1506.502
1506512.0,48.0,107.0,49.0,57.0,1506.512
1506522.0,46.0,106.0,43.0,56.0,1506.522
1506532.0,46.0,104.0,38.0,54.0,1506.532
1506542.0,46.0,105.0,33.0,50.0,1506.542
1506552.0,48.0,103.0,43.0,50.0,1506.552
1506562.0,48.0,103.0,45.0,51.0,1506.562
1506572.0,49.0,103.0,49.0,51.0,1506.572
1506582.0,48.0,100.0,49.0,56.0,1506.582
1506592.0,50.0,101.0,47.0,53.0,1506.592
1506603.0,51.0,100.0,58.0,53.0,1506.603
1506613.0,51.0,99.0,52.0,51.0,1506.613
1506623.0,50.0,98.0,49.0,50.0,1506.623
1506633.0,50.0,96.0,44.0,48.0,1506.633
1506643.0,50.0,95.0,39.0,45.0,1506.643
1506653.0,50.0,96.0,37.0,47.0,1506.653
1506663.0,49.0,97.0,34.0,46.0,1506.663
1506673.0,50.0,97.0,50.0,47.0,1506.673
1506683.0,51.0,94.0,52.0,46.0,1506.683
1506693.0,51.0,93.0,50.0,43.0,1506.693
1506703.0,49.0,91.0,43.0,45.0,1506.703
1506713.0,47.0,89.0,38.0,44.0,1506.713
1506723.0,49.0,90.0,37.0,44.0,1506.723
1506733.0,48.0,86.0,34.0,45.0,1506.733
1506743.0,48.0,86.0,37.0,48.0,1506.743
1506753.0,48.0,86.0,35.0,49.0,1506.753
1506763.0,49.0,83.0,36.0,49.0,1506.763
1506774.0,48.0,82.0,33.0,49.0,1506.774
1506784.0,49.0,83.0,38.0,50.0,1506.784
1506794.0,49.0,81.0,41.0,50.0,1506.794
1506804.0,50.0,83.0,64.0,54.0,1506.804
1506814.0,49.0,80.0,59.0,53.0,1506.814
1506824.0,49.0,79.0,55.0,52.0,1506.824
1506834.0,48.0,77.0,51.0,52.0,1506.834
1506844.0,47.0,77.0,48.0,54.0,1506.844
1506854.0,47.0,77.0,46.0,55.0,1506.854
1506864.0,49.0,77.0,52.0,54.0,1506.864
1506874.0,47.0,79.0,45.0,55.0,1506.874
1506884.0,47.0,79.0,41.0,53.0,1506.884
1506894.0,46.0,78.0,38.0,53.0,1506.894
1506904.0,48.0,80.0,44.0,51.0,1506.904
1506914.0,48.0,76.0,45.0,56.0,1506.914
1506924.0,48.0,75.0,44.0,56.0,1506.924
1506934.0,49.0,74.0,48.0,60.0,1506.934
1506944.0,48.0,75.0,44.0,60.0,1506.944
1506954.0,47.0,75.0,54.0,58.0,1506.954
1506964.0,47.0,74.0,51.0,60.0,1506.964
1506974.0,45.0,73.0,45.0,56.0,1506.974
1506984.0,45.0,75.0,39.0,54.0,1506.984
1506994.0,45.0,77.0,37.0,51.0,1506.994
1507004.0,45.0,76.0,38.0,49.0,1507.004
1507014.0,44.0,75.0,35.0,54.0,1507.014
1507024.0,45.0,76.0,50.0,51.0,1507.024
1507034.0,46.0,75.0,47.0,51.0,1507.034
1507044.0,46.0,76.0,42.0,51.0,1507.044
1507054.0,46.0,76.0,38.0,49.0,1507.054
1507064.0,47.0,76.0,35.0,48.0,1507.064
1507074.0,47.0,77.0,33.0,47.0,1507.074
1507084.0,47.0,78.0,46.0,54.0,1507.084
1507094.0,48.0,77.0,52.0,53.0,1507.094
1507104.0,47.0,76.0,48.0,52.0,1507.104
1507115.0,46.0,78.0,42.0,50.0,1507.115
1507125.0,46.0,79.0,43.0,49.0,1507.125
1507135.0,46.0,80.0,44.0,47.0,1507.135
1507145.0,46.0,80.0,40.0,45.0,1507.145
1507155.0,45.0,82.0,35.0,44.0,1507.155
1507165.0,46.0,81.0,32.0,44.0,1507.165
1507175.0,46.0,82.0,36.0,44.0,1507.175
1507185.0,46.0,81.0,39.0,44.0,1507.185
1507195.0,46.0,80.0,38.0,43.0,1507.195
1507205.0,45.0,79.0,36.0,44.0,1507.205
1507215.0,46.0,78.0,31.0,41.0,1507.215
1507225.0,45.0,81.0,28.0,41.0,1507.225
1507235.0,45.0,79.0,25.0,40.0,1507.235
1507245.0,45.0,81.0,24.0,38.0,1507.245
1507255.0,45.0,82.0,37.0,42.0,1507.255
1507265.0,48.0,80.0,42.0,45.0,1507.265
1507275.0,46.0,81.0,39.0,45.0,1507.275
1507286.0,48.0,80.0,40.0,48.0,1507.286
1507296.0,47.0,83.0,36.0,46.0,1507.296
1507306.0,47.0,80.0,39.0,46.0,1507.306
1507316.0,47.0,78.0,36.0,49.0,1507.316
1507326.0,46.0,78.0,33.0,49.0,1507.326
1507336.0,46.0,78.0,29.0,46.0,1507.336
1507346.0,44.0,77.0,32.0,46.0,1507.346
1507356.0,46.0,79.0,31.0,48.0,1507.356
1507366.0,45.0,77.0,35.0,49.0,1507.366
1507376.0,46.0,75.0,33.0,47.0,1507.376
1507386.0,47.0,76.0,33.0,47.0,1507.386
1507396.0,45.0,74.0,29.0,45.0,1507.396
1507406.0,46.0,75.0,26.0,42.0,1507.406
1507416.0,44.0,74.0,23.0,41.0,1507.416
1507426.0,45.0,75.0,21.0,38.0,1507.426
1507436.0,44.0,75.0,19.0,39.0,1507.436
1507446.0,44.0,75.0,20.0,39.0,1507.446
1507456.0,45.0,74.0,31.0,43.0,1507.456
1507466.0,45.0,73.0,37.0,46.0,1507.466
1507476.0,45.0,71.0,33.0,44.0,1507.476
1507486.0,44.0,70.0,28.0,45.0,1507.486
1507496.0,44.0,70.0,27.0,43.0,1507.496
1507506.0,45.0,72.0,36.0,42.0,1507.506
1507516.0,45.0,71.0,34.0,42.0,1507.516
1507526.0,45.0,73.0,36.0,43.0,1507.526
1507536.0,45.0,69.0,41.0,44.0,1507.536
1507546.0,46.0,70.0,41.0,43.0,1507.546
1507556.0,45.0,69.0,45.0,45.0,1507.556
1507566.0,46.0,69.0,45.0,45.0,1507.566
1507576.0,46.0,68.0,43.0,45.0,1507.576
1507586.0,46.0,66.0,42.0,46.0,1507.586
1507596.0,46.0,65.0,42.0,46.0,1507.596
1507606.0,47.0,65.0,44.0,50.0,1507.606
1507616.0,47.0,65.0,47.0,50.0,1507.616
1507627.0,45.0,63.0,41.0,48.0,1507.627
1507637.0,45.0,64.0,44.0,45.0,1507.637
1507647.0,45.0,62.0,54.0,46.0,1507.647
1507657.0,44.0,61.0,47.0,47.0,1507.657
1507667.0,45.0,60.0,44.0,48.0,1507.667
1507677.0,45.0,62.0,47.0,54.0,1507.677
1507687.0,46.0,60.0,51.0,55.0,1507.687
1507697.0,44.0,58.0,48.0,61.0,1507.697
1507707.0,48.0,63.0,53.0,104.0,1507.707
1507717.0,49.0,64.0,75.0,185.0,1507.717
1507727.0,56.0,69.0,77.0,231.0,1507.727
1507737.0,69.0,82.0,97.0,315.0,1507.737
1507747.0,75.0,85.0,96.0,343.0,1507.747
1507757.0,74.0,81.0,102.0,330.0,1507.757
1507767.0,76.0,79.0,101.0,329.0,1507.767
1507777.0,82.0,75.0,93.0,329.0,1507.777
1507787.0,85.0,72.0,88.0,314.0,1507.787
1507798.0,83.0,69.0,80.0,295.0,1507.798
1507808.0,81.0,64.0,76.0,300.0,1507.808
1507818.0,79.0,62.0,84.0,302.0,1507.818
1507828.0,79.0,65.0,117.0,307.0,1507.828
1507838.0,84.0,70.0,133.0,331.0,1507.838
1507848.0,87.0,77.0,143.0,398.0,1507.848
1507858.0,90.0,83.0,136.0,373.0,1507.858
1507868.0,91.0,89.0,124.0,351.0,1507.868
1507878.0,92.0,94.0,130.0,327.0,1507.878
1507888.0,90.0,100.0,115.0,311.0,1507.888
1507898.0,89.0,103.0,104.0,284.0,1507.898
1507908.0,86.0,106.0,98.0,273.0,1507.908
1507918.0,84.0,110.0,93.0,260.0,1507.918
1507928.0,84.0,115.0,89.0,252.0,1507.928
1507938.0,85.0,123.0,81.0,232.0,1507.938
1507948.0,84.0,125.0,74.0,227.0,1507.948
1507958.0,83.0,129.0,68.0,216.0,1507.958
1507968.0,82.0,133.0,61.0,201.0,1507.968
1507978.0,83.0,135.0,53.0,188.0,1507.978
1507988.0,80.0,136.0,50.0,175.0,1507.988
1507998.0,79.0,137.0,58.0,164.0,1507.998
1508008.0,78.0,138.0,51.0,156.0,1508.008
1508018.0,76.0,135.0,50.0,183.0,1508.018
1508028.0,76.0,137.0,51.0,186.0,1508.028
1508038.0,76.0,137.0,45.0,177.0,1508.038
1508048.0,74.0,135.0,48.0,166.0,1508.048
1508058.0,73.0,135.0,49.0,154.0,1508.058
1508068.0,73.0,136.0,43.0,142.0,1508.068
1508078.0,71.0,135.0,40.0,142.0,1508.078
1508088.0,69.0,132.0,37.0,131.0,1508.088
1508098.0,68.0,132.0,38.0,124.0,1508.098
1508108.0,67.0,127.0,39.0,114.0,1508.108
1508118.0,64.0,122.0,52.0,116.0,1508.118
1508128.0,64.0,122.0,58.0,110.0,1508.128
1508139.0,64.0,120.0,52.0,104.0,1508.139
1508149.0,63.0,119.0,49.0,98.0,1508.149
1508159.0,61.0,115.0,43.0,90.0,1508.159
1508169.0,60.0,112.0,38.0,84.0,1508.169
1508179.0,59.0,110.0,34.0,80.0,1508.179
1508189.0,58.0,109.0,36.0,77.0,1508.189
1508199.0,56.0,108.0,31.0,72.0,1508.199
1508209.0,55.0,104.0,31.0,69.0,1508.209
1508219.0,54.0,105.0,31.0,75.0,1508.219
1508229.0,53.0,102.0,29.0,72.0,1508.229
1508239.0,53.0,102.0,26.0,76.0,1508.239
1508249.0,53.0,101.0,29.0,75.0,1508.249
1508259.0,53.0,97.0,28.0,78.0,1508.259
1508269.0,53.0,97.0,26.0,74.0,1508.269
1508279.0,55.0,95.0,25.0,75.0,1508.279
1508289.0,53.0,95.0,22.0,77.0,1508.289
1508299.0,52.0,93.0,26.0,72.0,1508.299
1508310.0,52.0,92.0,24.0,66.0,1508.31
1508320.0,51.0,88.0,43.0,70.0,1508.32
1508330.0,53.0,88.0,44.0,72.0,1508.33
1508340.0,52.0,87.0,40.0,71.0,1508.34
1508350.0,51.0,85.0,39.0,71.0,1508.35
1508360.0,52.0,87.0,34.0,72.0,1508.36
1508370.0,51.0,87.0,31.0,71.0,1508.37
1508380.0,52.0,86.0,28.0,78.0,1508.38
1508390.0,51.0,84.0,29.0,75.0,1508.39
1508400.0,51.0,84.0,32.0,74.0,1508.4
1508410.0,51.0,83.0,28.0,72.0,1508.41
1508420.0,53.0,81.0,35.0,75.0,1508.42
1508430.0,53.0,82.0,38.0,73.0,1508.43
1508440.0,53.0,80.0,35.0,67.0,1508.44
1508450.0,52.0,77.0,37.0,69.0,1508.45
1508460.0,53.0,76.0,33.0,71.0,1508.46
1508470.0,54.0,74.0,34.0,67.0,1508.47
1508480.0,57.0,73.0,29.0,66.0,1508.48
1508490.0,57.0,71.0,28.0,65.0,1508.49
1508500.0,57.0,68.0,25.0,64.0,1508.5
1508510.0,59.0,69.0,25.0,62.0,1508.51
1508520.0,59.0,66.0,23.0,61.0,1508.52
1508530.0,58.0,65.0,27.0,62.0,1508.53
1508540.0,57.0,61.0,32.0,62.0,1508.54
1508550.0,58.0,59.0,29.0,62.0,1508.55
1508560.0,58.0,58.0,27.0,64.0,1508.56
1508570.0,59.0,57.0,31.0,65.0,1508.57
1508580.0,61.0,58.0,28.0,61.0,1508.58
1508590.0,62.0,55.0,24.0,58.0,1508.59
1508600.0,61.0,56.0,23.0,58.0,1508.6
1508610.0,62.0,52.0,22.0,55.0,1508.61
1508620.0,63.0,51.0,24.0,64.0,1508.62
1508630.0,63.0,51.0,39.0,67.0,1508.63
1508640.0,63.0,51.0,35.0,65.0,1508.64
1508651.0,63.0,51.0,33.0,65.0,1508.651
1508661.0,64.0,50.0,29.0,62.0,1508.661
1508671.0,62.0,50.0,27.0,58.0,1508.671
1508681.0,63.0,48.0,25.0,56.0,1508.681
1508691.0,60.0,46.0,24.0,54.0,1508.691
1508701.0,61.0,46.0,22.0,54.0,1508.701
1508711.0,60.0,47.0,38.0,53.0,1508.711
1508721.0,59.0,47.0,35.0,63.0,1508.721
1508731.0,60.0,46.0,35.0,67.0,1508.731
1508741.0,60.0,47.0,41.0,70.0,1508.741
1508751.0,61.0,48.0,36.0,73.0,1508.751
1508761.0,60.0,46.0,32.0,70.0,1508.761
1508771.0,60.0,46.0,30.0,66.0,1508.771
1508781.0,61.0,47.0,34.0,63.0,1508.781
1508791.0,58.0,48.0,37.0,67.0,1508.791
1508801.0,59.0,45.0,39.0,71.0,1508.801
1508811.0,58.0,45.0,37.0,83.0,1508.811
1508822.0,61.0,46.0,33.0,94.0,1508.822
1508832.0,63.0,48.0,40.0,91.0,1508.832
1508842.0,63.0,50.0,47.0,96.0,1508.842
1508852.0,65.0,47.0,41.0,90.0,1508.852
1508862.0,65.0,46.0,36.0,85.0,1508.862
1508872.0,63.0,44.0,32.0,81.0,1508.872
1508882.0,64.0,44.0,29.0,79.0,1508.882
1508892.0,65.0,43.0,28.0,91.0,1508.892
1508902.0,65.0,45.0,38.0,97.0,1508.902
1508912.0,66.0,47.0,34.0,97.0,1508.912
1508922.0,68.0,47.0,35.0,115.0,1508.922
1508932.0,66.0,45.0,31.0,113.0,1508.932
1508942.0,66.0,44.0,37.0,106.0,1508.942
1508952.0,67.0,46.0,41.0,104.0,1508.952
1508962.0,68.0,46.0,38.0,97.0,1508.962
1508972.0,66.0,46.0,40.0,96.0,1508.972
1508982.0,65.0,46.0,34.0,103.0,1508.982
1508992.0,65.0,47.0,31.0,107.0,1508.992
1509002.0,65.0,49.0,31.0,106.0,1509.002
1509012.0,67.0,49.0,28.0,102.0,1509.012
1509022.0,69.0,51.0,27.0,106.0,1509.022
1509032.0,68.0,51.0,32.0,105.0,1509.032
1509042.0,69.0,50.0,29.0,99.0,1509.042
1509052.0,67.0,50.0,28.0,98.0,1509.052
1509062.0,65.0,49.0,29.0,94.0,1509.062
1509072.0,65.0,49.0,26.0,97.0,1509.072
1509082.0,67.0,48.0,26.0,93.0,1509.082
1509092.0,66.0,47.0,26.0,89.0,1509.092
1509102.0,65.0,46.0,23.0,98.0,1509.102
1509112.0,68.0,46.0,21.0,97.0,1509.112
1509122.0,64.0,45.0,25.0,94.0,1509.122
1509132.0,65.0,44.0,27.0,93.0,1509.132
1509142.0,64.0,46.0,25.0,96.0,1509.142
1509152.0,62.0,44.0,22.0,97.0,1509.152
1509163.0,62.0,43.0,29.0,102.0,1509.163
1509173.0,63.0,47.0,27.0,98.0,1509.173
1509183.0,63.0,46.0,25.0,95.0,1509.183
1509193.0,62.0,47.0,24.0,88.0,1509.193
1509203.0,61.0,46.0,25.0,88.0,1509.203
1509213.0,62.0,48.0,24.0,103.0,1509.213
1509223.0,62.0,48.0,22.0,95.0,1509.223
1509233.0,62.0,46.0,19.0,95.0,1509.233
1509243.0,60.0,46.0,21.0,96.0,1509.243
1509253.0,61.0,48.0,26.0,98.0,1509.253
1509263.0,62.0,49.0,23.0,89.0,1509.263
1509273.0,63.0,49.0,21.0,85.0,1509.273
1509283.0,62.0,50.0,18.0,79.0,1509.283
1509293.0,61.0,51.0,27.0,84.0,1509.293
1509303.0,61.0,52.0,28.0,82.0,1509.303
1509313.0,59.0,53.0,27.0,81.0,1509.313
1509323.0,60.0,51.0,25.0,75.0,1509.323
1509334.0,57.0,50.0,23.0,85.0,1509.334
1509344.0,59.0,50.0,22.0,83.0,1509.344
1509354.0,58.0,49.0,20.0,83.0,1509.354
1509364.0,57.0,48.0,22.0,87.0,1509.364
1509374.0,58.0,51.0,37.0,94.0,1509.374
1509384.0,57.0,50.0,37.0,92.0,1509.384
1509394.0,59.0,51.0,34.0,86.0,1509.394
1509404.0,57.0,50.0,41.0,85.0,1509.404
1509414.0,57.0,51.0,36.0,81.0,1509.414
1509424.0,56.0,52.0,32.0,83.0,1509.424
1509434.0,56.0,52.0,29.0,84.0,1509.434
1509444.0,56.0,52.0,26.0,84.0,1509.444
1509454.0,55.0,52.0,25.0,90.0,1509.454
1509464.0,57.0,50.0,22.0,82.0,1509.464
1509474.0,56.0,50.0,28.0,91.0,1509.474
1509484.0,59.0,54.0,44.0,101.0,1509.484
1509494.0,59.0,55.0,39.0,98.0,1509.494
1509504.0,59.0,53.0,36.0,90.0,1509.504
1509514.0,58.0,51.0,32.0,84.0,1509.514
1509524.0,59.0,51.0,30.0,91.0,1509.524
1509534.0,59.0,50.0,34.0,83.0,1509.534
1509544.0,60.0,49.0,29.0,78.0,1509.544
1509554.0,60.0,47.0,27.0,75.0,1509.554
1509564.0,59.0,46.0,24.0,72.0,1509.564
1509574.0,58.0,45.0,32.0,81.0,1509.574
1509584.0,60.0,46.0,34.0,75.0,1509.584
1509594.0,61.0,47.0,33.0,79.0,1509.594
1509604.0,61.0,48.0,31.0,80.0,1509.604
1509614.0,62.0,49.0,30.0,79.0,1509.614
1509624.0,62.0,49.0,27.0,73.0,1509.624
1509634.0,62.0,48.0,26.0,76.0,1509.634
1509644.0,61.0,47.0,27.0,73.0,1509.644
1509654.0,60.0,47.0,25.0,74.0,1509.654
1509664.0,61.0,46.0,35.0,84.0,1509.664
1509675.0,64.0,48.0,34.0,80.0,1509.675
1509685.0,64.0,50.0,35.0,84.0,1509.685
1509695.0,67.0,53.0,32.0,77.0,1509.695
1509705.0,66.0,53.0,34.0,79.0,1509.705
1509715.0,64.0,53.0,32.0,77.0,1509.715
1509725.0,64.0,55.0,29.0,77.0,1509.725
1509735.0,64.0,56.0,29.0,79.0,1509.735
1509745.0,64.0,60.0,34.0,84.0,1509.745
1509755.0,63.0,63.0,30.0,84.0,1509.755
1509765.0,63.0,65.0,26.0,81.0,1509.765
1509775.0,61.0,63.0,24.0,79.0,1509.775
1509785.0,59.0,66.0,31.0,79.0,1509.785
1509795.0,59.0,67.0,29.0,85.0,1509.795
1509805.0,57.0,67.0,31.0,85.0,1509.805
1509815.0,57.0,68.0,32.0,83.0,1509.815
1509825.0,57.0,69.0,28.0,78.0,1509.825
1509835.0,56.0,69.0,24.0,79.0,1509.835
1509846.0,57.0,70.0,23.0,87.0,1509.846
1509856.0,56.0,73.0,19.0,86.0,1509.856
1509866.0,55.0,72.0,22.0,91.0,1509.866
1509876.0,57.0,76.0,33.0,90.0,1509.876
1509886.0,59.0,76.0,29.0,90.0,1509.886
1509896.0,59.0,77.0,26.0,91.0,1509.896
1509906.0,58.0,76.0,24.0,97.0,1509.906
1509916.0,59.0,78.0,22.0,91.0,1509.916
1509926.0,59.0,78.0,19.0,87.0,1509.926
1509936.0,59.0,76.0,26.0,89.0,1509.936
1509946.0,61.0,77.0,27.0,93.0,1509.946
1509956.0,60.0,72.0,35.0,95.0,1509.956
1509966.0,61.0,73.0,34.0,87.0,1509.966
1509976.0,60.0,72.0,31.0,91.0,1509.976
1509986.0,60.0,69.0,27.0,89.0,1509.986
1509996.0,60.0,69.0,24.0,92.0,1509.996
1510006.0,60.0,66.0,23.0,98.0,1510.006
1510016.0,61.0,66.0,20.0,98.0,1510.016
1510026.0,61.0,64.0,25.0,102.0,1510.026
1510036.0,61.0,65.0,32.0,98.0,1510.036
1510046.0,62.0,65.0,32.0,103.0,1510.046
1510056.0,62.0,64.0,35.0,99.0,1510.056
1510066.0,63.0,64.0,33.0,97.0,1510.066
1510076.0,63.0,64.0,29.0,89.0,1510.076
1510086.0,61.0,63.0,27.0,91.0,1510.086
1510096.0,61.0,64.0,24.0,86.0,1510.096
1510106.0,61.0,62.0,22.0,91.0,1510.106
1510116.0,61.0,63.0,19.0,92.0,1510.116
1510126.0,63.0,64.0,23.0,95.0,1510.126
1510136.0,62.0,65.0,19.0,101.0,1510.136
1510146.0,61.0,65.0,24.0,99.0,1510.146
1510156.0,61.0,64.0,27.0,96.0,1510.156
1510166.0,61.0,64.0,29.0,99.0,1510.166
1510176.0,59.0,63.0,26.0,96.0,1510.176
1510187.0,58.0,66.0,22.0,93.0,1510.187
1510197.0,59.0,67.0,21.0,93.0,1510.197
1510207.0,57.0,67.0,18.0,97.0,1510.207
1510217.0,57.0,66.0,27.0,100.0,1510.217
1510227.0,56.0,65.0,25.0,105.0,1510.227
1510237.0,56.0,65.0,23.0,99.0,1510.237
1510247.0,57.0,66.0,21.0,96.0,1510.247
1510257.0,57.0,67.0,20.0,95.0,1510.257
1510267.0,59.0,67.0,25.0,107.0,1510.267
1510277.0,59.0,68.0,22.0,97.0,1510.277
1510287.0,60.0,69.0,20.0,95.0,1510.287
1510297.0,60.0,70.0,17.0,91.0,1510.297
1510307.0,61.0,69.0,16.0,88.0,1510.307
1510317.0,61.0,70.0,29.0,85.0,1510.317
1510327.0,62.0,73.0,24.0,83.0,1510.327
1510337.0,62.0,72.0,23.0,85.0,1510.337
1510347.0,62.0,75.0,23.0,88.0,1510.347
1510358.0,61.0,74.0,26.0,85.0,1510.358
1510368.0,61.0,75.0,22.0,79.0,1510.368
1510378.0,59.0,74.0,20.0,82.0,1510.378
1510388.0,59.0,71.0,20.0,83.0,1510.388
1510398.0,57.0,72.0,21.0,77.0,1510.398
1510408.0,57.0,71.0,21.0,78.0,1510.408
1510418.0,56.0,71.0,18.0,80.0,1510.418
1510428.0,55.0,71.0,17.0,76.0,1510.428
1510438.0,54.0,70.0,15.0,79.0,1510.438
1510448.0,54.0,71.0,15.0,75.0,1510.448
1510458.0,55.0,71.0,14.0,75.0,1510.458
1510468.0,53.0,72.0,13.0,76.0,1510.468
1510478.0,56.0,76.0,13.0,77.0,1510.478
1510488.0,55.0,76.0,11.0,87.0,1510.488
1510498.0,55.0,76.0,19.0,80.0,1510.498
1510508.0,56.0,78.0,19.0,79.0,1510.508
1510518.0,55.0,80.0,19.0,74.0,1510.518
1510528.0,56.0,81.0,18.0,72.0,1510.528
1510538.0,54.0,81.0,17.0,71.0,1510.538
1510548.0,54.0,80.0,18.0,73.0,1510.548
1510558.0,53.0,78.0,16.0,73.0,1510.558
1510568.0,54.0,78.0,14.0,68.0,1510.568
1510578.0,52.0,77.0,14.0,65.0,1510.578
1510588.0,52.0,76.0,15.0,63.0,1510.588
1510598.0,54.0,78.0,13.0,63.0,1510.598
1510608.0,54.0,77.0,24.0,72.0,1510.608
1510618.0,53.0,78.0,28.0,68.0,1510.618
1510628.0,54.0,81.0,24.0,71.0,1510.628
1510638.0,54.0,83.0,25.0,70.0,1510.638
1510648.0,56.0,84.0,24.0,66.0,1510.648
1510658.0,56.0,85.0,23.0,66.0,1510.658
1510668.0,58.0,85.0,21.0,63.0,1510.668
1510678.0,58.0,86.0,20.0,61.0,1510.678
1510688.0,59.0,85.0,17.0,62.0,1510.688
1510699.0,60.0,85.0,23.0,62.0,1510.699
1510709.0,61.0,86.0,20.0,66.0,1510.709
1510719.0,61.0,85.0,19.0,67.0,1510.719
1510729.0,61.0,84.0,16.0,64.0,1510.729
1510739.0,63.0,83.0,16.0,62.0,1510.739
1510749.0,61.0,81.0,14.0,60.0,1510.749
1510759.0,61.0,81.0,13.0,65.0,1510.759
1510769.0,59.0,79.0,16.0,63.0,1510.769
1510779.0,59.0,79.0,20.0,65.0,1510.779
1510789.0,58.0,79.0,18.0,63.0,1510.789
1510799.0,57.0,80.0,15.0,63.0,1510.799
1510809.0,59.0,80.0,15.0,58.0,1510.809
1510819.0,58.0,82.0,12.0,58.0,1510.819
1510829.0,57.0,82.0,12.0,59.0,1510.829
1510839.0,56.0,79.0,13.0,61.0,1510.839
1510849.0,58.0,84.0,18.0,65.0,1510.849
1510859.0,60.0,86.0,17.0,63.0,1510.859
1510870.0,60.0,87.0,16.0,66.0,1510.87
1510880.0,63.0,87.0,15.0,69.0,1510.88
1510890.0,63.0,87.0,15.0,66.0,1510.89
1510900.0,63.0,87.0,13.0,64.0,1510.9
1510910.0,61.0,85.0,12.0,64.0,1510.91
1510920.0,60.0,85.0,11.0,62.0,1510.92
1510930.0,59.0,84.0,23.0,68.0,1510.93
1510940.0,57.0,85.0,25.0,66.0,1510.94
1510950.0,55.0,84.0,23.0,67.0,1510.95
1510960.0,55.0,84.0,20.0,64.0,1510.96
1510970.0,53.0,82.0,18.0,64.0,1510.97
1510980.0,54.0,81.0,20.0,67.0,1510.98
1510990.0,51.0,82.0,18.0,70.0,1510.99
1511000.0,53.0,80.0,17.0,64.0,1511.0
1511010.0,53.0,79.0,27.0,69.0,1511.01
1511020.0,54.0,81.0,25.0,63.0,1511.02
1511030.0,54.0,81.0,21.0,59.0,1511.03
1511040.0,52.0,82.0,20.0,61.0,1511.04
1511050.0,52.0,81.0,18.0,59.0,1511.05
1511060.0,51.0,81.0,15.0,60.0,1511.06
1511070.0,49.0,78.0,16.0,62.0,1511.07
1511080.0,51.0,80.0,16.0,61.0,1511.08
1511090.0,50.0,77.0,14.0,60.0,1511.09
1511100.0,50.0,77.0,17.0,57.0,1511.1
1511110.0,49.0,76.0,15.0,53.0,1511.11
1511120.0,48.0,73.0,22.0,56.0,1511.12
1511130.0,48.0,75.0,19.0,55.0,1511.13
1511140.0,47.0,71.0,18.0,54.0,1511.14
1511150.0,46.0,69.0,16.0,52.0,1511.15
1511160.0,45.0,68.0,14.0,54.0,1511.16
1511170.0,45.0,66.0,13.0,52.0,1511.17
1511180.0,44.0,65.0,12.0,53.0,1511.18
1511190.0,45.0,64.0,11.0,59.0,1511.19
1511200.0,45.0,65.0,10.0,61.0,1511.2
1511211.0,45.0,63.0,12.0,60.0,1511.211
1511221.0,45.0,63.0,13.0,58.0,1511.221
1511231.0,47.0,63.0,12.0,58.0,1511.231
1511241.0,48.0,62.0,11.0,57.0,1511.241
1511251.0,48.0,60.0,10.0,56.0,1511.251
1511261.0,49.0,60.0,10.0,58.0,1511.261
1511271.0,48.0,57.0,9.0,62.0,1511.271
1511281.0,50.0,56.0,10.0,58.0,1511.281
1511291.0,50.0,55.0,9.0,58.0,1511.291
1511301.0,49.0,54.0,8.0,55.0,1511.301
1511311.0,52.0,51.0,10.0,58.0,1511.311
1511321.0,52.0,49.0,8.0,59.0,1511.321
1511331.0,51.0,48.0,9.0,57.0,1511.331
1511341.0,51.0,47.0,10.0,61.0,1511.341
1511351.0,51.0,46.0,9.0,56.0,1511.351
1511361.0,51.0,45.0,9.0,55.0,1511.361
1511371.0,51.0,45.0,9.0,53.0,1511.371
1511382.0,53.0,43.0,10.0,55.0,1511.382
1511392.0,53.0,44.0,9.0,60.0,1511.392
1511402.0,53.0,44.0,12.0,58.0,1511.402
1511412.0,54.0,44.0,10.0,56.0,1511.412
1511422.0,54.0,43.0,10.0,58.0,1511.422
1511432.0,54.0,44.0,10.0,56.0,1511.432
1511442.0,54.0,45.0,12.0,52.0,1511.442
1511452.0,54.0,46.0,10.0,54.0,1511.452
1511462.0,55.0,46.0,10.0,53.0,1511.462
1511472.0,55.0,45.0,10.0,51.0,1511.472
1511482.0,55.0,46.0,9.0,51.0,1511.482
1511492.0,54.0,44.0,8.0,51.0,1511.492
1511502.0,53.0,43.0,9.0,53.0,1511.502
1511512.0,53.0,44.0,9.0,51.0,1511.512
1511522.0,53.0,41.0,8.0,50.0,1511.522
1511532.0,52.0,41.0,10.0,52.0,1511.532
1511542.0,52.0,41.0,11.0,49.0,1511.542
1511552.0,50.0,40.0,10.0,49.0,1511.552
1511562.0,49.0,40.0,9.0,52.0,1511.562
1511572.0,49.0,40.0,9.0,51.0,1511.572
1511582.0,49.0,41.0,8.0,51.0,1511.582
1511592.0,53.0,42.0,10.0,47.0,1511.592
1511602.0,52.0,42.0,9.0,45.0,1511.602
1511612.0,52.0,44.0,9.0,45.0,1511.612
1511622.0,52.0,43.0,8.0,49.0,1511.622
1511632.0,51.0,43.0,7.0,46.0,1511.632
1511642.0,52.0,41.0,9.0,45.0,1511.642
1511652.0,52.0,43.0,9.0,48.0,1511.652
1511662.0,53.0,43.0,13.0,47.0,1511.662
1511672.0,53.0,43.0,23.0,49.0,1511.672
1511682.0,55.0,42.0,21.0,47.0,1511.682
1511692.0,55.0,41.0,18.0,46.0,1511.692
1511702.0,54.0,40.0,16.0,47.0,1511.702
1511712.0,53.0,38.0,15.0,44.0,1511.712
1511723.0,51.0,39.0,13.0,46.0,1511.723
1511733.0,51.0,37.0,13.0,49.0,1511.733
1511743.0,49.0,36.0,12.0,53.0,1511.743
1511753.0,47.0,35.0,11.0,52.0,1511.753
1511763.0,47.0,35.0,14.0,52.0,1511.763
1511773.0,46.0,35.0,12.0,51.0,1511.773
1511783.0,45.0,34.0,11.0,48.0,1511.783
1511793.0,44.0,35.0,9.0,48.0,1511.793
1511803.0,44.0,35.0,13.0,51.0,1511.803
1511813.0,44.0,35.0,12.0,54.0,1511.813
1511823.0,44.0,35.0,11.0,51.0,1511.823
1511833.0,42.0,35.0,10.0,49.0,1511.833
1511843.0,42.0,35.0,9.0,49.0,1511.843
1511853.0,42.0,34.0,10.0,48.0,1511.853
1511863.0,43.0,35.0,8.0,49.0,1511.863
1511873.0,44.0,34.0,9.0,48.0,1511.873
1511883.0,44.0,35.0,8.0,46.0,1511.883
1511894.0,44.0,35.0,7.0,45.0,1511.894
1511904.0,45.0,36.0,7.0,49.0,1511.904
1511914.0,45.0,37.0,7.0,51.0,1511.914
1511924.0,44.0,38.0,9.0,60.0,1511.924
1511934.0,44.0,39.0,9.0,60.0,1511.934
1511944.0,45.0,39.0,9.0,57.0,1511.944
1511954.0,45.0,40.0,7.0,59.0,1511.954
1511964.0,46.0,42.0,14.0,69.0,1511.964
1511974.0,47.0,41.0,15.0,76.0,1511.974
1511984.0,46.0,40.0,20.0,71.0,1511.984
1511994.0,49.0,39.0,21.0,68.0,1511.994
1512004.0,50.0,39.0,18.0,68.0,1512.004
1512014.0,52.0,37.0,17.0,66.0,1512.014
1512024.0,51.0,36.0,15.0,75.0,1512.024
1512034.0,50.0,36.0,13.0,75.0,1512.034
1512044.0,50.0,36.0,14.0,77.0,1512.044
1512054.0,49.0,36.0,13.0,74.0,1512.054
1512064.0,50.0,36.0,12.0,71.0,1512.064
1512074.0,50.0,38.0,19.0,68.0,1512.074
1512084.0,50.0,37.0,18.0,65.0,1512.084
1512094.0,50.0,38.0,17.0,64.0,1512.094
1512104.0,48.0,37.0,15.0,61.0,1512.104
1512114.0,48.0,36.0,20.0,64.0,1512.114
1512124.0,49.0,36.0,19.0,62.0,1512.124
1512134.0,49.0,36.0,17.0,58.0,1512.134
1512144.0,49.0,37.0,15.0,57.0,1512.144
1512154.0,48.0,36.0,15.0,54.0,1512.154
1512164.0,49.0,37.0,16.0,51.0,1512.164
1512174.0,49.0,37.0,15.0,69.0,1512.174
1512184.0,50.0,36.0,13.0,72.0,1512.184
1512194.0,51.0,37.0,13.0,68.0,1512.194
1512204.0,51.0,39.0,21.0,68.0,1512.204
1512214.0,53.0,39.0,19.0,66.0,1512.214
1512224.0,54.0,39.0,16.0,62.0,1512.224
1512235.0,55.0,38.0,15.0,63.0,1512.235
1512245.0,53.0,39.0,17.0,59.0,1512.245
1512255.0,53.0,37.0,16.0,60.0,1512.255
1512265.0,52.0,37.0,14.0,58.0,1512.265
1512275.0,52.0,38.0,13.0,54.0,1512.275
1512285.0,51.0,37.0,12.0,52.0,1512.285
1512295.0,51.0,37.0,12.0,54.0,1512.295
1512305.0,51.0,35.0,12.0,53.0,1512.305
1512315.0,50.0,35.0,10.0,52.0,1512.315
1512325.0,51.0,35.0,10.0,51.0,1512.325
1512335.0,50.0,36.0,9.0,51.0,1512.335
1512345.0,53.0,36.0,8.0,51.0,1512.345
1512355.0,53.0,36.0,9.0,52.0,1512.355
1512365.0,54.0,36.0,10.0,53.0,1512.365
1512375.0,55.0,34.0,9.0,54.0,1512.375
1512385.0,54.0,35.0,8.0,57.0,1512.385
1512395.0,54.0,35.0,8.0,53.0,1512.395
1512406.0,53.0,35.0,8.0,56.0,1512.406
1512416.0,54.0,35.0,10.0,58.0,1512.416
1512426.0,53.0,35.0,9.0,62.0,1512.426
1512436.0,53.0,35.0,8.0,59.0,1512.436
1512446.0,53.0,35.0,9.0,56.0,1512.446
1512456.0,53.0,35.0,9.0,57.0,1512.456
1512466.0,54.0,36.0,8.0,53.0,1512.466
1512476.0,54.0,36.0,8.0,55.0,1512.476
1512486.0,51.0,37.0,7.0,56.0,1512.486
1512496.0,52.0,39.0,7.0,57.0,1512.496
1512506.0,51.0,39.0,7.0,54.0,1512.506
1512516.0,52.0,39.0,8.0,53.0,1512.516
1512526.0,50.0,39.0,6.0,53.0,1512.526
1512536.0,50.0,40.0,9.0,53.0,1512.536
1512546.0,50.0,39.0,7.0,51.0,1512.546
1512556.0,50.0,38.0,6.0,51.0,1512.556
1512566.0,51.0,38.0,6.0,52.0,1512.566
1512576.0,51.0,38.0,6.0,55.0,1512.576
1512586.0,52.0,37.0,7.0,55.0,1512.586
1512596.0,52.0,37.0,6.0,53.0,1512.596
1512606.0,54.0,36.0,7.0,55.0,1512.606
1512616.0,54.0,37.0,6.0,56.0,1512.616
1512626.0,55.0,35.0,6.0,55.0,1512.626
1512636.0,55.0,37.0,7.0,53.0,1512.636
1512646.0,56.0,37.0,5.0,51.0,1512.646
1512656.0,59.0,38.0,7.0,55.0,1512.656
1512666.0,57.0,38.0,6.0,56.0,1512.666
1512676.0,58.0,38.0,7.0,55.0,1512.676
1512686.0,56.0,39.0,7.0,56.0,1512.686
1512696.0,55.0,40.0,8.0,54.0,1512.696
1512706.0,56.0,38.0,8.0,51.0,1512.706
1512716.0,54.0,37.0,7.0,52.0,1512.716
1512726.0,55.0,37.0,7.0,49.0,1512.726
1512736.0,52.0,36.0,6.0,53.0,1512.736
1512747.0,52.0,36.0,7.0,56.0,1512.747
1512757.0,53.0,36.0,6.0,62.0,1512.757
1512767.0,54.0,36.0,6.0,58.0,1512.767
1512777.0,55.0,34.0,7.0,55.0,1512.777
1512787.0,53.0,36.0,5.0,55.0,1512.787
1512797.0,55.0,36.0,7.0,55.0,1512.797
1512807.0,54.0,36.0,6.0,54.0,1512.807
1512817.0,54.0,38.0,8.0,53.0,1512.817
1512827.0,55.0,38.0,9.0,55.0,1512.827
1512837.0,54.0,40.0,7.0,53.0,1512.837
1512847.0,54.0,39.0,8.0,51.0,1512.847
1512857.0,53.0,40.0,7.0,49.0,1512.857
1512867.0,55.0,41.0,8.0,47.0,1512.867
1512877.0,54.0,41.0,5.0,46.0,1512.877
1512887.0,52.0,44.0,6.0,43.0,1512.887
1512897.0,52.0,44.0,5.0,42.0,1512.897
1512907.0,51.0,46.0,5.0,43.0,1512.907
1512918.0,51.0,48.0,5.0,42.0,1512.918
1512928.0,49.0,49.0,5.0,42.0,1512.928
1512938.0,49.0,49.0,7.0,43.0,1512.938
1512948.0,48.0,50.0,6.0,43.0,1512.948
1512958.0,47.0,51.0,6.0,41.0,1512.958
1512968.0,46.0,52.0,6.0,40.0,1512.968
1512978.0,46.0,52.0,5.0,40.0,1512.978
1512988.0,46.0,50.0,6.0,39.0,1512.988
1512998.0,45.0,51.0,5.0,40.0,1512.998
1513008.0,45.0,50.0,7.0,42.0,1513.008
1513018.0,45.0,54.0,12.0,43.0,1513.018
1513028.0,45.0,53.0,12.0,49.0,1513.028
1513038.0,45.0,53.0,10.0,46.0,1513.038
1513048.0,45.0,54.0,10.0,48.0,1513.048
1513058.0,45.0,54.0,9.0,46.0,1513.058
1513068.0,45.0,56.0,8.0,51.0,1513.068
1513078.0,46.0,55.0,9.0,56.0,1513.078
1513088.0,46.0,55.0,8.0,53.0,1513.088
1513098.0,46.0,55.0,7.0,51.0,1513.098
1513108.0,45.0,56.0,7.0,51.0,1513.108
1513118.0,46.0,56.0,9.0,51.0,1513.118
1513128.0,46.0,54.0,9.0,47.0,1513.128
1513138.0,46.0,53.0,9.0,50.0,1513.138
1513148.0,47.0,51.0,8.0,51.0,1513.148
1513158.0,46.0,51.0,10.0,49.0,1513.158
1513168.0,47.0,51.0,9.0,51.0,1513.168
1513178.0,48.0,49.0,9.0,50.0,1513.178
1513188.0,48.0,50.0,8.0,49.0,1513.188
1513198.0,49.0,48.0,7.0,46.0,1513.198
1513208.0,49.0,49.0,10.0,46.0,1513.208
1513218.0,49.0,49.0,10.0,45.0,1513.218
1513228.0,50.0,49.0,11.0,43.0,1513.228
1513238.0,49.0,50.0,9.0,41.0,1513.238
1513248.0,51.0,52.0,9.0,41.0,1513.248
1513259.0,51.0,56.0,9.0,43.0,1513.259
1513269.0,51.0,58.0,8.0,44.0,1513.269
1513279.0,52.0,59.0,8.0,47.0,1513.279
1513289.0,52.0,61.0,8.0,49.0,1513.289
1513299.0,53.0,62.0,7.0,48.0,1513.299
1513309.0,53.0,63.0,7.0,47.0,1513.309
1513319.0,53.0,63.0,6.0,47.0,1513.319
1513329.0,54.0,63.0,6.0,46.0,1513.329
1513339.0,53.0,63.0,7.0,45.0,1513.339
1513349.0,54.0,63.0,6.0,44.0,1513.349
1513359.0,53.0,62.0,7.0,42.0,1513.359
1513369.0,53.0,61.0,8.0,43.0,1513.369
1513379.0,52.0,60.0,10.0,48.0,1513.379
1513389.0,52.0,60.0,11.0,45.0,1513.389
1513399.0,51.0,61.0,10.0,45.0,1513.399
1513409.0,50.0,60.0,9.0,46.0,1513.409
1513419.0,49.0,60.0,8.0,46.0,1513.419
1513430.0,49.0,61.0,8.0,46.0,1513.43
1513440.0,49.0,61.0,9.0,46.0,1513.44
1513450.0,50.0,60.0,7.0,48.0,1513.45
1513460.0,50.0,59.0,7.0,47.0,1513.46
1513470.0,50.0,61.0,8.0,47.0,1513.47
1513480.0,50.0,60.0,9.0,45.0,1513.48
1513490.0,50.0,61.0,12.0,44.0,1513.49
1513500.0,51.0,59.0,12.0,44.0,1513.5
1513510.0,54.0,58.0,14.0,46.0,1513.51
1513520.0,54.0,58.0,12.0,46.0,1513.52
1513530.0,56.0,57.0,12.0,46.0,1513.53
1513540.0,56.0,57.0,10.0,45.0,1513.54
1513550.0,56.0,55.0,9.0,42.0,1513.55
1513560.0,57.0,55.0,8.0,41.0,1513.56
1513570.0,56.0,56.0,9.0,43.0,1513.57
1513580.0,59.0,55.0,9.0,43.0,1513.58
1513590.0,57.0,54.0,7.0,42.0,1513.59
1513600.0,58.0,53.0,9.0,41.0,1513.6
1513610.0,58.0,54.0,8.0,52.0,1513.61
1513620.0,57.0,54.0,9.0,54.0,1513.62
1513630.0,58.0,53.0,10.0,54.0,1513.63
1513640.0,58.0,53.0,8.0,50.0,1513.64
1513650.0,59.0,51.0,9.0,48.0,1513.65
1513660.0,58.0,51.0,7.0,48.0,1513.66
1513670.0,57.0,50.0,7.0,46.0,1513.67
1513680.0,58.0,49.0,7.0,46.0,1513.68
1513690.0,57.0,49.0,6.0,42.0,1513.69
1513700.0,58.0,48.0,6.0,43.0,1513.7
1513710.0,57.0,46.0,7.0,45.0,1513.71
1513720.0,60.0,45.0,7.0,45.0,1513.72
1513730.0,60.0,44.0,7.0,46.0,1513.73
1513740.0,60.0,44.0,10.0,46.0,1513.74
1513750.0,62.0,43.0,8.0,47.0,1513.75
1513760.0,63.0,43.0,9.0,46.0,1513.76
1513771.0,64.0,42.0,8.0,44.0,1513.771
1513781.0,65.0,41.0,8.0,43.0,1513.781
1513791.0,69.0,40.0,8.0,40.0,1513.791
1513801.0,66.0,41.0,6.0,47.0,1513.801
1513811.0,68.0,40.0,6.0,49.0,1513.811
1513821.0,69.0,40.0,6.0,48.0,1513.821
1513831.0,69.0,40.0,6.0,47.0,1513.831
1513841.0,70.0,38.0,6.0,46.0,1513.841
1513851.0,70.0,39.0,5.0,48.0,1513.851
1513861.0,71.0,40.0,6.0,45.0,1513.861
1513871.0,69.0,41.0,4.0,46.0,1513.871
1513881.0,70.0,42.0,5.0,44.0,1513.881
1513891.0,68.0,45.0,6.0,46.0,1513.891
1513901.0,66.0,47.0,10.0,48.0,1513.901
1513911.0,68.0,46.0,12.0,46.0,1513.911
1513921.0,68.0,48.0,13.0,49.0,1513.921
1513931.0,69.0,48.0,13.0,47.0,1513.931
1513942.0,69.0,48.0,12.0,44.0,1513.942
1513952.0,68.0,48.0,10.0,43.0,1513.952
1513962.0,68.0,46.0,10.0,41.0,1513.962
1513972.0,67.0,47.0,9.0,40.0,1513.972
1513982.0,67.0,46.0,8.0,40.0,1513.982
1513992.0,66.0,47.0,9.0,44.0,1513.992
1514002.0,66.0,46.0,9.0,43.0,1514.002
1514012.0,64.0,47.0,9.0,43.0,1514.012
1514022.0,63.0,47.0,7.0,41.0,1514.022
1514032.0,62.0,47.0,8.0,41.0,1514.032
1514042.0,60.0,48.0,9.0,44.0,1514.042
1514052.0,61.0,46.0,9.0,45.0,1514.052
1514062.0,60.0,47.0,9.0,44.0,1514.062
1514072.0,61.0,47.0,10.0,43.0,1514.072
1514082.0,59.0,48.0,9.0,42.0,1514.082
1514092.0,59.0,48.0,12.0,40.0,1514.092
1514102.0,58.0,49.0,12.0,40.0,1514.102
1514112.0,58.0,47.0,10.0,39.0,1514.112
1514122.0,59.0,46.0,10.0,38.0,1514.122
1514132.0,59.0,47.0,9.0,42.0,1514.132
1514142.0,60.0,45.0,9.0,43.0,1514.142
1514152.0,60.0,46.0,8.0,42.0,1514.152
1514162.0,60.0,47.0,7.0,43.0,1514.162
1514172.0,61.0,47.0,11.0,42.0,1514.172
1514182.0,61.0,48.0,8.0,40.0,1514.182
1514192.0,61.0,48.0,9.0,39.0,1514.192
1514202.0,61.0,51.0,8.0,39.0,1514.202
1514212.0,61.0,52.0,8.0,42.0,1514.212
1514222.0,60.0,51.0,8.0,44.0,1514.222
1514232.0,60.0,51.0,7.0,42.0,1514.232
1514242.0,59.0,51.0,7.0,43.0,1514.242
1514252.0,57.0,52.0,7.0,43.0,1514.252
1514262.0,56.0,52.0,7.0,40.0,1514.262
1514272.0,55.0,52.0,8.0,39.0,1514.272
1514283.0,53.0,51.0,8.0,39.0,1514.283
1514293.0,53.0,50.0,7.0,39.0,1514.293
1514303.0,50.0,50.0,7.0,39.0,1514.303
1514313.0,51.0,49.0,7.0,40.0,1514.313
1514323.0,51.0,51.0,7.0,45.0,1514.323
1514333.0,50.0,51.0,7.0,45.0,1514.333
1514343.0,51.0,51.0,6.0,46.0,1514.343
1514353.0,50.0,53.0,7.0,46.0,1514.353
1514363.0,51.0,51.0,8.0,46.0,1514.363
1514373.0,51.0,52.0,9.0,46.0,1514.373
1514383.0,51.0,51.0,8.0,46.0,1514.383
1514393.0,51.0,52.0,9.0,48.0,1514.393
1514403.0,50.0,50.0,9.0,44.0,1514.403
1514413.0,49.0,50.0,8.0,46.0,1514.413
1514423.0,49.0,48.0,7.0,43.0,1514.423
1514433.0,48.0,49.0,10.0,45.0,1514.433
1514443.0,48.0,48.0,9.0,43.0,1514.443
1514454.0,47.0,46.0,8.0,45.0,1514.454
1514464.0,47.0,46.0,8.0,46.0,1514.464
1514474.0,47.0,44.0,10.0,43.0,1514.474
1514484.0,48.0,44.0,9.0,43.0,1514.484
1514494.0,50.0,42.0,9.0,41.0,1514.494
1514504.0,51.0,39.0,7.0,42.0,1514.504
1514514.0,52.0,39.0,8.0,44.0,1514.514
1514524.0,53.0,38.0,8.0,44.0,1514.524
1514534.0,52.0,40.0,8.0,47.0,1514.534
1514544.0,52.0,39.0,7.0,43.0,1514.544
1514554.0,52.0,38.0,6.0,41.0,1514.554
1514564.0,53.0,38.0,6.0,40.0,1514.564
1514574.0,53.0,38.0,6.0,41.0,1514.574
1514584.0,51.0,38.0,6.0,40.0,1514.584
1514594.0,51.0,38.0,13.0,40.0,1514.594
1514604.0,52.0,38.0,12.0,41.0,1514.604
1514614.0,51.0,40.0,11.0,40.0,1514.614
1514624.0,51.0,39.0,11.0,41.0,1514.624
