time (ms),signal 0,signal 1,signal 2,signal3,time (sec)
1674683.0,46.0,83.0,16.0,105.0,1674.683
1674693.0,48.0,83.0,17.0,99.0,1674.693
1674703.0,46.0,84.0,18.0,98.0,1674.703
1674713.0,47.0,84.0,16.0,101.0,1674.713
1674723.0,47.0,86.0,14.0,105.0,1674.723
1674733.0,49.0,86.0,15.0,106.0,1674.733
1674743.0,51.0,88.0,19.0,106.0,1674.743
1674753.0,49.0,89.0,16.0,105.0,1674.753
1674763.0,51.0,89.0,17.0,109.0,1674.763
1674773.0,50.0,90.0,14.0,109.0,1674.773
1674783.0,51.0,91.0,14.0,105.0,1674.783
1674793.0,51.0,93.0,14.0,106.0,1674.793
1674803.0,51.0,92.0,13.0,106.0,1674.803
1674813.0,53.0,92.0,12.0,112.0,1674.813
1674823.0,53.0,95.0,13.0,104.0,1674.823
1674833.0,55.0,94.0,15.0,106.0,1674.833
1674843.0,56.0,95.0,14.0,99.0,1674.843
1674853.0,55.0,94.0,13.0,92.0,1674.853
1674863.0,57.0,95.0,15.0,94.0,1674.863
1674873.0,58.0,96.0,17.0,94.0,1674.873
1674883.0,58.0,95.0,20.0,92.0,1674.883
1674893.0,59.0,96.0,20.0,87.0,1674.893
1674903.0,59.0,95.0,19.0,82.0,1674.903
1674913.0,60.0,95.0,16.0,96.0,1674.913
1674923.0,61.0,98.0,17.0,105.0,1674.923
1674933.0,61.0,97.0,21.0,113.0,1674.933
1674943.0,61.0,98.0,19.0,114.0,1674.943
1674953.0,62.0,98.0,18.0,104.0,1674.953
1674963.0,62.0,99.0,19.0,107.0,1674.963
1674973.0,61.0,99.0,24.0,113.0,1674.973
1674983.0,62.0,99.0,21.0,110.0,1674.983
1674993.0,60.0,99.0,18.0,112.0,1674.993
1675003.0,59.0,97.0,17.0,116.0,1675.003
1675013.0,58.0,99.0,16.0,117.0,1675.013
1675023.0,58.0,98.0,19.0,116.0,1675.023
1675033.0,56.0,97.0,18.0,110.0,1675.033
1675043.0,56.0,96.0,16.0,110.0,1675.043
1675053.0,56.0,95.0,15.0,107.0,1675.053
1675063.0,54.0,94.0,14.0,114.0,1675.063
1675073.0,55.0,94.0,15.0,116.0,1675.073
1675083.0,55.0,94.0,14.0,116.0,1675.083
1675094.0,55.0,92.0,17.0,106.0,1675.094
1675104.0,55.0,91.0,20.0,105.0,1675.104
1675114.0,55.0,91.0,17.0,102.0,1675.114
1675124.0,56.0,90.0,15.0,99.0,1675.124
1675134.0,54.0,89.0,14.0,100.0,1675.134
1675144.0,54.0,88.0,13.0,109.0,1675.144
1675154.0,54.0,89.0,12.0,108.0,1675.154
1675164.0,53.0,87.0,11.0,103.0,1675.164
1675174.0,53.0,86.0,11.0,95.0,1675.174
1675184.0,52.0,85.0,11.0,92.0,1675.184
1675194.0,53.0,86.0,15.0,106.0,1675.194
1675204.0,51.0,85.0,13.0,117.0,1675.204
1675214.0,51.0,85.0,12.0,123.0,1675.214
1675224.0,50.0,85.0,14.0,123.0,1675.224
1675234.0,49.0,86.0,16.0,122.0,1675.234
1675244.0,50.0,86.0,16.0,122.0,1675.244
1675254.0,50.0,85.0,19.0,115.0,1675.254
1675264.0,49.0,85.0,20.0,111.0,1675.264
1675274.0,50.0,86.0,17.0,110.0,1675.274
1675284.0,48.0,85.0,15.0,109.0,1675.284
1675294.0,49.0,86.0,24.0,109.0,1675.294
1675304.0,51.0,87.0,29.0,118.0,1675.304
1675314.0,52.0,85.0,27.0,122.0,1675.314
1675324.0,51.0,83.0,24.0,118.0,1675.324
1675334.0,52.0,84.0,24.0,121.0,1675.334
1675344.0,53.0,85.0,24.0,131.0,1675.344
1675354.0,52.0,86.0,22.0,125.0,1675.354
1675364.0,52.0,85.0,22.0,118.0,1675.364
1675374.0,51.0,87.0,21.0,120.0,1675.374
1675384.0,51.0,85.0,19.0,116.0,1675.384
1675394.0,52.0,86.0,17.0,122.0,1675.394
1675404.0,52.0,87.0,15.0,128.0,1675.404
1675414.0,52.0,88.0,22.0,123.0,1675.414
1675424.0,52.0,90.0,26.0,125.0,1675.424
1675435.0,51.0,89.0,25.0,133.0,1675.435
1675445.0,50.0,90.0,22.0,138.0,1675.445
1675455.0,50.0,88.0,19.0,133.0,1675.455
1675465.0,50.0,90.0,23.0,138.0,1675.465
1675475.0,49.0,89.0,25.0,134.0,1675.475
1675485.0,51.0,88.0,26.0,127.0,1675.485
1675495.0,48.0,88.0,22.0,120.0,1675.495
1675505.0,49.0,87.0,22.0,113.0,1675.505
1675515.0,49.0,87.0,23.0,108.0,1675.515
1675525.0,48.0,87.0,29.0,102.0,1675.525
1675535.0,48.0,86.0,25.0,102.0,1675.535
1675545.0,47.0,86.0,22.0,97.0,1675.545
1675555.0,47.0,85.0,24.0,97.0,1675.555
1675565.0,46.0,83.0,20.0,98.0,1675.565
1675575.0,46.0,84.0,18.0,93.0,1675.575
1675585.0,46.0,85.0,18.0,96.0,1675.585
1675595.0,46.0,85.0,17.0,88.0,1675.595
1675606.0,45.0,84.0,17.0,82.0,1675.606
1675616.0,44.0,84.0,13.0,80.0,1675.616
1675626.0,45.0,83.0,18.0,74.0,1675.626
1675636.0,45.0,82.0,16.0,75.0,1675.636
1675646.0,45.0,81.0,14.0,73.0,1675.646
1675656.0,46.0,82.0,14.0,77.0,1675.656
1675666.0,47.0,82.0,13.0,83.0,1675.666
1675676.0,47.0,80.0,11.0,94.0,1675.676
1675686.0,49.0,78.0,11.0,93.0,1675.686
1675696.0,53.0,77.0,13.0,93.0,1675.696
1675706.0,56.0,75.0,11.0,101.0,1675.706
1675716.0,55.0,74.0,10.0,99.0,1675.716
1675726.0,59.0,73.0,11.0,96.0,1675.726
1675736.0,66.0,75.0,10.0,94.0,1675.736
1675746.0,68.0,76.0,9.0,99.0,1675.746
1675756.0,85.0,73.0,9.0,98.0,1675.756
1675766.0,87.0,77.0,9.0,122.0,1675.766
1675776.0,113.0,81.0,9.0,123.0,1675.776
1675786.0,122.0,94.0,8.0,128.0,1675.786
1675796.0,133.0,99.0,8.0,140.0,1675.796
1675806.0,128.0,109.0,9.0,160.0,1675.806
1675816.0,123.0,128.0,20.0,179.0,1675.816
1675826.0,125.0,133.0,25.0,180.0,1675.826
1675836.0,125.0,132.0,29.0,187.0,1675.836
1675846.0,126.0,120.0,25.0,180.0,1675.846
1675856.0,124.0,113.0,28.0,171.0,1675.856
1675866.0,123.0,106.0,46.0,158.0,1675.866
1675876.0,123.0,104.0,46.0,167.0,1675.876
1675886.0,117.0,99.0,40.0,173.0,1675.886
1675896.0,123.0,115.0,35.0,161.0,1675.896
1675906.0,121.0,118.0,41.0,160.0,1675.906
1675916.0,114.0,110.0,50.0,168.0,1675.916
1675926.0,108.0,101.0,44.0,167.0,1675.926
1675936.0,103.0,95.0,43.0,169.0,1675.936
1675947.0,108.0,98.0,43.0,153.0,1675.947
1675957.0,107.0,93.0,63.0,154.0,1675.957
1675967.0,104.0,85.0,58.0,148.0,1675.967
1675977.0,100.0,85.0,65.0,163.0,1675.977
1675987.0,96.0,82.0,61.0,165.0,1675.987
1675997.0,93.0,77.0,58.0,166.0,1675.997
1676007.0,88.0,73.0,53.0,155.0,1676.007
1676017.0,92.0,73.0,56.0,150.0,1676.017
1676027.0,88.0,72.0,73.0,150.0,1676.027
1676037.0,86.0,71.0,86.0,148.0,1676.037
1676047.0,84.0,66.0,77.0,149.0,1676.047
1676057.0,85.0,64.0,69.0,142.0,1676.057
1676067.0,85.0,61.0,62.0,139.0,1676.067
1676077.0,82.0,59.0,60.0,133.0,1676.077
1676087.0,80.0,57.0,53.0,134.0,1676.087
1676097.0,75.0,56.0,47.0,133.0,1676.097
1676107.0,74.0,55.0,41.0,127.0,1676.107
1676118.0,73.0,56.0,37.0,128.0,1676.118
1676128.0,69.0,55.0,44.0,126.0,1676.128
1676138.0,68.0,55.0,49.0,123.0,1676.138
1676148.0,68.0,58.0,46.0,123.0,1676.148
1676158.0,72.0,56.0,53.0,119.0,1676.158
1676168.0,71.0,62.0,50.0,119.0,1676.168
1676178.0,72.0,64.0,43.0,110.0,1676.178
1676188.0,71.0,67.0,39.0,105.0,1676.188
1676198.0,73.0,69.0,36.0,106.0,1676.198
1676208.0,71.0,70.0,33.0,107.0,1676.208
1676218.0,68.0,71.0,32.0,106.0,1676.218
1676228.0,66.0,72.0,32.0,96.0,1676.228
1676238.0,66.0,80.0,31.0,103.0,1676.238
1676248.0,66.0,83.0,35.0,97.0,1676.248
1676258.0,71.0,86.0,43.0,101.0,1676.258
1676268.0,71.0,90.0,39.0,104.0,1676.268
1676278.0,70.0,91.0,37.0,97.0,1676.278
1676288.0,68.0,94.0,36.0,101.0,1676.288
1676298.0,71.0,96.0,33.0,103.0,1676.298
1676308.0,73.0,97.0,32.0,109.0,1676.308
1676318.0,72.0,100.0,31.0,109.0,1676.318
1676328.0,74.0,98.0,30.0,103.0,1676.328
1676338.0,75.0,100.0,29.0,102.0,1676.338
1676348.0,79.0,99.0,33.0,102.0,1676.348
1676358.0,74.0,103.0,42.0,106.0,1676.358
1676368.0,74.0,103.0,45.0,108.0,1676.368
1676378.0,72.0,103.0,43.0,109.0,1676.378
1676388.0,70.0,104.0,43.0,108.0,1676.388
1676398.0,75.0,101.0,40.0,101.0,1676.398
1676408.0,73.0,100.0,44.0,109.0,1676.408
1676418.0,71.0,100.0,41.0,105.0,1676.418
1676428.0,70.0,98.0,37.0,109.0,1676.428
1676438.0,67.0,97.0,39.0,110.0,1676.438
1676448.0,67.0,95.0,44.0,121.0,1676.448
1676459.0,69.0,97.0,39.0,124.0,1676.459
1676469.0,68.0,95.0,44.0,124.0,1676.469
1676479.0,65.0,95.0,39.0,119.0,1676.479
1676489.0,65.0,94.0,39.0,113.0,1676.489
1676499.0,69.0,94.0,40.0,110.0,1676.499
1676509.0,68.0,92.0,36.0,111.0,1676.509
1676519.0,68.0,91.0,34.0,109.0,1676.519
1676529.0,65.0,90.0,33.0,105.0,1676.529
1676539.0,63.0,88.0,35.0,104.0,1676.539
1676549.0,61.0,87.0,33.0,102.0,1676.549
1676559.0,60.0,85.0,33.0,102.0,1676.559
1676569.0,61.0,83.0,30.0,98.0,1676.569
1676579.0,60.0,80.0,32.0,104.0,1676.579
1676589.0,59.0,78.0,37.0,103.0,1676.589
1676599.0,61.0,77.0,33.0,97.0,1676.599
1676609.0,60.0,75.0,29.0,97.0,1676.609
1676619.0,62.0,71.0,26.0,94.0,1676.619
1676630.0,61.0,72.0,33.0,102.0,1676.63
1676640.0,62.0,66.0,37.0,99.0,1676.64
1676650.0,58.0,67.0,38.0,105.0,1676.65
1676660.0,59.0,64.0,34.0,106.0,1676.66
1676670.0,59.0,62.0,29.0,109.0,1676.67
1676680.0,57.0,62.0,27.0,106.0,1676.68
1676690.0,65.0,62.0,33.0,101.0,1676.69
1676700.0,61.0,64.0,29.0,110.0,1676.7
1676710.0,64.0,64.0,43.0,110.0,1676.71
1676720.0,62.0,64.0,38.0,112.0,1676.72
1676730.0,60.0,61.0,35.0,111.0,1676.73
1676740.0,61.0,60.0,34.0,113.0,1676.74
1676750.0,61.0,58.0,35.0,108.0,1676.75
1676760.0,59.0,58.0,32.0,108.0,1676.76
1676770.0,56.0,58.0,28.0,110.0,1676.77
1676780.0,58.0,55.0,25.0,104.0,1676.78
1676790.0,58.0,53.0,22.0,102.0,1676.79
1676800.0,58.0,53.0,30.0,108.0,1676.8
1676810.0,58.0,52.0,27.0,103.0,1676.81
1676820.0,59.0,53.0,29.0,101.0,1676.82
1676830.0,59.0,54.0,28.0,100.0,1676.83
1676840.0,57.0,52.0,27.0,102.0,1676.84
1676850.0,57.0,51.0,27.0,105.0,1676.85
1676860.0,58.0,50.0,24.0,103.0,1676.86
1676870.0,56.0,49.0,20.0,100.0,1676.87
1676880.0,56.0,49.0,23.0,96.0,1676.88
1676890.0,55.0,50.0,21.0,94.0,1676.89
1676900.0,54.0,48.0,19.0,90.0,1676.9
1676910.0,54.0,50.0,19.0,92.0,1676.91
1676920.0,55.0,50.0,21.0,89.0,1676.92
1676930.0,56.0,51.0,20.0,87.0,1676.93
1676940.0,55.0,50.0,18.0,91.0,1676.94
1676950.0,55.0,48.0,17.0,91.0,1676.95
1676960.0,56.0,48.0,17.0,104.0,1676.96
1676971.0,55.0,48.0,15.0,129.0,1676.971
1676981.0,55.0,47.0,15.0,142.0,1676.981
1676991.0,54.0,46.0,13.0,147.0,1676.991
1677001.0,55.0,46.0,12.0,141.0,1677.001
1677011.0,55.0,47.0,10.0,140.0,1677.011
1677021.0,55.0,46.0,10.0,137.0,1677.021
1677031.0,56.0,47.0,10.0,133.0,1677.031
1677041.0,57.0,49.0,9.0,127.0,1677.041
1677051.0,56.0,49.0,9.0,125.0,1677.051
1677061.0,56.0,50.0,13.0,127.0,1677.061
1677071.0,55.0,48.0,15.0,126.0,1677.071
1677081.0,53.0,47.0,15.0,122.0,1677.081
1677091.0,54.0,48.0,16.0,117.0,1677.091
1677101.0,53.0,48.0,15.0,114.0,1677.101
1677111.0,57.0,50.0,15.0,104.0,1677.111
1677121.0,56.0,48.0,17.0,105.0,1677.121
1677131.0,54.0,49.0,20.0,106.0,1677.131
1677142.0,53.0,49.0,21.0,105.0,1677.142
1677152.0,53.0,47.0,18.0,104.0,1677.152
1677162.0,54.0,48.0,18.0,101.0,1677.162
1677172.0,53.0,46.0,15.0,98.0,1677.172
1677182.0,54.0,46.0,16.0,100.0,1677.182
1677192.0,55.0,44.0,18.0,100.0,1677.192
1677202.0,53.0,44.0,17.0,96.0,1677.202
1677212.0,53.0,43.0,20.0,91.0,1677.212
1677222.0,52.0,45.0,20.0,97.0,1677.222
1677232.0,50.0,46.0,18.0,99.0,1677.232
1677242.0,50.0,45.0,19.0,94.0,1677.242
1677252.0,51.0,48.0,17.0,96.0,1677.252
1677262.0,50.0,50.0,16.0,100.0,1677.262
1677272.0,50.0,52.0,14.0,97.0,1677.272
1677282.0,47.0,55.0,15.0,101.0,1677.282
1677292.0,49.0,56.0,14.0,97.0,1677.292
1677302.0,48.0,60.0,12.0,104.0,1677.302
1677312.0,47.0,61.0,12.0,100.0,1677.312
1677322.0,48.0,63.0,10.0,104.0,1677.322
1677332.0,50.0,62.0,15.0,106.0,1677.332
1677342.0,51.0,63.0,14.0,111.0,1677.342
1677352.0,52.0,64.0,17.0,109.0,1677.352
1677362.0,53.0,64.0,18.0,109.0,1677.362
1677372.0,52.0,66.0,25.0,110.0,1677.372
1677382.0,52.0,67.0,25.0,109.0,1677.382
1677392.0,54.0,68.0,27.0,109.0,1677.392
1677402.0,53.0,69.0,24.0,104.0,1677.402
1677412.0,53.0,70.0,24.0,108.0,1677.412
1677422.0,54.0,69.0,26.0,101.0,1677.422
1677432.0,55.0,72.0,27.0,99.0,1677.432
1677442.0,52.0,75.0,27.0,104.0,1677.442
1677452.0,52.0,77.0,27.0,103.0,1677.452
1677462.0,53.0,79.0,25.0,105.0,1677.462
1677472.0,57.0,81.0,27.0,100.0,1677.472
1677483.0,56.0,82.0,36.0,98.0,1677.483
1677493.0,58.0,85.0,35.0,96.0,1677.493
1677503.0,56.0,89.0,33.0,103.0,1677.503
1677513.0,56.0,88.0,28.0,103.0,1677.513
1677523.0,55.0,88.0,26.0,101.0,1677.523
1677533.0,56.0,89.0,25.0,105.0,1677.533
1677543.0,54.0,92.0,23.0,104.0,1677.543
1677553.0,53.0,92.0,21.0,105.0,1677.553
1677563.0,51.0,94.0,19.0,104.0,1677.563
1677573.0,51.0,94.0,18.0,105.0,1677.573
1677583.0,54.0,96.0,16.0,103.0,1677.583
1677593.0,52.0,98.0,18.0,103.0,1677.593
1677603.0,52.0,99.0,16.0,103.0,1677.603
1677613.0,51.0,102.0,18.0,104.0,1677.613
1677623.0,49.0,102.0,17.0,102.0,1677.623
1677633.0,49.0,103.0,16.0,93.0,1677.633
1677643.0,49.0,105.0,19.0,98.0,1677.643
1677654.0,49.0,106.0,16.0,95.0,1677.654
1677664.0,46.0,106.0,14.0,90.0,1677.664
1677674.0,47.0,106.0,14.0,93.0,1677.674
1677684.0,47.0,106.0,15.0,88.0,1677.684
1677694.0,48.0,106.0,14.0,87.0,1677.694
1677704.0,50.0,106.0,14.0,85.0,1677.704
1677714.0,52.0,110.0,13.0,91.0,1677.714
1677724.0,51.0,107.0,12.0,86.0,1677.724
1677734.0,51.0,110.0,13.0,87.0,1677.734
1677744.0,50.0,108.0,17.0,87.0,1677.744
1677754.0,53.0,111.0,17.0,90.0,1677.754
1677764.0,53.0,112.0,17.0,84.0,1677.764
1677774.0,55.0,114.0,18.0,91.0,1677.774
1677784.0,57.0,117.0,17.0,90.0,1677.784
1677794.0,57.0,118.0,19.0,91.0,1677.794
1677804.0,55.0,118.0,16.0,88.0,1677.804
1677814.0,54.0,118.0,16.0,84.0,1677.814
1677824.0,54.0,120.0,14.0,84.0,1677.824
1677834.0,56.0,123.0,14.0,84.0,1677.834
1677844.0,56.0,124.0,13.0,87.0,1677.844
1677854.0,56.0,125.0,11.0,86.0,1677.854
1677864.0,57.0,128.0,12.0,85.0,1677.864
1677874.0,56.0,129.0,12.0,80.0,1677.874
1677884.0,55.0,130.0,13.0,80.0,1677.884
1677894.0,59.0,133.0,15.0,85.0,1677.894
1677904.0,59.0,136.0,14.0,85.0,1677.904
1677914.0,62.0,138.0,13.0,86.0,1677.914
1677924.0,63.0,139.0,11.0,83.0,1677.924
1677934.0,65.0,141.0,13.0,80.0,1677.934
1677944.0,67.0,144.0,11.0,77.0,1677.944
1677954.0,66.0,145.0,10.0,71.0,1677.954
1677964.0,68.0,147.0,10.0,73.0,1677.964
1677974.0,71.0,151.0,11.0,76.0,1677.974
1677984.0,72.0,152.0,13.0,72.0,1677.984
1677995.0,74.0,158.0,15.0,77.0,1677.995
1678005.0,75.0,161.0,15.0,77.0,1678.005
1678015.0,77.0,164.0,14.0,78.0,1678.015
1678025.0,76.0,167.0,14.0,76.0,1678.025
1678035.0,76.0,168.0,13.0,71.0,1678.035
1678045.0,77.0,171.0,15.0,77.0,1678.045
1678055.0,79.0,174.0,14.0,79.0,1678.055
1678065.0,80.0,176.0,12.0,78.0,1678.065
1678075.0,79.0,177.0,11.0,74.0,1678.075
1678085.0,81.0,179.0,11.0,75.0,1678.085
1678095.0,78.0,181.0,10.0,73.0,1678.095
1678105.0,76.0,182.0,10.0,73.0,1678.105
1678115.0,76.0,184.0,9.0,70.0,1678.115
1678125.0,79.0,189.0,10.0,71.0,1678.125
1678135.0,81.0,192.0,9.0,78.0,1678.135
1678145.0,81.0,194.0,8.0,75.0,1678.145
1678155.0,83.0,195.0,11.0,72.0,1678.155
1678166.0,84.0,197.0,10.0,70.0,1678.166
1678176.0,83.0,196.0,10.0,73.0,1678.176
1678186.0,84.0,200.0,13.0,109.0,1678.186
1678196.0,86.0,204.0,14.0,129.0,1678.196
1678206.0,86.0,207.0,14.0,138.0,1678.206
1678216.0,87.0,211.0,12.0,146.0,1678.216
1678226.0,88.0,214.0,12.0,146.0,1678.226
1678236.0,88.0,216.0,10.0,135.0,1678.236
1678246.0,87.0,218.0,11.0,125.0,1678.246
1678256.0,88.0,220.0,10.0,119.0,1678.256
1678266.0,88.0,223.0,13.0,112.0,1678.266
1678276.0,88.0,226.0,12.0,114.0,1678.276
1678286.0,87.0,228.0,11.0,112.0,1678.286
1678296.0,90.0,232.0,12.0,112.0,1678.296
1678306.0,89.0,232.0,10.0,110.0,1678.306
1678316.0,90.0,236.0,9.0,113.0,1678.316
1678326.0,89.0,236.0,13.0,105.0,1678.326
1678336.0,91.0,241.0,15.0,111.0,1678.336
1678346.0,92.0,244.0,14.0,102.0,1678.346
1678356.0,93.0,248.0,13.0,96.0,1678.356
1678366.0,92.0,252.0,11.0,98.0,1678.366
1678376.0,94.0,253.0,12.0,97.0,1678.376
1678386.0,96.0,257.0,12.0,96.0,1678.386
1678396.0,95.0,257.0,11.0,93.0,1678.396
1678406.0,96.0,260.0,10.0,91.0,1678.406
1678416.0,95.0,262.0,10.0,84.0,1678.416
1678426.0,95.0,261.0,11.0,83.0,1678.426
1678436.0,96.0,263.0,11.0,86.0,1678.436
1678446.0,98.0,263.0,10.0,85.0,1678.446
1678456.0,99.0,263.0,9.0,80.0,1678.456
1678466.0,100.0,265.0,10.0,77.0,1678.466
1678476.0,102.0,265.0,10.0,77.0,1678.476
1678486.0,103.0,266.0,11.0,79.0,1678.486
1678496.0,105.0,266.0,17.0,74.0,1678.496
1678507.0,104.0,263.0,22.0,79.0,1678.507
1678517.0,108.0,264.0,21.0,82.0,1678.517
1678527.0,107.0,264.0,18.0,82.0,1678.527
1678537.0,107.0,264.0,20.0,84.0,1678.537
1678547.0,106.0,264.0,18.0,84.0,1678.547
1678557.0,102.0,261.0,16.0,81.0,1678.557
1678567.0,103.0,260.0,16.0,78.0,1678.567
1678577.0,100.0,258.0,14.0,78.0,1678.577
1678587.0,101.0,258.0,15.0,80.0,1678.587
1678597.0,100.0,258.0,13.0,80.0,1678.597
1678607.0,98.0,256.0,12.0,84.0,1678.607
1678617.0,99.0,253.0,12.0,79.0,1678.617
1678627.0,98.0,252.0,11.0,79.0,1678.627
1678637.0,99.0,250.0,12.0,80.0,1678.637
1678647.0,101.0,249.0,11.0,80.0,1678.647
1678657.0,103.0,248.0,12.0,77.0,1678.657
1678667.0,104.0,245.0,10.0,74.0,1678.667
1678678.0,103.0,241.0,13.0,73.0,1678.678
1678688.0,106.0,241.0,15.0,79.0,1678.688
1678698.0,105.0,240.0,14.0,76.0,1678.698
1678708.0,103.0,237.0,13.0,75.0,1678.708
1678718.0,104.0,235.0,11.0,76.0,1678.718
1678728.0,103.0,233.0,11.0,79.0,1678.728
1678738.0,104.0,232.0,12.0,78.0,1678.738
1678748.0,102.0,231.0,10.0,78.0,1678.748
1678758.0,102.0,229.0,11.0,78.0,1678.758
1678768.0,103.0,229.0,10.0,85.0,1678.768
1678778.0,100.0,226.0,9.0,82.0,1678.778
1678788.0,102.0,224.0,9.0,85.0,1678.788
1678798.0,100.0,221.0,9.0,82.0,1678.798
1678808.0,102.0,221.0,8.0,86.0,1678.808
1678818.0,102.0,221.0,8.0,88.0,1678.818
1678828.0,102.0,218.0,7.0,88.0,1678.828
1678838.0,102.0,218.0,7.0,89.0,1678.838
1678848.0,103.0,217.0,6.0,83.0,1678.848
1678858.0,101.0,214.0,6.0,83.0,1678.858
1678868.0,100.0,210.0,7.0,79.0,1678.868
1678878.0,100.0,210.0,7.0,81.0,1678.878
1678888.0,98.0,210.0,6.0,79.0,1678.888
1678898.0,98.0,211.0,5.0,77.0,1678.898
1678908.0,98.0,209.0,5.0,73.0,1678.908
1678918.0,98.0,210.0,5.0,71.0,1678.918
1678928.0,98.0,208.0,5.0,66.0,1678.928
1678938.0,97.0,206.0,4.0,62.0,1678.938
1678948.0,97.0,206.0,5.0,59.0,1678.948
1678958.0,96.0,203.0,4.0,56.0,1678.958
1678968.0,96.0,204.0,4.0,59.0,1678.968
1678978.0,98.0,202.0,4.0,59.0,1678.978
1678988.0,97.0,202.0,7.0,63.0,1678.988
1678998.0,97.0,199.0,6.0,60.0,1678.998
1679008.0,96.0,197.0,6.0,60.0,1679.008
1679019.0,95.0,195.0,7.0,59.0,1679.019
1679029.0,91.0,188.0,10.0,59.0,1679.029
1679039.0,92.0,186.0,16.0,74.0,1679.039
1679049.0,93.0,178.0,29.0,73.0,1679.049
1679059.0,89.0,178.0,27.0,76.0,1679.059
1679069.0,91.0,172.0,46.0,90.0,1679.069
1679079.0,97.0,178.0,69.0,109.0,1679.079
1679089.0,104.0,180.0,72.0,116.0,1679.089
1679099.0,109.0,182.0,69.0,128.0,1679.099
1679109.0,108.0,177.0,60.0,126.0,1679.109
1679119.0,106.0,172.0,53.0,125.0,1679.119
1679129.0,105.0,168.0,47.0,125.0,1679.129
1679139.0,103.0,163.0,47.0,120.0,1679.139
1679149.0,104.0,161.0,53.0,132.0,1679.149
1679159.0,101.0,156.0,66.0,148.0,1679.159
1679169.0,106.0,159.0,73.0,141.0,1679.169
1679179.0,109.0,161.0,66.0,146.0,1679.179
1679190.0,110.0,160.0,63.0,146.0,1679.19
1679200.0,114.0,160.0,71.0,184.0,1679.2
1679210.0,119.0,166.0,83.0,200.0,1679.21
1679220.0,122.0,166.0,81.0,193.0,1679.22
1679230.0,125.0,168.0,81.0,188.0,1679.23
1679240.0,125.0,165.0,81.0,183.0,1679.24
1679250.0,127.0,165.0,77.0,180.0,1679.25
1679260.0,126.0,160.0,78.0,178.0,1679.26
1679270.0,126.0,155.0,79.0,163.0,1679.27
1679280.0,124.0,152.0,79.0,163.0,1679.28
1679290.0,125.0,148.0,71.0,174.0,1679.29
1679300.0,121.0,140.0,88.0,178.0,1679.3
1679310.0,120.0,136.0,91.0,167.0,1679.31
1679320.0,119.0,131.0,80.0,172.0,1679.32
1679330.0,116.0,125.0,70.0,166.0,1679.33
1679340.0,114.0,118.0,76.0,169.0,1679.34
1679350.0,112.0,112.0,67.0,181.0,1679.35
1679360.0,111.0,105.0,74.0,185.0,1679.36
1679370.0,109.0,101.0,91.0,185.0,1679.37
1679380.0,108.0,97.0,81.0,188.0,1679.38
1679390.0,106.0,91.0,75.0,180.0,1679.39
1679400.0,104.0,91.0,66.0,182.0,1679.4
1679410.0,102.0,87.0,64.0,201.0,1679.41
1679420.0,98.0,84.0,72.0,202.0,1679.42
1679430.0,97.0,81.0,70.0,198.0,1679.43
1679440.0,96.0,76.0,62.0,193.0,1679.44
1679450.0,96.0,75.0,55.0,178.0,1679.45
1679460.0,95.0,72.0,51.0,179.0,1679.46
1679470.0,90.0,69.0,54.0,178.0,1679.47
1679480.0,89.0,68.0,54.0,169.0,1679.48
1679490.0,89.0,65.0,51.0,162.0,1679.49
1679500.0,88.0,64.0,64.0,157.0,1679.5
1679510.0,88.0,63.0,61.0,164.0,1679.51
1679520.0,86.0,62.0,53.0,197.0,1679.52
1679531.0,90.0,63.0,50.0,219.0,1679.531
1679541.0,88.0,60.0,44.0,210.0,1679.541
1679551.0,87.0,58.0,43.0,197.0,1679.551
1679561.0,86.0,56.0,38.0,191.0,1679.561
1679571.0,84.0,53.0,33.0,190.0,1679.571
1679581.0,83.0,54.0,44.0,194.0,1679.581
1679591.0,81.0,52.0,41.0,188.0,1679.591
1679601.0,81.0,50.0,45.0,182.0,1679.601
1679611.0,79.0,48.0,40.0,184.0,1679.611
1679621.0,76.0,48.0,37.0,187.0,1679.621
1679631.0,76.0,47.0,38.0,188.0,1679.631
1679641.0,74.0,47.0,34.0,180.0,1679.641
1679651.0,74.0,46.0,31.0,187.0,1679.651
1679661.0,73.0,48.0,35.0,187.0,1679.661
1679671.0,72.0,46.0,36.0,192.0,1679.671
1679681.0,71.0,51.0,50.0,185.0,1679.681
1679691.0,70.0,51.0,46.0,170.0,1679.691
1679702.0,69.0,51.0,40.0,166.0,1679.702
1679712.0,69.0,51.0,37.0,167.0,1679.712
1679722.0,68.0,49.0,32.0,166.0,1679.722
1679732.0,66.0,53.0,36.0,157.0,1679.732
1679742.0,66.0,51.0,33.0,161.0,1679.742
1679752.0,65.0,50.0,34.0,151.0,1679.752
1679762.0,64.0,50.0,30.0,145.0,1679.762
1679772.0,63.0,49.0,26.0,152.0,1679.772
1679782.0,61.0,49.0,24.0,142.0,1679.782
1679792.0,61.0,50.0,23.0,157.0,1679.792
1679802.0,60.0,50.0,24.0,154.0,1679.802
1679812.0,60.0,49.0,24.0,149.0,1679.812
1679822.0,60.0,51.0,27.0,151.0,1679.822
1679832.0,59.0,51.0,28.0,150.0,1679.832
1679842.0,58.0,53.0,28.0,152.0,1679.842
1679852.0,57.0,52.0,25.0,152.0,1679.852
1679862.0,57.0,52.0,31.0,147.0,1679.862
1679872.0,57.0,52.0,29.0,152.0,1679.872
1679882.0,55.0,53.0,25.0,149.0,1679.882
1679892.0,57.0,56.0,26.0,157.0,1679.892
1679902.0,56.0,56.0,32.0,166.0,1679.902
1679912.0,54.0,56.0,35.0,165.0,1679.912
1679922.0,55.0,56.0,40.0,162.0,1679.922
1679932.0,54.0,57.0,35.0,160.0,1679.932
1679942.0,55.0,56.0,35.0,156.0,1679.942
1679952.0,54.0,57.0,33.0,146.0,1679.952
1679962.0,53.0,56.0,32.0,146.0,1679.962
1679972.0,53.0,53.0,30.0,149.0,1679.972
1679982.0,54.0,54.0,26.0,152.0,1679.982
1679992.0,54.0,52.0,23.0,147.0,1679.992
1680002.0,54.0,54.0,21.0,139.0,1680.002
1680012.0,54.0,54.0,18.0,131.0,1680.012
1680022.0,51.0,53.0,16.0,128.0,1680.022
1680032.0,50.0,52.0,15.0,120.0,1680.032
1680043.0,49.0,49.0,13.0,112.0,1680.043
1680053.0,48.0,48.0,12.0,107.0,1680.053
1680063.0,48.0,46.0,12.0,96.0,1680.063
1680073.0,47.0,46.0,10.0,88.0,1680.073
1680083.0,48.0,44.0,19.0,88.0,1680.083
1680093.0,48.0,45.0,21.0,83.0,1680.093
1680103.0,48.0,43.0,20.0,79.0,1680.103
1680113.0,49.0,43.0,24.0,91.0,1680.113
1680123.0,48.0,43.0,20.0,107.0,1680.123
1680133.0,48.0,42.0,20.0,108.0,1680.133
1680143.0,48.0,43.0,19.0,103.0,1680.143
1680153.0,47.0,42.0,17.0,100.0,1680.153
1680163.0,46.0,40.0,16.0,103.0,1680.163
1680173.0,45.0,41.0,15.0,98.0,1680.173
1680183.0,47.0,40.0,15.0,94.0,1680.183
1680193.0,45.0,40.0,16.0,95.0,1680.193
1680203.0,45.0,39.0,13.0,109.0,1680.203
1680214.0,46.0,41.0,13.0,106.0,1680.214
1680224.0,47.0,42.0,16.0,118.0,1680.224
1680234.0,46.0,41.0,15.0,108.0,1680.234
1680244.0,47.0,42.0,13.0,129.0,1680.244
1680254.0,47.0,43.0,14.0,138.0,1680.254
1680264.0,46.0,43.0,12.0,130.0,1680.264
1680274.0,46.0,45.0,11.0,121.0,1680.274
1680284.0,46.0,47.0,10.0,115.0,1680.284
1680294.0,45.0,49.0,9.0,116.0,1680.294
1680304.0,45.0,49.0,9.0,112.0,1680.304
1680314.0,45.0,51.0,9.0,120.0,1680.314
1680324.0,45.0,52.0,9.0,112.0,1680.324
1680334.0,45.0,53.0,8.0,105.0,1680.334
1680344.0,45.0,54.0,9.0,121.0,1680.344
1680354.0,45.0,56.0,8.0,124.0,1680.354
1680364.0,45.0,59.0,7.0,118.0,1680.364
1680374.0,46.0,60.0,8.0,112.0,1680.374
1680384.0,47.0,61.0,7.0,113.0,1680.384
1680394.0,47.0,61.0,8.0,106.0,1680.394
1680404.0,48.0,62.0,7.0,131.0,1680.404
1680414.0,48.0,62.0,7.0,128.0,1680.414
1680424.0,48.0,63.0,6.0,125.0,1680.424
1680434.0,48.0,64.0,6.0,125.0,1680.434
1680444.0,47.0,65.0,6.0,121.0,1680.444
1680454.0,48.0,65.0,5.0,131.0,1680.454
1680464.0,48.0,66.0,7.0,130.0,1680.464
1680474.0,48.0,66.0,7.0,123.0,1680.474
1680484.0,47.0,66.0,5.0,117.0,1680.484
1680494.0,48.0,66.0,6.0,108.0,1680.494
1680504.0,46.0,67.0,6.0,110.0,1680.504
1680514.0,46.0,69.0,7.0,107.0,1680.514
1680524.0,48.0,72.0,7.0,111.0,1680.524
1680534.0,47.0,73.0,6.0,111.0,1680.534
1680544.0,47.0,74.0,6.0,106.0,1680.544
1680555.0,46.0,75.0,6.0,110.0,1680.555
1680565.0,47.0,75.0,10.0,106.0,1680.565
1680575.0,47.0,77.0,8.0,111.0,1680.575
1680585.0,47.0,76.0,8.0,114.0,1680.585
1680595.0,47.0,75.0,9.0,114.0,1680.595
1680605.0,47.0,76.0,8.0,116.0,1680.605
1680615.0,47.0,75.0,8.0,118.0,1680.615
1680625.0,46.0,78.0,10.0,110.0,1680.625
1680635.0,46.0,79.0,10.0,129.0,1680.635
1680645.0,47.0,80.0,9.0,127.0,1680.645
1680655.0,48.0,82.0,8.0,124.0,1680.655
1680665.0,48.0,82.0,11.0,122.0,1680.665
1680675.0,49.0,86.0,17.0,129.0,1680.675
1680685.0,50.0,85.0,19.0,142.0,1680.685
1680695.0,49.0,86.0,17.0,142.0,1680.695
1680705.0,49.0,87.0,15.0,133.0,1680.705
1680715.0,49.0,86.0,13.0,123.0,1680.715
1680726.0,49.0,89.0,11.0,116.0,1680.726
1680736.0,48.0,88.0,11.0,121.0,1680.736
1680746.0,48.0,90.0,9.0,118.0,1680.746
1680756.0,48.0,92.0,15.0,108.0,1680.756
1680766.0,48.0,94.0,15.0,136.0,1680.766
1680776.0,48.0,93.0,13.0,136.0,1680.776
1680786.0,46.0,93.0,11.0,127.0,1680.786
1680796.0,45.0,95.0,11.0,122.0,1680.796
1680806.0,46.0,96.0,10.0,110.0,1680.806
1680816.0,45.0,96.0,9.0,104.0,1680.816
1680826.0,45.0,98.0,8.0,94.0,1680.826
1680836.0,47.0,99.0,8.0,93.0,1680.836
1680846.0,46.0,100.0,7.0,94.0,1680.846
1680856.0,45.0,100.0,7.0,89.0,1680.856
1680866.0,46.0,101.0,6.0,85.0,1680.866
1680876.0,46.0,102.0,5.0,80.0,1680.876
1680886.0,46.0,105.0,6.0,85.0,1680.886
1680896.0,45.0,105.0,7.0,85.0,1680.896
1680906.0,46.0,106.0,15.0,93.0,1680.906
1680916.0,46.0,106.0,16.0,90.0,1680.916
1680926.0,45.0,105.0,17.0,88.0,1680.926
1680936.0,45.0,107.0,16.0,88.0,1680.936
1680946.0,45.0,106.0,17.0,95.0,1680.946
1680956.0,45.0,107.0,14.0,95.0,1680.956
1680966.0,44.0,108.0,13.0,90.0,1680.966
1680976.0,45.0,110.0,13.0,90.0,1680.976
1680986.0,44.0,109.0,11.0,88.0,1680.986
1680996.0,43.0,109.0,9.0,92.0,1680.996
1681006.0,43.0,111.0,8.0,97.0,1681.006
1681016.0,43.0,113.0,9.0,101.0,1681.016
1681026.0,43.0,111.0,8.0,98.0,1681.026
1681036.0,42.0,113.0,7.0,95.0,1681.036
1681046.0,43.0,113.0,7.0,98.0,1681.046
1681056.0,43.0,115.0,6.0,97.0,1681.056
1681067.0,43.0,116.0,7.0,93.0,1681.067
1681077.0,44.0,116.0,5.0,99.0,1681.077
1681087.0,44.0,115.0,6.0,101.0,1681.087
1681097.0,44.0,114.0,14.0,102.0,1681.097
1681107.0,43.0,114.0,13.0,100.0,1681.107
1681117.0,44.0,115.0,13.0,104.0,1681.117
1681127.0,44.0,113.0,11.0,109.0,1681.127
1681137.0,43.0,112.0,10.0,108.0,1681.137
1681147.0,44.0,112.0,10.0,114.0,1681.147
1681157.0,44.0,113.0,9.0,107.0,1681.157
1681167.0,44.0,110.0,9.0,103.0,1681.167
1681177.0,45.0,110.0,11.0,110.0,1681.177
1681187.0,45.0,108.0,11.0,111.0,1681.187
1681197.0,46.0,107.0,10.0,104.0,1681.197
1681207.0,44.0,106.0,7.0,110.0,1681.207
1681217.0,46.0,106.0,9.0,107.0,1681.217
1681227.0,46.0,106.0,9.0,115.0,1681.227
1681238.0,46.0,106.0,11.0,112.0,1681.238
1681248.0,47.0,103.0,10.0,126.0,1681.248
1681258.0,45.0,104.0,9.0,124.0,1681.258
1681268.0,46.0,102.0,12.0,121.0,1681.268
1681278.0,46.0,102.0,14.0,138.0,1681.278
1681288.0,45.0,101.0,14.0,143.0,1681.288
1681298.0,45.0,98.0,12.0,135.0,1681.298
1681308.0,45.0,99.0,12.0,134.0,1681.308
1681318.0,46.0,98.0,11.0,128.0,1681.318
1681328.0,45.0,97.0,9.0,119.0,1681.328
1681338.0,44.0,96.0,9.0,119.0,1681.338
1681348.0,44.0,97.0,8.0,118.0,1681.348
1681358.0,44.0,96.0,9.0,127.0,1681.358
1681368.0,44.0,97.0,9.0,125.0,1681.368
1681378.0,43.0,97.0,8.0,120.0,1681.378
1681388.0,43.0,96.0,8.0,115.0,1681.388
1681398.0,43.0,96.0,7.0,119.0,1681.398
1681408.0,42.0,96.0,7.0,110.0,1681.408
1681418.0,42.0,95.0,6.0,107.0,1681.418
1681428.0,43.0,96.0,7.0,107.0,1681.428
1681438.0,44.0,96.0,12.0,108.0,1681.438
1681448.0,45.0,96.0,16.0,106.0,1681.448
1681458.0,44.0,95.0,15.0,111.0,1681.458
1681468.0,43.0,94.0,13.0,109.0,1681.468
1681478.0,44.0,93.0,12.0,106.0,1681.478
1681488.0,44.0,93.0,10.0,97.0,1681.488
1681498.0,43.0,92.0,10.0,93.0,1681.498
1681508.0,44.0,92.0,9.0,87.0,1681.508
1681518.0,43.0,93.0,8.0,85.0,1681.518
1681528.0,43.0,90.0,7.0,84.0,1681.528
1681538.0,43.0,93.0,7.0,82.0,1681.538
1681548.0,43.0,91.0,7.0,76.0,1681.548
1681558.0,44.0,92.0,7.0,83.0,1681.558
1681568.0,44.0,93.0,6.0,78.0,1681.568
1681579.0,43.0,93.0,5.0,79.0,1681.579
1681589.0,43.0,94.0,5.0,83.0,1681.589
1681599.0,43.0,92.0,5.0,90.0,1681.599
1681609.0,44.0,93.0,6.0,83.0,1681.609
1681619.0,44.0,93.0,5.0,78.0,1681.619
1681629.0,43.0,92.0,5.0,77.0,1681.629
1681639.0,43.0,93.0,8.0,80.0,1681.639
1681649.0,43.0,91.0,10.0,88.0,1681.649
1681659.0,42.0,92.0,9.0,100.0,1681.659
1681669.0,42.0,91.0,9.0,106.0,1681.669
1681679.0,43.0,89.0,7.0,117.0,1681.679
1681689.0,43.0,87.0,8.0,113.0,1681.689
1681699.0,43.0,85.0,8.0,121.0,1681.699
1681709.0,43.0,85.0,7.0,119.0,1681.709
1681719.0,44.0,83.0,7.0,113.0,1681.719
1681729.0,44.0,81.0,6.0,105.0,1681.729
1681739.0,43.0,81.0,7.0,105.0,1681.739
1681750.0,44.0,81.0,6.0,108.0,1681.75
1681760.0,45.0,80.0,5.0,108.0,1681.76
1681770.0,46.0,79.0,6.0,103.0,1681.77
1681780.0,46.0,77.0,4.0,98.0,1681.78
1681790.0,46.0,77.0,7.0,93.0,1681.79
1681800.0,46.0,77.0,6.0,95.0,1681.8
1681810.0,45.0,76.0,7.0,96.0,1681.81
1681820.0,45.0,76.0,7.0,98.0,1681.82
1681830.0,45.0,75.0,5.0,92.0,1681.83
1681840.0,45.0,76.0,6.0,88.0,1681.84
1681850.0,46.0,75.0,6.0,86.0,1681.85
1681860.0,46.0,74.0,7.0,86.0,1681.86
1681870.0,46.0,72.0,6.0,90.0,1681.87
1681880.0,44.0,72.0,7.0,84.0,1681.88
1681890.0,45.0,72.0,8.0,80.0,1681.89
1681900.0,45.0,71.0,7.0,94.0,1681.9
1681910.0,45.0,70.0,9.0,93.0,1681.91
1681920.0,44.0,69.0,9.0,93.0,1681.92
1681930.0,44.0,68.0,8.0,97.0,1681.93
1681940.0,44.0,67.0,8.0,91.0,1681.94
1681950.0,43.0,65.0,8.0,85.0,1681.95
1681960.0,43.0,65.0,7.0,82.0,1681.96
1681970.0,43.0,64.0,7.0,80.0,1681.97
1681980.0,44.0,63.0,8.0,80.0,1681.98
1681990.0,45.0,63.0,7.0,80.0,1681.99
1682000.0,44.0,62.0,6.0,84.0,1682.0
1682010.0,45.0,59.0,8.0,83.0,1682.01
1682020.0,44.0,60.0,7.0,94.0,1682.02
1682030.0,44.0,58.0,7.0,98.0,1682.03
1682040.0,44.0,57.0,6.0,99.0,1682.04
1682050.0,43.0,58.0,6.0,94.0,1682.05
1682060.0,45.0,57.0,7.0,97.0,1682.06
1682070.0,44.0,57.0,10.0,97.0,1682.07
1682080.0,46.0,55.0,10.0,120.0,1682.08
1682091.0,47.0,55.0,9.0,119.0,1682.091
1682101.0,46.0,54.0,7.0,117.0,1682.101
1682111.0,47.0,54.0,8.0,124.0,1682.111
1682121.0,47.0,53.0,9.0,135.0,1682.121
1682131.0,47.0,51.0,9.0,128.0,1682.131
1682141.0,46.0,50.0,8.0,140.0,1682.141
1682151.0,47.0,48.0,9.0,135.0,1682.151
1682161.0,48.0,46.0,8.0,131.0,1682.161
1682171.0,48.0,47.0,7.0,133.0,1682.171
1682181.0,49.0,48.0,9.0,130.0,1682.181
1682191.0,49.0,46.0,8.0,120.0,1682.191
1682201.0,51.0,45.0,10.0,118.0,1682.201
1682211.0,52.0,45.0,8.0,116.0,1682.211
1682221.0,52.0,43.0,7.0,121.0,1682.221
1682231.0,55.0,42.0,8.0,120.0,1682.231
1682241.0,55.0,41.0,7.0,117.0,1682.241
1682251.0,54.0,41.0,7.0,107.0,1682.251
1682262.0,55.0,40.0,8.0,115.0,1682.262
1682272.0,54.0,42.0,8.0,112.0,1682.272
1682282.0,54.0,41.0,7.0,107.0,1682.282
1682292.0,55.0,41.0,8.0,100.0,1682.292
1682302.0,55.0,41.0,7.0,102.0,1682.302
1682312.0,54.0,42.0,7.0,107.0,1682.312
1682322.0,53.0,42.0,8.0,108.0,1682.322
1682332.0,53.0,43.0,8.0,122.0,1682.332
1682342.0,52.0,41.0,9.0,118.0,1682.342
1682352.0,52.0,40.0,7.0,112.0,1682.352
1682362.0,52.0,40.0,7.0,123.0,1682.362
1682372.0,51.0,39.0,6.0,128.0,1682.372
1682382.0,50.0,41.0,6.0,127.0,1682.382
1682392.0,50.0,40.0,6.0,120.0,1682.392
1682402.0,51.0,39.0,6.0,120.0,1682.402
1682412.0,51.0,40.0,5.0,114.0,1682.412
1682422.0,51.0,39.0,6.0,113.0,1682.422
1682432.0,50.0,39.0,4.0,118.0,1682.432
1682442.0,49.0,37.0,6.0,111.0,1682.442
1682452.0,48.0,37.0,5.0,114.0,1682.452
1682462.0,48.0,36.0,4.0,106.0,1682.462
1682472.0,47.0,36.0,5.0,102.0,1682.472
1682482.0,48.0,35.0,5.0,102.0,1682.482
1682492.0,46.0,34.0,5.0,98.0,1682.492
1682502.0,45.0,35.0,6.0,102.0,1682.502
1682512.0,47.0,35.0,8.0,105.0,1682.512
1682522.0,46.0,36.0,8.0,99.0,1682.522
1682532.0,46.0,36.0,9.0,105.0,1682.532
1682542.0,44.0,36.0,9.0,102.0,1682.542
1682552.0,44.0,36.0,9.0,105.0,1682.552
1682562.0,45.0,36.0,10.0,117.0,1682.562
1682572.0,44.0,37.0,8.0,111.0,1682.572
1682582.0,45.0,37.0,9.0,119.0,1682.582
1682592.0,45.0,37.0,9.0,117.0,1682.592
1682603.0,43.0,36.0,10.0,115.0,1682.603
1682613.0,43.0,36.0,9.0,111.0,1682.613
1682623.0,43.0,36.0,8.0,106.0,1682.623
1682633.0,43.0,36.0,8.0,110.0,1682.633
1682643.0,43.0,35.0,10.0,106.0,1682.643
1682653.0,42.0,36.0,10.0,104.0,1682.653
1682663.0,42.0,36.0,9.0,104.0,1682.663
1682673.0,43.0,36.0,9.0,109.0,1682.673
1682683.0,42.0,36.0,8.0,104.0,1682.683
1682693.0,42.0,37.0,8.0,104.0,1682.693
1682703.0,41.0,36.0,7.0,104.0,1682.703
1682713.0,41.0,36.0,7.0,100.0,1682.713
1682723.0,42.0,36.0,6.0,96.0,1682.723
1682733.0,43.0,35.0,7.0,94.0,1682.733
1682743.0,42.0,37.0,6.0,119.0,1682.743
1682753.0,41.0,36.0,6.0,119.0,1682.753
1682763.0,42.0,36.0,13.0,116.0,1682.763
1682774.0,41.0,36.0,14.0,120.0,1682.774
1682784.0,42.0,35.0,12.0,119.0,1682.784
1682794.0,41.0,35.0,10.0,116.0,1682.794
1682804.0,41.0,36.0,9.0,108.0,1682.804
1682814.0,40.0,35.0,9.0,99.0,1682.814
1682824.0,40.0,36.0,10.0,94.0,1682.824
1682834.0,41.0,35.0,11.0,103.0,1682.834
1682844.0,43.0,36.0,9.0,104.0,1682.844
1682854.0,43.0,36.0,9.0,96.0,1682.854
1682864.0,44.0,35.0,8.0,100.0,1682.864
1682874.0,45.0,35.0,9.0,115.0,1682.874
1682884.0,44.0,35.0,8.0,110.0,1682.884
1682894.0,45.0,35.0,7.0,115.0,1682.894
1682904.0,45.0,34.0,8.0,115.0,1682.904
1682914.0,45.0,36.0,7.0,127.0,1682.914
1682924.0,45.0,35.0,12.0,128.0,1682.924
1682934.0,45.0,35.0,14.0,140.0,1682.934
1682944.0,45.0,37.0,14.0,134.0,1682.944
1682954.0,44.0,37.0,13.0,125.0,1682.954
1682964.0,43.0,38.0,13.0,127.0,1682.964
1682974.0,44.0,36.0,14.0,125.0,1682.974
1682984.0,44.0,37.0,12.0,122.0,1682.984
1682994.0,44.0,37.0,12.0,121.0,1682.994
1683004.0,43.0,37.0,11.0,115.0,1683.004
1683014.0,44.0,36.0,10.0,122.0,1683.014
1683024.0,43.0,36.0,11.0,125.0,1683.024
1683034.0,43.0,37.0,10.0,120.0,1683.034
1683044.0,44.0,36.0,10.0,124.0,1683.044
1683054.0,44.0,36.0,11.0,126.0,1683.054
1683064.0,43.0,37.0,14.0,127.0,1683.064
1683074.0,44.0,35.0,13.0,131.0,1683.074
1683084.0,44.0,37.0,12.0,128.0,1683.084
1683094.0,43.0,36.0,10.0,121.0,1683.094
1683104.0,44.0,38.0,11.0,115.0,1683.104
1683115.0,43.0,36.0,11.0,108.0,1683.115
1683125.0,45.0,37.0,11.0,120.0,1683.125
1683135.0,45.0,38.0,9.0,120.0,1683.135
1683145.0,46.0,37.0,10.0,110.0,1683.145
1683155.0,45.0,37.0,10.0,109.0,1683.155
1683165.0,45.0,37.0,11.0,101.0,1683.165
1683175.0,47.0,39.0,11.0,110.0,1683.175
1683185.0,47.0,38.0,12.0,107.0,1683.185
1683195.0,48.0,38.0,11.0,106.0,1683.195
1683205.0,45.0,37.0,9.0,103.0,1683.205
1683215.0,46.0,36.0,9.0,108.0,1683.215
1683225.0,44.0,37.0,8.0,111.0,1683.225
1683235.0,45.0,36.0,12.0,110.0,1683.235
1683245.0,45.0,37.0,13.0,105.0,1683.245
1683255.0,45.0,38.0,11.0,103.0,1683.255
1683265.0,46.0,38.0,10.0,108.0,1683.265
1683275.0,45.0,37.0,9.0,113.0,1683.275
1683286.0,45.0,36.0,9.0,112.0,1683.286
1683296.0,45.0,35.0,8.0,112.0,1683.296
1683306.0,45.0,35.0,8.0,108.0,1683.306
1683316.0,46.0,36.0,7.0,104.0,1683.316
1683326.0,46.0,36.0,9.0,103.0,1683.326
1683336.0,46.0,36.0,9.0,102.0,1683.336
1683346.0,47.0,39.0,8.0,105.0,1683.346
1683356.0,47.0,38.0,7.0,97.0,1683.356
1683366.0,46.0,38.0,6.0,96.0,1683.366
1683376.0,45.0,38.0,6.0,92.0,1683.376
1683386.0,45.0,39.0,8.0,92.0,1683.386
1683396.0,43.0,39.0,7.0,98.0,1683.396
1683406.0,44.0,36.0,7.0,94.0,1683.406
1683416.0,43.0,37.0,7.0,92.0,1683.416
1683426.0,44.0,37.0,7.0,86.0,1683.426
1683436.0,44.0,37.0,7.0,90.0,1683.436
1683446.0,43.0,36.0,6.0,97.0,1683.446
1683456.0,43.0,36.0,7.0,94.0,1683.456
1683466.0,43.0,37.0,6.0,100.0,1683.466
1683476.0,42.0,36.0,5.0,113.0,1683.476
1683486.0,42.0,36.0,5.0,109.0,1683.486
1683496.0,42.0,37.0,8.0,100.0,1683.496
1683506.0,43.0,35.0,9.0,95.0,1683.506
1683516.0,42.0,37.0,8.0,91.0,1683.516
1683526.0,41.0,36.0,7.0,89.0,1683.526
1683536.0,41.0,36.0,7.0,94.0,1683.536
1683546.0,39.0,36.0,7.0,95.0,1683.546
1683556.0,42.0,38.0,8.0,101.0,1683.556
1683566.0,42.0,38.0,8.0,104.0,1683.566
1683576.0,42.0,37.0,9.0,99.0,1683.576
1683586.0,41.0,37.0,8.0,96.0,1683.586
1683596.0,41.0,36.0,7.0,89.0,1683.596
1683606.0,41.0,37.0,8.0,89.0,1683.606
1683616.0,42.0,39.0,9.0,100.0,1683.616
1683627.0,43.0,37.0,14.0,103.0,1683.627
1683637.0,43.0,39.0,11.0,109.0,1683.637
1683647.0,43.0,40.0,11.0,103.0,1683.647
1683657.0,44.0,42.0,14.0,106.0,1683.657
1683667.0,45.0,45.0,13.0,107.0,1683.667
1683677.0,43.0,44.0,12.0,101.0,1683.677
1683687.0,44.0,47.0,11.0,102.0,1683.687
1683697.0,43.0,46.0,10.0,98.0,1683.697
1683707.0,43.0,46.0,9.0,99.0,1683.707
1683717.0,43.0,47.0,9.0,100.0,1683.717
1683727.0,43.0,48.0,9.0,97.0,1683.727
1683737.0,42.0,49.0,9.0,108.0,1683.737
1683747.0,44.0,51.0,10.0,109.0,1683.747
1683757.0,43.0,51.0,10.0,113.0,1683.757
1683767.0,43.0,50.0,10.0,110.0,1683.767
1683777.0,44.0,50.0,9.0,105.0,1683.777
1683787.0,43.0,48.0,11.0,108.0,1683.787
1683798.0,43.0,48.0,14.0,110.0,1683.798
1683808.0,42.0,48.0,14.0,118.0,1683.808
1683818.0,42.0,46.0,13.0,115.0,1683.818
1683828.0,42.0,47.0,11.0,113.0,1683.828
1683838.0,42.0,46.0,11.0,114.0,1683.838
1683848.0,42.0,46.0,9.0,108.0,1683.848
1683858.0,42.0,47.0,9.0,111.0,1683.858
1683868.0,43.0,47.0,11.0,112.0,1683.868
1683878.0,42.0,49.0,10.0,105.0,1683.878
1683888.0,42.0,48.0,10.0,102.0,1683.888
1683898.0,41.0,49.0,10.0,101.0,1683.898
1683908.0,42.0,51.0,9.0,104.0,1683.908
1683918.0,43.0,52.0,11.0,118.0,1683.918
1683928.0,44.0,53.0,9.0,129.0,1683.928
1683938.0,44.0,54.0,13.0,131.0,1683.938
1683948.0,44.0,53.0,11.0,139.0,1683.948
1683958.0,45.0,54.0,12.0,129.0,1683.958
1683968.0,43.0,55.0,10.0,123.0,1683.968
1683978.0,43.0,55.0,9.0,133.0,1683.978
1683988.0,43.0,55.0,9.0,128.0,1683.988
1683998.0,42.0,56.0,8.0,124.0,1683.998
1684008.0,43.0,55.0,10.0,115.0,1684.008
1684018.0,42.0,55.0,8.0,110.0,1684.018
1684028.0,44.0,54.0,9.0,133.0,1684.028
1684038.0,43.0,54.0,8.0,139.0,1684.038
1684048.0,43.0,53.0,7.0,137.0,1684.048
1684058.0,42.0,54.0,7.0,128.0,1684.058
1684068.0,43.0,55.0,8.0,121.0,1684.068
1684078.0,43.0,55.0,8.0,112.0,1684.078
1684088.0,43.0,55.0,7.0,105.0,1684.088
1684098.0,42.0,57.0,6.0,112.0,1684.098
1684108.0,42.0,57.0,6.0,114.0,1684.108
1684118.0,42.0,58.0,6.0,119.0,1684.118
1684128.0,43.0,56.0,7.0,113.0,1684.128
1684139.0,43.0,57.0,6.0,116.0,1684.139
1684149.0,43.0,58.0,7.0,108.0,1684.149
1684159.0,44.0,59.0,6.0,111.0,1684.159
1684169.0,42.0,59.0,6.0,102.0,1684.169
1684179.0,44.0,58.0,7.0,102.0,1684.179
1684189.0,42.0,60.0,6.0,102.0,1684.189
1684199.0,43.0,59.0,5.0,97.0,1684.199
1684209.0,42.0,58.0,5.0,97.0,1684.209
1684219.0,43.0,60.0,16.0,99.0,1684.219
1684229.0,43.0,59.0,15.0,103.0,1684.229
1684239.0,42.0,59.0,14.0,102.0,1684.239
1684249.0,42.0,57.0,12.0,109.0,1684.249
1684259.0,42.0,59.0,11.0,108.0,1684.259
1684269.0,42.0,59.0,11.0,115.0,1684.269
1684279.0,41.0,58.0,11.0,112.0,1684.279
1684289.0,41.0,58.0,11.0,118.0,1684.289
1684299.0,43.0,56.0,11.0,115.0,1684.299
1684310.0,43.0,55.0,9.0,117.0,1684.31
1684320.0,44.0,57.0,9.0,115.0,1684.32
1684330.0,45.0,55.0,7.0,114.0,1684.33
1684340.0,43.0,56.0,7.0,112.0,1684.34
1684350.0,44.0,58.0,12.0,110.0,1684.35
1684360.0,45.0,57.0,12.0,114.0,1684.36
1684370.0,45.0,58.0,12.0,115.0,1684.37
1684380.0,45.0,58.0,10.0,110.0,1684.38
1684390.0,45.0,59.0,9.0,106.0,1684.39
1684400.0,45.0,59.0,9.0,104.0,1684.4
1684410.0,44.0,58.0,8.0,102.0,1684.41
1684420.0,45.0,59.0,11.0,100.0,1684.42
1684430.0,45.0,59.0,12.0,111.0,1684.43
1684440.0,45.0,58.0,12.0,110.0,1684.44
1684450.0,45.0,58.0,10.0,102.0,1684.45
1684460.0,44.0,56.0,9.0,94.0,1684.46
1684470.0,45.0,57.0,9.0,95.0,1684.47
1684480.0,43.0,57.0,7.0,93.0,1684.48
1684490.0,43.0,55.0,8.0,88.0,1684.49
1684500.0,43.0,55.0,8.0,90.0,1684.5
1684510.0,43.0,56.0,8.0,86.0,1684.51
1684520.0,44.0,55.0,12.0,82.0,1684.52
1684530.0,44.0,54.0,12.0,83.0,1684.53
1684540.0,43.0,55.0,13.0,83.0,1684.54
1684550.0,45.0,55.0,12.0,99.0,1684.55
1684560.0,44.0,53.0,11.0,94.0,1684.56
1684570.0,46.0,52.0,10.0,91.0,1684.57
1684580.0,47.0,52.0,9.0,84.0,1684.58
1684590.0,47.0,53.0,11.0,84.0,1684.59
1684600.0,46.0,53.0,11.0,83.0,1684.6
1684610.0,47.0,52.0,13.0,86.0,1684.61
1684620.0,47.0,53.0,11.0,89.0,1684.62
1684630.0,48.0,54.0,10.0,93.0,1684.63
1684640.0,47.0,55.0,13.0,92.0,1684.64
1684651.0,45.0,56.0,12.0,88.0,1684.651
1684661.0,47.0,55.0,13.0,96.0,1684.661
1684671.0,46.0,56.0,10.0,99.0,1684.671
1684681.0,46.0,57.0,11.0,93.0,1684.681
1684691.0,46.0,59.0,11.0,99.0,1684.691
1684701.0,46.0,60.0,11.0,106.0,1684.701
1684711.0,47.0,58.0,11.0,105.0,1684.711
