time (ms),signal 0,signal 1,signal 2,signal3,time (sec)
1640058.0,83.0,60.0,6.0,111.0,1640.058
1640068.0,84.0,60.0,8.0,110.0,1640.068
1640078.0,83.0,59.0,11.0,115.0,1640.078
1640088.0,81.0,59.0,10.0,115.0,1640.088
1640098.0,80.0,59.0,9.0,116.0,1640.098
1640108.0,79.0,58.0,9.0,106.0,1640.108
1640118.0,75.0,57.0,8.0,116.0,1640.118
1640128.0,76.0,57.0,8.0,115.0,1640.128
1640138.0,71.0,55.0,11.0,116.0,1640.138
1640148.0,70.0,55.0,14.0,112.0,1640.148
1640158.0,68.0,55.0,12.0,113.0,1640.158
1640168.0,67.0,56.0,11.0,125.0,1640.168
1640178.0,64.0,54.0,11.0,123.0,1640.178
1640188.0,61.0,54.0,9.0,112.0,1640.188
1640198.0,59.0,52.0,11.0,111.0,1640.198
1640208.0,56.0,49.0,10.0,119.0,1640.208
1640218.0,54.0,49.0,11.0,133.0,1640.218
1640228.0,54.0,47.0,10.0,137.0,1640.228
1640238.0,51.0,47.0,9.0,129.0,1640.238
1640248.0,51.0,45.0,10.0,120.0,1640.248
1640258.0,50.0,44.0,12.0,127.0,1640.258
1640268.0,48.0,44.0,13.0,128.0,1640.268
1640278.0,47.0,43.0,12.0,122.0,1640.278
1640288.0,48.0,42.0,10.0,119.0,1640.288
1640298.0,47.0,41.0,10.0,118.0,1640.298
1640308.0,48.0,41.0,9.0,121.0,1640.308
1640318.0,49.0,39.0,9.0,125.0,1640.318
1640328.0,48.0,38.0,8.0,121.0,1640.328
1640338.0,49.0,38.0,7.0,121.0,1640.338
1640348.0,49.0,37.0,8.0,119.0,1640.348
1640358.0,50.0,39.0,8.0,123.0,1640.358
1640368.0,50.0,38.0,12.0,131.0,1640.368
1640378.0,48.0,38.0,10.0,123.0,1640.378
1640388.0,48.0,39.0,9.0,118.0,1640.388
1640398.0,49.0,39.0,11.0,123.0,1640.398
1640408.0,49.0,40.0,10.0,127.0,1640.408
1640418.0,50.0,40.0,10.0,133.0,1640.418
1640428.0,49.0,40.0,8.0,139.0,1640.428
1640438.0,53.0,42.0,14.0,143.0,1640.438
1640448.0,54.0,42.0,12.0,150.0,1640.448
1640458.0,55.0,42.0,14.0,139.0,1640.458
1640468.0,56.0,42.0,13.0,144.0,1640.468
1640478.0,57.0,42.0,12.0,135.0,1640.478
1640488.0,61.0,43.0,13.0,131.0,1640.488
1640498.0,62.0,43.0,10.0,123.0,1640.498
1640508.0,65.0,43.0,11.0,118.0,1640.508
1640518.0,66.0,43.0,11.0,122.0,1640.518
1640528.0,66.0,44.0,10.0,133.0,1640.528
1640538.0,69.0,45.0,11.0,127.0,1640.538
1640548.0,69.0,47.0,9.0,124.0,1640.548
1640558.0,72.0,47.0,10.0,124.0,1640.558
1640568.0,72.0,48.0,9.0,123.0,1640.568
1640578.0,72.0,49.0,10.0,128.0,1640.578
1640588.0,73.0,50.0,11.0,124.0,1640.588
1640598.0,73.0,53.0,10.0,117.0,1640.598
1640608.0,74.0,54.0,10.0,108.0,1640.608
1640619.0,76.0,56.0,11.0,103.0,1640.619
1640629.0,77.0,57.0,12.0,100.0,1640.629
1640639.0,77.0,58.0,12.0,104.0,1640.639
1640649.0,76.0,57.0,10.0,109.0,1640.649
1640659.0,78.0,59.0,13.0,102.0,1640.659
1640669.0,78.0,60.0,11.0,95.0,1640.669
1640679.0,78.0,58.0,12.0,86.0,1640.679
1640689.0,78.0,61.0,11.0,99.0,1640.689
1640699.0,78.0,60.0,15.0,100.0,1640.699
1640709.0,78.0,59.0,15.0,103.0,1640.709
1640719.0,76.0,60.0,14.0,108.0,1640.719
1640729.0,78.0,59.0,13.0,108.0,1640.729
1640739.0,77.0,60.0,11.0,120.0,1640.739
1640749.0,75.0,58.0,11.0,117.0,1640.749
1640759.0,75.0,60.0,9.0,115.0,1640.759
1640769.0,74.0,62.0,12.0,114.0,1640.769
1640779.0,74.0,62.0,12.0,109.0,1640.779
1640790.0,73.0,62.0,10.0,116.0,1640.79
1640800.0,76.0,62.0,11.0,112.0,1640.8
1640810.0,74.0,62.0,8.0,110.0,1640.81
1640820.0,77.0,64.0,12.0,110.0,1640.82
1640830.0,77.0,63.0,10.0,123.0,1640.83
1640840.0,76.0,63.0,9.0,122.0,1640.84
1640850.0,75.0,62.0,9.0,122.0,1640.85
1640860.0,74.0,62.0,7.0,116.0,1640.86
1640870.0,77.0,63.0,11.0,121.0,1640.87
1640880.0,75.0,62.0,10.0,129.0,1640.88
1640890.0,77.0,62.0,9.0,122.0,1640.89
1640900.0,78.0,63.0,10.0,115.0,1640.9
1640910.0,77.0,65.0,9.0,104.0,1640.91
1640920.0,79.0,64.0,9.0,103.0,1640.92
1640930.0,79.0,66.0,12.0,96.0,1640.93
1640940.0,80.0,67.0,12.0,99.0,1640.94
1640950.0,80.0,67.0,16.0,100.0,1640.95
1640960.0,81.0,65.0,16.0,93.0,1640.96
1640970.0,80.0,70.0,16.0,86.0,1640.97
1640980.0,79.0,68.0,16.0,81.0,1640.98
1640990.0,79.0,77.0,18.0,74.0,1640.99
1641000.0,82.0,76.0,14.0,70.0,1641.0
1641010.0,82.0,76.0,17.0,67.0,1641.01
1641020.0,85.0,73.0,25.0,82.0,1641.02
1641030.0,89.0,74.0,22.0,80.0,1641.03
1641040.0,93.0,78.0,20.0,78.0,1641.04
1641050.0,92.0,74.0,19.0,74.0,1641.05
1641060.0,93.0,72.0,20.0,73.0,1641.06
1641070.0,93.0,75.0,20.0,83.0,1641.07
1641080.0,93.0,78.0,20.0,86.0,1641.08
1641090.0,92.0,81.0,19.0,86.0,1641.09
1641100.0,95.0,86.0,18.0,81.0,1641.1
1641110.0,100.0,94.0,20.0,77.0,1641.11
1641120.0,108.0,105.0,20.0,71.0,1641.12
1641131.0,133.0,117.0,20.0,81.0,1641.131
1641141.0,133.0,136.0,20.0,90.0,1641.141
1641151.0,130.0,138.0,21.0,87.0,1641.151
1641161.0,138.0,143.0,19.0,84.0,1641.161
1641171.0,131.0,141.0,17.0,80.0,1641.171
1641181.0,133.0,138.0,16.0,84.0,1641.181
1641191.0,124.0,148.0,13.0,85.0,1641.191
1641201.0,125.0,167.0,15.0,82.0,1641.201
1641211.0,123.0,175.0,21.0,78.0,1641.211
1641221.0,122.0,185.0,27.0,77.0,1641.221
1641231.0,117.0,213.0,28.0,82.0,1641.231
1641241.0,115.0,222.0,29.0,85.0,1641.241
1641251.0,113.0,234.0,28.0,82.0,1641.251
1641261.0,112.0,238.0,26.0,94.0,1641.261
1641271.0,117.0,253.0,23.0,94.0,1641.271
1641281.0,116.0,273.0,21.0,91.0,1641.281
1641291.0,118.0,289.0,25.0,93.0,1641.291
1641302.0,123.0,311.0,30.0,93.0,1641.302
1641312.0,121.0,331.0,32.0,105.0,1641.312
1641322.0,121.0,355.0,52.0,108.0,1641.322
1641332.0,120.0,373.0,61.0,110.0,1641.332
1641342.0,123.0,397.0,65.0,115.0,1641.342
1641352.0,128.0,422.0,58.0,115.0,1641.352
1641362.0,130.0,446.0,82.0,116.0,1641.362
1641372.0,128.0,469.0,103.0,125.0,1641.372
1641382.0,131.0,499.0,114.0,134.0,1641.382
1641392.0,136.0,521.0,112.0,141.0,1641.392
1641402.0,136.0,548.0,123.0,144.0,1641.402
1641412.0,138.0,577.0,111.0,139.0,1641.412
1641422.0,139.0,605.0,119.0,145.0,1641.422
1641432.0,144.0,629.0,114.0,142.0,1641.432
1641442.0,145.0,652.0,114.0,148.0,1641.442
1641452.0,152.0,668.0,151.0,154.0,1641.452
1641462.0,151.0,669.0,146.0,154.0,1641.462
1641472.0,149.0,669.0,158.0,144.0,1641.472
1641482.0,147.0,669.0,145.0,155.0,1641.482
1641492.0,150.0,669.0,143.0,155.0,1641.492
1641502.0,152.0,669.0,162.0,160.0,1641.502
1641512.0,150.0,669.0,153.0,174.0,1641.512
1641522.0,155.0,669.0,182.0,165.0,1641.522
1641532.0,155.0,669.0,219.0,168.0,1641.532
1641542.0,152.0,669.0,201.0,159.0,1641.542
1641552.0,151.0,669.0,184.0,169.0,1641.552
1641562.0,151.0,668.0,188.0,163.0,1641.562
1641572.0,148.0,669.0,169.0,171.0,1641.572
1641582.0,151.0,668.0,186.0,174.0,1641.582
1641592.0,152.0,669.0,187.0,181.0,1641.592
1641602.0,153.0,670.0,170.0,191.0,1641.602
1641612.0,152.0,669.0,168.0,182.0,1641.612
1641622.0,155.0,669.0,173.0,178.0,1641.622
1641632.0,153.0,669.0,179.0,183.0,1641.632
1641643.0,158.0,668.0,174.0,188.0,1641.643
1641653.0,150.0,669.0,180.0,209.0,1641.653
1641663.0,151.0,668.0,182.0,212.0,1641.663
1641673.0,152.0,669.0,194.0,207.0,1641.673
1641683.0,144.0,669.0,190.0,220.0,1641.683
1641693.0,143.0,668.0,181.0,233.0,1641.693
1641703.0,144.0,669.0,183.0,288.0,1641.703
1641713.0,149.0,669.0,175.0,290.0,1641.713
1641723.0,146.0,669.0,180.0,288.0,1641.723
1641733.0,145.0,668.0,207.0,300.0,1641.733
1641743.0,145.0,669.0,203.0,288.0,1641.743
1641753.0,145.0,669.0,222.0,288.0,1641.753
1641763.0,145.0,669.0,235.0,294.0,1641.763
1641773.0,144.0,668.0,220.0,296.0,1641.773
1641783.0,144.0,668.0,223.0,310.0,1641.783
1641793.0,144.0,669.0,199.0,300.0,1641.793
1641803.0,145.0,670.0,187.0,307.0,1641.803
1641814.0,142.0,670.0,179.0,319.0,1641.814
1641824.0,147.0,669.0,188.0,314.0,1641.824
1641834.0,150.0,669.0,190.0,320.0,1641.834
1641844.0,149.0,669.0,185.0,337.0,1641.844
1641854.0,149.0,669.0,174.0,343.0,1641.854
1641864.0,154.0,668.0,169.0,341.0,1641.864
1641874.0,154.0,669.0,181.0,347.0,1641.874
1641884.0,148.0,670.0,199.0,352.0,1641.884
1641894.0,149.0,669.0,212.0,356.0,1641.894
1641904.0,155.0,668.0,220.0,352.0,1641.904
1641914.0,153.0,669.0,220.0,364.0,1641.914
1641924.0,153.0,669.0,200.0,383.0,1641.924
1641934.0,156.0,669.0,212.0,371.0,1641.934
1641944.0,155.0,668.0,207.0,363.0,1641.944
1641954.0,154.0,669.0,212.0,379.0,1641.954
1641964.0,153.0,670.0,202.0,384.0,1641.964
1641974.0,157.0,668.0,211.0,354.0,1641.974
1641984.0,154.0,669.0,201.0,386.0,1641.984
1641994.0,156.0,669.0,195.0,384.0,1641.994
1642004.0,159.0,669.0,186.0,359.0,1642.004
1642014.0,152.0,669.0,203.0,382.0,1642.014
1642024.0,152.0,669.0,192.0,374.0,1642.024
1642034.0,154.0,670.0,211.0,363.0,1642.034
1642044.0,152.0,669.0,217.0,376.0,1642.044
1642054.0,149.0,669.0,204.0,401.0,1642.054
1642064.0,148.0,668.0,200.0,372.0,1642.064
1642074.0,149.0,668.0,213.0,351.0,1642.074
1642084.0,146.0,669.0,216.0,381.0,1642.084
1642094.0,144.0,669.0,206.0,403.0,1642.094
1642104.0,142.0,670.0,215.0,424.0,1642.104
1642114.0,141.0,669.0,204.0,461.0,1642.114
1642124.0,138.0,666.0,199.0,448.0,1642.124
1642134.0,137.0,660.0,203.0,441.0,1642.134
1642144.0,138.0,654.0,219.0,420.0,1642.144
1642155.0,138.0,651.0,246.0,391.0,1642.155
1642165.0,132.0,638.0,229.0,386.0,1642.165
1642175.0,127.0,630.0,223.0,388.0,1642.175
1642185.0,135.0,624.0,282.0,378.0,1642.185
1642195.0,134.0,609.0,278.0,386.0,1642.195
1642205.0,128.0,597.0,247.0,378.0,1642.205
1642215.0,128.0,588.0,219.0,371.0,1642.215
1642225.0,130.0,578.0,238.0,349.0,1642.225
1642235.0,122.0,562.0,229.0,367.0,1642.235
1642245.0,121.0,552.0,225.0,378.0,1642.245
1642255.0,123.0,542.0,223.0,363.0,1642.255
1642265.0,119.0,531.0,219.0,349.0,1642.265
1642275.0,117.0,521.0,195.0,352.0,1642.275
1642285.0,120.0,512.0,193.0,341.0,1642.285
1642295.0,118.0,500.0,194.0,340.0,1642.295
1642305.0,112.0,490.0,180.0,346.0,1642.305
1642315.0,111.0,486.0,186.0,343.0,1642.315
1642326.0,109.0,477.0,175.0,349.0,1642.326
1642336.0,110.0,469.0,173.0,341.0,1642.336
1642346.0,108.0,462.0,155.0,336.0,1642.346
1642356.0,106.0,456.0,157.0,333.0,1642.356
1642366.0,108.0,451.0,166.0,303.0,1642.366
1642376.0,106.0,443.0,164.0,315.0,1642.376
1642386.0,107.0,444.0,185.0,319.0,1642.386
1642396.0,102.0,434.0,185.0,324.0,1642.396
1642406.0,101.0,431.0,174.0,313.0,1642.406
1642416.0,98.0,425.0,167.0,322.0,1642.416
1642426.0,97.0,425.0,159.0,328.0,1642.426
1642436.0,93.0,415.0,146.0,306.0,1642.436
1642446.0,92.0,412.0,145.0,303.0,1642.446
1642456.0,95.0,412.0,136.0,309.0,1642.456
1642466.0,99.0,411.0,139.0,319.0,1642.466
1642476.0,102.0,412.0,154.0,318.0,1642.476
1642486.0,96.0,406.0,148.0,324.0,1642.486
1642496.0,99.0,409.0,188.0,300.0,1642.496
1642506.0,93.0,399.0,192.0,324.0,1642.506
1642516.0,90.0,397.0,183.0,303.0,1642.516
1642526.0,94.0,392.0,187.0,298.0,1642.526
1642536.0,91.0,382.0,179.0,293.0,1642.536
1642546.0,89.0,373.0,172.0,295.0,1642.546
1642556.0,91.0,363.0,161.0,282.0,1642.556
1642566.0,88.0,353.0,152.0,288.0,1642.566
1642576.0,85.0,340.0,138.0,298.0,1642.576
1642586.0,88.0,340.0,142.0,283.0,1642.586
1642596.0,87.0,326.0,159.0,301.0,1642.596
1642606.0,87.0,321.0,157.0,298.0,1642.606
1642616.0,90.0,319.0,155.0,274.0,1642.616
1642626.0,87.0,311.0,176.0,262.0,1642.626
1642636.0,89.0,300.0,172.0,253.0,1642.636
1642646.0,85.0,288.0,170.0,269.0,1642.646
1642656.0,82.0,279.0,173.0,276.0,1642.656
1642667.0,80.0,274.0,158.0,275.0,1642.667
1642677.0,82.0,273.0,182.0,268.0,1642.677
1642687.0,80.0,268.0,167.0,277.0,1642.687
1642697.0,80.0,260.0,181.0,275.0,1642.697
1642707.0,81.0,260.0,177.0,260.0,1642.707
1642717.0,81.0,256.0,172.0,259.0,1642.717
1642727.0,78.0,247.0,204.0,254.0,1642.727
1642737.0,77.0,249.0,197.0,253.0,1642.737
1642747.0,81.0,245.0,183.0,252.0,1642.747
1642757.0,82.0,242.0,175.0,261.0,1642.757
1642767.0,82.0,240.0,172.0,253.0,1642.767
1642777.0,81.0,239.0,164.0,248.0,1642.777
1642787.0,78.0,234.0,162.0,263.0,1642.787
1642797.0,78.0,233.0,165.0,250.0,1642.797
1642807.0,78.0,229.0,172.0,246.0,1642.807
1642817.0,80.0,228.0,166.0,249.0,1642.817
1642827.0,80.0,226.0,159.0,258.0,1642.827
1642838.0,81.0,228.0,164.0,247.0,1642.838
1642848.0,85.0,226.0,164.0,266.0,1642.848
1642858.0,80.0,223.0,160.0,276.0,1642.858
1642868.0,79.0,219.0,157.0,259.0,1642.868
1642878.0,78.0,222.0,141.0,247.0,1642.878
1642888.0,77.0,219.0,137.0,242.0,1642.888
1642898.0,75.0,213.0,155.0,246.0,1642.898
1642908.0,77.0,214.0,147.0,228.0,1642.908
1642918.0,76.0,214.0,176.0,235.0,1642.918
1642928.0,77.0,208.0,165.0,234.0,1642.928
1642938.0,75.0,204.0,158.0,239.0,1642.938
1642948.0,74.0,204.0,154.0,225.0,1642.948
1642958.0,74.0,201.0,164.0,236.0,1642.958
1642968.0,74.0,207.0,152.0,228.0,1642.968
1642978.0,77.0,203.0,141.0,226.0,1642.978
1642988.0,77.0,200.0,146.0,230.0,1642.988
1642998.0,75.0,198.0,143.0,217.0,1642.998
1643008.0,76.0,200.0,149.0,205.0,1643.008
1643018.0,79.0,195.0,137.0,219.0,1643.018
1643028.0,79.0,192.0,130.0,218.0,1643.028
1643038.0,80.0,196.0,155.0,205.0,1643.038
1643048.0,77.0,189.0,151.0,209.0,1643.048
1643058.0,76.0,184.0,137.0,217.0,1643.058
1643068.0,75.0,185.0,148.0,209.0,1643.068
1643078.0,78.0,187.0,147.0,202.0,1643.078
1643088.0,74.0,183.0,150.0,205.0,1643.088
1643098.0,72.0,182.0,146.0,204.0,1643.098
1643108.0,70.0,181.0,138.0,205.0,1643.108
1643118.0,69.0,181.0,142.0,214.0,1643.118
1643128.0,67.0,176.0,125.0,212.0,1643.128
1643138.0,65.0,176.0,111.0,199.0,1643.138
1643148.0,64.0,175.0,108.0,206.0,1643.148
1643158.0,64.0,174.0,146.0,226.0,1643.158
1643168.0,66.0,164.0,143.0,249.0,1643.168
1643179.0,63.0,161.0,124.0,248.0,1643.179
1643189.0,67.0,164.0,121.0,227.0,1643.189
1643199.0,70.0,156.0,120.0,232.0,1643.199
1643209.0,69.0,156.0,141.0,233.0,1643.209
1643219.0,70.0,151.0,135.0,223.0,1643.219
1643229.0,68.0,152.0,172.0,214.0,1643.229
1643239.0,68.0,146.0,170.0,225.0,1643.239
1643249.0,70.0,141.0,180.0,223.0,1643.249
1643259.0,67.0,138.0,176.0,219.0,1643.259
1643269.0,71.0,135.0,156.0,212.0,1643.269
1643279.0,68.0,132.0,150.0,201.0,1643.279
1643289.0,69.0,127.0,147.0,198.0,1643.289
1643299.0,67.0,123.0,145.0,181.0,1643.299
1643309.0,66.0,121.0,159.0,182.0,1643.309
1643319.0,66.0,116.0,154.0,182.0,1643.319
1643329.0,64.0,113.0,155.0,186.0,1643.329
1643339.0,64.0,109.0,152.0,182.0,1643.339
1643350.0,63.0,107.0,141.0,172.0,1643.35
1643360.0,61.0,103.0,134.0,177.0,1643.36
1643370.0,59.0,101.0,124.0,169.0,1643.37
1643380.0,56.0,97.0,126.0,158.0,1643.38
1643390.0,59.0,100.0,180.0,173.0,1643.39
1643400.0,62.0,97.0,183.0,190.0,1643.4
1643410.0,63.0,92.0,179.0,200.0,1643.41
1643420.0,61.0,89.0,161.0,203.0,1643.42
1643430.0,64.0,88.0,163.0,195.0,1643.43
1643440.0,64.0,85.0,162.0,182.0,1643.44
1643450.0,62.0,83.0,151.0,175.0,1643.45
1643460.0,64.0,83.0,146.0,180.0,1643.46
1643470.0,63.0,81.0,130.0,173.0,1643.47
1643480.0,64.0,78.0,127.0,178.0,1643.48
1643490.0,64.0,76.0,129.0,183.0,1643.49
1643500.0,63.0,77.0,121.0,178.0,1643.5
1643510.0,62.0,78.0,119.0,163.0,1643.51
1643520.0,60.0,76.0,130.0,163.0,1643.52
1643530.0,65.0,76.0,165.0,155.0,1643.53
1643540.0,65.0,73.0,163.0,157.0,1643.54
1643550.0,65.0,72.0,151.0,167.0,1643.55
1643560.0,65.0,74.0,161.0,160.0,1643.56
1643570.0,65.0,73.0,161.0,159.0,1643.57
1643580.0,66.0,72.0,160.0,163.0,1643.58
1643590.0,65.0,70.0,145.0,153.0,1643.59
1643600.0,64.0,69.0,146.0,157.0,1643.6
1643610.0,67.0,72.0,155.0,168.0,1643.61
1643620.0,67.0,72.0,158.0,163.0,1643.62
1643630.0,66.0,71.0,175.0,174.0,1643.63
1643640.0,69.0,74.0,175.0,165.0,1643.64
1643650.0,70.0,70.0,166.0,154.0,1643.65
1643660.0,69.0,71.0,168.0,154.0,1643.66
1643670.0,66.0,69.0,173.0,160.0,1643.67
1643680.0,70.0,69.0,175.0,161.0,1643.68
1643691.0,75.0,72.0,201.0,159.0,1643.691
1643701.0,74.0,75.0,209.0,168.0,1643.701
1643711.0,73.0,75.0,191.0,164.0,1643.711
1643721.0,75.0,75.0,199.0,155.0,1643.721
1643731.0,74.0,74.0,230.0,167.0,1643.731
1643741.0,76.0,74.0,215.0,162.0,1643.741
1643751.0,74.0,73.0,222.0,149.0,1643.751
1643761.0,74.0,74.0,210.0,137.0,1643.761
1643771.0,76.0,78.0,225.0,152.0,1643.771
1643781.0,75.0,79.0,210.0,145.0,1643.781
1643791.0,77.0,78.0,210.0,151.0,1643.791
1643801.0,77.0,87.0,247.0,159.0,1643.801
1643811.0,74.0,90.0,238.0,160.0,1643.811
1643821.0,71.0,93.0,216.0,152.0,1643.821
1643831.0,73.0,97.0,230.0,162.0,1643.831
1643841.0,79.0,101.0,221.0,147.0,1643.841
1643851.0,85.0,102.0,209.0,142.0,1643.851
1643862.0,81.0,101.0,220.0,151.0,1643.862
1643872.0,82.0,101.0,238.0,150.0,1643.872
1643882.0,82.0,105.0,240.0,153.0,1643.882
1643892.0,79.0,101.0,229.0,153.0,1643.892
1643902.0,80.0,106.0,268.0,176.0,1643.902
1643912.0,78.0,100.0,248.0,173.0,1643.912
1643922.0,84.0,99.0,249.0,193.0,1643.922
1643932.0,92.0,111.0,236.0,190.0,1643.932
1643942.0,91.0,111.0,229.0,189.0,1643.942
1643952.0,88.0,112.0,243.0,204.0,1643.952
1643962.0,94.0,120.0,254.0,197.0,1643.962
1643972.0,92.0,119.0,246.0,189.0,1643.972
1643982.0,93.0,120.0,261.0,176.0,1643.982
1643992.0,93.0,115.0,251.0,164.0,1643.992
1644002.0,87.0,108.0,234.0,157.0,1644.002
1644012.0,87.0,106.0,263.0,159.0,1644.012
1644022.0,87.0,102.0,282.0,170.0,1644.022
1644032.0,90.0,102.0,313.0,189.0,1644.032
1644042.0,94.0,100.0,310.0,184.0,1644.042
1644052.0,94.0,94.0,298.0,183.0,1644.052
1644062.0,94.0,86.0,267.0,165.0,1644.062
1644072.0,90.0,85.0,240.0,152.0,1644.072
1644082.0,91.0,86.0,255.0,151.0,1644.082
1644092.0,87.0,88.0,236.0,143.0,1644.092
1644102.0,87.0,87.0,230.0,140.0,1644.102
1644112.0,86.0,84.0,229.0,138.0,1644.112
1644122.0,85.0,87.0,219.0,138.0,1644.122
1644132.0,85.0,88.0,214.0,134.0,1644.132
1644142.0,85.0,85.0,207.0,130.0,1644.142
1644152.0,85.0,80.0,193.0,120.0,1644.152
1644162.0,82.0,78.0,201.0,112.0,1644.162
1644172.0,87.0,77.0,194.0,104.0,1644.172
1644182.0,96.0,76.0,189.0,103.0,1644.182
1644192.0,94.0,80.0,189.0,103.0,1644.192
1644203.0,116.0,76.0,216.0,101.0,1644.203
1644213.0,118.0,77.0,207.0,107.0,1644.213
1644223.0,110.0,75.0,189.0,101.0,1644.223
1644233.0,118.0,79.0,190.0,111.0,1644.233
1644243.0,118.0,79.0,171.0,111.0,1644.243
1644253.0,122.0,82.0,166.0,111.0,1644.253
1644263.0,129.0,87.0,160.0,128.0,1644.263
1644273.0,126.0,85.0,149.0,142.0,1644.273
1644283.0,123.0,92.0,210.0,138.0,1644.283
1644293.0,121.0,96.0,213.0,145.0,1644.293
1644303.0,121.0,97.0,190.0,141.0,1644.303
1644313.0,125.0,99.0,182.0,137.0,1644.313
1644323.0,122.0,99.0,189.0,157.0,1644.323
1644333.0,121.0,107.0,179.0,168.0,1644.333
1644343.0,117.0,109.0,191.0,167.0,1644.343
1644353.0,112.0,114.0,200.0,166.0,1644.353
1644363.0,113.0,117.0,201.0,158.0,1644.363
1644374.0,113.0,119.0,186.0,153.0,1644.374
1644384.0,108.0,120.0,202.0,154.0,1644.384
1644394.0,112.0,125.0,196.0,155.0,1644.394
1644404.0,104.0,126.0,193.0,144.0,1644.404
1644414.0,104.0,128.0,223.0,146.0,1644.414
1644424.0,103.0,128.0,249.0,146.0,1644.424
1644434.0,101.0,134.0,235.0,170.0,1644.434
1644444.0,103.0,141.0,219.0,175.0,1644.444
1644454.0,100.0,145.0,205.0,174.0,1644.454
1644464.0,105.0,147.0,214.0,168.0,1644.464
1644474.0,104.0,145.0,258.0,171.0,1644.474
1644484.0,107.0,153.0,251.0,171.0,1644.484
1644494.0,102.0,154.0,241.0,160.0,1644.494
1644504.0,102.0,159.0,228.0,155.0,1644.504
1644514.0,100.0,157.0,263.0,153.0,1644.514
1644524.0,105.0,165.0,260.0,159.0,1644.524
1644534.0,104.0,169.0,241.0,181.0,1644.534
1644544.0,103.0,174.0,231.0,179.0,1644.544
1644554.0,99.0,172.0,232.0,166.0,1644.554
1644564.0,99.0,172.0,238.0,163.0,1644.564
1644574.0,96.0,173.0,217.0,162.0,1644.574
1644584.0,101.0,173.0,314.0,167.0,1644.584
1644594.0,105.0,179.0,313.0,175.0,1644.594
1644604.0,105.0,175.0,351.0,184.0,1644.604
1644614.0,107.0,178.0,361.0,197.0,1644.614
1644624.0,106.0,175.0,386.0,191.0,1644.624
1644634.0,106.0,172.0,444.0,207.0,1644.634
1644644.0,113.0,177.0,494.0,234.0,1644.644
1644654.0,109.0,172.0,505.0,248.0,1644.654
1644664.0,116.0,181.0,506.0,262.0,1644.664
1644674.0,116.0,185.0,471.0,253.0,1644.674
1644684.0,112.0,186.0,419.0,241.0,1644.684
1644694.0,109.0,184.0,404.0,233.0,1644.694
1644704.0,105.0,184.0,364.0,224.0,1644.704
1644715.0,101.0,183.0,328.0,214.0,1644.715
1644725.0,99.0,181.0,350.0,209.0,1644.725
1644735.0,105.0,183.0,350.0,219.0,1644.735
1644745.0,106.0,187.0,349.0,220.0,1644.745
1644755.0,104.0,188.0,323.0,211.0,1644.755
1644765.0,99.0,184.0,325.0,201.0,1644.765
1644775.0,103.0,192.0,333.0,211.0,1644.775
1644785.0,102.0,194.0,304.0,203.0,1644.785
1644795.0,100.0,192.0,288.0,184.0,1644.795
1644805.0,98.0,192.0,268.0,175.0,1644.805
1644815.0,94.0,193.0,253.0,169.0,1644.815
1644825.0,96.0,195.0,266.0,168.0,1644.825
1644835.0,99.0,199.0,282.0,175.0,1644.835
1644845.0,99.0,202.0,260.0,178.0,1644.845
1644855.0,97.0,204.0,239.0,168.0,1644.855
1644865.0,97.0,204.0,215.0,167.0,1644.865
1644875.0,96.0,204.0,203.0,158.0,1644.875
1644886.0,93.0,203.0,199.0,156.0,1644.886
1644896.0,93.0,203.0,191.0,153.0,1644.896
1644906.0,92.0,203.0,179.0,147.0,1644.906
1644916.0,93.0,206.0,179.0,154.0,1644.916
1644926.0,96.0,200.0,231.0,173.0,1644.926
1644936.0,97.0,204.0,225.0,175.0,1644.936
1644946.0,97.0,207.0,211.0,174.0,1644.946
1644956.0,94.0,204.0,192.0,163.0,1644.956
1644966.0,92.0,205.0,185.0,154.0,1644.966
1644976.0,95.0,205.0,180.0,154.0,1644.976
1644986.0,91.0,203.0,171.0,146.0,1644.986
1644996.0,93.0,203.0,162.0,143.0,1644.996
1645006.0,92.0,201.0,156.0,142.0,1645.006
1645016.0,92.0,200.0,164.0,142.0,1645.016
1645026.0,95.0,200.0,169.0,147.0,1645.026
1645036.0,94.0,197.0,172.0,142.0,1645.036
1645046.0,93.0,197.0,178.0,133.0,1645.046
1645056.0,91.0,198.0,164.0,129.0,1645.056
1645066.0,91.0,198.0,152.0,126.0,1645.066
1645076.0,93.0,199.0,137.0,123.0,1645.076
1645086.0,90.0,200.0,136.0,121.0,1645.086
1645096.0,89.0,195.0,160.0,116.0,1645.096
1645106.0,88.0,196.0,192.0,131.0,1645.106
1645116.0,89.0,195.0,192.0,133.0,1645.116
1645126.0,89.0,198.0,177.0,139.0,1645.126
1645136.0,92.0,193.0,198.0,136.0,1645.136
1645146.0,93.0,192.0,210.0,139.0,1645.146
1645156.0,89.0,191.0,198.0,132.0,1645.156
1645166.0,90.0,192.0,182.0,131.0,1645.166
1645176.0,86.0,191.0,172.0,135.0,1645.176
1645186.0,86.0,190.0,172.0,140.0,1645.186
1645196.0,85.0,189.0,165.0,130.0,1645.196
1645206.0,84.0,186.0,162.0,126.0,1645.206
1645216.0,84.0,188.0,163.0,124.0,1645.216
1645227.0,84.0,188.0,148.0,119.0,1645.227
1645237.0,87.0,187.0,190.0,138.0,1645.237
1645247.0,86.0,188.0,168.0,138.0,1645.247
1645257.0,87.0,188.0,146.0,131.0,1645.257
1645267.0,86.0,184.0,150.0,129.0,1645.267
1645277.0,87.0,186.0,147.0,128.0,1645.277
1645287.0,87.0,181.0,148.0,133.0,1645.287
1645297.0,89.0,185.0,157.0,139.0,1645.297
1645307.0,92.0,185.0,145.0,134.0,1645.307
1645317.0,91.0,181.0,164.0,140.0,1645.317
1645327.0,95.0,185.0,162.0,140.0,1645.327
1645337.0,97.0,185.0,168.0,156.0,1645.337
1645347.0,102.0,189.0,164.0,177.0,1645.347
1645357.0,97.0,181.0,152.0,193.0,1645.357
1645367.0,109.0,186.0,157.0,194.0,1645.367
1645377.0,113.0,192.0,141.0,212.0,1645.377
1645387.0,115.0,198.0,144.0,201.0,1645.387
1645398.0,110.0,193.0,144.0,231.0,1645.398
1645408.0,112.0,193.0,160.0,263.0,1645.408
1645418.0,121.0,206.0,164.0,246.0,1645.418
1645428.0,127.0,212.0,160.0,232.0,1645.428
1645438.0,126.0,209.0,153.0,227.0,1645.438
1645448.0,129.0,213.0,168.0,227.0,1645.448
1645458.0,133.0,219.0,177.0,225.0,1645.458
1645468.0,136.0,223.0,156.0,230.0,1645.468
1645478.0,137.0,227.0,145.0,236.0,1645.478
1645488.0,141.0,236.0,144.0,232.0,1645.488
1645498.0,145.0,244.0,146.0,224.0,1645.498
1645508.0,145.0,250.0,139.0,221.0,1645.508
1645518.0,151.0,262.0,136.0,209.0,1645.518
1645528.0,149.0,266.0,152.0,210.0,1645.528
1645538.0,150.0,276.0,146.0,238.0,1645.538
1645548.0,149.0,285.0,138.0,216.0,1645.548
1645558.0,150.0,295.0,128.0,199.0,1645.558
1645568.0,151.0,303.0,135.0,196.0,1645.568
1645578.0,149.0,310.0,129.0,202.0,1645.578
1645588.0,145.0,317.0,123.0,194.0,1645.588
1645598.0,145.0,327.0,111.0,192.0,1645.598
1645608.0,141.0,333.0,100.0,211.0,1645.608
1645618.0,136.0,337.0,112.0,204.0,1645.618
1645628.0,137.0,350.0,111.0,212.0,1645.628
1645638.0,133.0,355.0,111.0,212.0,1645.638
1645648.0,131.0,359.0,97.0,202.0,1645.648
1645658.0,125.0,361.0,92.0,201.0,1645.658
1645668.0,126.0,367.0,123.0,198.0,1645.668
1645678.0,126.0,375.0,122.0,197.0,1645.678
1645688.0,123.0,379.0,115.0,189.0,1645.688
1645698.0,122.0,383.0,103.0,192.0,1645.698
1645708.0,118.0,383.0,101.0,192.0,1645.708
1645718.0,116.0,383.0,94.0,204.0,1645.718
1645728.0,115.0,388.0,85.0,215.0,1645.728
1645739.0,114.0,389.0,82.0,202.0,1645.739
1645749.0,110.0,388.0,80.0,196.0,1645.749
1645759.0,124.0,388.0,82.0,198.0,1645.759
1645769.0,531.0,386.0,79.0,203.0,1645.769
1645779.0,613.0,381.0,78.0,196.0,1645.779
1645789.0,593.0,385.0,83.0,181.0,1645.789
1645799.0,524.0,378.0,80.0,183.0,1645.799
1645809.0,462.0,375.0,72.0,190.0,1645.809
1645819.0,416.0,369.0,68.0,181.0,1645.819
1645829.0,384.0,367.0,66.0,190.0,1645.829
1645839.0,355.0,362.0,63.0,196.0,1645.839
1645849.0,332.0,358.0,63.0,207.0,1645.849
1645859.0,310.0,352.0,60.0,196.0,1645.859
1645869.0,296.0,350.0,57.0,192.0,1645.869
1645879.0,282.0,345.0,57.0,186.0,1645.879
1645889.0,268.0,341.0,66.0,185.0,1645.889
1645899.0,254.0,336.0,66.0,183.0,1645.899
1645910.0,244.0,332.0,63.0,169.0,1645.91
1645920.0,233.0,330.0,59.0,176.0,1645.92
1645930.0,202.0,315.0,57.0,159.0,1645.93
1645940.0,546.0,318.0,72.0,165.0,1645.94
1645950.0,624.0,313.0,71.0,173.0,1645.95
1645960.0,595.0,308.0,80.0,167.0,1645.96
1645970.0,526.0,308.0,82.0,155.0,1645.97
1645980.0,469.0,305.0,77.0,186.0,1645.98
1645990.0,424.0,298.0,95.0,194.0,1645.99
1646000.0,399.0,296.0,88.0,188.0,1646.0
1646010.0,373.0,293.0,80.0,183.0,1646.01
1646020.0,353.0,292.0,71.0,180.0,1646.02
1646030.0,336.0,288.0,62.0,177.0,1646.03
1646040.0,320.0,294.0,66.0,169.0,1646.04
1646050.0,279.0,280.0,61.0,171.0,1646.05
1646060.0,218.0,279.0,64.0,196.0,1646.06
1646070.0,165.0,265.0,75.0,192.0,1646.07
1646080.0,27.0,245.0,87.0,182.0,1646.08
1646090.0,0.0,221.0,93.0,165.0,1646.09
1646100.0,0.0,197.0,111.0,180.0,1646.1
1646110.0,0.0,175.0,118.0,180.0,1646.11
1646120.0,0.0,159.0,130.0,172.0,1646.12
1646130.0,0.0,149.0,132.0,165.0,1646.13
1646140.0,0.0,139.0,153.0,178.0,1646.14
1646150.0,0.0,132.0,171.0,187.0,1646.15
1646160.0,0.0,130.0,177.0,180.0,1646.16
1646170.0,0.0,129.0,184.0,162.0,1646.17
1646180.0,0.0,127.0,187.0,164.0,1646.18
1646190.0,0.0,128.0,197.0,193.0,1646.19
1646200.0,0.0,129.0,200.0,193.0,1646.2
1646210.0,0.0,130.0,209.0,177.0,1646.21
1646220.0,0.0,130.0,228.0,173.0,1646.22
1646230.0,0.0,132.0,224.0,167.0,1646.23
1646240.0,0.0,134.0,229.0,173.0,1646.24
1646251.0,0.0,136.0,230.0,171.0,1646.251
1646261.0,0.0,139.0,238.0,166.0,1646.261
1646271.0,0.0,140.0,245.0,186.0,1646.271
1646281.0,0.0,142.0,231.0,186.0,1646.281
1646291.0,669.0,158.0,249.0,199.0,1646.291
1646301.0,669.0,167.0,233.0,204.0,1646.301
1646311.0,670.0,181.0,210.0,194.0,1646.311
1646321.0,668.0,197.0,186.0,191.0,1646.321
1646331.0,669.0,211.0,168.0,209.0,1646.331
1646341.0,165.0,209.0,153.0,200.0,1646.341
1646351.0,10.0,205.0,138.0,188.0,1646.351
1646361.0,1.0,193.0,129.0,176.0,1646.361
1646371.0,0.0,179.0,117.0,175.0,1646.371
1646381.0,0.0,166.0,125.0,164.0,1646.381
1646391.0,0.0,151.0,124.0,159.0,1646.391
1646401.0,0.0,136.0,118.0,159.0,1646.401
1646411.0,0.0,124.0,119.0,157.0,1646.411
1646422.0,0.0,115.0,121.0,148.0,1646.422
1646432.0,0.0,108.0,127.0,139.0,1646.432
1646442.0,0.0,103.0,127.0,134.0,1646.442
1646452.0,0.0,100.0,126.0,139.0,1646.452
1646462.0,0.0,101.0,138.0,144.0,1646.462
1646472.0,0.0,98.0,135.0,139.0,1646.472
1646482.0,0.0,97.0,141.0,139.0,1646.482
1646492.0,0.0,96.0,149.0,129.0,1646.492
1646502.0,0.0,97.0,151.0,148.0,1646.502
1646512.0,0.0,97.0,145.0,143.0,1646.512
1646522.0,0.0,99.0,155.0,133.0,1646.522
1646532.0,0.0,100.0,153.0,136.0,1646.532
1646542.0,0.0,103.0,150.0,145.0,1646.542
1646552.0,0.0,103.0,146.0,141.0,1646.552
1646562.0,0.0,102.0,157.0,137.0,1646.562
1646572.0,0.0,102.0,164.0,141.0,1646.572
1646582.0,0.0,105.0,159.0,161.0,1646.582
1646592.0,0.0,106.0,155.0,157.0,1646.592
1646602.0,0.0,108.0,150.0,150.0,1646.602
1646612.0,0.0,106.0,158.0,145.0,1646.612
1646622.0,0.0,108.0,164.0,147.0,1646.622
1646632.0,0.0,109.0,167.0,156.0,1646.632
1646642.0,0.0,108.0,155.0,149.0,1646.642
1646652.0,0.0,107.0,152.0,142.0,1646.652
1646662.0,0.0,107.0,152.0,139.0,1646.662
1646672.0,0.0,110.0,143.0,164.0,1646.672
1646682.0,0.0,106.0,142.0,162.0,1646.682
1646692.0,0.0,105.0,140.0,166.0,1646.692
1646702.0,0.0,104.0,142.0,155.0,1646.702
1646712.0,0.0,100.0,136.0,164.0,1646.712
1646722.0,0.0,101.0,141.0,154.0,1646.722
1646732.0,0.0,98.0,141.0,147.0,1646.732
1646742.0,0.0,95.0,128.0,145.0,1646.742
1646752.0,0.0,93.0,127.0,142.0,1646.752
1646763.0,0.0,89.0,132.0,161.0,1646.763
1646773.0,0.0,87.0,124.0,157.0,1646.773
1646783.0,0.0,84.0,120.0,146.0,1646.783
1646793.0,0.0,84.0,121.0,139.0,1646.793
1646803.0,0.0,82.0,111.0,167.0,1646.803
1646813.0,0.0,79.0,119.0,170.0,1646.813
1646823.0,0.0,75.0,124.0,163.0,1646.823
1646833.0,0.0,72.0,114.0,158.0,1646.833
1646843.0,0.0,74.0,109.0,151.0,1646.843
1646853.0,0.0,74.0,111.0,155.0,1646.853
1646863.0,0.0,70.0,113.0,143.0,1646.863
1646873.0,0.0,67.0,111.0,137.0,1646.873
1646883.0,0.0,67.0,108.0,131.0,1646.883
1646893.0,0.0,66.0,105.0,138.0,1646.893
1646903.0,0.0,65.0,117.0,159.0,1646.903
1646913.0,0.0,64.0,107.0,152.0,1646.913
1646923.0,0.0,64.0,106.0,152.0,1646.923
1646934.0,0.0,65.0,106.0,152.0,1646.934
1646944.0,1.0,64.0,116.0,160.0,1646.944
1646954.0,0.0,61.0,106.0,151.0,1646.954
1646964.0,0.0,61.0,98.0,156.0,1646.964
1646974.0,0.0,59.0,99.0,151.0,1646.974
1646984.0,0.0,59.0,99.0,145.0,1646.984
1646994.0,0.0,56.0,95.0,140.0,1646.994
1647004.0,0.0,57.0,87.0,134.0,1647.004
1647014.0,0.0,59.0,87.0,135.0,1647.014
1647024.0,0.0,55.0,86.0,149.0,1647.024
1647034.0,0.0,58.0,90.0,144.0,1647.034
1647044.0,0.0,55.0,95.0,133.0,1647.044
1647054.0,0.0,56.0,87.0,144.0,1647.054
1647064.0,0.0,55.0,89.0,141.0,1647.064
1647074.0,0.0,53.0,80.0,141.0,1647.074
1647084.0,0.0,52.0,77.0,135.0,1647.084
1647094.0,0.0,51.0,71.0,131.0,1647.094
1647104.0,0.0,50.0,74.0,140.0,1647.104
1647114.0,0.0,49.0,66.0,140.0,1647.114
1647124.0,0.0,53.0,68.0,133.0,1647.124
1647134.0,0.0,52.0,65.0,134.0,1647.134
1647144.0,0.0,52.0,63.0,148.0,1647.144
1647154.0,0.0,53.0,64.0,144.0,1647.154
1647164.0,0.0,53.0,57.0,152.0,1647.164
1647174.0,0.0,52.0,61.0,148.0,1647.174
1647184.0,0.0,49.0,61.0,141.0,1647.184
1647194.0,0.0,51.0,57.0,140.0,1647.194
1647204.0,0.0,49.0,54.0,135.0,1647.204
1647214.0,0.0,48.0,52.0,132.0,1647.214
1647224.0,0.0,46.0,47.0,123.0,1647.224
1647234.0,0.0,46.0,45.0,130.0,1647.234
1647244.0,0.0,46.0,46.0,139.0,1647.244
1647254.0,0.0,46.0,54.0,142.0,1647.254
1647264.0,0.0,47.0,57.0,136.0,1647.264
1647275.0,0.0,46.0,53.0,136.0,1647.275
1647285.0,0.0,61.0,63.0,140.0,1647.285
1647295.0,0.0,75.0,69.0,136.0,1647.295
1647305.0,0.0,89.0,62.0,133.0,1647.305
1647315.0,0.0,99.0,58.0,122.0,1647.315
1647325.0,0.0,101.0,63.0,118.0,1647.325
1647335.0,0.0,104.0,70.0,121.0,1647.335
1647345.0,0.0,103.0,64.0,110.0,1647.345
1647355.0,668.0,144.0,100.0,146.0,1647.355
1647365.0,669.0,178.0,130.0,166.0,1647.365
1647375.0,668.0,213.0,158.0,167.0,1647.375
1647385.0,668.0,243.0,188.0,199.0,1647.385
1647395.0,668.0,269.0,205.0,213.0,1647.395
1647405.0,669.0,288.0,219.0,222.0,1647.405
1647415.0,668.0,307.0,226.0,226.0,1647.415
1647425.0,669.0,322.0,230.0,218.0,1647.425
1647435.0,669.0,333.0,241.0,225.0,1647.435
1647446.0,669.0,339.0,258.0,226.0,1647.446
1647456.0,669.0,348.0,245.0,229.0,1647.456
1647466.0,668.0,353.0,243.0,226.0,1647.466
1647476.0,668.0,356.0,250.0,250.0,1647.476
1647486.0,668.0,357.0,245.0,242.0,1647.486
1647496.0,669.0,357.0,237.0,229.0,1647.496
1647506.0,668.0,354.0,245.0,220.0,1647.506
1647516.0,669.0,353.0,237.0,223.0,1647.516
1647526.0,668.0,350.0,241.0,214.0,1647.526
1647536.0,668.0,348.0,237.0,199.0,1647.536
1647546.0,668.0,344.0,235.0,193.0,1647.546
1647556.0,668.0,340.0,221.0,193.0,1647.556
1647566.0,669.0,337.0,214.0,219.0,1647.566
1647576.0,668.0,332.0,214.0,210.0,1647.576
1647586.0,669.0,325.0,220.0,192.0,1647.586
1647596.0,668.0,324.0,203.0,189.0,1647.596
1647606.0,668.0,318.0,193.0,175.0,1647.606
1647616.0,668.0,314.0,189.0,171.0,1647.616
1647626.0,668.0,308.0,186.0,161.0,1647.626
1647636.0,668.0,303.0,192.0,151.0,1647.636
1647646.0,668.0,299.0,177.0,154.0,1647.646
1647656.0,669.0,294.0,178.0,139.0,1647.656
1647666.0,668.0,289.0,180.0,134.0,1647.666
1647676.0,668.0,285.0,175.0,126.0,1647.676
1647686.0,668.0,281.0,163.0,122.0,1647.686
1647696.0,668.0,278.0,160.0,121.0,1647.696
1647706.0,668.0,272.0,156.0,132.0,1647.706
1647716.0,668.0,266.0,145.0,132.0,1647.716
1647726.0,668.0,262.0,142.0,137.0,1647.726
1647736.0,668.0,257.0,132.0,131.0,1647.736
1647746.0,668.0,252.0,139.0,151.0,1647.746
1647756.0,668.0,248.0,129.0,143.0,1647.756
1647766.0,668.0,244.0,124.0,139.0,1647.766
1647776.0,668.0,236.0,128.0,132.0,1647.776
1647787.0,668.0,234.0,121.0,140.0,1647.787
1647797.0,668.0,230.0,111.0,136.0,1647.797
1647807.0,668.0,226.0,109.0,133.0,1647.807
1647817.0,667.0,222.0,114.0,135.0,1647.817
1647827.0,668.0,220.0,101.0,135.0,1647.827
1647837.0,668.0,217.0,91.0,126.0,1647.837
1647847.0,667.0,213.0,93.0,113.0,1647.847
1647857.0,667.0,209.0,93.0,107.0,1647.857
1647867.0,668.0,205.0,101.0,110.0,1647.867
1647877.0,668.0,201.0,94.0,112.0,1647.877
1647887.0,668.0,200.0,90.0,119.0,1647.887
1647897.0,668.0,197.0,95.0,117.0,1647.897
1647907.0,668.0,196.0,86.0,116.0,1647.907
1647917.0,668.0,192.0,90.0,124.0,1647.917
1647927.0,667.0,190.0,79.0,116.0,1647.927
1647937.0,667.0,186.0,73.0,108.0,1647.937
1647947.0,668.0,184.0,66.0,101.0,1647.947
1647958.0,667.0,180.0,70.0,95.0,1647.958
1647968.0,668.0,177.0,68.0,99.0,1647.968
1647978.0,668.0,177.0,70.0,99.0,1647.978
1647988.0,667.0,174.0,74.0,91.0,1647.988
1647998.0,667.0,172.0,78.0,90.0,1647.998
1648008.0,667.0,171.0,70.0,88.0,1648.008
1648018.0,615.0,171.0,62.0,82.0,1648.018
1648028.0,552.0,170.0,56.0,122.0,1648.028
1648038.0,503.0,169.0,57.0,124.0,1648.038
1648048.0,470.0,169.0,59.0,122.0,1648.048
1648058.0,442.0,168.0,53.0,118.0,1648.058
1648068.0,424.0,164.0,52.0,108.0,1648.068
1648078.0,411.0,160.0,59.0,124.0,1648.078
1648088.0,409.0,159.0,55.0,125.0,1648.088
1648098.0,412.0,158.0,56.0,127.0,1648.098
1648108.0,418.0,155.0,50.0,114.0,1648.108
1648118.0,427.0,152.0,51.0,121.0,1648.118
1648128.0,437.0,151.0,59.0,117.0,1648.128
1648138.0,452.0,149.0,57.0,110.0,1648.138
1648148.0,470.0,149.0,52.0,111.0,1648.148
1648158.0,487.0,147.0,53.0,106.0,1648.158
1648168.0,504.0,146.0,46.0,106.0,1648.168
1648178.0,519.0,145.0,43.0,108.0,1648.178
1648188.0,535.0,140.0,48.0,105.0,1648.188
1648198.0,553.0,140.0,48.0,105.0,1648.198
1648208.0,571.0,137.0,49.0,106.0,1648.208
1648218.0,588.0,138.0,46.0,113.0,1648.218
1648228.0,607.0,138.0,45.0,107.0,1648.228
1648238.0,623.0,136.0,44.0,99.0,1648.238
1648248.0,638.0,133.0,48.0,98.0,1648.248
1648258.0,655.0,135.0,46.0,101.0,1648.258
1648268.0,667.0,133.0,44.0,103.0,1648.268
1648278.0,667.0,130.0,42.0,96.0,1648.278
1648288.0,667.0,129.0,39.0,94.0,1648.288
1648299.0,668.0,127.0,47.0,107.0,1648.299
1648309.0,668.0,127.0,45.0,103.0,1648.309
1648319.0,668.0,128.0,41.0,125.0,1648.319
1648329.0,667.0,124.0,53.0,115.0,1648.329
1648339.0,667.0,125.0,48.0,111.0,1648.339
1648349.0,668.0,122.0,45.0,108.0,1648.349
1648359.0,668.0,120.0,40.0,105.0,1648.359
1648369.0,667.0,118.0,35.0,110.0,1648.369
1648379.0,668.0,115.0,32.0,110.0,1648.379
1648389.0,667.0,112.0,28.0,101.0,1648.389
1648399.0,667.0,110.0,25.0,93.0,1648.399
1648409.0,667.0,107.0,42.0,105.0,1648.409
1648419.0,667.0,109.0,59.0,106.0,1648.419
1648429.0,667.0,108.0,54.0,102.0,1648.429
1648439.0,667.0,107.0,47.0,98.0,1648.439
1648449.0,668.0,107.0,43.0,96.0,1648.449
1648459.0,667.0,105.0,42.0,103.0,1648.459
1648470.0,667.0,103.0,37.0,104.0,1648.47
1648480.0,667.0,103.0,33.0,95.0,1648.48
1648490.0,667.0,102.0,31.0,95.0,1648.49
1648500.0,667.0,100.0,33.0,91.0,1648.5
1648510.0,666.0,100.0,32.0,98.0,1648.51
1648520.0,668.0,97.0,39.0,98.0,1648.52
1648530.0,667.0,98.0,48.0,103.0,1648.53
1648540.0,667.0,98.0,49.0,98.0,1648.54
1648550.0,668.0,100.0,43.0,98.0,1648.55
1648560.0,667.0,100.0,39.0,108.0,1648.56
1648570.0,667.0,96.0,47.0,106.0,1648.57
1648580.0,667.0,96.0,43.0,108.0,1648.58
1648590.0,667.0,95.0,42.0,103.0,1648.59
1648600.0,668.0,95.0,41.0,100.0,1648.6
1648610.0,667.0,96.0,38.0,101.0,1648.61
1648620.0,668.0,96.0,42.0,129.0,1648.62
1648630.0,667.0,95.0,59.0,124.0,1648.63
1648640.0,666.0,94.0,54.0,114.0,1648.64
1648650.0,667.0,94.0,49.0,110.0,1648.65
1648660.0,668.0,93.0,48.0,106.0,1648.66
1648670.0,668.0,92.0,43.0,114.0,1648.67
1648680.0,667.0,90.0,46.0,109.0,1648.68
1648690.0,668.0,91.0,42.0,115.0,1648.69
1648700.0,667.0,91.0,41.0,117.0,1648.7
1648710.0,667.0,91.0,37.0,113.0,1648.71
1648720.0,667.0,91.0,35.0,105.0,1648.72
1648730.0,667.0,92.0,31.0,107.0,1648.73
1648740.0,669.0,90.0,35.0,115.0,1648.74
1648750.0,667.0,91.0,31.0,106.0,1648.75
1648760.0,667.0,90.0,37.0,104.0,1648.76
1648770.0,667.0,90.0,34.0,101.0,1648.77
1648780.0,666.0,90.0,30.0,103.0,1648.78
1648790.0,667.0,88.0,31.0,117.0,1648.79
1648800.0,667.0,88.0,33.0,118.0,1648.8
1648811.0,668.0,89.0,29.0,116.0,1648.811
1648821.0,667.0,90.0,28.0,111.0,1648.821
1648831.0,667.0,87.0,32.0,108.0,1648.831
1648841.0,666.0,89.0,33.0,114.0,1648.841
1648851.0,667.0,88.0,30.0,117.0,1648.851
1648861.0,667.0,86.0,30.0,116.0,1648.861
1648871.0,667.0,87.0,33.0,111.0,1648.871
1648881.0,667.0,87.0,31.0,108.0,1648.881
1648891.0,667.0,87.0,28.0,106.0,1648.891
1648901.0,668.0,85.0,41.0,108.0,1648.901
1648911.0,667.0,87.0,41.0,107.0,1648.911
1648921.0,667.0,89.0,42.0,104.0,1648.921
1648931.0,667.0,86.0,40.0,98.0,1648.931
1648941.0,667.0,86.0,36.0,100.0,1648.941
1648951.0,667.0,86.0,32.0,102.0,1648.951
1648961.0,668.0,85.0,36.0,109.0,1648.961
1648971.0,667.0,84.0,30.0,110.0,1648.971
1648982.0,667.0,84.0,35.0,104.0,1648.982
1648992.0,667.0,85.0,40.0,106.0,1648.992
1649002.0,667.0,84.0,36.0,102.0,1649.002
1649012.0,667.0,84.0,32.0,100.0,1649.012
1649022.0,667.0,83.0,28.0,90.0,1649.022
1649032.0,668.0,81.0,25.0,88.0,1649.032
1649042.0,667.0,80.0,22.0,84.0,1649.042
1649052.0,667.0,78.0,20.0,93.0,1649.052
1649062.0,666.0,78.0,18.0,97.0,1649.062
1649072.0,667.0,76.0,16.0,89.0,1649.072
1649082.0,664.0,76.0,15.0,86.0,1649.082
1649092.0,663.0,74.0,20.0,95.0,1649.092
1649102.0,662.0,71.0,38.0,102.0,1649.102
1649112.0,660.0,70.0,38.0,109.0,1649.112
1649122.0,657.0,69.0,33.0,101.0,1649.122
1649132.0,652.0,67.0,30.0,94.0,1649.132
1649142.0,647.0,62.0,27.0,84.0,1649.142
1649152.0,643.0,60.0,25.0,77.0,1649.152
1649162.0,638.0,57.0,21.0,76.0,1649.162
1649172.0,633.0,54.0,22.0,79.0,1649.172
1649182.0,630.0,51.0,20.0,88.0,1649.182
1649192.0,626.0,51.0,28.0,95.0,1649.192
1649202.0,625.0,50.0,31.0,98.0,1649.202
1649212.0,623.0,50.0,27.0,94.0,1649.212
1649222.0,618.0,48.0,26.0,101.0,1649.222
1649232.0,615.0,47.0,23.0,115.0,1649.232
1649242.0,612.0,44.0,22.0,105.0,1649.242
1649252.0,607.0,42.0,18.0,97.0,1649.252
1649262.0,604.0,42.0,16.0,106.0,1649.262
1649272.0,600.0,41.0,21.0,107.0,1649.272
1649282.0,596.0,41.0,22.0,109.0,1649.282
1649292.0,591.0,41.0,29.0,102.0,1649.292
1649302.0,588.0,41.0,40.0,102.0,1649.302
1649312.0,586.0,41.0,38.0,100.0,1649.312
1649323.0,583.0,41.0,33.0,109.0,1649.323
1649333.0,577.0,41.0,30.0,112.0,1649.333
1649343.0,575.0,40.0,26.0,109.0,1649.343
1649353.0,572.0,41.0,25.0,104.0,1649.353
1649363.0,567.0,38.0,24.0,100.0,1649.363
1649373.0,563.0,39.0,37.0,104.0,1649.373
1649383.0,560.0,43.0,36.0,111.0,1649.383
1649393.0,556.0,42.0,36.0,113.0,1649.393
1649403.0,552.0,42.0,32.0,105.0,1649.403
1649413.0,549.0,41.0,28.0,100.0,1649.413
1649423.0,543.0,42.0,27.0,111.0,1649.423
1649433.0,537.0,42.0,38.0,110.0,1649.433
1649443.0,534.0,42.0,39.0,111.0,1649.443
1649453.0,529.0,43.0,33.0,107.0,1649.453
1649463.0,526.0,43.0,33.0,101.0,1649.463
1649473.0,520.0,43.0,28.0,98.0,1649.473
1649483.0,517.0,42.0,25.0,100.0,1649.483
1649494.0,511.0,44.0,25.0,97.0,1649.494
1649504.0,504.0,44.0,35.0,102.0,1649.504
1649514.0,500.0,43.0,32.0,103.0,1649.514
1649524.0,496.0,46.0,33.0,101.0,1649.524
1649534.0,493.0,45.0,29.0,109.0,1649.534
1649544.0,488.0,44.0,26.0,107.0,1649.544
1649554.0,483.0,43.0,24.0,105.0,1649.554
1649564.0,478.0,44.0,25.0,109.0,1649.564
1649574.0,473.0,43.0,27.0,112.0,1649.574
1649584.0,472.0,42.0,27.0,115.0,1649.584
1649594.0,469.0,43.0,27.0,104.0,1649.594
1649604.0,466.0,43.0,31.0,101.0,1649.604
1649614.0,463.0,43.0,28.0,95.0,1649.614
1649624.0,461.0,41.0,31.0,93.0,1649.624
1649634.0,456.0,42.0,32.0,95.0,1649.634
1649644.0,456.0,43.0,29.0,98.0,1649.644
1649654.0,453.0,40.0,26.0,92.0,1649.654
1649664.0,450.0,41.0,23.0,93.0,1649.664
1649674.0,448.0,40.0,24.0,103.0,1649.674
1649684.0,443.0,39.0,20.0,99.0,1649.684
1649694.0,439.0,39.0,22.0,93.0,1649.694
1649704.0,434.0,41.0,25.0,91.0,1649.704
1649714.0,432.0,42.0,26.0,92.0,1649.714
1649724.0,429.0,41.0,28.0,88.0,1649.724
1649734.0,428.0,42.0,25.0,88.0,1649.734
1649744.0,425.0,41.0,22.0,87.0,1649.744
1649754.0,423.0,41.0,21.0,110.0,1649.754
1649764.0,419.0,42.0,19.0,105.0,1649.764
1649774.0,417.0,40.0,20.0,99.0,1649.774
1649784.0,414.0,41.0,18.0,101.0,1649.784
1649794.0,411.0,39.0,16.0,100.0,1649.794
1649804.0,408.0,39.0,19.0,103.0,1649.804
1649814.0,406.0,42.0,23.0,100.0,1649.814
1649824.0,404.0,42.0,22.0,99.0,1649.824
1649835.0,400.0,42.0,23.0,98.0,1649.835
1649845.0,396.0,41.0,26.0,96.0,1649.845
1649855.0,393.0,42.0,33.0,103.0,1649.855
1649865.0,392.0,42.0,31.0,100.0,1649.865
1649875.0,390.0,43.0,39.0,94.0,1649.875
1649885.0,388.0,44.0,35.0,92.0,1649.885
1649895.0,387.0,45.0,34.0,90.0,1649.895
1649905.0,384.0,44.0,31.0,106.0,1649.905
1649915.0,384.0,44.0,27.0,109.0,1649.915
1649925.0,382.0,44.0,27.0,116.0,1649.925
1649935.0,380.0,45.0,40.0,119.0,1649.935
1649945.0,380.0,47.0,36.0,120.0,1649.945
1649955.0,378.0,48.0,32.0,124.0,1649.955
1649965.0,377.0,47.0,29.0,114.0,1649.965
1649975.0,372.0,46.0,30.0,110.0,1649.975
1649985.0,371.0,45.0,28.0,104.0,1649.985
1649995.0,369.0,45.0,26.0,100.0,1649.995
1650006.0,366.0,44.0,35.0,96.0,1650.006
1650016.0,366.0,42.0,31.0,98.0,1650.016
1650026.0,366.0,43.0,28.0,94.0,1650.026
1650036.0,365.0,41.0,25.0,98.0,1650.036
1650046.0,362.0,41.0,34.0,112.0,1650.046
1650056.0,361.0,41.0,33.0,106.0,1650.056
1650066.0,358.0,44.0,30.0,104.0,1650.066
1650076.0,359.0,43.0,30.0,99.0,1650.076
1650086.0,357.0,42.0,34.0,100.0,1650.086
