time (ms),signal 0,signal 1,signal 2,signal3,time (sec)
1699897.0,96.0,42.0,25.0,54.0,1699.897
1699907.0,98.0,44.0,28.0,54.0,1699.907
1699917.0,99.0,43.0,25.0,55.0,1699.917
1699927.0,99.0,43.0,25.0,55.0,1699.927
1699937.0,99.0,43.0,27.0,52.0,1699.937
1699947.0,99.0,42.0,31.0,52.0,1699.947
1699957.0,98.0,42.0,31.0,52.0,1699.957
1699968.0,98.0,44.0,32.0,50.0,1699.968
1699978.0,98.0,44.0,29.0,51.0,1699.978
1699988.0,96.0,44.0,29.0,51.0,1699.988
1699998.0,97.0,44.0,26.0,50.0,1699.998
1700008.0,94.0,44.0,25.0,47.0,1700.008
1700018.0,96.0,44.0,24.0,46.0,1700.018
1700028.0,94.0,44.0,23.0,48.0,1700.028
1700038.0,96.0,45.0,30.0,50.0,1700.038
1700048.0,96.0,45.0,28.0,51.0,1700.048
1700058.0,96.0,45.0,25.0,48.0,1700.058
1700068.0,97.0,45.0,23.0,47.0,1700.068
1700078.0,95.0,45.0,27.0,48.0,1700.078
1700088.0,96.0,46.0,32.0,46.0,1700.088
1700098.0,97.0,47.0,28.0,45.0,1700.098
1700108.0,97.0,46.0,37.0,43.0,1700.108
1700118.0,98.0,47.0,34.0,43.0,1700.118
1700128.0,98.0,48.0,30.0,42.0,1700.128
1700139.0,99.0,48.0,29.0,42.0,1700.139
1700149.0,99.0,47.0,27.0,47.0,1700.149
1700159.0,98.0,46.0,29.0,44.0,1700.159
1700169.0,98.0,46.0,31.0,44.0,1700.169
1700179.0,97.0,46.0,28.0,43.0,1700.179
1700189.0,96.0,46.0,26.0,45.0,1700.189
1700199.0,95.0,48.0,25.0,45.0,1700.199
1700209.0,93.0,47.0,25.0,45.0,1700.209
1700219.0,92.0,49.0,25.0,47.0,1700.219
1700229.0,90.0,48.0,26.0,46.0,1700.229
1700239.0,90.0,48.0,25.0,45.0,1700.239
1700249.0,88.0,48.0,30.0,48.0,1700.249
1700259.0,89.0,50.0,28.0,47.0,1700.259
1700269.0,87.0,51.0,24.0,48.0,1700.269
1700279.0,87.0,52.0,25.0,45.0,1700.279
1700289.0,86.0,52.0,28.0,48.0,1700.289
1700299.0,85.0,52.0,31.0,47.0,1700.299
1700310.0,85.0,52.0,27.0,45.0,1700.31
1700320.0,84.0,52.0,30.0,45.0,1700.32
1700330.0,85.0,53.0,28.0,44.0,1700.33
1700340.0,84.0,53.0,24.0,42.0,1700.34
1700350.0,83.0,55.0,33.0,42.0,1700.35
1700360.0,82.0,53.0,35.0,47.0,1700.36
1700370.0,82.0,54.0,34.0,45.0,1700.37
1700380.0,84.0,54.0,34.0,46.0,1700.38
1700390.0,85.0,54.0,39.0,50.0,1700.39
1700400.0,86.0,53.0,39.0,53.0,1700.4
1700410.0,84.0,53.0,45.0,53.0,1700.41
1700420.0,86.0,54.0,46.0,57.0,1700.42
1700430.0,88.0,55.0,42.0,59.0,1700.43
1700440.0,87.0,54.0,41.0,61.0,1700.44
1700450.0,87.0,52.0,36.0,60.0,1700.45
1700460.0,86.0,52.0,35.0,55.0,1700.46
1700470.0,85.0,51.0,41.0,56.0,1700.47
1700480.0,86.0,51.0,44.0,56.0,1700.48
1700490.0,86.0,52.0,50.0,59.0,1700.49
1700500.0,87.0,52.0,49.0,61.0,1700.5
1700510.0,86.0,52.0,43.0,60.0,1700.51
1700520.0,87.0,50.0,39.0,60.0,1700.52
1700530.0,87.0,50.0,37.0,60.0,1700.53
1700540.0,85.0,49.0,41.0,57.0,1700.54
1700550.0,79.0,62.0,38.0,56.0,1700.55
1700560.0,78.0,101.0,40.0,66.0,1700.56
1700570.0,87.0,135.0,63.0,88.0,1700.57
1700580.0,107.0,223.0,84.0,124.0,1700.58
1700590.0,134.0,218.0,85.0,155.0,1700.59
1700600.0,147.0,424.0,121.0,165.0,1700.6
1700610.0,171.0,482.0,139.0,175.0,1700.61
1700620.0,176.0,568.0,149.0,186.0,1700.62
1700630.0,196.0,669.0,190.0,199.0,1700.63
1700640.0,198.0,668.0,228.0,202.0,1700.64
1700651.0,220.0,661.0,204.0,214.0,1700.651
1700661.0,210.0,630.0,179.0,210.0,1700.661
1700671.0,207.0,628.0,196.0,204.0,1700.671
1700681.0,188.0,624.0,194.0,198.0,1700.681
1700691.0,179.0,668.0,200.0,209.0,1700.691
1700701.0,180.0,668.0,218.0,211.0,1700.701
1700711.0,178.0,668.0,239.0,201.0,1700.711
1700721.0,177.0,668.0,248.0,194.0,1700.721
1700731.0,186.0,669.0,259.0,211.0,1700.731
1700741.0,196.0,669.0,266.0,212.0,1700.741
1700751.0,178.0,669.0,261.0,254.0,1700.751
1700761.0,167.0,669.0,244.0,319.0,1700.761
1700771.0,165.0,669.0,226.0,311.0,1700.771
1700781.0,158.0,669.0,203.0,282.0,1700.781
1700791.0,168.0,669.0,215.0,266.0,1700.791
1700801.0,171.0,669.0,253.0,264.0,1700.801
1700811.0,163.0,668.0,239.0,244.0,1700.811
1700822.0,155.0,668.0,217.0,220.0,1700.822
1700832.0,151.0,668.0,209.0,199.0,1700.832
1700842.0,167.0,668.0,226.0,191.0,1700.842
1700852.0,160.0,668.0,222.0,181.0,1700.852
1700862.0,161.0,668.0,239.0,185.0,1700.862
1700872.0,164.0,669.0,233.0,173.0,1700.872
1700882.0,159.0,669.0,251.0,172.0,1700.882
1700892.0,149.0,668.0,225.0,159.0,1700.892
1700902.0,153.0,668.0,252.0,157.0,1700.902
1700912.0,152.0,669.0,241.0,146.0,1700.912
1700922.0,156.0,669.0,231.0,140.0,1700.922
1700932.0,154.0,668.0,219.0,126.0,1700.932
1700942.0,150.0,668.0,225.0,123.0,1700.942
1700952.0,140.0,669.0,223.0,125.0,1700.952
1700962.0,144.0,668.0,238.0,131.0,1700.962
1700972.0,143.0,668.0,227.0,126.0,1700.972
1700982.0,140.0,668.0,233.0,123.0,1700.982
1700992.0,134.0,668.0,214.0,116.0,1700.992
1701002.0,126.0,668.0,242.0,128.0,1701.002
1701012.0,128.0,669.0,227.0,123.0,1701.012
1701022.0,122.0,668.0,219.0,118.0,1701.022
1701032.0,117.0,668.0,211.0,114.0,1701.032
1701042.0,115.0,668.0,205.0,110.0,1701.042
1701052.0,113.0,668.0,212.0,109.0,1701.052
1701062.0,110.0,668.0,204.0,109.0,1701.062
1701072.0,108.0,668.0,202.0,109.0,1701.072
1701082.0,105.0,668.0,208.0,111.0,1701.082
1701092.0,107.0,669.0,208.0,107.0,1701.092
1701102.0,106.0,669.0,195.0,108.0,1701.102
1701112.0,107.0,669.0,201.0,108.0,1701.112
1701122.0,99.0,669.0,179.0,100.0,1701.122
1701132.0,95.0,669.0,193.0,101.0,1701.132
1701142.0,91.0,668.0,184.0,96.0,1701.142
1701152.0,91.0,668.0,181.0,96.0,1701.152
1701163.0,88.0,668.0,186.0,97.0,1701.163
1701173.0,88.0,668.0,181.0,93.0,1701.173
1701183.0,84.0,658.0,160.0,87.0,1701.183
1701193.0,83.0,640.0,165.0,90.0,1701.193
1701203.0,83.0,618.0,181.0,93.0,1701.203
1701213.0,80.0,598.0,164.0,87.0,1701.213
1701223.0,78.0,581.0,149.0,80.0,1701.223
1701233.0,76.0,564.0,141.0,79.0,1701.233
1701243.0,76.0,550.0,143.0,81.0,1701.243
1701253.0,76.0,539.0,126.0,76.0,1701.253
1701263.0,74.0,526.0,134.0,88.0,1701.263
1701273.0,75.0,508.0,127.0,99.0,1701.273
1701283.0,77.0,498.0,111.0,96.0,1701.283
1701293.0,74.0,488.0,118.0,103.0,1701.293
1701303.0,71.0,475.0,104.0,101.0,1701.303
1701313.0,72.0,463.0,103.0,104.0,1701.313
1701323.0,73.0,456.0,105.0,116.0,1701.323
1701334.0,75.0,448.0,111.0,106.0,1701.334
1701344.0,78.0,437.0,108.0,114.0,1701.344
1701354.0,82.0,433.0,123.0,125.0,1701.354
1701364.0,79.0,422.0,131.0,123.0,1701.364
1701374.0,84.0,409.0,124.0,128.0,1701.374
1701384.0,85.0,403.0,112.0,118.0,1701.384
1701394.0,86.0,403.0,98.0,106.0,1701.394
1701404.0,84.0,395.0,89.0,97.0,1701.404
1701414.0,84.0,388.0,89.0,96.0,1701.414
1701424.0,85.0,385.0,98.0,99.0,1701.424
1701434.0,87.0,374.0,94.0,91.0,1701.434
1701444.0,90.0,366.0,98.0,97.0,1701.444
1701454.0,87.0,367.0,101.0,95.0,1701.454
1701464.0,88.0,361.0,105.0,92.0,1701.464
1701474.0,91.0,354.0,98.0,87.0,1701.474
1701484.0,97.0,346.0,103.0,94.0,1701.484
1701494.0,100.0,342.0,102.0,94.0,1701.494
1701504.0,101.0,338.0,106.0,91.0,1701.504
1701514.0,102.0,336.0,113.0,87.0,1701.514
1701524.0,102.0,328.0,101.0,83.0,1701.524
1701534.0,105.0,323.0,105.0,86.0,1701.534
1701544.0,108.0,318.0,105.0,89.0,1701.544
1701554.0,109.0,314.0,112.0,90.0,1701.554
1701564.0,116.0,310.0,110.0,87.0,1701.564
1701574.0,117.0,306.0,100.0,82.0,1701.574
1701584.0,120.0,303.0,91.0,77.0,1701.584
1701594.0,123.0,299.0,85.0,72.0,1701.594
1701604.0,121.0,297.0,76.0,69.0,1701.604
1701614.0,124.0,297.0,105.0,78.0,1701.614
1701624.0,128.0,294.0,101.0,78.0,1701.624
1701634.0,131.0,288.0,103.0,78.0,1701.634
1701644.0,135.0,286.0,102.0,78.0,1701.644
1701654.0,135.0,285.0,110.0,77.0,1701.654
1701664.0,141.0,281.0,112.0,85.0,1701.664
1701675.0,143.0,288.0,119.0,88.0,1701.675
1701685.0,146.0,282.0,124.0,90.0,1701.685
1701695.0,141.0,281.0,125.0,89.0,1701.695
1701705.0,147.0,277.0,127.0,89.0,1701.705
1701715.0,148.0,268.0,112.0,88.0,1701.715
1701725.0,144.0,263.0,102.0,85.0,1701.725
1701735.0,148.0,257.0,93.0,87.0,1701.735
1701745.0,151.0,255.0,96.0,87.0,1701.745
1701755.0,151.0,249.0,97.0,83.0,1701.755
1701765.0,154.0,249.0,95.0,82.0,1701.765
1701775.0,155.0,241.0,85.0,81.0,1701.775
1701785.0,159.0,234.0,80.0,82.0,1701.785
1701795.0,156.0,230.0,76.0,76.0,1701.795
1701805.0,158.0,226.0,78.0,80.0,1701.805
1701815.0,161.0,225.0,106.0,87.0,1701.815
1701825.0,159.0,218.0,94.0,82.0,1701.825
1701835.0,163.0,215.0,86.0,78.0,1701.835
1701846.0,164.0,212.0,85.0,77.0,1701.846
1701856.0,161.0,205.0,84.0,73.0,1701.856
1701866.0,164.0,201.0,93.0,69.0,1701.866
1701876.0,165.0,197.0,93.0,67.0,1701.876
1701886.0,166.0,190.0,93.0,72.0,1701.886
1701896.0,171.0,189.0,93.0,68.0,1701.896
1701906.0,171.0,185.0,85.0,70.0,1701.906
1701916.0,169.0,184.0,77.0,70.0,1701.916
1701926.0,169.0,181.0,73.0,68.0,1701.926
1701936.0,174.0,178.0,84.0,67.0,1701.936
1701946.0,176.0,175.0,88.0,69.0,1701.946
1701956.0,179.0,169.0,89.0,71.0,1701.956
1701966.0,180.0,172.0,87.0,72.0,1701.966
1701976.0,178.0,168.0,80.0,70.0,1701.976
1701986.0,180.0,165.0,69.0,66.0,1701.986
1701996.0,181.0,161.0,65.0,64.0,1701.996
1702006.0,179.0,163.0,108.0,72.0,1702.006
1702016.0,183.0,158.0,102.0,73.0,1702.016
1702026.0,184.0,157.0,98.0,68.0,1702.026
1702036.0,183.0,155.0,105.0,68.0,1702.036
1702046.0,185.0,152.0,94.0,63.0,1702.046
1702056.0,184.0,150.0,88.0,65.0,1702.056
1702066.0,185.0,149.0,83.0,60.0,1702.066
1702076.0,185.0,151.0,96.0,59.0,1702.076
1702086.0,184.0,150.0,97.0,62.0,1702.086
1702096.0,186.0,146.0,98.0,62.0,1702.096
1702106.0,185.0,143.0,104.0,67.0,1702.106
1702116.0,187.0,142.0,106.0,68.0,1702.116
1702126.0,187.0,140.0,101.0,64.0,1702.126
1702136.0,185.0,143.0,124.0,68.0,1702.136
1702146.0,193.0,137.0,121.0,65.0,1702.146
1702156.0,189.0,142.0,111.0,65.0,1702.156
1702166.0,190.0,139.0,107.0,69.0,1702.166
1702176.0,191.0,138.0,95.0,67.0,1702.176
1702187.0,192.0,136.0,85.0,61.0,1702.187
1702197.0,193.0,135.0,76.0,57.0,1702.197
1702207.0,194.0,135.0,74.0,66.0,1702.207
1702217.0,198.0,131.0,75.0,66.0,1702.217
1702227.0,196.0,133.0,76.0,77.0,1702.227
1702237.0,204.0,127.0,72.0,80.0,1702.237
1702247.0,211.0,119.0,66.0,81.0,1702.247
1702257.0,211.0,119.0,64.0,83.0,1702.257
1702267.0,218.0,112.0,62.0,118.0,1702.267
1702277.0,224.0,104.0,59.0,142.0,1702.277
1702287.0,229.0,97.0,59.0,135.0,1702.287
1702297.0,233.0,94.0,72.0,146.0,1702.297
1702307.0,237.0,88.0,81.0,154.0,1702.307
1702317.0,241.0,89.0,100.0,151.0,1702.317
1702327.0,242.0,88.0,102.0,144.0,1702.327
1702337.0,253.0,85.0,101.0,160.0,1702.337
1702347.0,260.0,81.0,107.0,164.0,1702.347
1702358.0,267.0,75.0,109.0,176.0,1702.358
1702368.0,271.0,75.0,112.0,199.0,1702.368
1702378.0,286.0,82.0,108.0,189.0,1702.378
1702388.0,294.0,79.0,110.0,175.0,1702.388
1702398.0,301.0,78.0,121.0,172.0,1702.398
1702408.0,307.0,74.0,114.0,183.0,1702.408
1702418.0,312.0,75.0,139.0,192.0,1702.418
1702428.0,321.0,81.0,158.0,191.0,1702.428
1702438.0,333.0,91.0,161.0,192.0,1702.438
1702448.0,341.0,101.0,151.0,232.0,1702.448
1702458.0,349.0,116.0,148.0,217.0,1702.458
1702468.0,356.0,133.0,150.0,227.0,1702.468
1702478.0,362.0,150.0,157.0,214.0,1702.478
1702488.0,363.0,164.0,151.0,207.0,1702.488
1702498.0,365.0,181.0,161.0,234.0,1702.498
1702508.0,376.0,206.0,188.0,252.0,1702.508
1702518.0,378.0,226.0,174.0,304.0,1702.518
1702528.0,382.0,245.0,180.0,322.0,1702.528
1702538.0,388.0,268.0,168.0,329.0,1702.538
1702548.0,386.0,283.0,173.0,307.0,1702.548
1702558.0,387.0,300.0,168.0,323.0,1702.558
1702568.0,390.0,319.0,158.0,308.0,1702.568
1702578.0,389.0,332.0,149.0,303.0,1702.578
1702588.0,390.0,349.0,156.0,293.0,1702.588
1702598.0,386.0,358.0,155.0,306.0,1702.598
1702608.0,385.0,370.0,149.0,316.0,1702.608
1702618.0,382.0,379.0,143.0,309.0,1702.618
1702628.0,382.0,389.0,156.0,299.0,1702.628
1702638.0,381.0,399.0,155.0,291.0,1702.638
1702648.0,376.0,403.0,145.0,270.0,1702.648
1702658.0,372.0,408.0,142.0,248.0,1702.658
1702668.0,367.0,414.0,148.0,267.0,1702.668
1702678.0,361.0,418.0,134.0,273.0,1702.678
1702688.0,355.0,420.0,138.0,268.0,1702.688
1702699.0,350.0,423.0,128.0,274.0,1702.699
1702709.0,345.0,425.0,133.0,277.0,1702.709
1702719.0,339.0,424.0,124.0,286.0,1702.719
1702729.0,332.0,423.0,128.0,281.0,1702.729
1702739.0,326.0,425.0,118.0,273.0,1702.739
1702749.0,319.0,425.0,110.0,269.0,1702.749
1702759.0,312.0,427.0,117.0,256.0,1702.759
1702769.0,305.0,426.0,114.0,265.0,1702.769
1702779.0,298.0,427.0,122.0,262.0,1702.779
1702789.0,292.0,426.0,110.0,263.0,1702.789
1702799.0,286.0,426.0,109.0,250.0,1702.799
1702809.0,278.0,424.0,100.0,250.0,1702.809
1702819.0,273.0,424.0,95.0,233.0,1702.819
1702829.0,268.0,424.0,86.0,247.0,1702.829
1702839.0,259.0,423.0,83.0,239.0,1702.839
1702849.0,254.0,423.0,80.0,236.0,1702.849
1702859.0,247.0,424.0,83.0,225.0,1702.859
1702870.0,241.0,422.0,82.0,216.0,1702.87
1702880.0,235.0,422.0,88.0,214.0,1702.88
1702890.0,230.0,423.0,90.0,213.0,1702.89
1702900.0,224.0,423.0,83.0,217.0,1702.9
1702910.0,220.0,425.0,83.0,212.0,1702.91
1702920.0,216.0,426.0,78.0,207.0,1702.92
1702930.0,211.0,426.0,73.0,204.0,1702.93
1702940.0,205.0,425.0,80.0,203.0,1702.94
1702950.0,200.0,426.0,82.0,213.0,1702.95
1702960.0,194.0,426.0,80.0,206.0,1702.96
1702970.0,188.0,424.0,83.0,198.0,1702.97
1702980.0,184.0,425.0,80.0,203.0,1702.98
1702990.0,178.0,424.0,76.0,196.0,1702.99
1703000.0,173.0,422.0,73.0,191.0,1703.0
1703010.0,167.0,422.0,77.0,181.0,1703.01
1703020.0,163.0,424.0,79.0,198.0,1703.02
1703030.0,158.0,424.0,71.0,201.0,1703.03
1703040.0,153.0,423.0,67.0,195.0,1703.04
1703050.0,148.0,423.0,66.0,205.0,1703.05
1703060.0,144.0,422.0,65.0,201.0,1703.06
1703070.0,140.0,421.0,62.0,197.0,1703.07
1703080.0,136.0,419.0,61.0,181.0,1703.08
1703090.0,133.0,418.0,65.0,177.0,1703.09
1703100.0,130.0,417.0,61.0,175.0,1703.1
1703110.0,126.0,416.0,65.0,171.0,1703.11
1703120.0,124.0,415.0,67.0,174.0,1703.12
1703130.0,121.0,415.0,63.0,170.0,1703.13
1703140.0,116.0,414.0,57.0,164.0,1703.14
1703150.0,113.0,414.0,52.0,163.0,1703.15
1703160.0,108.0,412.0,57.0,151.0,1703.16
1703170.0,103.0,410.0,56.0,146.0,1703.17
1703180.0,98.0,409.0,63.0,157.0,1703.18
1703190.0,95.0,412.0,57.0,160.0,1703.19
1703200.0,91.0,412.0,51.0,160.0,1703.2
1703211.0,86.0,408.0,54.0,151.0,1703.211
1703221.0,82.0,407.0,53.0,161.0,1703.221
1703231.0,79.0,406.0,51.0,158.0,1703.231
1703241.0,76.0,405.0,47.0,156.0,1703.241
1703251.0,74.0,404.0,54.0,148.0,1703.251
1703261.0,71.0,402.0,59.0,141.0,1703.261
1703271.0,67.0,401.0,54.0,143.0,1703.271
1703281.0,66.0,400.0,56.0,148.0,1703.281
1703291.0,63.0,399.0,58.0,147.0,1703.291
1703301.0,62.0,398.0,52.0,152.0,1703.301
1703311.0,60.0,398.0,53.0,148.0,1703.311
1703321.0,60.0,394.0,66.0,146.0,1703.321
1703331.0,60.0,396.0,70.0,157.0,1703.331
1703341.0,57.0,394.0,64.0,153.0,1703.341
1703351.0,55.0,393.0,60.0,144.0,1703.351
1703361.0,54.0,392.0,59.0,147.0,1703.361
1703371.0,54.0,390.0,56.0,140.0,1703.371
1703382.0,53.0,388.0,55.0,145.0,1703.382
1703392.0,53.0,384.0,52.0,136.0,1703.392
1703402.0,56.0,382.0,61.0,142.0,1703.402
1703412.0,54.0,383.0,59.0,138.0,1703.412
1703422.0,55.0,380.0,54.0,138.0,1703.422
1703432.0,56.0,377.0,61.0,134.0,1703.432
1703442.0,57.0,374.0,59.0,129.0,1703.442
1703452.0,58.0,372.0,54.0,139.0,1703.452
1703462.0,58.0,370.0,46.0,137.0,1703.462
1703472.0,58.0,371.0,43.0,136.0,1703.472
1703482.0,56.0,371.0,39.0,130.0,1703.482
1703492.0,58.0,370.0,41.0,128.0,1703.492
1703502.0,59.0,368.0,38.0,120.0,1703.502
1703512.0,59.0,366.0,38.0,119.0,1703.512
1703522.0,60.0,364.0,36.0,117.0,1703.522
1703532.0,60.0,363.0,32.0,122.0,1703.532
1703542.0,58.0,362.0,30.0,118.0,1703.542
1703552.0,60.0,360.0,28.0,121.0,1703.552
1703562.0,60.0,357.0,26.0,113.0,1703.562
1703572.0,62.0,353.0,24.0,118.0,1703.572
1703582.0,64.0,353.0,23.0,113.0,1703.582
1703592.0,63.0,349.0,21.0,102.0,1703.592
1703602.0,63.0,347.0,20.0,103.0,1703.602
1703612.0,64.0,344.0,20.0,103.0,1703.612
1703622.0,65.0,340.0,23.0,103.0,1703.622
1703632.0,64.0,337.0,42.0,100.0,1703.632
1703642.0,64.0,335.0,37.0,101.0,1703.642
1703652.0,64.0,333.0,33.0,98.0,1703.652
1703662.0,63.0,331.0,27.0,96.0,1703.662
1703672.0,65.0,326.0,27.0,88.0,1703.672
1703682.0,65.0,324.0,26.0,92.0,1703.682
1703692.0,66.0,320.0,25.0,91.0,1703.692
1703702.0,67.0,317.0,31.0,91.0,1703.702
1703712.0,67.0,314.0,45.0,90.0,1703.712
1703723.0,67.0,314.0,40.0,94.0,1703.723
1703733.0,67.0,311.0,47.0,99.0,1703.733
1703743.0,68.0,309.0,44.0,121.0,1703.743
1703753.0,66.0,307.0,39.0,123.0,1703.753
1703763.0,67.0,305.0,36.0,116.0,1703.763
1703773.0,70.0,303.0,32.0,112.0,1703.773
1703783.0,70.0,302.0,34.0,106.0,1703.783
1703793.0,71.0,300.0,35.0,109.0,1703.793
1703803.0,72.0,298.0,48.0,105.0,1703.803
1703813.0,71.0,298.0,49.0,106.0,1703.813
1703823.0,72.0,295.0,46.0,101.0,1703.823
1703833.0,72.0,294.0,41.0,100.0,1703.833
1703843.0,73.0,291.0,35.0,94.0,1703.843
1703853.0,73.0,291.0,33.0,97.0,1703.853
1703863.0,74.0,288.0,30.0,100.0,1703.863
1703873.0,74.0,286.0,26.0,100.0,1703.873
1703883.0,75.0,284.0,23.0,100.0,1703.883
1703894.0,78.0,282.0,23.0,95.0,1703.894
1703904.0,78.0,280.0,28.0,98.0,1703.904
1703914.0,79.0,277.0,26.0,104.0,1703.914
1703924.0,81.0,275.0,28.0,114.0,1703.924
1703934.0,81.0,275.0,27.0,116.0,1703.934
1703944.0,81.0,273.0,25.0,111.0,1703.944
1703954.0,83.0,267.0,24.0,105.0,1703.954
1703964.0,83.0,268.0,31.0,102.0,1703.964
1703974.0,83.0,265.0,28.0,107.0,1703.974
1703984.0,83.0,263.0,45.0,105.0,1703.984
1703994.0,84.0,262.0,47.0,113.0,1703.994
1704004.0,87.0,256.0,50.0,108.0,1704.004
1704014.0,86.0,256.0,47.0,110.0,1704.014
1704024.0,85.0,254.0,41.0,108.0,1704.024
1704034.0,85.0,251.0,44.0,105.0,1704.034
1704044.0,85.0,247.0,48.0,111.0,1704.044
1704054.0,83.0,247.0,50.0,107.0,1704.054
1704064.0,82.0,246.0,45.0,114.0,1704.064
1704074.0,81.0,246.0,40.0,110.0,1704.074
1704084.0,81.0,245.0,36.0,107.0,1704.084
1704094.0,80.0,243.0,32.0,110.0,1704.094
1704104.0,81.0,241.0,36.0,105.0,1704.104
1704114.0,82.0,239.0,32.0,99.0,1704.114
1704124.0,82.0,237.0,29.0,97.0,1704.124
1704134.0,83.0,236.0,42.0,94.0,1704.134
1704144.0,83.0,236.0,37.0,93.0,1704.144
1704154.0,83.0,232.0,33.0,92.0,1704.154
1704164.0,83.0,231.0,30.0,88.0,1704.164
1704174.0,84.0,229.0,31.0,90.0,1704.174
1704184.0,84.0,227.0,28.0,100.0,1704.184
1704194.0,84.0,226.0,30.0,110.0,1704.194
1704204.0,83.0,226.0,31.0,112.0,1704.204
1704214.0,84.0,223.0,39.0,112.0,1704.214
1704224.0,82.0,220.0,37.0,110.0,1704.224
1704235.0,80.0,218.0,32.0,105.0,1704.235
1704245.0,80.0,216.0,29.0,97.0,1704.245
1704255.0,83.0,214.0,27.0,95.0,1704.255
1704265.0,82.0,212.0,30.0,102.0,1704.265
1704275.0,83.0,208.0,41.0,102.0,1704.275
1704285.0,82.0,210.0,38.0,101.0,1704.285
1704295.0,82.0,206.0,34.0,95.0,1704.295
1704305.0,84.0,204.0,31.0,94.0,1704.305
1704315.0,83.0,204.0,31.0,92.0,1704.315
1704325.0,84.0,201.0,29.0,113.0,1704.325
1704335.0,83.0,198.0,26.0,120.0,1704.335
1704345.0,81.0,196.0,25.0,117.0,1704.345
1704355.0,80.0,194.0,33.0,108.0,1704.355
1704365.0,81.0,192.0,41.0,117.0,1704.365
1704375.0,79.0,192.0,44.0,116.0,1704.375
1704385.0,77.0,190.0,39.0,113.0,1704.385
1704395.0,79.0,187.0,36.0,112.0,1704.395
1704406.0,78.0,186.0,31.0,110.0,1704.406
1704416.0,78.0,186.0,28.0,104.0,1704.416
1704426.0,77.0,185.0,25.0,101.0,1704.426
1704436.0,77.0,186.0,22.0,96.0,1704.436
1704446.0,79.0,182.0,28.0,94.0,1704.446
1704456.0,81.0,181.0,36.0,92.0,1704.456
1704466.0,82.0,180.0,33.0,91.0,1704.466
1704476.0,81.0,179.0,34.0,91.0,1704.476
1704486.0,82.0,178.0,38.0,99.0,1704.486
1704496.0,83.0,178.0,33.0,111.0,1704.496
1704506.0,83.0,178.0,29.0,111.0,1704.506
1704516.0,83.0,175.0,30.0,100.0,1704.516
1704526.0,85.0,172.0,32.0,96.0,1704.526
1704536.0,84.0,172.0,33.0,101.0,1704.536
1704546.0,84.0,173.0,31.0,102.0,1704.546
1704556.0,84.0,171.0,26.0,110.0,1704.556
1704566.0,83.0,169.0,25.0,103.0,1704.566
1704576.0,85.0,166.0,46.0,105.0,1704.576
1704586.0,84.0,167.0,43.0,114.0,1704.586
1704596.0,84.0,164.0,44.0,108.0,1704.596
1704606.0,81.0,166.0,39.0,108.0,1704.606
1704616.0,84.0,165.0,35.0,106.0,1704.616
1704626.0,82.0,165.0,30.0,100.0,1704.626
1704636.0,84.0,162.0,28.0,97.0,1704.636
1704646.0,84.0,161.0,28.0,104.0,1704.646
1704656.0,83.0,160.0,27.0,102.0,1704.656
1704666.0,83.0,159.0,26.0,94.0,1704.666
1704676.0,84.0,156.0,28.0,95.0,1704.676
1704686.0,83.0,155.0,28.0,93.0,1704.686
1704696.0,81.0,153.0,26.0,86.0,1704.696
1704706.0,82.0,149.0,30.0,87.0,1704.706
1704716.0,81.0,149.0,30.0,91.0,1704.716
1704726.0,81.0,148.0,27.0,91.0,1704.726
1704736.0,82.0,144.0,24.0,92.0,1704.736
1704747.0,80.0,144.0,26.0,96.0,1704.747
1704757.0,81.0,142.0,30.0,91.0,1704.757
1704767.0,79.0,141.0,31.0,91.0,1704.767
1704777.0,80.0,138.0,36.0,88.0,1704.777
1704787.0,79.0,139.0,31.0,88.0,1704.787
1704797.0,78.0,141.0,27.0,89.0,1704.797
1704807.0,79.0,140.0,26.0,84.0,1704.807
1704817.0,79.0,141.0,25.0,91.0,1704.817
1704827.0,77.0,141.0,23.0,89.0,1704.827
1704837.0,79.0,141.0,21.0,83.0,1704.837
1704847.0,76.0,141.0,18.0,80.0,1704.847
1704857.0,78.0,139.0,20.0,84.0,1704.857
1704867.0,77.0,140.0,20.0,88.0,1704.867
1704877.0,77.0,140.0,29.0,90.0,1704.877
1704887.0,76.0,140.0,26.0,90.0,1704.887
1704897.0,75.0,141.0,23.0,87.0,1704.897
1704907.0,77.0,141.0,22.0,84.0,1704.907
1704918.0,76.0,141.0,19.0,81.0,1704.918
1704928.0,77.0,141.0,17.0,79.0,1704.928
1704938.0,78.0,140.0,21.0,76.0,1704.938
1704948.0,77.0,140.0,21.0,80.0,1704.948
1704958.0,77.0,136.0,26.0,80.0,1704.958
1704968.0,75.0,138.0,23.0,80.0,1704.968
1704978.0,76.0,135.0,23.0,74.0,1704.978
1704988.0,75.0,133.0,20.0,74.0,1704.988
1704998.0,74.0,132.0,18.0,80.0,1704.998
1705008.0,73.0,131.0,18.0,88.0,1705.008
1705018.0,73.0,130.0,16.0,85.0,1705.018
1705028.0,74.0,126.0,18.0,80.0,1705.028
1705038.0,73.0,123.0,17.0,78.0,1705.038
1705048.0,73.0,122.0,23.0,75.0,1705.048
1705058.0,71.0,121.0,20.0,71.0,1705.058
1705068.0,70.0,119.0,18.0,84.0,1705.068
1705078.0,69.0,117.0,16.0,81.0,1705.078
1705088.0,71.0,115.0,25.0,76.0,1705.088
1705098.0,71.0,114.0,22.0,74.0,1705.098
1705108.0,72.0,113.0,25.0,69.0,1705.108
1705118.0,72.0,112.0,29.0,73.0,1705.118
1705128.0,72.0,110.0,31.0,73.0,1705.128
1705138.0,71.0,109.0,30.0,77.0,1705.138
1705148.0,70.0,108.0,29.0,77.0,1705.148
1705158.0,71.0,107.0,26.0,77.0,1705.158
1705168.0,70.0,103.0,23.0,74.0,1705.168
1705178.0,72.0,100.0,27.0,78.0,1705.178
1705188.0,71.0,100.0,27.0,94.0,1705.188
1705198.0,72.0,98.0,36.0,99.0,1705.198
1705208.0,71.0,96.0,34.0,92.0,1705.208
1705218.0,71.0,97.0,35.0,89.0,1705.218
1705228.0,69.0,96.0,33.0,84.0,1705.228
1705238.0,68.0,96.0,29.0,86.0,1705.238
1705248.0,67.0,94.0,26.0,84.0,1705.248
1705259.0,65.0,94.0,25.0,89.0,1705.259
1705269.0,65.0,94.0,27.0,85.0,1705.269
1705279.0,62.0,93.0,24.0,84.0,1705.279
1705289.0,62.0,89.0,25.0,89.0,1705.289
1705299.0,61.0,91.0,30.0,89.0,1705.299
1705309.0,59.0,91.0,27.0,90.0,1705.309
1705319.0,58.0,89.0,24.0,90.0,1705.319
1705329.0,56.0,88.0,21.0,89.0,1705.329
1705339.0,55.0,88.0,20.0,83.0,1705.339
1705349.0,55.0,87.0,18.0,80.0,1705.349
1705359.0,53.0,88.0,18.0,82.0,1705.359
1705369.0,53.0,87.0,15.0,81.0,1705.369
1705379.0,52.0,87.0,14.0,77.0,1705.379
1705389.0,54.0,84.0,24.0,78.0,1705.389
1705399.0,52.0,87.0,25.0,79.0,1705.399
1705409.0,52.0,86.0,22.0,77.0,1705.409
1705419.0,53.0,86.0,21.0,73.0,1705.419
1705430.0,52.0,86.0,18.0,77.0,1705.43
1705440.0,56.0,84.0,19.0,75.0,1705.44
1705450.0,58.0,82.0,24.0,76.0,1705.45
1705460.0,57.0,82.0,27.0,76.0,1705.46
1705470.0,57.0,83.0,24.0,74.0,1705.47
1705480.0,56.0,83.0,23.0,76.0,1705.48
1705490.0,58.0,82.0,21.0,76.0,1705.49
1705500.0,58.0,81.0,19.0,71.0,1705.5
1705510.0,58.0,79.0,16.0,68.0,1705.51
1705520.0,60.0,78.0,17.0,75.0,1705.52
1705530.0,58.0,78.0,18.0,89.0,1705.53
1705540.0,57.0,76.0,16.0,88.0,1705.54
1705550.0,58.0,73.0,22.0,98.0,1705.55
1705560.0,58.0,74.0,21.0,93.0,1705.56
1705570.0,57.0,72.0,18.0,90.0,1705.57
1705580.0,60.0,71.0,18.0,83.0,1705.58
1705590.0,58.0,70.0,16.0,83.0,1705.59
1705600.0,58.0,69.0,22.0,87.0,1705.6
1705610.0,56.0,68.0,19.0,85.0,1705.61
1705620.0,56.0,69.0,25.0,83.0,1705.62
1705630.0,55.0,69.0,28.0,81.0,1705.63
1705640.0,54.0,69.0,27.0,78.0,1705.64
1705650.0,52.0,68.0,25.0,78.0,1705.65
1705660.0,52.0,67.0,25.0,75.0,1705.66
1705670.0,51.0,68.0,23.0,75.0,1705.67
1705680.0,51.0,68.0,21.0,78.0,1705.68
1705690.0,50.0,70.0,19.0,83.0,1705.69
1705700.0,50.0,68.0,20.0,80.0,1705.7
1705710.0,51.0,71.0,25.0,75.0,1705.71
1705720.0,51.0,70.0,22.0,72.0,1705.72
1705730.0,51.0,69.0,20.0,71.0,1705.73
1705740.0,52.0,67.0,20.0,69.0,1705.74
1705750.0,52.0,64.0,20.0,80.0,1705.75
1705760.0,52.0,64.0,20.0,87.0,1705.76
1705771.0,52.0,65.0,28.0,85.0,1705.771
1705781.0,51.0,66.0,25.0,85.0,1705.781
1705791.0,50.0,67.0,23.0,80.0,1705.791
1705801.0,50.0,67.0,20.0,83.0,1705.801
1705811.0,50.0,68.0,23.0,83.0,1705.811
1705821.0,50.0,66.0,20.0,84.0,1705.821
1705831.0,51.0,64.0,26.0,83.0,1705.831
1705841.0,51.0,66.0,23.0,77.0,1705.841
1705851.0,53.0,65.0,28.0,76.0,1705.851
1705861.0,50.0,67.0,26.0,74.0,1705.861
1705871.0,51.0,66.0,27.0,69.0,1705.871
1705881.0,51.0,68.0,25.0,73.0,1705.881
1705891.0,51.0,68.0,26.0,73.0,1705.891
1705901.0,50.0,66.0,24.0,72.0,1705.901
1705911.0,49.0,68.0,21.0,72.0,1705.911
1705921.0,49.0,66.0,19.0,70.0,1705.921
1705931.0,50.0,67.0,16.0,69.0,1705.931
1705942.0,50.0,67.0,16.0,71.0,1705.942
1705952.0,51.0,66.0,22.0,77.0,1705.952
1705962.0,50.0,68.0,22.0,76.0,1705.962
1705972.0,49.0,68.0,20.0,74.0,1705.972
1705982.0,48.0,70.0,23.0,73.0,1705.982
1705992.0,49.0,69.0,23.0,75.0,1705.992
1706002.0,49.0,69.0,22.0,77.0,1706.002
1706012.0,48.0,69.0,20.0,72.0,1706.012
1706022.0,50.0,66.0,18.0,76.0,1706.022
1706032.0,51.0,67.0,22.0,77.0,1706.032
1706042.0,50.0,66.0,20.0,74.0,1706.042
1706052.0,51.0,67.0,21.0,73.0,1706.052
1706062.0,51.0,67.0,19.0,68.0,1706.062
1706072.0,55.0,65.0,22.0,65.0,1706.072
1706082.0,52.0,66.0,23.0,64.0,1706.082
1706092.0,53.0,65.0,25.0,69.0,1706.092
1706102.0,52.0,66.0,24.0,71.0,1706.102
1706112.0,51.0,66.0,31.0,68.0,1706.112
1706122.0,52.0,65.0,28.0,69.0,1706.122
1706132.0,52.0,63.0,25.0,69.0,1706.132
1706142.0,53.0,61.0,22.0,67.0,1706.142
1706152.0,52.0,61.0,22.0,66.0,1706.152
1706162.0,54.0,59.0,33.0,71.0,1706.162
1706172.0,52.0,59.0,33.0,77.0,1706.172
1706182.0,51.0,60.0,29.0,80.0,1706.182
1706192.0,50.0,60.0,26.0,77.0,1706.192
1706202.0,49.0,61.0,28.0,75.0,1706.202
1706212.0,50.0,61.0,27.0,75.0,1706.212
1706222.0,49.0,58.0,23.0,71.0,1706.222
1706232.0,48.0,57.0,23.0,71.0,1706.232
1706242.0,47.0,57.0,24.0,73.0,1706.242
1706252.0,46.0,57.0,21.0,72.0,1706.252
1706262.0,46.0,56.0,19.0,85.0,1706.262
1706272.0,45.0,56.0,17.0,84.0,1706.272
1706283.0,45.0,56.0,23.0,78.0,1706.283
1706293.0,44.0,57.0,22.0,77.0,1706.293
1706303.0,44.0,58.0,20.0,74.0,1706.303
1706313.0,43.0,60.0,22.0,70.0,1706.313
1706323.0,44.0,60.0,27.0,72.0,1706.323
1706333.0,44.0,61.0,25.0,73.0,1706.333
1706343.0,45.0,62.0,28.0,74.0,1706.343
1706353.0,44.0,62.0,25.0,71.0,1706.353
1706363.0,45.0,63.0,23.0,75.0,1706.363
1706373.0,44.0,64.0,21.0,75.0,1706.373
1706383.0,43.0,64.0,20.0,73.0,1706.383
1706393.0,42.0,64.0,16.0,69.0,1706.393
1706403.0,43.0,63.0,22.0,74.0,1706.403
1706413.0,43.0,62.0,20.0,74.0,1706.413
1706423.0,43.0,62.0,23.0,71.0,1706.423
1706433.0,46.0,64.0,23.0,71.0,1706.433
1706443.0,45.0,64.0,20.0,71.0,1706.443
1706454.0,45.0,64.0,21.0,67.0,1706.454
1706464.0,45.0,63.0,18.0,69.0,1706.464
1706474.0,44.0,63.0,16.0,64.0,1706.474
1706484.0,46.0,61.0,32.0,62.0,1706.484
1706494.0,47.0,61.0,40.0,61.0,1706.494
1706504.0,48.0,62.0,37.0,58.0,1706.504
1706514.0,46.0,63.0,32.0,57.0,1706.514
1706524.0,46.0,62.0,30.0,56.0,1706.524
1706534.0,47.0,61.0,28.0,55.0,1706.534
1706544.0,48.0,60.0,37.0,53.0,1706.544
1706554.0,50.0,59.0,40.0,57.0,1706.554
1706564.0,48.0,61.0,35.0,58.0,1706.564
1706574.0,48.0,59.0,32.0,56.0,1706.574
1706584.0,47.0,59.0,27.0,55.0,1706.584
1706594.0,46.0,59.0,24.0,55.0,1706.594
1706604.0,46.0,57.0,22.0,52.0,1706.604
1706614.0,47.0,57.0,26.0,53.0,1706.614
1706624.0,47.0,54.0,23.0,52.0,1706.624
1706634.0,49.0,56.0,29.0,60.0,1706.634
1706644.0,47.0,55.0,28.0,59.0,1706.644
1706654.0,48.0,56.0,25.0,58.0,1706.654
1706664.0,46.0,56.0,24.0,57.0,1706.664
1706674.0,46.0,55.0,22.0,55.0,1706.674
1706684.0,45.0,53.0,19.0,56.0,1706.684
1706694.0,45.0,53.0,19.0,55.0,1706.694
1706704.0,45.0,51.0,21.0,54.0,1706.704
1706714.0,46.0,50.0,31.0,53.0,1706.714
1706724.0,46.0,50.0,27.0,54.0,1706.724
1706734.0,45.0,51.0,23.0,53.0,1706.734
1706744.0,44.0,51.0,22.0,52.0,1706.744
1706754.0,45.0,50.0,25.0,54.0,1706.754
1706764.0,45.0,50.0,31.0,62.0,1706.764
1706774.0,45.0,50.0,29.0,60.0,1706.774
1706784.0,44.0,49.0,27.0,57.0,1706.784
1706795.0,45.0,46.0,24.0,58.0,1706.795
1706805.0,45.0,48.0,22.0,56.0,1706.805
1706815.0,44.0,45.0,25.0,53.0,1706.815
1706825.0,44.0,45.0,24.0,57.0,1706.825
1706835.0,43.0,46.0,26.0,56.0,1706.835
1706845.0,44.0,47.0,25.0,54.0,1706.845
1706855.0,44.0,46.0,25.0,55.0,1706.855
1706865.0,45.0,45.0,24.0,54.0,1706.865
1706875.0,44.0,46.0,20.0,54.0,1706.875
1706885.0,44.0,44.0,20.0,54.0,1706.885
1706895.0,45.0,44.0,22.0,56.0,1706.895
1706905.0,45.0,45.0,19.0,56.0,1706.905
1706915.0,45.0,44.0,27.0,56.0,1706.915
1706925.0,45.0,44.0,29.0,57.0,1706.925
1706935.0,45.0,43.0,26.0,54.0,1706.935
1706945.0,46.0,43.0,24.0,52.0,1706.945
1706955.0,44.0,42.0,21.0,57.0,1706.955
1706966.0,44.0,42.0,20.0,57.0,1706.966
1706976.0,44.0,44.0,24.0,58.0,1706.976
1706986.0,44.0,43.0,28.0,58.0,1706.986
1706996.0,43.0,44.0,26.0,56.0,1706.996
1707006.0,44.0,44.0,23.0,55.0,1707.006
1707016.0,44.0,43.0,23.0,56.0,1707.016
1707026.0,44.0,45.0,21.0,59.0,1707.026
1707036.0,44.0,45.0,20.0,57.0,1707.036
1707046.0,45.0,47.0,18.0,57.0,1707.046
1707056.0,44.0,46.0,26.0,56.0,1707.056
1707066.0,45.0,47.0,24.0,55.0,1707.066
1707076.0,45.0,48.0,21.0,56.0,1707.076
1707086.0,47.0,46.0,19.0,59.0,1707.086
1707096.0,46.0,48.0,18.0,59.0,1707.096
1707106.0,46.0,49.0,18.0,56.0,1707.106
1707116.0,47.0,49.0,17.0,53.0,1707.116
1707126.0,46.0,48.0,16.0,50.0,1707.126
1707136.0,47.0,49.0,26.0,49.0,1707.136
1707146.0,47.0,51.0,25.0,50.0,1707.146
1707156.0,48.0,50.0,25.0,51.0,1707.156
1707166.0,47.0,50.0,21.0,49.0,1707.166
1707176.0,46.0,49.0,21.0,49.0,1707.176
1707186.0,46.0,49.0,21.0,47.0,1707.186
1707196.0,47.0,51.0,27.0,50.0,1707.196
1707206.0,48.0,49.0,28.0,51.0,1707.206
1707216.0,48.0,50.0,26.0,51.0,1707.216
1707226.0,47.0,49.0,24.0,51.0,1707.226
1707236.0,49.0,49.0,30.0,49.0,1707.236
1707246.0,48.0,48.0,26.0,47.0,1707.246
1707256.0,48.0,47.0,24.0,46.0,1707.256
1707266.0,47.0,46.0,22.0,44.0,1707.266
1707276.0,47.0,46.0,30.0,46.0,1707.276
1707286.0,47.0,48.0,27.0,46.0,1707.286
1707296.0,46.0,49.0,25.0,45.0,1707.296
1707307.0,46.0,48.0,23.0,46.0,1707.307
1707317.0,46.0,50.0,20.0,44.0,1707.317
1707327.0,46.0,49.0,24.0,47.0,1707.327
1707337.0,48.0,51.0,31.0,52.0,1707.337
1707347.0,47.0,49.0,27.0,53.0,1707.347
1707357.0,46.0,50.0,25.0,53.0,1707.357
1707367.0,46.0,48.0,26.0,51.0,1707.367
1707377.0,48.0,49.0,26.0,51.0,1707.377
1707387.0,46.0,47.0,22.0,50.0,1707.387
1707397.0,46.0,47.0,21.0,49.0,1707.397
1707407.0,46.0,47.0,32.0,49.0,1707.407
1707417.0,46.0,47.0,31.0,50.0,1707.417
1707427.0,45.0,46.0,29.0,51.0,1707.427
1707437.0,44.0,46.0,25.0,50.0,1707.437
1707447.0,44.0,45.0,26.0,50.0,1707.447
1707457.0,45.0,46.0,26.0,51.0,1707.457
1707467.0,44.0,45.0,34.0,51.0,1707.467
1707478.0,46.0,46.0,36.0,54.0,1707.478
1707488.0,44.0,46.0,31.0,54.0,1707.488
1707498.0,44.0,45.0,28.0,54.0,1707.498
1707508.0,44.0,44.0,25.0,54.0,1707.508
1707518.0,45.0,44.0,24.0,54.0,1707.518
1707528.0,45.0,44.0,24.0,54.0,1707.528
1707538.0,46.0,44.0,21.0,56.0,1707.538
1707548.0,47.0,45.0,25.0,54.0,1707.548
1707558.0,47.0,47.0,22.0,53.0,1707.558
1707568.0,47.0,46.0,22.0,50.0,1707.568
1707578.0,47.0,47.0,21.0,55.0,1707.578
1707588.0,50.0,48.0,21.0,57.0,1707.588
1707598.0,50.0,48.0,21.0,59.0,1707.598
1707608.0,50.0,48.0,30.0,55.0,1707.608
1707618.0,51.0,50.0,29.0,56.0,1707.618
1707628.0,52.0,50.0,26.0,55.0,1707.628
1707638.0,51.0,50.0,23.0,52.0,1707.638
1707648.0,52.0,50.0,21.0,57.0,1707.648
1707658.0,52.0,50.0,21.0,55.0,1707.658
1707668.0,52.0,48.0,20.0,54.0,1707.668
1707678.0,54.0,49.0,18.0,53.0,1707.678
1707688.0,54.0,48.0,18.0,51.0,1707.688
1707698.0,54.0,49.0,26.0,52.0,1707.698
1707708.0,57.0,49.0,23.0,54.0,1707.708
1707718.0,57.0,48.0,25.0,57.0,1707.718
1707728.0,58.0,47.0,25.0,55.0,1707.728
1707738.0,58.0,44.0,23.0,52.0,1707.738
1707748.0,58.0,44.0,20.0,52.0,1707.748
1707758.0,57.0,45.0,23.0,53.0,1707.758
1707768.0,58.0,46.0,28.0,53.0,1707.768
1707778.0,59.0,46.0,25.0,54.0,1707.778
1707788.0,60.0,46.0,23.0,54.0,1707.788
1707798.0,58.0,46.0,21.0,54.0,1707.798
1707808.0,59.0,45.0,21.0,51.0,1707.808
1707819.0,58.0,43.0,17.0,51.0,1707.819
1707829.0,58.0,44.0,16.0,52.0,1707.829
1707839.0,58.0,44.0,23.0,50.0,1707.839
1707849.0,60.0,43.0,32.0,54.0,1707.849
1707859.0,60.0,42.0,31.0,53.0,1707.859
1707869.0,60.0,40.0,29.0,51.0,1707.869
1707879.0,61.0,40.0,28.0,50.0,1707.879
1707889.0,60.0,39.0,23.0,48.0,1707.889
1707899.0,58.0,38.0,20.0,47.0,1707.899
1707909.0,58.0,39.0,22.0,47.0,1707.909
1707919.0,57.0,40.0,19.0,49.0,1707.919
1707929.0,57.0,40.0,19.0,46.0,1707.929
1707939.0,56.0,41.0,19.0,47.0,1707.939
1707949.0,57.0,42.0,20.0,48.0,1707.949
1707959.0,58.0,42.0,18.0,47.0,1707.959
1707969.0,55.0,43.0,23.0,46.0,1707.969
1707979.0,55.0,44.0,27.0,49.0,1707.979
1707990.0,53.0,45.0,22.0,48.0,1707.99
1708000.0,53.0,45.0,21.0,44.0,1708.0
1708010.0,51.0,43.0,19.0,44.0,1708.01
1708020.0,51.0,43.0,20.0,42.0,1708.02
1708030.0,51.0,43.0,20.0,40.0,1708.03
1708040.0,50.0,45.0,22.0,43.0,1708.04
1708050.0,51.0,45.0,21.0,43.0,1708.05
1708060.0,50.0,45.0,19.0,43.0,1708.06
1708070.0,49.0,44.0,18.0,43.0,1708.07
1708080.0,49.0,44.0,18.0,45.0,1708.08
1708090.0,49.0,44.0,20.0,48.0,1708.09
1708100.0,50.0,44.0,23.0,45.0,1708.1
1708110.0,50.0,44.0,21.0,45.0,1708.11
1708120.0,50.0,46.0,25.0,44.0,1708.12
1708130.0,51.0,45.0,22.0,44.0,1708.13
1708140.0,50.0,46.0,25.0,43.0,1708.14
1708150.0,50.0,45.0,26.0,44.0,1708.15
1708160.0,51.0,45.0,24.0,49.0,1708.16
1708170.0,52.0,45.0,22.0,47.0,1708.17
1708180.0,54.0,45.0,19.0,45.0,1708.18
1708190.0,52.0,44.0,22.0,44.0,1708.19
1708200.0,54.0,46.0,22.0,45.0,1708.2
1708210.0,54.0,47.0,19.0,47.0,1708.21
1708220.0,53.0,44.0,23.0,48.0,1708.22
1708230.0,53.0,44.0,27.0,47.0,1708.23
1708240.0,53.0,44.0,25.0,47.0,1708.24
1708250.0,53.0,42.0,22.0,47.0,1708.25
1708260.0,50.0,42.0,23.0,44.0,1708.26
1708270.0,51.0,42.0,23.0,43.0,1708.27
1708280.0,52.0,44.0,24.0,47.0,1708.28
1708290.0,51.0,42.0,33.0,48.0,1708.29
1708300.0,53.0,42.0,33.0,48.0,1708.3
1708310.0,53.0,41.0,29.0,47.0,1708.31
1708320.0,54.0,42.0,27.0,49.0,1708.32
1708331.0,53.0,41.0,23.0,48.0,1708.331
1708341.0,52.0,40.0,24.0,45.0,1708.341
1708351.0,51.0,41.0,23.0,46.0,1708.351
1708361.0,51.0,44.0,30.0,46.0,1708.361
1708371.0,52.0,44.0,28.0,44.0,1708.371
1708381.0,51.0,43.0,32.0,50.0,1708.381
1708391.0,51.0,42.0,29.0,51.0,1708.391
1708401.0,51.0,43.0,31.0,49.0,1708.401
1708411.0,52.0,45.0,34.0,49.0,1708.411
1708421.0,51.0,44.0,32.0,48.0,1708.421
1708431.0,52.0,43.0,28.0,51.0,1708.431
1708441.0,53.0,42.0,24.0,50.0,1708.441
1708451.0,52.0,41.0,24.0,48.0,1708.451
1708461.0,53.0,40.0,23.0,49.0,1708.461
1708471.0,55.0,40.0,20.0,49.0,1708.471
1708481.0,54.0,41.0,26.0,47.0,1708.481
1708491.0,56.0,41.0,31.0,47.0,1708.491
1708502.0,56.0,41.0,28.0,49.0,1708.502
1708512.0,55.0,40.0,27.0,50.0,1708.512
1708522.0,55.0,40.0,31.0,50.0,1708.522
1708532.0,55.0,39.0,28.0,53.0,1708.532
1708542.0,56.0,39.0,25.0,51.0,1708.542
1708552.0,53.0,40.0,24.0,49.0,1708.552
1708562.0,55.0,41.0,28.0,53.0,1708.562
1708572.0,56.0,41.0,25.0,54.0,1708.572
1708582.0,57.0,39.0,22.0,52.0,1708.582
1708592.0,57.0,39.0,21.0,50.0,1708.592
1708602.0,57.0,40.0,21.0,48.0,1708.602
1708612.0,59.0,40.0,25.0,54.0,1708.612
1708622.0,57.0,39.0,21.0,55.0,1708.622
1708632.0,57.0,39.0,21.0,53.0,1708.632
1708642.0,57.0,41.0,25.0,52.0,1708.642
1708652.0,56.0,41.0,23.0,51.0,1708.652
1708662.0,55.0,40.0,30.0,48.0,1708.662
1708672.0,55.0,40.0,26.0,49.0,1708.672
1708682.0,54.0,38.0,23.0,48.0,1708.682
1708692.0,53.0,38.0,22.0,46.0,1708.692
1708702.0,52.0,37.0,21.0,48.0,1708.702
1708712.0,51.0,37.0,21.0,46.0,1708.712
1708722.0,49.0,39.0,25.0,46.0,1708.722
1708732.0,49.0,39.0,24.0,48.0,1708.732
1708742.0,52.0,40.0,23.0,49.0,1708.742
1708752.0,51.0,39.0,27.0,48.0,1708.752
1708762.0,51.0,38.0,25.0,50.0,1708.762
1708772.0,50.0,39.0,22.0,49.0,1708.772
1708782.0,51.0,39.0,23.0,48.0,1708.782
1708792.0,50.0,42.0,27.0,49.0,1708.792
1708802.0,50.0,40.0,30.0,50.0,1708.802
1708812.0,50.0,39.0,25.0,51.0,1708.812
1708822.0,51.0,38.0,25.0,54.0,1708.822
1708832.0,51.0,38.0,21.0,53.0,1708.832
1708843.0,52.0,37.0,20.0,52.0,1708.843
1708853.0,52.0,37.0,19.0,53.0,1708.853
1708863.0,53.0,37.0,21.0,51.0,1708.863
1708873.0,51.0,36.0,25.0,53.0,1708.873
1708883.0,52.0,38.0,24.0,55.0,1708.883
1708893.0,53.0,39.0,23.0,59.0,1708.893
1708903.0,55.0,38.0,20.0,55.0,1708.903
1708913.0,54.0,38.0,18.0,55.0,1708.913
1708923.0,57.0,37.0,16.0,53.0,1708.923
1708933.0,57.0,38.0,18.0,52.0,1708.933
1708943.0,59.0,37.0,19.0,56.0,1708.943
1708953.0,60.0,39.0,26.0,54.0,1708.953
1708963.0,63.0,42.0,25.0,53.0,1708.963
1708973.0,65.0,41.0,25.0,53.0,1708.973
1708983.0,65.0,40.0,24.0,52.0,1708.983
1708993.0,66.0,41.0,25.0,55.0,1708.993
1709003.0,66.0,41.0,27.0,55.0,1709.003
1709014.0,63.0,40.0,26.0,54.0,1709.014
1709024.0,63.0,39.0,25.0,58.0,1709.024
1709034.0,62.0,40.0,21.0,54.0,1709.034
1709044.0,63.0,39.0,20.0,55.0,1709.044
1709054.0,62.0,39.0,19.0,53.0,1709.054
1709064.0,62.0,41.0,18.0,50.0,1709.064
1709074.0,62.0,41.0,16.0,50.0,1709.074
1709084.0,62.0,41.0,19.0,47.0,1709.084
1709094.0,61.0,40.0,27.0,45.0,1709.094
1709104.0,60.0,39.0,25.0,46.0,1709.104
1709114.0,61.0,40.0,24.0,45.0,1709.114
1709124.0,60.0,39.0,21.0,45.0,1709.124
1709134.0,59.0,39.0,28.0,48.0,1709.134
1709144.0,59.0,41.0,37.0,45.0,1709.144
1709154.0,58.0,43.0,35.0,46.0,1709.154
1709164.0,58.0,42.0,34.0,45.0,1709.164
1709174.0,58.0,42.0,31.0,44.0,1709.174
1709184.0,57.0,41.0,30.0,50.0,1709.184
1709194.0,60.0,42.0,28.0,47.0,1709.194
1709204.0,57.0,41.0,26.0,49.0,1709.204
1709214.0,58.0,40.0,23.0,49.0,1709.214
1709224.0,60.0,42.0,21.0,48.0,1709.224
1709234.0,59.0,41.0,26.0,46.0,1709.234
1709244.0,60.0,44.0,28.0,48.0,1709.244
1709254.0,61.0,44.0,25.0,47.0,1709.254
1709264.0,62.0,43.0,29.0,47.0,1709.264
1709274.0,62.0,42.0,26.0,46.0,1709.274
1709284.0,61.0,41.0,26.0,48.0,1709.284
1709294.0,62.0,41.0,25.0,52.0,1709.294
1709304.0,59.0,42.0,27.0,48.0,1709.304
1709314.0,61.0,44.0,30.0,48.0,1709.314
1709324.0,59.0,43.0,25.0,45.0,1709.324
1709334.0,59.0,42.0,26.0,47.0,1709.334
1709344.0,59.0,41.0,23.0,45.0,1709.344
1709355.0,57.0,40.0,21.0,47.0,1709.355
1709365.0,56.0,40.0,19.0,47.0,1709.365
1709375.0,57.0,41.0,19.0,48.0,1709.375
1709385.0,57.0,42.0,22.0,46.0,1709.385
1709395.0,57.0,40.0,19.0,47.0,1709.395
1709405.0,57.0,40.0,29.0,47.0,1709.405
1709415.0,60.0,39.0,26.0,48.0,1709.415
1709425.0,59.0,38.0,24.0,47.0,1709.425
1709435.0,60.0,37.0,22.0,47.0,1709.435
1709445.0,62.0,39.0,19.0,51.0,1709.445
1709455.0,62.0,38.0,17.0,48.0,1709.455
1709465.0,62.0,38.0,23.0,49.0,1709.465
1709475.0,62.0,38.0,22.0,50.0,1709.475
1709485.0,63.0,37.0,23.0,51.0,1709.485
1709495.0,61.0,38.0,22.0,58.0,1709.495
1709505.0,62.0,37.0,22.0,57.0,1709.505
1709515.0,62.0,37.0,19.0,57.0,1709.515
1709526.0,61.0,37.0,17.0,55.0,1709.526
1709536.0,59.0,37.0,17.0,54.0,1709.536
1709546.0,58.0,40.0,22.0,55.0,1709.546
1709556.0,57.0,39.0,20.0,55.0,1709.556
1709566.0,53.0,39.0,27.0,58.0,1709.566
1709576.0,56.0,38.0,28.0,56.0,1709.576
1709586.0,54.0,37.0,25.0,57.0,1709.586
1709596.0,54.0,37.0,23.0,59.0,1709.596
1709606.0,54.0,38.0,28.0,59.0,1709.606
1709616.0,53.0,39.0,27.0,60.0,1709.616
1709626.0,54.0,39.0,25.0,59.0,1709.626
1709636.0,54.0,40.0,24.0,60.0,1709.636
1709646.0,54.0,39.0,25.0,61.0,1709.646
1709656.0,54.0,37.0,22.0,63.0,1709.656
1709666.0,52.0,39.0,21.0,61.0,1709.666
1709676.0,52.0,38.0,20.0,60.0,1709.676
1709686.0,51.0,39.0,18.0,61.0,1709.686
1709696.0,51.0,40.0,31.0,60.0,1709.696
1709706.0,51.0,40.0,33.0,60.0,1709.706
1709716.0,48.0,39.0,28.0,59.0,1709.716
1709726.0,49.0,39.0,26.0,60.0,1709.726
1709736.0,47.0,40.0,25.0,59.0,1709.736
1709746.0,48.0,38.0,23.0,58.0,1709.746
1709756.0,47.0,39.0,21.0,58.0,1709.756
1709766.0,45.0,39.0,20.0,56.0,1709.766
1709776.0,48.0,42.0,23.0,56.0,1709.776
1709786.0,48.0,42.0,27.0,55.0,1709.786
1709796.0,49.0,41.0,24.0,53.0,1709.796
1709806.0,50.0,42.0,27.0,54.0,1709.806
1709816.0,51.0,40.0,24.0,52.0,1709.816
1709826.0,51.0,39.0,27.0,55.0,1709.826
1709836.0,51.0,40.0,25.0,53.0,1709.836
1709846.0,52.0,40.0,22.0,52.0,1709.846
1709856.0,51.0,41.0,24.0,54.0,1709.856
1709867.0,52.0,41.0,24.0,54.0,1709.867
1709877.0,50.0,40.0,21.0,53.0,1709.877
1709887.0,49.0,40.0,19.0,52.0,1709.887
1709897.0,49.0,38.0,19.0,50.0,1709.897
1709907.0,49.0,40.0,32.0,55.0,1709.907
1709917.0,51.0,43.0,47.0,54.0,1709.917
1709927.0,51.0,43.0,40.0,57.0,1709.927
