time (ms),signal 0,signal 1,signal 2,signal3,time (sec)
1726342.0,50.0,86.0,46.0,77.0,1726.342
1726352.0,49.0,86.0,40.0,78.0,1726.352
1726362.0,47.0,86.0,36.0,78.0,1726.362
1726372.0,48.0,84.0,47.0,85.0,1726.372
1726382.0,49.0,85.0,46.0,93.0,1726.382
1726392.0,48.0,85.0,44.0,93.0,1726.392
1726402.0,49.0,82.0,52.0,88.0,1726.402
1726412.0,46.0,85.0,45.0,94.0,1726.412
1726422.0,47.0,83.0,39.0,89.0,1726.422
1726432.0,48.0,82.0,36.0,90.0,1726.432
1726442.0,48.0,80.0,36.0,86.0,1726.442
1726452.0,49.0,77.0,39.0,88.0,1726.452
1726462.0,48.0,76.0,37.0,88.0,1726.462
1726472.0,48.0,74.0,49.0,86.0,1726.472
1726482.0,47.0,74.0,44.0,85.0,1726.482
1726492.0,47.0,72.0,39.0,83.0,1726.492
1726502.0,47.0,71.0,35.0,86.0,1726.502
1726512.0,47.0,70.0,41.0,95.0,1726.512
1726522.0,48.0,67.0,43.0,91.0,1726.522
1726532.0,47.0,70.0,38.0,93.0,1726.532
1726542.0,48.0,68.0,40.0,93.0,1726.542
1726552.0,47.0,69.0,35.0,90.0,1726.552
1726562.0,47.0,65.0,33.0,83.0,1726.562
1726572.0,49.0,63.0,37.0,82.0,1726.572
1726582.0,49.0,60.0,44.0,81.0,1726.582
1726592.0,50.0,59.0,40.0,81.0,1726.592
1726602.0,50.0,58.0,45.0,76.0,1726.602
1726612.0,50.0,58.0,47.0,77.0,1726.612
1726622.0,51.0,58.0,43.0,76.0,1726.622
1726632.0,53.0,57.0,40.0,79.0,1726.632
1726642.0,53.0,54.0,37.0,80.0,1726.642
1726652.0,52.0,53.0,34.0,80.0,1726.652
1726662.0,55.0,51.0,31.0,80.0,1726.662
1726672.0,56.0,50.0,32.0,81.0,1726.672
1726682.0,56.0,51.0,35.0,80.0,1726.682
1726692.0,55.0,50.0,34.0,80.0,1726.692
1726702.0,57.0,48.0,33.0,79.0,1726.702
1726712.0,57.0,48.0,30.0,78.0,1726.712
1726722.0,59.0,45.0,31.0,81.0,1726.722
1726732.0,58.0,46.0,34.0,83.0,1726.732
1726742.0,58.0,45.0,34.0,83.0,1726.742
1726752.0,59.0,47.0,38.0,82.0,1726.752
1726763.0,60.0,47.0,35.0,86.0,1726.763
1726773.0,61.0,45.0,36.0,83.0,1726.773
1726783.0,64.0,44.0,44.0,83.0,1726.783
1726793.0,64.0,45.0,38.0,79.0,1726.793
1726803.0,68.0,47.0,45.0,79.0,1726.803
1726813.0,68.0,48.0,46.0,79.0,1726.813
1726823.0,68.0,49.0,43.0,80.0,1726.823
1726833.0,68.0,46.0,39.0,80.0,1726.833
1726843.0,69.0,47.0,37.0,84.0,1726.843
1726853.0,70.0,46.0,35.0,86.0,1726.853
1726863.0,73.0,45.0,38.0,83.0,1726.863
1726873.0,72.0,44.0,43.0,89.0,1726.873
1726883.0,72.0,43.0,38.0,93.0,1726.883
1726893.0,70.0,43.0,35.0,93.0,1726.893
1726903.0,73.0,42.0,38.0,90.0,1726.903
1726913.0,73.0,43.0,35.0,88.0,1726.913
1726923.0,75.0,44.0,38.0,83.0,1726.923
1726934.0,75.0,44.0,40.0,85.0,1726.934
1726944.0,75.0,43.0,36.0,91.0,1726.944
1726954.0,77.0,43.0,36.0,88.0,1726.954
1726964.0,78.0,42.0,32.0,87.0,1726.964
1726974.0,81.0,44.0,33.0,82.0,1726.974
1726984.0,81.0,43.0,35.0,80.0,1726.984
1726994.0,81.0,44.0,45.0,83.0,1726.994
1727004.0,83.0,43.0,40.0,88.0,1727.004
1727014.0,84.0,44.0,38.0,84.0,1727.014
1727024.0,83.0,43.0,39.0,81.0,1727.024
1727034.0,85.0,42.0,36.0,82.0,1727.034
1727044.0,85.0,43.0,38.0,83.0,1727.044
1727054.0,86.0,43.0,42.0,78.0,1727.054
1727064.0,85.0,43.0,41.0,78.0,1727.064
1727074.0,86.0,43.0,41.0,75.0,1727.074
1727084.0,87.0,45.0,39.0,70.0,1727.084
1727094.0,87.0,46.0,37.0,72.0,1727.094
1727104.0,90.0,49.0,40.0,76.0,1727.104
1727114.0,89.0,47.0,36.0,77.0,1727.114
1727124.0,90.0,48.0,40.0,81.0,1727.124
1727134.0,89.0,48.0,52.0,86.0,1727.134
1727144.0,89.0,48.0,47.0,82.0,1727.144
1727154.0,91.0,49.0,42.0,75.0,1727.154
1727164.0,93.0,60.0,44.0,70.0,1727.164
1727174.0,95.0,73.0,49.0,72.0,1727.174
1727184.0,96.0,82.0,48.0,69.0,1727.184
1727194.0,100.0,119.0,63.0,69.0,1727.194
1727204.0,96.0,144.0,67.0,69.0,1727.204
1727214.0,94.0,147.0,73.0,68.0,1727.214
1727224.0,104.0,165.0,71.0,74.0,1727.224
1727234.0,104.0,159.0,70.0,89.0,1727.234
1727244.0,103.0,146.0,74.0,94.0,1727.244
1727254.0,111.0,158.0,92.0,117.0,1727.254
1727264.0,125.0,169.0,94.0,124.0,1727.264
1727275.0,133.0,180.0,108.0,128.0,1727.275
1727285.0,144.0,190.0,139.0,129.0,1727.285
1727295.0,185.0,210.0,150.0,164.0,1727.295
1727305.0,192.0,301.0,146.0,161.0,1727.305
1727315.0,197.0,310.0,176.0,182.0,1727.315
1727325.0,217.0,317.0,208.0,177.0,1727.325
1727335.0,239.0,382.0,195.0,181.0,1727.335
1727345.0,299.0,350.0,212.0,184.0,1727.345
1727355.0,278.0,335.0,225.0,172.0,1727.355
1727365.0,272.0,384.0,226.0,176.0,1727.365
1727375.0,265.0,426.0,231.0,185.0,1727.375
1727385.0,268.0,490.0,210.0,189.0,1727.385
1727395.0,260.0,540.0,186.0,188.0,1727.395
1727405.0,267.0,592.0,207.0,195.0,1727.405
1727415.0,246.0,614.0,202.0,213.0,1727.415
1727425.0,236.0,668.0,203.0,226.0,1727.425
1727435.0,236.0,669.0,192.0,230.0,1727.435
1727446.0,231.0,668.0,229.0,255.0,1727.446
1727456.0,219.0,669.0,210.0,242.0,1727.456
1727466.0,219.0,668.0,198.0,217.0,1727.466
1727476.0,220.0,668.0,244.0,225.0,1727.476
1727486.0,210.0,668.0,219.0,210.0,1727.486
1727496.0,210.0,669.0,215.0,196.0,1727.496
1727506.0,210.0,668.0,197.0,178.0,1727.506
1727516.0,216.0,668.0,181.0,160.0,1727.516
1727526.0,218.0,667.0,184.0,161.0,1727.526
1727536.0,217.0,668.0,220.0,158.0,1727.536
1727546.0,216.0,668.0,225.0,155.0,1727.546
1727556.0,219.0,668.0,215.0,143.0,1727.556
1727566.0,220.0,668.0,224.0,141.0,1727.566
1727576.0,219.0,668.0,223.0,158.0,1727.576
1727586.0,217.0,668.0,238.0,160.0,1727.586
1727596.0,219.0,668.0,218.0,156.0,1727.596
1727606.0,224.0,668.0,205.0,158.0,1727.606
1727616.0,222.0,668.0,208.0,151.0,1727.616
1727626.0,221.0,668.0,198.0,150.0,1727.626
1727636.0,216.0,668.0,196.0,168.0,1727.636
1727646.0,220.0,668.0,213.0,167.0,1727.646
1727656.0,215.0,668.0,194.0,155.0,1727.656
1727666.0,215.0,668.0,180.0,146.0,1727.666
1727676.0,215.0,668.0,178.0,139.0,1727.676
1727686.0,214.0,668.0,175.0,163.0,1727.686
1727696.0,214.0,669.0,179.0,152.0,1727.696
1727706.0,211.0,668.0,168.0,142.0,1727.706
1727716.0,211.0,669.0,159.0,137.0,1727.716
1727726.0,207.0,668.0,151.0,127.0,1727.726
1727736.0,209.0,668.0,176.0,122.0,1727.736
1727746.0,204.0,667.0,161.0,113.0,1727.746
1727756.0,202.0,668.0,144.0,120.0,1727.756
1727766.0,203.0,668.0,140.0,124.0,1727.766
1727776.0,201.0,668.0,133.0,126.0,1727.776
1727787.0,203.0,669.0,150.0,129.0,1727.787
1727797.0,197.0,668.0,144.0,120.0,1727.797
1727807.0,194.0,668.0,153.0,132.0,1727.807
1727817.0,188.0,668.0,151.0,131.0,1727.817
1727827.0,189.0,668.0,159.0,142.0,1727.827
1727837.0,185.0,668.0,152.0,132.0,1727.837
1727847.0,185.0,668.0,159.0,139.0,1727.847
1727857.0,179.0,668.0,147.0,131.0,1727.857
1727867.0,175.0,667.0,136.0,132.0,1727.867
1727877.0,180.0,668.0,129.0,122.0,1727.877
1727887.0,179.0,668.0,137.0,123.0,1727.887
1727897.0,170.0,648.0,131.0,111.0,1727.897
1727907.0,167.0,639.0,119.0,124.0,1727.907
1727917.0,167.0,634.0,119.0,125.0,1727.917
1727927.0,164.0,621.0,129.0,128.0,1727.927
1727937.0,160.0,613.0,135.0,124.0,1727.937
1727947.0,157.0,600.0,150.0,127.0,1727.947
1727958.0,152.0,591.0,157.0,134.0,1727.958
1727968.0,148.0,585.0,137.0,130.0,1727.968
1727978.0,147.0,576.0,131.0,122.0,1727.978
1727988.0,148.0,570.0,117.0,121.0,1727.988
1727998.0,141.0,562.0,118.0,120.0,1727.998
1728008.0,142.0,560.0,120.0,120.0,1728.008
1728018.0,141.0,549.0,120.0,112.0,1728.018
1728028.0,139.0,536.0,113.0,105.0,1728.028
1728038.0,136.0,534.0,122.0,127.0,1728.038
1728048.0,131.0,522.0,128.0,121.0,1728.048
1728058.0,129.0,518.0,146.0,125.0,1728.058
1728068.0,127.0,512.0,168.0,128.0,1728.068
1728078.0,121.0,503.0,185.0,129.0,1728.078
1728088.0,124.0,498.0,167.0,122.0,1728.088
1728098.0,124.0,494.0,170.0,119.0,1728.098
1728108.0,122.0,485.0,165.0,122.0,1728.108
1728118.0,119.0,478.0,149.0,129.0,1728.118
1728128.0,120.0,475.0,144.0,140.0,1728.128
1728138.0,117.0,469.0,132.0,138.0,1728.138
1728148.0,116.0,460.0,125.0,136.0,1728.148
1728158.0,110.0,457.0,121.0,133.0,1728.158
1728168.0,110.0,448.0,137.0,139.0,1728.168
1728178.0,108.0,446.0,129.0,139.0,1728.178
1728188.0,108.0,440.0,137.0,134.0,1728.188
1728198.0,106.0,434.0,147.0,135.0,1728.198
1728208.0,103.0,428.0,159.0,143.0,1728.208
1728218.0,101.0,419.0,150.0,135.0,1728.218
1728228.0,97.0,413.0,135.0,144.0,1728.228
1728238.0,98.0,411.0,138.0,134.0,1728.238
1728248.0,95.0,401.0,137.0,135.0,1728.248
1728258.0,94.0,399.0,147.0,137.0,1728.258
1728268.0,92.0,395.0,157.0,133.0,1728.268
1728278.0,90.0,383.0,146.0,131.0,1728.278
1728288.0,88.0,378.0,139.0,123.0,1728.288
1728299.0,87.0,376.0,129.0,120.0,1728.299
1728309.0,86.0,373.0,117.0,136.0,1728.309
1728319.0,85.0,365.0,121.0,131.0,1728.319
1728329.0,83.0,357.0,124.0,136.0,1728.329
1728339.0,84.0,357.0,147.0,156.0,1728.339
1728349.0,81.0,351.0,155.0,171.0,1728.349
1728359.0,80.0,345.0,138.0,166.0,1728.359
1728369.0,80.0,343.0,132.0,158.0,1728.369
1728379.0,77.0,337.0,129.0,146.0,1728.379
1728389.0,79.0,333.0,137.0,134.0,1728.389
1728399.0,78.0,328.0,148.0,133.0,1728.399
1728409.0,76.0,322.0,143.0,123.0,1728.409
1728419.0,75.0,317.0,133.0,125.0,1728.419
1728429.0,74.0,314.0,122.0,127.0,1728.429
1728439.0,72.0,310.0,112.0,119.0,1728.439
1728449.0,72.0,312.0,112.0,125.0,1728.449
1728459.0,71.0,307.0,108.0,126.0,1728.459
1728470.0,68.0,302.0,104.0,121.0,1728.47
1728480.0,67.0,298.0,104.0,120.0,1728.48
1728490.0,67.0,296.0,107.0,115.0,1728.49
1728500.0,68.0,289.0,103.0,113.0,1728.5
1728510.0,66.0,285.0,98.0,120.0,1728.51
1728520.0,65.0,284.0,92.0,123.0,1728.52
1728530.0,63.0,281.0,100.0,115.0,1728.53
1728540.0,63.0,278.0,90.0,115.0,1728.54
1728550.0,62.0,277.0,96.0,114.0,1728.55
1728560.0,62.0,275.0,95.0,117.0,1728.56
1728570.0,61.0,274.0,96.0,119.0,1728.57
1728580.0,61.0,272.0,94.0,111.0,1728.58
1728590.0,64.0,264.0,89.0,109.0,1728.59
1728600.0,64.0,264.0,82.0,102.0,1728.6
1728610.0,67.0,260.0,100.0,118.0,1728.61
1728620.0,64.0,260.0,100.0,119.0,1728.62
1728630.0,63.0,254.0,92.0,114.0,1728.63
1728640.0,61.0,251.0,91.0,108.0,1728.64
1728650.0,61.0,244.0,86.0,108.0,1728.65
1728660.0,63.0,244.0,95.0,107.0,1728.66
1728670.0,63.0,241.0,89.0,113.0,1728.67
1728680.0,64.0,235.0,79.0,111.0,1728.68
1728690.0,61.0,236.0,78.0,118.0,1728.69
1728700.0,62.0,233.0,87.0,123.0,1728.7
1728710.0,62.0,232.0,107.0,121.0,1728.71
1728720.0,65.0,222.0,104.0,117.0,1728.72
1728730.0,65.0,222.0,98.0,115.0,1728.73
1728740.0,66.0,222.0,85.0,121.0,1728.74
1728750.0,67.0,219.0,89.0,119.0,1728.75
1728760.0,68.0,218.0,97.0,123.0,1728.76
1728770.0,70.0,212.0,104.0,122.0,1728.77
1728780.0,72.0,209.0,96.0,121.0,1728.78
1728790.0,72.0,211.0,90.0,122.0,1728.79
1728800.0,70.0,208.0,85.0,147.0,1728.8
1728811.0,71.0,206.0,89.0,145.0,1728.811
1728821.0,75.0,201.0,85.0,137.0,1728.821
1728831.0,76.0,202.0,82.0,139.0,1728.831
1728841.0,78.0,197.0,76.0,144.0,1728.841
1728851.0,76.0,199.0,90.0,140.0,1728.851
1728861.0,77.0,199.0,83.0,130.0,1728.861
1728871.0,78.0,196.0,98.0,132.0,1728.871
1728881.0,80.0,197.0,96.0,124.0,1728.881
1728891.0,77.0,196.0,91.0,126.0,1728.891
1728901.0,80.0,194.0,90.0,134.0,1728.901
1728911.0,80.0,192.0,88.0,126.0,1728.911
1728921.0,82.0,191.0,82.0,117.0,1728.921
1728931.0,84.0,191.0,82.0,111.0,1728.931
1728941.0,85.0,195.0,88.0,103.0,1728.941
1728951.0,87.0,189.0,90.0,106.0,1728.951
1728961.0,85.0,189.0,88.0,122.0,1728.961
1728971.0,88.0,184.0,82.0,135.0,1728.971
1728982.0,87.0,186.0,76.0,150.0,1728.982
1728992.0,83.0,185.0,79.0,147.0,1728.992
1729002.0,85.0,182.0,88.0,147.0,1729.002
1729012.0,88.0,179.0,86.0,136.0,1729.012
1729022.0,90.0,176.0,94.0,128.0,1729.022
1729032.0,89.0,175.0,83.0,127.0,1729.032
1729042.0,90.0,174.0,104.0,119.0,1729.042
1729052.0,86.0,176.0,97.0,120.0,1729.052
1729062.0,86.0,176.0,116.0,120.0,1729.062
1729072.0,89.0,169.0,111.0,117.0,1729.072
1729082.0,87.0,171.0,102.0,112.0,1729.082
1729092.0,87.0,166.0,91.0,103.0,1729.092
1729102.0,85.0,164.0,85.0,100.0,1729.102
1729112.0,84.0,167.0,103.0,107.0,1729.112
1729122.0,84.0,159.0,105.0,108.0,1729.122
1729132.0,84.0,157.0,110.0,112.0,1729.132
1729142.0,82.0,157.0,104.0,110.0,1729.142
1729152.0,82.0,156.0,103.0,107.0,1729.152
1729162.0,79.0,158.0,106.0,98.0,1729.162
1729172.0,79.0,158.0,112.0,95.0,1729.172
1729182.0,80.0,156.0,111.0,100.0,1729.182
1729192.0,81.0,154.0,109.0,101.0,1729.192
1729202.0,81.0,148.0,116.0,95.0,1729.202
1729212.0,78.0,149.0,115.0,93.0,1729.212
1729222.0,82.0,138.0,105.0,88.0,1729.222
1729232.0,79.0,134.0,94.0,94.0,1729.232
1729242.0,84.0,124.0,98.0,101.0,1729.242
1729252.0,92.0,115.0,112.0,123.0,1729.252
1729262.0,97.0,107.0,112.0,137.0,1729.262
1729272.0,101.0,108.0,104.0,144.0,1729.272
1729282.0,100.0,99.0,99.0,155.0,1729.282
1729292.0,104.0,97.0,97.0,164.0,1729.292
1729302.0,108.0,97.0,89.0,190.0,1729.302
1729312.0,119.0,102.0,98.0,191.0,1729.312
1729323.0,128.0,111.0,106.0,259.0,1729.323
1729333.0,133.0,111.0,108.0,240.0,1729.333
1729343.0,140.0,114.0,108.0,250.0,1729.343
1729353.0,142.0,116.0,117.0,249.0,1729.353
1729363.0,152.0,127.0,126.0,268.0,1729.363
1729373.0,159.0,138.0,117.0,264.0,1729.373
1729383.0,168.0,154.0,133.0,248.0,1729.383
1729393.0,176.0,173.0,126.0,239.0,1729.393
1729403.0,180.0,188.0,124.0,243.0,1729.403
1729413.0,186.0,205.0,140.0,248.0,1729.413
1729423.0,192.0,229.0,134.0,250.0,1729.423
1729433.0,198.0,250.0,135.0,233.0,1729.433
1729443.0,202.0,270.0,121.0,244.0,1729.443
1729453.0,206.0,288.0,122.0,252.0,1729.453
1729463.0,208.0,306.0,118.0,257.0,1729.463
1729473.0,208.0,320.0,123.0,250.0,1729.473
1729483.0,213.0,338.0,113.0,271.0,1729.483
1729494.0,216.0,353.0,110.0,277.0,1729.494
1729504.0,217.0,363.0,111.0,283.0,1729.504
1729514.0,220.0,378.0,114.0,280.0,1729.514
1729524.0,221.0,388.0,125.0,258.0,1729.524
1729534.0,221.0,398.0,127.0,251.0,1729.534
1729544.0,219.0,403.0,120.0,258.0,1729.544
1729554.0,220.0,411.0,121.0,270.0,1729.554
1729564.0,218.0,420.0,109.0,274.0,1729.564
1729574.0,215.0,423.0,110.0,269.0,1729.574
1729584.0,214.0,429.0,106.0,276.0,1729.584
1729594.0,213.0,434.0,103.0,270.0,1729.594
1729604.0,211.0,437.0,100.0,263.0,1729.604
1729614.0,210.0,441.0,95.0,251.0,1729.614
1729624.0,207.0,442.0,91.0,254.0,1729.624
1729634.0,205.0,445.0,98.0,236.0,1729.634
1729644.0,204.0,447.0,87.0,234.0,1729.644
1729654.0,200.0,446.0,90.0,236.0,1729.654
1729664.0,195.0,445.0,88.0,220.0,1729.664
1729674.0,192.0,445.0,89.0,214.0,1729.674
1729684.0,189.0,444.0,86.0,209.0,1729.684
1729694.0,185.0,442.0,81.0,203.0,1729.694
1729704.0,182.0,438.0,74.0,195.0,1729.704
1729714.0,180.0,439.0,86.0,268.0,1729.714
1729724.0,177.0,436.0,86.0,278.0,1729.724
1729734.0,176.0,439.0,94.0,272.0,1729.734
1729744.0,174.0,437.0,97.0,255.0,1729.744
1729754.0,169.0,436.0,90.0,235.0,1729.754
1729764.0,165.0,434.0,92.0,219.0,1729.764
1729774.0,161.0,432.0,96.0,218.0,1729.774
1729784.0,158.0,432.0,86.0,222.0,1729.784
1729794.0,155.0,431.0,80.0,219.0,1729.794
1729804.0,148.0,426.0,83.0,207.0,1729.804
1729814.0,147.0,429.0,83.0,202.0,1729.814
1729824.0,144.0,426.0,83.0,196.0,1729.824
1729835.0,141.0,425.0,79.0,193.0,1729.835
1729845.0,137.0,423.0,75.0,184.0,1729.845
1729855.0,133.0,421.0,70.0,195.0,1729.855
1729865.0,128.0,417.0,63.0,189.0,1729.865
1729875.0,124.0,415.0,62.0,181.0,1729.875
1729885.0,118.0,410.0,66.0,173.0,1729.885
1729895.0,114.0,407.0,72.0,176.0,1729.895
1729905.0,109.0,403.0,64.0,173.0,1729.905
1729915.0,108.0,401.0,58.0,182.0,1729.915
1729925.0,105.0,398.0,54.0,176.0,1729.925
1729935.0,100.0,395.0,54.0,168.0,1729.935
1729945.0,97.0,388.0,64.0,161.0,1729.945
1729955.0,95.0,385.0,72.0,157.0,1729.955
1729965.0,93.0,382.0,76.0,161.0,1729.965
1729975.0,90.0,378.0,74.0,157.0,1729.975
1729985.0,89.0,374.0,67.0,158.0,1729.985
1729995.0,88.0,369.0,61.0,155.0,1729.995
1730006.0,84.0,363.0,57.0,149.0,1730.006
1730016.0,81.0,357.0,54.0,144.0,1730.016
1730026.0,79.0,350.0,62.0,149.0,1730.026
1730036.0,78.0,349.0,71.0,153.0,1730.036
1730046.0,75.0,346.0,66.0,146.0,1730.046
1730056.0,72.0,341.0,73.0,148.0,1730.056
1730066.0,69.0,336.0,71.0,149.0,1730.066
1730076.0,66.0,333.0,66.0,141.0,1730.076
1730086.0,64.0,327.0,63.0,154.0,1730.086
1730096.0,61.0,325.0,58.0,158.0,1730.096
1730106.0,59.0,321.0,65.0,156.0,1730.106
1730116.0,58.0,320.0,63.0,169.0,1730.116
1730126.0,55.0,316.0,58.0,163.0,1730.126
1730136.0,54.0,311.0,66.0,162.0,1730.136
1730146.0,54.0,309.0,67.0,163.0,1730.146
1730156.0,52.0,305.0,60.0,156.0,1730.156
1730166.0,52.0,299.0,54.0,145.0,1730.166
1730176.0,50.0,299.0,52.0,138.0,1730.176
1730186.0,50.0,295.0,50.0,132.0,1730.186
1730196.0,52.0,292.0,63.0,134.0,1730.196
1730206.0,51.0,291.0,63.0,130.0,1730.206
1730216.0,51.0,287.0,61.0,127.0,1730.216
1730226.0,50.0,285.0,53.0,138.0,1730.226
1730236.0,52.0,280.0,50.0,129.0,1730.236
1730246.0,54.0,277.0,46.0,119.0,1730.246
1730256.0,55.0,270.0,48.0,112.0,1730.256
1730266.0,56.0,268.0,61.0,115.0,1730.266
1730276.0,55.0,269.0,58.0,127.0,1730.276
1730286.0,57.0,267.0,66.0,125.0,1730.286
1730296.0,58.0,263.0,69.0,120.0,1730.296
1730306.0,59.0,261.0,67.0,119.0,1730.306
1730316.0,62.0,258.0,78.0,114.0,1730.316
1730326.0,60.0,257.0,71.0,113.0,1730.326
1730336.0,61.0,255.0,64.0,125.0,1730.336
1730347.0,61.0,254.0,59.0,129.0,1730.347
1730357.0,63.0,251.0,54.0,125.0,1730.357
1730367.0,65.0,248.0,52.0,130.0,1730.367
1730377.0,68.0,244.0,55.0,136.0,1730.377
1730387.0,70.0,241.0,64.0,139.0,1730.387
1730397.0,69.0,239.0,61.0,134.0,1730.397
1730407.0,71.0,236.0,57.0,142.0,1730.407
1730417.0,69.0,235.0,51.0,146.0,1730.417
1730427.0,74.0,230.0,51.0,149.0,1730.427
1730437.0,73.0,230.0,45.0,144.0,1730.437
1730447.0,75.0,227.0,42.0,136.0,1730.447
1730457.0,76.0,225.0,39.0,135.0,1730.457
1730467.0,76.0,223.0,42.0,130.0,1730.467
1730477.0,75.0,221.0,41.0,130.0,1730.477
1730487.0,76.0,219.0,37.0,128.0,1730.487
1730497.0,76.0,218.0,35.0,127.0,1730.497
1730507.0,76.0,215.0,36.0,126.0,1730.507
1730518.0,76.0,213.0,36.0,117.0,1730.518
1730528.0,74.0,211.0,37.0,111.0,1730.528
1730538.0,75.0,208.0,39.0,112.0,1730.538
1730548.0,72.0,206.0,45.0,119.0,1730.548
1730558.0,70.0,206.0,40.0,129.0,1730.558
1730568.0,71.0,204.0,39.0,122.0,1730.568
1730578.0,73.0,200.0,47.0,117.0,1730.578
1730588.0,70.0,200.0,44.0,114.0,1730.588
1730598.0,71.0,197.0,40.0,116.0,1730.598
1730608.0,72.0,197.0,40.0,119.0,1730.608
1730618.0,72.0,193.0,38.0,112.0,1730.618
1730628.0,73.0,191.0,35.0,106.0,1730.628
1730638.0,73.0,189.0,33.0,106.0,1730.638
1730648.0,73.0,187.0,35.0,99.0,1730.648
1730658.0,71.0,184.0,36.0,99.0,1730.658
1730668.0,71.0,183.0,34.0,96.0,1730.668
1730678.0,70.0,181.0,36.0,94.0,1730.678
1730688.0,71.0,180.0,33.0,92.0,1730.688
1730698.0,73.0,174.0,36.0,92.0,1730.698
1730708.0,70.0,176.0,48.0,105.0,1730.708
1730718.0,72.0,176.0,49.0,116.0,1730.718
1730728.0,72.0,176.0,45.0,109.0,1730.728
1730738.0,70.0,177.0,44.0,100.0,1730.738
1730748.0,72.0,173.0,49.0,107.0,1730.748
1730758.0,72.0,174.0,57.0,122.0,1730.758
1730768.0,72.0,172.0,51.0,126.0,1730.768
1730778.0,72.0,171.0,49.0,120.0,1730.778
1730788.0,72.0,169.0,47.0,125.0,1730.788
1730798.0,75.0,166.0,44.0,116.0,1730.798
1730808.0,72.0,165.0,43.0,116.0,1730.808
1730818.0,73.0,161.0,47.0,113.0,1730.818
1730828.0,72.0,160.0,55.0,115.0,1730.828
1730838.0,70.0,160.0,51.0,109.0,1730.838
1730848.0,70.0,159.0,46.0,105.0,1730.848
1730859.0,70.0,158.0,42.0,108.0,1730.859
1730869.0,69.0,158.0,40.0,104.0,1730.869
1730879.0,70.0,154.0,52.0,99.0,1730.879
1730889.0,68.0,155.0,47.0,91.0,1730.889
1730899.0,71.0,153.0,50.0,102.0,1730.899
1730909.0,67.0,156.0,46.0,102.0,1730.909
1730919.0,69.0,154.0,43.0,103.0,1730.919
1730929.0,69.0,154.0,40.0,99.0,1730.929
1730939.0,70.0,153.0,47.0,94.0,1730.939
1730949.0,70.0,152.0,54.0,91.0,1730.949
1730959.0,69.0,152.0,56.0,128.0,1730.959
1730969.0,69.0,152.0,55.0,123.0,1730.969
1730979.0,68.0,153.0,51.0,121.0,1730.979
1730989.0,68.0,152.0,46.0,114.0,1730.989
1730999.0,69.0,151.0,43.0,110.0,1730.999
1731009.0,69.0,149.0,39.0,116.0,1731.009
1731019.0,69.0,147.0,42.0,122.0,1731.019
1731030.0,69.0,147.0,53.0,119.0,1731.03
1731040.0,70.0,146.0,62.0,114.0,1731.04
1731050.0,70.0,145.0,56.0,104.0,1731.05
1731060.0,70.0,145.0,50.0,111.0,1731.06
1731070.0,71.0,143.0,54.0,112.0,1731.07
1731080.0,71.0,144.0,55.0,111.0,1731.08
1731090.0,71.0,143.0,49.0,105.0,1731.09
1731100.0,71.0,142.0,44.0,97.0,1731.1
1731110.0,71.0,140.0,41.0,111.0,1731.11
1731120.0,74.0,135.0,53.0,120.0,1731.12
1731130.0,73.0,137.0,51.0,119.0,1731.13
1731140.0,72.0,137.0,52.0,112.0,1731.14
1731150.0,73.0,134.0,53.0,107.0,1731.15
1731160.0,73.0,136.0,47.0,98.0,1731.16
1731170.0,73.0,136.0,42.0,96.0,1731.17
1731180.0,73.0,135.0,38.0,101.0,1731.18
1731190.0,74.0,132.0,36.0,94.0,1731.19
1731200.0,74.0,132.0,44.0,90.0,1731.2
1731210.0,73.0,132.0,45.0,87.0,1731.21
1731220.0,72.0,132.0,39.0,90.0,1731.22
1731230.0,74.0,129.0,47.0,118.0,1731.23
1731240.0,72.0,128.0,42.0,113.0,1731.24
1731250.0,71.0,126.0,39.0,105.0,1731.25
1731260.0,72.0,124.0,42.0,98.0,1731.26
1731270.0,70.0,124.0,41.0,96.0,1731.27
1731280.0,70.0,122.0,41.0,104.0,1731.28
1731290.0,68.0,123.0,40.0,101.0,1731.29
1731300.0,68.0,122.0,42.0,99.0,1731.3
1731310.0,66.0,123.0,42.0,99.0,1731.31
1731320.0,64.0,123.0,36.0,97.0,1731.32
1731330.0,65.0,122.0,32.0,99.0,1731.33
1731340.0,64.0,124.0,31.0,102.0,1731.34
1731350.0,63.0,122.0,31.0,94.0,1731.35
1731360.0,62.0,124.0,29.0,88.0,1731.36
1731371.0,61.0,124.0,27.0,90.0,1731.371
1731381.0,62.0,123.0,23.0,88.0,1731.381
1731391.0,61.0,122.0,25.0,87.0,1731.391
1731401.0,61.0,119.0,28.0,84.0,1731.401
1731411.0,59.0,120.0,31.0,81.0,1731.411
1731421.0,59.0,119.0,36.0,79.0,1731.421
1731431.0,57.0,120.0,33.0,79.0,1731.431
1731441.0,56.0,120.0,30.0,83.0,1731.441
1731451.0,57.0,119.0,28.0,90.0,1731.451
1731461.0,55.0,119.0,32.0,89.0,1731.461
1731471.0,54.0,120.0,30.0,99.0,1731.471
1731481.0,53.0,119.0,27.0,102.0,1731.481
1731491.0,53.0,119.0,38.0,100.0,1731.491
1731501.0,52.0,119.0,36.0,98.0,1731.501
1731511.0,51.0,119.0,41.0,99.0,1731.511
1731521.0,50.0,120.0,38.0,98.0,1731.521
1731531.0,48.0,120.0,34.0,99.0,1731.531
1731542.0,48.0,118.0,34.0,94.0,1731.542
1731552.0,47.0,118.0,33.0,92.0,1731.552
1731562.0,47.0,117.0,38.0,87.0,1731.562
1731572.0,48.0,114.0,38.0,94.0,1731.572
1731582.0,47.0,114.0,36.0,90.0,1731.582
1731592.0,47.0,114.0,33.0,85.0,1731.592
1731602.0,47.0,112.0,31.0,91.0,1731.602
1731612.0,48.0,111.0,28.0,99.0,1731.612
1731622.0,47.0,111.0,25.0,100.0,1731.622
1731632.0,48.0,110.0,23.0,95.0,1731.632
1731642.0,47.0,109.0,32.0,92.0,1731.642
1731652.0,47.0,109.0,33.0,92.0,1731.652
1731662.0,47.0,109.0,32.0,97.0,1731.662
1731672.0,49.0,107.0,35.0,97.0,1731.672
1731682.0,48.0,109.0,36.0,102.0,1731.682
1731692.0,47.0,109.0,34.0,97.0,1731.692
1731702.0,50.0,105.0,38.0,105.0,1731.702
1731712.0,50.0,106.0,43.0,104.0,1731.712
1731722.0,49.0,106.0,36.0,108.0,1731.722
1731732.0,47.0,105.0,35.0,103.0,1731.732
1731742.0,47.0,104.0,33.0,98.0,1731.742
1731752.0,46.0,102.0,30.0,96.0,1731.752
1731762.0,46.0,98.0,39.0,101.0,1731.762
1731772.0,46.0,99.0,42.0,98.0,1731.772
1731782.0,45.0,99.0,39.0,93.0,1731.782
1731792.0,45.0,99.0,34.0,89.0,1731.792
1731802.0,45.0,98.0,30.0,86.0,1731.802
1731812.0,45.0,97.0,34.0,88.0,1731.812
1731822.0,44.0,97.0,30.0,104.0,1731.822
1731832.0,43.0,97.0,28.0,109.0,1731.832
1731842.0,44.0,95.0,37.0,111.0,1731.842
1731852.0,43.0,96.0,31.0,113.0,1731.852
1731862.0,44.0,95.0,28.0,110.0,1731.862
1731872.0,45.0,94.0,24.0,121.0,1731.872
1731883.0,45.0,93.0,23.0,121.0,1731.883
1731893.0,45.0,92.0,21.0,125.0,1731.893
1731903.0,44.0,91.0,19.0,145.0,1731.903
1731913.0,44.0,89.0,19.0,149.0,1731.913
1731923.0,45.0,89.0,32.0,141.0,1731.923
1731933.0,45.0,84.0,37.0,138.0,1731.933
1731943.0,46.0,85.0,41.0,137.0,1731.943
1731953.0,47.0,83.0,46.0,147.0,1731.953
1731963.0,46.0,82.0,40.0,147.0,1731.963
1731973.0,45.0,80.0,44.0,145.0,1731.973
1731983.0,45.0,77.0,39.0,132.0,1731.983
1731993.0,45.0,75.0,39.0,151.0,1731.993
1732003.0,45.0,72.0,35.0,160.0,1732.003
1732013.0,45.0,68.0,35.0,151.0,1732.013
1732023.0,45.0,68.0,36.0,151.0,1732.023
1732033.0,47.0,66.0,32.0,144.0,1732.033
1732043.0,44.0,64.0,28.0,147.0,1732.043
1732054.0,45.0,64.0,31.0,138.0,1732.054
1732064.0,46.0,66.0,32.0,138.0,1732.064
1732074.0,45.0,65.0,30.0,131.0,1732.074
1732084.0,45.0,64.0,33.0,123.0,1732.084
1732094.0,45.0,66.0,31.0,138.0,1732.094
1732104.0,45.0,65.0,29.0,135.0,1732.104
1732114.0,44.0,64.0,25.0,136.0,1732.114
1732124.0,44.0,64.0,23.0,127.0,1732.124
1732134.0,42.0,63.0,24.0,118.0,1732.134
1732144.0,43.0,62.0,22.0,120.0,1732.144
1732154.0,44.0,59.0,40.0,114.0,1732.154
1732164.0,45.0,59.0,45.0,107.0,1732.164
1732174.0,47.0,61.0,45.0,116.0,1732.174
1732184.0,47.0,59.0,43.0,120.0,1732.184
1732194.0,44.0,59.0,38.0,114.0,1732.194
1732204.0,45.0,57.0,33.0,111.0,1732.204
1732214.0,45.0,58.0,29.0,107.0,1732.214
1732224.0,44.0,56.0,26.0,100.0,1732.224
1732234.0,45.0,55.0,24.0,99.0,1732.234
1732244.0,45.0,55.0,23.0,99.0,1732.244
1732254.0,46.0,53.0,22.0,96.0,1732.254
1732264.0,48.0,54.0,36.0,99.0,1732.264
1732274.0,47.0,56.0,45.0,101.0,1732.274
1732284.0,47.0,56.0,42.0,100.0,1732.284
1732294.0,46.0,54.0,38.0,121.0,1732.294
1732304.0,46.0,52.0,33.0,121.0,1732.304
1732314.0,44.0,50.0,29.0,127.0,1732.314
1732324.0,46.0,49.0,26.0,131.0,1732.324
1732334.0,44.0,49.0,22.0,135.0,1732.334
1732344.0,46.0,49.0,20.0,136.0,1732.344
1732354.0,45.0,47.0,17.0,129.0,1732.354
1732364.0,45.0,47.0,22.0,124.0,1732.364
1732374.0,46.0,46.0,20.0,124.0,1732.374
1732384.0,45.0,45.0,25.0,128.0,1732.384
1732395.0,47.0,47.0,35.0,129.0,1732.395
1732405.0,45.0,45.0,30.0,121.0,1732.405
1732415.0,44.0,44.0,27.0,111.0,1732.415
1732425.0,44.0,44.0,24.0,117.0,1732.425
1732435.0,44.0,44.0,24.0,115.0,1732.435
1732445.0,45.0,42.0,21.0,136.0,1732.445
1732455.0,45.0,42.0,19.0,136.0,1732.455
1732465.0,45.0,41.0,16.0,126.0,1732.465
1732475.0,45.0,42.0,18.0,127.0,1732.475
1732485.0,44.0,42.0,16.0,129.0,1732.485
1732495.0,48.0,47.0,33.0,136.0,1732.495
1732505.0,48.0,46.0,29.0,131.0,1732.505
1732515.0,47.0,44.0,26.0,133.0,1732.515
1732525.0,47.0,44.0,23.0,126.0,1732.525
1732535.0,47.0,45.0,21.0,123.0,1732.535
1732545.0,47.0,43.0,19.0,118.0,1732.545
1732555.0,47.0,43.0,18.0,111.0,1732.555
1732566.0,46.0,41.0,16.0,105.0,1732.566
1732576.0,45.0,42.0,14.0,101.0,1732.576
1732586.0,45.0,40.0,13.0,94.0,1732.586
1732596.0,46.0,40.0,12.0,113.0,1732.596
1732606.0,45.0,42.0,11.0,115.0,1732.606
1732616.0,45.0,41.0,11.0,113.0,1732.616
1732626.0,44.0,40.0,9.0,107.0,1732.626
1732636.0,43.0,40.0,9.0,113.0,1732.636
1732646.0,44.0,41.0,8.0,117.0,1732.646
1732656.0,43.0,43.0,7.0,111.0,1732.656
1732666.0,45.0,42.0,17.0,107.0,1732.666
1732676.0,47.0,47.0,25.0,117.0,1732.676
1732686.0,49.0,48.0,27.0,127.0,1732.686
1732696.0,48.0,50.0,33.0,126.0,1732.696
1732706.0,48.0,51.0,31.0,125.0,1732.706
1732716.0,48.0,52.0,27.0,127.0,1732.716
1732726.0,48.0,54.0,24.0,124.0,1732.726
1732736.0,47.0,52.0,21.0,122.0,1732.736
1732746.0,47.0,53.0,19.0,122.0,1732.746
1732756.0,47.0,56.0,18.0,116.0,1732.756
1732766.0,48.0,55.0,34.0,121.0,1732.766
1732776.0,50.0,61.0,31.0,131.0,1732.776
1732786.0,51.0,64.0,29.0,138.0,1732.786
1732796.0,51.0,66.0,26.0,134.0,1732.796
1732806.0,53.0,68.0,27.0,130.0,1732.806
1732816.0,53.0,70.0,35.0,131.0,1732.816
1732826.0,53.0,73.0,31.0,140.0,1732.826
1732836.0,53.0,75.0,28.0,133.0,1732.836
1732846.0,52.0,80.0,24.0,124.0,1732.846
1732856.0,53.0,84.0,22.0,116.0,1732.856
1732866.0,52.0,88.0,21.0,122.0,1732.866
1732876.0,53.0,92.0,26.0,116.0,1732.876
1732886.0,51.0,94.0,27.0,118.0,1732.886
1732896.0,49.0,99.0,24.0,120.0,1732.896
1732907.0,51.0,102.0,22.0,115.0,1732.907
1732917.0,50.0,106.0,20.0,113.0,1732.917
1732927.0,50.0,108.0,18.0,119.0,1732.927
1732937.0,51.0,111.0,16.0,124.0,1732.937
1732947.0,51.0,113.0,14.0,129.0,1732.947
1732957.0,51.0,111.0,21.0,120.0,1732.957
1732967.0,52.0,117.0,19.0,116.0,1732.967
1732977.0,52.0,120.0,21.0,116.0,1732.977
1732987.0,54.0,124.0,19.0,113.0,1732.987
1732997.0,55.0,128.0,18.0,113.0,1732.997
1733007.0,57.0,131.0,17.0,105.0,1733.007
1733017.0,56.0,134.0,16.0,112.0,1733.017
1733027.0,56.0,136.0,14.0,104.0,1733.027
1733037.0,57.0,141.0,13.0,112.0,1733.037
1733047.0,58.0,144.0,12.0,121.0,1733.047
1733057.0,58.0,147.0,11.0,114.0,1733.057
1733067.0,57.0,150.0,9.0,105.0,1733.067
1733078.0,58.0,152.0,9.0,105.0,1733.078
1733088.0,58.0,156.0,8.0,111.0,1733.088
1733098.0,59.0,158.0,8.0,106.0,1733.098
1733108.0,61.0,160.0,7.0,104.0,1733.108
1733118.0,59.0,159.0,17.0,109.0,1733.118
1733128.0,61.0,159.0,19.0,106.0,1733.128
1733138.0,62.0,162.0,22.0,112.0,1733.138
1733148.0,64.0,165.0,21.0,109.0,1733.148
1733158.0,65.0,168.0,19.0,115.0,1733.158
1733168.0,65.0,169.0,17.0,108.0,1733.168
1733178.0,66.0,172.0,16.0,112.0,1733.178
1733188.0,67.0,175.0,13.0,116.0,1733.188
1733198.0,67.0,176.0,15.0,113.0,1733.198
1733208.0,67.0,178.0,14.0,111.0,1733.208
1733218.0,67.0,179.0,12.0,109.0,1733.218
1733228.0,68.0,180.0,17.0,115.0,1733.228
1733238.0,69.0,183.0,16.0,118.0,1733.238
1733248.0,68.0,184.0,15.0,111.0,1733.248
1733258.0,67.0,186.0,13.0,102.0,1733.258
1733268.0,66.0,186.0,13.0,96.0,1733.268
1733278.0,66.0,188.0,12.0,106.0,1733.278
1733288.0,66.0,190.0,11.0,102.0,1733.288
1733298.0,64.0,191.0,13.0,108.0,1733.298
1733308.0,66.0,195.0,11.0,102.0,1733.308
1733318.0,65.0,194.0,11.0,90.0,1733.318
1733328.0,66.0,196.0,12.0,100.0,1733.328
1733338.0,67.0,196.0,11.0,93.0,1733.338
1733348.0,68.0,195.0,10.0,95.0,1733.348
1733358.0,69.0,194.0,10.0,99.0,1733.358
1733368.0,71.0,194.0,9.0,93.0,1733.368
1733378.0,73.0,196.0,9.0,97.0,1733.378
1733388.0,73.0,195.0,8.0,94.0,1733.388
1733398.0,72.0,194.0,13.0,96.0,1733.398
1733408.0,73.0,195.0,23.0,100.0,1733.408
1733419.0,76.0,198.0,21.0,102.0,1733.419
1733429.0,76.0,198.0,18.0,99.0,1733.429
1733439.0,79.0,200.0,17.0,92.0,1733.439
1733449.0,79.0,200.0,15.0,90.0,1733.449
1733459.0,79.0,200.0,14.0,87.0,1733.459
1733469.0,80.0,201.0,14.0,84.0,1733.469
1733479.0,80.0,203.0,12.0,102.0,1733.479
1733489.0,80.0,205.0,12.0,108.0,1733.489
1733499.0,79.0,205.0,26.0,108.0,1733.499
1733509.0,80.0,206.0,24.0,121.0,1733.509
1733519.0,80.0,207.0,21.0,113.0,1733.519
1733529.0,80.0,208.0,19.0,105.0,1733.529
1733539.0,80.0,208.0,17.0,94.0,1733.539
1733549.0,79.0,207.0,15.0,86.0,1733.549
1733559.0,79.0,208.0,14.0,78.0,1733.559
1733569.0,78.0,208.0,12.0,76.0,1733.569
1733579.0,78.0,208.0,12.0,75.0,1733.579
1733590.0,78.0,207.0,10.0,79.0,1733.59
1733600.0,77.0,209.0,10.0,79.0,1733.6
1733610.0,77.0,207.0,11.0,76.0,1733.61
1733620.0,79.0,208.0,11.0,71.0,1733.62
1733630.0,79.0,207.0,13.0,88.0,1733.63
1733640.0,79.0,210.0,14.0,93.0,1733.64
1733650.0,78.0,210.0,14.0,91.0,1733.65
1733660.0,77.0,209.0,19.0,84.0,1733.66
1733670.0,77.0,211.0,18.0,83.0,1733.67
1733680.0,77.0,209.0,16.0,86.0,1733.68
1733690.0,77.0,210.0,15.0,114.0,1733.69
1733700.0,77.0,210.0,14.0,113.0,1733.7
1733710.0,78.0,210.0,19.0,116.0,1733.71
1733720.0,77.0,210.0,21.0,120.0,1733.72
1733730.0,78.0,211.0,23.0,121.0,1733.73
1733740.0,78.0,211.0,23.0,116.0,1733.74
1733750.0,78.0,209.0,23.0,110.0,1733.75
1733760.0,78.0,208.0,21.0,105.0,1733.76
1733770.0,77.0,207.0,21.0,96.0,1733.77
1733780.0,78.0,203.0,20.0,88.0,1733.78
1733790.0,79.0,201.0,16.0,97.0,1733.79
1733800.0,79.0,201.0,18.0,103.0,1733.8
1733810.0,79.0,199.0,19.0,101.0,1733.81
1733820.0,81.0,200.0,18.0,107.0,1733.82
1733830.0,80.0,198.0,16.0,111.0,1733.83
1733840.0,81.0,196.0,18.0,106.0,1733.84
1733850.0,80.0,192.0,23.0,110.0,1733.85
1733860.0,81.0,192.0,21.0,115.0,1733.86
1733870.0,80.0,191.0,18.0,108.0,1733.87
1733880.0,80.0,189.0,17.0,119.0,1733.88
1733890.0,80.0,188.0,17.0,108.0,1733.89
1733900.0,80.0,186.0,15.0,99.0,1733.9
1733910.0,78.0,183.0,29.0,99.0,1733.91
1733920.0,77.0,183.0,28.0,102.0,1733.92
1733931.0,77.0,181.0,25.0,107.0,1733.931
1733941.0,74.0,180.0,22.0,108.0,1733.941
1733951.0,72.0,175.0,28.0,103.0,1733.951
1733961.0,72.0,178.0,25.0,96.0,1733.961
1733971.0,73.0,177.0,22.0,93.0,1733.971
1733981.0,73.0,176.0,20.0,89.0,1733.981
1733991.0,73.0,174.0,17.0,103.0,1733.991
1734001.0,73.0,173.0,16.0,98.0,1734.001
1734011.0,73.0,172.0,13.0,91.0,1734.011
1734021.0,73.0,171.0,13.0,88.0,1734.021
1734031.0,71.0,167.0,22.0,95.0,1734.031
1734041.0,72.0,166.0,26.0,104.0,1734.041
1734051.0,73.0,164.0,23.0,99.0,1734.051
1734061.0,73.0,162.0,21.0,95.0,1734.061
1734071.0,75.0,160.0,21.0,94.0,1734.071
1734081.0,72.0,157.0,16.0,90.0,1734.081
1734091.0,71.0,155.0,15.0,104.0,1734.091
1734102.0,73.0,154.0,14.0,107.0,1734.102
1734112.0,71.0,152.0,21.0,103.0,1734.112
1734122.0,71.0,149.0,20.0,101.0,1734.122
1734132.0,73.0,147.0,18.0,113.0,1734.132
1734142.0,74.0,145.0,24.0,118.0,1734.142
1734152.0,77.0,145.0,22.0,113.0,1734.152
1734162.0,76.0,143.0,18.0,108.0,1734.162
1734172.0,77.0,141.0,16.0,101.0,1734.172
1734182.0,77.0,141.0,16.0,100.0,1734.182
1734192.0,76.0,138.0,15.0,98.0,1734.192
1734202.0,77.0,136.0,15.0,101.0,1734.202
1734212.0,77.0,136.0,14.0,99.0,1734.212
1734222.0,79.0,135.0,13.0,94.0,1734.222
1734232.0,76.0,133.0,12.0,89.0,1734.232
1734242.0,76.0,132.0,13.0,95.0,1734.242
1734252.0,75.0,131.0,14.0,97.0,1734.252
1734262.0,74.0,127.0,20.0,92.0,1734.262
1734272.0,74.0,126.0,18.0,88.0,1734.272
1734282.0,73.0,124.0,16.0,92.0,1734.282
1734292.0,75.0,123.0,16.0,88.0,1734.292
1734302.0,73.0,121.0,14.0,94.0,1734.302
1734312.0,72.0,117.0,12.0,92.0,1734.312
1734322.0,72.0,113.0,11.0,89.0,1734.322
1734332.0,69.0,110.0,11.0,88.0,1734.332
1734342.0,68.0,106.0,16.0,84.0,1734.342
1734352.0,69.0,106.0,17.0,79.0,1734.352
1734362.0,66.0,104.0,16.0,93.0,1734.362
1734372.0,65.0,101.0,24.0,96.0,1734.372
1734382.0,65.0,101.0,22.0,93.0,1734.382
1734392.0,65.0,100.0,20.0,88.0,1734.392
1734402.0,64.0,99.0,18.0,87.0,1734.402
1734412.0,63.0,98.0,17.0,102.0,1734.412
1734422.0,64.0,96.0,15.0,107.0,1734.422
1734432.0,63.0,94.0,15.0,97.0,1734.432
1734443.0,62.0,94.0,17.0,87.0,1734.443
1734453.0,62.0,92.0,16.0,84.0,1734.453
1734463.0,62.0,91.0,14.0,84.0,1734.463
1734473.0,61.0,89.0,11.0,84.0,1734.473
1734483.0,60.0,87.0,13.0,84.0,1734.483
1734493.0,61.0,86.0,12.0,79.0,1734.493
1734503.0,61.0,85.0,12.0,87.0,1734.503
1734513.0,63.0,81.0,16.0,95.0,1734.513
1734523.0,62.0,79.0,18.0,99.0,1734.523
1734533.0,63.0,77.0,18.0,93.0,1734.533
1734543.0,65.0,77.0,16.0,87.0,1734.543
1734553.0,67.0,76.0,14.0,79.0,1734.553
1734563.0,66.0,74.0,14.0,74.0,1734.563
1734573.0,67.0,71.0,12.0,72.0,1734.573
1734583.0,66.0,69.0,12.0,78.0,1734.583
1734593.0,66.0,68.0,10.0,75.0,1734.593
1734603.0,66.0,66.0,10.0,76.0,1734.603
1734614.0,65.0,64.0,10.0,81.0,1734.614
1734624.0,65.0,64.0,11.0,83.0,1734.624
1734634.0,65.0,61.0,10.0,78.0,1734.634
1734644.0,65.0,63.0,10.0,98.0,1734.644
1734654.0,66.0,61.0,10.0,95.0,1734.654
1734664.0,66.0,59.0,8.0,89.0,1734.664
1734674.0,68.0,60.0,14.0,99.0,1734.674
1734684.0,68.0,59.0,13.0,93.0,1734.684
1734694.0,68.0,59.0,11.0,89.0,1734.694
1734704.0,69.0,57.0,12.0,83.0,1734.704
1734714.0,69.0,57.0,11.0,79.0,1734.714
1734724.0,67.0,56.0,15.0,98.0,1734.724
1734734.0,68.0,56.0,13.0,105.0,1734.734
1734744.0,68.0,54.0,12.0,106.0,1734.744
1734754.0,68.0,51.0,12.0,99.0,1734.754
1734764.0,69.0,50.0,10.0,105.0,1734.764
1734774.0,70.0,47.0,11.0,110.0,1734.774
1734784.0,68.0,46.0,13.0,109.0,1734.784
1734794.0,69.0,47.0,13.0,125.0,1734.794
1734804.0,71.0,46.0,13.0,115.0,1734.804
1734814.0,68.0,45.0,10.0,105.0,1734.814
1734824.0,68.0,44.0,10.0,111.0,1734.824
1734834.0,68.0,44.0,10.0,118.0,1734.834
1734844.0,67.0,43.0,9.0,112.0,1734.844
1734854.0,66.0,40.0,9.0,108.0,1734.854
1734864.0,66.0,39.0,8.0,103.0,1734.864
1734874.0,67.0,40.0,9.0,105.0,1734.874
1734884.0,64.0,40.0,8.0,112.0,1734.884
1734894.0,62.0,39.0,7.0,109.0,1734.894
1734904.0,63.0,37.0,6.0,104.0,1734.904
1734914.0,62.0,39.0,6.0,104.0,1734.914
1734924.0,61.0,40.0,13.0,96.0,1734.924
1734934.0,61.0,40.0,11.0,117.0,1734.934
1734944.0,61.0,40.0,11.0,117.0,1734.944
1734955.0,61.0,39.0,10.0,108.0,1734.955
1734965.0,60.0,38.0,10.0,101.0,1734.965
1734975.0,60.0,37.0,10.0,97.0,1734.975
1734985.0,59.0,39.0,10.0,101.0,1734.985
1734995.0,59.0,39.0,12.0,96.0,1734.995
1735005.0,59.0,39.0,10.0,94.0,1735.005
1735015.0,59.0,41.0,11.0,90.0,1735.015
1735025.0,59.0,40.0,11.0,88.0,1735.025
1735035.0,59.0,43.0,18.0,93.0,1735.035
1735045.0,60.0,43.0,17.0,91.0,1735.045
1735055.0,59.0,44.0,16.0,87.0,1735.055
1735065.0,59.0,45.0,14.0,86.0,1735.065
1735075.0,59.0,45.0,13.0,85.0,1735.075
1735085.0,59.0,48.0,13.0,87.0,1735.085
1735095.0,59.0,49.0,12.0,90.0,1735.095
1735105.0,59.0,49.0,16.0,85.0,1735.105
1735115.0,60.0,48.0,16.0,83.0,1735.115
1735126.0,61.0,51.0,14.0,83.0,1735.126
1735136.0,60.0,51.0,13.0,80.0,1735.136
1735146.0,61.0,53.0,12.0,90.0,1735.146
1735156.0,60.0,52.0,13.0,86.0,1735.156
1735166.0,61.0,53.0,19.0,86.0,1735.166
1735176.0,60.0,52.0,18.0,86.0,1735.176
1735186.0,60.0,52.0,20.0,85.0,1735.186
1735196.0,57.0,52.0,17.0,81.0,1735.196
1735206.0,56.0,52.0,15.0,75.0,1735.206
1735216.0,56.0,52.0,13.0,76.0,1735.216
1735226.0,56.0,53.0,13.0,78.0,1735.226
1735236.0,57.0,52.0,24.0,73.0,1735.236
1735246.0,56.0,52.0,21.0,70.0,1735.246
1735256.0,55.0,52.0,18.0,70.0,1735.256
1735266.0,56.0,51.0,17.0,77.0,1735.266
1735276.0,55.0,54.0,15.0,79.0,1735.276
1735286.0,55.0,53.0,13.0,77.0,1735.286
1735296.0,55.0,55.0,15.0,74.0,1735.296
1735306.0,55.0,56.0,24.0,73.0,1735.306
1735316.0,56.0,55.0,25.0,67.0,1735.316
1735326.0,58.0,55.0,20.0,63.0,1735.326
1735336.0,59.0,56.0,20.0,69.0,1735.336
1735346.0,58.0,57.0,16.0,73.0,1735.346
1735356.0,58.0,58.0,16.0,78.0,1735.356
1735366.0,57.0,60.0,14.0,86.0,1735.366
1735376.0,57.0,61.0,14.0,86.0,1735.376
1735386.0,57.0,61.0,14.0,86.0,1735.386
1735396.0,55.0,61.0,15.0,84.0,1735.396
1735406.0,54.0,61.0,16.0,91.0,1735.406
1735416.0,53.0,61.0,17.0,91.0,1735.416
1735426.0,52.0,62.0,23.0,87.0,1735.426
1735436.0,51.0,61.0,21.0,86.0,1735.436
1735446.0,49.0,63.0,19.0,83.0,1735.446
1735456.0,49.0,63.0,17.0,80.0,1735.456
1735467.0,49.0,63.0,15.0,77.0,1735.467
1735477.0,47.0,65.0,15.0,93.0,1735.477
1735487.0,48.0,64.0,16.0,97.0,1735.487
1735497.0,47.0,67.0,15.0,93.0,1735.497
1735507.0,46.0,66.0,16.0,92.0,1735.507
1735517.0,47.0,66.0,14.0,91.0,1735.517
1735527.0,45.0,68.0,13.0,84.0,1735.527
1735537.0,46.0,67.0,14.0,90.0,1735.537
1735547.0,45.0,67.0,13.0,90.0,1735.547
1735557.0,47.0,67.0,15.0,103.0,1735.557
1735567.0,46.0,70.0,13.0,96.0,1735.567
1735577.0,46.0,72.0,19.0,92.0,1735.577
1735587.0,45.0,70.0,18.0,94.0,1735.587
1735597.0,45.0,71.0,17.0,99.0,1735.597
1735607.0,46.0,70.0,15.0,94.0,1735.607
1735617.0,46.0,72.0,14.0,93.0,1735.617
1735627.0,47.0,72.0,14.0,90.0,1735.627
1735638.0,46.0,73.0,13.0,87.0,1735.638
1735648.0,45.0,73.0,15.0,87.0,1735.648
1735658.0,46.0,72.0,14.0,95.0,1735.658
1735668.0,46.0,71.0,14.0,91.0,1735.668
1735678.0,48.0,70.0,13.0,86.0,1735.678
1735688.0,46.0,70.0,12.0,87.0,1735.688
1735698.0,46.0,70.0,15.0,84.0,1735.698
1735708.0,47.0,69.0,20.0,96.0,1735.708
1735718.0,49.0,67.0,19.0,92.0,1735.718
1735728.0,47.0,67.0,17.0,89.0,1735.728
1735738.0,48.0,68.0,16.0,88.0,1735.738
1735748.0,47.0,68.0,19.0,88.0,1735.748
1735758.0,47.0,69.0,18.0,88.0,1735.758
1735768.0,46.0,69.0,17.0,89.0,1735.768
1735778.0,46.0,71.0,16.0,86.0,1735.778
1735788.0,46.0,72.0,17.0,94.0,1735.788
1735798.0,46.0,72.0,16.0,92.0,1735.798
1735808.0,45.0,74.0,15.0,92.0,1735.808
1735818.0,46.0,72.0,14.0,94.0,1735.818
1735828.0,46.0,72.0,13.0,89.0,1735.828
1735838.0,44.0,72.0,12.0,84.0,1735.838
1735848.0,45.0,73.0,20.0,81.0,1735.848
1735858.0,45.0,73.0,19.0,91.0,1735.858
1735868.0,44.0,71.0,18.0,96.0,1735.868
1735878.0,44.0,73.0,16.0,94.0,1735.878
1735888.0,43.0,72.0,16.0,94.0,1735.888
1735898.0,43.0,71.0,13.0,91.0,1735.898
1735908.0,44.0,74.0,12.0,92.0,1735.908
1735918.0,44.0,75.0,13.0,93.0,1735.918
1735928.0,43.0,76.0,11.0,94.0,1735.928
1735938.0,43.0,76.0,11.0,92.0,1735.938
1735948.0,44.0,76.0,10.0,86.0,1735.948
1735958.0,43.0,76.0,9.0,86.0,1735.958
1735968.0,45.0,77.0,9.0,86.0,1735.968
1735979.0,44.0,79.0,8.0,83.0,1735.979
1735989.0,44.0,78.0,10.0,79.0,1735.989
1735999.0,44.0,79.0,8.0,76.0,1735.999
1736009.0,45.0,80.0,11.0,78.0,1736.009
1736019.0,45.0,80.0,11.0,80.0,1736.019
1736029.0,44.0,80.0,9.0,84.0,1736.029
1736039.0,45.0,78.0,9.0,86.0,1736.039
1736049.0,44.0,80.0,10.0,98.0,1736.049
1736059.0,44.0,80.0,8.0,106.0,1736.059
1736069.0,45.0,80.0,13.0,113.0,1736.069
1736079.0,44.0,80.0,11.0,110.0,1736.079
1736089.0,44.0,80.0,20.0,110.0,1736.089
1736099.0,44.0,79.0,19.0,115.0,1736.099
1736109.0,44.0,78.0,18.0,107.0,1736.109
1736119.0,45.0,77.0,15.0,99.0,1736.119
1736129.0,46.0,78.0,14.0,103.0,1736.129
1736139.0,45.0,76.0,12.0,105.0,1736.139
1736150.0,45.0,76.0,11.0,107.0,1736.15
1736160.0,44.0,74.0,12.0,102.0,1736.16
1736170.0,44.0,72.0,12.0,103.0,1736.17
1736180.0,45.0,71.0,19.0,103.0,1736.18
1736190.0,46.0,71.0,17.0,103.0,1736.19
1736200.0,46.0,73.0,16.0,120.0,1736.2
1736210.0,46.0,71.0,14.0,115.0,1736.21
1736220.0,46.0,73.0,14.0,109.0,1736.22
1736230.0,46.0,72.0,12.0,112.0,1736.23
1736240.0,47.0,73.0,13.0,110.0,1736.24
1736250.0,47.0,73.0,12.0,111.0,1736.25
1736260.0,49.0,74.0,12.0,107.0,1736.26
1736270.0,47.0,73.0,12.0,100.0,1736.27
1736280.0,48.0,74.0,14.0,94.0,1736.28
1736290.0,48.0,75.0,13.0,93.0,1736.29
1736300.0,48.0,76.0,13.0,94.0,1736.3
1736310.0,48.0,76.0,11.0,93.0,1736.31
1736320.0,47.0,78.0,10.0,86.0,1736.32
1736330.0,47.0,79.0,9.0,83.0,1736.33
1736340.0,46.0,80.0,14.0,90.0,1736.34
1736350.0,46.0,81.0,19.0,97.0,1736.35
1736360.0,47.0,80.0,29.0,99.0,1736.36
1736370.0,46.0,80.0,26.0,100.0,1736.37
