time (ms),signal 0,signal 1,signal 2,signal3,time (sec)
1756420.0,667.0,43.0,23.0,105.0,1756.42
1756430.0,670.0,44.0,22.0,102.0,1756.43
1756440.0,668.0,43.0,21.0,105.0,1756.44
1756450.0,668.0,42.0,23.0,104.0,1756.45
1756460.0,668.0,43.0,29.0,98.0,1756.46
1756470.0,669.0,43.0,28.0,101.0,1756.47
1756480.0,668.0,42.0,30.0,98.0,1756.48
1756490.0,667.0,43.0,27.0,93.0,1756.49
1756500.0,668.0,42.0,24.0,97.0,1756.5
1756510.0,668.0,42.0,21.0,97.0,1756.51
1756520.0,668.0,42.0,25.0,108.0,1756.52
1756530.0,668.0,42.0,31.0,107.0,1756.53
1756540.0,668.0,44.0,34.0,102.0,1756.54
1756550.0,668.0,42.0,40.0,99.0,1756.55
1756560.0,668.0,41.0,36.0,101.0,1756.56
1756570.0,667.0,41.0,31.0,96.0,1756.57
1756580.0,668.0,41.0,27.0,90.0,1756.58
1756590.0,668.0,40.0,25.0,95.0,1756.59
1756600.0,669.0,43.0,36.0,105.0,1756.6
1756610.0,668.0,44.0,39.0,111.0,1756.61
1756620.0,668.0,45.0,37.0,118.0,1756.62
1756630.0,668.0,46.0,35.0,116.0,1756.63
1756640.0,667.0,43.0,32.0,118.0,1756.64
1756650.0,666.0,44.0,27.0,117.0,1756.65
1756660.0,667.0,44.0,26.0,119.0,1756.66
1756670.0,666.0,43.0,21.0,112.0,1756.67
1756680.0,666.0,44.0,33.0,105.0,1756.68
1756690.0,668.0,45.0,34.0,109.0,1756.69
1756700.0,667.0,43.0,30.0,117.0,1756.7
1756710.0,668.0,42.0,31.0,114.0,1756.71
1756720.0,667.0,41.0,26.0,117.0,1756.72
1756730.0,665.0,42.0,25.0,115.0,1756.73
1756740.0,656.0,41.0,23.0,118.0,1756.74
1756750.0,649.0,45.0,28.0,138.0,1756.75
1756760.0,642.0,46.0,27.0,143.0,1756.76
1756770.0,633.0,45.0,25.0,136.0,1756.77
1756780.0,625.0,47.0,33.0,126.0,1756.78
1756790.0,619.0,48.0,32.0,122.0,1756.79
1756800.0,612.0,48.0,28.0,122.0,1756.8
1756810.0,604.0,48.0,33.0,112.0,1756.81
1756820.0,597.0,48.0,29.0,109.0,1756.82
1756830.0,589.0,48.0,27.0,107.0,1756.83
1756840.0,584.0,47.0,24.0,116.0,1756.84
1756850.0,579.0,46.0,21.0,122.0,1756.85
1756860.0,571.0,47.0,26.0,123.0,1756.86
1756870.0,565.0,49.0,31.0,118.0,1756.87
1756880.0,561.0,45.0,28.0,111.0,1756.88
1756890.0,556.0,47.0,34.0,110.0,1756.89
1756900.0,550.0,45.0,29.0,107.0,1756.9
1756910.0,547.0,43.0,30.0,109.0,1756.91
1756920.0,540.0,43.0,26.0,105.0,1756.92
1756930.0,535.0,43.0,25.0,98.0,1756.93
1756940.0,529.0,43.0,30.0,94.0,1756.94
1756950.0,524.0,44.0,29.0,96.0,1756.95
1756960.0,518.0,42.0,27.0,94.0,1756.96
1756971.0,512.0,45.0,31.0,90.0,1756.971
1756981.0,506.0,45.0,30.0,97.0,1756.981
1756991.0,500.0,46.0,26.0,93.0,1756.991
1757001.0,495.0,46.0,30.0,106.0,1757.001
1757011.0,488.0,46.0,27.0,104.0,1757.011
1757021.0,485.0,47.0,26.0,103.0,1757.021
1757031.0,479.0,46.0,24.0,94.0,1757.031
1757041.0,471.0,49.0,31.0,87.0,1757.041
1757051.0,467.0,47.0,28.0,110.0,1757.051
1757061.0,459.0,48.0,26.0,106.0,1757.061
1757071.0,453.0,49.0,25.0,105.0,1757.071
1757081.0,449.0,47.0,23.0,105.0,1757.081
1757091.0,444.0,47.0,20.0,101.0,1757.091
1757101.0,440.0,46.0,18.0,95.0,1757.101
1757111.0,437.0,45.0,23.0,107.0,1757.111
1757121.0,433.0,47.0,22.0,106.0,1757.121
1757131.0,431.0,45.0,21.0,105.0,1757.131
1757142.0,425.0,45.0,27.0,115.0,1757.142
1757152.0,422.0,44.0,24.0,113.0,1757.152
1757162.0,420.0,44.0,22.0,116.0,1757.162
1757172.0,417.0,45.0,30.0,109.0,1757.172
1757182.0,413.0,45.0,28.0,100.0,1757.182
1757192.0,409.0,44.0,27.0,102.0,1757.192
1757202.0,406.0,42.0,25.0,96.0,1757.202
1757212.0,401.0,42.0,22.0,107.0,1757.212
1757222.0,397.0,41.0,20.0,108.0,1757.222
1757232.0,392.0,40.0,23.0,110.0,1757.232
1757242.0,389.0,41.0,21.0,105.0,1757.242
1757252.0,384.0,40.0,18.0,96.0,1757.252
1757262.0,380.0,42.0,21.0,100.0,1757.262
1757272.0,378.0,42.0,29.0,114.0,1757.272
1757282.0,375.0,42.0,26.0,115.0,1757.282
1757292.0,370.0,44.0,30.0,111.0,1757.292
1757302.0,367.0,43.0,28.0,118.0,1757.302
1757312.0,363.0,43.0,24.0,116.0,1757.312
1757322.0,359.0,44.0,27.0,110.0,1757.322
1757332.0,355.0,47.0,33.0,116.0,1757.332
1757342.0,351.0,45.0,34.0,113.0,1757.342
1757352.0,347.0,45.0,32.0,112.0,1757.352
1757362.0,342.0,46.0,29.0,107.0,1757.362
1757372.0,340.0,45.0,27.0,113.0,1757.372
1757382.0,338.0,48.0,38.0,109.0,1757.382
1757392.0,336.0,46.0,37.0,110.0,1757.392
1757402.0,334.0,46.0,36.0,103.0,1757.402
1757412.0,330.0,47.0,35.0,94.0,1757.412
1757422.0,328.0,46.0,31.0,90.0,1757.422
1757432.0,323.0,49.0,28.0,94.0,1757.432
1757442.0,322.0,49.0,24.0,94.0,1757.442
1757452.0,317.0,50.0,38.0,97.0,1757.452
1757462.0,315.0,51.0,45.0,96.0,1757.462
1757472.0,314.0,50.0,40.0,112.0,1757.472
1757483.0,313.0,50.0,37.0,112.0,1757.483
1757493.0,311.0,50.0,37.0,105.0,1757.493
1757503.0,308.0,50.0,32.0,102.0,1757.503
1757513.0,304.0,51.0,29.0,93.0,1757.513
1757523.0,300.0,53.0,28.0,85.0,1757.523
1757533.0,298.0,54.0,26.0,78.0,1757.533
1757543.0,294.0,54.0,30.0,76.0,1757.543
1757553.0,292.0,54.0,28.0,86.0,1757.553
1757563.0,290.0,55.0,26.0,90.0,1757.563
1757573.0,288.0,54.0,29.0,90.0,1757.573
1757583.0,286.0,54.0,26.0,92.0,1757.583
1757593.0,283.0,53.0,25.0,88.0,1757.593
1757603.0,281.0,55.0,30.0,82.0,1757.603
1757613.0,280.0,53.0,33.0,82.0,1757.613
1757623.0,279.0,51.0,31.0,99.0,1757.623
1757633.0,276.0,52.0,30.0,96.0,1757.633
1757643.0,276.0,50.0,28.0,96.0,1757.643
1757654.0,274.0,48.0,24.0,96.0,1757.654
1757664.0,271.0,49.0,30.0,97.0,1757.664
1757674.0,268.0,50.0,32.0,97.0,1757.674
1757684.0,266.0,50.0,31.0,99.0,1757.684
1757694.0,265.0,50.0,33.0,103.0,1757.694
1757704.0,264.0,49.0,29.0,97.0,1757.704
1757714.0,265.0,48.0,29.0,102.0,1757.714
1757724.0,259.0,49.0,29.0,103.0,1757.724
1757734.0,256.0,47.0,28.0,97.0,1757.734
1757744.0,253.0,47.0,26.0,96.0,1757.744
1757754.0,251.0,49.0,24.0,96.0,1757.754
1757764.0,247.0,50.0,28.0,109.0,1757.764
1757774.0,245.0,49.0,25.0,112.0,1757.774
1757784.0,244.0,50.0,26.0,113.0,1757.784
1757794.0,240.0,50.0,25.0,114.0,1757.794
1757804.0,237.0,51.0,33.0,114.0,1757.804
1757814.0,235.0,51.0,33.0,113.0,1757.814
1757824.0,232.0,52.0,31.0,116.0,1757.824
1757834.0,230.0,50.0,27.0,121.0,1757.834
1757844.0,228.0,50.0,24.0,118.0,1757.844
1757854.0,225.0,51.0,25.0,120.0,1757.854
1757864.0,225.0,51.0,30.0,116.0,1757.864
1757874.0,224.0,51.0,32.0,110.0,1757.874
1757884.0,225.0,50.0,36.0,105.0,1757.884
1757894.0,221.0,50.0,35.0,110.0,1757.894
1757904.0,219.0,51.0,34.0,101.0,1757.904
1757914.0,216.0,52.0,30.0,96.0,1757.914
1757924.0,212.0,53.0,36.0,91.0,1757.924
1757934.0,211.0,53.0,35.0,101.0,1757.934
1757944.0,208.0,52.0,41.0,97.0,1757.944
1757954.0,207.0,53.0,39.0,100.0,1757.954
1757964.0,204.0,52.0,35.0,96.0,1757.964
1757974.0,201.0,53.0,31.0,96.0,1757.974
1757984.0,200.0,54.0,31.0,95.0,1757.984
1757995.0,199.0,52.0,29.0,104.0,1757.995
1758005.0,199.0,52.0,36.0,100.0,1758.005
1758015.0,198.0,50.0,32.0,94.0,1758.015
1758025.0,196.0,51.0,28.0,93.0,1758.025
1758035.0,195.0,51.0,24.0,93.0,1758.035
1758045.0,193.0,51.0,30.0,98.0,1758.045
1758055.0,193.0,48.0,34.0,98.0,1758.055
1758065.0,191.0,53.0,41.0,96.0,1758.065
1758075.0,191.0,50.0,37.0,98.0,1758.075
1758085.0,191.0,48.0,32.0,108.0,1758.085
1758095.0,188.0,49.0,29.0,106.0,1758.095
1758105.0,186.0,48.0,26.0,109.0,1758.105
1758115.0,185.0,49.0,22.0,106.0,1758.115
1758125.0,183.0,48.0,19.0,100.0,1758.125
1758135.0,181.0,51.0,26.0,93.0,1758.135
1758145.0,179.0,49.0,26.0,108.0,1758.145
1758155.0,180.0,48.0,24.0,108.0,1758.155
1758166.0,178.0,48.0,22.0,104.0,1758.166
1758176.0,179.0,47.0,21.0,95.0,1758.176
1758186.0,177.0,48.0,23.0,100.0,1758.186
1758196.0,176.0,51.0,32.0,97.0,1758.196
1758206.0,175.0,51.0,33.0,99.0,1758.206
1758216.0,173.0,49.0,29.0,106.0,1758.216
1758226.0,172.0,50.0,27.0,104.0,1758.226
1758236.0,172.0,49.0,26.0,101.0,1758.236
1758246.0,172.0,50.0,30.0,94.0,1758.246
1758256.0,171.0,49.0,31.0,97.0,1758.256
1758266.0,170.0,51.0,34.0,107.0,1758.266
1758276.0,170.0,50.0,31.0,111.0,1758.276
1758286.0,169.0,49.0,33.0,106.0,1758.286
1758296.0,168.0,51.0,33.0,105.0,1758.296
1758306.0,167.0,50.0,29.0,100.0,1758.306
1758316.0,164.0,51.0,30.0,100.0,1758.316
1758326.0,164.0,50.0,30.0,107.0,1758.326
1758336.0,162.0,50.0,26.0,111.0,1758.336
1758346.0,161.0,50.0,32.0,108.0,1758.346
1758356.0,160.0,51.0,27.0,102.0,1758.356
1758366.0,160.0,49.0,25.0,98.0,1758.366
1758376.0,159.0,49.0,25.0,122.0,1758.376
1758386.0,157.0,49.0,29.0,118.0,1758.386
1758396.0,158.0,47.0,27.0,118.0,1758.396
1758406.0,154.0,49.0,26.0,112.0,1758.406
1758416.0,154.0,47.0,28.0,108.0,1758.416
1758426.0,152.0,46.0,26.0,110.0,1758.426
1758436.0,151.0,47.0,31.0,113.0,1758.436
1758446.0,152.0,49.0,33.0,107.0,1758.446
1758456.0,151.0,48.0,28.0,106.0,1758.456
1758466.0,152.0,47.0,32.0,100.0,1758.466
1758476.0,152.0,47.0,28.0,111.0,1758.476
1758486.0,153.0,46.0,28.0,110.0,1758.486
1758496.0,152.0,46.0,29.0,111.0,1758.496
1758507.0,153.0,46.0,26.0,112.0,1758.507
1758517.0,153.0,44.0,23.0,104.0,1758.517
1758527.0,151.0,43.0,20.0,94.0,1758.527
1758537.0,151.0,44.0,18.0,87.0,1758.537
1758547.0,152.0,44.0,16.0,82.0,1758.547
1758557.0,151.0,44.0,16.0,92.0,1758.557
1758567.0,148.0,46.0,56.0,90.0,1758.567
1758577.0,150.0,46.0,53.0,96.0,1758.577
1758587.0,152.0,45.0,48.0,91.0,1758.587
1758597.0,151.0,43.0,42.0,96.0,1758.597
1758607.0,150.0,43.0,39.0,98.0,1758.607
1758617.0,149.0,43.0,35.0,101.0,1758.617
1758627.0,148.0,46.0,31.0,105.0,1758.627
1758637.0,147.0,48.0,34.0,100.0,1758.637
1758647.0,148.0,48.0,31.0,107.0,1758.647
1758657.0,145.0,48.0,31.0,112.0,1758.657
1758667.0,145.0,47.0,31.0,120.0,1758.667
1758678.0,143.0,48.0,32.0,121.0,1758.678
1758688.0,141.0,47.0,30.0,117.0,1758.688
1758698.0,142.0,47.0,28.0,108.0,1758.698
1758708.0,139.0,48.0,28.0,110.0,1758.708
1758718.0,141.0,47.0,25.0,120.0,1758.718
1758728.0,139.0,48.0,23.0,117.0,1758.728
1758738.0,139.0,46.0,21.0,118.0,1758.738
1758748.0,136.0,45.0,22.0,112.0,1758.748
1758758.0,134.0,45.0,28.0,111.0,1758.758
1758768.0,135.0,45.0,38.0,123.0,1758.768
1758778.0,135.0,44.0,35.0,113.0,1758.778
1758788.0,135.0,42.0,31.0,107.0,1758.788
1758798.0,135.0,42.0,27.0,106.0,1758.798
1758808.0,136.0,42.0,25.0,101.0,1758.808
1758818.0,134.0,41.0,23.0,95.0,1758.818
1758828.0,135.0,42.0,22.0,124.0,1758.828
1758838.0,136.0,41.0,20.0,116.0,1758.838
1758848.0,135.0,42.0,22.0,115.0,1758.848
1758858.0,134.0,42.0,30.0,110.0,1758.858
1758868.0,135.0,45.0,37.0,110.0,1758.868
1758878.0,137.0,43.0,33.0,113.0,1758.878
1758888.0,136.0,43.0,33.0,115.0,1758.888
1758898.0,135.0,42.0,31.0,107.0,1758.898
1758908.0,135.0,41.0,26.0,102.0,1758.908
1758918.0,130.0,46.0,51.0,106.0,1758.918
1758928.0,131.0,45.0,53.0,100.0,1758.928
1758938.0,130.0,43.0,47.0,100.0,1758.938
1758948.0,129.0,45.0,43.0,102.0,1758.948
1758958.0,129.0,43.0,46.0,113.0,1758.958
1758968.0,128.0,42.0,41.0,112.0,1758.968
1758978.0,127.0,43.0,37.0,109.0,1758.978
1758988.0,128.0,41.0,33.0,111.0,1758.988
1758998.0,126.0,44.0,35.0,125.0,1758.998
1759008.0,125.0,44.0,42.0,130.0,1759.008
1759019.0,125.0,44.0,39.0,121.0,1759.019
1759029.0,123.0,42.0,36.0,127.0,1759.029
1759039.0,121.0,42.0,31.0,129.0,1759.039
1759049.0,119.0,44.0,26.0,124.0,1759.049
1759059.0,118.0,47.0,31.0,123.0,1759.059
1759069.0,118.0,45.0,30.0,119.0,1759.069
1759079.0,117.0,44.0,33.0,120.0,1759.079
1759089.0,116.0,44.0,29.0,112.0,1759.089
1759099.0,116.0,41.0,28.0,108.0,1759.099
1759109.0,114.0,42.0,24.0,110.0,1759.109
1759119.0,115.0,42.0,22.0,110.0,1759.119
1759129.0,114.0,43.0,25.0,107.0,1759.129
1759139.0,114.0,42.0,24.0,105.0,1759.139
1759149.0,114.0,40.0,23.0,101.0,1759.149
1759159.0,113.0,40.0,23.0,96.0,1759.159
1759169.0,111.0,41.0,34.0,93.0,1759.169
1759179.0,113.0,40.0,37.0,98.0,1759.179
1759190.0,112.0,40.0,36.0,97.0,1759.19
1759200.0,113.0,41.0,37.0,92.0,1759.2
1759210.0,112.0,42.0,32.0,88.0,1759.21
1759220.0,112.0,40.0,29.0,82.0,1759.22
1759230.0,112.0,39.0,25.0,91.0,1759.23
1759240.0,111.0,39.0,23.0,91.0,1759.24
1759250.0,112.0,41.0,41.0,93.0,1759.25
1759260.0,112.0,43.0,42.0,98.0,1759.26
1759270.0,111.0,44.0,41.0,104.0,1759.27
1759280.0,112.0,46.0,43.0,99.0,1759.28
1759290.0,114.0,45.0,39.0,99.0,1759.29
1759300.0,115.0,43.0,34.0,99.0,1759.3
1759310.0,114.0,42.0,33.0,98.0,1759.31
1759320.0,114.0,43.0,39.0,101.0,1759.32
1759330.0,115.0,44.0,41.0,101.0,1759.33
1759340.0,114.0,44.0,36.0,101.0,1759.34
1759350.0,116.0,42.0,33.0,104.0,1759.35
1759360.0,114.0,42.0,29.0,104.0,1759.36
1759370.0,114.0,41.0,31.0,100.0,1759.37
1759380.0,112.0,45.0,44.0,95.0,1759.38
1759390.0,113.0,43.0,43.0,89.0,1759.39
1759400.0,116.0,43.0,40.0,89.0,1759.4
1759410.0,112.0,43.0,36.0,85.0,1759.41
1759420.0,112.0,44.0,34.0,102.0,1759.42
1759430.0,110.0,45.0,36.0,100.0,1759.43
1759440.0,110.0,44.0,36.0,95.0,1759.44
1759450.0,108.0,44.0,37.0,89.0,1759.45
1759460.0,106.0,45.0,37.0,84.0,1759.46
1759470.0,104.0,47.0,39.0,83.0,1759.47
1759480.0,96.0,58.0,44.0,90.0,1759.48
1759490.0,91.0,77.0,45.0,103.0,1759.49
1759500.0,96.0,82.0,58.0,105.0,1759.5
1759510.0,106.0,88.0,51.0,106.0,1759.51
1759520.0,103.0,90.0,67.0,110.0,1759.52
1759531.0,116.0,107.0,69.0,116.0,1759.531
1759541.0,112.0,115.0,83.0,131.0,1759.541
1759551.0,114.0,133.0,96.0,168.0,1759.551
1759561.0,128.0,147.0,112.0,190.0,1759.561
1759571.0,141.0,154.0,112.0,198.0,1759.571
1759581.0,147.0,176.0,139.0,200.0,1759.581
1759591.0,163.0,182.0,178.0,207.0,1759.591
1759601.0,166.0,176.0,176.0,195.0,1759.601
1759611.0,165.0,194.0,206.0,230.0,1759.611
1759621.0,157.0,203.0,218.0,231.0,1759.621
1759631.0,153.0,210.0,227.0,239.0,1759.631
1759641.0,146.0,236.0,241.0,242.0,1759.641
1759651.0,146.0,252.0,244.0,254.0,1759.651
1759661.0,145.0,280.0,231.0,239.0,1759.661
1759671.0,140.0,293.0,247.0,245.0,1759.671
1759681.0,140.0,303.0,339.0,273.0,1759.681
1759691.0,138.0,339.0,363.0,266.0,1759.691
1759702.0,145.0,376.0,415.0,279.0,1759.702
1759712.0,143.0,386.0,398.0,275.0,1759.712
1759722.0,141.0,406.0,381.0,293.0,1759.722
1759732.0,138.0,437.0,412.0,307.0,1759.732
1759742.0,137.0,482.0,420.0,292.0,1759.742
1759752.0,133.0,492.0,396.0,290.0,1759.752
1759762.0,125.0,521.0,352.0,279.0,1759.762
1759772.0,126.0,543.0,392.0,263.0,1759.772
1759782.0,116.0,570.0,372.0,287.0,1759.782
1759792.0,109.0,594.0,339.0,269.0,1759.792
1759802.0,106.0,607.0,378.0,260.0,1759.802
1759812.0,106.0,624.0,381.0,236.0,1759.812
1759822.0,102.0,642.0,369.0,234.0,1759.822
1759832.0,104.0,645.0,427.0,285.0,1759.832
1759842.0,101.0,645.0,395.0,283.0,1759.842
1759852.0,101.0,652.0,402.0,294.0,1759.852
1759862.0,99.0,648.0,417.0,300.0,1759.862
1759872.0,95.0,647.0,395.0,285.0,1759.872
1759882.0,95.0,642.0,410.0,280.0,1759.882
1759892.0,93.0,644.0,402.0,258.0,1759.892
1759902.0,91.0,632.0,395.0,252.0,1759.902
1759912.0,87.0,622.0,363.0,256.0,1759.912
1759922.0,83.0,617.0,353.0,247.0,1759.922
1759932.0,81.0,607.0,331.0,227.0,1759.932
1759942.0,84.0,601.0,341.0,217.0,1759.942
1759952.0,83.0,590.0,312.0,234.0,1759.952
1759962.0,85.0,588.0,314.0,249.0,1759.962
1759972.0,82.0,576.0,285.0,249.0,1759.972
1759982.0,80.0,566.0,288.0,237.0,1759.982
1759992.0,79.0,559.0,272.0,222.0,1759.992
1760002.0,77.0,549.0,270.0,208.0,1760.002
1760012.0,81.0,538.0,318.0,199.0,1760.012
1760022.0,77.0,524.0,306.0,204.0,1760.022
1760032.0,75.0,513.0,277.0,211.0,1760.032
1760043.0,74.0,509.0,275.0,200.0,1760.043
1760053.0,74.0,494.0,253.0,194.0,1760.053
1760063.0,73.0,482.0,251.0,188.0,1760.063
1760073.0,79.0,470.0,298.0,215.0,1760.073
1760083.0,80.0,466.0,301.0,202.0,1760.083
1760093.0,80.0,451.0,296.0,193.0,1760.093
1760103.0,80.0,438.0,268.0,176.0,1760.103
1760113.0,78.0,430.0,234.0,176.0,1760.113
1760123.0,79.0,417.0,249.0,180.0,1760.123
1760133.0,81.0,411.0,249.0,174.0,1760.133
1760143.0,78.0,397.0,230.0,174.0,1760.143
1760153.0,76.0,385.0,223.0,163.0,1760.153
1760163.0,75.0,378.0,205.0,170.0,1760.163
1760173.0,77.0,370.0,222.0,169.0,1760.173
1760183.0,81.0,362.0,252.0,170.0,1760.183
1760193.0,79.0,348.0,243.0,163.0,1760.193
1760203.0,80.0,339.0,222.0,152.0,1760.203
1760214.0,76.0,334.0,204.0,141.0,1760.214
1760224.0,75.0,327.0,209.0,159.0,1760.224
1760234.0,80.0,315.0,201.0,175.0,1760.234
1760244.0,77.0,314.0,204.0,168.0,1760.244
1760254.0,80.0,302.0,213.0,167.0,1760.254
1760264.0,81.0,296.0,209.0,179.0,1760.264
1760274.0,87.0,287.0,191.0,179.0,1760.274
1760284.0,86.0,280.0,174.0,175.0,1760.284
1760294.0,87.0,269.0,188.0,200.0,1760.294
1760304.0,87.0,271.0,183.0,226.0,1760.304
1760314.0,90.0,261.0,182.0,217.0,1760.314
1760324.0,91.0,254.0,193.0,201.0,1760.324
1760334.0,91.0,251.0,189.0,201.0,1760.334
1760344.0,93.0,241.0,194.0,217.0,1760.344
1760354.0,95.0,240.0,186.0,213.0,1760.354
1760364.0,95.0,232.0,193.0,208.0,1760.364
1760374.0,96.0,226.0,190.0,217.0,1760.374
1760384.0,97.0,223.0,191.0,214.0,1760.384
1760394.0,96.0,216.0,185.0,204.0,1760.394
1760404.0,96.0,211.0,181.0,187.0,1760.404
1760414.0,98.0,207.0,185.0,177.0,1760.414
1760424.0,100.0,210.0,165.0,175.0,1760.424
1760434.0,98.0,206.0,166.0,170.0,1760.434
1760444.0,99.0,201.0,173.0,190.0,1760.444
1760454.0,102.0,196.0,167.0,204.0,1760.454
1760464.0,104.0,196.0,163.0,198.0,1760.464
1760474.0,102.0,198.0,188.0,201.0,1760.474
1760484.0,106.0,193.0,175.0,205.0,1760.484
1760494.0,107.0,191.0,163.0,209.0,1760.494
1760504.0,106.0,191.0,163.0,204.0,1760.504
1760514.0,111.0,185.0,165.0,191.0,1760.514
1760524.0,110.0,184.0,164.0,186.0,1760.524
1760534.0,111.0,181.0,159.0,174.0,1760.534
1760544.0,112.0,180.0,163.0,167.0,1760.544
1760555.0,114.0,176.0,165.0,153.0,1760.555
1760565.0,117.0,173.0,161.0,151.0,1760.565
1760575.0,118.0,169.0,146.0,143.0,1760.575
1760585.0,118.0,170.0,170.0,157.0,1760.585
1760595.0,119.0,165.0,162.0,166.0,1760.595
1760605.0,121.0,164.0,190.0,159.0,1760.605
1760615.0,121.0,167.0,226.0,164.0,1760.615
1760625.0,127.0,160.0,254.0,162.0,1760.625
1760635.0,129.0,158.0,233.0,158.0,1760.635
1760645.0,132.0,152.0,227.0,173.0,1760.645
1760655.0,130.0,154.0,209.0,175.0,1760.655
1760665.0,133.0,149.0,194.0,157.0,1760.665
1760675.0,133.0,147.0,193.0,159.0,1760.675
1760685.0,133.0,143.0,182.0,148.0,1760.685
1760695.0,132.0,147.0,169.0,135.0,1760.695
1760705.0,134.0,140.0,160.0,134.0,1760.705
1760715.0,133.0,137.0,143.0,130.0,1760.715
1760726.0,132.0,132.0,133.0,146.0,1760.726
1760736.0,133.0,135.0,123.0,148.0,1760.736
1760746.0,134.0,131.0,119.0,157.0,1760.746
1760756.0,134.0,131.0,122.0,159.0,1760.756
1760766.0,136.0,126.0,116.0,148.0,1760.766
1760776.0,136.0,127.0,106.0,138.0,1760.776
1760786.0,140.0,123.0,104.0,138.0,1760.786
1760796.0,135.0,126.0,99.0,131.0,1760.796
1760806.0,137.0,120.0,103.0,141.0,1760.806
1760816.0,139.0,116.0,105.0,132.0,1760.816
1760826.0,139.0,115.0,105.0,129.0,1760.826
1760836.0,138.0,110.0,99.0,122.0,1760.836
1760846.0,137.0,110.0,100.0,118.0,1760.846
1760856.0,136.0,112.0,100.0,111.0,1760.856
1760866.0,137.0,107.0,92.0,115.0,1760.866
1760876.0,135.0,106.0,116.0,120.0,1760.876
1760886.0,138.0,108.0,123.0,122.0,1760.886
1760896.0,139.0,104.0,118.0,122.0,1760.896
1760906.0,138.0,100.0,107.0,118.0,1760.906
1760916.0,139.0,99.0,105.0,128.0,1760.916
1760926.0,139.0,106.0,133.0,137.0,1760.926
1760936.0,140.0,100.0,127.0,131.0,1760.936
1760946.0,141.0,97.0,120.0,136.0,1760.946
1760956.0,140.0,101.0,127.0,146.0,1760.956
1760966.0,141.0,102.0,134.0,159.0,1760.966
1760976.0,141.0,98.0,143.0,150.0,1760.976
1760986.0,141.0,94.0,138.0,152.0,1760.986
1760996.0,143.0,96.0,127.0,140.0,1760.996
1761006.0,139.0,97.0,128.0,135.0,1761.006
1761016.0,140.0,100.0,132.0,135.0,1761.016
1761026.0,139.0,98.0,134.0,143.0,1761.026
1761036.0,138.0,96.0,136.0,149.0,1761.036
1761046.0,136.0,100.0,121.0,134.0,1761.046
1761056.0,137.0,96.0,138.0,122.0,1761.056
1761067.0,136.0,99.0,130.0,121.0,1761.067
1761077.0,136.0,95.0,132.0,118.0,1761.077
1761087.0,134.0,95.0,132.0,118.0,1761.087
1761097.0,134.0,98.0,130.0,117.0,1761.097
1761107.0,134.0,96.0,119.0,110.0,1761.107
1761117.0,136.0,96.0,120.0,107.0,1761.117
1761127.0,136.0,93.0,126.0,99.0,1761.127
1761137.0,136.0,93.0,156.0,114.0,1761.137
1761147.0,139.0,90.0,144.0,124.0,1761.147
1761157.0,135.0,97.0,179.0,131.0,1761.157
1761167.0,136.0,92.0,176.0,137.0,1761.167
1761177.0,136.0,91.0,177.0,156.0,1761.177
1761187.0,135.0,94.0,165.0,150.0,1761.187
1761197.0,134.0,93.0,195.0,160.0,1761.197
1761207.0,135.0,94.0,205.0,161.0,1761.207
1761217.0,136.0,93.0,188.0,163.0,1761.217
1761227.0,135.0,97.0,233.0,177.0,1761.227
1761238.0,135.0,92.0,258.0,192.0,1761.238
1761248.0,134.0,96.0,250.0,209.0,1761.248
1761258.0,132.0,96.0,231.0,187.0,1761.258
1761268.0,131.0,98.0,218.0,176.0,1761.268
1761278.0,130.0,98.0,202.0,182.0,1761.278
1761288.0,125.0,100.0,201.0,176.0,1761.288
1761298.0,127.0,99.0,206.0,166.0,1761.298
1761308.0,125.0,96.0,181.0,153.0,1761.308
1761318.0,121.0,101.0,167.0,149.0,1761.318
1761328.0,122.0,105.0,238.0,157.0,1761.328
1761338.0,122.0,101.0,230.0,146.0,1761.338
1761348.0,124.0,96.0,212.0,138.0,1761.348
1761358.0,123.0,100.0,202.0,135.0,1761.358
1761368.0,125.0,97.0,188.0,139.0,1761.368
1761378.0,124.0,97.0,178.0,140.0,1761.378
1761388.0,122.0,97.0,166.0,137.0,1761.388
1761398.0,125.0,96.0,152.0,133.0,1761.398
1761408.0,123.0,96.0,160.0,126.0,1761.408
1761418.0,123.0,96.0,165.0,140.0,1761.418
1761428.0,126.0,93.0,164.0,150.0,1761.428
1761438.0,127.0,88.0,147.0,149.0,1761.438
1761448.0,126.0,91.0,144.0,136.0,1761.448
1761458.0,124.0,92.0,146.0,137.0,1761.458
1761468.0,123.0,92.0,147.0,133.0,1761.468
1761478.0,122.0,91.0,142.0,129.0,1761.478
1761488.0,122.0,91.0,137.0,122.0,1761.488
1761498.0,122.0,91.0,158.0,136.0,1761.498
1761508.0,117.0,90.0,141.0,137.0,1761.508
1761518.0,117.0,91.0,130.0,140.0,1761.518
1761528.0,115.0,94.0,138.0,142.0,1761.528
1761538.0,112.0,96.0,154.0,140.0,1761.538
1761548.0,114.0,94.0,153.0,133.0,1761.548
1761558.0,112.0,96.0,143.0,134.0,1761.558
1761568.0,110.0,96.0,158.0,132.0,1761.568
1761579.0,109.0,94.0,171.0,124.0,1761.579
1761589.0,108.0,93.0,162.0,123.0,1761.589
1761599.0,106.0,92.0,151.0,116.0,1761.599
1761609.0,106.0,91.0,141.0,114.0,1761.609
1761619.0,108.0,90.0,144.0,113.0,1761.619
1761629.0,107.0,99.0,145.0,115.0,1761.629
1761639.0,104.0,98.0,127.0,113.0,1761.639
1761649.0,105.0,98.0,121.0,106.0,1761.649
1761659.0,103.0,98.0,136.0,102.0,1761.659
1761669.0,105.0,95.0,135.0,104.0,1761.669
1761679.0,107.0,100.0,147.0,117.0,1761.679
1761689.0,106.0,99.0,142.0,117.0,1761.689
1761699.0,107.0,99.0,131.0,113.0,1761.699
1761709.0,105.0,100.0,125.0,106.0,1761.709
1761719.0,106.0,98.0,119.0,99.0,1761.719
1761729.0,105.0,97.0,117.0,110.0,1761.729
1761739.0,107.0,98.0,125.0,121.0,1761.739
1761750.0,108.0,97.0,123.0,120.0,1761.75
1761760.0,107.0,94.0,116.0,136.0,1761.76
1761770.0,108.0,102.0,111.0,134.0,1761.77
1761780.0,107.0,99.0,109.0,128.0,1761.78
1761790.0,110.0,98.0,107.0,126.0,1761.79
1761800.0,105.0,100.0,114.0,119.0,1761.8
1761810.0,108.0,98.0,106.0,115.0,1761.81
1761820.0,106.0,98.0,119.0,149.0,1761.82
1761830.0,106.0,97.0,108.0,138.0,1761.83
1761840.0,107.0,93.0,110.0,131.0,1761.84
1761850.0,107.0,94.0,103.0,124.0,1761.85
1761860.0,106.0,94.0,128.0,140.0,1761.86
1761870.0,105.0,93.0,125.0,145.0,1761.87
1761880.0,108.0,93.0,127.0,143.0,1761.88
1761890.0,107.0,98.0,128.0,138.0,1761.89
1761900.0,107.0,94.0,120.0,137.0,1761.9
1761910.0,105.0,96.0,141.0,133.0,1761.91
1761920.0,104.0,96.0,129.0,146.0,1761.92
1761930.0,105.0,97.0,118.0,139.0,1761.93
1761940.0,106.0,93.0,114.0,128.0,1761.94
1761950.0,105.0,94.0,143.0,123.0,1761.95
1761960.0,105.0,91.0,138.0,119.0,1761.96
1761970.0,103.0,92.0,132.0,135.0,1761.97
1761980.0,104.0,92.0,126.0,143.0,1761.98
1761990.0,102.0,91.0,122.0,131.0,1761.99
1762000.0,102.0,90.0,119.0,118.0,1762.0
1762010.0,100.0,90.0,110.0,108.0,1762.01
1762020.0,99.0,89.0,114.0,113.0,1762.02
1762030.0,99.0,87.0,109.0,115.0,1762.03
1762040.0,97.0,87.0,105.0,125.0,1762.04
1762050.0,96.0,88.0,99.0,117.0,1762.05
1762060.0,95.0,88.0,94.0,107.0,1762.06
1762070.0,93.0,93.0,95.0,106.0,1762.07
1762080.0,93.0,94.0,101.0,100.0,1762.08
1762091.0,93.0,96.0,101.0,111.0,1762.091
1762101.0,97.0,94.0,113.0,125.0,1762.101
1762111.0,101.0,92.0,125.0,148.0,1762.111
1762121.0,105.0,86.0,111.0,138.0,1762.121
1762131.0,109.0,80.0,99.0,131.0,1762.131
1762141.0,108.0,79.0,123.0,152.0,1762.141
1762151.0,110.0,76.0,125.0,176.0,1762.151
1762161.0,116.0,83.0,130.0,181.0,1762.161
1762171.0,122.0,84.0,158.0,200.0,1762.171
1762181.0,124.0,83.0,168.0,194.0,1762.181
1762191.0,133.0,88.0,154.0,190.0,1762.191
1762201.0,137.0,89.0,145.0,183.0,1762.201
1762211.0,138.0,89.0,143.0,185.0,1762.211
1762221.0,145.0,95.0,142.0,196.0,1762.221
1762231.0,151.0,102.0,131.0,182.0,1762.231
1762241.0,156.0,109.0,121.0,199.0,1762.241
1762251.0,163.0,122.0,120.0,208.0,1762.251
1762262.0,167.0,134.0,112.0,191.0,1762.262
1762272.0,170.0,148.0,106.0,201.0,1762.272
1762282.0,177.0,171.0,101.0,217.0,1762.282
1762292.0,183.0,193.0,93.0,230.0,1762.292
1762302.0,185.0,211.0,92.0,248.0,1762.302
1762312.0,188.0,229.0,88.0,278.0,1762.312
1762322.0,195.0,250.0,95.0,315.0,1762.322
1762332.0,197.0,267.0,85.0,283.0,1762.332
1762342.0,202.0,284.0,78.0,277.0,1762.342
1762352.0,204.0,295.0,79.0,298.0,1762.352
1762362.0,207.0,312.0,74.0,336.0,1762.362
1762372.0,211.0,325.0,68.0,320.0,1762.372
1762382.0,212.0,334.0,76.0,289.0,1762.382
1762392.0,213.0,341.0,71.0,282.0,1762.392
1762402.0,214.0,349.0,66.0,278.0,1762.402
1762412.0,214.0,356.0,60.0,273.0,1762.412
1762422.0,211.0,357.0,64.0,258.0,1762.422
1762432.0,214.0,364.0,65.0,257.0,1762.432
1762442.0,212.0,367.0,65.0,238.0,1762.442
1762452.0,211.0,369.0,67.0,224.0,1762.452
1762462.0,208.0,371.0,65.0,220.0,1762.462
1762472.0,209.0,372.0,63.0,211.0,1762.472
1762482.0,206.0,371.0,54.0,221.0,1762.482
1762492.0,204.0,371.0,54.0,225.0,1762.492
1762502.0,205.0,373.0,57.0,214.0,1762.502
1762512.0,201.0,370.0,65.0,208.0,1762.512
1762522.0,198.0,366.0,64.0,204.0,1762.522
1762532.0,196.0,362.0,68.0,207.0,1762.532
1762542.0,193.0,358.0,60.0,197.0,1762.542
1762552.0,190.0,353.0,54.0,188.0,1762.552
1762562.0,189.0,349.0,48.0,209.0,1762.562
1762572.0,186.0,343.0,48.0,195.0,1762.572
1762582.0,183.0,341.0,47.0,209.0,1762.582
1762592.0,181.0,336.0,49.0,196.0,1762.592
1762603.0,178.0,332.0,49.0,192.0,1762.603
1762613.0,176.0,330.0,48.0,190.0,1762.613
1762623.0,171.0,324.0,44.0,176.0,1762.623
1762633.0,167.0,319.0,39.0,167.0,1762.633
1762643.0,163.0,314.0,38.0,165.0,1762.643
1762653.0,160.0,313.0,37.0,172.0,1762.653
1762663.0,155.0,309.0,32.0,174.0,1762.663
1762673.0,153.0,309.0,32.0,171.0,1762.673
1762683.0,149.0,307.0,34.0,164.0,1762.683
1762693.0,148.0,305.0,34.0,163.0,1762.693
1762703.0,145.0,303.0,38.0,166.0,1762.703
1762713.0,143.0,301.0,36.0,160.0,1762.713
1762723.0,141.0,301.0,38.0,165.0,1762.723
1762733.0,139.0,297.0,34.0,152.0,1762.733
1762743.0,138.0,294.0,33.0,159.0,1762.743
1762753.0,136.0,291.0,35.0,182.0,1762.753
1762763.0,135.0,288.0,37.0,189.0,1762.763
1762774.0,132.0,286.0,33.0,193.0,1762.774
1762784.0,130.0,281.0,38.0,186.0,1762.784
1762794.0,128.0,280.0,34.0,183.0,1762.794
1762804.0,124.0,274.0,40.0,180.0,1762.804
1762814.0,123.0,271.0,36.0,165.0,1762.814
1762824.0,119.0,265.0,32.0,155.0,1762.824
1762834.0,116.0,262.0,35.0,144.0,1762.834
1762844.0,113.0,259.0,34.0,151.0,1762.844
1762854.0,109.0,255.0,30.0,148.0,1762.854
1762864.0,107.0,253.0,41.0,142.0,1762.864
1762874.0,105.0,252.0,43.0,147.0,1762.874
1762884.0,104.0,248.0,38.0,140.0,1762.884
1762894.0,103.0,245.0,33.0,140.0,1762.894
1762904.0,101.0,241.0,29.0,147.0,1762.904
1762914.0,101.0,236.0,44.0,160.0,1762.914
1762924.0,99.0,232.0,45.0,160.0,1762.924
1762934.0,100.0,229.0,39.0,149.0,1762.934
1762944.0,98.0,225.0,36.0,143.0,1762.944
1762954.0,95.0,219.0,35.0,149.0,1762.954
1762964.0,95.0,218.0,33.0,175.0,1762.964
1762974.0,94.0,216.0,31.0,170.0,1762.974
1762984.0,92.0,211.0,39.0,159.0,1762.984
1762994.0,88.0,207.0,37.0,155.0,1762.994
1763004.0,87.0,204.0,34.0,149.0,1763.004
1763014.0,87.0,201.0,35.0,149.0,1763.014
1763024.0,85.0,198.0,32.0,147.0,1763.024
1763034.0,84.0,195.0,30.0,150.0,1763.034
1763044.0,81.0,192.0,33.0,150.0,1763.044
1763054.0,81.0,190.0,31.0,148.0,1763.054
1763064.0,78.0,186.0,29.0,140.0,1763.064
1763074.0,78.0,186.0,30.0,151.0,1763.074
1763084.0,77.0,182.0,36.0,145.0,1763.084
1763094.0,75.0,180.0,38.0,149.0,1763.094
1763104.0,75.0,179.0,37.0,139.0,1763.104
1763115.0,74.0,176.0,37.0,130.0,1763.115
1763125.0,73.0,173.0,47.0,136.0,1763.125
1763135.0,73.0,171.0,41.0,129.0,1763.135
1763145.0,74.0,170.0,36.0,131.0,1763.145
1763155.0,73.0,168.0,33.0,123.0,1763.155
1763165.0,70.0,167.0,32.0,158.0,1763.165
1763175.0,70.0,165.0,28.0,183.0,1763.175
1763185.0,70.0,164.0,25.0,177.0,1763.185
1763195.0,69.0,162.0,24.0,172.0,1763.195
1763205.0,69.0,159.0,24.0,195.0,1763.205
1763215.0,68.0,157.0,38.0,201.0,1763.215
1763225.0,69.0,157.0,40.0,200.0,1763.225
1763235.0,68.0,157.0,36.0,182.0,1763.235
1763245.0,69.0,156.0,34.0,173.0,1763.245
1763255.0,68.0,151.0,34.0,158.0,1763.255
1763265.0,67.0,150.0,31.0,150.0,1763.265
1763275.0,68.0,147.0,27.0,146.0,1763.275
1763286.0,65.0,146.0,25.0,155.0,1763.286
1763296.0,66.0,144.0,35.0,154.0,1763.296
1763306.0,66.0,143.0,34.0,150.0,1763.306
1763316.0,64.0,139.0,39.0,140.0,1763.316
1763326.0,65.0,140.0,43.0,152.0,1763.326
1763336.0,64.0,138.0,46.0,163.0,1763.336
1763346.0,66.0,141.0,43.0,179.0,1763.346
1763356.0,65.0,139.0,36.0,168.0,1763.356
1763366.0,62.0,137.0,32.0,158.0,1763.366
1763376.0,63.0,136.0,40.0,157.0,1763.376
1763386.0,60.0,135.0,38.0,155.0,1763.386
1763396.0,61.0,134.0,39.0,162.0,1763.396
1763406.0,58.0,132.0,50.0,160.0,1763.406
1763416.0,60.0,128.0,56.0,156.0,1763.416
1763426.0,60.0,128.0,52.0,159.0,1763.426
1763436.0,58.0,125.0,44.0,154.0,1763.436
1763446.0,58.0,123.0,40.0,144.0,1763.446
1763456.0,57.0,120.0,46.0,143.0,1763.456
1763466.0,57.0,120.0,40.0,144.0,1763.466
1763476.0,55.0,118.0,37.0,139.0,1763.476
1763486.0,54.0,115.0,34.0,141.0,1763.486
1763496.0,54.0,114.0,39.0,158.0,1763.496
1763506.0,54.0,114.0,42.0,160.0,1763.506
1763516.0,53.0,114.0,38.0,149.0,1763.516
1763526.0,52.0,113.0,34.0,139.0,1763.526
1763536.0,51.0,112.0,36.0,130.0,1763.536
1763546.0,51.0,110.0,33.0,122.0,1763.546
1763556.0,49.0,106.0,35.0,116.0,1763.556
1763566.0,50.0,104.0,36.0,132.0,1763.566
1763576.0,50.0,106.0,35.0,147.0,1763.576
1763586.0,48.0,105.0,34.0,145.0,1763.586
1763596.0,48.0,104.0,30.0,133.0,1763.596
1763606.0,48.0,101.0,30.0,177.0,1763.606
1763616.0,48.0,100.0,29.0,203.0,1763.616
1763627.0,48.0,98.0,32.0,189.0,1763.627
1763637.0,47.0,97.0,30.0,167.0,1763.637
1763647.0,49.0,95.0,52.0,169.0,1763.647
1763657.0,48.0,95.0,50.0,159.0,1763.657
1763667.0,47.0,93.0,47.0,148.0,1763.667
1763677.0,48.0,94.0,43.0,141.0,1763.677
1763687.0,47.0,92.0,46.0,135.0,1763.687
1763697.0,46.0,91.0,41.0,126.0,1763.697
1763707.0,47.0,89.0,49.0,122.0,1763.707
1763717.0,47.0,88.0,55.0,119.0,1763.717
1763727.0,48.0,86.0,64.0,128.0,1763.727
1763737.0,48.0,87.0,59.0,130.0,1763.737
1763747.0,48.0,89.0,52.0,125.0,1763.747
1763757.0,49.0,87.0,48.0,118.0,1763.757
1763767.0,51.0,86.0,42.0,109.0,1763.767
1763777.0,52.0,85.0,41.0,121.0,1763.777
1763787.0,54.0,84.0,47.0,134.0,1763.787
1763798.0,55.0,83.0,53.0,126.0,1763.798
1763808.0,54.0,84.0,49.0,121.0,1763.808
1763818.0,54.0,84.0,47.0,116.0,1763.818
1763828.0,54.0,82.0,42.0,117.0,1763.828
1763838.0,54.0,78.0,40.0,124.0,1763.838
1763848.0,53.0,78.0,39.0,129.0,1763.848
1763858.0,54.0,77.0,42.0,125.0,1763.858
1763868.0,54.0,79.0,48.0,126.0,1763.868
1763878.0,54.0,77.0,42.0,131.0,1763.878
1763888.0,55.0,75.0,43.0,133.0,1763.888
1763898.0,53.0,77.0,41.0,136.0,1763.898
1763908.0,54.0,75.0,38.0,138.0,1763.908
1763918.0,55.0,72.0,39.0,144.0,1763.918
1763928.0,53.0,72.0,35.0,137.0,1763.928
1763938.0,56.0,69.0,35.0,139.0,1763.938
1763948.0,54.0,68.0,30.0,139.0,1763.948
1763958.0,53.0,65.0,34.0,139.0,1763.958
1763968.0,54.0,63.0,40.0,143.0,1763.968
1763978.0,53.0,63.0,37.0,143.0,1763.978
1763988.0,53.0,60.0,37.0,154.0,1763.988
1763998.0,53.0,60.0,41.0,150.0,1763.998
1764008.0,53.0,59.0,38.0,143.0,1764.008
1764018.0,52.0,61.0,39.0,139.0,1764.018
1764028.0,51.0,64.0,35.0,131.0,1764.028
1764038.0,53.0,64.0,34.0,135.0,1764.038
1764048.0,53.0,64.0,30.0,133.0,1764.048
1764058.0,54.0,63.0,33.0,122.0,1764.058
1764068.0,53.0,63.0,33.0,143.0,1764.068
1764078.0,54.0,63.0,34.0,137.0,1764.078
1764088.0,54.0,62.0,36.0,130.0,1764.088
1764098.0,53.0,63.0,34.0,153.0,1764.098
1764108.0,54.0,62.0,39.0,145.0,1764.108
1764118.0,55.0,64.0,47.0,133.0,1764.118
1764128.0,53.0,64.0,44.0,140.0,1764.128
1764139.0,54.0,63.0,39.0,143.0,1764.139
1764149.0,53.0,62.0,49.0,138.0,1764.149
1764159.0,53.0,63.0,45.0,133.0,1764.159
1764169.0,54.0,61.0,51.0,134.0,1764.169
1764179.0,53.0,63.0,52.0,128.0,1764.179
1764189.0,53.0,63.0,47.0,122.0,1764.189
1764199.0,52.0,62.0,55.0,119.0,1764.199
1764209.0,52.0,63.0,49.0,116.0,1764.209
1764219.0,52.0,62.0,47.0,122.0,1764.219
1764229.0,53.0,62.0,49.0,119.0,1764.229
1764239.0,52.0,62.0,48.0,115.0,1764.239
1764249.0,52.0,61.0,42.0,111.0,1764.249
1764259.0,51.0,63.0,42.0,117.0,1764.259
1764269.0,51.0,63.0,38.0,111.0,1764.269
1764279.0,52.0,60.0,48.0,110.0,1764.279
1764289.0,51.0,62.0,47.0,110.0,1764.289
1764299.0,51.0,62.0,43.0,111.0,1764.299
1764310.0,50.0,62.0,37.0,106.0,1764.31
1764320.0,50.0,60.0,45.0,131.0,1764.32
1764330.0,49.0,59.0,42.0,141.0,1764.33
1764340.0,48.0,60.0,38.0,140.0,1764.34
1764350.0,50.0,58.0,36.0,129.0,1764.35
1764360.0,50.0,58.0,37.0,123.0,1764.36
1764370.0,51.0,58.0,43.0,121.0,1764.37
1764380.0,52.0,59.0,44.0,134.0,1764.38
1764390.0,51.0,58.0,50.0,125.0,1764.39
1764400.0,51.0,60.0,48.0,125.0,1764.4
1764410.0,51.0,59.0,45.0,125.0,1764.41
1764420.0,50.0,56.0,45.0,122.0,1764.42
1764430.0,50.0,57.0,46.0,125.0,1764.43
1764440.0,49.0,57.0,47.0,125.0,1764.44
1764450.0,49.0,54.0,48.0,126.0,1764.45
1764460.0,50.0,55.0,44.0,121.0,1764.46
1764470.0,50.0,53.0,43.0,124.0,1764.47
1764480.0,49.0,53.0,41.0,118.0,1764.48
1764490.0,49.0,51.0,39.0,120.0,1764.49
1764500.0,49.0,51.0,40.0,114.0,1764.5
1764510.0,49.0,51.0,37.0,112.0,1764.51
1764520.0,49.0,49.0,33.0,110.0,1764.52
1764530.0,47.0,47.0,28.0,106.0,1764.53
1764540.0,47.0,46.0,32.0,115.0,1764.54
1764550.0,49.0,47.0,30.0,116.0,1764.55
1764560.0,50.0,46.0,33.0,108.0,1764.56
1764570.0,50.0,44.0,36.0,110.0,1764.57
1764580.0,51.0,48.0,36.0,117.0,1764.58
1764590.0,51.0,47.0,36.0,119.0,1764.59
1764600.0,50.0,47.0,36.0,121.0,1764.6
1764610.0,50.0,47.0,37.0,116.0,1764.61
1764620.0,49.0,47.0,33.0,108.0,1764.62
1764630.0,48.0,46.0,38.0,104.0,1764.63
1764640.0,48.0,44.0,34.0,116.0,1764.64
1764651.0,48.0,44.0,33.0,112.0,1764.651
1764661.0,49.0,46.0,41.0,113.0,1764.661
1764671.0,50.0,47.0,43.0,116.0,1764.671
1764681.0,48.0,46.0,44.0,112.0,1764.681
1764691.0,49.0,45.0,42.0,117.0,1764.691
1764701.0,49.0,47.0,39.0,118.0,1764.701
1764711.0,49.0,47.0,42.0,120.0,1764.711
1764721.0,50.0,50.0,41.0,121.0,1764.721
1764731.0,47.0,49.0,39.0,115.0,1764.731
1764741.0,49.0,50.0,36.0,147.0,1764.741
1764751.0,48.0,50.0,31.0,145.0,1764.751
1764761.0,47.0,49.0,31.0,132.0,1764.761
1764771.0,48.0,50.0,27.0,139.0,1764.771
1764781.0,49.0,50.0,35.0,133.0,1764.781
1764791.0,49.0,48.0,32.0,135.0,1764.791
1764801.0,48.0,48.0,45.0,150.0,1764.801
1764811.0,51.0,50.0,44.0,140.0,1764.811
1764822.0,50.0,49.0,39.0,142.0,1764.822
1764832.0,50.0,47.0,38.0,133.0,1764.832
1764842.0,50.0,47.0,37.0,124.0,1764.842
1764852.0,51.0,47.0,35.0,130.0,1764.852
1764862.0,52.0,46.0,34.0,131.0,1764.862
1764872.0,53.0,47.0,41.0,140.0,1764.872
1764882.0,55.0,50.0,46.0,139.0,1764.882
1764892.0,56.0,51.0,52.0,144.0,1764.892
1764902.0,53.0,48.0,45.0,135.0,1764.902
1764912.0,54.0,48.0,42.0,145.0,1764.912
1764922.0,53.0,48.0,38.0,140.0,1764.922
1764932.0,53.0,47.0,44.0,135.0,1764.932
1764942.0,53.0,48.0,43.0,139.0,1764.942
1764952.0,52.0,47.0,40.0,133.0,1764.952
1764962.0,52.0,45.0,35.0,121.0,1764.962
1764972.0,50.0,45.0,38.0,120.0,1764.972
1764982.0,50.0,45.0,36.0,133.0,1764.982
1764992.0,51.0,47.0,35.0,132.0,1764.992
1765002.0,52.0,48.0,31.0,124.0,1765.002
1765012.0,52.0,46.0,36.0,119.0,1765.012
1765022.0,50.0,48.0,39.0,117.0,1765.022
1765032.0,52.0,46.0,36.0,114.0,1765.032
1765042.0,50.0,48.0,34.0,120.0,1765.042
1765052.0,51.0,48.0,34.0,119.0,1765.052
1765062.0,52.0,47.0,39.0,116.0,1765.062
1765072.0,53.0,49.0,38.0,110.0,1765.072
1765082.0,54.0,47.0,36.0,106.0,1765.082
1765092.0,53.0,48.0,39.0,124.0,1765.092
1765102.0,52.0,47.0,36.0,123.0,1765.102
1765112.0,52.0,46.0,31.0,128.0,1765.112
1765122.0,51.0,47.0,29.0,120.0,1765.122
1765132.0,51.0,47.0,32.0,117.0,1765.132
1765142.0,51.0,51.0,38.0,132.0,1765.142
1765152.0,51.0,48.0,41.0,142.0,1765.152
1765163.0,50.0,49.0,45.0,132.0,1765.163
1765173.0,51.0,49.0,42.0,121.0,1765.173
1765183.0,50.0,49.0,36.0,112.0,1765.183
1765193.0,48.0,49.0,32.0,112.0,1765.193
1765203.0,49.0,49.0,32.0,105.0,1765.203
1765213.0,48.0,50.0,41.0,132.0,1765.213
1765223.0,48.0,51.0,40.0,146.0,1765.223
1765233.0,48.0,52.0,36.0,135.0,1765.233
1765243.0,48.0,53.0,41.0,133.0,1765.243
1765253.0,49.0,53.0,43.0,139.0,1765.253
1765263.0,48.0,53.0,36.0,142.0,1765.263
1765273.0,48.0,53.0,34.0,143.0,1765.273
1765283.0,48.0,56.0,34.0,136.0,1765.283
1765293.0,49.0,57.0,35.0,138.0,1765.293
1765303.0,49.0,55.0,36.0,132.0,1765.303
1765313.0,49.0,55.0,37.0,144.0,1765.313
1765323.0,49.0,54.0,45.0,156.0,1765.323
1765334.0,49.0,52.0,38.0,148.0,1765.334
1765344.0,48.0,51.0,36.0,133.0,1765.344
1765354.0,48.0,51.0,35.0,138.0,1765.354
1765364.0,48.0,52.0,41.0,136.0,1765.364
1765374.0,49.0,52.0,50.0,139.0,1765.374
1765384.0,49.0,51.0,44.0,143.0,1765.384
1765394.0,47.0,49.0,39.0,139.0,1765.394
1765404.0,48.0,50.0,42.0,139.0,1765.404
1765414.0,46.0,49.0,39.0,139.0,1765.414
1765424.0,47.0,48.0,42.0,129.0,1765.424
1765434.0,47.0,49.0,43.0,122.0,1765.434
1765444.0,50.0,48.0,44.0,119.0,1765.444
1765454.0,49.0,48.0,39.0,120.0,1765.454
1765464.0,49.0,47.0,36.0,114.0,1765.464
1765474.0,52.0,51.0,38.0,115.0,1765.474
1765484.0,50.0,49.0,32.0,113.0,1765.484
1765494.0,51.0,47.0,29.0,116.0,1765.494
1765504.0,52.0,48.0,26.0,117.0,1765.504
1765514.0,51.0,47.0,25.0,111.0,1765.514
1765524.0,51.0,46.0,29.0,132.0,1765.524
1765534.0,49.0,46.0,29.0,130.0,1765.534
1765544.0,51.0,46.0,33.0,120.0,1765.544
1765554.0,51.0,45.0,28.0,119.0,1765.554
1765564.0,51.0,45.0,26.0,115.0,1765.564
1765574.0,52.0,45.0,25.0,112.0,1765.574
1765584.0,51.0,46.0,29.0,107.0,1765.584
1765594.0,54.0,46.0,31.0,110.0,1765.594
1765604.0,56.0,47.0,28.0,111.0,1765.604
1765614.0,57.0,45.0,32.0,114.0,1765.614
1765624.0,57.0,47.0,35.0,111.0,1765.624
1765634.0,56.0,45.0,38.0,106.0,1765.634
1765644.0,59.0,45.0,38.0,109.0,1765.644
1765654.0,58.0,47.0,38.0,107.0,1765.654
1765664.0,58.0,46.0,44.0,104.0,1765.664
1765675.0,59.0,47.0,43.0,98.0,1765.675
1765685.0,59.0,49.0,47.0,105.0,1765.685
1765695.0,61.0,49.0,47.0,105.0,1765.695
1765705.0,60.0,47.0,42.0,102.0,1765.705
1765715.0,59.0,45.0,41.0,104.0,1765.715
1765725.0,59.0,44.0,38.0,108.0,1765.725
1765735.0,59.0,44.0,44.0,103.0,1765.735
1765745.0,60.0,44.0,52.0,108.0,1765.745
1765755.0,59.0,45.0,47.0,117.0,1765.755
1765765.0,59.0,44.0,49.0,109.0,1765.765
1765775.0,58.0,45.0,44.0,103.0,1765.775
1765785.0,57.0,46.0,49.0,105.0,1765.785
1765795.0,58.0,45.0,49.0,100.0,1765.795
1765805.0,57.0,46.0,48.0,113.0,1765.805
1765815.0,56.0,45.0,47.0,110.0,1765.815
1765825.0,56.0,48.0,48.0,109.0,1765.825
1765835.0,55.0,47.0,45.0,107.0,1765.835
1765846.0,55.0,48.0,42.0,116.0,1765.846
1765856.0,55.0,50.0,46.0,112.0,1765.856
1765866.0,56.0,49.0,40.0,115.0,1765.866
1765876.0,56.0,50.0,38.0,110.0,1765.876
1765886.0,54.0,49.0,33.0,100.0,1765.886
1765896.0,53.0,51.0,30.0,99.0,1765.896
1765906.0,53.0,54.0,28.0,103.0,1765.906
1765916.0,53.0,54.0,30.0,97.0,1765.916
1765926.0,52.0,57.0,34.0,96.0,1765.926
1765936.0,53.0,57.0,35.0,90.0,1765.936
1765946.0,55.0,57.0,34.0,86.0,1765.946
1765956.0,55.0,56.0,31.0,80.0,1765.956
1765966.0,54.0,59.0,32.0,79.0,1765.966
1765976.0,55.0,57.0,30.0,77.0,1765.976
1765986.0,56.0,59.0,27.0,85.0,1765.986
1765996.0,55.0,59.0,22.0,82.0,1765.996
1766006.0,55.0,60.0,22.0,92.0,1766.006
1766016.0,54.0,62.0,23.0,93.0,1766.016
1766026.0,53.0,64.0,25.0,98.0,1766.026
1766036.0,53.0,64.0,29.0,109.0,1766.036
1766046.0,53.0,63.0,31.0,112.0,1766.046
1766056.0,54.0,62.0,31.0,106.0,1766.056
1766066.0,52.0,64.0,28.0,99.0,1766.066
1766076.0,51.0,64.0,24.0,94.0,1766.076
1766086.0,50.0,65.0,24.0,93.0,1766.086
1766096.0,50.0,68.0,25.0,107.0,1766.096
1766106.0,50.0,67.0,37.0,112.0,1766.106
1766116.0,53.0,67.0,37.0,109.0,1766.116
1766126.0,52.0,67.0,39.0,117.0,1766.126
1766136.0,52.0,66.0,37.0,110.0,1766.136
1766146.0,52.0,66.0,34.0,108.0,1766.146
1766156.0,51.0,65.0,34.0,104.0,1766.156
1766166.0,50.0,64.0,32.0,98.0,1766.166
1766176.0,50.0,63.0,28.0,89.0,1766.176
1766187.0,50.0,63.0,39.0,103.0,1766.187
1766197.0,51.0,62.0,42.0,106.0,1766.197
1766207.0,53.0,62.0,36.0,107.0,1766.207
1766217.0,52.0,61.0,32.0,105.0,1766.217
1766227.0,52.0,60.0,28.0,107.0,1766.227
1766237.0,51.0,60.0,33.0,102.0,1766.237
1766247.0,51.0,63.0,33.0,108.0,1766.247
1766257.0,52.0,62.0,35.0,108.0,1766.257
1766267.0,51.0,63.0,33.0,112.0,1766.267
1766277.0,51.0,62.0,33.0,110.0,1766.277
1766287.0,50.0,60.0,28.0,102.0,1766.287
1766297.0,50.0,59.0,27.0,101.0,1766.297
1766307.0,50.0,61.0,32.0,96.0,1766.307
1766317.0,50.0,60.0,31.0,92.0,1766.317
1766327.0,49.0,59.0,31.0,91.0,1766.327
1766337.0,49.0,61.0,37.0,111.0,1766.337
1766347.0,49.0,61.0,45.0,103.0,1766.347
1766358.0,50.0,59.0,40.0,102.0,1766.358
1766368.0,50.0,60.0,36.0,95.0,1766.368
1766378.0,49.0,57.0,35.0,103.0,1766.378
1766388.0,48.0,59.0,34.0,116.0,1766.388
1766398.0,48.0,56.0,36.0,128.0,1766.398
1766408.0,48.0,56.0,35.0,120.0,1766.408
1766418.0,48.0,59.0,46.0,113.0,1766.418
1766428.0,49.0,56.0,44.0,108.0,1766.428
1766438.0,48.0,55.0,42.0,102.0,1766.438
1766448.0,48.0,53.0,39.0,117.0,1766.448
