time (ms),signal 0,signal 1,signal 2,signal3,time (sec)
1814361.0,118.0,91.0,19.0,63.0,1814.361
1814371.0,117.0,89.0,17.0,69.0,1814.371
1814381.0,115.0,89.0,15.0,79.0,1814.381
1814391.0,115.0,90.0,16.0,79.0,1814.391
1814401.0,114.0,90.0,16.0,74.0,1814.401
1814411.0,113.0,90.0,21.0,77.0,1814.411
1814421.0,112.0,89.0,25.0,79.0,1814.421
1814431.0,111.0,91.0,20.0,75.0,1814.431
1814441.0,109.0,91.0,20.0,81.0,1814.441
1814451.0,109.0,91.0,23.0,81.0,1814.451
1814461.0,109.0,93.0,22.0,79.0,1814.461
1814471.0,110.0,92.0,21.0,78.0,1814.471
1814481.0,108.0,89.0,19.0,77.0,1814.481
1814491.0,109.0,90.0,18.0,81.0,1814.491
1814501.0,110.0,88.0,17.0,79.0,1814.501
1814511.0,112.0,88.0,16.0,75.0,1814.511
1814521.0,113.0,85.0,19.0,73.0,1814.521
1814531.0,114.0,87.0,21.0,72.0,1814.531
1814541.0,114.0,87.0,21.0,71.0,1814.541
1814551.0,115.0,87.0,22.0,70.0,1814.551
1814561.0,116.0,88.0,24.0,74.0,1814.561
1814571.0,118.0,88.0,24.0,69.0,1814.571
1814581.0,116.0,85.0,22.0,70.0,1814.581
1814591.0,117.0,84.0,28.0,73.0,1814.591
1814601.0,118.0,82.0,25.0,69.0,1814.601
1814611.0,118.0,81.0,21.0,65.0,1814.611
1814621.0,117.0,78.0,22.0,64.0,1814.621
1814631.0,116.0,77.0,19.0,66.0,1814.631
1814641.0,117.0,76.0,19.0,66.0,1814.641
1814651.0,117.0,75.0,17.0,64.0,1814.651
1814661.0,117.0,76.0,16.0,64.0,1814.661
1814671.0,115.0,72.0,24.0,61.0,1814.671
1814681.0,115.0,73.0,29.0,62.0,1814.681
1814691.0,115.0,74.0,27.0,62.0,1814.691
1814701.0,114.0,74.0,25.0,67.0,1814.701
1814711.0,113.0,73.0,22.0,63.0,1814.711
1814721.0,115.0,72.0,20.0,65.0,1814.721
1814731.0,111.0,71.0,16.0,62.0,1814.731
1814742.0,111.0,69.0,16.0,64.0,1814.742
1814752.0,109.0,68.0,18.0,69.0,1814.752
1814762.0,107.0,67.0,18.0,64.0,1814.762
1814772.0,108.0,66.0,17.0,63.0,1814.772
1814782.0,105.0,67.0,29.0,62.0,1814.782
1814792.0,106.0,66.0,26.0,57.0,1814.792
1814802.0,104.0,66.0,22.0,60.0,1814.802
1814812.0,102.0,64.0,23.0,56.0,1814.812
1814822.0,102.0,62.0,21.0,54.0,1814.822
1814832.0,101.0,64.0,19.0,50.0,1814.832
1814842.0,102.0,64.0,17.0,48.0,1814.842
1814852.0,100.0,68.0,27.0,50.0,1814.852
1814862.0,105.0,73.0,32.0,50.0,1814.862
1814872.0,107.0,77.0,28.0,49.0,1814.872
1814882.0,106.0,76.0,25.0,47.0,1814.882
1814892.0,108.0,76.0,22.0,45.0,1814.892
1814902.0,109.0,75.0,19.0,49.0,1814.902
1814912.0,109.0,71.0,17.0,52.0,1814.912
1814922.0,112.0,70.0,16.0,55.0,1814.922
1814932.0,109.0,68.0,19.0,57.0,1814.932
1814942.0,112.0,67.0,17.0,75.0,1814.942
1814952.0,112.0,72.0,15.0,74.0,1814.952
1814962.0,114.0,77.0,15.0,73.0,1814.962
1814972.0,115.0,74.0,14.0,81.0,1814.972
1814982.0,118.0,73.0,13.0,82.0,1814.982
1814992.0,122.0,70.0,12.0,85.0,1814.992
1815002.0,117.0,67.0,12.0,87.0,1815.002
1815012.0,127.0,65.0,15.0,99.0,1815.012
1815022.0,134.0,65.0,20.0,111.0,1815.022
1815032.0,152.0,69.0,25.0,119.0,1815.032
1815042.0,190.0,81.0,28.0,131.0,1815.042
1815052.0,207.0,89.0,26.0,131.0,1815.052
1815062.0,224.0,87.0,27.0,130.0,1815.062
1815072.0,205.0,83.0,28.0,134.0,1815.072
1815083.0,190.0,83.0,27.0,137.0,1815.083
1815093.0,178.0,80.0,29.0,139.0,1815.093
1815103.0,174.0,77.0,28.0,136.0,1815.103
1815113.0,166.0,81.0,31.0,138.0,1815.113
1815123.0,159.0,86.0,31.0,140.0,1815.123
1815133.0,153.0,87.0,31.0,137.0,1815.133
1815143.0,145.0,92.0,40.0,142.0,1815.143
1815153.0,141.0,95.0,39.0,152.0,1815.153
1815163.0,137.0,94.0,43.0,158.0,1815.163
1815173.0,136.0,94.0,42.0,148.0,1815.173
1815183.0,132.0,93.0,44.0,149.0,1815.183
1815193.0,128.0,99.0,42.0,155.0,1815.193
1815203.0,128.0,104.0,40.0,160.0,1815.203
1815213.0,126.0,103.0,39.0,148.0,1815.213
1815223.0,129.0,106.0,40.0,145.0,1815.223
1815233.0,124.0,104.0,37.0,138.0,1815.233
1815243.0,118.0,109.0,37.0,145.0,1815.243
1815254.0,117.0,109.0,34.0,144.0,1815.254
1815264.0,115.0,107.0,37.0,139.0,1815.264
1815274.0,118.0,106.0,38.0,157.0,1815.274
1815284.0,119.0,103.0,33.0,175.0,1815.284
1815294.0,116.0,103.0,32.0,261.0,1815.294
1815304.0,111.0,103.0,31.0,265.0,1815.304
1815314.0,106.0,103.0,36.0,273.0,1815.314
1815324.0,110.0,102.0,38.0,284.0,1815.324
1815334.0,110.0,97.0,40.0,269.0,1815.334
1815344.0,109.0,96.0,38.0,255.0,1815.344
1815354.0,108.0,100.0,37.0,248.0,1815.354
1815364.0,111.0,108.0,37.0,238.0,1815.364
1815374.0,106.0,100.0,38.0,231.0,1815.374
1815384.0,105.0,96.0,36.0,234.0,1815.384
1815394.0,97.0,100.0,33.0,233.0,1815.394
1815404.0,96.0,104.0,35.0,246.0,1815.404
1815414.0,92.0,103.0,36.0,291.0,1815.414
1815424.0,89.0,105.0,35.0,328.0,1815.424
1815434.0,91.0,114.0,37.0,321.0,1815.434
1815444.0,88.0,125.0,37.0,346.0,1815.444
1815454.0,91.0,134.0,42.0,375.0,1815.454
1815464.0,94.0,154.0,47.0,398.0,1815.464
1815474.0,95.0,166.0,45.0,376.0,1815.474
1815484.0,91.0,192.0,42.0,401.0,1815.484
1815494.0,91.0,218.0,44.0,452.0,1815.494
1815504.0,95.0,247.0,47.0,472.0,1815.504
1815514.0,99.0,264.0,57.0,564.0,1815.514
1815524.0,97.0,289.0,59.0,567.0,1815.524
1815534.0,93.0,316.0,92.0,655.0,1815.534
1815544.0,92.0,332.0,90.0,617.0,1815.544
1815554.0,91.0,349.0,82.0,604.0,1815.554
1815564.0,86.0,364.0,74.0,569.0,1815.564
1815574.0,88.0,378.0,65.0,537.0,1815.574
1815584.0,90.0,384.0,86.0,668.0,1815.584
1815595.0,87.0,390.0,81.0,667.0,1815.595
1815605.0,84.0,390.0,78.0,660.0,1815.605
1815615.0,84.0,399.0,88.0,606.0,1815.615
1815625.0,82.0,403.0,81.0,537.0,1815.625
1815635.0,81.0,387.0,86.0,474.0,1815.635
1815645.0,81.0,376.0,85.0,540.0,1815.645
1815655.0,87.0,379.0,79.0,552.0,1815.655
1815665.0,87.0,371.0,82.0,594.0,1815.665
1815675.0,83.0,368.0,75.0,592.0,1815.675
1815685.0,82.0,361.0,68.0,582.0,1815.685
1815695.0,82.0,354.0,69.0,559.0,1815.695
1815705.0,81.0,347.0,72.0,564.0,1815.705
1815715.0,78.0,345.0,66.0,602.0,1815.715
1815725.0,77.0,334.0,64.0,633.0,1815.725
1815735.0,77.0,331.0,57.0,578.0,1815.735
1815745.0,73.0,327.0,50.0,522.0,1815.745
1815755.0,78.0,322.0,55.0,571.0,1815.755
1815766.0,78.0,317.0,62.0,651.0,1815.766
1815776.0,80.0,314.0,66.0,634.0,1815.776
1815786.0,78.0,309.0,62.0,636.0,1815.786
1815796.0,80.0,308.0,63.0,580.0,1815.796
1815806.0,84.0,300.0,73.0,659.0,1815.806
1815816.0,81.0,296.0,68.0,628.0,1815.816
1815826.0,81.0,291.0,70.0,658.0,1815.826
1815836.0,80.0,282.0,73.0,667.0,1815.836
1815846.0,81.0,277.0,75.0,667.0,1815.846
1815856.0,79.0,271.0,68.0,667.0,1815.856
1815866.0,78.0,263.0,75.0,668.0,1815.866
1815876.0,76.0,257.0,73.0,667.0,1815.876
1815886.0,76.0,256.0,64.0,645.0,1815.886
1815896.0,81.0,254.0,62.0,659.0,1815.896
1815906.0,80.0,250.0,57.0,644.0,1815.906
1815916.0,76.0,251.0,51.0,614.0,1815.916
1815926.0,75.0,250.0,48.0,611.0,1815.926
1815936.0,70.0,249.0,42.0,552.0,1815.936
1815946.0,69.0,248.0,44.0,597.0,1815.946
1815956.0,72.0,247.0,41.0,577.0,1815.956
1815966.0,71.0,245.0,57.0,618.0,1815.966
1815976.0,71.0,242.0,57.0,607.0,1815.976
1815986.0,71.0,239.0,55.0,585.0,1815.986
1815996.0,71.0,234.0,49.0,566.0,1815.996
1816006.0,68.0,232.0,53.0,508.0,1816.006
1816016.0,70.0,226.0,49.0,487.0,1816.016
1816026.0,68.0,220.0,46.0,450.0,1816.026
1816036.0,68.0,216.0,47.0,482.0,1816.036
1816046.0,67.0,211.0,45.0,482.0,1816.046
1816056.0,65.0,207.0,42.0,458.0,1816.056
1816066.0,64.0,202.0,38.0,423.0,1816.066
1816076.0,64.0,198.0,36.0,437.0,1816.076
1816086.0,63.0,194.0,35.0,452.0,1816.086
1816096.0,63.0,187.0,31.0,431.0,1816.096
1816107.0,64.0,180.0,27.0,414.0,1816.107
1816117.0,63.0,179.0,30.0,383.0,1816.117
1816127.0,64.0,176.0,27.0,363.0,1816.127
1816137.0,67.0,170.0,30.0,407.0,1816.137
1816147.0,65.0,165.0,29.0,410.0,1816.147
1816157.0,49.0,164.0,25.0,378.0,1816.157
1816167.0,667.0,176.0,33.0,365.0,1816.167
1816177.0,665.0,171.0,33.0,381.0,1816.177
1816187.0,664.0,166.0,30.0,373.0,1816.187
1816197.0,665.0,163.0,27.0,356.0,1816.197
1816207.0,668.0,159.0,28.0,379.0,1816.207
1816217.0,667.0,155.0,27.0,369.0,1816.217
1816227.0,668.0,153.0,24.0,359.0,1816.227
1816237.0,667.0,152.0,26.0,339.0,1816.237
1816247.0,667.0,148.0,23.0,312.0,1816.247
1816257.0,667.0,145.0,20.0,286.0,1816.257
1816267.0,668.0,143.0,19.0,272.0,1816.267
1816278.0,667.0,138.0,17.0,276.0,1816.278
1816288.0,668.0,133.0,16.0,279.0,1816.288
1816298.0,667.0,131.0,16.0,283.0,1816.298
1816308.0,667.0,127.0,18.0,279.0,1816.308
1816318.0,667.0,124.0,20.0,274.0,1816.318
1816328.0,668.0,121.0,18.0,284.0,1816.328
1816338.0,668.0,117.0,17.0,275.0,1816.338
1816348.0,667.0,114.0,15.0,266.0,1816.348
1816358.0,667.0,111.0,14.0,249.0,1816.358
1816368.0,667.0,109.0,13.0,252.0,1816.368
1816378.0,667.0,107.0,12.0,244.0,1816.378
1816388.0,668.0,103.0,14.0,262.0,1816.388
1816398.0,667.0,100.0,14.0,239.0,1816.398
1816408.0,667.0,100.0,13.0,261.0,1816.408
1816418.0,668.0,100.0,14.0,266.0,1816.418
1816428.0,667.0,97.0,12.0,266.0,1816.428
1816438.0,668.0,97.0,15.0,241.0,1816.438
1816448.0,668.0,98.0,20.0,222.0,1816.448
1816458.0,667.0,98.0,19.0,233.0,1816.458
1816468.0,666.0,96.0,25.0,258.0,1816.468
1816478.0,667.0,92.0,22.0,259.0,1816.478
1816488.0,667.0,92.0,20.0,239.0,1816.488
1816498.0,666.0,90.0,18.0,221.0,1816.498
1816508.0,667.0,87.0,17.0,245.0,1816.508
1816518.0,667.0,87.0,16.0,245.0,1816.518
1816528.0,666.0,87.0,15.0,220.0,1816.528
1816538.0,668.0,84.0,15.0,205.0,1816.538
1816548.0,667.0,81.0,13.0,215.0,1816.548
1816558.0,667.0,82.0,14.0,249.0,1816.558
1816568.0,667.0,79.0,12.0,258.0,1816.568
1816578.0,667.0,78.0,12.0,262.0,1816.578
1816588.0,667.0,76.0,17.0,269.0,1816.588
1816598.0,667.0,74.0,20.0,282.0,1816.598
1816608.0,655.0,72.0,21.0,270.0,1816.608
1816619.0,636.0,73.0,23.0,282.0,1816.619
1816629.0,620.0,72.0,24.0,280.0,1816.629
1816639.0,607.0,71.0,22.0,291.0,1816.639
1816649.0,592.0,70.0,20.0,302.0,1816.649
1816659.0,579.0,70.0,18.0,297.0,1816.659
1816669.0,569.0,68.0,16.0,278.0,1816.669
1816679.0,554.0,72.0,16.0,273.0,1816.679
1816689.0,541.0,71.0,14.0,274.0,1816.689
1816699.0,528.0,73.0,13.0,285.0,1816.699
1816709.0,516.0,71.0,13.0,287.0,1816.709
1816719.0,500.0,70.0,22.0,310.0,1816.719
1816729.0,489.0,70.0,27.0,310.0,1816.729
1816739.0,479.0,67.0,25.0,292.0,1816.739
1816749.0,468.0,66.0,23.0,314.0,1816.749
1816759.0,453.0,66.0,22.0,294.0,1816.759
1816769.0,440.0,65.0,22.0,320.0,1816.769
1816779.0,428.0,63.0,21.0,302.0,1816.779
1816790.0,418.0,60.0,18.0,286.0,1816.79
1816800.0,407.0,59.0,16.0,294.0,1816.8
1816810.0,396.0,56.0,15.0,282.0,1816.81
1816820.0,386.0,57.0,15.0,301.0,1816.82
1816830.0,376.0,55.0,16.0,289.0,1816.83
1816840.0,369.0,54.0,16.0,292.0,1816.84
1816850.0,360.0,53.0,15.0,290.0,1816.85
1816860.0,350.0,53.0,15.0,281.0,1816.86
1816870.0,342.0,51.0,14.0,272.0,1816.87
1816880.0,335.0,51.0,13.0,251.0,1816.88
1816890.0,327.0,50.0,17.0,271.0,1816.89
1816900.0,319.0,50.0,14.0,272.0,1816.9
1816910.0,313.0,50.0,13.0,257.0,1816.91
1816920.0,306.0,49.0,13.0,245.0,1816.92
1816930.0,300.0,49.0,13.0,243.0,1816.93
1816940.0,294.0,48.0,12.0,275.0,1816.94
1816950.0,285.0,48.0,10.0,257.0,1816.95
1816960.0,280.0,47.0,10.0,271.0,1816.96
1816970.0,274.0,46.0,10.0,259.0,1816.97
1816980.0,267.0,46.0,16.0,252.0,1816.98
1816990.0,264.0,46.0,21.0,277.0,1816.99
1817000.0,255.0,46.0,18.0,260.0,1817.0
1817010.0,250.0,46.0,16.0,238.0,1817.01
1817020.0,243.0,47.0,17.0,215.0,1817.02
1817030.0,209.0,49.0,14.0,215.0,1817.03
1817040.0,169.0,55.0,17.0,247.0,1817.04
1817050.0,50.0,69.0,22.0,249.0,1817.05
1817060.0,1.0,85.0,36.0,235.0,1817.06
1817070.0,0.0,109.0,49.0,232.0,1817.07
1817080.0,0.0,128.0,68.0,226.0,1817.08
1817090.0,0.0,146.0,80.0,266.0,1817.09
1817100.0,0.0,163.0,88.0,261.0,1817.1
1817110.0,0.0,179.0,102.0,268.0,1817.11
1817120.0,0.0,194.0,115.0,240.0,1817.12
1817131.0,668.0,184.0,113.0,254.0,1817.131
1817141.0,668.0,166.0,99.0,260.0,1817.141
1817151.0,669.0,150.0,92.0,264.0,1817.151
1817161.0,668.0,134.0,86.0,267.0,1817.161
1817171.0,668.0,125.0,80.0,265.0,1817.171
1817181.0,668.0,114.0,74.0,249.0,1817.181
1817191.0,667.0,106.0,69.0,254.0,1817.191
1817201.0,668.0,100.0,79.0,302.0,1817.201
1817211.0,668.0,94.0,69.0,305.0,1817.211
1817221.0,668.0,90.0,65.0,305.0,1817.221
1817231.0,668.0,86.0,58.0,280.0,1817.231
1817241.0,668.0,83.0,52.0,300.0,1817.241
1817251.0,669.0,79.0,47.0,292.0,1817.251
1817261.0,668.0,75.0,42.0,265.0,1817.261
1817271.0,668.0,74.0,37.0,268.0,1817.271
1817281.0,666.0,72.0,35.0,254.0,1817.281
1817291.0,666.0,70.0,35.0,246.0,1817.291
1817302.0,668.0,68.0,35.0,265.0,1817.302
1817312.0,668.0,70.0,34.0,297.0,1817.312
1817322.0,668.0,68.0,34.0,290.0,1817.322
1817332.0,667.0,67.0,29.0,290.0,1817.332
1817342.0,667.0,65.0,30.0,278.0,1817.342
1817352.0,667.0,64.0,28.0,265.0,1817.352
1817362.0,667.0,64.0,24.0,281.0,1817.362
1817372.0,666.0,64.0,22.0,265.0,1817.372
1817382.0,666.0,64.0,20.0,250.0,1817.382
1817392.0,667.0,63.0,20.0,277.0,1817.392
1817402.0,667.0,63.0,24.0,268.0,1817.402
1817412.0,666.0,63.0,24.0,252.0,1817.412
1817422.0,666.0,61.0,21.0,233.0,1817.422
1817432.0,667.0,62.0,19.0,227.0,1817.432
1817442.0,666.0,60.0,20.0,212.0,1817.442
1817452.0,666.0,60.0,21.0,211.0,1817.452
1817462.0,666.0,58.0,18.0,202.0,1817.462
1817472.0,666.0,57.0,19.0,199.0,1817.472
1817482.0,667.0,57.0,16.0,189.0,1817.482
1817492.0,667.0,59.0,17.0,177.0,1817.492
1817502.0,667.0,59.0,16.0,186.0,1817.502
1817512.0,666.0,58.0,15.0,183.0,1817.512
1817522.0,668.0,59.0,15.0,187.0,1817.522
1817532.0,668.0,58.0,14.0,184.0,1817.532
1817542.0,667.0,57.0,12.0,169.0,1817.542
1817552.0,667.0,58.0,12.0,192.0,1817.552
1817562.0,666.0,58.0,10.0,197.0,1817.562
1817572.0,668.0,58.0,13.0,204.0,1817.572
1817582.0,667.0,61.0,11.0,211.0,1817.582
1817592.0,668.0,61.0,11.0,215.0,1817.592
1817602.0,667.0,58.0,13.0,220.0,1817.602
1817612.0,667.0,58.0,16.0,222.0,1817.612
1817622.0,667.0,57.0,15.0,212.0,1817.622
1817632.0,667.0,56.0,14.0,204.0,1817.632
1817643.0,667.0,56.0,13.0,196.0,1817.643
1817653.0,667.0,56.0,11.0,190.0,1817.653
1817663.0,667.0,55.0,13.0,195.0,1817.663
1817673.0,668.0,54.0,12.0,185.0,1817.673
1817683.0,666.0,54.0,12.0,179.0,1817.683
1817693.0,666.0,52.0,14.0,181.0,1817.693
1817703.0,665.0,52.0,13.0,229.0,1817.703
1817713.0,663.0,49.0,11.0,244.0,1817.713
1817723.0,664.0,49.0,18.0,234.0,1817.723
1817733.0,664.0,49.0,23.0,249.0,1817.733
1817743.0,666.0,48.0,24.0,239.0,1817.743
1817753.0,664.0,47.0,20.0,227.0,1817.753
1817763.0,663.0,45.0,18.0,231.0,1817.763
1817773.0,655.0,44.0,17.0,221.0,1817.773
1817783.0,657.0,44.0,15.0,214.0,1817.783
1817793.0,659.0,43.0,15.0,236.0,1817.793
1817803.0,659.0,43.0,13.0,218.0,1817.803
1817814.0,659.0,43.0,15.0,207.0,1817.814
1817824.0,659.0,43.0,18.0,200.0,1817.824
1817834.0,660.0,44.0,16.0,195.0,1817.834
1817844.0,659.0,44.0,14.0,188.0,1817.844
1817854.0,660.0,45.0,16.0,221.0,1817.854
1817864.0,660.0,43.0,14.0,214.0,1817.864
1817874.0,660.0,43.0,13.0,201.0,1817.874
1817884.0,660.0,44.0,12.0,214.0,1817.884
1817894.0,662.0,43.0,12.0,206.0,1817.894
1817904.0,664.0,47.0,10.0,203.0,1817.904
1817914.0,664.0,45.0,10.0,196.0,1817.914
1817924.0,665.0,46.0,10.0,192.0,1817.924
1817934.0,666.0,46.0,10.0,190.0,1817.934
1817944.0,666.0,46.0,12.0,212.0,1817.944
1817954.0,666.0,47.0,11.0,230.0,1817.954
1817964.0,667.0,46.0,11.0,208.0,1817.964
1817974.0,667.0,46.0,10.0,200.0,1817.974
1817984.0,667.0,47.0,12.0,201.0,1817.984
1817994.0,667.0,47.0,12.0,205.0,1817.994
1818004.0,667.0,47.0,11.0,197.0,1818.004
1818014.0,667.0,48.0,13.0,216.0,1818.014
1818024.0,667.0,51.0,12.0,216.0,1818.024
1818034.0,667.0,51.0,11.0,202.0,1818.034
1818044.0,667.0,51.0,15.0,197.0,1818.044
1818054.0,667.0,51.0,13.0,191.0,1818.054
1818064.0,667.0,53.0,16.0,196.0,1818.064
1818074.0,667.0,56.0,14.0,182.0,1818.074
1818084.0,667.0,57.0,13.0,185.0,1818.084
1818094.0,667.0,56.0,12.0,179.0,1818.094
1818104.0,666.0,57.0,11.0,178.0,1818.104
1818114.0,668.0,56.0,12.0,168.0,1818.114
1818124.0,667.0,57.0,10.0,183.0,1818.124
1818134.0,655.0,57.0,10.0,190.0,1818.134
1818144.0,646.0,60.0,10.0,198.0,1818.144
1818155.0,633.0,59.0,10.0,181.0,1818.155
1818165.0,622.0,60.0,9.0,181.0,1818.165
1818175.0,610.0,61.0,8.0,174.0,1818.175
1818185.0,600.0,61.0,11.0,190.0,1818.185
1818195.0,588.0,61.0,12.0,186.0,1818.195
1818205.0,580.0,62.0,12.0,182.0,1818.205
1818215.0,569.0,61.0,11.0,171.0,1818.215
1818225.0,559.0,60.0,10.0,158.0,1818.225
1818235.0,549.0,59.0,11.0,159.0,1818.235
1818245.0,542.0,58.0,10.0,170.0,1818.245
1818255.0,534.0,59.0,10.0,171.0,1818.255
1818265.0,527.0,59.0,9.0,159.0,1818.265
1818275.0,519.0,59.0,10.0,210.0,1818.275
1818285.0,510.0,58.0,10.0,207.0,1818.285
1818295.0,502.0,58.0,9.0,196.0,1818.295
1818305.0,494.0,58.0,8.0,184.0,1818.305
1818315.0,484.0,54.0,8.0,191.0,1818.315
1818326.0,477.0,55.0,8.0,188.0,1818.326
1818336.0,471.0,55.0,9.0,199.0,1818.336
1818346.0,461.0,54.0,7.0,192.0,1818.346
1818356.0,455.0,54.0,7.0,189.0,1818.356
1818366.0,447.0,53.0,7.0,206.0,1818.366
1818376.0,440.0,52.0,7.0,202.0,1818.376
1818386.0,434.0,52.0,19.0,235.0,1818.386
1818396.0,428.0,53.0,18.0,252.0,1818.396
1818406.0,423.0,54.0,17.0,240.0,1818.406
1818416.0,416.0,53.0,15.0,230.0,1818.416
1818426.0,408.0,52.0,14.0,222.0,1818.426
1818436.0,402.0,51.0,14.0,232.0,1818.436
1818446.0,396.0,52.0,24.0,258.0,1818.446
1818456.0,390.0,52.0,22.0,242.0,1818.456
1818466.0,385.0,52.0,19.0,232.0,1818.466
1818476.0,378.0,52.0,17.0,229.0,1818.476
1818486.0,375.0,52.0,16.0,244.0,1818.486
1818496.0,369.0,52.0,21.0,277.0,1818.496
1818506.0,366.0,53.0,23.0,287.0,1818.506
1818516.0,359.0,52.0,24.0,266.0,1818.516
1818526.0,355.0,51.0,22.0,267.0,1818.526
1818536.0,353.0,52.0,21.0,268.0,1818.536
1818546.0,345.0,52.0,25.0,262.0,1818.546
1818556.0,342.0,52.0,27.0,262.0,1818.556
1818566.0,334.0,51.0,25.0,244.0,1818.566
1818576.0,328.0,51.0,23.0,256.0,1818.576
1818586.0,326.0,52.0,20.0,275.0,1818.586
1818596.0,320.0,53.0,18.0,257.0,1818.596
1818606.0,316.0,52.0,21.0,314.0,1818.606
1818616.0,307.0,52.0,22.0,356.0,1818.616
1818626.0,304.0,53.0,20.0,322.0,1818.626
1818636.0,300.0,53.0,18.0,288.0,1818.636
1818646.0,295.0,52.0,21.0,347.0,1818.646
1818656.0,289.0,52.0,21.0,362.0,1818.656
1818667.0,283.0,50.0,19.0,322.0,1818.667
1818677.0,279.0,50.0,19.0,284.0,1818.677
1818687.0,275.0,49.0,17.0,274.0,1818.687
1818697.0,271.0,47.0,15.0,248.0,1818.697
1818707.0,267.0,47.0,15.0,232.0,1818.707
1818717.0,260.0,46.0,15.0,208.0,1818.717
1818727.0,256.0,46.0,15.0,185.0,1818.727
1818737.0,251.0,45.0,18.0,168.0,1818.737
1818747.0,245.0,44.0,19.0,156.0,1818.747
1818757.0,241.0,42.0,25.0,154.0,1818.757
1818767.0,239.0,46.0,48.0,145.0,1818.767
1818777.0,235.0,45.0,51.0,139.0,1818.777
1818787.0,231.0,47.0,55.0,131.0,1818.787
1818797.0,226.0,49.0,67.0,147.0,1818.797
1818807.0,219.0,47.0,68.0,160.0,1818.807
1818817.0,221.0,56.0,87.0,164.0,1818.817
1818827.0,219.0,56.0,89.0,162.0,1818.827
1818838.0,221.0,62.0,114.0,170.0,1818.838
1818848.0,218.0,59.0,109.0,164.0,1818.848
1818858.0,215.0,61.0,111.0,194.0,1818.858
1818868.0,211.0,65.0,140.0,209.0,1818.868
1818878.0,216.0,70.0,165.0,201.0,1818.878
1818888.0,212.0,72.0,174.0,227.0,1818.888
1818898.0,208.0,78.0,251.0,311.0,1818.898
1818908.0,212.0,78.0,286.0,302.0,1818.908
1818918.0,213.0,76.0,275.0,310.0,1818.918
1818928.0,213.0,73.0,254.0,284.0,1818.928
1818938.0,210.0,70.0,228.0,286.0,1818.938
1818948.0,207.0,73.0,227.0,313.0,1818.948
1818958.0,209.0,73.0,219.0,317.0,1818.958
1818968.0,207.0,80.0,222.0,328.0,1818.968
1818978.0,204.0,76.0,204.0,319.0,1818.978
1818988.0,201.0,76.0,205.0,312.0,1818.988
1818998.0,201.0,73.0,195.0,298.0,1818.998
1819008.0,200.0,73.0,187.0,295.0,1819.008
1819018.0,198.0,74.0,170.0,278.0,1819.018
1819028.0,191.0,77.0,159.0,276.0,1819.028
1819038.0,192.0,77.0,145.0,262.0,1819.038
1819048.0,190.0,76.0,157.0,271.0,1819.048
1819058.0,190.0,75.0,144.0,260.0,1819.058
1819068.0,188.0,76.0,131.0,244.0,1819.068
1819078.0,185.0,78.0,133.0,235.0,1819.078
1819088.0,180.0,81.0,124.0,240.0,1819.088
1819098.0,182.0,76.0,123.0,237.0,1819.098
1819108.0,179.0,77.0,124.0,235.0,1819.108
1819118.0,177.0,75.0,119.0,233.0,1819.118
1819128.0,176.0,72.0,116.0,226.0,1819.128
1819138.0,175.0,69.0,101.0,212.0,1819.138
1819148.0,173.0,70.0,97.0,214.0,1819.148
1819158.0,169.0,70.0,91.0,230.0,1819.158
1819168.0,167.0,71.0,126.0,216.0,1819.168
1819179.0,168.0,68.0,110.0,200.0,1819.179
1819189.0,167.0,65.0,97.0,186.0,1819.189
1819199.0,164.0,64.0,96.0,176.0,1819.199
1819209.0,163.0,60.0,94.0,183.0,1819.209
1819219.0,161.0,59.0,93.0,185.0,1819.219
1819229.0,161.0,58.0,82.0,189.0,1819.229
1819239.0,159.0,55.0,84.0,174.0,1819.239
1819249.0,158.0,53.0,74.0,167.0,1819.249
1819259.0,154.0,52.0,80.0,159.0,1819.259
1819269.0,153.0,52.0,76.0,169.0,1819.269
1819279.0,152.0,53.0,75.0,170.0,1819.279
1819289.0,151.0,52.0,89.0,171.0,1819.289
1819299.0,150.0,51.0,83.0,170.0,1819.299
1819309.0,148.0,50.0,74.0,178.0,1819.309
1819319.0,147.0,50.0,84.0,181.0,1819.319
1819329.0,146.0,54.0,82.0,180.0,1819.329
1819339.0,147.0,55.0,70.0,166.0,1819.339
1819350.0,147.0,57.0,74.0,158.0,1819.35
1819360.0,146.0,56.0,66.0,155.0,1819.36
1819370.0,146.0,57.0,60.0,154.0,1819.37
1819380.0,145.0,58.0,72.0,152.0,1819.38
1819390.0,146.0,59.0,67.0,156.0,1819.39
1819400.0,145.0,62.0,63.0,153.0,1819.4
1819410.0,143.0,63.0,55.0,151.0,1819.41
1819420.0,142.0,64.0,56.0,139.0,1819.42
1819430.0,138.0,63.0,67.0,144.0,1819.43
1819440.0,140.0,66.0,61.0,141.0,1819.44
1819450.0,138.0,66.0,54.0,141.0,1819.45
1819460.0,136.0,66.0,50.0,142.0,1819.46
1819470.0,135.0,68.0,61.0,138.0,1819.47
1819480.0,132.0,68.0,55.0,129.0,1819.48
1819490.0,130.0,68.0,57.0,126.0,1819.49
1819500.0,130.0,69.0,51.0,127.0,1819.5
1819510.0,129.0,70.0,45.0,129.0,1819.51
1819520.0,127.0,69.0,43.0,123.0,1819.52
1819530.0,122.0,68.0,48.0,119.0,1819.53
1819540.0,123.0,69.0,55.0,119.0,1819.54
1819550.0,120.0,71.0,51.0,120.0,1819.55
1819560.0,119.0,70.0,56.0,123.0,1819.56
1819570.0,118.0,70.0,50.0,123.0,1819.57
1819580.0,114.0,71.0,43.0,119.0,1819.58
1819590.0,115.0,73.0,50.0,121.0,1819.59
1819600.0,113.0,73.0,59.0,121.0,1819.6
1819610.0,114.0,72.0,55.0,117.0,1819.61
1819620.0,114.0,71.0,58.0,118.0,1819.62
1819630.0,114.0,72.0,54.0,121.0,1819.63
1819640.0,114.0,71.0,47.0,121.0,1819.64
1819650.0,111.0,68.0,45.0,114.0,1819.65
1819660.0,111.0,69.0,49.0,113.0,1819.66
1819670.0,111.0,69.0,47.0,119.0,1819.67
1819680.0,111.0,67.0,42.0,113.0,1819.68
1819691.0,111.0,68.0,38.0,120.0,1819.691
1819701.0,109.0,67.0,35.0,122.0,1819.701
1819711.0,107.0,68.0,38.0,120.0,1819.711
1819721.0,106.0,71.0,49.0,119.0,1819.721
1819731.0,105.0,68.0,44.0,118.0,1819.731
1819741.0,104.0,66.0,40.0,125.0,1819.741
1819751.0,103.0,67.0,36.0,134.0,1819.751
1819761.0,104.0,67.0,37.0,131.0,1819.761
1819771.0,101.0,65.0,39.0,129.0,1819.771
1819781.0,102.0,68.0,51.0,126.0,1819.781
1819791.0,105.0,69.0,46.0,124.0,1819.791
1819801.0,105.0,69.0,43.0,122.0,1819.801
1819811.0,104.0,68.0,41.0,116.0,1819.811
1819821.0,105.0,68.0,42.0,112.0,1819.821
1819831.0,105.0,70.0,48.0,119.0,1819.831
1819841.0,106.0,71.0,42.0,115.0,1819.841
1819851.0,105.0,71.0,43.0,127.0,1819.851
1819862.0,106.0,69.0,42.0,136.0,1819.862
1819872.0,105.0,67.0,37.0,128.0,1819.872
1819882.0,106.0,66.0,36.0,122.0,1819.882
1819892.0,106.0,64.0,33.0,123.0,1819.892
1819902.0,105.0,66.0,37.0,115.0,1819.902
1819912.0,106.0,65.0,35.0,110.0,1819.912
1819922.0,104.0,64.0,34.0,108.0,1819.922
1819932.0,103.0,61.0,40.0,100.0,1819.932
1819942.0,104.0,62.0,39.0,96.0,1819.942
1819952.0,107.0,63.0,35.0,97.0,1819.952
1819962.0,106.0,62.0,36.0,109.0,1819.962
1819972.0,107.0,63.0,33.0,105.0,1819.972
1819982.0,103.0,60.0,34.0,105.0,1819.982
1819992.0,104.0,60.0,35.0,109.0,1819.992
1820002.0,103.0,60.0,35.0,105.0,1820.002
1820012.0,104.0,60.0,36.0,111.0,1820.012
1820022.0,104.0,61.0,32.0,106.0,1820.022
1820032.0,104.0,59.0,42.0,104.0,1820.032
1820042.0,104.0,60.0,37.0,96.0,1820.042
1820052.0,103.0,59.0,39.0,107.0,1820.052
1820062.0,103.0,60.0,39.0,113.0,1820.062
1820072.0,105.0,61.0,40.0,108.0,1820.072
1820082.0,106.0,60.0,35.0,103.0,1820.082
1820092.0,106.0,59.0,40.0,100.0,1820.092
1820102.0,107.0,60.0,36.0,97.0,1820.102
1820112.0,106.0,59.0,32.0,107.0,1820.112
1820122.0,102.0,56.0,32.0,103.0,1820.122
1820132.0,101.0,55.0,35.0,101.0,1820.132
1820142.0,101.0,56.0,35.0,109.0,1820.142
1820152.0,103.0,59.0,40.0,115.0,1820.152
1820162.0,100.0,57.0,41.0,112.0,1820.162
1820172.0,99.0,58.0,38.0,110.0,1820.172
1820182.0,100.0,58.0,40.0,111.0,1820.182
1820192.0,98.0,57.0,40.0,111.0,1820.192
1820203.0,100.0,58.0,38.0,107.0,1820.203
1820213.0,102.0,59.0,36.0,101.0,1820.213
1820223.0,103.0,59.0,40.0,95.0,1820.223
1820233.0,104.0,59.0,37.0,101.0,1820.233
1820243.0,104.0,60.0,31.0,97.0,1820.243
1820253.0,105.0,59.0,33.0,99.0,1820.253
1820263.0,104.0,59.0,32.0,101.0,1820.263
1820273.0,101.0,60.0,36.0,103.0,1820.273
1820283.0,102.0,61.0,37.0,105.0,1820.283
1820293.0,101.0,64.0,33.0,107.0,1820.293
1820303.0,99.0,62.0,39.0,110.0,1820.303
1820313.0,97.0,63.0,35.0,105.0,1820.313
1820323.0,96.0,64.0,31.0,98.0,1820.323
1820333.0,95.0,63.0,29.0,96.0,1820.333
1820343.0,92.0,65.0,28.0,100.0,1820.343
1820353.0,91.0,64.0,31.0,94.0,1820.353
1820363.0,90.0,66.0,31.0,90.0,1820.363
1820374.0,89.0,68.0,27.0,86.0,1820.374
1820384.0,88.0,68.0,23.0,82.0,1820.384
1820394.0,84.0,66.0,22.0,85.0,1820.394
1820404.0,86.0,68.0,27.0,82.0,1820.404
1820414.0,85.0,67.0,26.0,84.0,1820.414
1820424.0,85.0,67.0,26.0,81.0,1820.424
1820434.0,86.0,67.0,26.0,89.0,1820.434
1820444.0,84.0,64.0,23.0,90.0,1820.444
1820454.0,83.0,62.0,23.0,96.0,1820.454
1820464.0,82.0,63.0,23.0,96.0,1820.464
1820474.0,82.0,62.0,20.0,90.0,1820.474
1820484.0,80.0,60.0,33.0,85.0,1820.484
1820494.0,80.0,60.0,40.0,99.0,1820.494
1820504.0,80.0,60.0,38.0,110.0,1820.504
1820514.0,81.0,60.0,35.0,106.0,1820.514
1820524.0,81.0,59.0,36.0,98.0,1820.524
1820534.0,81.0,60.0,34.0,98.0,1820.534
1820544.0,79.0,58.0,30.0,98.0,1820.544
1820554.0,79.0,56.0,28.0,96.0,1820.554
1820564.0,77.0,56.0,28.0,106.0,1820.564
1820574.0,77.0,55.0,42.0,107.0,1820.574
1820584.0,76.0,56.0,46.0,106.0,1820.584
1820594.0,76.0,58.0,52.0,100.0,1820.594
1820604.0,75.0,55.0,47.0,94.0,1820.604
1820614.0,74.0,55.0,45.0,91.0,1820.614
1820624.0,75.0,53.0,43.0,95.0,1820.624
1820634.0,74.0,55.0,49.0,99.0,1820.634
1820644.0,74.0,55.0,44.0,102.0,1820.644
1820654.0,74.0,55.0,39.0,93.0,1820.654
1820664.0,74.0,54.0,35.0,89.0,1820.664
1820674.0,72.0,52.0,44.0,97.0,1820.674
1820684.0,73.0,53.0,48.0,96.0,1820.684
1820694.0,73.0,53.0,42.0,99.0,1820.694
1820704.0,73.0,54.0,44.0,100.0,1820.704
1820715.0,74.0,54.0,40.0,95.0,1820.715
1820725.0,72.0,53.0,40.0,91.0,1820.725
1820735.0,72.0,53.0,37.0,116.0,1820.735
1820745.0,71.0,50.0,32.0,110.0,1820.745
1820755.0,69.0,48.0,37.0,103.0,1820.755
1820765.0,68.0,48.0,37.0,112.0,1820.765
1820775.0,69.0,46.0,33.0,108.0,1820.775
1820785.0,66.0,46.0,34.0,110.0,1820.785
1820795.0,63.0,45.0,37.0,106.0,1820.795
1820805.0,66.0,49.0,35.0,109.0,1820.805
1820815.0,66.0,50.0,31.0,113.0,1820.815
1820825.0,65.0,49.0,30.0,112.0,1820.825
1820835.0,63.0,48.0,28.0,110.0,1820.835
1820845.0,63.0,49.0,27.0,109.0,1820.845
1820855.0,62.0,48.0,26.0,105.0,1820.855
1820865.0,61.0,48.0,25.0,97.0,1820.865
1820875.0,60.0,47.0,23.0,96.0,1820.875
1820886.0,60.0,49.0,27.0,91.0,1820.886
1820896.0,58.0,48.0,33.0,96.0,1820.896
1820906.0,60.0,49.0,32.0,103.0,1820.906
1820916.0,60.0,49.0,30.0,96.0,1820.916
1820926.0,59.0,48.0,28.0,97.0,1820.926
1820936.0,61.0,50.0,25.0,91.0,1820.936
1820946.0,61.0,49.0,41.0,99.0,1820.946
1820956.0,63.0,51.0,40.0,103.0,1820.956
1820966.0,65.0,50.0,36.0,100.0,1820.966
1820976.0,64.0,49.0,46.0,95.0,1820.976
1820986.0,66.0,51.0,43.0,93.0,1820.986
1820996.0,67.0,50.0,38.0,88.0,1820.996
1821006.0,66.0,48.0,35.0,95.0,1821.006
1821016.0,66.0,47.0,32.0,96.0,1821.016
1821026.0,66.0,47.0,40.0,95.0,1821.026
1821036.0,64.0,46.0,41.0,87.0,1821.036
1821046.0,64.0,47.0,39.0,82.0,1821.046
1821056.0,64.0,47.0,36.0,94.0,1821.056
1821066.0,62.0,45.0,32.0,93.0,1821.066
1821076.0,62.0,43.0,28.0,91.0,1821.076
1821086.0,62.0,43.0,25.0,84.0,1821.086
1821096.0,62.0,42.0,22.0,80.0,1821.096
1821106.0,60.0,41.0,20.0,84.0,1821.106
1821116.0,61.0,42.0,29.0,79.0,1821.116
1821126.0,61.0,45.0,40.0,79.0,1821.126
1821136.0,63.0,45.0,43.0,82.0,1821.136
1821146.0,64.0,47.0,39.0,87.0,1821.146
1821156.0,64.0,47.0,41.0,80.0,1821.156
1821166.0,66.0,46.0,37.0,76.0,1821.166
1821176.0,66.0,48.0,32.0,71.0,1821.176
1821186.0,65.0,45.0,29.0,69.0,1821.186
1821196.0,65.0,44.0,27.0,66.0,1821.196
1821206.0,65.0,45.0,34.0,78.0,1821.206
1821216.0,67.0,45.0,45.0,86.0,1821.216
1821227.0,68.0,48.0,47.0,94.0,1821.227
1821237.0,70.0,49.0,42.0,91.0,1821.237
1821247.0,69.0,49.0,40.0,91.0,1821.247
1821257.0,67.0,48.0,38.0,97.0,1821.257
1821267.0,69.0,49.0,37.0,96.0,1821.267
1821277.0,69.0,49.0,37.0,91.0,1821.277
1821287.0,70.0,50.0,36.0,85.0,1821.287
1821297.0,69.0,50.0,39.0,81.0,1821.297
1821307.0,68.0,50.0,34.0,80.0,1821.307
1821317.0,68.0,49.0,33.0,79.0,1821.317
1821327.0,66.0,48.0,32.0,77.0,1821.327
1821337.0,65.0,49.0,31.0,76.0,1821.337
1821347.0,64.0,48.0,32.0,79.0,1821.347
1821357.0,63.0,50.0,30.0,77.0,1821.357
1821367.0,63.0,50.0,36.0,76.0,1821.367
1821377.0,61.0,49.0,44.0,71.0,1821.377
1821387.0,61.0,49.0,39.0,69.0,1821.387
1821398.0,62.0,49.0,36.0,67.0,1821.398
1821408.0,62.0,48.0,31.0,64.0,1821.408
1821418.0,63.0,49.0,28.0,62.0,1821.418
1821428.0,62.0,47.0,25.0,64.0,1821.428
1821438.0,63.0,46.0,24.0,63.0,1821.438
1821448.0,61.0,45.0,28.0,61.0,1821.448
1821458.0,62.0,45.0,30.0,62.0,1821.458
1821468.0,64.0,45.0,28.0,64.0,1821.468
1821478.0,63.0,44.0,37.0,64.0,1821.478
1821488.0,65.0,46.0,34.0,62.0,1821.488
1821498.0,66.0,48.0,31.0,79.0,1821.498
1821508.0,65.0,45.0,28.0,73.0,1821.508
1821518.0,64.0,44.0,23.0,74.0,1821.518
1821528.0,65.0,43.0,22.0,77.0,1821.528
1821538.0,64.0,41.0,21.0,75.0,1821.538
1821548.0,64.0,42.0,20.0,77.0,1821.548
1821558.0,64.0,40.0,21.0,76.0,1821.558
1821568.0,63.0,41.0,28.0,76.0,1821.568
1821578.0,64.0,43.0,34.0,73.0,1821.578
1821588.0,65.0,43.0,41.0,77.0,1821.588
1821598.0,64.0,42.0,39.0,96.0,1821.598
1821608.0,62.0,43.0,38.0,96.0,1821.608
1821618.0,62.0,42.0,34.0,95.0,1821.618
1821628.0,61.0,41.0,31.0,88.0,1821.628
1821638.0,62.0,42.0,28.0,83.0,1821.638
1821648.0,61.0,42.0,25.0,91.0,1821.648
1821658.0,60.0,42.0,23.0,94.0,1821.658
1821668.0,60.0,44.0,32.0,90.0,1821.668
1821678.0,60.0,48.0,28.0,89.0,1821.678
1821688.0,59.0,50.0,28.0,93.0,1821.688
1821698.0,59.0,53.0,26.0,95.0,1821.698
1821708.0,58.0,52.0,25.0,88.0,1821.708
1821718.0,58.0,55.0,22.0,83.0,1821.718
1821728.0,57.0,54.0,22.0,83.0,1821.728
1821739.0,57.0,55.0,21.0,82.0,1821.739
1821749.0,55.0,55.0,21.0,81.0,1821.749
1821759.0,55.0,55.0,20.0,80.0,1821.759
1821769.0,54.0,55.0,31.0,77.0,1821.769
1821779.0,53.0,54.0,28.0,82.0,1821.779
1821789.0,53.0,54.0,26.0,80.0,1821.789
1821799.0,53.0,56.0,27.0,80.0,1821.799
1821809.0,53.0,55.0,27.0,74.0,1821.809
1821819.0,52.0,55.0,24.0,72.0,1821.819
1821829.0,50.0,55.0,23.0,68.0,1821.829
1821839.0,50.0,56.0,20.0,68.0,1821.839
1821849.0,51.0,55.0,18.0,71.0,1821.849
1821859.0,51.0,55.0,22.0,77.0,1821.859
1821869.0,53.0,57.0,21.0,73.0,1821.869
1821879.0,54.0,56.0,19.0,67.0,1821.879
1821889.0,54.0,56.0,19.0,68.0,1821.889
1821899.0,55.0,55.0,21.0,65.0,1821.899
1821910.0,56.0,55.0,20.0,67.0,1821.91
1821920.0,56.0,57.0,21.0,64.0,1821.92
1821930.0,55.0,55.0,19.0,64.0,1821.93
1821940.0,54.0,55.0,31.0,65.0,1821.94
1821950.0,54.0,55.0,28.0,66.0,1821.95
1821960.0,53.0,55.0,25.0,69.0,1821.96
1821970.0,54.0,54.0,30.0,65.0,1821.97
1821980.0,54.0,54.0,30.0,62.0,1821.98
1821990.0,53.0,54.0,27.0,67.0,1821.99
1822000.0,52.0,53.0,25.0,65.0,1822.0
1822010.0,50.0,52.0,22.0,65.0,1822.01
1822020.0,51.0,52.0,32.0,66.0,1822.02
1822030.0,52.0,53.0,33.0,66.0,1822.03
1822040.0,52.0,54.0,29.0,70.0,1822.04
1822050.0,52.0,53.0,26.0,72.0,1822.05
1822060.0,50.0,52.0,24.0,90.0,1822.06
1822070.0,51.0,52.0,25.0,89.0,1822.07
1822080.0,51.0,52.0,23.0,87.0,1822.08
1822090.0,49.0,50.0,32.0,85.0,1822.09
1822100.0,52.0,53.0,32.0,82.0,1822.1
1822110.0,51.0,53.0,29.0,90.0,1822.11
1822120.0,50.0,52.0,28.0,97.0,1822.12
1822130.0,50.0,54.0,25.0,102.0,1822.13
1822140.0,49.0,55.0,23.0,93.0,1822.14
1822150.0,49.0,55.0,23.0,88.0,1822.15
1822160.0,48.0,55.0,21.0,82.0,1822.16
1822170.0,49.0,54.0,22.0,80.0,1822.17
1822180.0,49.0,55.0,31.0,84.0,1822.18
1822190.0,48.0,57.0,29.0,84.0,1822.19
1822200.0,49.0,58.0,26.0,87.0,1822.2
1822210.0,48.0,59.0,23.0,83.0,1822.21
1822220.0,49.0,60.0,21.0,79.0,1822.22
1822230.0,48.0,60.0,18.0,80.0,1822.23
1822240.0,47.0,59.0,16.0,74.0,1822.24
1822251.0,48.0,58.0,16.0,83.0,1822.251
1822261.0,46.0,58.0,17.0,85.0,1822.261
1822271.0,48.0,57.0,17.0,80.0,1822.271
1822281.0,49.0,57.0,19.0,77.0,1822.281
1822291.0,48.0,56.0,28.0,77.0,1822.291
1822301.0,50.0,57.0,30.0,76.0,1822.301
1822311.0,49.0,57.0,27.0,71.0,1822.311
1822321.0,50.0,57.0,27.0,89.0,1822.321
1822331.0,50.0,57.0,24.0,88.0,1822.331
1822341.0,50.0,56.0,23.0,84.0,1822.341
1822351.0,50.0,54.0,26.0,80.0,1822.351
1822361.0,50.0,53.0,23.0,80.0,1822.361
1822371.0,52.0,52.0,20.0,78.0,1822.371
1822381.0,51.0,51.0,19.0,74.0,1822.381
1822391.0,51.0,50.0,26.0,83.0,1822.391
1822401.0,52.0,50.0,23.0,81.0,1822.401
1822411.0,52.0,49.0,22.0,76.0,1822.411
1822422.0,53.0,47.0,20.0,72.0,1822.422
1822432.0,51.0,46.0,21.0,73.0,1822.432
1822442.0,51.0,46.0,25.0,76.0,1822.442
1822452.0,52.0,46.0,23.0,73.0,1822.452
1822462.0,51.0,47.0,25.0,69.0,1822.462
1822472.0,53.0,47.0,24.0,64.0,1822.472
1822482.0,52.0,45.0,20.0,63.0,1822.482
1822492.0,53.0,44.0,22.0,88.0,1822.492
1822502.0,55.0,45.0,20.0,83.0,1822.502
1822512.0,53.0,44.0,19.0,76.0,1822.512
1822522.0,53.0,44.0,22.0,71.0,1822.522
1822532.0,52.0,42.0,23.0,74.0,1822.532
1822542.0,52.0,42.0,30.0,71.0,1822.542
1822552.0,53.0,43.0,25.0,70.0,1822.552
1822562.0,52.0,43.0,24.0,69.0,1822.562
1822572.0,52.0,43.0,26.0,72.0,1822.572
1822582.0,52.0,42.0,27.0,71.0,1822.582
1822592.0,52.0,41.0,30.0,76.0,1822.592
1822602.0,54.0,43.0,29.0,78.0,1822.602
1822612.0,55.0,41.0,26.0,74.0,1822.612
1822622.0,55.0,42.0,31.0,74.0,1822.622
1822632.0,54.0,42.0,39.0,71.0,1822.632
1822642.0,54.0,41.0,36.0,69.0,1822.642
1822652.0,55.0,40.0,32.0,70.0,1822.652
1822662.0,56.0,39.0,29.0,78.0,1822.662
1822672.0,56.0,40.0,26.0,79.0,1822.672
1822682.0,58.0,40.0,23.0,75.0,1822.682
1822692.0,59.0,41.0,21.0,70.0,1822.692
1822702.0,59.0,42.0,23.0,68.0,1822.702
1822712.0,58.0,43.0,26.0,66.0,1822.712
1822722.0,59.0,42.0,26.0,65.0,1822.722
1822732.0,59.0,41.0,25.0,62.0,1822.732
1822742.0,58.0,39.0,23.0,60.0,1822.742
1822752.0,57.0,39.0,21.0,67.0,1822.752
1822763.0,56.0,38.0,21.0,66.0,1822.763
1822773.0,56.0,39.0,19.0,70.0,1822.773
1822783.0,56.0,40.0,20.0,69.0,1822.783
1822793.0,57.0,41.0,23.0,68.0,1822.793
1822803.0,58.0,41.0,21.0,66.0,1822.803
1822813.0,59.0,39.0,19.0,62.0,1822.813
1822823.0,58.0,41.0,23.0,74.0,1822.823
1822833.0,60.0,42.0,27.0,77.0,1822.833
1822843.0,62.0,41.0,23.0,72.0,1822.843
1822853.0,62.0,40.0,21.0,69.0,1822.853
1822863.0,63.0,43.0,29.0,69.0,1822.863
1822873.0,63.0,42.0,26.0,71.0,1822.873
1822883.0,63.0,41.0,22.0,65.0,1822.883
1822893.0,64.0,42.0,22.0,68.0,1822.893
1822903.0,65.0,42.0,21.0,65.0,1822.903
1822913.0,67.0,41.0,20.0,63.0,1822.913
1822923.0,64.0,42.0,18.0,67.0,1822.923
1822934.0,63.0,43.0,19.0,67.0,1822.934
1822944.0,63.0,43.0,20.0,71.0,1822.944
1822954.0,63.0,41.0,18.0,69.0,1822.954
1822964.0,63.0,41.0,18.0,69.0,1822.964
1822974.0,63.0,44.0,17.0,69.0,1822.974
1822984.0,65.0,42.0,16.0,67.0,1822.984
1822994.0,65.0,43.0,16.0,64.0,1822.994
1823004.0,65.0,44.0,23.0,60.0,1823.004
1823014.0,63.0,45.0,19.0,60.0,1823.014
1823024.0,62.0,48.0,28.0,58.0,1823.024
1823034.0,62.0,45.0,32.0,57.0,1823.034
1823044.0,61.0,45.0,28.0,58.0,1823.044
1823054.0,61.0,45.0,29.0,55.0,1823.054
1823064.0,60.0,45.0,25.0,61.0,1823.064
1823074.0,59.0,44.0,22.0,62.0,1823.074
1823084.0,60.0,43.0,23.0,64.0,1823.084
1823094.0,59.0,46.0,27.0,66.0,1823.094
1823104.0,59.0,44.0,24.0,63.0,1823.104
1823114.0,59.0,43.0,23.0,67.0,1823.114
1823124.0,57.0,43.0,21.0,65.0,1823.124
1823134.0,57.0,44.0,24.0,70.0,1823.134
1823144.0,56.0,43.0,20.0,70.0,1823.144
1823154.0,55.0,44.0,19.0,68.0,1823.154
1823164.0,56.0,43.0,21.0,64.0,1823.164
1823174.0,55.0,45.0,30.0,61.0,1823.174
1823184.0,54.0,44.0,26.0,62.0,1823.184
1823194.0,55.0,45.0,26.0,63.0,1823.194
1823204.0,55.0,43.0,25.0,67.0,1823.204
1823214.0,55.0,45.0,26.0,70.0,1823.214
1823224.0,55.0,45.0,27.0,68.0,1823.224
1823234.0,55.0,47.0,31.0,68.0,1823.234
1823244.0,54.0,45.0,27.0,72.0,1823.244
1823254.0,54.0,44.0,26.0,69.0,1823.254
1823264.0,54.0,46.0,27.0,69.0,1823.264
1823275.0,53.0,45.0,24.0,65.0,1823.275
1823285.0,53.0,44.0,23.0,70.0,1823.285
1823295.0,51.0,44.0,20.0,75.0,1823.295
1823305.0,52.0,45.0,25.0,75.0,1823.305
1823315.0,52.0,47.0,31.0,76.0,1823.315
1823325.0,51.0,44.0,31.0,78.0,1823.325
1823335.0,53.0,44.0,31.0,75.0,1823.335
1823345.0,52.0,43.0,29.0,73.0,1823.345
1823355.0,53.0,42.0,27.0,71.0,1823.355
1823365.0,52.0,44.0,25.0,73.0,1823.365
1823375.0,53.0,45.0,31.0,77.0,1823.375
1823385.0,55.0,43.0,30.0,77.0,1823.385
1823395.0,55.0,44.0,29.0,73.0,1823.395
1823405.0,56.0,44.0,26.0,68.0,1823.405
1823415.0,56.0,44.0,23.0,68.0,1823.415
1823425.0,56.0,43.0,23.0,67.0,1823.425
1823435.0,55.0,43.0,24.0,66.0,1823.435
1823446.0,54.0,46.0,37.0,66.0,1823.446
1823456.0,54.0,45.0,36.0,65.0,1823.456
1823466.0,52.0,45.0,31.0,68.0,1823.466
1823476.0,53.0,43.0,29.0,62.0,1823.476
1823486.0,52.0,43.0,25.0,64.0,1823.486
1823496.0,52.0,41.0,22.0,62.0,1823.496
1823506.0,53.0,41.0,20.0,60.0,1823.506
1823516.0,52.0,43.0,25.0,60.0,1823.516
1823526.0,53.0,43.0,32.0,56.0,1823.526
1823536.0,53.0,43.0,27.0,59.0,1823.536
1823546.0,53.0,41.0,25.0,59.0,1823.546
1823556.0,53.0,41.0,25.0,55.0,1823.556
1823566.0,53.0,41.0,24.0,54.0,1823.566
1823576.0,52.0,41.0,22.0,52.0,1823.576
1823586.0,53.0,44.0,23.0,56.0,1823.586
1823596.0,54.0,44.0,22.0,57.0,1823.596
1823606.0,52.0,43.0,19.0,59.0,1823.606
1823616.0,51.0,44.0,18.0,60.0,1823.616
1823626.0,51.0,43.0,19.0,55.0,1823.626
1823636.0,49.0,45.0,16.0,53.0,1823.636
1823646.0,49.0,46.0,17.0,51.0,1823.646
1823656.0,48.0,44.0,15.0,58.0,1823.656
1823666.0,48.0,46.0,22.0,61.0,1823.666
1823676.0,49.0,45.0,29.0,61.0,1823.676
1823686.0,48.0,44.0,26.0,58.0,1823.686
1823696.0,49.0,44.0,29.0,58.0,1823.696
1823706.0,49.0,42.0,25.0,55.0,1823.706
1823716.0,49.0,41.0,24.0,54.0,1823.716
1823726.0,50.0,42.0,23.0,51.0,1823.726
1823736.0,51.0,42.0,21.0,52.0,1823.736
1823746.0,50.0,42.0,34.0,56.0,1823.746
1823756.0,50.0,43.0,30.0,68.0,1823.756
1823766.0,49.0,42.0,30.0,64.0,1823.766
1823776.0,50.0,42.0,27.0,64.0,1823.776
1823787.0,51.0,41.0,27.0,63.0,1823.787
1823797.0,54.0,40.0,25.0,59.0,1823.797
1823807.0,53.0,40.0,21.0,57.0,1823.807
1823817.0,54.0,41.0,19.0,55.0,1823.817
1823827.0,56.0,41.0,18.0,56.0,1823.827
1823837.0,54.0,43.0,20.0,57.0,1823.837
1823847.0,54.0,44.0,21.0,58.0,1823.847
1823857.0,56.0,47.0,27.0,58.0,1823.857
1823867.0,58.0,46.0,32.0,57.0,1823.867
1823877.0,60.0,46.0,27.0,56.0,1823.877
1823887.0,61.0,45.0,25.0,53.0,1823.887
1823897.0,61.0,45.0,22.0,52.0,1823.897
1823907.0,60.0,46.0,20.0,55.0,1823.907
1823917.0,59.0,48.0,31.0,56.0,1823.917
1823927.0,60.0,46.0,27.0,55.0,1823.927
1823937.0,59.0,46.0,25.0,54.0,1823.937
1823947.0,59.0,46.0,22.0,54.0,1823.947
1823958.0,57.0,46.0,21.0,57.0,1823.958
1823968.0,58.0,45.0,21.0,54.0,1823.968
1823978.0,58.0,46.0,22.0,53.0,1823.978
1823988.0,58.0,46.0,19.0,51.0,1823.988
1823998.0,59.0,45.0,17.0,56.0,1823.998
1824008.0,59.0,45.0,16.0,56.0,1824.008
1824018.0,61.0,43.0,16.0,57.0,1824.018
1824028.0,60.0,44.0,14.0,54.0,1824.028
1824038.0,60.0,44.0,16.0,55.0,1824.038
1824048.0,60.0,44.0,19.0,57.0,1824.048
1824058.0,59.0,45.0,19.0,55.0,1824.058
1824068.0,60.0,44.0,22.0,59.0,1824.068
1824078.0,60.0,48.0,24.0,66.0,1824.078
1824088.0,60.0,46.0,20.0,62.0,1824.088
1824098.0,61.0,45.0,20.0,63.0,1824.098
1824108.0,60.0,44.0,23.0,60.0,1824.108
1824118.0,60.0,44.0,21.0,57.0,1824.118
1824128.0,59.0,45.0,21.0,58.0,1824.128
1824138.0,61.0,45.0,27.0,54.0,1824.138
1824148.0,61.0,45.0,24.0,52.0,1824.148
1824158.0,60.0,45.0,21.0,52.0,1824.158
1824168.0,61.0,45.0,20.0,51.0,1824.168
1824178.0,60.0,45.0,20.0,49.0,1824.178
1824188.0,59.0,45.0,18.0,47.0,1824.188
1824198.0,59.0,47.0,17.0,53.0,1824.198
1824208.0,59.0,46.0,16.0,52.0,1824.208
1824218.0,59.0,44.0,15.0,50.0,1824.218
1824228.0,56.0,44.0,14.0,47.0,1824.228
1824238.0,57.0,44.0,22.0,55.0,1824.238
1824248.0,56.0,44.0,20.0,57.0,1824.248
1824258.0,58.0,45.0,26.0,57.0,1824.258
1824268.0,58.0,44.0,25.0,53.0,1824.268
1824278.0,57.0,44.0,23.0,51.0,1824.278
1824288.0,57.0,42.0,20.0,53.0,1824.288
1824299.0,55.0,43.0,18.0,55.0,1824.299
1824309.0,56.0,42.0,18.0,57.0,1824.309
1824319.0,56.0,41.0,16.0,61.0,1824.319
1824329.0,56.0,43.0,18.0,61.0,1824.329
1824339.0,57.0,44.0,18.0,60.0,1824.339
1824349.0,59.0,47.0,23.0,61.0,1824.349
1824359.0,59.0,44.0,20.0,58.0,1824.359
1824369.0,60.0,44.0,18.0,57.0,1824.369
1824379.0,59.0,44.0,17.0,55.0,1824.379
1824389.0,60.0,43.0,17.0,57.0,1824.389
