time (ms),signal 0,signal 1,signal 2,signal3,time (sec)
1832625.0,48.0,47.0,27.0,44.0,1832.625
1832635.0,47.0,48.0,23.0,43.0,1832.635
1832645.0,48.0,49.0,20.0,51.0,1832.645
1832655.0,48.0,51.0,23.0,53.0,1832.655
1832665.0,47.0,51.0,26.0,52.0,1832.665
1832675.0,47.0,50.0,33.0,58.0,1832.675
1832685.0,47.0,49.0,33.0,58.0,1832.685
1832695.0,47.0,48.0,28.0,55.0,1832.695
1832705.0,47.0,49.0,27.0,58.0,1832.705
1832715.0,47.0,50.0,27.0,61.0,1832.715
1832725.0,47.0,50.0,27.0,65.0,1832.725
1832735.0,47.0,49.0,35.0,65.0,1832.735
1832745.0,47.0,48.0,33.0,65.0,1832.745
1832755.0,47.0,49.0,33.0,61.0,1832.755
1832765.0,47.0,48.0,29.0,62.0,1832.765
1832775.0,46.0,50.0,26.0,59.0,1832.775
1832785.0,48.0,51.0,26.0,62.0,1832.785
1832795.0,47.0,51.0,26.0,62.0,1832.795
1832805.0,47.0,51.0,24.0,60.0,1832.805
1832815.0,49.0,52.0,31.0,61.0,1832.815
1832825.0,50.0,53.0,28.0,59.0,1832.825
1832835.0,50.0,54.0,36.0,62.0,1832.835
1832845.0,51.0,54.0,39.0,65.0,1832.845
1832855.0,51.0,51.0,36.0,65.0,1832.855
1832865.0,51.0,53.0,39.0,64.0,1832.865
1832875.0,51.0,52.0,41.0,64.0,1832.875
1832885.0,52.0,51.0,37.0,63.0,1832.885
1832895.0,51.0,50.0,37.0,60.0,1832.895
1832905.0,51.0,50.0,37.0,62.0,1832.905
1832915.0,51.0,49.0,32.0,59.0,1832.915
1832925.0,48.0,50.0,29.0,56.0,1832.925
1832935.0,49.0,51.0,27.0,59.0,1832.935
1832945.0,47.0,53.0,26.0,59.0,1832.945
1832955.0,48.0,53.0,32.0,56.0,1832.955
1832965.0,47.0,54.0,31.0,57.0,1832.965
1832975.0,47.0,53.0,33.0,54.0,1832.975
1832985.0,48.0,54.0,30.0,52.0,1832.985
1832995.0,46.0,53.0,26.0,50.0,1832.995
1833005.0,46.0,55.0,27.0,53.0,1833.005
1833015.0,45.0,57.0,31.0,53.0,1833.015
1833025.0,46.0,55.0,40.0,50.0,1833.025
1833035.0,47.0,53.0,37.0,51.0,1833.035
1833046.0,47.0,51.0,33.0,49.0,1833.046
1833056.0,47.0,50.0,30.0,46.0,1833.056
1833066.0,47.0,50.0,25.0,43.0,1833.066
1833076.0,47.0,49.0,22.0,45.0,1833.076
1833086.0,46.0,49.0,21.0,44.0,1833.086
1833096.0,46.0,48.0,18.0,45.0,1833.096
1833106.0,46.0,49.0,36.0,48.0,1833.106
1833116.0,47.0,50.0,39.0,54.0,1833.116
1833126.0,48.0,49.0,39.0,51.0,1833.126
1833136.0,48.0,47.0,36.0,49.0,1833.136
1833146.0,48.0,47.0,36.0,51.0,1833.146
1833156.0,47.0,47.0,34.0,51.0,1833.156
1833166.0,47.0,47.0,35.0,56.0,1833.166
1833176.0,48.0,48.0,40.0,54.0,1833.176
1833186.0,47.0,49.0,34.0,54.0,1833.186
1833196.0,47.0,48.0,33.0,55.0,1833.196
1833206.0,49.0,48.0,34.0,54.0,1833.206
1833216.0,49.0,46.0,33.0,56.0,1833.216
1833226.0,48.0,45.0,32.0,60.0,1833.226
1833236.0,48.0,45.0,28.0,57.0,1833.236
1833246.0,48.0,47.0,33.0,56.0,1833.246
1833256.0,48.0,46.0,32.0,59.0,1833.256
1833266.0,49.0,46.0,30.0,58.0,1833.266
1833276.0,50.0,45.0,27.0,57.0,1833.276
1833286.0,49.0,45.0,23.0,54.0,1833.286
1833296.0,50.0,44.0,22.0,55.0,1833.296
1833306.0,50.0,45.0,23.0,55.0,1833.306
1833316.0,50.0,47.0,30.0,52.0,1833.316
1833326.0,49.0,48.0,36.0,52.0,1833.326
1833336.0,49.0,49.0,36.0,56.0,1833.336
1833346.0,48.0,48.0,32.0,54.0,1833.346
1833356.0,48.0,48.0,29.0,54.0,1833.356
1833366.0,48.0,47.0,29.0,53.0,1833.366
1833376.0,47.0,46.0,26.0,53.0,1833.376
1833387.0,48.0,50.0,32.0,54.0,1833.387
1833397.0,48.0,48.0,31.0,52.0,1833.397
1833407.0,47.0,47.0,28.0,54.0,1833.407
1833417.0,47.0,47.0,29.0,54.0,1833.417
1833427.0,48.0,46.0,26.0,53.0,1833.427
1833437.0,47.0,47.0,25.0,51.0,1833.437
1833447.0,48.0,46.0,23.0,49.0,1833.447
1833457.0,47.0,48.0,26.0,50.0,1833.457
1833467.0,47.0,48.0,27.0,50.0,1833.467
1833477.0,46.0,46.0,25.0,51.0,1833.477
1833487.0,45.0,47.0,32.0,53.0,1833.487
1833497.0,46.0,46.0,30.0,52.0,1833.497
1833507.0,46.0,46.0,30.0,53.0,1833.507
1833517.0,46.0,47.0,33.0,53.0,1833.517
1833527.0,48.0,46.0,31.0,54.0,1833.527
1833537.0,48.0,46.0,26.0,53.0,1833.537
1833547.0,47.0,44.0,24.0,49.0,1833.547
1833558.0,47.0,44.0,21.0,50.0,1833.558
1833568.0,46.0,44.0,24.0,50.0,1833.568
1833578.0,46.0,44.0,25.0,48.0,1833.578
1833588.0,45.0,43.0,22.0,49.0,1833.588
1833598.0,45.0,45.0,29.0,48.0,1833.598
1833608.0,46.0,46.0,34.0,51.0,1833.608
1833618.0,45.0,45.0,31.0,49.0,1833.618
1833628.0,45.0,44.0,28.0,52.0,1833.628
1833638.0,45.0,44.0,32.0,55.0,1833.638
1833648.0,46.0,43.0,28.0,53.0,1833.648
1833658.0,45.0,43.0,28.0,52.0,1833.658
1833668.0,44.0,41.0,25.0,51.0,1833.668
1833678.0,46.0,42.0,23.0,49.0,1833.678
1833688.0,46.0,43.0,23.0,50.0,1833.688
1833698.0,47.0,42.0,23.0,51.0,1833.698
1833708.0,48.0,42.0,21.0,50.0,1833.708
1833718.0,49.0,41.0,20.0,50.0,1833.718
1833728.0,48.0,39.0,19.0,50.0,1833.728
1833738.0,46.0,39.0,18.0,48.0,1833.738
1833748.0,48.0,39.0,21.0,49.0,1833.748
1833758.0,48.0,40.0,19.0,50.0,1833.758
1833768.0,48.0,40.0,38.0,56.0,1833.768
1833778.0,49.0,39.0,34.0,56.0,1833.778
1833788.0,50.0,39.0,34.0,55.0,1833.788
1833798.0,50.0,39.0,30.0,53.0,1833.798
1833808.0,49.0,39.0,28.0,51.0,1833.808
1833818.0,51.0,39.0,31.0,49.0,1833.818
1833828.0,51.0,43.0,33.0,50.0,1833.828
1833838.0,51.0,41.0,30.0,49.0,1833.838
1833848.0,51.0,41.0,28.0,49.0,1833.848
1833858.0,52.0,40.0,25.0,54.0,1833.858
1833868.0,52.0,41.0,25.0,52.0,1833.868
1833878.0,50.0,41.0,24.0,51.0,1833.878
1833888.0,53.0,40.0,24.0,54.0,1833.888
1833899.0,52.0,41.0,32.0,59.0,1833.899
1833909.0,54.0,41.0,28.0,54.0,1833.909
1833919.0,53.0,42.0,25.0,52.0,1833.919
1833929.0,51.0,44.0,37.0,52.0,1833.929
1833939.0,53.0,43.0,35.0,51.0,1833.939
1833949.0,53.0,46.0,34.0,54.0,1833.949
1833959.0,53.0,45.0,33.0,53.0,1833.959
1833969.0,56.0,45.0,29.0,52.0,1833.969
1833979.0,55.0,47.0,29.0,50.0,1833.979
1833989.0,56.0,44.0,26.0,52.0,1833.989
1833999.0,55.0,47.0,23.0,52.0,1833.999
1834009.0,55.0,45.0,27.0,55.0,1834.009
1834019.0,55.0,47.0,36.0,55.0,1834.019
1834029.0,56.0,47.0,36.0,55.0,1834.029
1834039.0,58.0,45.0,34.0,51.0,1834.039
1834049.0,56.0,45.0,32.0,51.0,1834.049
1834059.0,57.0,42.0,30.0,48.0,1834.059
1834070.0,56.0,44.0,27.0,51.0,1834.07
1834080.0,57.0,43.0,25.0,50.0,1834.08
1834090.0,59.0,42.0,23.0,50.0,1834.09
1834100.0,57.0,43.0,29.0,47.0,1834.1
1834110.0,57.0,43.0,32.0,53.0,1834.11
1834120.0,57.0,44.0,38.0,57.0,1834.12
1834130.0,58.0,43.0,32.0,55.0,1834.13
1834140.0,58.0,41.0,29.0,54.0,1834.14
1834150.0,56.0,42.0,27.0,52.0,1834.15
1834160.0,57.0,41.0,33.0,53.0,1834.16
1834170.0,55.0,40.0,28.0,50.0,1834.17
1834180.0,54.0,40.0,25.0,46.0,1834.18
1834190.0,57.0,39.0,23.0,47.0,1834.19
1834200.0,55.0,42.0,22.0,50.0,1834.2
1834210.0,54.0,41.0,26.0,57.0,1834.21
1834220.0,53.0,43.0,29.0,66.0,1834.22
1834230.0,53.0,42.0,31.0,66.0,1834.23
1834240.0,53.0,42.0,29.0,64.0,1834.24
1834250.0,52.0,45.0,30.0,62.0,1834.25
1834260.0,53.0,43.0,28.0,59.0,1834.26
1834270.0,52.0,42.0,24.0,55.0,1834.27
1834280.0,50.0,42.0,23.0,52.0,1834.28
1834290.0,51.0,40.0,24.0,55.0,1834.29
1834300.0,51.0,41.0,28.0,57.0,1834.3
1834310.0,52.0,39.0,28.0,54.0,1834.31
1834320.0,52.0,43.0,34.0,52.0,1834.32
1834330.0,53.0,42.0,32.0,55.0,1834.33
1834340.0,53.0,43.0,33.0,56.0,1834.34
1834350.0,51.0,42.0,29.0,53.0,1834.35
1834360.0,53.0,41.0,26.0,52.0,1834.36
1834370.0,51.0,43.0,24.0,49.0,1834.37
1834380.0,53.0,45.0,21.0,49.0,1834.38
1834390.0,56.0,46.0,21.0,46.0,1834.39
1834400.0,55.0,63.0,27.0,50.0,1834.4
1834411.0,67.0,73.0,28.0,50.0,1834.411
1834421.0,64.0,74.0,25.0,48.0,1834.421
1834431.0,65.0,75.0,27.0,45.0,1834.431
1834441.0,64.0,79.0,24.0,46.0,1834.441
1834451.0,64.0,73.0,22.0,43.0,1834.451
1834461.0,64.0,70.0,24.0,43.0,1834.461
1834471.0,62.0,66.0,22.0,45.0,1834.471
1834481.0,76.0,68.0,18.0,46.0,1834.481
1834491.0,84.0,66.0,18.0,46.0,1834.491
1834501.0,82.0,63.0,23.0,46.0,1834.501
1834511.0,93.0,64.0,21.0,55.0,1834.511
1834521.0,94.0,66.0,17.0,63.0,1834.521
1834531.0,105.0,67.0,17.0,70.0,1834.531
1834541.0,132.0,72.0,18.0,74.0,1834.541
1834551.0,156.0,76.0,17.0,80.0,1834.551
1834561.0,157.0,76.0,17.0,86.0,1834.561
1834571.0,193.0,83.0,20.0,98.0,1834.571
1834582.0,204.0,86.0,29.0,98.0,1834.582
1834592.0,195.0,85.0,25.0,101.0,1834.592
1834602.0,204.0,91.0,28.0,107.0,1834.602
1834612.0,257.0,106.0,29.0,137.0,1834.612
1834622.0,243.0,99.0,29.0,216.0,1834.622
1834632.0,223.0,102.0,27.0,214.0,1834.632
1834642.0,203.0,108.0,26.0,209.0,1834.642
1834652.0,195.0,108.0,23.0,205.0,1834.652
1834662.0,177.0,118.0,25.0,200.0,1834.662
1834672.0,169.0,129.0,28.0,226.0,1834.672
1834682.0,155.0,146.0,31.0,221.0,1834.682
1834692.0,142.0,160.0,32.0,211.0,1834.692
1834702.0,132.0,173.0,28.0,192.0,1834.702
1834712.0,125.0,188.0,25.0,173.0,1834.712
1834722.0,125.0,196.0,24.0,171.0,1834.722
1834732.0,120.0,207.0,21.0,187.0,1834.732
1834742.0,116.0,217.0,20.0,187.0,1834.742
1834752.0,111.0,227.0,29.0,175.0,1834.752
1834762.0,106.0,234.0,28.0,161.0,1834.762
1834772.0,98.0,243.0,25.0,164.0,1834.772
1834782.0,94.0,248.0,24.0,167.0,1834.782
1834792.0,92.0,250.0,25.0,203.0,1834.792
1834802.0,91.0,253.0,22.0,229.0,1834.802
1834812.0,93.0,253.0,21.0,219.0,1834.812
1834822.0,90.0,251.0,22.0,209.0,1834.822
1834832.0,99.0,250.0,25.0,204.0,1834.832
1834842.0,96.0,249.0,28.0,193.0,1834.842
1834852.0,94.0,246.0,37.0,175.0,1834.852
1834862.0,88.0,240.0,33.0,163.0,1834.862
1834872.0,86.0,231.0,32.0,161.0,1834.872
1834882.0,88.0,231.0,32.0,155.0,1834.882
1834892.0,90.0,230.0,27.0,154.0,1834.892
1834902.0,88.0,228.0,27.0,155.0,1834.902
1834912.0,86.0,228.0,27.0,230.0,1834.912
1834923.0,82.0,228.0,25.0,277.0,1834.923
1834933.0,80.0,229.0,23.0,263.0,1834.933
1834943.0,77.0,236.0,23.0,234.0,1834.943
1834953.0,77.0,225.0,20.0,223.0,1834.953
1834963.0,75.0,237.0,21.0,200.0,1834.963
1834973.0,73.0,224.0,29.0,199.0,1834.973
1834983.0,72.0,225.0,32.0,215.0,1834.983
1834993.0,70.0,237.0,30.0,228.0,1834.993
1835003.0,71.0,227.0,26.0,259.0,1835.003
1835013.0,70.0,223.0,30.0,340.0,1835.013
1835023.0,77.0,224.0,33.0,341.0,1835.023
1835033.0,75.0,216.0,30.0,352.0,1835.033
1835043.0,76.0,217.0,41.0,370.0,1835.043
1835053.0,84.0,229.0,40.0,351.0,1835.053
1835063.0,81.0,217.0,40.0,326.0,1835.063
1835073.0,81.0,215.0,41.0,342.0,1835.073
1835083.0,77.0,218.0,36.0,331.0,1835.083
1835094.0,75.0,219.0,38.0,385.0,1835.094
1835104.0,85.0,227.0,36.0,369.0,1835.104
1835114.0,83.0,225.0,42.0,351.0,1835.114
1835124.0,80.0,231.0,51.0,338.0,1835.124
1835134.0,76.0,235.0,53.0,380.0,1835.134
1835144.0,75.0,237.0,54.0,387.0,1835.144
1835154.0,72.0,242.0,50.0,421.0,1835.154
1835164.0,70.0,243.0,54.0,448.0,1835.164
1835174.0,72.0,247.0,58.0,530.0,1835.174
1835184.0,77.0,257.0,53.0,523.0,1835.184
1835194.0,77.0,256.0,47.0,500.0,1835.194
1835204.0,73.0,258.0,53.0,514.0,1835.204
1835214.0,72.0,261.0,54.0,488.0,1835.214
1835224.0,72.0,267.0,48.0,452.0,1835.224
1835234.0,75.0,266.0,42.0,440.0,1835.234
1835244.0,74.0,262.0,42.0,416.0,1835.244
1835254.0,73.0,276.0,43.0,384.0,1835.254
1835264.0,74.0,266.0,43.0,409.0,1835.264
1835274.0,71.0,261.0,44.0,421.0,1835.274
1835284.0,69.0,261.0,41.0,414.0,1835.284
1835294.0,70.0,269.0,40.0,460.0,1835.294
1835304.0,66.0,258.0,34.0,443.0,1835.304
1835314.0,67.0,256.0,34.0,443.0,1835.314
1835324.0,64.0,254.0,37.0,420.0,1835.324
1835334.0,63.0,252.0,35.0,436.0,1835.334
1835344.0,62.0,247.0,34.0,405.0,1835.344
1835354.0,60.0,245.0,30.0,407.0,1835.354
1835364.0,62.0,244.0,36.0,398.0,1835.364
1835374.0,70.0,244.0,31.0,376.0,1835.374
1835384.0,68.0,243.0,28.0,344.0,1835.384
1835394.0,66.0,239.0,26.0,316.0,1835.394
1835404.0,63.0,239.0,25.0,313.0,1835.404
1835414.0,61.0,236.0,24.0,305.0,1835.414
1835424.0,60.0,231.0,21.0,294.0,1835.424
1835435.0,59.0,227.0,21.0,291.0,1835.435
1835445.0,58.0,224.0,22.0,301.0,1835.445
1835455.0,56.0,221.0,24.0,318.0,1835.455
1835465.0,57.0,220.0,31.0,287.0,1835.465
1835475.0,57.0,222.0,30.0,285.0,1835.475
1835485.0,61.0,219.0,26.0,280.0,1835.485
1835495.0,63.0,215.0,24.0,273.0,1835.495
1835505.0,65.0,211.0,22.0,270.0,1835.505
1835515.0,64.0,209.0,20.0,260.0,1835.515
1835525.0,66.0,210.0,19.0,252.0,1835.525
1835535.0,64.0,205.0,19.0,254.0,1835.535
1835545.0,65.0,202.0,20.0,257.0,1835.545
1835555.0,63.0,200.0,20.0,277.0,1835.555
1835565.0,63.0,195.0,22.0,294.0,1835.565
1835575.0,59.0,195.0,21.0,268.0,1835.575
1835585.0,58.0,193.0,22.0,257.0,1835.585
1835595.0,56.0,191.0,18.0,241.0,1835.595
1835606.0,58.0,189.0,16.0,253.0,1835.606
1835616.0,62.0,189.0,15.0,244.0,1835.616
1835626.0,62.0,185.0,13.0,233.0,1835.626
1835636.0,62.0,184.0,14.0,214.0,1835.636
1835646.0,66.0,183.0,12.0,229.0,1835.646
1835656.0,64.0,177.0,14.0,246.0,1835.656
1835666.0,61.0,175.0,13.0,235.0,1835.666
1835676.0,60.0,178.0,12.0,233.0,1835.676
1835686.0,59.0,174.0,11.0,247.0,1835.686
1835696.0,57.0,171.0,11.0,250.0,1835.696
1835706.0,55.0,171.0,11.0,251.0,1835.706
1835716.0,55.0,174.0,12.0,228.0,1835.716
1835726.0,55.0,171.0,15.0,229.0,1835.726
1835736.0,55.0,171.0,20.0,251.0,1835.736
1835746.0,63.0,173.0,18.0,239.0,1835.746
1835756.0,61.0,169.0,17.0,237.0,1835.756
1835766.0,59.0,171.0,19.0,249.0,1835.766
1835776.0,58.0,172.0,17.0,250.0,1835.776
1835786.0,60.0,170.0,19.0,233.0,1835.786
1835796.0,57.0,168.0,15.0,241.0,1835.796
1835806.0,55.0,166.0,15.0,252.0,1835.806
1835816.0,54.0,167.0,20.0,269.0,1835.816
1835826.0,53.0,167.0,20.0,297.0,1835.826
1835836.0,53.0,166.0,20.0,274.0,1835.836
1835846.0,53.0,167.0,18.0,291.0,1835.846
1835856.0,52.0,165.0,16.0,286.0,1835.856
1835866.0,53.0,167.0,15.0,294.0,1835.866
1835876.0,52.0,170.0,16.0,284.0,1835.876
1835886.0,52.0,163.0,18.0,273.0,1835.886
1835896.0,51.0,164.0,18.0,267.0,1835.896
1835906.0,53.0,163.0,17.0,250.0,1835.906
1835916.0,55.0,163.0,16.0,252.0,1835.916
1835926.0,52.0,160.0,15.0,247.0,1835.926
1835936.0,54.0,159.0,19.0,290.0,1835.936
1835947.0,52.0,157.0,16.0,277.0,1835.947
1835957.0,52.0,157.0,17.0,294.0,1835.957
1835967.0,51.0,155.0,15.0,313.0,1835.967
1835977.0,51.0,153.0,14.0,337.0,1835.977
1835987.0,52.0,152.0,18.0,347.0,1835.987
1835997.0,51.0,153.0,16.0,318.0,1835.997
1836007.0,50.0,150.0,15.0,311.0,1836.007
1836017.0,51.0,148.0,16.0,328.0,1836.017
1836027.0,52.0,147.0,14.0,319.0,1836.027
1836037.0,52.0,144.0,14.0,299.0,1836.037
1836047.0,52.0,147.0,13.0,303.0,1836.047
1836057.0,53.0,140.0,12.0,287.0,1836.057
1836067.0,51.0,143.0,12.0,287.0,1836.067
1836077.0,51.0,140.0,12.0,276.0,1836.077
1836087.0,52.0,141.0,12.0,270.0,1836.087
1836097.0,51.0,140.0,15.0,316.0,1836.097
1836107.0,53.0,141.0,15.0,305.0,1836.107
1836118.0,51.0,136.0,12.0,288.0,1836.118
1836128.0,51.0,142.0,22.0,264.0,1836.128
1836138.0,51.0,136.0,20.0,251.0,1836.138
1836148.0,51.0,133.0,19.0,241.0,1836.148
1836158.0,50.0,132.0,22.0,275.0,1836.158
1836168.0,49.0,129.0,20.0,275.0,1836.168
1836178.0,48.0,126.0,17.0,261.0,1836.178
1836188.0,50.0,126.0,18.0,238.0,1836.188
1836198.0,49.0,125.0,16.0,218.0,1836.198
1836208.0,48.0,122.0,15.0,238.0,1836.208
1836218.0,48.0,122.0,15.0,215.0,1836.218
1836228.0,47.0,120.0,16.0,196.0,1836.228
1836238.0,48.0,120.0,13.0,177.0,1836.238
1836248.0,47.0,118.0,15.0,185.0,1836.248
1836258.0,48.0,117.0,13.0,176.0,1836.258
1836268.0,48.0,120.0,15.0,179.0,1836.268
1836278.0,49.0,116.0,16.0,175.0,1836.278
1836288.0,49.0,113.0,14.0,166.0,1836.288
1836298.0,50.0,110.0,14.0,194.0,1836.298
1836308.0,51.0,110.0,15.0,198.0,1836.308
1836318.0,52.0,107.0,16.0,202.0,1836.318
1836328.0,56.0,105.0,20.0,220.0,1836.328
1836338.0,56.0,99.0,18.0,223.0,1836.338
1836348.0,57.0,95.0,17.0,215.0,1836.348
1836358.0,57.0,92.0,17.0,195.0,1836.358
1836368.0,57.0,92.0,15.0,187.0,1836.368
1836378.0,59.0,91.0,19.0,237.0,1836.378
1836388.0,58.0,88.0,18.0,237.0,1836.388
1836398.0,59.0,87.0,17.0,239.0,1836.398
1836408.0,58.0,89.0,15.0,237.0,1836.408
1836418.0,58.0,86.0,14.0,232.0,1836.418
1836428.0,57.0,84.0,13.0,235.0,1836.428
1836438.0,56.0,82.0,11.0,220.0,1836.438
1836448.0,58.0,80.0,12.0,203.0,1836.448
1836459.0,58.0,79.0,15.0,244.0,1836.459
1836469.0,58.0,77.0,15.0,233.0,1836.469
1836479.0,58.0,76.0,14.0,215.0,1836.479
1836489.0,58.0,75.0,15.0,226.0,1836.489
1836499.0,56.0,72.0,13.0,230.0,1836.499
1836509.0,55.0,74.0,12.0,225.0,1836.509
1836519.0,57.0,70.0,12.0,202.0,1836.519
1836529.0,57.0,69.0,10.0,207.0,1836.529
1836539.0,56.0,66.0,12.0,206.0,1836.539
1836549.0,58.0,64.0,13.0,193.0,1836.549
1836559.0,58.0,64.0,11.0,211.0,1836.559
1836569.0,58.0,62.0,14.0,210.0,1836.569
1836579.0,57.0,63.0,25.0,218.0,1836.579
1836589.0,59.0,61.0,26.0,232.0,1836.589
1836599.0,60.0,58.0,24.0,218.0,1836.599
1836609.0,58.0,59.0,20.0,220.0,1836.609
1836619.0,57.0,60.0,18.0,201.0,1836.619
1836630.0,57.0,59.0,17.0,195.0,1836.63
1836640.0,58.0,56.0,15.0,180.0,1836.64
1836650.0,57.0,53.0,14.0,193.0,1836.65
1836660.0,57.0,52.0,12.0,204.0,1836.66
1836670.0,57.0,50.0,12.0,201.0,1836.67
1836680.0,57.0,50.0,10.0,193.0,1836.68
1836690.0,58.0,48.0,12.0,211.0,1836.69
1836700.0,60.0,47.0,11.0,223.0,1836.7
1836710.0,61.0,47.0,11.0,217.0,1836.71
1836720.0,61.0,44.0,9.0,207.0,1836.72
1836730.0,61.0,44.0,9.0,196.0,1836.73
1836740.0,62.0,44.0,9.0,182.0,1836.74
1836750.0,62.0,43.0,8.0,168.0,1836.75
1836760.0,64.0,46.0,8.0,195.0,1836.76
1836770.0,64.0,47.0,9.0,209.0,1836.77
1836780.0,65.0,49.0,8.0,194.0,1836.78
1836790.0,66.0,50.0,10.0,234.0,1836.79
1836800.0,64.0,48.0,16.0,231.0,1836.8
1836810.0,65.0,52.0,17.0,229.0,1836.81
1836820.0,68.0,55.0,16.0,215.0,1836.82
1836830.0,66.0,59.0,14.0,206.0,1836.83
1836840.0,68.0,61.0,13.0,193.0,1836.84
1836850.0,71.0,63.0,11.0,182.0,1836.85
1836860.0,72.0,64.0,10.0,203.0,1836.86
1836870.0,73.0,64.0,9.0,184.0,1836.87
1836880.0,72.0,66.0,12.0,177.0,1836.88
1836890.0,73.0,67.0,12.0,185.0,1836.89
1836900.0,73.0,71.0,11.0,188.0,1836.9
1836910.0,72.0,74.0,13.0,221.0,1836.91
1836920.0,72.0,76.0,12.0,215.0,1836.92
1836930.0,73.0,79.0,11.0,207.0,1836.93
1836940.0,71.0,78.0,11.0,198.0,1836.94
1836950.0,72.0,80.0,11.0,216.0,1836.95
1836960.0,72.0,87.0,12.0,219.0,1836.96
1836971.0,76.0,88.0,12.0,210.0,1836.971
1836981.0,74.0,91.0,12.0,194.0,1836.981
1836991.0,74.0,91.0,14.0,179.0,1836.991
1837001.0,77.0,93.0,16.0,192.0,1837.001
1837011.0,77.0,95.0,16.0,186.0,1837.011
1837021.0,78.0,96.0,14.0,185.0,1837.021
1837031.0,78.0,100.0,13.0,221.0,1837.031
1837041.0,82.0,100.0,13.0,227.0,1837.041
1837051.0,83.0,106.0,14.0,244.0,1837.051
1837061.0,84.0,108.0,14.0,249.0,1837.061
1837071.0,83.0,110.0,14.0,246.0,1837.071
1837081.0,83.0,112.0,17.0,271.0,1837.081
1837091.0,84.0,114.0,20.0,286.0,1837.091
1837101.0,84.0,116.0,19.0,262.0,1837.101
1837111.0,83.0,118.0,25.0,294.0,1837.111
1837121.0,84.0,122.0,24.0,281.0,1837.121
1837131.0,86.0,123.0,22.0,262.0,1837.131
1837142.0,85.0,125.0,20.0,243.0,1837.142
1837152.0,85.0,129.0,18.0,253.0,1837.152
1837162.0,84.0,131.0,19.0,248.0,1837.162
1837172.0,85.0,134.0,16.0,229.0,1837.172
1837182.0,83.0,135.0,27.0,213.0,1837.182
1837192.0,85.0,137.0,32.0,198.0,1837.192
1837202.0,86.0,138.0,30.0,189.0,1837.202
1837212.0,88.0,139.0,29.0,218.0,1837.212
1837222.0,89.0,140.0,27.0,235.0,1837.222
1837232.0,87.0,139.0,25.0,223.0,1837.232
1837242.0,87.0,138.0,27.0,207.0,1837.242
1837252.0,87.0,139.0,28.0,206.0,1837.252
1837262.0,88.0,140.0,26.0,188.0,1837.262
1837272.0,87.0,137.0,22.0,179.0,1837.272
1837282.0,88.0,140.0,21.0,196.0,1837.282
1837292.0,91.0,141.0,22.0,200.0,1837.292
1837302.0,90.0,141.0,31.0,195.0,1837.302
1837312.0,89.0,140.0,37.0,183.0,1837.312
1837322.0,89.0,141.0,33.0,176.0,1837.322
1837332.0,90.0,141.0,30.0,187.0,1837.332
1837342.0,92.0,142.0,31.0,191.0,1837.342
1837352.0,94.0,141.0,30.0,169.0,1837.352
1837362.0,94.0,144.0,28.0,152.0,1837.362
1837372.0,94.0,144.0,28.0,144.0,1837.372
1837382.0,95.0,143.0,31.0,135.0,1837.382
1837392.0,95.0,147.0,28.0,125.0,1837.392
1837402.0,97.0,149.0,31.0,122.0,1837.402
1837412.0,95.0,145.0,72.0,152.0,1837.412
1837422.0,97.0,146.0,97.0,158.0,1837.422
1837432.0,106.0,151.0,109.0,158.0,1837.432
1837442.0,103.0,148.0,141.0,187.0,1837.442
1837452.0,100.0,144.0,178.0,197.0,1837.452
1837462.0,110.0,152.0,194.0,191.0,1837.462
1837472.0,107.0,154.0,186.0,204.0,1837.472
1837483.0,104.0,145.0,230.0,254.0,1837.483
1837493.0,108.0,154.0,231.0,256.0,1837.493
1837503.0,118.0,170.0,249.0,273.0,1837.503
1837513.0,118.0,167.0,282.0,328.0,1837.513
1837523.0,118.0,170.0,268.0,304.0,1837.523
1837533.0,125.0,176.0,273.0,302.0,1837.533
1837543.0,124.0,171.0,247.0,317.0,1837.543
1837553.0,124.0,167.0,236.0,334.0,1837.553
1837563.0,125.0,166.0,238.0,325.0,1837.563
1837573.0,129.0,166.0,229.0,355.0,1837.573
1837583.0,134.0,168.0,219.0,339.0,1837.583
1837593.0,148.0,173.0,222.0,341.0,1837.593
1837603.0,150.0,170.0,225.0,343.0,1837.603
1837613.0,152.0,168.0,207.0,370.0,1837.613
1837623.0,147.0,164.0,205.0,365.0,1837.623
1837633.0,146.0,159.0,193.0,394.0,1837.633
1837643.0,145.0,159.0,195.0,425.0,1837.643
1837654.0,142.0,152.0,203.0,429.0,1837.654
1837664.0,138.0,147.0,196.0,391.0,1837.664
1837674.0,137.0,143.0,197.0,358.0,1837.674
1837684.0,137.0,139.0,179.0,332.0,1837.684
1837694.0,134.0,133.0,172.0,321.0,1837.694
1837704.0,127.0,128.0,180.0,310.0,1837.704
1837714.0,133.0,124.0,184.0,300.0,1837.714
1837724.0,142.0,123.0,168.0,277.0,1837.724
1837734.0,148.0,124.0,154.0,274.0,1837.734
1837744.0,147.0,122.0,147.0,299.0,1837.744
1837754.0,147.0,122.0,155.0,276.0,1837.754
1837764.0,144.0,122.0,159.0,264.0,1837.764
1837774.0,144.0,123.0,142.0,255.0,1837.774
1837784.0,143.0,123.0,134.0,244.0,1837.784
1837794.0,139.0,122.0,128.0,236.0,1837.794
1837804.0,141.0,124.0,119.0,221.0,1837.804
1837814.0,138.0,122.0,121.0,217.0,1837.814
1837824.0,137.0,123.0,124.0,208.0,1837.824
1837834.0,138.0,126.0,120.0,205.0,1837.834
1837844.0,138.0,128.0,120.0,200.0,1837.844
1837854.0,138.0,130.0,115.0,187.0,1837.854
1837864.0,137.0,132.0,113.0,193.0,1837.864
1837874.0,138.0,134.0,107.0,190.0,1837.874
1837884.0,137.0,135.0,104.0,180.0,1837.884
1837894.0,137.0,137.0,110.0,174.0,1837.894
1837904.0,137.0,138.0,113.0,186.0,1837.904
1837914.0,137.0,139.0,108.0,198.0,1837.914
1837924.0,138.0,143.0,104.0,205.0,1837.924
1837934.0,138.0,143.0,102.0,198.0,1837.934
1837944.0,137.0,144.0,97.0,181.0,1837.944
1837954.0,136.0,141.0,97.0,167.0,1837.954
1837964.0,137.0,146.0,94.0,164.0,1837.964
1837974.0,136.0,145.0,95.0,193.0,1837.974
1837984.0,137.0,148.0,94.0,183.0,1837.984
1837995.0,137.0,148.0,92.0,180.0,1837.995
1838005.0,137.0,148.0,90.0,170.0,1838.005
1838015.0,137.0,149.0,78.0,180.0,1838.015
1838025.0,135.0,149.0,79.0,180.0,1838.025
1838035.0,135.0,150.0,87.0,175.0,1838.035
1838045.0,135.0,151.0,85.0,168.0,1838.045
1838055.0,136.0,151.0,79.0,182.0,1838.055
1838065.0,135.0,152.0,73.0,186.0,1838.065
1838075.0,135.0,152.0,76.0,180.0,1838.075
1838085.0,133.0,154.0,71.0,176.0,1838.085
1838095.0,133.0,156.0,67.0,173.0,1838.095
1838105.0,130.0,155.0,67.0,165.0,1838.105
1838115.0,131.0,158.0,59.0,162.0,1838.115
1838125.0,130.0,156.0,62.0,151.0,1838.125
1838135.0,130.0,157.0,56.0,146.0,1838.135
1838145.0,131.0,157.0,49.0,150.0,1838.145
1838155.0,130.0,156.0,50.0,140.0,1838.155
1838166.0,129.0,158.0,54.0,147.0,1838.166
1838176.0,129.0,159.0,62.0,135.0,1838.176
1838186.0,130.0,161.0,55.0,137.0,1838.186
1838196.0,129.0,161.0,48.0,130.0,1838.196
1838206.0,129.0,162.0,47.0,124.0,1838.206
1838216.0,129.0,162.0,44.0,119.0,1838.216
1838226.0,130.0,163.0,42.0,137.0,1838.226
1838236.0,127.0,162.0,46.0,133.0,1838.236
1838246.0,123.0,158.0,73.0,137.0,1838.246
1838256.0,124.0,161.0,67.0,133.0,1838.256
1838266.0,122.0,162.0,62.0,134.0,1838.266
1838276.0,121.0,163.0,54.0,135.0,1838.276
1838286.0,119.0,163.0,51.0,133.0,1838.286
1838296.0,114.0,162.0,56.0,139.0,1838.296
1838306.0,114.0,164.0,48.0,135.0,1838.306
1838316.0,110.0,162.0,45.0,127.0,1838.316
1838326.0,109.0,161.0,50.0,116.0,1838.326
1838336.0,110.0,164.0,49.0,132.0,1838.336
1838346.0,109.0,164.0,46.0,128.0,1838.346
1838356.0,108.0,165.0,40.0,132.0,1838.356
1838366.0,105.0,164.0,44.0,123.0,1838.366
1838376.0,108.0,166.0,44.0,118.0,1838.376
1838386.0,102.0,162.0,69.0,149.0,1838.386
1838396.0,107.0,168.0,61.0,159.0,1838.396
1838406.0,109.0,172.0,54.0,161.0,1838.406
1838416.0,107.0,172.0,47.0,154.0,1838.416
1838426.0,106.0,172.0,49.0,141.0,1838.426
1838436.0,103.0,171.0,47.0,131.0,1838.436
1838446.0,103.0,174.0,48.0,144.0,1838.446
1838456.0,102.0,173.0,48.0,150.0,1838.456
1838466.0,102.0,176.0,46.0,151.0,1838.466
1838476.0,101.0,177.0,41.0,153.0,1838.476
1838486.0,97.0,176.0,43.0,148.0,1838.486
1838496.0,96.0,174.0,44.0,140.0,1838.496
1838507.0,94.0,173.0,39.0,130.0,1838.507
1838517.0,94.0,172.0,35.0,130.0,1838.517
1838527.0,93.0,170.0,33.0,127.0,1838.527
1838537.0,92.0,169.0,30.0,120.0,1838.537
1838547.0,91.0,168.0,29.0,110.0,1838.547
1838557.0,91.0,168.0,43.0,116.0,1838.557
1838567.0,90.0,167.0,39.0,119.0,1838.567
1838577.0,89.0,166.0,36.0,111.0,1838.577
1838587.0,87.0,165.0,33.0,117.0,1838.587
1838597.0,87.0,162.0,31.0,120.0,1838.597
1838607.0,85.0,158.0,44.0,124.0,1838.607
1838617.0,87.0,161.0,53.0,123.0,1838.617
1838627.0,86.0,160.0,46.0,123.0,1838.627
1838637.0,85.0,159.0,41.0,130.0,1838.637
1838647.0,84.0,157.0,37.0,127.0,1838.647
1838657.0,85.0,157.0,33.0,133.0,1838.657
1838667.0,84.0,156.0,31.0,122.0,1838.667
1838678.0,82.0,154.0,32.0,118.0,1838.678
1838688.0,81.0,153.0,28.0,112.0,1838.688
1838698.0,79.0,151.0,33.0,116.0,1838.698
1838708.0,79.0,152.0,30.0,115.0,1838.708
1838718.0,79.0,151.0,28.0,110.0,1838.718
1838728.0,78.0,151.0,26.0,117.0,1838.728
1838738.0,77.0,150.0,27.0,117.0,1838.738
1838748.0,74.0,149.0,28.0,117.0,1838.748
1838758.0,72.0,146.0,37.0,114.0,1838.758
1838768.0,71.0,145.0,35.0,110.0,1838.768
1838778.0,69.0,144.0,35.0,107.0,1838.778
1838788.0,68.0,143.0,33.0,103.0,1838.788
1838798.0,67.0,138.0,33.0,107.0,1838.798
1838808.0,65.0,138.0,34.0,102.0,1838.808
1838818.0,63.0,135.0,32.0,99.0,1838.818
1838828.0,62.0,133.0,28.0,101.0,1838.828
1838838.0,61.0,132.0,37.0,97.0,1838.838
1838848.0,61.0,131.0,34.0,105.0,1838.848
1838858.0,61.0,130.0,30.0,105.0,1838.858
1838868.0,58.0,128.0,29.0,110.0,1838.868
1838878.0,57.0,129.0,27.0,105.0,1838.878
1838888.0,59.0,130.0,25.0,107.0,1838.888
1838898.0,57.0,128.0,23.0,106.0,1838.898
1838908.0,57.0,128.0,21.0,110.0,1838.908
1838918.0,56.0,127.0,20.0,109.0,1838.918
1838928.0,56.0,128.0,22.0,104.0,1838.928
1838938.0,57.0,129.0,20.0,98.0,1838.938
1838948.0,55.0,127.0,18.0,98.0,1838.948
1838958.0,54.0,128.0,24.0,108.0,1838.958
1838968.0,55.0,128.0,26.0,109.0,1838.968
1838978.0,56.0,130.0,25.0,114.0,1838.978
1838988.0,57.0,131.0,22.0,107.0,1838.988
1838998.0,57.0,131.0,20.0,107.0,1838.998
1839008.0,57.0,131.0,18.0,108.0,1839.008
1839019.0,57.0,131.0,20.0,103.0,1839.019
1839029.0,56.0,127.0,25.0,105.0,1839.029
1839039.0,55.0,126.0,30.0,108.0,1839.039
1839049.0,55.0,129.0,28.0,112.0,1839.049
1839059.0,56.0,131.0,27.0,117.0,1839.059
1839069.0,54.0,131.0,24.0,125.0,1839.069
1839079.0,53.0,131.0,21.0,131.0,1839.079
1839089.0,55.0,129.0,21.0,123.0,1839.089
1839099.0,54.0,130.0,24.0,116.0,1839.099
1839109.0,54.0,128.0,24.0,115.0,1839.109
1839119.0,55.0,131.0,23.0,109.0,1839.119
1839129.0,56.0,133.0,20.0,107.0,1839.129
1839139.0,56.0,133.0,19.0,104.0,1839.139
1839149.0,53.0,131.0,17.0,114.0,1839.149
1839159.0,53.0,130.0,15.0,108.0,1839.159
1839169.0,53.0,127.0,20.0,110.0,1839.169
1839179.0,53.0,130.0,24.0,107.0,1839.179
1839190.0,53.0,129.0,28.0,109.0,1839.19
1839200.0,53.0,130.0,36.0,103.0,1839.2
1839210.0,56.0,131.0,34.0,98.0,1839.21
1839220.0,54.0,133.0,29.0,93.0,1839.22
1839230.0,53.0,132.0,25.0,98.0,1839.23
1839240.0,52.0,130.0,25.0,101.0,1839.24
1839250.0,51.0,132.0,24.0,104.0,1839.25
1839260.0,52.0,130.0,23.0,113.0,1839.26
1839270.0,50.0,130.0,27.0,118.0,1839.27
1839280.0,51.0,129.0,32.0,121.0,1839.28
1839290.0,52.0,129.0,30.0,118.0,1839.29
1839300.0,52.0,130.0,26.0,114.0,1839.3
1839310.0,51.0,129.0,23.0,104.0,1839.31
1839320.0,50.0,128.0,24.0,99.0,1839.32
1839330.0,49.0,128.0,27.0,95.0,1839.33
1839340.0,51.0,126.0,24.0,100.0,1839.34
1839350.0,49.0,125.0,21.0,99.0,1839.35
1839360.0,49.0,126.0,19.0,96.0,1839.36
1839370.0,49.0,125.0,28.0,92.0,1839.37
1839380.0,48.0,126.0,27.0,109.0,1839.38
1839390.0,47.0,127.0,24.0,112.0,1839.39
1839400.0,46.0,127.0,22.0,112.0,1839.4
1839410.0,47.0,127.0,22.0,111.0,1839.41
1839420.0,45.0,129.0,20.0,109.0,1839.42
1839430.0,45.0,128.0,20.0,112.0,1839.43
1839440.0,47.0,130.0,18.0,110.0,1839.44
1839450.0,46.0,128.0,22.0,109.0,1839.45
1839460.0,47.0,128.0,21.0,110.0,1839.46
1839470.0,48.0,126.0,24.0,109.0,1839.47
1839480.0,47.0,128.0,24.0,106.0,1839.48
1839490.0,47.0,126.0,22.0,108.0,1839.49
1839500.0,47.0,127.0,21.0,106.0,1839.5
1839510.0,46.0,125.0,20.0,105.0,1839.51
1839520.0,46.0,126.0,22.0,103.0,1839.52
1839531.0,46.0,122.0,29.0,108.0,1839.531
1839541.0,46.0,122.0,26.0,117.0,1839.541
1839551.0,47.0,119.0,39.0,113.0,1839.551
1839561.0,47.0,116.0,36.0,114.0,1839.561
1839571.0,46.0,116.0,39.0,121.0,1839.571
1839581.0,46.0,116.0,36.0,117.0,1839.581
1839591.0,46.0,114.0,32.0,113.0,1839.591
1839601.0,47.0,113.0,30.0,112.0,1839.601
1839611.0,47.0,111.0,33.0,120.0,1839.611
1839621.0,47.0,110.0,35.0,119.0,1839.621
1839631.0,49.0,109.0,38.0,121.0,1839.631
1839641.0,46.0,108.0,33.0,115.0,1839.641
1839651.0,47.0,107.0,30.0,112.0,1839.651
1839661.0,47.0,106.0,27.0,107.0,1839.661
1839671.0,46.0,104.0,24.0,104.0,1839.671
1839681.0,47.0,102.0,22.0,110.0,1839.681
1839691.0,48.0,103.0,20.0,106.0,1839.691
1839702.0,51.0,99.0,25.0,95.0,1839.702
1839712.0,49.0,98.0,25.0,103.0,1839.712
1839722.0,51.0,96.0,26.0,103.0,1839.722
1839732.0,52.0,96.0,25.0,104.0,1839.732
1839742.0,53.0,93.0,27.0,105.0,1839.742
1839752.0,54.0,92.0,27.0,100.0,1839.752
1839762.0,53.0,91.0,25.0,93.0,1839.762
1839772.0,53.0,90.0,23.0,96.0,1839.772
1839782.0,54.0,89.0,22.0,102.0,1839.782
1839792.0,54.0,87.0,23.0,107.0,1839.792
1839802.0,54.0,86.0,25.0,100.0,1839.802
1839812.0,53.0,84.0,32.0,99.0,1839.812
1839822.0,54.0,84.0,42.0,130.0,1839.822
1839832.0,55.0,80.0,40.0,124.0,1839.832
1839842.0,53.0,79.0,35.0,124.0,1839.842
1839852.0,55.0,77.0,31.0,114.0,1839.852
1839862.0,53.0,76.0,28.0,105.0,1839.862
1839872.0,54.0,73.0,28.0,110.0,1839.872
1839882.0,54.0,72.0,30.0,105.0,1839.882
1839892.0,53.0,73.0,27.0,103.0,1839.892
1839902.0,54.0,68.0,31.0,110.0,1839.902
1839912.0,53.0,71.0,33.0,105.0,1839.912
1839922.0,54.0,71.0,35.0,102.0,1839.922
1839932.0,53.0,69.0,33.0,107.0,1839.932
1839942.0,51.0,70.0,30.0,111.0,1839.942
1839952.0,53.0,69.0,29.0,136.0,1839.952
1839962.0,52.0,67.0,26.0,124.0,1839.962
1839972.0,52.0,66.0,34.0,116.0,1839.972
1839982.0,52.0,67.0,43.0,106.0,1839.982
1839992.0,52.0,69.0,38.0,101.0,1839.992
1840002.0,52.0,69.0,37.0,97.0,1840.002
1840012.0,52.0,69.0,34.0,100.0,1840.012
1840022.0,52.0,70.0,32.0,96.0,1840.022
1840032.0,51.0,71.0,33.0,89.0,1840.032
1840043.0,51.0,70.0,34.0,98.0,1840.043
1840053.0,52.0,72.0,32.0,111.0,1840.053
1840063.0,52.0,73.0,27.0,119.0,1840.063
1840073.0,51.0,74.0,25.0,112.0,1840.073
1840083.0,51.0,73.0,27.0,112.0,1840.083
1840093.0,52.0,71.0,29.0,112.0,1840.093
1840103.0,51.0,72.0,26.0,110.0,1840.103
1840113.0,51.0,72.0,26.0,106.0,1840.113
1840123.0,50.0,70.0,23.0,102.0,1840.123
1840133.0,51.0,68.0,21.0,102.0,1840.133
1840143.0,51.0,66.0,19.0,96.0,1840.143
1840153.0,51.0,65.0,19.0,92.0,1840.153
1840163.0,50.0,63.0,20.0,93.0,1840.163
1840173.0,50.0,62.0,19.0,98.0,1840.173
1840183.0,50.0,59.0,27.0,100.0,1840.183
1840193.0,49.0,60.0,29.0,103.0,1840.193
1840203.0,48.0,58.0,26.0,93.0,1840.203
1840214.0,48.0,57.0,24.0,98.0,1840.214
1840224.0,48.0,55.0,22.0,95.0,1840.224
1840234.0,47.0,53.0,19.0,100.0,1840.234
1840244.0,50.0,51.0,19.0,113.0,1840.244
1840254.0,48.0,50.0,22.0,114.0,1840.254
1840264.0,48.0,48.0,20.0,112.0,1840.264
1840274.0,49.0,48.0,27.0,114.0,1840.274
1840284.0,47.0,46.0,23.0,108.0,1840.284
1840294.0,49.0,44.0,23.0,100.0,1840.294
1840304.0,48.0,44.0,20.0,95.0,1840.304
1840314.0,46.0,42.0,19.0,92.0,1840.314
1840324.0,47.0,42.0,17.0,86.0,1840.324
1840334.0,46.0,42.0,16.0,98.0,1840.334
1840344.0,47.0,42.0,17.0,96.0,1840.344
1840354.0,48.0,43.0,24.0,92.0,1840.354
1840364.0,48.0,42.0,21.0,86.0,1840.364
1840374.0,50.0,41.0,20.0,89.0,1840.374
1840384.0,50.0,43.0,19.0,86.0,1840.384
1840394.0,50.0,41.0,18.0,93.0,1840.394
1840404.0,50.0,42.0,18.0,92.0,1840.404
1840414.0,51.0,42.0,19.0,90.0,1840.414
1840424.0,49.0,41.0,16.0,90.0,1840.424
1840434.0,49.0,42.0,15.0,88.0,1840.434
1840444.0,50.0,43.0,27.0,91.0,1840.444
1840454.0,48.0,45.0,24.0,97.0,1840.454
1840464.0,48.0,45.0,22.0,97.0,1840.464
1840474.0,49.0,46.0,22.0,97.0,1840.474
1840484.0,50.0,45.0,22.0,96.0,1840.484
1840494.0,51.0,46.0,27.0,99.0,1840.494
1840504.0,51.0,47.0,24.0,93.0,1840.504
1840514.0,53.0,47.0,25.0,92.0,1840.514
1840524.0,52.0,48.0,24.0,89.0,1840.524
1840534.0,52.0,47.0,26.0,88.0,1840.534
1840544.0,54.0,49.0,26.0,93.0,1840.544
1840555.0,53.0,50.0,24.0,98.0,1840.555
1840565.0,54.0,48.0,22.0,97.0,1840.565
1840575.0,54.0,50.0,21.0,88.0,1840.575
1840585.0,54.0,48.0,19.0,90.0,1840.585
1840595.0,56.0,50.0,21.0,90.0,1840.595
1840605.0,55.0,49.0,22.0,84.0,1840.605
1840615.0,55.0,49.0,20.0,86.0,1840.615
1840625.0,54.0,48.0,18.0,82.0,1840.625
1840635.0,55.0,46.0,17.0,94.0,1840.635
1840645.0,54.0,46.0,24.0,95.0,1840.645
1840655.0,52.0,48.0,20.0,92.0,1840.655
1840665.0,55.0,49.0,30.0,88.0,1840.665
1840675.0,54.0,48.0,27.0,90.0,1840.675
1840685.0,53.0,47.0,24.0,89.0,1840.685
1840695.0,54.0,45.0,22.0,80.0,1840.695
1840705.0,54.0,44.0,20.0,84.0,1840.705
1840715.0,54.0,42.0,19.0,84.0,1840.715
1840726.0,53.0,42.0,19.0,83.0,1840.726
1840736.0,56.0,41.0,23.0,85.0,1840.736
1840746.0,56.0,43.0,32.0,93.0,1840.746
1840756.0,55.0,44.0,29.0,96.0,1840.756
1840766.0,55.0,43.0,25.0,103.0,1840.766
1840776.0,55.0,42.0,23.0,98.0,1840.776
1840786.0,55.0,40.0,21.0,92.0,1840.786
1840796.0,56.0,40.0,20.0,88.0,1840.796
1840806.0,57.0,40.0,20.0,88.0,1840.806
1840816.0,57.0,39.0,18.0,91.0,1840.816
1840826.0,57.0,39.0,16.0,87.0,1840.826
1840836.0,58.0,39.0,15.0,83.0,1840.836
1840846.0,59.0,40.0,15.0,89.0,1840.846
1840856.0,57.0,39.0,13.0,94.0,1840.856
1840866.0,57.0,38.0,15.0,89.0,1840.866
1840876.0,57.0,40.0,25.0,88.0,1840.876
1840886.0,56.0,40.0,24.0,90.0,1840.886
1840896.0,54.0,39.0,20.0,84.0,1840.896
1840906.0,52.0,38.0,19.0,81.0,1840.906
1840916.0,53.0,38.0,20.0,82.0,1840.916
1840926.0,52.0,38.0,21.0,82.0,1840.926
1840936.0,52.0,37.0,19.0,79.0,1840.936
1840946.0,51.0,39.0,17.0,83.0,1840.946
1840956.0,51.0,38.0,17.0,80.0,1840.956
1840966.0,50.0,38.0,15.0,79.0,1840.966
1840976.0,50.0,38.0,16.0,76.0,1840.976
1840986.0,50.0,41.0,34.0,73.0,1840.986
1840996.0,50.0,40.0,39.0,80.0,1840.996
1841006.0,49.0,39.0,36.0,82.0,1841.006
1841016.0,49.0,40.0,37.0,81.0,1841.016
1841026.0,49.0,40.0,33.0,80.0,1841.026
1841036.0,49.0,38.0,31.0,74.0,1841.036
1841046.0,49.0,38.0,27.0,73.0,1841.046
1841056.0,49.0,38.0,28.0,72.0,1841.056
1841067.0,50.0,38.0,30.0,74.0,1841.067
1841077.0,49.0,38.0,27.0,74.0,1841.077
1841087.0,49.0,40.0,33.0,75.0,1841.087
1841097.0,49.0,40.0,33.0,73.0,1841.097
1841107.0,50.0,38.0,29.0,70.0,1841.107
1841117.0,49.0,39.0,28.0,68.0,1841.117
1841127.0,50.0,39.0,26.0,64.0,1841.127
1841137.0,49.0,38.0,24.0,68.0,1841.137
1841147.0,50.0,40.0,21.0,70.0,1841.147
1841157.0,50.0,39.0,19.0,75.0,1841.157
1841167.0,49.0,40.0,19.0,74.0,1841.167
1841177.0,49.0,39.0,17.0,75.0,1841.177
1841187.0,48.0,38.0,17.0,75.0,1841.187
1841197.0,47.0,40.0,21.0,84.0,1841.197
1841207.0,49.0,42.0,23.0,85.0,1841.207
1841217.0,48.0,43.0,26.0,89.0,1841.217
1841227.0,48.0,43.0,24.0,84.0,1841.227
1841238.0,47.0,43.0,21.0,83.0,1841.238
1841248.0,49.0,44.0,22.0,81.0,1841.248
1841258.0,50.0,43.0,24.0,81.0,1841.258
1841268.0,48.0,44.0,20.0,79.0,1841.268
1841278.0,51.0,46.0,20.0,78.0,1841.278
1841288.0,48.0,44.0,23.0,82.0,1841.288
1841298.0,49.0,47.0,33.0,96.0,1841.298
1841308.0,49.0,47.0,30.0,95.0,1841.308
1841318.0,47.0,47.0,26.0,92.0,1841.318
1841328.0,49.0,48.0,25.0,96.0,1841.328
1841338.0,47.0,50.0,21.0,94.0,1841.338
1841348.0,49.0,53.0,37.0,89.0,1841.348
1841358.0,48.0,53.0,35.0,89.0,1841.358
1841368.0,48.0,55.0,35.0,90.0,1841.368
1841378.0,48.0,55.0,34.0,88.0,1841.378
1841388.0,47.0,56.0,31.0,85.0,1841.388
1841398.0,46.0,57.0,26.0,86.0,1841.398
1841408.0,46.0,58.0,25.0,84.0,1841.408
1841418.0,46.0,60.0,22.0,84.0,1841.418
1841428.0,48.0,63.0,21.0,86.0,1841.428
1841438.0,46.0,65.0,19.0,89.0,1841.438
1841448.0,47.0,65.0,19.0,84.0,1841.448
1841458.0,47.0,67.0,19.0,81.0,1841.458
1841468.0,48.0,69.0,17.0,95.0,1841.468
1841478.0,51.0,70.0,31.0,95.0,1841.478
1841488.0,50.0,69.0,30.0,99.0,1841.488
1841498.0,51.0,69.0,26.0,92.0,1841.498
1841508.0,51.0,70.0,24.0,95.0,1841.508
1841518.0,51.0,71.0,23.0,94.0,1841.518
1841528.0,51.0,71.0,23.0,88.0,1841.528
1841538.0,51.0,73.0,20.0,96.0,1841.538
1841548.0,54.0,71.0,29.0,102.0,1841.548
1841558.0,52.0,69.0,24.0,98.0,1841.558
1841568.0,51.0,68.0,23.0,100.0,1841.568
1841579.0,51.0,67.0,20.0,94.0,1841.579
1841589.0,49.0,66.0,20.0,106.0,1841.589
1841599.0,49.0,66.0,21.0,103.0,1841.599
1841609.0,49.0,67.0,20.0,110.0,1841.609
1841619.0,50.0,66.0,22.0,107.0,1841.619
1841629.0,51.0,67.0,33.0,103.0,1841.629
1841639.0,50.0,64.0,32.0,94.0,1841.639
1841649.0,50.0,63.0,30.0,90.0,1841.649
1841659.0,49.0,64.0,27.0,98.0,1841.659
1841669.0,48.0,62.0,25.0,99.0,1841.669
1841679.0,48.0,61.0,22.0,94.0,1841.679
1841689.0,48.0,62.0,22.0,94.0,1841.689
1841699.0,49.0,63.0,25.0,88.0,1841.699
1841709.0,50.0,64.0,28.0,98.0,1841.709
1841719.0,50.0,61.0,30.0,94.0,1841.719
1841729.0,48.0,59.0,25.0,101.0,1841.729
1841739.0,47.0,58.0,22.0,97.0,1841.739
1841750.0,47.0,59.0,22.0,96.0,1841.75
1841760.0,49.0,58.0,19.0,89.0,1841.76
1841770.0,49.0,58.0,29.0,88.0,1841.77
1841780.0,48.0,56.0,34.0,86.0,1841.78
1841790.0,48.0,56.0,40.0,103.0,1841.79
1841800.0,47.0,54.0,35.0,106.0,1841.8
1841810.0,48.0,57.0,32.0,95.0,1841.81
1841820.0,48.0,55.0,32.0,92.0,1841.82
1841830.0,47.0,55.0,28.0,87.0,1841.83
1841840.0,49.0,56.0,26.0,85.0,1841.84
1841850.0,48.0,55.0,22.0,91.0,1841.85
1841860.0,48.0,57.0,22.0,92.0,1841.86
1841870.0,49.0,57.0,31.0,85.0,1841.87
1841880.0,47.0,55.0,28.0,82.0,1841.88
1841890.0,46.0,54.0,24.0,78.0,1841.89
1841900.0,47.0,54.0,24.0,74.0,1841.9
1841910.0,45.0,54.0,22.0,76.0,1841.91
1841920.0,47.0,53.0,20.0,107.0,1841.92
1841930.0,45.0,52.0,20.0,100.0,1841.93
1841940.0,46.0,53.0,19.0,95.0,1841.94
1841950.0,46.0,52.0,19.0,93.0,1841.95
1841960.0,45.0,53.0,19.0,86.0,1841.96
1841970.0,45.0,53.0,19.0,86.0,1841.97
1841980.0,46.0,54.0,25.0,90.0,1841.98
1841990.0,47.0,53.0,37.0,89.0,1841.99
1842000.0,46.0,54.0,32.0,83.0,1842.0
1842010.0,47.0,54.0,32.0,80.0,1842.01
1842020.0,49.0,53.0,31.0,80.0,1842.02
1842030.0,47.0,57.0,30.0,88.0,1842.03
1842040.0,49.0,56.0,37.0,101.0,1842.04
1842050.0,48.0,57.0,37.0,101.0,1842.05
1842060.0,47.0,57.0,34.0,98.0,1842.06
1842070.0,46.0,56.0,31.0,92.0,1842.07
1842080.0,47.0,56.0,27.0,95.0,1842.08
1842091.0,46.0,56.0,26.0,91.0,1842.091
1842101.0,46.0,57.0,24.0,101.0,1842.101
1842111.0,46.0,58.0,22.0,97.0,1842.111
1842121.0,46.0,58.0,29.0,99.0,1842.121
1842131.0,45.0,57.0,26.0,94.0,1842.131
1842141.0,47.0,57.0,24.0,93.0,1842.141
1842151.0,45.0,57.0,20.0,96.0,1842.151
1842161.0,45.0,58.0,20.0,104.0,1842.161
1842171.0,45.0,56.0,18.0,103.0,1842.171
1842181.0,45.0,57.0,16.0,97.0,1842.181
1842191.0,46.0,57.0,22.0,97.0,1842.191
1842201.0,45.0,57.0,20.0,98.0,1842.201
1842211.0,47.0,58.0,18.0,90.0,1842.211
1842221.0,48.0,60.0,19.0,93.0,1842.221
1842231.0,47.0,59.0,18.0,90.0,1842.231
1842241.0,49.0,59.0,21.0,85.0,1842.241
1842251.0,49.0,63.0,31.0,83.0,1842.251
1842262.0,50.0,63.0,36.0,85.0,1842.262
1842272.0,50.0,63.0,31.0,88.0,1842.272
1842282.0,50.0,64.0,27.0,85.0,1842.282
1842292.0,52.0,67.0,26.0,87.0,1842.292
1842302.0,50.0,65.0,23.0,90.0,1842.302
1842312.0,51.0,65.0,21.0,91.0,1842.312
1842322.0,50.0,63.0,18.0,89.0,1842.322
1842332.0,48.0,64.0,17.0,88.0,1842.332
1842342.0,48.0,65.0,23.0,86.0,1842.342
1842352.0,47.0,65.0,21.0,82.0,1842.352
1842362.0,48.0,66.0,26.0,76.0,1842.362
1842372.0,47.0,64.0,22.0,73.0,1842.372
1842382.0,47.0,65.0,25.0,80.0,1842.382
1842392.0,48.0,63.0,22.0,77.0,1842.392
1842402.0,47.0,64.0,19.0,77.0,1842.402
1842412.0,47.0,63.0,19.0,77.0,1842.412
1842422.0,46.0,60.0,20.0,77.0,1842.422
1842432.0,46.0,59.0,18.0,73.0,1842.432
1842442.0,45.0,58.0,17.0,69.0,1842.442
1842452.0,46.0,59.0,15.0,72.0,1842.452
1842462.0,46.0,59.0,16.0,86.0,1842.462
1842472.0,45.0,61.0,13.0,92.0,1842.472
1842482.0,44.0,60.0,17.0,90.0,1842.482
1842492.0,44.0,60.0,20.0,94.0,1842.492
1842502.0,44.0,59.0,21.0,90.0,1842.502
1842512.0,46.0,62.0,25.0,84.0,1842.512
1842522.0,45.0,59.0,36.0,86.0,1842.522
1842532.0,46.0,58.0,34.0,83.0,1842.532
1842542.0,45.0,57.0,29.0,80.0,1842.542
1842552.0,45.0,56.0,26.0,76.0,1842.552
1842562.0,46.0,55.0,25.0,87.0,1842.562
1842572.0,46.0,54.0,22.0,90.0,1842.572
1842582.0,46.0,54.0,24.0,91.0,1842.582
1842592.0,46.0,54.0,30.0,87.0,1842.592
1842603.0,46.0,51.0,28.0,91.0,1842.603
1842613.0,47.0,52.0,36.0,92.0,1842.613
1842623.0,46.0,51.0,32.0,82.0,1842.623
1842633.0,47.0,50.0,29.0,76.0,1842.633
1842643.0,46.0,52.0,27.0,89.0,1842.643
1842653.0,46.0,49.0,31.0,88.0,1842.653
