time (ms),signal 0,signal 1,signal 2,signal3,time (sec)
1799843.0,242.0,56.0,166.0,104.0,1799.843
1799853.0,248.0,57.0,169.0,98.0,1799.853
1799863.0,253.0,58.0,164.0,98.0,1799.863
1799873.0,257.0,58.0,165.0,98.0,1799.873
1799883.0,259.0,58.0,167.0,94.0,1799.883
1799894.0,258.0,61.0,176.0,90.0,1799.894
1799904.0,260.0,63.0,170.0,90.0,1799.904
1799914.0,257.0,65.0,171.0,84.0,1799.914
1799924.0,253.0,68.0,171.0,84.0,1799.924
1799934.0,252.0,71.0,169.0,79.0,1799.934
1799944.0,248.0,76.0,168.0,75.0,1799.944
1799954.0,246.0,82.0,170.0,80.0,1799.954
1799964.0,244.0,87.0,172.0,89.0,1799.964
1799974.0,240.0,93.0,175.0,83.0,1799.974
1799984.0,237.0,97.0,170.0,95.0,1799.984
1799994.0,232.0,102.0,166.0,96.0,1799.994
1800004.0,229.0,102.0,176.0,94.0,1800.004
1800014.0,226.0,103.0,175.0,94.0,1800.014
1800024.0,224.0,104.0,175.0,95.0,1800.024
1800034.0,221.0,106.0,177.0,88.0,1800.034
1800044.0,216.0,107.0,180.0,85.0,1800.044
1800054.0,212.0,109.0,178.0,79.0,1800.054
1800064.0,212.0,108.0,178.0,77.0,1800.064
1800074.0,208.0,108.0,181.0,74.0,1800.074
1800084.0,206.0,106.0,180.0,74.0,1800.084
1800094.0,201.0,108.0,179.0,77.0,1800.094
1800104.0,199.0,109.0,183.0,77.0,1800.104
1800114.0,196.0,108.0,182.0,75.0,1800.114
1800124.0,193.0,110.0,184.0,73.0,1800.124
1800134.0,190.0,112.0,180.0,86.0,1800.134
1800144.0,188.0,117.0,185.0,90.0,1800.144
1800154.0,187.0,116.0,181.0,92.0,1800.154
1800164.0,184.0,120.0,180.0,85.0,1800.164
1800174.0,181.0,125.0,173.0,80.0,1800.174
1800184.0,177.0,131.0,168.0,80.0,1800.184
1800194.0,173.0,136.0,167.0,84.0,1800.194
1800204.0,171.0,137.0,166.0,97.0,1800.204
1800214.0,166.0,142.0,168.0,91.0,1800.214
1800224.0,162.0,144.0,168.0,86.0,1800.224
1800235.0,158.0,146.0,162.0,93.0,1800.235
1800245.0,157.0,149.0,156.0,92.0,1800.245
1800255.0,154.0,153.0,152.0,98.0,1800.255
1800265.0,152.0,155.0,151.0,91.0,1800.265
1800275.0,150.0,157.0,151.0,82.0,1800.275
1800285.0,148.0,161.0,152.0,78.0,1800.285
1800295.0,145.0,164.0,155.0,76.0,1800.295
1800305.0,142.0,167.0,159.0,71.0,1800.305
1800315.0,140.0,168.0,155.0,75.0,1800.315
1800325.0,140.0,170.0,154.0,81.0,1800.325
1800335.0,136.0,172.0,160.0,78.0,1800.335
1800345.0,135.0,172.0,154.0,73.0,1800.345
1800355.0,133.0,173.0,155.0,71.0,1800.355
1800365.0,131.0,174.0,152.0,75.0,1800.365
1800375.0,129.0,174.0,150.0,72.0,1800.375
1800385.0,126.0,175.0,147.0,77.0,1800.385
1800395.0,124.0,176.0,143.0,75.0,1800.395
1800406.0,122.0,176.0,135.0,80.0,1800.406
1800416.0,119.0,176.0,134.0,82.0,1800.416
1800426.0,117.0,176.0,127.0,84.0,1800.426
1800436.0,115.0,178.0,125.0,92.0,1800.436
1800446.0,113.0,178.0,119.0,86.0,1800.446
1800456.0,110.0,179.0,112.0,85.0,1800.456
1800466.0,109.0,180.0,111.0,92.0,1800.466
1800476.0,109.0,181.0,108.0,93.0,1800.476
1800486.0,107.0,183.0,101.0,87.0,1800.486
1800496.0,106.0,185.0,96.0,97.0,1800.496
1800506.0,107.0,187.0,96.0,108.0,1800.506
1800516.0,106.0,188.0,95.0,107.0,1800.516
1800526.0,105.0,192.0,101.0,102.0,1800.526
1800536.0,104.0,194.0,99.0,105.0,1800.536
1800546.0,105.0,195.0,95.0,111.0,1800.546
1800556.0,103.0,198.0,90.0,108.0,1800.556
1800566.0,103.0,201.0,92.0,117.0,1800.566
1800576.0,103.0,204.0,90.0,119.0,1800.576
1800586.0,103.0,208.0,85.0,119.0,1800.586
1800596.0,104.0,209.0,88.0,130.0,1800.596
1800606.0,101.0,212.0,89.0,133.0,1800.606
1800616.0,102.0,211.0,93.0,130.0,1800.616
1800626.0,102.0,212.0,88.0,139.0,1800.626
1800636.0,100.0,214.0,86.0,130.0,1800.636
1800646.0,99.0,213.0,88.0,138.0,1800.646
1800656.0,98.0,214.0,90.0,141.0,1800.656
1800666.0,98.0,212.0,93.0,140.0,1800.666
1800676.0,95.0,214.0,94.0,136.0,1800.676
1800686.0,95.0,212.0,91.0,137.0,1800.686
1800696.0,94.0,212.0,91.0,140.0,1800.696
1800706.0,92.0,212.0,83.0,138.0,1800.706
1800716.0,91.0,211.0,79.0,141.0,1800.716
1800726.0,89.0,212.0,80.0,135.0,1800.726
1800736.0,87.0,211.0,78.0,142.0,1800.736
1800747.0,86.0,211.0,75.0,140.0,1800.747
1800757.0,83.0,210.0,73.0,138.0,1800.757
1800767.0,80.0,210.0,75.0,145.0,1800.767
1800777.0,78.0,209.0,70.0,150.0,1800.777
1800787.0,76.0,209.0,67.0,142.0,1800.787
1800797.0,74.0,209.0,64.0,151.0,1800.797
1800807.0,70.0,210.0,59.0,155.0,1800.807
1800817.0,68.0,211.0,55.0,157.0,1800.817
1800827.0,65.0,212.0,55.0,157.0,1800.827
1800837.0,63.0,213.0,56.0,155.0,1800.837
1800847.0,60.0,215.0,55.0,151.0,1800.847
1800857.0,58.0,217.0,50.0,153.0,1800.857
1800867.0,56.0,218.0,47.0,153.0,1800.867
1800877.0,54.0,220.0,42.0,157.0,1800.877
1800887.0,53.0,223.0,43.0,152.0,1800.887
1800897.0,53.0,227.0,45.0,157.0,1800.897
1800907.0,51.0,229.0,42.0,154.0,1800.907
1800918.0,53.0,230.0,41.0,148.0,1800.918
1800928.0,52.0,233.0,39.0,155.0,1800.928
1800938.0,54.0,237.0,36.0,157.0,1800.938
1800948.0,54.0,240.0,40.0,152.0,1800.948
1800958.0,55.0,243.0,49.0,158.0,1800.958
1800968.0,55.0,242.0,46.0,154.0,1800.968
1800978.0,53.0,242.0,40.0,152.0,1800.978
1800988.0,57.0,244.0,35.0,151.0,1800.988
1800998.0,57.0,246.0,32.0,157.0,1800.998
1801008.0,59.0,249.0,29.0,152.0,1801.008
1801018.0,61.0,252.0,32.0,146.0,1801.018
1801028.0,63.0,254.0,27.0,149.0,1801.028
1801038.0,65.0,254.0,26.0,145.0,1801.038
1801048.0,67.0,257.0,30.0,149.0,1801.048
1801058.0,70.0,258.0,41.0,149.0,1801.058
1801068.0,71.0,259.0,36.0,149.0,1801.068
1801078.0,71.0,259.0,34.0,150.0,1801.078
1801088.0,72.0,259.0,37.0,144.0,1801.088
1801098.0,72.0,259.0,32.0,137.0,1801.098
1801108.0,77.0,264.0,31.0,126.0,1801.108
1801118.0,78.0,266.0,38.0,121.0,1801.118
1801128.0,77.0,265.0,33.0,123.0,1801.128
1801138.0,82.0,265.0,30.0,117.0,1801.138
1801148.0,84.0,268.0,27.0,129.0,1801.148
1801158.0,86.0,269.0,25.0,126.0,1801.158
1801168.0,88.0,272.0,32.0,129.0,1801.168
1801178.0,88.0,270.0,43.0,133.0,1801.178
1801188.0,88.0,271.0,47.0,126.0,1801.188
1801198.0,90.0,271.0,51.0,123.0,1801.198
1801208.0,92.0,270.0,49.0,133.0,1801.208
1801218.0,92.0,270.0,52.0,144.0,1801.218
1801228.0,92.0,269.0,59.0,155.0,1801.228
1801238.0,96.0,270.0,61.0,171.0,1801.238
1801248.0,95.0,267.0,54.0,183.0,1801.248
1801259.0,96.0,266.0,51.0,166.0,1801.259
1801269.0,98.0,269.0,49.0,160.0,1801.269
1801279.0,101.0,270.0,54.0,155.0,1801.279
1801289.0,100.0,270.0,52.0,174.0,1801.289
1801299.0,103.0,271.0,76.0,196.0,1801.299
1801309.0,102.0,271.0,68.0,197.0,1801.309
1801319.0,104.0,274.0,66.0,195.0,1801.319
1801329.0,103.0,273.0,63.0,192.0,1801.329
1801339.0,105.0,274.0,56.0,204.0,1801.339
1801349.0,106.0,276.0,57.0,200.0,1801.349
1801359.0,109.0,278.0,57.0,202.0,1801.359
1801369.0,108.0,278.0,60.0,208.0,1801.369
1801379.0,109.0,277.0,54.0,221.0,1801.379
1801389.0,110.0,280.0,49.0,227.0,1801.389
1801399.0,111.0,282.0,50.0,227.0,1801.399
1801409.0,113.0,282.0,53.0,250.0,1801.409
1801419.0,115.0,282.0,52.0,268.0,1801.419
1801430.0,114.0,279.0,51.0,295.0,1801.43
1801440.0,114.0,279.0,54.0,322.0,1801.44
1801450.0,114.0,276.0,48.0,344.0,1801.45
1801460.0,115.0,276.0,45.0,347.0,1801.46
1801470.0,115.0,274.0,43.0,375.0,1801.47
1801480.0,117.0,274.0,46.0,394.0,1801.48
1801490.0,117.0,272.0,47.0,410.0,1801.49
1801500.0,118.0,269.0,55.0,435.0,1801.5
1801510.0,117.0,268.0,54.0,452.0,1801.51
1801520.0,118.0,267.0,53.0,462.0,1801.52
1801530.0,121.0,265.0,57.0,479.0,1801.53
1801540.0,122.0,264.0,57.0,495.0,1801.54
1801550.0,123.0,260.0,58.0,491.0,1801.55
1801560.0,124.0,258.0,59.0,504.0,1801.56
1801570.0,125.0,255.0,56.0,524.0,1801.57
1801580.0,127.0,253.0,60.0,539.0,1801.58
1801590.0,127.0,251.0,61.0,558.0,1801.59
1801600.0,126.0,247.0,66.0,574.0,1801.6
1801610.0,127.0,245.0,67.0,589.0,1801.61
1801620.0,128.0,242.0,72.0,603.0,1801.62
1801630.0,130.0,241.0,72.0,615.0,1801.63
1801640.0,130.0,239.0,75.0,624.0,1801.64
1801650.0,127.0,233.0,74.0,634.0,1801.65
1801660.0,122.0,233.0,74.0,635.0,1801.66
1801670.0,126.0,232.0,77.0,640.0,1801.67
1801680.0,125.0,227.0,80.0,641.0,1801.68
1801690.0,129.0,229.0,85.0,637.0,1801.69
1801700.0,128.0,226.0,89.0,626.0,1801.7
1801710.0,135.0,227.0,92.0,627.0,1801.71
1801720.0,132.0,224.0,97.0,626.0,1801.72
1801730.0,136.0,228.0,104.0,618.0,1801.73
1801740.0,153.0,234.0,115.0,608.0,1801.74
1801750.0,174.0,244.0,120.0,601.0,1801.75
1801760.0,192.0,246.0,128.0,590.0,1801.76
1801771.0,184.0,242.0,131.0,591.0,1801.771
1801781.0,174.0,240.0,136.0,581.0,1801.781
1801791.0,172.0,242.0,142.0,582.0,1801.791
1801801.0,175.0,247.0,149.0,579.0,1801.801
1801811.0,165.0,248.0,160.0,552.0,1801.811
1801821.0,163.0,251.0,165.0,568.0,1801.821
1801831.0,162.0,257.0,174.0,566.0,1801.831
1801841.0,159.0,263.0,181.0,556.0,1801.841
1801851.0,162.0,269.0,184.0,542.0,1801.851
1801861.0,159.0,273.0,187.0,528.0,1801.861
1801871.0,157.0,277.0,185.0,536.0,1801.871
1801881.0,154.0,281.0,183.0,534.0,1801.881
1801891.0,160.0,300.0,195.0,524.0,1801.891
1801901.0,157.0,300.0,195.0,528.0,1801.901
1801911.0,156.0,307.0,204.0,508.0,1801.911
1801921.0,155.0,304.0,201.0,509.0,1801.921
1801931.0,149.0,301.0,202.0,467.0,1801.931
1801942.0,155.0,299.0,201.0,492.0,1801.942
1801952.0,153.0,297.0,199.0,454.0,1801.952
1801962.0,148.0,295.0,208.0,521.0,1801.962
1801972.0,144.0,296.0,218.0,527.0,1801.972
1801982.0,141.0,295.0,207.0,578.0,1801.982
1801992.0,139.0,292.0,205.0,583.0,1801.992
1802002.0,139.0,291.0,198.0,589.0,1802.002
1802012.0,138.0,288.0,195.0,572.0,1802.012
1802022.0,139.0,289.0,197.0,549.0,1802.022
1802032.0,139.0,293.0,200.0,526.0,1802.032
1802042.0,139.0,288.0,201.0,526.0,1802.042
1802052.0,140.0,296.0,202.0,517.0,1802.052
1802062.0,140.0,284.0,196.0,479.0,1802.062
1802072.0,140.0,280.0,199.0,544.0,1802.072
1802082.0,141.0,277.0,194.0,512.0,1802.082
1802092.0,139.0,270.0,194.0,578.0,1802.092
1802102.0,143.0,270.0,180.0,596.0,1802.102
1802112.0,139.0,268.0,173.0,590.0,1802.112
1802122.0,136.0,271.0,171.0,578.0,1802.122
1802132.0,133.0,274.0,167.0,552.0,1802.132
1802142.0,135.0,282.0,167.0,526.0,1802.142
1802152.0,134.0,288.0,166.0,500.0,1802.152
1802162.0,135.0,298.0,170.0,472.0,1802.162
1802172.0,134.0,298.0,168.0,450.0,1802.172
1802182.0,133.0,303.0,168.0,426.0,1802.182
1802192.0,135.0,308.0,165.0,407.0,1802.192
1802202.0,135.0,313.0,165.0,393.0,1802.202
1802212.0,136.0,316.0,164.0,377.0,1802.212
1802222.0,136.0,319.0,157.0,365.0,1802.222
1802232.0,134.0,322.0,157.0,351.0,1802.232
1802242.0,142.0,346.0,164.0,329.0,1802.242
1802252.0,136.0,328.0,158.0,307.0,1802.252
1802262.0,136.0,328.0,156.0,317.0,1802.262
1802272.0,139.0,337.0,169.0,367.0,1802.272
1802283.0,132.0,327.0,156.0,442.0,1802.283
1802293.0,130.0,327.0,149.0,461.0,1802.293
1802303.0,141.0,337.0,154.0,481.0,1802.303
1802313.0,133.0,328.0,140.0,477.0,1802.313
1802323.0,140.0,333.0,130.0,509.0,1802.323
1802333.0,150.0,340.0,128.0,508.0,1802.333
1802343.0,153.0,356.0,130.0,535.0,1802.343
1802353.0,150.0,368.0,131.0,632.0,1802.353
1802363.0,151.0,380.0,135.0,667.0,1802.363
1802373.0,143.0,381.0,121.0,667.0,1802.373
1802383.0,141.0,389.0,121.0,667.0,1802.383
1802393.0,140.0,405.0,120.0,667.0,1802.393
1802403.0,144.0,406.0,119.0,646.0,1802.403
1802413.0,144.0,408.0,111.0,650.0,1802.413
1802423.0,146.0,415.0,99.0,610.0,1802.423
1802433.0,145.0,426.0,108.0,603.0,1802.433
1802443.0,149.0,441.0,109.0,614.0,1802.443
1802454.0,145.0,447.0,99.0,604.0,1802.454
1802464.0,143.0,442.0,101.0,593.0,1802.464
1802474.0,142.0,445.0,96.0,614.0,1802.474
1802484.0,137.0,446.0,96.0,579.0,1802.484
1802494.0,146.0,462.0,110.0,596.0,1802.494
1802504.0,144.0,468.0,100.0,617.0,1802.504
1802514.0,143.0,471.0,111.0,623.0,1802.514
1802524.0,143.0,480.0,127.0,636.0,1802.524
1802534.0,145.0,483.0,136.0,608.0,1802.534
1802544.0,140.0,484.0,128.0,600.0,1802.544
1802554.0,136.0,483.0,119.0,561.0,1802.554
1802564.0,140.0,487.0,115.0,513.0,1802.564
1802574.0,141.0,490.0,115.0,469.0,1802.574
1802584.0,146.0,495.0,124.0,495.0,1802.584
1802594.0,156.0,498.0,113.0,509.0,1802.594
1802604.0,151.0,493.0,114.0,539.0,1802.604
1802614.0,149.0,489.0,100.0,508.0,1802.614
1802624.0,150.0,487.0,92.0,492.0,1802.624
1802634.0,157.0,489.0,91.0,529.0,1802.634
1802644.0,158.0,483.0,87.0,539.0,1802.644
1802654.0,160.0,482.0,97.0,624.0,1802.654
1802664.0,162.0,476.0,92.0,628.0,1802.664
1802674.0,167.0,469.0,84.0,613.0,1802.674
1802684.0,167.0,460.0,76.0,575.0,1802.684
1802694.0,166.0,450.0,74.0,560.0,1802.694
1802704.0,170.0,443.0,76.0,535.0,1802.704
1802714.0,170.0,438.0,72.0,516.0,1802.714
1802724.0,169.0,423.0,69.0,504.0,1802.724
1802734.0,170.0,415.0,72.0,470.0,1802.734
1802744.0,170.0,402.0,73.0,461.0,1802.744
1802754.0,174.0,395.0,74.0,478.0,1802.754
1802764.0,172.0,384.0,72.0,434.0,1802.764
1802774.0,172.0,373.0,70.0,407.0,1802.774
1802784.0,172.0,360.0,76.0,391.0,1802.784
1802795.0,170.0,348.0,66.0,386.0,1802.795
1802805.0,171.0,336.0,62.0,397.0,1802.805
1802815.0,163.0,327.0,71.0,410.0,1802.815
1802825.0,168.0,326.0,69.0,401.0,1802.825
1802835.0,164.0,317.0,66.0,396.0,1802.835
1802845.0,161.0,311.0,62.0,407.0,1802.845
1802855.0,159.0,305.0,54.0,399.0,1802.855
1802865.0,165.0,307.0,51.0,372.0,1802.865
1802875.0,163.0,302.0,49.0,375.0,1802.875
1802885.0,156.0,296.0,48.0,358.0,1802.885
1802895.0,153.0,295.0,42.0,341.0,1802.895
1802905.0,155.0,294.0,39.0,342.0,1802.905
1802915.0,150.0,289.0,37.0,338.0,1802.915
1802925.0,150.0,287.0,40.0,361.0,1802.925
1802935.0,150.0,288.0,35.0,354.0,1802.935
1802945.0,148.0,284.0,42.0,356.0,1802.945
1802955.0,148.0,281.0,39.0,354.0,1802.955
1802966.0,152.0,279.0,37.0,357.0,1802.966
1802976.0,148.0,276.0,33.0,334.0,1802.976
1802986.0,145.0,275.0,36.0,302.0,1802.986
1802996.0,144.0,271.0,32.0,305.0,1802.996
1803006.0,150.0,270.0,32.0,281.0,1803.006
1803016.0,144.0,267.0,33.0,283.0,1803.016
1803026.0,140.0,263.0,33.0,298.0,1803.026
1803036.0,136.0,263.0,35.0,308.0,1803.036
1803046.0,132.0,259.0,35.0,348.0,1803.046
1803056.0,128.0,256.0,31.0,343.0,1803.056
1803066.0,122.0,254.0,30.0,335.0,1803.066
1803076.0,124.0,252.0,30.0,304.0,1803.076
1803086.0,121.0,252.0,34.0,279.0,1803.086
1803096.0,115.0,246.0,32.0,285.0,1803.096
1803106.0,109.0,243.0,29.0,295.0,1803.106
1803116.0,107.0,243.0,33.0,303.0,1803.116
1803126.0,105.0,242.0,32.0,290.0,1803.126
1803136.0,105.0,241.0,34.0,331.0,1803.136
1803146.0,105.0,235.0,31.0,353.0,1803.146
1803156.0,103.0,234.0,34.0,335.0,1803.156
1803166.0,99.0,230.0,31.0,320.0,1803.166
1803176.0,100.0,228.0,31.0,311.0,1803.176
1803186.0,99.0,227.0,33.0,291.0,1803.186
1803196.0,95.0,222.0,33.0,293.0,1803.196
1803206.0,94.0,223.0,36.0,285.0,1803.206
1803216.0,91.0,223.0,42.0,300.0,1803.216
1803226.0,89.0,221.0,37.0,336.0,1803.226
1803236.0,86.0,219.0,35.0,310.0,1803.236
1803246.0,84.0,218.0,35.0,335.0,1803.246
1803256.0,82.0,218.0,31.0,338.0,1803.256
1803266.0,85.0,218.0,34.0,336.0,1803.266
1803276.0,86.0,214.0,34.0,366.0,1803.276
1803286.0,88.0,219.0,35.0,366.0,1803.286
1803296.0,86.0,213.0,31.0,355.0,1803.296
1803307.0,84.0,211.0,28.0,362.0,1803.307
1803317.0,84.0,210.0,27.0,350.0,1803.317
1803327.0,81.0,204.0,24.0,323.0,1803.327
1803337.0,86.0,206.0,29.0,334.0,1803.337
1803347.0,83.0,203.0,33.0,363.0,1803.347
1803357.0,80.0,201.0,34.0,407.0,1803.357
1803367.0,83.0,197.0,32.0,386.0,1803.367
1803377.0,88.0,202.0,30.0,369.0,1803.377
1803387.0,87.0,208.0,29.0,340.0,1803.387
1803397.0,89.0,201.0,28.0,347.0,1803.397
1803407.0,87.0,196.0,25.0,335.0,1803.407
1803417.0,89.0,195.0,27.0,385.0,1803.417
1803427.0,86.0,193.0,23.0,389.0,1803.427
1803437.0,82.0,189.0,26.0,405.0,1803.437
1803447.0,85.0,193.0,32.0,376.0,1803.447
1803457.0,82.0,187.0,31.0,372.0,1803.457
1803467.0,81.0,185.0,33.0,344.0,1803.467
1803478.0,85.0,180.0,42.0,430.0,1803.478
1803488.0,90.0,208.0,56.0,446.0,1803.488
1803498.0,91.0,193.0,50.0,424.0,1803.498
1803508.0,89.0,180.0,47.0,459.0,1803.508
1803518.0,99.0,181.0,45.0,460.0,1803.518
1803528.0,101.0,179.0,46.0,467.0,1803.528
1803538.0,97.0,172.0,46.0,455.0,1803.538
1803548.0,97.0,168.0,41.0,447.0,1803.548
1803558.0,101.0,187.0,53.0,474.0,1803.558
1803568.0,99.0,180.0,55.0,501.0,1803.568
1803578.0,102.0,169.0,53.0,552.0,1803.578
1803588.0,107.0,179.0,50.0,592.0,1803.588
1803598.0,112.0,179.0,59.0,595.0,1803.598
1803608.0,113.0,167.0,60.0,627.0,1803.608
1803618.0,109.0,161.0,58.0,587.0,1803.618
1803628.0,107.0,152.0,61.0,632.0,1803.628
1803638.0,106.0,143.0,53.0,571.0,1803.638
1803648.0,112.0,144.0,64.0,625.0,1803.648
1803658.0,112.0,136.0,69.0,666.0,1803.658
1803668.0,122.0,138.0,85.0,667.0,1803.668
1803678.0,123.0,133.0,80.0,668.0,1803.678
1803688.0,125.0,126.0,69.0,667.0,1803.688
1803698.0,129.0,125.0,73.0,667.0,1803.698
1803708.0,125.0,116.0,70.0,666.0,1803.708
1803718.0,122.0,110.0,62.0,666.0,1803.718
1803728.0,122.0,104.0,60.0,667.0,1803.728
1803738.0,124.0,103.0,71.0,667.0,1803.738
1803748.0,125.0,103.0,72.0,667.0,1803.748
1803758.0,127.0,96.0,70.0,667.0,1803.758
1803768.0,123.0,94.0,67.0,667.0,1803.768
1803778.0,125.0,92.0,61.0,667.0,1803.778
1803788.0,127.0,90.0,60.0,667.0,1803.788
1803798.0,130.0,99.0,56.0,667.0,1803.798
1803808.0,130.0,97.0,53.0,667.0,1803.808
1803819.0,123.0,92.0,53.0,668.0,1803.819
1803829.0,119.0,90.0,63.0,668.0,1803.829
1803839.0,120.0,93.0,59.0,667.0,1803.839
1803849.0,114.0,93.0,55.0,667.0,1803.849
1803859.0,111.0,93.0,49.0,667.0,1803.859
1803869.0,110.0,99.0,48.0,652.0,1803.869
1803879.0,109.0,96.0,48.0,667.0,1803.879
1803889.0,109.0,94.0,60.0,668.0,1803.889
1803899.0,104.0,92.0,55.0,666.0,1803.899
1803909.0,104.0,101.0,49.0,667.0,1803.909
1803919.0,105.0,100.0,44.0,667.0,1803.919
1803929.0,115.0,100.0,49.0,667.0,1803.929
1803939.0,110.0,95.0,44.0,667.0,1803.939
1803949.0,114.0,98.0,52.0,667.0,1803.949
1803959.0,112.0,99.0,54.0,667.0,1803.959
1803969.0,109.0,99.0,50.0,667.0,1803.969
1803979.0,109.0,104.0,52.0,667.0,1803.979
1803990.0,108.0,105.0,47.0,667.0,1803.99
1804000.0,105.0,105.0,45.0,667.0,1804.0
1804010.0,105.0,109.0,43.0,666.0,1804.01
1804020.0,104.0,107.0,36.0,650.0,1804.02
1804030.0,104.0,108.0,37.0,628.0,1804.03
1804040.0,106.0,107.0,34.0,604.0,1804.04
1804050.0,103.0,104.0,35.0,580.0,1804.05
1804060.0,103.0,104.0,34.0,563.0,1804.06
1804070.0,104.0,107.0,34.0,571.0,1804.07
1804080.0,106.0,111.0,34.0,554.0,1804.08
1804090.0,105.0,110.0,32.0,540.0,1804.09
1804100.0,103.0,107.0,42.0,582.0,1804.1
1804110.0,101.0,110.0,38.0,560.0,1804.11
1804120.0,105.0,114.0,35.0,544.0,1804.12
1804130.0,106.0,116.0,37.0,497.0,1804.13
1804140.0,106.0,111.0,43.0,532.0,1804.14
1804150.0,107.0,113.0,45.0,536.0,1804.15
1804160.0,104.0,113.0,42.0,526.0,1804.16
1804170.0,103.0,116.0,43.0,529.0,1804.17
1804180.0,104.0,115.0,41.0,500.0,1804.18
1804190.0,102.0,119.0,41.0,487.0,1804.19
1804200.0,103.0,119.0,40.0,479.0,1804.2
1804210.0,103.0,117.0,36.0,440.0,1804.21
1804220.0,101.0,116.0,32.0,404.0,1804.22
1804230.0,101.0,117.0,32.0,415.0,1804.23
1804240.0,98.0,118.0,34.0,439.0,1804.24
1804250.0,97.0,119.0,31.0,422.0,1804.25
1804260.0,99.0,122.0,32.0,391.0,1804.26
1804270.0,98.0,123.0,36.0,429.0,1804.27
1804280.0,95.0,119.0,35.0,471.0,1804.28
1804290.0,94.0,124.0,36.0,461.0,1804.29
1804300.0,93.0,126.0,35.0,427.0,1804.3
1804310.0,94.0,127.0,37.0,440.0,1804.31
1804320.0,90.0,122.0,37.0,444.0,1804.32
1804331.0,93.0,120.0,33.0,411.0,1804.331
1804341.0,95.0,120.0,33.0,427.0,1804.341
1804351.0,92.0,114.0,33.0,432.0,1804.351
1804361.0,93.0,119.0,31.0,403.0,1804.361
1804371.0,93.0,113.0,32.0,392.0,1804.371
1804381.0,89.0,111.0,32.0,405.0,1804.381
1804391.0,88.0,109.0,42.0,507.0,1804.391
1804401.0,89.0,109.0,40.0,467.0,1804.401
1804411.0,88.0,113.0,35.0,439.0,1804.411
1804421.0,88.0,110.0,49.0,527.0,1804.421
1804431.0,86.0,109.0,43.0,554.0,1804.431
1804441.0,99.0,108.0,40.0,502.0,1804.441
1804451.0,99.0,110.0,47.0,522.0,1804.451
1804461.0,94.0,108.0,41.0,495.0,1804.461
1804471.0,93.0,101.0,37.0,469.0,1804.471
1804481.0,90.0,98.0,34.0,469.0,1804.481
1804491.0,87.0,96.0,33.0,456.0,1804.491
1804502.0,88.0,99.0,32.0,429.0,1804.502
1804512.0,89.0,98.0,30.0,409.0,1804.512
1804522.0,88.0,96.0,33.0,408.0,1804.522
1804532.0,84.0,102.0,29.0,373.0,1804.532
1804542.0,82.0,96.0,36.0,406.0,1804.542
1804552.0,82.0,97.0,34.0,406.0,1804.552
1804562.0,80.0,98.0,30.0,368.0,1804.562
1804572.0,76.0,98.0,27.0,322.0,1804.572
1804582.0,72.0,95.0,24.0,284.0,1804.582
1804592.0,73.0,95.0,23.0,255.0,1804.592
1804602.0,71.0,91.0,20.0,229.0,1804.602
1804612.0,69.0,91.0,21.0,210.0,1804.612
1804622.0,69.0,91.0,22.0,188.0,1804.622
1804632.0,67.0,94.0,27.0,185.0,1804.632
1804642.0,83.0,99.0,35.0,176.0,1804.642
1804652.0,85.0,97.0,53.0,170.0,1804.652
1804662.0,82.0,97.0,104.0,170.0,1804.662
1804672.0,82.0,99.0,136.0,182.0,1804.672
1804682.0,79.0,96.0,138.0,184.0,1804.682
1804692.0,74.0,96.0,168.0,178.0,1804.692
1804702.0,72.0,97.0,170.0,181.0,1804.702
1804712.0,70.0,99.0,183.0,193.0,1804.712
1804722.0,73.0,109.0,235.0,262.0,1804.722
1804732.0,74.0,110.0,270.0,262.0,1804.732
1804742.0,78.0,111.0,291.0,303.0,1804.742
1804752.0,81.0,118.0,294.0,347.0,1804.752
1804762.0,89.0,113.0,274.0,344.0,1804.762
1804772.0,91.0,104.0,274.0,322.0,1804.772
1804782.0,90.0,105.0,262.0,336.0,1804.782
1804792.0,98.0,118.0,313.0,421.0,1804.792
1804802.0,96.0,117.0,341.0,421.0,1804.802
1804812.0,98.0,114.0,318.0,434.0,1804.812
1804822.0,95.0,105.0,308.0,405.0,1804.822
1804832.0,90.0,99.0,275.0,369.0,1804.832
1804843.0,88.0,95.0,244.0,361.0,1804.843
1804853.0,85.0,91.0,247.0,329.0,1804.853
1804863.0,84.0,88.0,265.0,356.0,1804.863
1804873.0,79.0,84.0,238.0,326.0,1804.873
1804883.0,57.0,82.0,223.0,317.0,1804.883
1804893.0,32.0,87.0,203.0,299.0,1804.893
1804903.0,4.0,99.0,188.0,309.0,1804.903
1804913.0,0.0,113.0,180.0,323.0,1804.913
1804923.0,1.0,127.0,163.0,313.0,1804.923
1804933.0,0.0,138.0,156.0,289.0,1804.933
1804943.0,0.0,154.0,149.0,276.0,1804.943
1804953.0,0.0,171.0,142.0,266.0,1804.953
1804963.0,0.0,181.0,145.0,252.0,1804.963
1804973.0,0.0,192.0,140.0,258.0,1804.973
1804983.0,0.0,201.0,140.0,236.0,1804.983
1804993.0,0.0,213.0,136.0,225.0,1804.993
1805003.0,0.0,220.0,154.0,223.0,1805.003
1805014.0,0.0,230.0,162.0,245.0,1805.014
1805024.0,0.0,234.0,173.0,252.0,1805.024
1805034.0,1.0,239.0,159.0,243.0,1805.034
1805044.0,0.0,242.0,175.0,238.0,1805.044
1805054.0,0.0,243.0,169.0,220.0,1805.054
1805064.0,0.0,246.0,164.0,227.0,1805.064
1805074.0,0.0,248.0,171.0,220.0,1805.074
1805084.0,0.0,248.0,179.0,231.0,1805.084
1805094.0,0.0,247.0,164.0,230.0,1805.094
1805104.0,0.0,244.0,176.0,222.0,1805.104
1805114.0,0.0,244.0,182.0,219.0,1805.114
1805124.0,0.0,243.0,176.0,206.0,1805.124
1805134.0,0.0,243.0,176.0,209.0,1805.134
1805144.0,0.0,241.0,180.0,208.0,1805.144
1805154.0,0.0,235.0,184.0,197.0,1805.154
1805164.0,0.0,230.0,185.0,194.0,1805.164
1805174.0,0.0,227.0,174.0,195.0,1805.174
1805184.0,0.0,223.0,181.0,196.0,1805.184
1805194.0,0.0,217.0,187.0,180.0,1805.194
1805204.0,0.0,214.0,178.0,188.0,1805.204
1805214.0,0.0,209.0,169.0,195.0,1805.214
1805224.0,0.0,202.0,178.0,194.0,1805.224
1805234.0,0.0,197.0,175.0,185.0,1805.234
1805244.0,0.0,192.0,170.0,175.0,1805.244
1805254.0,0.0,187.0,171.0,179.0,1805.254
1805264.0,0.0,184.0,161.0,173.0,1805.264
1805274.0,0.0,179.0,161.0,167.0,1805.274
1805284.0,0.0,172.0,157.0,162.0,1805.284
1805294.0,0.0,170.0,158.0,171.0,1805.294
1805304.0,0.0,164.0,152.0,162.0,1805.304
1805314.0,0.0,159.0,156.0,156.0,1805.314
1805324.0,0.0,155.0,150.0,169.0,1805.324
1805334.0,0.0,153.0,151.0,161.0,1805.334
1805344.0,0.0,147.0,145.0,158.0,1805.344
1805355.0,0.0,143.0,148.0,173.0,1805.355
1805365.0,0.0,138.0,145.0,161.0,1805.365
1805375.0,0.0,134.0,138.0,164.0,1805.375
1805385.0,0.0,131.0,137.0,153.0,1805.385
1805395.0,0.0,129.0,141.0,155.0,1805.395
1805405.0,0.0,128.0,145.0,155.0,1805.405
1805415.0,0.0,126.0,142.0,153.0,1805.415
1805425.0,0.0,121.0,142.0,139.0,1805.425
1805435.0,0.0,118.0,138.0,137.0,1805.435
1805445.0,0.0,117.0,137.0,130.0,1805.445
1805455.0,0.0,116.0,134.0,150.0,1805.455
1805465.0,0.0,114.0,139.0,144.0,1805.465
1805475.0,0.0,112.0,132.0,137.0,1805.475
1805485.0,0.0,111.0,123.0,135.0,1805.485
1805495.0,0.0,108.0,140.0,148.0,1805.495
1805505.0,0.0,106.0,132.0,148.0,1805.505
1805515.0,0.0,103.0,126.0,139.0,1805.515
1805526.0,0.0,104.0,119.0,143.0,1805.526
1805536.0,0.0,102.0,123.0,153.0,1805.536
1805546.0,0.0,99.0,118.0,156.0,1805.546
1805556.0,0.0,97.0,120.0,149.0,1805.556
1805566.0,0.0,96.0,119.0,141.0,1805.566
1805576.0,0.0,95.0,130.0,140.0,1805.576
1805586.0,0.0,92.0,123.0,141.0,1805.586
1805596.0,0.0,90.0,128.0,134.0,1805.596
1805606.0,0.0,87.0,126.0,131.0,1805.606
1805616.0,0.0,88.0,121.0,129.0,1805.616
1805626.0,0.0,84.0,126.0,139.0,1805.626
1805636.0,0.0,81.0,122.0,145.0,1805.636
1805646.0,0.0,80.0,122.0,151.0,1805.646
1805656.0,0.0,77.0,122.0,145.0,1805.656
1805666.0,0.0,75.0,120.0,138.0,1805.666
1805676.0,0.0,75.0,120.0,135.0,1805.676
1805686.0,0.0,74.0,116.0,138.0,1805.686
1805696.0,0.0,73.0,110.0,149.0,1805.696
1805706.0,0.0,71.0,110.0,136.0,1805.706
1805716.0,0.0,73.0,105.0,131.0,1805.716
1805726.0,0.0,70.0,103.0,118.0,1805.726
1805736.0,0.0,71.0,111.0,124.0,1805.736
1805746.0,0.0,70.0,104.0,116.0,1805.746
1805756.0,0.0,69.0,107.0,108.0,1805.756
1805766.0,0.0,69.0,112.0,101.0,1805.766
1805776.0,0.0,69.0,104.0,115.0,1805.776
1805786.0,0.0,73.0,116.0,119.0,1805.786
1805796.0,0.0,75.0,117.0,110.0,1805.796
1805806.0,0.0,74.0,125.0,101.0,1805.806
1805816.0,0.0,75.0,124.0,97.0,1805.816
1805826.0,0.0,78.0,122.0,89.0,1805.826
1805836.0,0.0,80.0,120.0,84.0,1805.836
1805846.0,0.0,81.0,116.0,83.0,1805.846
1805856.0,0.0,87.0,114.0,90.0,1805.856
1805867.0,0.0,88.0,120.0,82.0,1805.867
1805877.0,0.0,92.0,115.0,87.0,1805.877
1805887.0,0.0,94.0,108.0,86.0,1805.887
1805897.0,0.0,97.0,107.0,86.0,1805.897
1805907.0,0.0,101.0,110.0,89.0,1805.907
1805917.0,0.0,106.0,104.0,87.0,1805.917
1805927.0,0.0,107.0,112.0,89.0,1805.927
1805937.0,0.0,109.0,102.0,87.0,1805.937
1805947.0,0.0,112.0,100.0,88.0,1805.947
1805957.0,0.0,113.0,97.0,87.0,1805.957
1805967.0,0.0,114.0,91.0,88.0,1805.967
1805977.0,0.0,112.0,88.0,94.0,1805.977
1805987.0,0.0,111.0,85.0,99.0,1805.987
1805997.0,0.0,106.0,86.0,111.0,1805.997
1806007.0,0.0,106.0,85.0,107.0,1806.007
1806017.0,0.0,102.0,80.0,102.0,1806.017
1806027.0,0.0,101.0,80.0,103.0,1806.027
1806038.0,0.0,101.0,79.0,100.0,1806.038
1806048.0,0.0,99.0,76.0,100.0,1806.048
1806058.0,0.0,99.0,79.0,95.0,1806.058
1806068.0,0.0,97.0,85.0,96.0,1806.068
1806078.0,0.0,97.0,85.0,93.0,1806.078
1806088.0,0.0,94.0,88.0,92.0,1806.088
1806098.0,0.0,92.0,79.0,95.0,1806.098
1806108.0,0.0,91.0,87.0,103.0,1806.108
1806118.0,0.0,93.0,95.0,102.0,1806.118
1806128.0,0.0,92.0,92.0,99.0,1806.128
1806138.0,0.0,91.0,87.0,104.0,1806.138
1806148.0,0.0,93.0,82.0,101.0,1806.148
1806158.0,0.0,93.0,82.0,104.0,1806.158
1806168.0,0.0,93.0,74.0,103.0,1806.168
1806178.0,0.0,96.0,77.0,101.0,1806.178
1806188.0,0.0,93.0,80.0,117.0,1806.188
1806198.0,0.0,92.0,76.0,111.0,1806.198
1806208.0,0.0,93.0,77.0,102.0,1806.208
1806218.0,0.0,94.0,77.0,97.0,1806.218
1806228.0,0.0,95.0,71.0,99.0,1806.228
1806238.0,0.0,96.0,73.0,99.0,1806.238
1806248.0,0.0,98.0,76.0,109.0,1806.248
1806258.0,0.0,100.0,78.0,103.0,1806.258
1806268.0,0.0,101.0,78.0,97.0,1806.268
1806278.0,0.0,102.0,73.0,95.0,1806.278
1806288.0,0.0,105.0,80.0,96.0,1806.288
1806298.0,0.0,105.0,73.0,89.0,1806.298
1806308.0,0.0,110.0,74.0,87.0,1806.308
1806318.0,0.0,112.0,71.0,85.0,1806.318
1806328.0,0.0,111.0,76.0,82.0,1806.328
1806338.0,0.0,113.0,75.0,83.0,1806.338
1806348.0,0.0,116.0,70.0,78.0,1806.348
1806358.0,0.0,117.0,67.0,88.0,1806.358
1806368.0,0.0,120.0,70.0,88.0,1806.368
1806379.0,0.0,119.0,63.0,92.0,1806.379
1806389.0,0.0,121.0,57.0,92.0,1806.389
1806399.0,0.0,123.0,62.0,86.0,1806.399
1806409.0,0.0,122.0,70.0,88.0,1806.409
1806419.0,0.0,122.0,71.0,92.0,1806.419
1806429.0,0.0,121.0,69.0,97.0,1806.429
1806439.0,0.0,122.0,68.0,96.0,1806.439
1806449.0,0.0,118.0,64.0,94.0,1806.449
1806459.0,0.0,116.0,60.0,89.0,1806.459
1806469.0,0.0,116.0,57.0,86.0,1806.469
1806479.0,0.0,114.0,60.0,94.0,1806.479
1806489.0,0.0,112.0,60.0,102.0,1806.489
1806499.0,0.0,109.0,64.0,94.0,1806.499
1806509.0,0.0,107.0,62.0,90.0,1806.509
1806519.0,0.0,104.0,59.0,86.0,1806.519
1806529.0,0.0,102.0,52.0,81.0,1806.529
1806539.0,0.0,101.0,51.0,89.0,1806.539
1806550.0,0.0,99.0,56.0,88.0,1806.55
1806560.0,0.0,98.0,66.0,89.0,1806.56
1806570.0,0.0,96.0,64.0,81.0,1806.57
1806580.0,0.0,96.0,59.0,77.0,1806.58
1806590.0,0.0,94.0,59.0,84.0,1806.59
1806600.0,0.0,91.0,52.0,84.0,1806.6
1806610.0,0.0,90.0,48.0,84.0,1806.61
1806620.0,0.0,86.0,45.0,86.0,1806.62
1806630.0,0.0,79.0,40.0,86.0,1806.63
1806640.0,0.0,74.0,40.0,85.0,1806.64
1806650.0,0.0,75.0,45.0,89.0,1806.65
1806660.0,0.0,78.0,40.0,89.0,1806.66
1806670.0,0.0,86.0,43.0,112.0,1806.67
1806680.0,667.0,128.0,87.0,166.0,1806.68
1806690.0,667.0,166.0,124.0,208.0,1806.69
1806700.0,643.0,202.0,154.0,252.0,1806.7
1806710.0,645.0,233.0,176.0,283.0,1806.71
1806720.0,653.0,258.0,200.0,298.0,1806.72
1806730.0,636.0,281.0,208.0,310.0,1806.73
1806740.0,616.0,300.0,227.0,318.0,1806.74
1806750.0,649.0,317.0,232.0,321.0,1806.75
1806760.0,654.0,330.0,236.0,342.0,1806.76
1806770.0,653.0,339.0,239.0,342.0,1806.77
1806780.0,650.0,345.0,241.0,340.0,1806.78
1806790.0,655.0,348.0,232.0,336.0,1806.79
1806800.0,656.0,348.0,235.0,327.0,1806.8
1806810.0,658.0,351.0,227.0,331.0,1806.81
1806820.0,659.0,352.0,223.0,334.0,1806.82
1806830.0,659.0,349.0,225.0,329.0,1806.83
1806840.0,655.0,346.0,218.0,320.0,1806.84
1806850.0,662.0,341.0,214.0,309.0,1806.85
1806860.0,660.0,335.0,206.0,302.0,1806.86
1806870.0,662.0,326.0,195.0,294.0,1806.87
1806880.0,662.0,320.0,191.0,279.0,1806.88
1806891.0,661.0,311.0,184.0,282.0,1806.891
1806901.0,606.0,305.0,175.0,283.0,1806.901
1806911.0,81.0,281.0,161.0,257.0,1806.911
1806921.0,3.0,256.0,142.0,239.0,1806.921
1806931.0,0.0,230.0,127.0,222.0,1806.931
1806941.0,0.0,206.0,112.0,203.0,1806.941
1806951.0,0.0,188.0,105.0,186.0,1806.951
1806961.0,0.0,168.0,94.0,172.0,1806.961
1806971.0,667.0,170.0,103.0,196.0,1806.971
1806981.0,668.0,171.0,109.0,204.0,1806.981
1806991.0,668.0,177.0,103.0,207.0,1806.991
1807001.0,667.0,184.0,103.0,205.0,1807.001
1807011.0,665.0,190.0,105.0,200.0,1807.011
1807021.0,658.0,195.0,99.0,192.0,1807.021
1807031.0,660.0,201.0,113.0,194.0,1807.031
1807041.0,660.0,207.0,116.0,186.0,1807.041
1807051.0,661.0,214.0,117.0,179.0,1807.051
1807062.0,661.0,219.0,122.0,167.0,1807.062
1807072.0,661.0,225.0,126.0,166.0,1807.072
1807082.0,661.0,229.0,115.0,163.0,1807.082
1807092.0,661.0,235.0,109.0,160.0,1807.092
1807102.0,661.0,237.0,108.0,153.0,1807.102
1807112.0,661.0,241.0,112.0,146.0,1807.112
1807122.0,662.0,242.0,117.0,136.0,1807.122
1807132.0,663.0,244.0,111.0,139.0,1807.132
1807142.0,662.0,242.0,110.0,133.0,1807.142
1807152.0,662.0,241.0,107.0,128.0,1807.152
1807162.0,662.0,242.0,104.0,130.0,1807.162
1807172.0,662.0,243.0,95.0,125.0,1807.172
1807182.0,663.0,241.0,86.0,125.0,1807.182
1807192.0,663.0,239.0,81.0,127.0,1807.192
1807202.0,663.0,234.0,84.0,124.0,1807.202
1807212.0,663.0,233.0,94.0,120.0,1807.212
1807222.0,663.0,232.0,84.0,123.0,1807.222
1807232.0,663.0,229.0,79.0,124.0,1807.232
1807242.0,662.0,228.0,75.0,120.0,1807.242
1807252.0,661.0,224.0,75.0,135.0,1807.252
1807262.0,660.0,221.0,78.0,134.0,1807.262
1807272.0,663.0,220.0,76.0,138.0,1807.272
1807282.0,663.0,218.0,78.0,130.0,1807.282
1807292.0,663.0,216.0,68.0,124.0,1807.292
1807302.0,663.0,213.0,66.0,117.0,1807.302
1807312.0,663.0,212.0,58.0,111.0,1807.312
1807322.0,663.0,209.0,52.0,115.0,1807.322
1807332.0,663.0,204.0,52.0,112.0,1807.332
1807342.0,663.0,200.0,53.0,106.0,1807.342
1807352.0,663.0,197.0,64.0,98.0,1807.352
1807362.0,665.0,196.0,60.0,101.0,1807.362
1807372.0,660.0,192.0,62.0,100.0,1807.372
1807382.0,658.0,189.0,55.0,99.0,1807.382
1807392.0,660.0,187.0,51.0,101.0,1807.392
1807403.0,657.0,182.0,47.0,94.0,1807.403
1807413.0,656.0,179.0,43.0,96.0,1807.413
1807423.0,656.0,175.0,38.0,92.0,1807.423
1807433.0,653.0,170.0,42.0,93.0,1807.433
1807443.0,651.0,168.0,40.0,99.0,1807.443
1807453.0,648.0,164.0,38.0,95.0,1807.453
1807463.0,646.0,164.0,40.0,92.0,1807.463
1807473.0,646.0,160.0,50.0,86.0,1807.473
1807483.0,646.0,158.0,49.0,78.0,1807.483
1807493.0,591.0,160.0,44.0,75.0,1807.493
1807503.0,533.0,157.0,41.0,71.0,1807.503
1807513.0,490.0,156.0,36.0,70.0,1807.513
1807523.0,459.0,156.0,33.0,67.0,1807.523
1807533.0,436.0,154.0,34.0,64.0,1807.533
1807543.0,419.0,155.0,39.0,62.0,1807.543
1807553.0,408.0,152.0,35.0,68.0,1807.553
1807563.0,404.0,153.0,44.0,67.0,1807.563
1807574.0,404.0,151.0,43.0,70.0,1807.574
1807584.0,409.0,150.0,44.0,73.0,1807.584
1807594.0,418.0,152.0,40.0,75.0,1807.594
1807604.0,428.0,151.0,36.0,84.0,1807.604
1807614.0,439.0,151.0,33.0,80.0,1807.614
1807624.0,452.0,150.0,30.0,76.0,1807.624
1807634.0,467.0,149.0,29.0,87.0,1807.634
1807644.0,483.0,146.0,30.0,83.0,1807.644
1807654.0,501.0,146.0,26.0,79.0,1807.654
1807664.0,517.0,144.0,24.0,78.0,1807.664
1807674.0,537.0,142.0,23.0,80.0,1807.674
1807684.0,554.0,141.0,19.0,83.0,1807.684
1807694.0,573.0,139.0,17.0,96.0,1807.694
1807704.0,589.0,137.0,16.0,90.0,1807.704
1807714.0,605.0,131.0,21.0,87.0,1807.714
1807724.0,620.0,124.0,26.0,92.0,1807.724
1807734.0,639.0,126.0,31.0,87.0,1807.734
1807744.0,655.0,123.0,29.0,85.0,1807.744
1807754.0,655.0,117.0,30.0,89.0,1807.754
1807764.0,644.0,113.0,29.0,85.0,1807.764
1807774.0,633.0,108.0,28.0,80.0,1807.774
1807784.0,433.0,105.0,31.0,89.0,1807.784
1807794.0,235.0,102.0,29.0,88.0,1807.794
1807804.0,194.0,95.0,27.0,84.0,1807.804
1807814.0,146.0,92.0,32.0,88.0,1807.814
1807824.0,7.0,95.0,38.0,96.0,1807.824
1807834.0,0.0,104.0,49.0,107.0,1807.834
1807844.0,0.0,112.0,60.0,100.0,1807.844
1807854.0,0.0,123.0,81.0,97.0,1807.854
1807864.0,0.0,136.0,83.0,105.0,1807.864
1807874.0,0.0,146.0,100.0,109.0,1807.874
1807884.0,0.0,158.0,116.0,117.0,1807.884
1807894.0,690.0,182.0,140.0,132.0,1807.894
1807904.0,669.0,160.0,126.0,128.0,1807.904
1807915.0,668.0,149.0,120.0,126.0,1807.915
1807925.0,160.0,141.0,113.0,129.0,1807.925
1807935.0,664.0,140.0,108.0,136.0,1807.935
1807945.0,669.0,145.0,104.0,137.0,1807.945
1807955.0,667.0,144.0,92.0,130.0,1807.955
1807965.0,666.0,144.0,84.0,122.0,1807.965
1807975.0,667.0,144.0,75.0,122.0,1807.975
1807985.0,666.0,142.0,75.0,122.0,1807.985
1807995.0,649.0,142.0,65.0,114.0,1807.995
1808005.0,657.0,140.0,62.0,113.0,1808.005
1808015.0,660.0,141.0,63.0,111.0,1808.015
1808025.0,659.0,141.0,54.0,110.0,1808.025
1808035.0,656.0,141.0,52.0,105.0,1808.035
1808045.0,654.0,139.0,50.0,100.0,1808.045
1808055.0,654.0,138.0,45.0,102.0,1808.055
1808065.0,656.0,135.0,40.0,108.0,1808.065
1808075.0,657.0,135.0,35.0,100.0,1808.075
1808086.0,651.0,131.0,34.0,99.0,1808.086
1808096.0,650.0,128.0,36.0,99.0,1808.096
1808106.0,647.0,123.0,48.0,92.0,1808.106
1808116.0,634.0,120.0,44.0,92.0,1808.116
1808126.0,636.0,117.0,39.0,90.0,1808.126
1808136.0,563.0,112.0,35.0,84.0,1808.136
1808146.0,178.0,104.0,32.0,76.0,1808.146
1808156.0,28.0,107.0,40.0,85.0,1808.156
1808166.0,1.0,117.0,40.0,95.0,1808.166
1808176.0,0.0,129.0,56.0,93.0,1808.176
1808186.0,0.0,128.0,71.0,113.0,1808.186
1808196.0,668.0,146.0,64.0,100.0,1808.196
1808206.0,668.0,139.0,61.0,96.0,1808.206
1808216.0,668.0,132.0,55.0,93.0,1808.216
1808226.0,669.0,125.0,50.0,88.0,1808.226
1808236.0,668.0,121.0,44.0,82.0,1808.236
1808246.0,668.0,119.0,38.0,78.0,1808.246
1808256.0,668.0,119.0,35.0,76.0,1808.256
1808266.0,668.0,121.0,32.0,78.0,1808.266
1808276.0,668.0,126.0,34.0,76.0,1808.276
1808286.0,668.0,129.0,40.0,74.0,1808.286
1808296.0,668.0,131.0,35.0,74.0,1808.296
1808306.0,668.0,133.0,32.0,71.0,1808.306
1808316.0,667.0,135.0,28.0,66.0,1808.316
1808326.0,667.0,137.0,25.0,67.0,1808.326
1808336.0,668.0,135.0,22.0,64.0,1808.336
1808346.0,667.0,134.0,26.0,63.0,1808.346
1808356.0,667.0,130.0,23.0,60.0,1808.356
1808366.0,667.0,121.0,21.0,67.0,1808.366
1808376.0,668.0,114.0,23.0,69.0,1808.376
1808386.0,667.0,107.0,30.0,69.0,1808.386
1808396.0,668.0,98.0,28.0,65.0,1808.396
1808406.0,667.0,91.0,27.0,69.0,1808.406
1808416.0,667.0,85.0,24.0,75.0,1808.416
1808427.0,664.0,79.0,30.0,75.0,1808.427
1808437.0,664.0,74.0,25.0,74.0,1808.437
1808447.0,667.0,70.0,24.0,77.0,1808.447
1808457.0,668.0,67.0,23.0,73.0,1808.457
1808467.0,668.0,67.0,38.0,70.0,1808.467
1808477.0,668.0,73.0,34.0,66.0,1808.477
1808487.0,668.0,76.0,31.0,69.0,1808.487
1808497.0,668.0,80.0,27.0,68.0,1808.497
1808507.0,668.0,78.0,25.0,63.0,1808.507
1808517.0,662.0,78.0,25.0,64.0,1808.517
1808527.0,665.0,80.0,25.0,62.0,1808.527
1808537.0,665.0,83.0,24.0,60.0,1808.537
1808547.0,665.0,84.0,21.0,63.0,1808.547
1808557.0,665.0,88.0,33.0,64.0,1808.557
1808567.0,667.0,91.0,30.0,76.0,1808.567
1808577.0,668.0,91.0,36.0,72.0,1808.577
1808587.0,668.0,92.0,33.0,71.0,1808.587
1808598.0,665.0,92.0,31.0,69.0,1808.598
1808608.0,664.0,93.0,28.0,72.0,1808.608
1808618.0,663.0,94.0,23.0,67.0,1808.618
1808628.0,663.0,95.0,22.0,63.0,1808.628
1808638.0,666.0,94.0,27.0,65.0,1808.638
1808648.0,667.0,93.0,27.0,62.0,1808.648
1808658.0,667.0,92.0,32.0,69.0,1808.658
1808668.0,667.0,93.0,29.0,71.0,1808.668
1808678.0,669.0,94.0,29.0,77.0,1808.678
1808688.0,668.0,95.0,26.0,76.0,1808.688
1808698.0,669.0,96.0,32.0,72.0,1808.698
1808708.0,668.0,97.0,28.0,72.0,1808.708
1808718.0,668.0,98.0,24.0,73.0,1808.718
1808728.0,668.0,98.0,21.0,71.0,1808.728
1808738.0,670.0,98.0,19.0,75.0,1808.738
1808748.0,669.0,97.0,25.0,79.0,1808.748
1808758.0,668.0,99.0,22.0,73.0,1808.758
1808768.0,669.0,99.0,24.0,75.0,1808.768
1808778.0,669.0,97.0,29.0,82.0,1808.778
1808788.0,668.0,99.0,32.0,81.0,1808.788
1808798.0,668.0,98.0,31.0,76.0,1808.798
1808808.0,668.0,98.0,27.0,77.0,1808.808
1808818.0,668.0,96.0,25.0,75.0,1808.818
1808828.0,670.0,97.0,22.0,75.0,1808.828
1808838.0,669.0,96.0,18.0,72.0,1808.838
1808848.0,668.0,94.0,17.0,71.0,1808.848
1808858.0,668.0,96.0,16.0,69.0,1808.858
1808868.0,668.0,93.0,27.0,68.0,1808.868
1808878.0,669.0,95.0,35.0,63.0,1808.878
1808888.0,668.0,95.0,31.0,62.0,1808.888
1808898.0,669.0,96.0,32.0,64.0,1808.898
1808908.0,668.0,95.0,28.0,67.0,1808.908
1808918.0,668.0,95.0,25.0,63.0,1808.918
1808928.0,669.0,93.0,24.0,66.0,1808.928
1808939.0,668.0,93.0,26.0,63.0,1808.939
1808949.0,668.0,90.0,34.0,72.0,1808.949
1808959.0,668.0,93.0,36.0,77.0,1808.959
1808969.0,669.0,91.0,35.0,79.0,1808.969
1808979.0,668.0,91.0,29.0,74.0,1808.979
1808989.0,667.0,91.0,26.0,70.0,1808.989
1808999.0,667.0,89.0,23.0,69.0,1808.999
1809009.0,668.0,89.0,23.0,73.0,1809.009
1809019.0,668.0,86.0,31.0,71.0,1809.019
1809029.0,668.0,87.0,29.0,71.0,1809.029
1809039.0,668.0,87.0,29.0,68.0,1809.039
1809049.0,669.0,86.0,25.0,69.0,1809.049
1809059.0,668.0,87.0,22.0,66.0,1809.059
1809069.0,667.0,85.0,28.0,63.0,1809.069
1809079.0,668.0,89.0,26.0,64.0,1809.079
1809089.0,668.0,88.0,27.0,61.0,1809.089
1809099.0,668.0,88.0,24.0,60.0,1809.099
1809110.0,668.0,90.0,21.0,61.0,1809.11
1809120.0,668.0,91.0,21.0,59.0,1809.12
1809130.0,668.0,91.0,20.0,65.0,1809.13
1809140.0,669.0,90.0,20.0,70.0,1809.14
1809150.0,669.0,92.0,25.0,68.0,1809.15
1809160.0,668.0,93.0,25.0,67.0,1809.16
1809170.0,668.0,93.0,25.0,64.0,1809.17
1809180.0,668.0,94.0,21.0,60.0,1809.18
1809190.0,669.0,95.0,21.0,58.0,1809.19
1809200.0,669.0,95.0,18.0,58.0,1809.2
1809210.0,669.0,93.0,16.0,62.0,1809.21
1809220.0,668.0,95.0,22.0,64.0,1809.22
1809230.0,668.0,97.0,19.0,61.0,1809.23
1809240.0,669.0,96.0,20.0,62.0,1809.24
1809250.0,668.0,96.0,23.0,66.0,1809.25
1809260.0,668.0,97.0,21.0,63.0,1809.26
1809270.0,670.0,97.0,22.0,62.0,1809.27
1809280.0,669.0,97.0,30.0,65.0,1809.28
1809290.0,668.0,97.0,30.0,64.0,1809.29
1809300.0,668.0,98.0,26.0,67.0,1809.3
1809310.0,668.0,99.0,23.0,68.0,1809.31
1809320.0,669.0,99.0,22.0,66.0,1809.32
1809330.0,668.0,98.0,19.0,63.0,1809.33
1809340.0,670.0,96.0,30.0,66.0,1809.34
1809350.0,669.0,94.0,34.0,68.0,1809.35
1809360.0,668.0,96.0,30.0,70.0,1809.36
1809370.0,669.0,96.0,31.0,69.0,1809.37
1809380.0,668.0,96.0,27.0,66.0,1809.38
1809390.0,669.0,94.0,25.0,64.0,1809.39
1809400.0,668.0,90.0,28.0,68.0,1809.4
1809410.0,669.0,92.0,30.0,64.0,1809.41
1809420.0,670.0,92.0,32.0,81.0,1809.42
1809430.0,669.0,94.0,28.0,78.0,1809.43
1809440.0,669.0,93.0,24.0,78.0,1809.44
1809451.0,669.0,94.0,22.0,73.0,1809.451
1809461.0,669.0,93.0,21.0,71.0,1809.461
1809471.0,668.0,92.0,19.0,69.0,1809.471
1809481.0,669.0,91.0,28.0,69.0,1809.481
1809491.0,670.0,93.0,34.0,65.0,1809.491
1809501.0,669.0,92.0,32.0,67.0,1809.501
1809511.0,669.0,93.0,30.0,67.0,1809.511
1809521.0,668.0,93.0,27.0,64.0,1809.521
1809531.0,669.0,93.0,25.0,78.0,1809.531
1809541.0,668.0,92.0,24.0,74.0,1809.541
1809551.0,669.0,91.0,29.0,72.0,1809.551
1809561.0,669.0,91.0,32.0,71.0,1809.561
1809571.0,668.0,92.0,28.0,66.0,1809.571
1809581.0,668.0,93.0,32.0,65.0,1809.581
1809591.0,667.0,92.0,28.0,69.0,1809.591
1809601.0,667.0,91.0,25.0,64.0,1809.601
1809611.0,668.0,92.0,27.0,64.0,1809.611
1809622.0,668.0,93.0,23.0,67.0,1809.622
1809632.0,668.0,94.0,31.0,63.0,1809.632
1809642.0,668.0,96.0,27.0,59.0,1809.642
1809652.0,667.0,97.0,26.0,60.0,1809.652
1809662.0,667.0,98.0,23.0,57.0,1809.662
1809672.0,666.0,100.0,22.0,56.0,1809.672
1809682.0,665.0,99.0,19.0,57.0,1809.682
1809692.0,666.0,100.0,17.0,54.0,1809.692
1809702.0,667.0,100.0,15.0,54.0,1809.702
1809712.0,667.0,99.0,17.0,55.0,1809.712
1809722.0,667.0,99.0,22.0,58.0,1809.722
1809732.0,661.0,101.0,22.0,58.0,1809.732
1809742.0,653.0,100.0,23.0,61.0,1809.742
1809752.0,649.0,101.0,24.0,62.0,1809.752
1809762.0,644.0,100.0,23.0,59.0,1809.762
1809772.0,639.0,99.0,20.0,56.0,1809.772
1809782.0,633.0,98.0,20.0,55.0,1809.782
1809792.0,630.0,99.0,18.0,62.0,1809.792
1809802.0,622.0,97.0,20.0,61.0,1809.802
1809812.0,618.0,98.0,23.0,57.0,1809.812
1809822.0,612.0,98.0,21.0,61.0,1809.822
1809832.0,605.0,96.0,21.0,62.0,1809.832
1809842.0,601.0,96.0,21.0,60.0,1809.842
1809852.0,596.0,96.0,20.0,57.0,1809.852
1809862.0,591.0,96.0,23.0,54.0,1809.862
1809872.0,587.0,95.0,28.0,60.0,1809.872
