time (ms),signal 0,signal 1,signal 2,signal3,time (sec)
1881550.0,48.0,49.0,31.0,65.0,1881.55
1881560.0,48.0,48.0,31.0,63.0,1881.56
1881570.0,47.0,47.0,27.0,61.0,1881.57
1881580.0,47.0,47.0,24.0,58.0,1881.58
1881590.0,49.0,46.0,24.0,55.0,1881.59
1881600.0,47.0,46.0,26.0,53.0,1881.6
1881610.0,48.0,45.0,28.0,60.0,1881.61
1881620.0,47.0,45.0,25.0,59.0,1881.62
1881630.0,47.0,46.0,25.0,63.0,1881.63
1881640.0,47.0,44.0,25.0,63.0,1881.64
1881650.0,47.0,45.0,29.0,64.0,1881.65
1881660.0,48.0,43.0,27.0,62.0,1881.66
1881670.0,48.0,42.0,22.0,58.0,1881.67
1881680.0,48.0,42.0,19.0,54.0,1881.68
1881690.0,48.0,41.0,18.0,53.0,1881.69
1881700.0,48.0,43.0,16.0,51.0,1881.7
1881710.0,47.0,42.0,14.0,47.0,1881.71
1881720.0,47.0,42.0,13.0,47.0,1881.72
1881730.0,47.0,43.0,18.0,50.0,1881.73
1881740.0,48.0,43.0,17.0,51.0,1881.74
1881750.0,46.0,46.0,18.0,52.0,1881.75
1881760.0,51.0,47.0,22.0,53.0,1881.76
1881771.0,50.0,47.0,24.0,59.0,1881.771
1881781.0,51.0,46.0,23.0,59.0,1881.781
1881791.0,52.0,45.0,20.0,57.0,1881.791
1881801.0,50.0,44.0,17.0,54.0,1881.801
1881811.0,51.0,43.0,17.0,51.0,1881.811
1881821.0,50.0,45.0,30.0,54.0,1881.821
1881831.0,52.0,43.0,28.0,56.0,1881.831
1881841.0,52.0,46.0,42.0,60.0,1881.841
1881851.0,51.0,46.0,37.0,58.0,1881.851
1881861.0,51.0,44.0,34.0,59.0,1881.861
1881871.0,51.0,45.0,29.0,59.0,1881.871
1881881.0,50.0,45.0,34.0,57.0,1881.881
1881891.0,51.0,45.0,33.0,54.0,1881.891
1881901.0,49.0,47.0,30.0,56.0,1881.901
1881911.0,50.0,45.0,26.0,53.0,1881.911
1881921.0,51.0,49.0,33.0,51.0,1881.921
1881931.0,51.0,48.0,40.0,52.0,1881.931
1881942.0,53.0,49.0,41.0,59.0,1881.942
1881952.0,54.0,49.0,44.0,59.0,1881.952
1881962.0,56.0,48.0,40.0,61.0,1881.962
1881972.0,55.0,52.0,44.0,58.0,1881.972
1881982.0,57.0,50.0,44.0,57.0,1881.982
1881992.0,59.0,48.0,38.0,55.0,1881.992
1882002.0,59.0,49.0,40.0,54.0,1882.002
1882012.0,59.0,48.0,38.0,53.0,1882.012
1882022.0,58.0,47.0,33.0,55.0,1882.022
1882032.0,58.0,49.0,35.0,54.0,1882.032
1882042.0,57.0,48.0,34.0,55.0,1882.042
1882052.0,55.0,48.0,32.0,53.0,1882.052
1882062.0,55.0,50.0,36.0,53.0,1882.062
1882072.0,54.0,49.0,33.0,51.0,1882.072
1882082.0,53.0,48.0,30.0,48.0,1882.082
1882092.0,53.0,48.0,25.0,49.0,1882.092
1882102.0,52.0,48.0,25.0,49.0,1882.102
1882112.0,52.0,47.0,22.0,49.0,1882.112
1882122.0,49.0,48.0,21.0,50.0,1882.122
1882132.0,51.0,48.0,21.0,49.0,1882.132
1882142.0,50.0,50.0,22.0,47.0,1882.142
1882152.0,50.0,51.0,41.0,52.0,1882.152
1882162.0,50.0,49.0,39.0,54.0,1882.162
1882172.0,49.0,49.0,38.0,54.0,1882.172
1882182.0,49.0,48.0,35.0,54.0,1882.182
1882192.0,49.0,48.0,30.0,55.0,1882.192
1882202.0,48.0,50.0,28.0,54.0,1882.202
1882212.0,48.0,50.0,25.0,53.0,1882.212
1882222.0,48.0,52.0,24.0,54.0,1882.222
1882232.0,48.0,52.0,25.0,51.0,1882.232
1882242.0,47.0,54.0,31.0,51.0,1882.242
1882252.0,49.0,51.0,31.0,49.0,1882.252
1882262.0,48.0,51.0,30.0,49.0,1882.262
1882272.0,46.0,50.0,27.0,49.0,1882.272
1882283.0,47.0,51.0,29.0,55.0,1882.283
1882293.0,48.0,49.0,25.0,53.0,1882.293
1882303.0,47.0,48.0,24.0,50.0,1882.303
1882313.0,46.0,49.0,24.0,49.0,1882.313
1882323.0,47.0,49.0,35.0,48.0,1882.323
1882333.0,47.0,48.0,31.0,48.0,1882.333
1882343.0,46.0,48.0,28.0,50.0,1882.343
1882353.0,47.0,49.0,29.0,48.0,1882.353
1882363.0,47.0,48.0,35.0,49.0,1882.363
1882373.0,47.0,48.0,35.0,49.0,1882.373
1882383.0,47.0,48.0,33.0,52.0,1882.383
1882393.0,47.0,47.0,37.0,53.0,1882.393
1882403.0,49.0,46.0,34.0,51.0,1882.403
1882413.0,48.0,46.0,32.0,48.0,1882.413
1882423.0,48.0,45.0,31.0,48.0,1882.423
1882433.0,48.0,45.0,27.0,47.0,1882.433
1882443.0,49.0,45.0,25.0,44.0,1882.443
1882454.0,48.0,44.0,25.0,49.0,1882.454
1882464.0,48.0,44.0,24.0,47.0,1882.464
1882474.0,47.0,46.0,29.0,48.0,1882.474
1882484.0,48.0,45.0,25.0,47.0,1882.484
1882494.0,48.0,44.0,24.0,48.0,1882.494
1882504.0,48.0,44.0,24.0,47.0,1882.504
1882514.0,48.0,42.0,21.0,46.0,1882.514
1882524.0,48.0,45.0,38.0,56.0,1882.524
1882534.0,49.0,46.0,41.0,59.0,1882.534
1882544.0,49.0,47.0,46.0,59.0,1882.544
1882554.0,48.0,46.0,45.0,56.0,1882.554
1882564.0,46.0,46.0,38.0,55.0,1882.564
1882574.0,46.0,45.0,34.0,52.0,1882.574
1882584.0,46.0,47.0,30.0,50.0,1882.584
1882594.0,45.0,46.0,31.0,52.0,1882.594
1882604.0,47.0,51.0,39.0,61.0,1882.604
1882614.0,47.0,51.0,44.0,63.0,1882.614
1882624.0,48.0,50.0,41.0,60.0,1882.624
1882634.0,46.0,51.0,35.0,59.0,1882.634
1882644.0,46.0,51.0,31.0,56.0,1882.644
1882654.0,46.0,51.0,28.0,55.0,1882.654
1882664.0,44.0,52.0,25.0,56.0,1882.664
1882674.0,44.0,52.0,23.0,55.0,1882.674
1882684.0,44.0,56.0,29.0,57.0,1882.684
1882694.0,45.0,54.0,31.0,58.0,1882.694
1882704.0,45.0,56.0,28.0,58.0,1882.704
1882714.0,44.0,57.0,27.0,59.0,1882.714
1882724.0,45.0,54.0,24.0,57.0,1882.724
1882734.0,44.0,55.0,22.0,55.0,1882.734
1882744.0,45.0,54.0,20.0,52.0,1882.744
1882754.0,45.0,55.0,29.0,52.0,1882.754
1882764.0,45.0,59.0,46.0,52.0,1882.764
1882774.0,47.0,56.0,41.0,51.0,1882.774
1882784.0,46.0,56.0,40.0,54.0,1882.784
1882795.0,46.0,53.0,35.0,57.0,1882.795
1882805.0,46.0,53.0,32.0,65.0,1882.805
1882815.0,47.0,54.0,35.0,66.0,1882.815
1882825.0,46.0,51.0,40.0,66.0,1882.825
1882835.0,45.0,49.0,38.0,63.0,1882.835
1882845.0,46.0,48.0,41.0,62.0,1882.845
1882855.0,46.0,48.0,37.0,60.0,1882.855
1882865.0,46.0,54.0,32.0,57.0,1882.865
1882875.0,47.0,53.0,30.0,55.0,1882.875
1882885.0,47.0,53.0,28.0,55.0,1882.885
1882895.0,49.0,58.0,31.0,59.0,1882.895
1882905.0,55.0,77.0,28.0,63.0,1882.905
1882915.0,58.0,90.0,31.0,74.0,1882.915
1882925.0,63.0,92.0,37.0,84.0,1882.925
1882935.0,72.0,138.0,53.0,101.0,1882.935
1882945.0,83.0,131.0,64.0,118.0,1882.945
1882955.0,92.0,136.0,74.0,160.0,1882.955
1882966.0,90.0,130.0,67.0,164.0,1882.966
1882976.0,117.0,169.0,81.0,166.0,1882.976
1882986.0,124.0,177.0,79.0,155.0,1882.986
1882996.0,143.0,179.0,83.0,167.0,1882.996
1883006.0,153.0,173.0,90.0,174.0,1883.006
1883016.0,141.0,169.0,87.0,161.0,1883.016
1883026.0,134.0,172.0,79.0,152.0,1883.026
1883036.0,136.0,186.0,87.0,143.0,1883.036
1883046.0,136.0,190.0,77.0,140.0,1883.046
1883056.0,140.0,205.0,85.0,147.0,1883.056
1883066.0,137.0,204.0,85.0,147.0,1883.066
1883076.0,134.0,207.0,86.0,144.0,1883.076
1883086.0,126.0,204.0,78.0,157.0,1883.086
1883096.0,126.0,205.0,70.0,152.0,1883.096
1883106.0,123.0,220.0,77.0,150.0,1883.106
1883116.0,115.0,216.0,92.0,146.0,1883.116
1883126.0,110.0,212.0,92.0,146.0,1883.126
1883136.0,105.0,210.0,85.0,145.0,1883.136
1883146.0,98.0,207.0,100.0,136.0,1883.146
1883156.0,94.0,206.0,100.0,137.0,1883.156
1883166.0,92.0,208.0,98.0,136.0,1883.166
1883176.0,90.0,209.0,94.0,138.0,1883.176
1883186.0,90.0,212.0,93.0,142.0,1883.186
1883196.0,87.0,204.0,87.0,146.0,1883.196
1883206.0,83.0,204.0,90.0,150.0,1883.206
1883216.0,79.0,194.0,87.0,152.0,1883.216
1883226.0,78.0,196.0,81.0,150.0,1883.226
1883236.0,77.0,195.0,79.0,145.0,1883.236
1883246.0,75.0,191.0,76.0,146.0,1883.246
1883256.0,72.0,188.0,71.0,148.0,1883.256
1883266.0,73.0,185.0,66.0,145.0,1883.266
1883276.0,76.0,182.0,68.0,138.0,1883.276
1883286.0,75.0,180.0,71.0,135.0,1883.286
1883296.0,76.0,179.0,65.0,134.0,1883.296
1883307.0,76.0,176.0,66.0,138.0,1883.307
1883317.0,72.0,175.0,62.0,133.0,1883.317
1883327.0,71.0,177.0,67.0,130.0,1883.327
1883337.0,69.0,174.0,63.0,129.0,1883.337
1883347.0,69.0,168.0,64.0,127.0,1883.347
1883357.0,71.0,166.0,61.0,127.0,1883.357
1883367.0,75.0,170.0,72.0,122.0,1883.367
1883377.0,73.0,168.0,71.0,118.0,1883.377
1883387.0,74.0,166.0,67.0,116.0,1883.387
1883397.0,71.0,160.0,61.0,118.0,1883.397
1883407.0,68.0,157.0,60.0,116.0,1883.407
1883417.0,75.0,159.0,65.0,112.0,1883.417
1883427.0,72.0,155.0,65.0,109.0,1883.427
1883437.0,76.0,153.0,65.0,106.0,1883.437
1883447.0,76.0,155.0,60.0,101.0,1883.447
1883457.0,73.0,150.0,55.0,106.0,1883.457
1883467.0,72.0,149.0,56.0,104.0,1883.467
1883478.0,71.0,143.0,57.0,98.0,1883.478
1883488.0,71.0,141.0,73.0,96.0,1883.488
1883498.0,69.0,138.0,65.0,95.0,1883.498
1883508.0,66.0,133.0,63.0,91.0,1883.508
1883518.0,67.0,135.0,58.0,94.0,1883.518
1883528.0,68.0,136.0,55.0,93.0,1883.528
1883538.0,72.0,133.0,59.0,93.0,1883.538
1883548.0,70.0,130.0,78.0,90.0,1883.548
1883558.0,71.0,121.0,75.0,90.0,1883.558
1883568.0,68.0,126.0,70.0,86.0,1883.568
1883578.0,67.0,121.0,65.0,93.0,1883.578
1883588.0,70.0,125.0,70.0,89.0,1883.588
1883598.0,69.0,126.0,60.0,91.0,1883.598
1883608.0,70.0,126.0,63.0,88.0,1883.608
1883618.0,73.0,131.0,89.0,89.0,1883.618
1883628.0,73.0,132.0,91.0,94.0,1883.628
1883638.0,70.0,126.0,85.0,90.0,1883.638
1883648.0,69.0,129.0,81.0,89.0,1883.648
1883658.0,69.0,129.0,79.0,85.0,1883.658
1883668.0,71.0,125.0,75.0,83.0,1883.668
1883678.0,70.0,124.0,78.0,85.0,1883.678
1883688.0,71.0,118.0,69.0,84.0,1883.688
1883698.0,70.0,118.0,62.0,82.0,1883.698
1883708.0,69.0,117.0,60.0,78.0,1883.708
1883718.0,71.0,119.0,72.0,76.0,1883.718
1883728.0,73.0,118.0,72.0,74.0,1883.728
1883738.0,75.0,112.0,79.0,82.0,1883.738
1883748.0,72.0,111.0,71.0,84.0,1883.748
1883758.0,72.0,111.0,89.0,86.0,1883.758
1883768.0,73.0,110.0,97.0,88.0,1883.768
1883778.0,72.0,108.0,93.0,88.0,1883.778
1883788.0,72.0,103.0,83.0,88.0,1883.788
1883798.0,69.0,103.0,73.0,84.0,1883.798
1883808.0,65.0,105.0,73.0,83.0,1883.808
1883819.0,64.0,100.0,66.0,84.0,1883.819
1883829.0,62.0,99.0,61.0,81.0,1883.829
1883839.0,65.0,104.0,82.0,89.0,1883.839
1883849.0,66.0,101.0,72.0,89.0,1883.849
1883859.0,67.0,97.0,69.0,84.0,1883.859
1883869.0,66.0,102.0,81.0,84.0,1883.869
1883879.0,66.0,98.0,91.0,87.0,1883.879
1883889.0,69.0,100.0,89.0,91.0,1883.889
1883899.0,69.0,94.0,80.0,87.0,1883.899
1883909.0,69.0,95.0,91.0,83.0,1883.909
1883919.0,69.0,92.0,92.0,82.0,1883.919
1883929.0,67.0,95.0,83.0,76.0,1883.929
1883939.0,70.0,95.0,82.0,73.0,1883.939
1883949.0,79.0,105.0,79.0,72.0,1883.949
1883959.0,79.0,98.0,76.0,70.0,1883.959
1883969.0,77.0,101.0,103.0,78.0,1883.969
1883979.0,79.0,99.0,107.0,85.0,1883.979
1883990.0,83.0,101.0,100.0,83.0,1883.99
1884000.0,80.0,99.0,91.0,80.0,1884.0
1884010.0,78.0,98.0,82.0,73.0,1884.01
1884020.0,78.0,99.0,77.0,73.0,1884.02
1884030.0,79.0,98.0,106.0,74.0,1884.03
1884040.0,83.0,97.0,106.0,73.0,1884.04
1884050.0,83.0,104.0,112.0,73.0,1884.05
1884060.0,82.0,98.0,113.0,73.0,1884.06
1884070.0,86.0,102.0,101.0,70.0,1884.07
1884080.0,83.0,97.0,92.0,67.0,1884.08
1884090.0,79.0,93.0,97.0,69.0,1884.09
1884100.0,78.0,91.0,106.0,69.0,1884.1
1884110.0,75.0,88.0,95.0,65.0,1884.11
1884120.0,74.0,89.0,86.0,63.0,1884.12
1884130.0,73.0,86.0,80.0,61.0,1884.13
1884140.0,76.0,91.0,97.0,68.0,1884.14
1884150.0,76.0,87.0,90.0,72.0,1884.15
1884160.0,74.0,83.0,80.0,69.0,1884.16
1884170.0,72.0,80.0,72.0,65.0,1884.17
1884180.0,71.0,77.0,65.0,63.0,1884.18
1884190.0,69.0,77.0,68.0,63.0,1884.19
1884200.0,71.0,79.0,63.0,61.0,1884.2
1884210.0,73.0,79.0,62.0,60.0,1884.21
1884220.0,70.0,78.0,60.0,56.0,1884.22
1884230.0,70.0,76.0,68.0,52.0,1884.23
1884240.0,71.0,75.0,59.0,51.0,1884.24
1884250.0,74.0,80.0,58.0,49.0,1884.25
1884260.0,72.0,78.0,58.0,49.0,1884.26
1884270.0,70.0,81.0,55.0,52.0,1884.27
1884280.0,71.0,77.0,52.0,52.0,1884.28
1884290.0,71.0,75.0,47.0,53.0,1884.29
1884300.0,68.0,73.0,42.0,49.0,1884.3
1884310.0,70.0,75.0,52.0,52.0,1884.31
1884320.0,69.0,80.0,55.0,54.0,1884.32
1884331.0,79.0,88.0,60.0,61.0,1884.331
1884341.0,82.0,85.0,56.0,65.0,1884.341
1884351.0,82.0,84.0,50.0,61.0,1884.351
1884361.0,80.0,78.0,54.0,58.0,1884.361
1884371.0,78.0,74.0,48.0,54.0,1884.371
1884381.0,75.0,73.0,43.0,52.0,1884.381
1884391.0,85.0,85.0,49.0,57.0,1884.391
1884401.0,84.0,87.0,78.0,60.0,1884.401
1884411.0,84.0,86.0,68.0,58.0,1884.411
1884421.0,83.0,85.0,63.0,53.0,1884.421
1884431.0,80.0,81.0,60.0,55.0,1884.431
1884441.0,78.0,78.0,58.0,54.0,1884.441
1884451.0,77.0,81.0,54.0,56.0,1884.451
1884461.0,76.0,83.0,62.0,57.0,1884.461
1884471.0,78.0,81.0,56.0,57.0,1884.471
1884481.0,76.0,80.0,51.0,56.0,1884.481
1884491.0,77.0,82.0,50.0,54.0,1884.491
1884502.0,76.0,81.0,49.0,51.0,1884.502
1884512.0,73.0,77.0,48.0,49.0,1884.512
1884522.0,71.0,80.0,51.0,48.0,1884.522
1884532.0,72.0,76.0,47.0,46.0,1884.532
1884542.0,71.0,72.0,42.0,48.0,1884.542
1884552.0,73.0,76.0,43.0,50.0,1884.552
1884562.0,71.0,74.0,43.0,51.0,1884.562
1884572.0,74.0,72.0,59.0,56.0,1884.572
1884582.0,74.0,71.0,54.0,53.0,1884.582
1884592.0,71.0,71.0,58.0,52.0,1884.592
1884602.0,74.0,70.0,56.0,50.0,1884.602
1884612.0,75.0,74.0,58.0,60.0,1884.612
1884622.0,77.0,76.0,59.0,56.0,1884.622
1884632.0,79.0,77.0,58.0,54.0,1884.632
1884642.0,76.0,74.0,53.0,51.0,1884.642
1884652.0,75.0,73.0,61.0,53.0,1884.652
1884662.0,76.0,76.0,63.0,58.0,1884.662
1884672.0,78.0,73.0,65.0,61.0,1884.672
1884682.0,75.0,71.0,59.0,58.0,1884.682
1884692.0,74.0,70.0,53.0,56.0,1884.692
1884702.0,76.0,71.0,48.0,54.0,1884.702
1884712.0,74.0,73.0,48.0,58.0,1884.712
1884722.0,76.0,74.0,51.0,56.0,1884.722
1884732.0,78.0,76.0,52.0,53.0,1884.732
1884742.0,78.0,74.0,53.0,51.0,1884.742
1884752.0,82.0,77.0,57.0,56.0,1884.752
1884762.0,81.0,76.0,54.0,54.0,1884.762
1884772.0,81.0,77.0,67.0,56.0,1884.772
1884782.0,81.0,74.0,61.0,56.0,1884.782
1884792.0,79.0,73.0,57.0,52.0,1884.792
1884802.0,81.0,70.0,55.0,51.0,1884.802
1884812.0,78.0,71.0,53.0,53.0,1884.812
1884822.0,83.0,72.0,48.0,50.0,1884.822
1884832.0,83.0,71.0,44.0,54.0,1884.832
1884843.0,80.0,70.0,43.0,54.0,1884.843
1884853.0,81.0,67.0,58.0,54.0,1884.853
1884863.0,78.0,64.0,58.0,52.0,1884.863
1884873.0,74.0,62.0,62.0,50.0,1884.873
1884883.0,72.0,62.0,57.0,48.0,1884.883
1884893.0,72.0,63.0,65.0,48.0,1884.893
1884903.0,72.0,64.0,64.0,51.0,1884.903
1884913.0,72.0,64.0,59.0,52.0,1884.913
1884923.0,69.0,62.0,52.0,48.0,1884.923
1884933.0,67.0,67.0,56.0,54.0,1884.933
1884943.0,73.0,70.0,58.0,52.0,1884.943
1884953.0,72.0,67.0,61.0,54.0,1884.953
1884963.0,70.0,65.0,57.0,53.0,1884.963
1884973.0,71.0,62.0,52.0,50.0,1884.973
1884983.0,70.0,63.0,54.0,49.0,1884.983
1884993.0,70.0,63.0,49.0,47.0,1884.993
1885003.0,70.0,62.0,45.0,48.0,1885.003
1885014.0,69.0,62.0,49.0,49.0,1885.014
1885024.0,71.0,61.0,50.0,53.0,1885.024
1885034.0,68.0,64.0,58.0,54.0,1885.034
1885044.0,75.0,66.0,58.0,50.0,1885.044
1885054.0,76.0,67.0,53.0,49.0,1885.054
1885064.0,77.0,65.0,52.0,48.0,1885.064
1885074.0,78.0,65.0,49.0,47.0,1885.074
1885084.0,75.0,66.0,47.0,48.0,1885.084
1885094.0,75.0,67.0,42.0,47.0,1885.094
1885104.0,78.0,72.0,46.0,50.0,1885.104
1885114.0,79.0,75.0,66.0,56.0,1885.114
1885124.0,79.0,73.0,62.0,55.0,1885.124
1885134.0,79.0,71.0,62.0,55.0,1885.134
1885144.0,78.0,68.0,54.0,50.0,1885.144
1885154.0,78.0,66.0,49.0,48.0,1885.154
1885164.0,74.0,66.0,63.0,58.0,1885.164
1885174.0,75.0,67.0,67.0,71.0,1885.174
1885184.0,72.0,65.0,64.0,127.0,1885.184
1885194.0,71.0,64.0,57.0,129.0,1885.194
1885204.0,72.0,67.0,73.0,135.0,1885.204
1885214.0,69.0,65.0,95.0,158.0,1885.214
1885224.0,77.0,70.0,108.0,169.0,1885.224
1885234.0,83.0,81.0,148.0,209.0,1885.234
1885244.0,94.0,87.0,146.0,269.0,1885.244
1885254.0,105.0,103.0,202.0,349.0,1885.254
1885264.0,108.0,108.0,192.0,353.0,1885.264
1885274.0,110.0,114.0,214.0,399.0,1885.274
1885284.0,115.0,126.0,245.0,450.0,1885.284
1885294.0,115.0,120.0,223.0,417.0,1885.294
1885304.0,108.0,113.0,249.0,464.0,1885.304
1885314.0,117.0,127.0,271.0,520.0,1885.314
1885324.0,114.0,125.0,272.0,521.0,1885.324
1885334.0,118.0,135.0,306.0,516.0,1885.334
1885344.0,126.0,153.0,303.0,524.0,1885.344
1885355.0,129.0,167.0,284.0,475.0,1885.355
1885365.0,129.0,176.0,264.0,484.0,1885.365
1885375.0,125.0,185.0,263.0,471.0,1885.375
1885385.0,122.0,194.0,260.0,487.0,1885.385
1885395.0,123.0,209.0,252.0,458.0,1885.395
1885405.0,123.0,223.0,240.0,474.0,1885.405
1885415.0,119.0,231.0,221.0,471.0,1885.415
1885425.0,116.0,240.0,217.0,483.0,1885.425
1885435.0,115.0,251.0,191.0,441.0,1885.435
1885445.0,112.0,258.0,176.0,445.0,1885.445
1885455.0,110.0,264.0,168.0,419.0,1885.455
1885465.0,105.0,265.0,159.0,413.0,1885.465
1885475.0,104.0,272.0,145.0,387.0,1885.475
1885485.0,103.0,277.0,140.0,376.0,1885.485
1885495.0,100.0,276.0,125.0,344.0,1885.495
1885505.0,98.0,279.0,116.0,319.0,1885.505
1885515.0,96.0,276.0,126.0,297.0,1885.515
1885526.0,97.0,279.0,144.0,291.0,1885.526
1885536.0,92.0,276.0,134.0,293.0,1885.536
1885546.0,93.0,278.0,123.0,272.0,1885.546
1885556.0,90.0,276.0,118.0,270.0,1885.556
1885566.0,89.0,272.0,113.0,274.0,1885.566
1885576.0,89.0,272.0,106.0,272.0,1885.576
1885586.0,91.0,271.0,100.0,275.0,1885.586
1885596.0,91.0,267.0,93.0,265.0,1885.596
1885606.0,91.0,265.0,88.0,245.0,1885.606
1885616.0,91.0,261.0,81.0,246.0,1885.616
1885626.0,89.0,257.0,84.0,262.0,1885.626
1885636.0,91.0,254.0,101.0,254.0,1885.636
1885646.0,89.0,246.0,116.0,239.0,1885.646
1885656.0,88.0,242.0,117.0,229.0,1885.656
1885666.0,91.0,241.0,103.0,237.0,1885.666
1885676.0,87.0,235.0,89.0,225.0,1885.676
1885686.0,88.0,232.0,99.0,239.0,1885.686
1885696.0,86.0,225.0,101.0,220.0,1885.696
1885706.0,86.0,221.0,92.0,212.0,1885.706
1885716.0,84.0,217.0,86.0,208.0,1885.716
1885726.0,82.0,211.0,95.0,214.0,1885.726
1885736.0,81.0,206.0,91.0,212.0,1885.736
1885746.0,82.0,202.0,101.0,206.0,1885.746
1885756.0,81.0,198.0,88.0,200.0,1885.756
1885766.0,81.0,193.0,77.0,183.0,1885.766
1885776.0,80.0,186.0,78.0,178.0,1885.776
1885786.0,80.0,183.0,71.0,192.0,1885.786
1885796.0,81.0,181.0,65.0,200.0,1885.796
1885806.0,79.0,175.0,79.0,213.0,1885.806
1885816.0,81.0,170.0,78.0,229.0,1885.816
1885826.0,80.0,168.0,68.0,217.0,1885.826
1885836.0,79.0,163.0,63.0,213.0,1885.836
1885846.0,79.0,160.0,64.0,205.0,1885.846
1885856.0,77.0,157.0,66.0,199.0,1885.856
1885867.0,76.0,152.0,75.0,188.0,1885.867
1885877.0,75.0,151.0,76.0,179.0,1885.877
1885887.0,74.0,148.0,67.0,179.0,1885.887
1885897.0,72.0,144.0,68.0,175.0,1885.897
1885907.0,71.0,143.0,62.0,178.0,1885.907
1885917.0,70.0,139.0,66.0,182.0,1885.917
1885927.0,71.0,138.0,75.0,217.0,1885.927
1885937.0,71.0,136.0,69.0,228.0,1885.937
1885947.0,70.0,133.0,61.0,208.0,1885.947
1885957.0,69.0,130.0,55.0,197.0,1885.957
1885967.0,67.0,126.0,59.0,182.0,1885.967
1885977.0,67.0,124.0,68.0,175.0,1885.977
1885987.0,69.0,123.0,64.0,183.0,1885.987
1885997.0,68.0,123.0,56.0,175.0,1885.997
1886007.0,69.0,122.0,56.0,164.0,1886.007
1886017.0,69.0,120.0,65.0,167.0,1886.017
1886027.0,69.0,118.0,56.0,171.0,1886.027
1886038.0,70.0,119.0,50.0,164.0,1886.038
1886048.0,68.0,115.0,68.0,166.0,1886.048
1886058.0,68.0,115.0,60.0,159.0,1886.058
1886068.0,69.0,114.0,62.0,158.0,1886.068
1886078.0,67.0,114.0,72.0,157.0,1886.078
1886088.0,67.0,108.0,77.0,148.0,1886.088
1886098.0,67.0,107.0,91.0,157.0,1886.098
1886108.0,67.0,106.0,99.0,168.0,1886.108
1886118.0,69.0,106.0,87.0,172.0,1886.118
1886128.0,67.0,104.0,77.0,160.0,1886.128
1886138.0,66.0,99.0,79.0,162.0,1886.138
1886148.0,66.0,102.0,71.0,169.0,1886.148
1886158.0,64.0,100.0,70.0,178.0,1886.158
1886168.0,64.0,97.0,90.0,180.0,1886.168
1886178.0,67.0,99.0,101.0,174.0,1886.178
1886188.0,65.0,97.0,97.0,161.0,1886.188
1886198.0,64.0,95.0,93.0,151.0,1886.198
1886208.0,64.0,94.0,85.0,149.0,1886.208
1886218.0,64.0,92.0,76.0,159.0,1886.218
1886228.0,63.0,90.0,71.0,149.0,1886.228
1886238.0,61.0,87.0,70.0,137.0,1886.238
1886248.0,60.0,87.0,70.0,131.0,1886.248
1886258.0,61.0,85.0,67.0,131.0,1886.258
1886268.0,60.0,85.0,64.0,137.0,1886.268
1886278.0,56.0,82.0,63.0,129.0,1886.278
1886288.0,56.0,80.0,59.0,124.0,1886.288
1886298.0,56.0,78.0,51.0,122.0,1886.298
1886308.0,54.0,74.0,52.0,131.0,1886.308
1886318.0,54.0,73.0,52.0,130.0,1886.318
1886328.0,52.0,72.0,47.0,126.0,1886.328
1886338.0,55.0,72.0,50.0,122.0,1886.338
1886348.0,53.0,70.0,45.0,122.0,1886.348
1886358.0,53.0,69.0,44.0,120.0,1886.358
1886368.0,52.0,68.0,40.0,129.0,1886.368
1886379.0,52.0,66.0,41.0,120.0,1886.379
1886389.0,53.0,66.0,37.0,116.0,1886.389
1886399.0,52.0,66.0,35.0,125.0,1886.399
1886409.0,52.0,64.0,36.0,116.0,1886.409
1886419.0,53.0,63.0,32.0,122.0,1886.419
1886429.0,54.0,63.0,29.0,115.0,1886.429
1886439.0,54.0,61.0,37.0,113.0,1886.439
1886449.0,53.0,61.0,36.0,113.0,1886.449
1886459.0,53.0,58.0,41.0,126.0,1886.459
1886469.0,55.0,59.0,41.0,128.0,1886.469
1886479.0,56.0,60.0,40.0,122.0,1886.479
1886489.0,56.0,59.0,40.0,123.0,1886.489
1886499.0,55.0,58.0,39.0,117.0,1886.499
1886509.0,55.0,57.0,46.0,121.0,1886.509
1886519.0,55.0,58.0,43.0,116.0,1886.519
1886529.0,55.0,56.0,43.0,110.0,1886.529
1886539.0,54.0,54.0,45.0,110.0,1886.539
1886550.0,53.0,53.0,49.0,115.0,1886.55
1886560.0,56.0,53.0,45.0,115.0,1886.56
1886570.0,55.0,51.0,39.0,121.0,1886.57
1886580.0,54.0,49.0,35.0,120.0,1886.58
1886590.0,55.0,51.0,43.0,116.0,1886.59
1886600.0,55.0,51.0,43.0,115.0,1886.6
1886610.0,54.0,50.0,41.0,115.0,1886.61
1886620.0,53.0,48.0,36.0,114.0,1886.62
1886630.0,53.0,47.0,33.0,115.0,1886.63
1886640.0,52.0,45.0,32.0,109.0,1886.64
1886650.0,50.0,45.0,30.0,103.0,1886.65
1886660.0,51.0,43.0,26.0,101.0,1886.66
1886670.0,50.0,45.0,38.0,99.0,1886.67
1886680.0,51.0,46.0,50.0,114.0,1886.68
1886690.0,51.0,44.0,48.0,108.0,1886.69
1886700.0,49.0,44.0,48.0,105.0,1886.7
1886710.0,50.0,43.0,47.0,107.0,1886.71
1886720.0,50.0,43.0,40.0,105.0,1886.72
1886730.0,49.0,41.0,36.0,101.0,1886.73
1886740.0,49.0,43.0,39.0,105.0,1886.74
1886750.0,48.0,42.0,35.0,100.0,1886.75
1886760.0,48.0,44.0,54.0,97.0,1886.76
1886770.0,49.0,44.0,59.0,102.0,1886.77
1886780.0,49.0,45.0,55.0,106.0,1886.78
1886790.0,49.0,46.0,55.0,118.0,1886.79
1886800.0,49.0,46.0,54.0,113.0,1886.8
1886810.0,48.0,45.0,48.0,107.0,1886.81
1886820.0,48.0,50.0,45.0,111.0,1886.82
1886830.0,47.0,46.0,40.0,111.0,1886.83
1886840.0,47.0,48.0,35.0,126.0,1886.84
1886850.0,47.0,48.0,33.0,123.0,1886.85
1886860.0,49.0,48.0,37.0,129.0,1886.86
1886870.0,46.0,48.0,44.0,145.0,1886.87
1886880.0,46.0,46.0,41.0,135.0,1886.88
1886891.0,46.0,47.0,37.0,145.0,1886.891
1886901.0,45.0,46.0,35.0,134.0,1886.901
1886911.0,46.0,49.0,48.0,142.0,1886.911
1886921.0,47.0,50.0,49.0,128.0,1886.921
1886931.0,47.0,49.0,44.0,120.0,1886.931
1886941.0,46.0,49.0,42.0,122.0,1886.941
1886951.0,46.0,48.0,38.0,114.0,1886.951
1886961.0,45.0,48.0,34.0,118.0,1886.961
1886971.0,47.0,51.0,46.0,114.0,1886.971
1886981.0,47.0,49.0,44.0,112.0,1886.981
1886991.0,47.0,48.0,47.0,111.0,1886.991
1887001.0,47.0,48.0,47.0,103.0,1887.001
1887011.0,48.0,49.0,44.0,112.0,1887.011
1887021.0,48.0,50.0,51.0,121.0,1887.021
1887031.0,48.0,48.0,48.0,120.0,1887.031
1887041.0,49.0,50.0,50.0,110.0,1887.041
1887051.0,47.0,48.0,57.0,103.0,1887.051
1887062.0,49.0,48.0,52.0,104.0,1887.062
1887072.0,47.0,47.0,49.0,105.0,1887.072
1887082.0,49.0,47.0,50.0,121.0,1887.082
1887092.0,48.0,48.0,44.0,119.0,1887.092
1887102.0,48.0,47.0,39.0,113.0,1887.102
1887112.0,48.0,48.0,35.0,109.0,1887.112
1887122.0,49.0,50.0,42.0,106.0,1887.122
1887132.0,48.0,48.0,42.0,107.0,1887.132
1887142.0,48.0,49.0,44.0,106.0,1887.142
1887152.0,48.0,49.0,47.0,102.0,1887.152
1887162.0,48.0,50.0,54.0,128.0,1887.162
1887172.0,48.0,49.0,52.0,124.0,1887.172
1887182.0,48.0,49.0,48.0,115.0,1887.182
1887192.0,48.0,52.0,46.0,112.0,1887.192
1887202.0,48.0,52.0,46.0,105.0,1887.202
1887212.0,47.0,52.0,40.0,97.0,1887.212
1887222.0,47.0,52.0,35.0,96.0,1887.222
1887232.0,49.0,55.0,43.0,101.0,1887.232
1887242.0,47.0,55.0,38.0,105.0,1887.242
1887252.0,51.0,54.0,38.0,112.0,1887.252
1887262.0,50.0,57.0,37.0,106.0,1887.262
1887272.0,50.0,54.0,35.0,112.0,1887.272
1887282.0,50.0,54.0,35.0,119.0,1887.282
1887292.0,49.0,56.0,37.0,122.0,1887.292
1887302.0,51.0,56.0,38.0,120.0,1887.302
1887312.0,50.0,58.0,34.0,122.0,1887.312
1887322.0,48.0,57.0,34.0,119.0,1887.322
1887332.0,47.0,58.0,31.0,120.0,1887.332
1887342.0,47.0,60.0,28.0,121.0,1887.342
1887352.0,47.0,58.0,24.0,112.0,1887.352
1887362.0,47.0,61.0,44.0,105.0,1887.362
1887372.0,51.0,60.0,45.0,101.0,1887.372
1887382.0,49.0,58.0,44.0,125.0,1887.382
1887392.0,50.0,57.0,40.0,131.0,1887.392
1887403.0,50.0,57.0,39.0,120.0,1887.403
1887413.0,49.0,59.0,33.0,114.0,1887.413
1887423.0,49.0,60.0,31.0,112.0,1887.423
1887433.0,51.0,61.0,34.0,108.0,1887.433
1887443.0,52.0,62.0,41.0,109.0,1887.443
1887453.0,54.0,59.0,42.0,111.0,1887.453
1887463.0,53.0,58.0,42.0,104.0,1887.463
1887473.0,54.0,57.0,43.0,96.0,1887.473
1887483.0,54.0,57.0,39.0,94.0,1887.483
1887493.0,55.0,57.0,55.0,106.0,1887.493
1887503.0,55.0,58.0,58.0,109.0,1887.503
1887513.0,53.0,59.0,56.0,104.0,1887.513
1887523.0,55.0,58.0,55.0,105.0,1887.523
1887533.0,54.0,59.0,53.0,103.0,1887.533
1887543.0,55.0,59.0,49.0,111.0,1887.543
1887553.0,55.0,60.0,46.0,103.0,1887.553
1887563.0,55.0,61.0,42.0,99.0,1887.563
1887574.0,56.0,61.0,37.0,93.0,1887.574
1887584.0,55.0,66.0,33.0,95.0,1887.584
1887594.0,55.0,64.0,39.0,96.0,1887.594
1887604.0,56.0,63.0,38.0,95.0,1887.604
1887614.0,57.0,60.0,36.0,93.0,1887.614
1887624.0,56.0,60.0,39.0,98.0,1887.624
1887634.0,57.0,61.0,37.0,92.0,1887.634
1887644.0,56.0,61.0,32.0,92.0,1887.644
1887654.0,55.0,61.0,29.0,86.0,1887.654
1887664.0,55.0,61.0,26.0,83.0,1887.664
1887674.0,54.0,60.0,22.0,80.0,1887.674
1887684.0,54.0,61.0,24.0,79.0,1887.684
1887694.0,55.0,62.0,37.0,87.0,1887.694
1887704.0,54.0,62.0,39.0,98.0,1887.704
1887714.0,53.0,61.0,38.0,100.0,1887.714
1887724.0,52.0,60.0,35.0,94.0,1887.724
1887734.0,50.0,61.0,31.0,94.0,1887.734
1887744.0,50.0,60.0,30.0,100.0,1887.744
1887754.0,50.0,61.0,36.0,104.0,1887.754
1887764.0,49.0,60.0,32.0,101.0,1887.764
1887774.0,50.0,60.0,31.0,99.0,1887.774
1887784.0,50.0,58.0,28.0,93.0,1887.784
1887794.0,50.0,57.0,26.0,96.0,1887.794
1887804.0,49.0,58.0,24.0,103.0,1887.804
1887814.0,51.0,56.0,24.0,108.0,1887.814
1887824.0,50.0,55.0,24.0,106.0,1887.824
1887834.0,50.0,56.0,30.0,99.0,1887.834
1887844.0,50.0,55.0,32.0,94.0,1887.844
1887854.0,50.0,55.0,28.0,90.0,1887.854
1887864.0,50.0,55.0,27.0,85.0,1887.864
1887874.0,50.0,53.0,24.0,86.0,1887.874
1887884.0,52.0,53.0,23.0,91.0,1887.884
1887894.0,51.0,52.0,20.0,84.0,1887.894
1887904.0,50.0,53.0,22.0,78.0,1887.904
1887915.0,51.0,53.0,25.0,88.0,1887.915
1887925.0,51.0,56.0,37.0,93.0,1887.925
1887935.0,52.0,54.0,35.0,91.0,1887.935
1887945.0,53.0,53.0,32.0,86.0,1887.945
1887955.0,52.0,55.0,28.0,85.0,1887.955
1887965.0,53.0,54.0,30.0,86.0,1887.965
1887975.0,52.0,54.0,28.0,86.0,1887.975
1887985.0,51.0,54.0,26.0,80.0,1887.985
1887995.0,50.0,55.0,23.0,79.0,1887.995
1888005.0,50.0,55.0,20.0,93.0,1888.005
1888015.0,52.0,57.0,29.0,95.0,1888.015
1888025.0,52.0,57.0,35.0,90.0,1888.025
1888035.0,54.0,58.0,40.0,90.0,1888.035
1888045.0,55.0,57.0,42.0,88.0,1888.045
1888055.0,52.0,56.0,36.0,91.0,1888.055
1888065.0,52.0,56.0,48.0,117.0,1888.065
1888075.0,54.0,55.0,41.0,122.0,1888.075
1888086.0,53.0,57.0,37.0,114.0,1888.086
1888096.0,53.0,55.0,40.0,106.0,1888.096
1888106.0,53.0,53.0,36.0,97.0,1888.106
1888116.0,55.0,52.0,34.0,95.0,1888.116
1888126.0,52.0,52.0,33.0,98.0,1888.126
1888136.0,53.0,51.0,33.0,100.0,1888.136
1888146.0,54.0,53.0,38.0,102.0,1888.146
1888156.0,55.0,53.0,34.0,100.0,1888.156
1888166.0,56.0,52.0,31.0,101.0,1888.166
1888176.0,55.0,54.0,31.0,94.0,1888.176
1888186.0,56.0,54.0,41.0,96.0,1888.186
1888196.0,58.0,52.0,37.0,95.0,1888.196
1888206.0,58.0,53.0,33.0,90.0,1888.206
1888216.0,57.0,53.0,30.0,83.0,1888.216
1888226.0,56.0,56.0,41.0,82.0,1888.226
1888236.0,57.0,52.0,37.0,86.0,1888.236
1888246.0,57.0,53.0,34.0,94.0,1888.246
1888256.0,56.0,53.0,45.0,92.0,1888.256
1888266.0,57.0,54.0,49.0,84.0,1888.266
1888276.0,55.0,54.0,41.0,82.0,1888.276
1888286.0,56.0,52.0,43.0,83.0,1888.286
1888296.0,55.0,56.0,51.0,86.0,1888.296
1888306.0,57.0,54.0,44.0,82.0,1888.306
1888316.0,57.0,53.0,40.0,85.0,1888.316
1888326.0,58.0,53.0,40.0,81.0,1888.326
1888336.0,59.0,53.0,39.0,80.0,1888.336
1888346.0,57.0,55.0,34.0,92.0,1888.346
1888356.0,57.0,53.0,37.0,94.0,1888.356
1888366.0,57.0,53.0,39.0,89.0,1888.366
1888376.0,57.0,52.0,35.0,90.0,1888.376
1888386.0,57.0,51.0,43.0,94.0,1888.386
1888396.0,57.0,49.0,40.0,90.0,1888.396
1888406.0,57.0,48.0,37.0,85.0,1888.406
1888416.0,55.0,46.0,36.0,80.0,1888.416
1888427.0,53.0,45.0,36.0,84.0,1888.427
1888437.0,54.0,45.0,40.0,79.0,1888.437
1888447.0,53.0,45.0,36.0,83.0,1888.447
1888457.0,54.0,46.0,45.0,96.0,1888.457
1888467.0,54.0,44.0,40.0,104.0,1888.467
1888477.0,54.0,44.0,37.0,98.0,1888.477
1888487.0,54.0,43.0,33.0,97.0,1888.487
1888497.0,53.0,44.0,32.0,101.0,1888.497
1888507.0,52.0,45.0,36.0,100.0,1888.507
1888517.0,54.0,46.0,40.0,97.0,1888.517
1888527.0,53.0,45.0,35.0,102.0,1888.527
1888537.0,54.0,46.0,40.0,100.0,1888.537
1888547.0,54.0,47.0,41.0,99.0,1888.547
1888557.0,55.0,47.0,37.0,93.0,1888.557
1888567.0,55.0,47.0,32.0,86.0,1888.567
1888577.0,54.0,46.0,30.0,81.0,1888.577
1888587.0,54.0,45.0,26.0,77.0,1888.587
1888598.0,52.0,46.0,30.0,94.0,1888.598
1888608.0,51.0,46.0,34.0,98.0,1888.608
1888618.0,52.0,49.0,40.0,98.0,1888.618
1888628.0,53.0,46.0,38.0,94.0,1888.628
1888638.0,53.0,45.0,33.0,87.0,1888.638
1888648.0,53.0,46.0,29.0,86.0,1888.648
1888658.0,53.0,45.0,27.0,96.0,1888.658
1888668.0,53.0,47.0,28.0,93.0,1888.668
1888678.0,55.0,47.0,35.0,92.0,1888.678
1888688.0,56.0,46.0,35.0,92.0,1888.688
1888698.0,57.0,48.0,36.0,88.0,1888.698
1888708.0,60.0,46.0,32.0,86.0,1888.708
1888718.0,60.0,45.0,28.0,85.0,1888.718
1888728.0,60.0,45.0,28.0,84.0,1888.728
1888738.0,60.0,46.0,40.0,83.0,1888.738
1888748.0,59.0,47.0,43.0,86.0,1888.748
1888758.0,59.0,44.0,44.0,96.0,1888.758
1888768.0,59.0,44.0,45.0,98.0,1888.768
1888778.0,59.0,45.0,45.0,96.0,1888.778
1888788.0,59.0,44.0,40.0,93.0,1888.788
1888798.0,58.0,45.0,34.0,87.0,1888.798
1888808.0,58.0,43.0,33.0,93.0,1888.808
1888818.0,56.0,44.0,38.0,99.0,1888.818
1888828.0,56.0,43.0,37.0,96.0,1888.828
1888838.0,57.0,42.0,35.0,95.0,1888.838
1888848.0,56.0,42.0,32.0,95.0,1888.848
1888858.0,57.0,43.0,37.0,96.0,1888.858
1888868.0,57.0,45.0,44.0,99.0,1888.868
1888878.0,57.0,45.0,39.0,95.0,1888.878
1888888.0,58.0,43.0,35.0,94.0,1888.888
1888898.0,58.0,42.0,31.0,86.0,1888.898
1888908.0,58.0,40.0,27.0,80.0,1888.908
1888918.0,57.0,42.0,29.0,95.0,1888.918
1888928.0,58.0,41.0,26.0,103.0,1888.928
1888939.0,59.0,39.0,22.0,101.0,1888.939
1888949.0,59.0,40.0,21.0,100.0,1888.949
1888959.0,58.0,41.0,24.0,105.0,1888.959
1888969.0,58.0,41.0,35.0,113.0,1888.969
1888979.0,58.0,40.0,32.0,110.0,1888.979
1888989.0,58.0,40.0,31.0,103.0,1888.989
1888999.0,57.0,41.0,28.0,95.0,1888.999
1889009.0,56.0,42.0,28.0,91.0,1889.009
1889019.0,57.0,43.0,30.0,87.0,1889.019
1889029.0,56.0,44.0,28.0,89.0,1889.029
1889039.0,56.0,45.0,27.0,94.0,1889.039
1889049.0,56.0,44.0,26.0,91.0,1889.049
1889059.0,56.0,43.0,23.0,87.0,1889.059
1889069.0,55.0,42.0,21.0,85.0,1889.069
1889079.0,56.0,42.0,21.0,79.0,1889.079
1889089.0,53.0,42.0,19.0,80.0,1889.089
1889099.0,53.0,43.0,29.0,85.0,1889.099
1889110.0,53.0,42.0,28.0,95.0,1889.11
1889120.0,51.0,41.0,24.0,88.0,1889.12
1889130.0,53.0,42.0,30.0,86.0,1889.13
1889140.0,51.0,43.0,30.0,84.0,1889.14
1889150.0,51.0,42.0,27.0,101.0,1889.15
1889160.0,50.0,42.0,34.0,98.0,1889.16
1889170.0,49.0,43.0,32.0,96.0,1889.17
1889180.0,49.0,42.0,28.0,93.0,1889.18
1889190.0,50.0,43.0,29.0,88.0,1889.19
1889200.0,50.0,40.0,26.0,90.0,1889.2
1889210.0,50.0,41.0,31.0,87.0,1889.21
1889220.0,50.0,41.0,27.0,86.0,1889.22
1889230.0,50.0,40.0,25.0,88.0,1889.23
1889240.0,50.0,39.0,26.0,93.0,1889.24
1889250.0,49.0,38.0,29.0,95.0,1889.25
1889260.0,51.0,39.0,26.0,95.0,1889.26
1889270.0,50.0,39.0,23.0,87.0,1889.27
1889280.0,51.0,40.0,30.0,95.0,1889.28
1889290.0,49.0,39.0,29.0,91.0,1889.29
1889300.0,51.0,40.0,29.0,99.0,1889.3
1889310.0,49.0,40.0,28.0,94.0,1889.31
1889320.0,50.0,42.0,26.0,89.0,1889.32
1889330.0,51.0,41.0,26.0,97.0,1889.33
1889340.0,51.0,43.0,24.0,92.0,1889.34
1889350.0,50.0,40.0,22.0,91.0,1889.35
1889360.0,48.0,40.0,19.0,90.0,1889.36
1889370.0,49.0,40.0,26.0,96.0,1889.37
1889380.0,50.0,41.0,33.0,99.0,1889.38
1889390.0,51.0,42.0,29.0,96.0,1889.39
1889400.0,52.0,44.0,31.0,96.0,1889.4
1889410.0,51.0,44.0,32.0,109.0,1889.41
1889420.0,53.0,46.0,38.0,104.0,1889.42
1889430.0,54.0,46.0,34.0,103.0,1889.43
1889440.0,53.0,48.0,29.0,106.0,1889.44
1889451.0,53.0,48.0,27.0,113.0,1889.451
1889461.0,52.0,50.0,23.0,106.0,1889.461
1889471.0,54.0,51.0,21.0,99.0,1889.471
1889481.0,53.0,51.0,20.0,103.0,1889.481
1889491.0,54.0,51.0,34.0,99.0,1889.491
1889501.0,54.0,53.0,31.0,100.0,1889.501
1889511.0,54.0,55.0,41.0,103.0,1889.511
1889521.0,56.0,58.0,36.0,104.0,1889.521
1889531.0,54.0,55.0,31.0,109.0,1889.531
1889541.0,52.0,55.0,39.0,105.0,1889.541
1889551.0,55.0,56.0,43.0,111.0,1889.551
1889561.0,54.0,55.0,49.0,105.0,1889.561
1889571.0,55.0,55.0,44.0,99.0,1889.571
1889581.0,55.0,55.0,39.0,98.0,1889.581
1889591.0,55.0,57.0,34.0,98.0,1889.591
1889601.0,56.0,56.0,31.0,106.0,1889.601
1889611.0,54.0,55.0,29.0,100.0,1889.611
1889622.0,54.0,54.0,31.0,99.0,1889.622
1889632.0,57.0,57.0,27.0,95.0,1889.632
1889642.0,59.0,57.0,24.0,94.0,1889.642
1889652.0,59.0,58.0,23.0,90.0,1889.652
1889662.0,59.0,56.0,20.0,96.0,1889.662
1889672.0,61.0,56.0,19.0,94.0,1889.672
1889682.0,60.0,56.0,20.0,90.0,1889.682
1889692.0,60.0,57.0,22.0,92.0,1889.692
1889702.0,61.0,59.0,23.0,104.0,1889.702
1889712.0,61.0,60.0,21.0,101.0,1889.712
1889722.0,61.0,59.0,20.0,104.0,1889.722
1889732.0,63.0,62.0,19.0,114.0,1889.732
1889742.0,62.0,62.0,17.0,113.0,1889.742
1889752.0,64.0,62.0,15.0,113.0,1889.752
1889762.0,62.0,61.0,18.0,111.0,1889.762
1889772.0,63.0,61.0,19.0,105.0,1889.772
1889782.0,65.0,63.0,19.0,110.0,1889.782
1889792.0,65.0,62.0,17.0,104.0,1889.792
1889802.0,66.0,62.0,24.0,110.0,1889.802
1889812.0,67.0,63.0,21.0,109.0,1889.812
1889822.0,68.0,62.0,21.0,114.0,1889.822
1889832.0,67.0,62.0,23.0,112.0,1889.832
1889842.0,66.0,63.0,21.0,108.0,1889.842
1889852.0,67.0,64.0,19.0,101.0,1889.852
1889862.0,66.0,63.0,17.0,103.0,1889.862
1889872.0,66.0,64.0,16.0,105.0,1889.872
1889882.0,65.0,63.0,19.0,109.0,1889.882
1889892.0,65.0,65.0,22.0,107.0,1889.892
1889902.0,63.0,66.0,19.0,108.0,1889.902
1889912.0,62.0,65.0,18.0,102.0,1889.912
1889922.0,62.0,65.0,36.0,97.0,1889.922
1889932.0,61.0,66.0,42.0,98.0,1889.932
1889942.0,61.0,66.0,43.0,97.0,1889.942
1889952.0,62.0,67.0,37.0,94.0,1889.952
1889963.0,62.0,67.0,34.0,88.0,1889.963
1889973.0,63.0,67.0,37.0,86.0,1889.973
1889983.0,62.0,68.0,31.0,81.0,1889.983
1889993.0,63.0,67.0,29.0,80.0,1889.993
1890003.0,61.0,67.0,25.0,86.0,1890.003
1890013.0,59.0,65.0,23.0,93.0,1890.013
1890023.0,60.0,66.0,28.0,94.0,1890.023
1890033.0,61.0,67.0,25.0,97.0,1890.033
1890043.0,60.0,64.0,25.0,93.0,1890.043
1890053.0,59.0,63.0,36.0,108.0,1890.053
1890063.0,60.0,65.0,36.0,114.0,1890.063
1890073.0,58.0,63.0,38.0,104.0,1890.073
1890083.0,58.0,65.0,33.0,104.0,1890.083
1890093.0,57.0,64.0,30.0,96.0,1890.093
1890103.0,56.0,63.0,29.0,90.0,1890.103
1890113.0,55.0,60.0,25.0,94.0,1890.113
1890123.0,56.0,60.0,25.0,92.0,1890.123
1890134.0,56.0,59.0,34.0,97.0,1890.134
1890144.0,60.0,58.0,32.0,94.0,1890.144
1890154.0,60.0,59.0,35.0,94.0,1890.154
1890164.0,62.0,58.0,32.0,95.0,1890.164
1890174.0,61.0,58.0,29.0,103.0,1890.174
1890184.0,61.0,58.0,27.0,103.0,1890.184
1890194.0,61.0,56.0,25.0,97.0,1890.194
1890204.0,61.0,57.0,21.0,96.0,1890.204
1890214.0,62.0,55.0,19.0,97.0,1890.214
1890224.0,62.0,55.0,25.0,95.0,1890.224
1890234.0,62.0,54.0,23.0,90.0,1890.234
1890244.0,65.0,54.0,28.0,92.0,1890.244
1890254.0,65.0,55.0,26.0,94.0,1890.254
1890264.0,66.0,54.0,23.0,95.0,1890.264
1890274.0,65.0,55.0,35.0,89.0,1890.274
1890284.0,63.0,54.0,37.0,94.0,1890.284
1890294.0,65.0,55.0,36.0,93.0,1890.294
1890304.0,67.0,58.0,34.0,96.0,1890.304
1890314.0,67.0,56.0,30.0,93.0,1890.314
1890324.0,68.0,54.0,29.0,98.0,1890.324
1890334.0,68.0,53.0,26.0,96.0,1890.334
1890344.0,70.0,51.0,24.0,97.0,1890.344
1890354.0,68.0,50.0,22.0,97.0,1890.354
1890364.0,67.0,48.0,26.0,96.0,1890.364
1890374.0,67.0,51.0,31.0,102.0,1890.374
1890384.0,70.0,54.0,28.0,100.0,1890.384
1890394.0,71.0,52.0,28.0,101.0,1890.394
1890404.0,69.0,51.0,33.0,98.0,1890.404
1890414.0,70.0,51.0,40.0,92.0,1890.414
1890424.0,68.0,50.0,44.0,88.0,1890.424
1890434.0,70.0,51.0,40.0,88.0,1890.434
1890444.0,72.0,50.0,35.0,94.0,1890.444
1890454.0,71.0,50.0,32.0,93.0,1890.454
1890464.0,71.0,47.0,28.0,93.0,1890.464
1890475.0,72.0,47.0,25.0,91.0,1890.475
1890485.0,71.0,46.0,27.0,96.0,1890.485
1890495.0,72.0,46.0,26.0,106.0,1890.495
1890505.0,68.0,48.0,34.0,99.0,1890.505
1890515.0,72.0,49.0,34.0,98.0,1890.515
1890525.0,70.0,49.0,33.0,93.0,1890.525
1890535.0,68.0,48.0,30.0,88.0,1890.535
1890545.0,67.0,47.0,28.0,104.0,1890.545
1890555.0,66.0,47.0,25.0,102.0,1890.555
1890565.0,66.0,46.0,25.0,99.0,1890.565
1890575.0,64.0,45.0,22.0,99.0,1890.575
1890585.0,66.0,45.0,21.0,99.0,1890.585
1890595.0,64.0,45.0,21.0,102.0,1890.595
1890605.0,65.0,48.0,25.0,101.0,1890.605
1890615.0,66.0,48.0,24.0,106.0,1890.615
1890625.0,65.0,47.0,24.0,103.0,1890.625
1890635.0,65.0,48.0,26.0,101.0,1890.635
1890646.0,65.0,48.0,24.0,106.0,1890.646
1890656.0,66.0,48.0,23.0,110.0,1890.656
1890666.0,66.0,47.0,23.0,104.0,1890.666
1890676.0,65.0,49.0,34.0,99.0,1890.676
1890686.0,65.0,49.0,34.0,98.0,1890.686
1890696.0,65.0,49.0,30.0,97.0,1890.696
1890706.0,65.0,48.0,28.0,95.0,1890.706
1890716.0,66.0,48.0,25.0,103.0,1890.716
1890726.0,65.0,47.0,23.0,105.0,1890.726
1890736.0,67.0,47.0,23.0,97.0,1890.736
1890746.0,68.0,47.0,21.0,110.0,1890.746
1890756.0,67.0,47.0,24.0,111.0,1890.756
1890766.0,68.0,46.0,23.0,106.0,1890.766
1890776.0,67.0,47.0,21.0,115.0,1890.776
1890786.0,69.0,48.0,20.0,115.0,1890.786
1890796.0,68.0,46.0,19.0,113.0,1890.796
1890806.0,68.0,45.0,19.0,125.0,1890.806
1890816.0,69.0,44.0,21.0,122.0,1890.816
1890826.0,68.0,45.0,18.0,115.0,1890.826
1890836.0,67.0,44.0,28.0,108.0,1890.836
1890846.0,66.0,43.0,25.0,114.0,1890.846
1890856.0,68.0,44.0,29.0,126.0,1890.856
1890866.0,70.0,45.0,32.0,123.0,1890.866
1890876.0,68.0,44.0,30.0,121.0,1890.876
1890886.0,70.0,44.0,29.0,114.0,1890.886
1890896.0,71.0,45.0,26.0,111.0,1890.896
1890906.0,72.0,44.0,24.0,114.0,1890.906
1890916.0,73.0,44.0,28.0,118.0,1890.916
1890926.0,73.0,45.0,38.0,120.0,1890.926
1890936.0,76.0,46.0,37.0,114.0,1890.936
1890946.0,76.0,45.0,32.0,114.0,1890.946
1890956.0,75.0,44.0,32.0,112.0,1890.956
1890966.0,77.0,45.0,28.0,105.0,1890.966
1890976.0,77.0,44.0,32.0,116.0,1890.976
1890987.0,79.0,46.0,27.0,118.0,1890.987
1890997.0,79.0,45.0,29.0,111.0,1890.997
1891007.0,81.0,46.0,30.0,109.0,1891.007
1891017.0,84.0,50.0,26.0,109.0,1891.017
1891027.0,84.0,48.0,27.0,104.0,1891.027
1891037.0,85.0,49.0,33.0,98.0,1891.037
1891047.0,86.0,50.0,30.0,97.0,1891.047
1891057.0,86.0,48.0,31.0,98.0,1891.057
1891067.0,89.0,51.0,27.0,92.0,1891.067
1891077.0,91.0,53.0,24.0,100.0,1891.077
1891087.0,93.0,54.0,40.0,93.0,1891.087
1891097.0,95.0,58.0,40.0,88.0,1891.097
1891107.0,96.0,58.0,49.0,85.0,1891.107
1891117.0,99.0,60.0,45.0,85.0,1891.117
1891127.0,100.0,62.0,43.0,92.0,1891.127
1891137.0,104.0,66.0,39.0,93.0,1891.137
1891147.0,104.0,66.0,36.0,92.0,1891.147
1891158.0,109.0,67.0,33.0,88.0,1891.158
1891168.0,111.0,68.0,28.0,85.0,1891.168
1891178.0,112.0,70.0,37.0,88.0,1891.178
1891188.0,114.0,70.0,35.0,84.0,1891.188
1891198.0,117.0,75.0,35.0,86.0,1891.198
1891208.0,121.0,78.0,31.0,102.0,1891.208
1891218.0,120.0,78.0,39.0,107.0,1891.218
1891228.0,123.0,81.0,37.0,106.0,1891.228
1891238.0,127.0,83.0,35.0,107.0,1891.238
1891248.0,128.0,84.0,39.0,108.0,1891.248
1891258.0,130.0,88.0,34.0,102.0,1891.258
1891268.0,133.0,93.0,31.0,100.0,1891.268
1891278.0,135.0,93.0,28.0,109.0,1891.278
1891288.0,137.0,97.0,26.0,114.0,1891.288
1891298.0,139.0,100.0,39.0,112.0,1891.298
1891308.0,141.0,102.0,48.0,104.0,1891.308
1891318.0,144.0,107.0,42.0,98.0,1891.318
1891328.0,146.0,111.0,40.0,96.0,1891.328
1891338.0,149.0,115.0,36.0,91.0,1891.338
1891348.0,151.0,120.0,33.0,89.0,1891.348
1891358.0,151.0,121.0,31.0,86.0,1891.358
1891368.0,151.0,123.0,37.0,89.0,1891.368
1891378.0,153.0,126.0,42.0,99.0,1891.378
1891388.0,154.0,130.0,36.0,94.0,1891.388
1891398.0,156.0,135.0,32.0,99.0,1891.398
1891408.0,157.0,137.0,39.0,95.0,1891.408
1891418.0,159.0,143.0,36.0,101.0,1891.418
1891428.0,159.0,146.0,35.0,101.0,1891.428
1891438.0,160.0,148.0,32.0,96.0,1891.438
1891448.0,160.0,152.0,30.0,93.0,1891.448
1891458.0,161.0,155.0,35.0,96.0,1891.458
1891468.0,162.0,160.0,32.0,105.0,1891.468
1891478.0,164.0,164.0,36.0,105.0,1891.478
1891488.0,165.0,169.0,36.0,107.0,1891.488
1891499.0,166.0,172.0,37.0,106.0,1891.499
1891509.0,167.0,176.0,33.0,108.0,1891.509
1891519.0,169.0,179.0,29.0,109.0,1891.519
1891529.0,171.0,182.0,31.0,110.0,1891.529
1891539.0,172.0,185.0,44.0,108.0,1891.539
1891549.0,172.0,188.0,41.0,100.0,1891.549
1891559.0,175.0,188.0,41.0,93.0,1891.559
1891569.0,178.0,190.0,39.0,90.0,1891.569
1891579.0,179.0,192.0,40.0,90.0,1891.579
