time (ms),signal 0,signal 1,signal 2,signal3,time (sec)
1952015.0,114.0,68.0,7.0,91.0,1952.015
1952025.0,114.0,66.0,8.0,95.0,1952.025
1952035.0,113.0,67.0,8.0,100.0,1952.035
1952045.0,110.0,65.0,7.0,97.0,1952.045
1952055.0,108.0,65.0,8.0,91.0,1952.055
1952065.0,107.0,64.0,9.0,89.0,1952.065
1952075.0,106.0,64.0,7.0,90.0,1952.075
1952086.0,105.0,64.0,7.0,97.0,1952.086
1952096.0,104.0,65.0,6.0,91.0,1952.096
1952106.0,103.0,64.0,8.0,84.0,1952.106
1952116.0,103.0,61.0,10.0,84.0,1952.116
1952126.0,103.0,60.0,9.0,96.0,1952.126
1952136.0,101.0,59.0,9.0,94.0,1952.136
1952146.0,103.0,57.0,9.0,96.0,1952.146
1952156.0,101.0,58.0,6.0,98.0,1952.156
1952166.0,100.0,57.0,7.0,93.0,1952.166
1952176.0,98.0,59.0,6.0,104.0,1952.176
1952186.0,97.0,58.0,8.0,106.0,1952.186
1952196.0,96.0,54.0,10.0,110.0,1952.196
1952206.0,96.0,53.0,9.0,111.0,1952.206
1952216.0,96.0,52.0,9.0,104.0,1952.216
1952226.0,95.0,51.0,8.0,98.0,1952.226
1952236.0,94.0,51.0,11.0,100.0,1952.236
1952246.0,94.0,49.0,12.0,100.0,1952.246
1952256.0,95.0,50.0,16.0,104.0,1952.256
1952266.0,97.0,48.0,14.0,106.0,1952.266
1952276.0,97.0,48.0,17.0,111.0,1952.276
1952286.0,98.0,47.0,15.0,116.0,1952.286
1952296.0,99.0,47.0,16.0,112.0,1952.296
1952306.0,99.0,47.0,15.0,115.0,1952.306
1952316.0,99.0,47.0,14.0,110.0,1952.316
1952326.0,99.0,45.0,13.0,100.0,1952.326
1952336.0,99.0,45.0,11.0,102.0,1952.336
1952346.0,99.0,44.0,11.0,102.0,1952.346
1952356.0,101.0,44.0,13.0,103.0,1952.356
1952366.0,105.0,44.0,18.0,107.0,1952.366
1952376.0,104.0,43.0,16.0,109.0,1952.376
1952386.0,104.0,42.0,15.0,103.0,1952.386
1952396.0,104.0,41.0,14.0,102.0,1952.396
1952406.0,105.0,41.0,11.0,98.0,1952.406
1952416.0,106.0,40.0,11.0,90.0,1952.416
1952427.0,108.0,40.0,9.0,84.0,1952.427
1952437.0,109.0,39.0,9.0,92.0,1952.437
1952447.0,110.0,38.0,9.0,92.0,1952.447
1952457.0,108.0,39.0,21.0,92.0,1952.457
1952467.0,110.0,40.0,21.0,97.0,1952.467
1952477.0,110.0,40.0,19.0,96.0,1952.477
1952487.0,111.0,39.0,17.0,97.0,1952.487
1952497.0,112.0,39.0,16.0,98.0,1952.497
1952507.0,113.0,39.0,13.0,105.0,1952.507
1952517.0,115.0,40.0,14.0,103.0,1952.517
1952527.0,114.0,40.0,14.0,105.0,1952.527
1952537.0,114.0,41.0,13.0,108.0,1952.537
1952547.0,114.0,41.0,15.0,103.0,1952.547
1952557.0,115.0,44.0,16.0,104.0,1952.557
1952567.0,117.0,44.0,14.0,99.0,1952.567
1952577.0,117.0,45.0,13.0,96.0,1952.577
1952587.0,119.0,46.0,13.0,99.0,1952.587
1952598.0,118.0,45.0,12.0,105.0,1952.598
1952608.0,119.0,45.0,11.0,100.0,1952.608
1952618.0,121.0,44.0,11.0,96.0,1952.618
1952628.0,122.0,45.0,10.0,89.0,1952.628
1952638.0,125.0,46.0,9.0,96.0,1952.638
1952648.0,127.0,46.0,8.0,94.0,1952.648
1952658.0,128.0,47.0,13.0,92.0,1952.658
1952668.0,131.0,49.0,13.0,90.0,1952.668
1952678.0,132.0,49.0,14.0,91.0,1952.678
1952688.0,134.0,49.0,13.0,99.0,1952.688
1952698.0,136.0,50.0,11.0,101.0,1952.698
1952708.0,137.0,51.0,10.0,100.0,1952.708
1952718.0,140.0,52.0,10.0,97.0,1952.718
1952728.0,140.0,52.0,9.0,96.0,1952.728
1952738.0,143.0,51.0,9.0,91.0,1952.738
1952748.0,146.0,54.0,8.0,102.0,1952.748
1952758.0,148.0,54.0,9.0,100.0,1952.758
1952768.0,152.0,55.0,13.0,99.0,1952.768
1952778.0,154.0,57.0,12.0,96.0,1952.778
1952788.0,156.0,58.0,14.0,94.0,1952.788
1952798.0,157.0,60.0,12.0,90.0,1952.798
1952808.0,160.0,62.0,12.0,90.0,1952.808
1952818.0,160.0,64.0,11.0,91.0,1952.818
1952828.0,162.0,65.0,10.0,97.0,1952.828
1952838.0,164.0,67.0,10.0,95.0,1952.838
1952848.0,166.0,69.0,11.0,93.0,1952.848
1952858.0,168.0,71.0,12.0,89.0,1952.858
1952868.0,169.0,72.0,12.0,82.0,1952.868
1952878.0,168.0,74.0,13.0,86.0,1952.878
1952888.0,173.0,76.0,14.0,89.0,1952.888
1952898.0,173.0,77.0,12.0,95.0,1952.898
1952908.0,174.0,79.0,12.0,111.0,1952.908
1952918.0,177.0,81.0,14.0,104.0,1952.918
1952928.0,178.0,83.0,12.0,102.0,1952.928
1952939.0,180.0,84.0,12.0,118.0,1952.939
1952949.0,180.0,85.0,12.0,122.0,1952.949
1952959.0,181.0,87.0,13.0,117.0,1952.959
1952969.0,182.0,89.0,11.0,110.0,1952.969
1952979.0,181.0,91.0,11.0,100.0,1952.979
1952989.0,182.0,92.0,13.0,109.0,1952.989
1952999.0,182.0,94.0,11.0,105.0,1952.999
1953009.0,184.0,93.0,14.0,101.0,1953.009
1953019.0,186.0,94.0,17.0,106.0,1953.019
1953029.0,188.0,96.0,15.0,104.0,1953.029
1953039.0,191.0,97.0,15.0,107.0,1953.039
1953049.0,192.0,96.0,14.0,102.0,1953.049
1953059.0,195.0,98.0,14.0,105.0,1953.059
1953069.0,195.0,98.0,12.0,107.0,1953.069
1953079.0,198.0,101.0,12.0,103.0,1953.079
1953089.0,199.0,101.0,12.0,98.0,1953.089
1953099.0,198.0,100.0,17.0,100.0,1953.099
1953110.0,200.0,99.0,17.0,103.0,1953.11
1953120.0,201.0,101.0,17.0,114.0,1953.12
1953130.0,200.0,99.0,17.0,108.0,1953.13
1953140.0,203.0,101.0,15.0,109.0,1953.14
1953150.0,203.0,103.0,13.0,106.0,1953.15
1953160.0,203.0,103.0,13.0,102.0,1953.16
1953170.0,205.0,104.0,11.0,95.0,1953.17
1953180.0,205.0,104.0,10.0,89.0,1953.18
1953190.0,207.0,105.0,11.0,93.0,1953.19
1953200.0,207.0,105.0,8.0,93.0,1953.2
1953210.0,206.0,104.0,11.0,93.0,1953.21
1953220.0,206.0,105.0,10.0,90.0,1953.22
1953230.0,206.0,106.0,11.0,130.0,1953.23
1953240.0,206.0,106.0,10.0,131.0,1953.24
1953250.0,205.0,107.0,9.0,124.0,1953.25
1953260.0,207.0,107.0,13.0,117.0,1953.26
1953270.0,206.0,107.0,10.0,114.0,1953.27
1953280.0,204.0,107.0,12.0,132.0,1953.28
1953290.0,204.0,105.0,11.0,142.0,1953.29
1953300.0,205.0,108.0,11.0,142.0,1953.3
1953310.0,204.0,106.0,10.0,140.0,1953.31
1953320.0,203.0,106.0,9.0,131.0,1953.32
1953330.0,203.0,107.0,9.0,136.0,1953.33
1953340.0,203.0,107.0,8.0,127.0,1953.34
1953350.0,201.0,108.0,7.0,131.0,1953.35
1953360.0,199.0,108.0,9.0,135.0,1953.36
1953370.0,196.0,108.0,12.0,134.0,1953.37
1953380.0,194.0,107.0,11.0,146.0,1953.38
1953390.0,194.0,107.0,11.0,134.0,1953.39
1953400.0,192.0,107.0,10.0,125.0,1953.4
1953410.0,192.0,107.0,10.0,119.0,1953.41
1953420.0,189.0,106.0,8.0,120.0,1953.42
1953430.0,187.0,105.0,7.0,118.0,1953.43
1953440.0,185.0,102.0,8.0,114.0,1953.44
1953451.0,184.0,101.0,6.0,110.0,1953.451
1953461.0,184.0,98.0,8.0,114.0,1953.461
1953471.0,181.0,97.0,7.0,115.0,1953.471
1953481.0,181.0,95.0,7.0,109.0,1953.481
1953491.0,179.0,94.0,6.0,105.0,1953.491
1953501.0,177.0,93.0,6.0,104.0,1953.501
1953511.0,175.0,89.0,6.0,105.0,1953.511
1953521.0,173.0,89.0,12.0,111.0,1953.521
1953531.0,171.0,86.0,12.0,110.0,1953.531
1953541.0,173.0,86.0,12.0,106.0,1953.541
1953551.0,172.0,85.0,12.0,106.0,1953.551
1953561.0,172.0,82.0,11.0,105.0,1953.561
1953571.0,170.0,82.0,10.0,107.0,1953.571
1953581.0,170.0,81.0,9.0,111.0,1953.581
1953591.0,170.0,80.0,10.0,115.0,1953.591
1953601.0,170.0,80.0,12.0,112.0,1953.601
1953611.0,170.0,81.0,11.0,117.0,1953.611
1953622.0,168.0,81.0,13.0,116.0,1953.622
1953632.0,165.0,81.0,13.0,114.0,1953.632
1953642.0,164.0,83.0,10.0,123.0,1953.642
1953652.0,162.0,84.0,10.0,119.0,1953.652
1953662.0,161.0,84.0,9.0,118.0,1953.662
1953672.0,160.0,85.0,11.0,118.0,1953.672
1953682.0,159.0,85.0,12.0,120.0,1953.682
1953692.0,157.0,85.0,10.0,121.0,1953.692
1953702.0,156.0,84.0,11.0,114.0,1953.702
1953712.0,155.0,84.0,9.0,109.0,1953.712
1953722.0,154.0,86.0,8.0,109.0,1953.722
1953732.0,153.0,84.0,8.0,112.0,1953.732
1953742.0,153.0,85.0,7.0,112.0,1953.742
1953752.0,153.0,83.0,7.0,104.0,1953.752
1953762.0,153.0,82.0,7.0,98.0,1953.762
1953772.0,152.0,81.0,7.0,96.0,1953.772
1953782.0,150.0,80.0,9.0,97.0,1953.782
1953792.0,149.0,80.0,10.0,95.0,1953.792
1953802.0,147.0,79.0,9.0,94.0,1953.802
1953812.0,146.0,77.0,8.0,91.0,1953.812
1953822.0,144.0,77.0,7.0,94.0,1953.822
1953832.0,142.0,76.0,6.0,90.0,1953.832
1953842.0,139.0,75.0,5.0,89.0,1953.842
1953852.0,139.0,75.0,7.0,91.0,1953.852
1953862.0,138.0,74.0,16.0,92.0,1953.862
1953872.0,138.0,76.0,16.0,94.0,1953.872
1953882.0,137.0,75.0,15.0,95.0,1953.882
1953892.0,134.0,75.0,13.0,98.0,1953.892
1953902.0,133.0,75.0,12.0,96.0,1953.902
1953912.0,131.0,74.0,11.0,103.0,1953.912
1953922.0,129.0,73.0,10.0,110.0,1953.922
1953932.0,128.0,71.0,10.0,111.0,1953.932
1953942.0,125.0,70.0,9.0,114.0,1953.942
1953952.0,124.0,69.0,8.0,115.0,1953.952
1953963.0,122.0,67.0,13.0,110.0,1953.963
1953973.0,121.0,67.0,11.0,107.0,1953.973
1953983.0,120.0,68.0,11.0,117.0,1953.983
1953993.0,119.0,68.0,9.0,113.0,1953.993
1954003.0,118.0,67.0,10.0,108.0,1954.003
1954013.0,117.0,67.0,9.0,107.0,1954.013
1954023.0,115.0,68.0,8.0,102.0,1954.023
1954033.0,114.0,66.0,8.0,93.0,1954.033
1954043.0,111.0,66.0,15.0,92.0,1954.043
1954053.0,109.0,66.0,13.0,88.0,1954.053
1954063.0,109.0,65.0,13.0,86.0,1954.063
1954073.0,109.0,65.0,11.0,92.0,1954.073
1954083.0,108.0,66.0,11.0,102.0,1954.083
1954093.0,106.0,66.0,8.0,103.0,1954.093
1954103.0,104.0,64.0,9.0,95.0,1954.103
1954113.0,103.0,64.0,8.0,97.0,1954.113
1954123.0,102.0,63.0,15.0,102.0,1954.123
1954134.0,101.0,60.0,13.0,97.0,1954.134
1954144.0,101.0,60.0,12.0,92.0,1954.144
1954154.0,101.0,58.0,12.0,95.0,1954.154
1954164.0,98.0,58.0,10.0,107.0,1954.164
1954174.0,98.0,56.0,12.0,112.0,1954.174
1954184.0,96.0,56.0,11.0,111.0,1954.184
1954194.0,94.0,55.0,15.0,105.0,1954.194
1954204.0,95.0,56.0,17.0,107.0,1954.204
1954214.0,93.0,57.0,18.0,106.0,1954.214
1954224.0,92.0,56.0,19.0,116.0,1954.224
1954234.0,91.0,54.0,16.0,106.0,1954.234
1954244.0,89.0,53.0,16.0,99.0,1954.244
1954254.0,89.0,52.0,14.0,94.0,1954.254
1954264.0,86.0,51.0,13.0,93.0,1954.264
1954274.0,84.0,48.0,13.0,92.0,1954.274
1954284.0,82.0,48.0,13.0,105.0,1954.284
1954294.0,79.0,46.0,13.0,114.0,1954.294
1954304.0,79.0,45.0,13.0,107.0,1954.304
1954314.0,78.0,44.0,12.0,102.0,1954.314
1954324.0,79.0,44.0,10.0,106.0,1954.324
1954334.0,77.0,43.0,10.0,104.0,1954.334
1954344.0,77.0,43.0,10.0,102.0,1954.344
1954354.0,75.0,42.0,14.0,102.0,1954.354
1954364.0,73.0,41.0,13.0,105.0,1954.364
1954374.0,72.0,42.0,14.0,112.0,1954.374
1954384.0,70.0,41.0,12.0,111.0,1954.384
1954394.0,68.0,41.0,12.0,111.0,1954.394
1954404.0,67.0,40.0,11.0,105.0,1954.404
1954414.0,65.0,40.0,11.0,98.0,1954.414
1954424.0,63.0,38.0,10.0,103.0,1954.424
1954434.0,63.0,39.0,9.0,111.0,1954.434
1954444.0,61.0,38.0,9.0,113.0,1954.444
1954454.0,64.0,38.0,9.0,107.0,1954.454
1954464.0,62.0,38.0,8.0,102.0,1954.464
1954475.0,60.0,39.0,19.0,106.0,1954.475
1954485.0,60.0,40.0,18.0,122.0,1954.485
1954495.0,58.0,40.0,18.0,114.0,1954.495
1954505.0,59.0,38.0,16.0,108.0,1954.505
1954515.0,58.0,39.0,15.0,106.0,1954.515
1954525.0,58.0,40.0,19.0,98.0,1954.525
1954535.0,57.0,38.0,16.0,117.0,1954.535
1954545.0,55.0,39.0,14.0,112.0,1954.545
1954555.0,55.0,39.0,14.0,109.0,1954.555
1954565.0,55.0,39.0,13.0,108.0,1954.565
1954575.0,54.0,38.0,12.0,102.0,1954.575
1954585.0,53.0,39.0,12.0,118.0,1954.585
1954595.0,53.0,40.0,11.0,114.0,1954.595
1954605.0,53.0,42.0,10.0,118.0,1954.605
1954615.0,52.0,43.0,12.0,115.0,1954.615
1954625.0,52.0,41.0,11.0,106.0,1954.625
1954635.0,52.0,43.0,10.0,111.0,1954.635
1954646.0,53.0,44.0,9.0,117.0,1954.646
1954656.0,52.0,44.0,8.0,112.0,1954.656
1954666.0,50.0,47.0,9.0,111.0,1954.666
1954676.0,51.0,48.0,11.0,107.0,1954.676
1954686.0,49.0,48.0,9.0,114.0,1954.686
1954696.0,49.0,47.0,9.0,120.0,1954.696
1954706.0,49.0,47.0,8.0,120.0,1954.706
1954716.0,48.0,48.0,7.0,118.0,1954.716
1954726.0,48.0,46.0,8.0,138.0,1954.726
1954736.0,47.0,46.0,7.0,135.0,1954.736
1954746.0,47.0,46.0,8.0,128.0,1954.746
1954756.0,46.0,45.0,7.0,120.0,1954.756
1954766.0,44.0,46.0,8.0,122.0,1954.766
1954776.0,46.0,46.0,10.0,124.0,1954.776
1954786.0,47.0,45.0,9.0,128.0,1954.786
1954796.0,46.0,44.0,9.0,122.0,1954.796
1954806.0,45.0,44.0,13.0,118.0,1954.806
1954816.0,45.0,45.0,12.0,109.0,1954.816
1954826.0,46.0,43.0,14.0,107.0,1954.826
1954836.0,45.0,43.0,14.0,108.0,1954.836
1954846.0,45.0,43.0,14.0,111.0,1954.846
1954856.0,44.0,42.0,12.0,109.0,1954.856
1954866.0,45.0,43.0,11.0,113.0,1954.866
1954876.0,44.0,40.0,13.0,123.0,1954.876
1954886.0,44.0,40.0,15.0,125.0,1954.886
1954896.0,45.0,40.0,16.0,126.0,1954.896
1954906.0,44.0,39.0,14.0,123.0,1954.906
1954916.0,45.0,40.0,15.0,120.0,1954.916
1954926.0,45.0,39.0,21.0,117.0,1954.926
1954936.0,45.0,41.0,18.0,118.0,1954.936
1954946.0,45.0,40.0,16.0,108.0,1954.946
1954956.0,45.0,39.0,17.0,106.0,1954.956
1954966.0,45.0,40.0,22.0,106.0,1954.966
1954976.0,46.0,39.0,25.0,105.0,1954.976
1954987.0,44.0,39.0,21.0,106.0,1954.987
1954997.0,46.0,40.0,23.0,103.0,1954.997
1955007.0,46.0,43.0,26.0,106.0,1955.007
1955017.0,46.0,43.0,24.0,105.0,1955.017
1955027.0,45.0,44.0,24.0,107.0,1955.027
1955037.0,44.0,45.0,21.0,103.0,1955.037
1955047.0,45.0,46.0,31.0,98.0,1955.047
1955057.0,45.0,47.0,33.0,103.0,1955.057
1955067.0,47.0,51.0,42.0,108.0,1955.067
1955077.0,47.0,53.0,36.0,107.0,1955.077
1955087.0,46.0,55.0,31.0,101.0,1955.087
1955097.0,46.0,54.0,28.0,96.0,1955.097
1955107.0,46.0,58.0,25.0,108.0,1955.107
1955117.0,45.0,59.0,23.0,118.0,1955.117
1955127.0,45.0,61.0,20.0,116.0,1955.127
1955137.0,44.0,62.0,18.0,112.0,1955.137
1955147.0,44.0,63.0,17.0,103.0,1955.147
1955158.0,44.0,65.0,17.0,119.0,1955.158
1955168.0,44.0,66.0,16.0,116.0,1955.168
1955178.0,44.0,67.0,20.0,112.0,1955.178
1955188.0,44.0,68.0,21.0,116.0,1955.188
1955198.0,43.0,70.0,19.0,111.0,1955.198
1955208.0,44.0,70.0,16.0,109.0,1955.208
1955218.0,44.0,72.0,15.0,104.0,1955.218
1955228.0,45.0,73.0,13.0,105.0,1955.228
1955238.0,43.0,75.0,13.0,106.0,1955.238
1955248.0,45.0,72.0,18.0,103.0,1955.248
1955258.0,46.0,75.0,17.0,99.0,1955.258
1955268.0,49.0,77.0,18.0,100.0,1955.268
1955278.0,49.0,77.0,20.0,93.0,1955.278
1955288.0,50.0,79.0,25.0,89.0,1955.288
1955298.0,51.0,78.0,30.0,87.0,1955.298
1955308.0,49.0,78.0,31.0,83.0,1955.308
1955318.0,49.0,76.0,36.0,81.0,1955.318
1955328.0,52.0,75.0,34.0,92.0,1955.328
1955338.0,53.0,76.0,41.0,102.0,1955.338
1955348.0,59.0,83.0,47.0,99.0,1955.348
1955358.0,60.0,87.0,55.0,98.0,1955.358
1955368.0,62.0,90.0,50.0,101.0,1955.368
1955378.0,61.0,91.0,46.0,103.0,1955.378
1955388.0,61.0,90.0,42.0,110.0,1955.388
1955398.0,60.0,88.0,37.0,102.0,1955.398
1955408.0,60.0,87.0,34.0,104.0,1955.408
1955418.0,61.0,83.0,32.0,101.0,1955.418
1955428.0,59.0,79.0,28.0,102.0,1955.428
1955438.0,62.0,82.0,44.0,108.0,1955.438
1955448.0,64.0,84.0,38.0,107.0,1955.448
1955458.0,67.0,88.0,35.0,118.0,1955.458
1955468.0,77.0,88.0,34.0,116.0,1955.468
1955478.0,78.0,84.0,34.0,113.0,1955.478
1955488.0,87.0,84.0,33.0,105.0,1955.488
1955499.0,95.0,101.0,30.0,115.0,1955.499
1955509.0,117.0,110.0,25.0,109.0,1955.509
1955519.0,114.0,105.0,24.0,105.0,1955.519
1955529.0,118.0,103.0,20.0,104.0,1955.529
1955539.0,131.0,102.0,18.0,98.0,1955.539
1955549.0,139.0,102.0,17.0,94.0,1955.549
1955559.0,130.0,98.0,15.0,89.0,1955.559
1955569.0,123.0,94.0,14.0,87.0,1955.569
1955579.0,114.0,86.0,12.0,87.0,1955.579
1955589.0,111.0,81.0,15.0,85.0,1955.589
1955599.0,111.0,77.0,19.0,90.0,1955.599
1955609.0,112.0,74.0,22.0,96.0,1955.609
1955619.0,107.0,73.0,21.0,107.0,1955.619
1955629.0,107.0,87.0,27.0,117.0,1955.629
1955639.0,109.0,90.0,27.0,130.0,1955.639
1955649.0,102.0,87.0,35.0,127.0,1955.649
1955659.0,94.0,82.0,37.0,116.0,1955.659
1955670.0,88.0,77.0,36.0,106.0,1955.67
1955680.0,82.0,71.0,34.0,96.0,1955.68
1955690.0,84.0,69.0,35.0,86.0,1955.69
1955700.0,83.0,66.0,33.0,78.0,1955.7
1955710.0,80.0,73.0,35.0,71.0,1955.71
1955720.0,82.0,78.0,37.0,68.0,1955.72
1955730.0,84.0,84.0,40.0,63.0,1955.73
1955740.0,85.0,98.0,39.0,64.0,1955.74
1955750.0,79.0,95.0,37.0,60.0,1955.75
1955760.0,77.0,100.0,34.0,56.0,1955.76
1955770.0,75.0,94.0,32.0,54.0,1955.77
1955780.0,75.0,102.0,30.0,51.0,1955.78
1955790.0,76.0,107.0,30.0,47.0,1955.79
1955800.0,73.0,102.0,26.0,44.0,1955.8
1955810.0,74.0,95.0,24.0,43.0,1955.81
1955820.0,74.0,93.0,22.0,45.0,1955.82
1955830.0,78.0,90.0,28.0,46.0,1955.83
1955840.0,79.0,100.0,27.0,47.0,1955.84
1955850.0,81.0,99.0,28.0,74.0,1955.85
1955860.0,80.0,92.0,27.0,84.0,1955.86
1955870.0,81.0,95.0,26.0,119.0,1955.87
1955880.0,77.0,95.0,26.0,127.0,1955.88
1955890.0,76.0,92.0,23.0,124.0,1955.89
1955900.0,73.0,91.0,21.0,116.0,1955.9
1955910.0,72.0,86.0,19.0,102.0,1955.91
1955920.0,76.0,82.0,17.0,94.0,1955.92
1955930.0,77.0,86.0,17.0,87.0,1955.93
1955940.0,75.0,89.0,16.0,78.0,1955.94
1955950.0,74.0,85.0,13.0,72.0,1955.95
1955960.0,73.0,84.0,12.0,69.0,1955.96
1955970.0,73.0,83.0,19.0,66.0,1955.97
1955980.0,72.0,80.0,18.0,60.0,1955.98
1955990.0,72.0,80.0,16.0,56.0,1955.99
1956000.0,81.0,109.0,19.0,59.0,1956.0
1956011.0,81.0,136.0,17.0,59.0,1956.011
1956021.0,80.0,137.0,15.0,56.0,1956.021
1956031.0,82.0,147.0,17.0,53.0,1956.031
1956041.0,90.0,165.0,18.0,51.0,1956.041
1956051.0,90.0,167.0,22.0,49.0,1956.051
1956061.0,91.0,168.0,19.0,46.0,1956.061
1956071.0,90.0,164.0,17.0,46.0,1956.071
1956081.0,91.0,174.0,17.0,46.0,1956.081
1956091.0,93.0,167.0,15.0,43.0,1956.091
1956101.0,92.0,159.0,14.0,42.0,1956.101
1956111.0,97.0,163.0,13.0,41.0,1956.111
1956121.0,96.0,161.0,11.0,41.0,1956.121
1956131.0,101.0,162.0,10.0,38.0,1956.131
1956141.0,102.0,172.0,10.0,36.0,1956.141
1956151.0,101.0,182.0,13.0,39.0,1956.151
1956161.0,110.0,178.0,15.0,39.0,1956.161
1956171.0,108.0,172.0,14.0,43.0,1956.171
1956182.0,104.0,164.0,17.0,48.0,1956.182
1956192.0,107.0,169.0,17.0,53.0,1956.192
1956202.0,104.0,158.0,17.0,59.0,1956.202
1956212.0,105.0,150.0,16.0,56.0,1956.212
1956222.0,108.0,168.0,15.0,54.0,1956.222
1956232.0,108.0,166.0,13.0,53.0,1956.232
1956242.0,109.0,158.0,12.0,51.0,1956.242
1956252.0,109.0,151.0,10.0,49.0,1956.252
1956262.0,115.0,152.0,12.0,49.0,1956.262
1956272.0,118.0,158.0,17.0,55.0,1956.272
1956282.0,115.0,151.0,20.0,57.0,1956.282
1956292.0,113.0,144.0,21.0,63.0,1956.292
1956302.0,112.0,140.0,19.0,63.0,1956.302
1956312.0,110.0,140.0,17.0,60.0,1956.312
1956322.0,108.0,135.0,16.0,60.0,1956.322
1956332.0,108.0,139.0,13.0,56.0,1956.332
1956342.0,108.0,143.0,12.0,56.0,1956.342
1956352.0,110.0,140.0,12.0,52.0,1956.352
1956362.0,107.0,138.0,11.0,52.0,1956.362
1956372.0,105.0,151.0,10.0,53.0,1956.372
1956382.0,108.0,142.0,19.0,54.0,1956.382
1956392.0,106.0,142.0,22.0,58.0,1956.392
1956402.0,103.0,142.0,23.0,65.0,1956.402
1956412.0,102.0,136.0,22.0,66.0,1956.412
1956422.0,101.0,133.0,19.0,66.0,1956.422
1956432.0,103.0,135.0,17.0,61.0,1956.432
1956442.0,100.0,129.0,15.0,61.0,1956.442
1956452.0,97.0,131.0,13.0,57.0,1956.452
1956462.0,99.0,134.0,13.0,56.0,1956.462
1956472.0,98.0,140.0,16.0,61.0,1956.472
1956482.0,97.0,134.0,19.0,61.0,1956.482
1956492.0,96.0,137.0,18.0,64.0,1956.492
1956502.0,92.0,129.0,16.0,70.0,1956.502
1956512.0,94.0,129.0,14.0,66.0,1956.512
1956523.0,93.0,129.0,13.0,64.0,1956.523
1956533.0,96.0,129.0,13.0,63.0,1956.533
1956543.0,95.0,128.0,10.0,60.0,1956.543
1956553.0,94.0,129.0,9.0,56.0,1956.553
1956563.0,96.0,132.0,9.0,55.0,1956.563
1956573.0,95.0,133.0,8.0,55.0,1956.573
1956583.0,94.0,132.0,10.0,50.0,1956.583
1956593.0,96.0,137.0,9.0,51.0,1956.593
1956603.0,97.0,131.0,9.0,53.0,1956.603
1956613.0,96.0,130.0,8.0,53.0,1956.613
1956623.0,93.0,128.0,6.0,51.0,1956.623
1956633.0,92.0,125.0,7.0,51.0,1956.633
1956643.0,94.0,126.0,6.0,48.0,1956.643
1956653.0,92.0,127.0,6.0,46.0,1956.653
1956663.0,92.0,126.0,6.0,44.0,1956.663
1956673.0,91.0,125.0,5.0,43.0,1956.673
1956683.0,93.0,129.0,5.0,42.0,1956.683
1956694.0,94.0,134.0,5.0,39.0,1956.694
1956704.0,94.0,132.0,10.0,38.0,1956.704
1956714.0,92.0,126.0,10.0,40.0,1956.714
1956724.0,91.0,126.0,10.0,42.0,1956.724
1956734.0,90.0,120.0,8.0,42.0,1956.734
1956744.0,89.0,117.0,8.0,41.0,1956.744
1956754.0,92.0,119.0,8.0,41.0,1956.754
1956764.0,93.0,119.0,8.0,39.0,1956.764
1956774.0,94.0,121.0,7.0,39.0,1956.774
1956784.0,93.0,119.0,7.0,38.0,1956.784
1956794.0,92.0,126.0,6.0,38.0,1956.794
1956804.0,94.0,120.0,6.0,39.0,1956.804
1956814.0,95.0,121.0,5.0,38.0,1956.814
1956824.0,93.0,121.0,5.0,38.0,1956.824
1956834.0,94.0,120.0,6.0,37.0,1956.834
1956844.0,94.0,117.0,6.0,36.0,1956.844
1956854.0,94.0,115.0,8.0,37.0,1956.854
1956864.0,93.0,113.0,7.0,37.0,1956.864
1956874.0,91.0,115.0,6.0,36.0,1956.874
1956884.0,91.0,116.0,6.0,35.0,1956.884
1956894.0,89.0,116.0,5.0,34.0,1956.894
1956904.0,89.0,114.0,7.0,31.0,1956.904
1956914.0,88.0,121.0,5.0,31.0,1956.914
1956924.0,89.0,119.0,6.0,33.0,1956.924
1956934.0,87.0,133.0,8.0,33.0,1956.934
1956944.0,87.0,128.0,8.0,33.0,1956.944
1956954.0,87.0,132.0,7.0,32.0,1956.954
1956964.0,86.0,129.0,6.0,31.0,1956.964
1956974.0,83.0,128.0,5.0,31.0,1956.974
1956984.0,81.0,122.0,6.0,31.0,1956.984
1956994.0,82.0,123.0,6.0,31.0,1956.994
1957004.0,81.0,118.0,6.0,29.0,1957.004
1957014.0,80.0,118.0,6.0,30.0,1957.014
1957024.0,78.0,114.0,6.0,30.0,1957.024
1957035.0,78.0,110.0,5.0,32.0,1957.035
1957045.0,79.0,116.0,5.0,30.0,1957.045
1957055.0,81.0,113.0,6.0,30.0,1957.055
1957065.0,80.0,113.0,4.0,30.0,1957.065
1957075.0,81.0,113.0,4.0,29.0,1957.075
1957085.0,79.0,116.0,5.0,30.0,1957.085
1957095.0,78.0,120.0,5.0,29.0,1957.095
1957105.0,77.0,112.0,4.0,28.0,1957.105
1957115.0,75.0,112.0,4.0,29.0,1957.115
1957125.0,78.0,110.0,5.0,28.0,1957.125
1957135.0,78.0,110.0,4.0,28.0,1957.135
1957145.0,75.0,114.0,4.0,28.0,1957.145
1957155.0,74.0,114.0,4.0,29.0,1957.155
1957165.0,75.0,121.0,3.0,31.0,1957.165
1957175.0,72.0,114.0,4.0,30.0,1957.175
1957185.0,71.0,115.0,3.0,30.0,1957.185
1957195.0,72.0,114.0,4.0,29.0,1957.195
1957206.0,71.0,112.0,6.0,29.0,1957.206
1957216.0,70.0,111.0,4.0,28.0,1957.216
1957226.0,71.0,112.0,6.0,29.0,1957.226
1957236.0,71.0,115.0,9.0,31.0,1957.236
1957246.0,71.0,113.0,8.0,30.0,1957.246
1957256.0,71.0,115.0,8.0,30.0,1957.256
1957266.0,68.0,117.0,7.0,32.0,1957.266
1957276.0,71.0,115.0,8.0,31.0,1957.276
1957286.0,69.0,109.0,6.0,30.0,1957.286
1957296.0,71.0,112.0,6.0,31.0,1957.296
1957306.0,72.0,106.0,6.0,32.0,1957.306
1957316.0,70.0,107.0,8.0,31.0,1957.316
1957326.0,69.0,102.0,8.0,31.0,1957.326
1957336.0,69.0,101.0,8.0,31.0,1957.336
1957346.0,70.0,99.0,8.0,30.0,1957.346
1957356.0,69.0,97.0,7.0,29.0,1957.356
1957366.0,69.0,107.0,7.0,31.0,1957.366
1957376.0,70.0,105.0,6.0,29.0,1957.376
1957386.0,70.0,102.0,6.0,32.0,1957.386
1957396.0,71.0,102.0,6.0,30.0,1957.396
1957406.0,73.0,101.0,6.0,30.0,1957.406
1957416.0,73.0,100.0,7.0,32.0,1957.416
1957426.0,75.0,97.0,7.0,32.0,1957.426
1957436.0,74.0,91.0,6.0,33.0,1957.436
1957446.0,75.0,90.0,6.0,32.0,1957.446
1957456.0,74.0,89.0,6.0,32.0,1957.456
1957466.0,74.0,89.0,5.0,31.0,1957.466
1957476.0,73.0,94.0,5.0,29.0,1957.476
1957486.0,77.0,95.0,5.0,30.0,1957.486
1957496.0,76.0,91.0,5.0,30.0,1957.496
1957506.0,77.0,94.0,7.0,31.0,1957.506
1957516.0,76.0,93.0,9.0,31.0,1957.516
1957526.0,77.0,97.0,10.0,31.0,1957.526
1957536.0,74.0,91.0,10.0,31.0,1957.536
1957547.0,76.0,92.0,10.0,30.0,1957.547
1957557.0,75.0,88.0,9.0,30.0,1957.557
1957567.0,74.0,86.0,8.0,29.0,1957.567
1957577.0,77.0,86.0,8.0,29.0,1957.577
1957587.0,74.0,85.0,6.0,30.0,1957.587
1957597.0,74.0,87.0,6.0,31.0,1957.597
1957607.0,74.0,90.0,6.0,32.0,1957.607
1957617.0,71.0,86.0,6.0,32.0,1957.617
1957627.0,71.0,87.0,7.0,33.0,1957.627
1957637.0,70.0,85.0,7.0,34.0,1957.637
1957647.0,68.0,90.0,8.0,35.0,1957.647
1957657.0,70.0,88.0,7.0,35.0,1957.657
1957667.0,70.0,88.0,14.0,38.0,1957.667
1957677.0,67.0,84.0,12.0,38.0,1957.677
1957687.0,67.0,82.0,10.0,38.0,1957.687
1957697.0,67.0,84.0,10.0,38.0,1957.697
1957707.0,66.0,89.0,9.0,41.0,1957.707
1957718.0,65.0,84.0,9.0,40.0,1957.718
1957728.0,65.0,83.0,8.0,40.0,1957.728
1957738.0,64.0,82.0,7.0,41.0,1957.738
1957748.0,65.0,83.0,6.0,41.0,1957.748
1957758.0,63.0,83.0,6.0,43.0,1957.758
1957768.0,63.0,81.0,6.0,43.0,1957.768
1957778.0,63.0,84.0,5.0,44.0,1957.778
1957788.0,61.0,82.0,5.0,44.0,1957.788
1957798.0,61.0,80.0,6.0,44.0,1957.798
1957808.0,61.0,82.0,5.0,45.0,1957.808
1957818.0,61.0,79.0,5.0,45.0,1957.818
1957828.0,63.0,79.0,5.0,47.0,1957.828
1957838.0,62.0,81.0,5.0,45.0,1957.838
1957848.0,62.0,78.0,5.0,44.0,1957.848
1957858.0,63.0,78.0,5.0,44.0,1957.858
1957868.0,62.0,75.0,6.0,44.0,1957.868
1957878.0,62.0,78.0,6.0,45.0,1957.878
1957888.0,60.0,73.0,6.0,43.0,1957.888
1957898.0,59.0,79.0,5.0,41.0,1957.898
1957908.0,58.0,76.0,5.0,41.0,1957.908
1957918.0,57.0,73.0,5.0,39.0,1957.918
1957928.0,57.0,72.0,5.0,41.0,1957.928
1957938.0,57.0,74.0,6.0,39.0,1957.938
1957948.0,57.0,73.0,6.0,39.0,1957.948
1957958.0,56.0,72.0,6.0,38.0,1957.958
1957968.0,57.0,73.0,11.0,43.0,1957.968
1957978.0,56.0,71.0,10.0,45.0,1957.978
1957988.0,55.0,69.0,9.0,41.0,1957.988
1957998.0,55.0,68.0,8.0,38.0,1957.998
1958008.0,55.0,67.0,7.0,37.0,1958.008
1958018.0,56.0,66.0,6.0,38.0,1958.018
1958028.0,54.0,66.0,6.0,38.0,1958.028
1958038.0,53.0,63.0,6.0,37.0,1958.038
1958048.0,53.0,61.0,6.0,39.0,1958.048
1958059.0,52.0,59.0,6.0,39.0,1958.059
1958069.0,51.0,55.0,5.0,38.0,1958.069
1958079.0,49.0,55.0,5.0,38.0,1958.079
1958089.0,49.0,52.0,6.0,38.0,1958.089
1958099.0,48.0,51.0,5.0,39.0,1958.099
1958109.0,46.0,49.0,4.0,39.0,1958.109
1958119.0,46.0,47.0,8.0,48.0,1958.119
1958129.0,46.0,49.0,13.0,82.0,1958.129
1958139.0,49.0,49.0,20.0,100.0,1958.139
1958149.0,49.0,50.0,18.0,122.0,1958.149
1958159.0,49.0,50.0,18.0,131.0,1958.159
1958169.0,53.0,57.0,19.0,137.0,1958.169
1958179.0,52.0,60.0,16.0,134.0,1958.179
1958189.0,54.0,62.0,22.0,150.0,1958.189
1958199.0,64.0,61.0,35.0,222.0,1958.199
1958209.0,63.0,66.0,54.0,308.0,1958.209
1958219.0,71.0,71.0,59.0,308.0,1958.219
1958230.0,73.0,81.0,64.0,313.0,1958.23
1958240.0,86.0,95.0,60.0,369.0,1958.24
1958250.0,95.0,109.0,71.0,378.0,1958.25
1958260.0,94.0,114.0,100.0,358.0,1958.26
1958270.0,94.0,121.0,98.0,362.0,1958.27
1958280.0,97.0,131.0,98.0,371.0,1958.28
1958290.0,98.0,137.0,104.0,348.0,1958.29
1958300.0,97.0,144.0,115.0,364.0,1958.3
1958310.0,102.0,150.0,196.0,424.0,1958.31
1958320.0,104.0,159.0,209.0,397.0,1958.32
1958330.0,102.0,157.0,211.0,408.0,1958.33
1958340.0,105.0,164.0,213.0,420.0,1958.34
1958350.0,106.0,172.0,213.0,388.0,1958.35
1958360.0,102.0,171.0,209.0,357.0,1958.36
1958370.0,105.0,177.0,189.0,341.0,1958.37
1958380.0,106.0,178.0,163.0,317.0,1958.38
1958390.0,106.0,178.0,146.0,298.0,1958.39
1958400.0,106.0,179.0,132.0,300.0,1958.4
1958410.0,107.0,181.0,131.0,285.0,1958.41
1958420.0,109.0,184.0,121.0,272.0,1958.42
1958430.0,111.0,185.0,112.0,262.0,1958.43
1958440.0,112.0,186.0,109.0,251.0,1958.44
1958450.0,112.0,187.0,98.0,246.0,1958.45
1958460.0,113.0,188.0,88.0,233.0,1958.46
1958470.0,116.0,190.0,88.0,240.0,1958.47
1958480.0,116.0,191.0,88.0,229.0,1958.48
1958490.0,116.0,189.0,84.0,230.0,1958.49
1958500.0,118.0,188.0,88.0,233.0,1958.5
1958510.0,119.0,188.0,77.0,236.0,1958.51
1958520.0,122.0,186.0,71.0,223.0,1958.52
1958530.0,123.0,183.0,64.0,217.0,1958.53
1958540.0,124.0,179.0,63.0,235.0,1958.54
1958550.0,125.0,178.0,59.0,241.0,1958.55
1958560.0,124.0,172.0,58.0,241.0,1958.56
1958571.0,125.0,173.0,62.0,246.0,1958.571
1958581.0,125.0,170.0,59.0,237.0,1958.581
1958591.0,128.0,171.0,56.0,243.0,1958.591
1958601.0,127.0,169.0,53.0,256.0,1958.601
1958611.0,127.0,167.0,52.0,244.0,1958.611
1958621.0,126.0,163.0,49.0,232.0,1958.621
1958631.0,126.0,163.0,44.0,233.0,1958.631
1958641.0,124.0,160.0,41.0,249.0,1958.641
1958651.0,123.0,161.0,38.0,272.0,1958.651
1958661.0,122.0,159.0,34.0,258.0,1958.661
1958671.0,120.0,158.0,37.0,264.0,1958.671
1958681.0,117.0,155.0,34.0,255.0,1958.681
1958691.0,118.0,154.0,33.0,245.0,1958.691
1958701.0,113.0,150.0,32.0,232.0,1958.701
1958711.0,116.0,152.0,28.0,222.0,1958.711
1958721.0,115.0,150.0,31.0,217.0,1958.721
1958731.0,113.0,149.0,39.0,208.0,1958.731
1958742.0,115.0,151.0,40.0,212.0,1958.742
1958752.0,117.0,153.0,43.0,205.0,1958.752
1958762.0,118.0,150.0,39.0,212.0,1958.762
1958772.0,116.0,149.0,34.0,207.0,1958.772
1958782.0,114.0,148.0,32.0,193.0,1958.782
1958792.0,114.0,145.0,33.0,181.0,1958.792
1958802.0,115.0,144.0,35.0,165.0,1958.802
1958812.0,114.0,142.0,44.0,163.0,1958.812
1958822.0,115.0,141.0,39.0,158.0,1958.822
1958832.0,115.0,140.0,40.0,154.0,1958.832
1958842.0,116.0,139.0,43.0,143.0,1958.842
1958852.0,116.0,140.0,38.0,154.0,1958.852
1958862.0,116.0,138.0,34.0,154.0,1958.862
1958872.0,116.0,138.0,30.0,148.0,1958.872
1958882.0,115.0,135.0,29.0,136.0,1958.882
1958892.0,112.0,132.0,38.0,133.0,1958.892
1958902.0,111.0,130.0,36.0,126.0,1958.902
1958912.0,112.0,129.0,39.0,141.0,1958.912
1958922.0,112.0,128.0,33.0,138.0,1958.922
1958932.0,114.0,127.0,29.0,132.0,1958.932
1958942.0,112.0,123.0,26.0,127.0,1958.942
1958952.0,110.0,119.0,27.0,135.0,1958.952
1958962.0,112.0,119.0,25.0,138.0,1958.962
1958972.0,112.0,118.0,21.0,136.0,1958.972
1958982.0,109.0,116.0,22.0,127.0,1958.982
1958992.0,108.0,113.0,28.0,142.0,1958.992
1959002.0,107.0,115.0,32.0,139.0,1959.002
1959012.0,105.0,113.0,28.0,137.0,1959.012
1959022.0,105.0,113.0,27.0,131.0,1959.022
1959032.0,105.0,112.0,27.0,131.0,1959.032
1959042.0,103.0,110.0,25.0,133.0,1959.042
1959052.0,104.0,109.0,21.0,133.0,1959.052
1959062.0,105.0,107.0,20.0,131.0,1959.062
1959072.0,102.0,104.0,33.0,144.0,1959.072
1959083.0,102.0,102.0,38.0,147.0,1959.083
1959093.0,102.0,103.0,33.0,148.0,1959.093
1959103.0,99.0,99.0,31.0,151.0,1959.103
1959113.0,99.0,96.0,35.0,175.0,1959.113
1959123.0,99.0,96.0,33.0,184.0,1959.123
1959133.0,100.0,95.0,32.0,172.0,1959.133
1959143.0,100.0,94.0,27.0,156.0,1959.143
1959153.0,100.0,93.0,24.0,150.0,1959.153
1959163.0,100.0,90.0,24.0,153.0,1959.163
1959173.0,98.0,90.0,27.0,161.0,1959.173
1959183.0,98.0,87.0,23.0,151.0,1959.183
1959193.0,97.0,84.0,24.0,146.0,1959.193
1959203.0,97.0,85.0,41.0,151.0,1959.203
1959213.0,97.0,83.0,36.0,150.0,1959.213
1959223.0,97.0,83.0,34.0,164.0,1959.223
1959233.0,97.0,83.0,31.0,152.0,1959.233
1959243.0,95.0,79.0,30.0,153.0,1959.243
1959254.0,95.0,79.0,27.0,146.0,1959.254
1959264.0,93.0,76.0,23.0,135.0,1959.264
1959274.0,92.0,77.0,20.0,133.0,1959.274
1959284.0,93.0,77.0,20.0,131.0,1959.284
1959294.0,90.0,76.0,16.0,123.0,1959.294
1959304.0,91.0,77.0,16.0,120.0,1959.304
1959314.0,89.0,75.0,16.0,115.0,1959.314
1959324.0,88.0,75.0,15.0,149.0,1959.324
1959334.0,88.0,74.0,14.0,141.0,1959.334
1959344.0,88.0,76.0,13.0,139.0,1959.344
1959354.0,88.0,76.0,12.0,130.0,1959.354
1959364.0,89.0,74.0,12.0,128.0,1959.364
1959374.0,86.0,72.0,10.0,133.0,1959.374
1959384.0,87.0,72.0,12.0,133.0,1959.384
1959394.0,86.0,71.0,13.0,131.0,1959.394
1959404.0,85.0,69.0,12.0,120.0,1959.404
1959414.0,84.0,64.0,12.0,114.0,1959.414
1959424.0,84.0,63.0,13.0,126.0,1959.424
1959434.0,86.0,63.0,21.0,116.0,1959.434
1959444.0,84.0,61.0,20.0,125.0,1959.444
1959454.0,86.0,60.0,19.0,121.0,1959.454
1959464.0,86.0,58.0,20.0,149.0,1959.464
1959474.0,84.0,56.0,21.0,142.0,1959.474
1959484.0,83.0,53.0,18.0,140.0,1959.484
1959494.0,81.0,52.0,17.0,139.0,1959.494
1959504.0,80.0,51.0,18.0,128.0,1959.504
1959514.0,78.0,50.0,16.0,123.0,1959.514
1959524.0,76.0,48.0,14.0,119.0,1959.524
1959534.0,76.0,47.0,15.0,134.0,1959.534
1959544.0,73.0,47.0,15.0,134.0,1959.544
1959554.0,73.0,45.0,14.0,128.0,1959.554
1959564.0,72.0,43.0,12.0,119.0,1959.564
1959574.0,69.0,44.0,25.0,125.0,1959.574
1959584.0,69.0,46.0,36.0,125.0,1959.584
1959595.0,68.0,45.0,31.0,128.0,1959.595
1959605.0,67.0,44.0,29.0,124.0,1959.605
1959615.0,67.0,44.0,27.0,137.0,1959.615
1959625.0,67.0,45.0,24.0,136.0,1959.625
1959635.0,66.0,42.0,21.0,135.0,1959.635
1959645.0,65.0,42.0,18.0,135.0,1959.645
1959655.0,66.0,41.0,18.0,135.0,1959.655
1959665.0,65.0,41.0,15.0,122.0,1959.665
1959675.0,63.0,42.0,16.0,119.0,1959.675
1959685.0,62.0,43.0,15.0,123.0,1959.685
1959695.0,62.0,43.0,16.0,124.0,1959.695
1959705.0,63.0,42.0,14.0,118.0,1959.705
1959715.0,62.0,41.0,13.0,112.0,1959.715
1959725.0,61.0,41.0,12.0,127.0,1959.725
1959735.0,63.0,40.0,11.0,119.0,1959.735
1959745.0,60.0,41.0,15.0,116.0,1959.745
1959755.0,60.0,42.0,13.0,120.0,1959.755
1959766.0,59.0,44.0,13.0,124.0,1959.766
1959776.0,59.0,44.0,11.0,116.0,1959.776
1959786.0,59.0,42.0,11.0,128.0,1959.786
1959796.0,60.0,44.0,10.0,125.0,1959.796
1959806.0,57.0,43.0,10.0,125.0,1959.806
1959816.0,57.0,45.0,8.0,119.0,1959.816
1959826.0,55.0,46.0,16.0,115.0,1959.826
1959836.0,57.0,45.0,14.0,121.0,1959.836
1959846.0,56.0,47.0,13.0,134.0,1959.846
1959856.0,55.0,47.0,12.0,128.0,1959.856
1959866.0,55.0,47.0,11.0,124.0,1959.866
1959876.0,55.0,48.0,15.0,134.0,1959.876
1959886.0,56.0,48.0,13.0,128.0,1959.886
1959896.0,55.0,49.0,12.0,125.0,1959.896
1959906.0,55.0,50.0,12.0,132.0,1959.906
1959916.0,55.0,52.0,13.0,154.0,1959.916
1959926.0,55.0,51.0,11.0,146.0,1959.926
1959936.0,57.0,50.0,11.0,142.0,1959.936
1959946.0,57.0,52.0,9.0,132.0,1959.946
1959956.0,59.0,52.0,11.0,145.0,1959.956
1959966.0,60.0,53.0,9.0,150.0,1959.966
1959976.0,60.0,52.0,8.0,139.0,1959.976
1959986.0,61.0,53.0,9.0,135.0,1959.986
1959996.0,61.0,54.0,9.0,136.0,1959.996
1960006.0,62.0,54.0,9.0,130.0,1960.006
1960016.0,63.0,54.0,11.0,139.0,1960.016
1960026.0,62.0,55.0,12.0,134.0,1960.026
1960036.0,63.0,54.0,10.0,125.0,1960.036
1960046.0,62.0,55.0,10.0,123.0,1960.046
1960056.0,63.0,55.0,12.0,151.0,1960.056
1960066.0,64.0,56.0,14.0,153.0,1960.066
1960076.0,64.0,54.0,16.0,146.0,1960.076
1960086.0,65.0,55.0,14.0,137.0,1960.086
1960096.0,65.0,53.0,14.0,134.0,1960.096
1960107.0,65.0,55.0,14.0,131.0,1960.107
1960117.0,66.0,54.0,12.0,141.0,1960.117
1960127.0,65.0,53.0,11.0,137.0,1960.127
1960137.0,65.0,55.0,11.0,136.0,1960.137
1960147.0,65.0,56.0,10.0,142.0,1960.147
1960157.0,64.0,55.0,11.0,134.0,1960.157
1960167.0,63.0,57.0,13.0,130.0,1960.167
1960177.0,63.0,57.0,15.0,123.0,1960.177
1960187.0,60.0,58.0,12.0,120.0,1960.187
1960197.0,60.0,57.0,15.0,120.0,1960.197
1960207.0,58.0,57.0,14.0,124.0,1960.207
1960217.0,57.0,57.0,13.0,126.0,1960.217
1960227.0,56.0,54.0,15.0,126.0,1960.227
1960237.0,55.0,54.0,13.0,126.0,1960.237
1960247.0,53.0,54.0,13.0,147.0,1960.247
1960257.0,54.0,54.0,12.0,147.0,1960.257
1960267.0,54.0,53.0,12.0,145.0,1960.267
1960278.0,53.0,54.0,15.0,153.0,1960.278
1960288.0,54.0,55.0,13.0,148.0,1960.288
1960298.0,54.0,55.0,13.0,142.0,1960.298
1960308.0,55.0,55.0,13.0,180.0,1960.308
1960318.0,56.0,55.0,13.0,169.0,1960.318
1960328.0,55.0,57.0,14.0,157.0,1960.328
1960338.0,56.0,58.0,14.0,154.0,1960.338
1960348.0,55.0,57.0,13.0,157.0,1960.348
1960358.0,57.0,57.0,11.0,156.0,1960.358
1960368.0,57.0,57.0,10.0,164.0,1960.368
1960378.0,56.0,60.0,12.0,167.0,1960.378
1960388.0,57.0,58.0,15.0,161.0,1960.388
1960398.0,57.0,59.0,15.0,148.0,1960.398
1960408.0,55.0,59.0,15.0,141.0,1960.408
1960418.0,55.0,57.0,13.0,133.0,1960.418
1960428.0,55.0,56.0,12.0,125.0,1960.428
1960438.0,54.0,57.0,10.0,115.0,1960.438
1960448.0,54.0,56.0,11.0,109.0,1960.448
1960458.0,52.0,55.0,11.0,107.0,1960.458
1960468.0,55.0,55.0,10.0,116.0,1960.468
1960478.0,55.0,53.0,9.0,122.0,1960.478
1960488.0,53.0,53.0,8.0,116.0,1960.488
1960498.0,53.0,51.0,9.0,116.0,1960.498
1960508.0,51.0,53.0,11.0,113.0,1960.508
1960518.0,51.0,53.0,11.0,108.0,1960.518
1960528.0,53.0,52.0,10.0,112.0,1960.528
1960538.0,53.0,51.0,9.0,116.0,1960.538
1960548.0,54.0,51.0,10.0,119.0,1960.548
1960558.0,52.0,51.0,10.0,112.0,1960.558
1960568.0,53.0,50.0,9.0,108.0,1960.568
1960578.0,53.0,50.0,10.0,114.0,1960.578
1960588.0,54.0,51.0,9.0,118.0,1960.588
1960598.0,54.0,49.0,10.0,120.0,1960.598
1960608.0,54.0,49.0,10.0,121.0,1960.608
1960619.0,55.0,48.0,9.0,117.0,1960.619
1960629.0,55.0,48.0,9.0,109.0,1960.629
1960639.0,55.0,47.0,8.0,135.0,1960.639
1960649.0,55.0,47.0,9.0,145.0,1960.649
1960659.0,56.0,46.0,10.0,136.0,1960.659
1960669.0,55.0,44.0,10.0,131.0,1960.669
1960679.0,54.0,46.0,9.0,134.0,1960.679
1960689.0,55.0,46.0,11.0,128.0,1960.689
1960699.0,58.0,45.0,13.0,147.0,1960.699
1960709.0,56.0,45.0,15.0,148.0,1960.709
1960719.0,55.0,44.0,15.0,135.0,1960.719
1960729.0,56.0,43.0,14.0,135.0,1960.729
1960739.0,53.0,43.0,13.0,132.0,1960.739
1960749.0,53.0,42.0,12.0,128.0,1960.749
1960759.0,53.0,43.0,9.0,117.0,1960.759
1960769.0,53.0,43.0,11.0,109.0,1960.769
1960779.0,51.0,43.0,12.0,119.0,1960.779
1960790.0,49.0,43.0,11.0,128.0,1960.79
1960800.0,50.0,45.0,13.0,137.0,1960.8
1960810.0,50.0,47.0,13.0,145.0,1960.81
1960820.0,51.0,44.0,13.0,143.0,1960.82
1960830.0,50.0,44.0,11.0,143.0,1960.83
1960840.0,49.0,46.0,10.0,133.0,1960.84
1960850.0,49.0,46.0,10.0,123.0,1960.85
1960860.0,48.0,46.0,8.0,117.0,1960.86
1960870.0,47.0,44.0,8.0,112.0,1960.87
1960880.0,47.0,45.0,7.0,120.0,1960.88
1960890.0,46.0,44.0,8.0,120.0,1960.89
1960900.0,47.0,42.0,10.0,132.0,1960.9
1960910.0,47.0,43.0,9.0,129.0,1960.91
1960920.0,49.0,41.0,9.0,122.0,1960.92
1960930.0,48.0,42.0,10.0,130.0,1960.93
1960940.0,47.0,41.0,9.0,134.0,1960.94
1960950.0,47.0,41.0,10.0,137.0,1960.95
1960960.0,48.0,42.0,11.0,135.0,1960.96
1960970.0,48.0,42.0,10.0,130.0,1960.97
1960980.0,46.0,40.0,9.0,127.0,1960.98
1960990.0,47.0,41.0,9.0,134.0,1960.99
1961000.0,49.0,42.0,8.0,141.0,1961.0
1961010.0,48.0,41.0,7.0,131.0,1961.01
1961020.0,47.0,40.0,7.0,125.0,1961.02
1961030.0,45.0,41.0,7.0,120.0,1961.03
1961040.0,46.0,40.0,9.0,114.0,1961.04
1961050.0,46.0,39.0,9.0,116.0,1961.05
1961060.0,45.0,41.0,9.0,113.0,1961.06
1961070.0,47.0,41.0,10.0,123.0,1961.07
1961080.0,46.0,41.0,7.0,123.0,1961.08
1961090.0,47.0,41.0,7.0,134.0,1961.09
1961100.0,46.0,40.0,8.0,131.0,1961.1
1961110.0,46.0,41.0,9.0,126.0,1961.11
1961120.0,45.0,40.0,9.0,124.0,1961.12
1961131.0,46.0,39.0,17.0,119.0,1961.131
1961141.0,47.0,41.0,16.0,115.0,1961.141
1961151.0,47.0,40.0,14.0,112.0,1961.151
1961161.0,46.0,41.0,13.0,122.0,1961.161
1961171.0,46.0,40.0,12.0,118.0,1961.171
1961181.0,46.0,41.0,11.0,113.0,1961.181
1961191.0,46.0,40.0,11.0,126.0,1961.191
1961201.0,46.0,39.0,9.0,129.0,1961.201
1961211.0,45.0,40.0,9.0,128.0,1961.211
1961221.0,45.0,39.0,13.0,129.0,1961.221
1961231.0,46.0,40.0,14.0,166.0,1961.231
1961241.0,45.0,39.0,13.0,169.0,1961.241
1961251.0,44.0,38.0,12.0,166.0,1961.251
1961261.0,44.0,40.0,11.0,153.0,1961.261
1961271.0,44.0,39.0,11.0,142.0,1961.271
1961281.0,44.0,40.0,9.0,138.0,1961.281
1961291.0,45.0,42.0,10.0,137.0,1961.291
1961302.0,44.0,43.0,8.0,144.0,1961.302
1961312.0,44.0,45.0,9.0,138.0,1961.312
1961322.0,45.0,47.0,15.0,132.0,1961.322
1961332.0,45.0,48.0,15.0,127.0,1961.332
1961342.0,46.0,47.0,13.0,128.0,1961.342
1961352.0,46.0,46.0,12.0,125.0,1961.352
1961362.0,46.0,48.0,13.0,117.0,1961.362
1961372.0,47.0,49.0,15.0,120.0,1961.372
1961382.0,47.0,49.0,12.0,130.0,1961.382
1961392.0,48.0,49.0,11.0,129.0,1961.392
1961402.0,48.0,50.0,10.0,130.0,1961.402
1961412.0,49.0,50.0,13.0,126.0,1961.412
1961422.0,51.0,50.0,13.0,134.0,1961.422
1961432.0,51.0,52.0,12.0,146.0,1961.432
1961442.0,53.0,51.0,12.0,141.0,1961.442
1961452.0,52.0,52.0,14.0,152.0,1961.452
1961462.0,52.0,53.0,15.0,157.0,1961.462
1961472.0,51.0,52.0,13.0,152.0,1961.472
1961482.0,51.0,52.0,11.0,148.0,1961.482
1961492.0,53.0,50.0,11.0,136.0,1961.492
1961502.0,53.0,50.0,11.0,129.0,1961.502
1961512.0,53.0,50.0,10.0,139.0,1961.512
1961522.0,53.0,51.0,9.0,137.0,1961.522
1961532.0,54.0,53.0,8.0,128.0,1961.532
1961542.0,53.0,52.0,14.0,127.0,1961.542
1961552.0,54.0,54.0,11.0,119.0,1961.552
1961562.0,55.0,53.0,13.0,134.0,1961.562
1961572.0,56.0,55.0,12.0,138.0,1961.572
1961582.0,56.0,56.0,11.0,135.0,1961.582
1961592.0,57.0,57.0,12.0,131.0,1961.592
1961602.0,56.0,57.0,11.0,126.0,1961.602
1961612.0,55.0,57.0,11.0,120.0,1961.612
1961622.0,56.0,57.0,11.0,117.0,1961.622
1961632.0,55.0,57.0,10.0,130.0,1961.632
1961643.0,55.0,55.0,10.0,132.0,1961.643
1961653.0,54.0,56.0,9.0,140.0,1961.653
1961663.0,55.0,56.0,10.0,136.0,1961.663
1961673.0,53.0,58.0,10.0,129.0,1961.673
1961683.0,52.0,60.0,9.0,126.0,1961.683
1961693.0,51.0,61.0,8.0,132.0,1961.693
1961703.0,51.0,60.0,8.0,138.0,1961.703
1961713.0,50.0,60.0,7.0,136.0,1961.713
1961723.0,50.0,60.0,7.0,133.0,1961.723
1961733.0,51.0,60.0,7.0,134.0,1961.733
1961743.0,52.0,61.0,7.0,134.0,1961.743
1961753.0,52.0,62.0,6.0,128.0,1961.753
1961763.0,52.0,64.0,7.0,136.0,1961.763
1961773.0,53.0,64.0,10.0,134.0,1961.773
1961783.0,51.0,65.0,9.0,138.0,1961.783
1961793.0,52.0,63.0,11.0,135.0,1961.793
1961803.0,51.0,63.0,10.0,152.0,1961.803
1961814.0,52.0,63.0,11.0,141.0,1961.814
1961824.0,50.0,64.0,14.0,133.0,1961.824
1961834.0,50.0,64.0,13.0,126.0,1961.834
1961844.0,49.0,65.0,11.0,120.0,1961.844
1961854.0,47.0,67.0,11.0,122.0,1961.854
1961864.0,47.0,66.0,10.0,122.0,1961.864
1961874.0,45.0,68.0,9.0,115.0,1961.874
1961884.0,45.0,68.0,10.0,118.0,1961.884
1961894.0,45.0,69.0,10.0,143.0,1961.894
1961904.0,44.0,69.0,10.0,160.0,1961.904
1961914.0,44.0,67.0,8.0,152.0,1961.914
1961924.0,45.0,70.0,8.0,140.0,1961.924
1961934.0,45.0,68.0,7.0,126.0,1961.934
1961944.0,44.0,70.0,9.0,145.0,1961.944
1961954.0,44.0,68.0,12.0,155.0,1961.954
1961964.0,46.0,67.0,11.0,155.0,1961.964
1961974.0,46.0,68.0,10.0,151.0,1961.974
1961984.0,45.0,67.0,9.0,145.0,1961.984
1961994.0,44.0,65.0,8.0,141.0,1961.994
1962004.0,43.0,66.0,8.0,133.0,1962.004
1962014.0,44.0,65.0,8.0,130.0,1962.014
1962024.0,43.0,66.0,7.0,129.0,1962.024
1962034.0,44.0,67.0,10.0,124.0,1962.034
1962044.0,43.0,66.0,8.0,122.0,1962.044
