time (ms),signal 0,signal 1,signal 2,signal3,time (sec)
1939803.0,68.0,44.0,30.0,79.0,1939.803
1939813.0,71.0,46.0,27.0,85.0,1939.813
1939823.0,71.0,47.0,23.0,85.0,1939.823
1939833.0,73.0,45.0,25.0,83.0,1939.833
1939843.0,71.0,44.0,23.0,99.0,1939.843
1939853.0,74.0,45.0,22.0,96.0,1939.853
1939863.0,77.0,45.0,19.0,95.0,1939.863
1939873.0,77.0,45.0,17.0,95.0,1939.873
1939883.0,78.0,43.0,16.0,91.0,1939.883
1939893.0,77.0,44.0,24.0,91.0,1939.893
1939903.0,78.0,44.0,27.0,105.0,1939.903
1939913.0,79.0,44.0,26.0,103.0,1939.913
1939923.0,82.0,45.0,26.0,108.0,1939.923
1939933.0,83.0,44.0,23.0,98.0,1939.933
1939943.0,82.0,45.0,21.0,93.0,1939.943
1939953.0,82.0,44.0,20.0,91.0,1939.953
1939963.0,81.0,44.0,19.0,90.0,1939.963
1939973.0,82.0,48.0,21.0,93.0,1939.973
1939983.0,80.0,47.0,19.0,93.0,1939.983
1939993.0,82.0,49.0,18.0,99.0,1939.993
1940003.0,81.0,48.0,16.0,94.0,1940.003
1940013.0,83.0,47.0,18.0,96.0,1940.013
1940023.0,83.0,49.0,16.0,91.0,1940.023
1940033.0,84.0,50.0,28.0,115.0,1940.033
1940043.0,84.0,49.0,24.0,116.0,1940.043
1940054.0,84.0,49.0,23.0,109.0,1940.054
1940064.0,84.0,47.0,26.0,105.0,1940.064
1940074.0,85.0,48.0,29.0,106.0,1940.074
1940084.0,87.0,48.0,26.0,96.0,1940.084
1940094.0,87.0,48.0,23.0,101.0,1940.094
1940104.0,89.0,47.0,21.0,95.0,1940.104
1940114.0,87.0,47.0,26.0,90.0,1940.114
1940124.0,89.0,47.0,23.0,89.0,1940.124
1940134.0,90.0,45.0,22.0,95.0,1940.134
1940144.0,91.0,47.0,22.0,98.0,1940.144
1940154.0,91.0,43.0,20.0,92.0,1940.154
1940164.0,92.0,43.0,18.0,90.0,1940.164
1940174.0,95.0,43.0,19.0,86.0,1940.174
1940184.0,97.0,43.0,21.0,85.0,1940.184
1940194.0,100.0,47.0,20.0,82.0,1940.194
1940204.0,101.0,45.0,18.0,76.0,1940.204
1940214.0,102.0,45.0,16.0,71.0,1940.214
1940224.0,105.0,46.0,17.0,75.0,1940.224
1940234.0,106.0,44.0,16.0,76.0,1940.234
1940244.0,107.0,45.0,15.0,79.0,1940.244
1940254.0,111.0,47.0,15.0,83.0,1940.254
1940264.0,111.0,47.0,14.0,101.0,1940.264
1940274.0,112.0,46.0,16.0,105.0,1940.274
1940284.0,115.0,48.0,24.0,99.0,1940.284
1940294.0,115.0,47.0,23.0,95.0,1940.294
1940304.0,117.0,46.0,20.0,89.0,1940.304
1940314.0,117.0,44.0,19.0,83.0,1940.314
1940324.0,117.0,44.0,18.0,80.0,1940.324
1940334.0,118.0,43.0,16.0,81.0,1940.334
1940344.0,118.0,42.0,12.0,83.0,1940.344
1940354.0,119.0,41.0,13.0,89.0,1940.354
1940364.0,119.0,42.0,11.0,84.0,1940.364
1940374.0,118.0,42.0,16.0,83.0,1940.374
1940384.0,119.0,43.0,22.0,83.0,1940.384
1940395.0,120.0,43.0,20.0,85.0,1940.395
1940405.0,122.0,42.0,19.0,80.0,1940.405
1940415.0,120.0,42.0,16.0,91.0,1940.415
1940425.0,121.0,40.0,14.0,101.0,1940.425
1940435.0,119.0,39.0,13.0,95.0,1940.435
1940445.0,119.0,39.0,13.0,90.0,1940.445
1940455.0,118.0,38.0,14.0,84.0,1940.455
1940465.0,117.0,37.0,13.0,92.0,1940.465
1940475.0,116.0,40.0,19.0,95.0,1940.475
1940485.0,115.0,40.0,19.0,92.0,1940.485
1940495.0,114.0,39.0,16.0,89.0,1940.495
1940505.0,113.0,38.0,15.0,85.0,1940.505
1940515.0,112.0,39.0,16.0,88.0,1940.515
1940525.0,112.0,37.0,18.0,85.0,1940.525
1940535.0,112.0,37.0,17.0,89.0,1940.535
1940545.0,113.0,38.0,22.0,88.0,1940.545
1940555.0,114.0,39.0,21.0,88.0,1940.555
1940566.0,111.0,38.0,17.0,85.0,1940.566
1940576.0,112.0,37.0,15.0,82.0,1940.576
1940586.0,112.0,38.0,15.0,89.0,1940.586
1940596.0,111.0,38.0,14.0,92.0,1940.596
1940606.0,110.0,38.0,15.0,91.0,1940.606
1940616.0,110.0,38.0,13.0,94.0,1940.616
1940626.0,111.0,37.0,14.0,89.0,1940.626
1940636.0,111.0,37.0,12.0,87.0,1940.636
1940646.0,112.0,37.0,13.0,83.0,1940.646
1940656.0,112.0,37.0,12.0,86.0,1940.656
1940666.0,111.0,38.0,11.0,85.0,1940.666
1940676.0,112.0,36.0,12.0,81.0,1940.676
1940686.0,112.0,35.0,13.0,86.0,1940.686
1940696.0,109.0,36.0,13.0,88.0,1940.696
1940706.0,109.0,38.0,24.0,94.0,1940.706
1940716.0,108.0,39.0,20.0,96.0,1940.716
1940726.0,109.0,39.0,19.0,96.0,1940.726
1940736.0,110.0,40.0,17.0,100.0,1940.736
1940746.0,111.0,40.0,16.0,89.0,1940.746
1940756.0,110.0,41.0,16.0,92.0,1940.756
1940766.0,109.0,43.0,20.0,98.0,1940.766
1940776.0,113.0,43.0,18.0,97.0,1940.776
1940786.0,111.0,41.0,16.0,103.0,1940.786
1940796.0,111.0,40.0,16.0,98.0,1940.796
1940806.0,110.0,40.0,19.0,95.0,1940.806
1940816.0,110.0,41.0,19.0,94.0,1940.816
1940826.0,111.0,40.0,21.0,98.0,1940.826
1940836.0,112.0,41.0,24.0,99.0,1940.836
1940846.0,113.0,40.0,22.0,98.0,1940.846
1940856.0,116.0,40.0,19.0,105.0,1940.856
1940866.0,116.0,41.0,20.0,96.0,1940.866
1940876.0,116.0,39.0,19.0,101.0,1940.876
1940886.0,115.0,39.0,17.0,99.0,1940.886
1940896.0,114.0,38.0,15.0,99.0,1940.896
1940907.0,114.0,39.0,14.0,94.0,1940.907
1940917.0,115.0,41.0,19.0,93.0,1940.917
1940927.0,117.0,43.0,19.0,91.0,1940.927
1940937.0,116.0,43.0,16.0,90.0,1940.937
1940947.0,117.0,45.0,20.0,91.0,1940.947
1940957.0,119.0,45.0,19.0,91.0,1940.957
1940967.0,119.0,43.0,17.0,86.0,1940.967
1940977.0,121.0,44.0,25.0,79.0,1940.977
1940987.0,123.0,45.0,23.0,79.0,1940.987
1940997.0,126.0,45.0,22.0,85.0,1940.997
1941007.0,128.0,45.0,18.0,84.0,1941.007
1941017.0,126.0,44.0,17.0,85.0,1941.017
1941027.0,128.0,44.0,17.0,88.0,1941.027
1941037.0,128.0,44.0,15.0,90.0,1941.037
1941047.0,128.0,46.0,22.0,89.0,1941.047
1941057.0,130.0,47.0,20.0,98.0,1941.057
1941067.0,133.0,48.0,17.0,94.0,1941.067
1941078.0,134.0,47.0,16.0,88.0,1941.078
1941088.0,135.0,47.0,18.0,97.0,1941.088
1941098.0,137.0,45.0,17.0,113.0,1941.098
1941108.0,140.0,48.0,15.0,120.0,1941.108
1941118.0,144.0,48.0,15.0,114.0,1941.118
1941128.0,145.0,48.0,24.0,106.0,1941.128
1941138.0,144.0,48.0,27.0,98.0,1941.138
1941148.0,148.0,49.0,25.0,99.0,1941.148
1941158.0,150.0,49.0,22.0,101.0,1941.158
1941168.0,152.0,49.0,19.0,100.0,1941.168
1941178.0,155.0,50.0,19.0,100.0,1941.178
1941188.0,159.0,53.0,16.0,99.0,1941.188
1941198.0,159.0,50.0,22.0,94.0,1941.198
1941208.0,162.0,53.0,25.0,96.0,1941.208
1941218.0,164.0,53.0,38.0,99.0,1941.218
1941228.0,166.0,55.0,37.0,104.0,1941.228
1941238.0,169.0,56.0,33.0,102.0,1941.238
1941248.0,173.0,56.0,33.0,103.0,1941.248
1941258.0,176.0,58.0,33.0,108.0,1941.258
1941268.0,176.0,56.0,35.0,103.0,1941.268
1941278.0,180.0,58.0,31.0,107.0,1941.278
1941288.0,183.0,59.0,28.0,102.0,1941.288
1941298.0,186.0,60.0,28.0,98.0,1941.298
1941308.0,188.0,62.0,30.0,97.0,1941.308
1941318.0,189.0,62.0,30.0,100.0,1941.318
1941328.0,190.0,62.0,34.0,94.0,1941.328
1941338.0,193.0,64.0,35.0,95.0,1941.338
1941348.0,194.0,62.0,32.0,97.0,1941.348
1941358.0,197.0,61.0,28.0,94.0,1941.358
1941368.0,199.0,60.0,27.0,93.0,1941.368
1941378.0,203.0,60.0,26.0,91.0,1941.378
1941388.0,205.0,61.0,23.0,89.0,1941.388
1941398.0,208.0,61.0,22.0,85.0,1941.398
1941408.0,212.0,62.0,23.0,86.0,1941.408
1941419.0,213.0,60.0,27.0,86.0,1941.419
1941429.0,217.0,61.0,24.0,81.0,1941.429
1941439.0,220.0,61.0,26.0,78.0,1941.439
1941449.0,223.0,62.0,24.0,75.0,1941.449
1941459.0,222.0,59.0,22.0,67.0,1941.459
1941469.0,222.0,57.0,19.0,67.0,1941.469
1941479.0,227.0,63.0,22.0,70.0,1941.479
1941489.0,231.0,67.0,21.0,70.0,1941.489
1941499.0,234.0,70.0,25.0,74.0,1941.499
1941509.0,235.0,72.0,23.0,78.0,1941.509
1941519.0,237.0,74.0,23.0,74.0,1941.519
1941529.0,237.0,75.0,20.0,70.0,1941.529
1941539.0,238.0,77.0,19.0,75.0,1941.539
1941549.0,236.0,77.0,19.0,80.0,1941.549
1941559.0,222.0,74.0,16.0,78.0,1941.559
1941569.0,225.0,72.0,15.0,76.0,1941.569
1941579.0,227.0,70.0,14.0,83.0,1941.579
1941590.0,227.0,71.0,15.0,84.0,1941.59
1941600.0,237.0,73.0,18.0,92.0,1941.6
1941610.0,234.0,82.0,17.0,96.0,1941.61
1941620.0,241.0,85.0,17.0,96.0,1941.62
1941630.0,235.0,87.0,16.0,91.0,1941.63
1941640.0,240.0,85.0,16.0,89.0,1941.64
1941650.0,247.0,84.0,16.0,90.0,1941.65
1941660.0,245.0,81.0,15.0,85.0,1941.66
1941670.0,236.0,87.0,14.0,81.0,1941.67
1941680.0,241.0,85.0,12.0,80.0,1941.68
1941690.0,242.0,81.0,11.0,95.0,1941.69
1941700.0,238.0,79.0,10.0,92.0,1941.7
1941710.0,235.0,77.0,10.0,92.0,1941.71
1941720.0,225.0,73.0,9.0,87.0,1941.72
1941730.0,221.0,73.0,8.0,84.0,1941.73
1941740.0,225.0,70.0,8.0,80.0,1941.74
1941750.0,220.0,75.0,8.0,76.0,1941.75
1941760.0,212.0,79.0,7.0,71.0,1941.76
1941770.0,208.0,85.0,7.0,69.0,1941.77
1941780.0,206.0,107.0,8.0,70.0,1941.78
1941790.0,199.0,110.0,8.0,70.0,1941.79
1941800.0,196.0,134.0,10.0,70.0,1941.8
1941810.0,193.0,128.0,9.0,77.0,1941.81
1941820.0,191.0,126.0,10.0,80.0,1941.82
1941830.0,183.0,117.0,8.0,80.0,1941.83
1941840.0,174.0,131.0,8.0,77.0,1941.84
1941850.0,165.0,152.0,7.0,75.0,1941.85
1941860.0,162.0,163.0,10.0,78.0,1941.86
1941870.0,157.0,176.0,11.0,82.0,1941.87
1941880.0,150.0,175.0,13.0,87.0,1941.88
1941890.0,148.0,166.0,12.0,91.0,1941.89
1941900.0,142.0,161.0,12.0,91.0,1941.9
1941910.0,133.0,163.0,13.0,86.0,1941.91
1941920.0,128.0,165.0,14.0,91.0,1941.92
1941931.0,122.0,167.0,14.0,89.0,1941.931
1941941.0,117.0,169.0,16.0,84.0,1941.941
1941951.0,112.0,177.0,15.0,88.0,1941.951
1941961.0,108.0,174.0,14.0,86.0,1941.961
1941971.0,103.0,177.0,13.0,82.0,1941.971
1941981.0,98.0,181.0,18.0,80.0,1941.981
1941991.0,96.0,180.0,23.0,80.0,1941.991
1942001.0,93.0,183.0,25.0,76.0,1942.001
1942011.0,91.0,178.0,25.0,72.0,1942.011
1942021.0,92.0,176.0,23.0,70.0,1942.021
1942031.0,89.0,175.0,21.0,67.0,1942.031
1942041.0,87.0,177.0,22.0,65.0,1942.041
1942051.0,81.0,175.0,20.0,61.0,1942.051
1942061.0,80.0,175.0,22.0,62.0,1942.061
1942071.0,77.0,176.0,30.0,60.0,1942.071
1942081.0,76.0,169.0,31.0,57.0,1942.081
1942091.0,74.0,166.0,34.0,54.0,1942.091
1942102.0,71.0,164.0,39.0,59.0,1942.102
1942112.0,71.0,164.0,38.0,56.0,1942.112
1942122.0,69.0,166.0,37.0,54.0,1942.122
1942132.0,66.0,161.0,36.0,51.0,1942.132
1942142.0,63.0,158.0,42.0,49.0,1942.142
1942152.0,62.0,167.0,39.0,47.0,1942.152
1942162.0,61.0,158.0,40.0,48.0,1942.162
1942172.0,61.0,167.0,36.0,55.0,1942.172
1942182.0,61.0,162.0,39.0,54.0,1942.182
1942192.0,65.0,162.0,41.0,53.0,1942.192
1942202.0,61.0,154.0,40.0,56.0,1942.202
1942212.0,62.0,150.0,43.0,55.0,1942.212
1942222.0,61.0,147.0,45.0,52.0,1942.222
1942232.0,59.0,154.0,44.0,52.0,1942.232
1942242.0,61.0,148.0,41.0,54.0,1942.242
1942252.0,60.0,153.0,37.0,59.0,1942.252
1942262.0,61.0,150.0,38.0,61.0,1942.262
1942272.0,62.0,149.0,35.0,59.0,1942.272
1942282.0,60.0,147.0,37.0,60.0,1942.282
1942292.0,59.0,144.0,37.0,62.0,1942.292
1942302.0,58.0,144.0,37.0,64.0,1942.302
1942312.0,58.0,141.0,32.0,64.0,1942.312
1942322.0,60.0,147.0,28.0,68.0,1942.322
1942332.0,58.0,152.0,25.0,67.0,1942.332
1942342.0,58.0,145.0,23.0,70.0,1942.342
1942352.0,58.0,142.0,21.0,70.0,1942.352
1942362.0,59.0,144.0,19.0,73.0,1942.362
1942372.0,59.0,142.0,19.0,77.0,1942.372
1942382.0,59.0,146.0,18.0,77.0,1942.382
1942392.0,61.0,142.0,16.0,76.0,1942.392
1942402.0,61.0,139.0,15.0,76.0,1942.402
1942412.0,62.0,139.0,14.0,77.0,1942.412
1942422.0,62.0,136.0,14.0,79.0,1942.422
1942432.0,62.0,135.0,13.0,86.0,1942.432
1942443.0,62.0,141.0,13.0,89.0,1942.443
1942453.0,64.0,141.0,11.0,93.0,1942.453
1942463.0,65.0,135.0,14.0,92.0,1942.463
1942473.0,68.0,134.0,12.0,96.0,1942.473
1942483.0,68.0,136.0,13.0,97.0,1942.483
1942493.0,68.0,134.0,12.0,97.0,1942.493
1942503.0,66.0,130.0,12.0,100.0,1942.503
1942513.0,68.0,129.0,12.0,105.0,1942.513
1942523.0,67.0,127.0,11.0,109.0,1942.523
1942533.0,67.0,128.0,11.0,110.0,1942.533
1942543.0,69.0,125.0,9.0,112.0,1942.543
1942553.0,67.0,125.0,9.0,121.0,1942.553
1942563.0,69.0,126.0,9.0,123.0,1942.563
1942573.0,66.0,125.0,9.0,122.0,1942.573
1942583.0,67.0,122.0,9.0,127.0,1942.583
1942593.0,65.0,122.0,9.0,127.0,1942.593
1942603.0,62.0,118.0,9.0,132.0,1942.603
1942614.0,61.0,114.0,9.0,136.0,1942.614
1942624.0,60.0,115.0,8.0,145.0,1942.624
1942634.0,60.0,110.0,9.0,149.0,1942.634
1942644.0,59.0,109.0,10.0,163.0,1942.644
1942654.0,59.0,103.0,11.0,164.0,1942.654
1942664.0,57.0,99.0,10.0,169.0,1942.664
1942674.0,55.0,95.0,9.0,176.0,1942.674
1942684.0,53.0,90.0,8.0,186.0,1942.684
1942694.0,53.0,86.0,7.0,192.0,1942.694
1942704.0,53.0,90.0,7.0,200.0,1942.704
1942714.0,54.0,86.0,7.0,210.0,1942.714
1942724.0,54.0,82.0,8.0,219.0,1942.724
1942734.0,55.0,81.0,11.0,218.0,1942.734
1942744.0,57.0,88.0,11.0,221.0,1942.744
1942754.0,58.0,82.0,10.0,215.0,1942.754
1942764.0,59.0,78.0,9.0,216.0,1942.764
1942774.0,57.0,76.0,9.0,220.0,1942.774
1942784.0,57.0,73.0,9.0,223.0,1942.784
1942794.0,58.0,71.0,8.0,223.0,1942.794
1942804.0,56.0,69.0,7.0,222.0,1942.804
1942814.0,55.0,68.0,10.0,219.0,1942.814
1942824.0,56.0,65.0,9.0,218.0,1942.824
1942834.0,55.0,67.0,9.0,220.0,1942.834
1942844.0,55.0,66.0,7.0,214.0,1942.844
1942854.0,54.0,64.0,8.0,209.0,1942.854
1942864.0,56.0,64.0,7.0,203.0,1942.864
1942874.0,54.0,69.0,6.0,199.0,1942.874
1942884.0,53.0,65.0,6.0,193.0,1942.884
1942894.0,51.0,64.0,7.0,192.0,1942.894
1942904.0,51.0,60.0,6.0,189.0,1942.904
1942914.0,50.0,58.0,7.0,182.0,1942.914
1942924.0,49.0,56.0,7.0,174.0,1942.924
1942934.0,49.0,55.0,7.0,171.0,1942.934
1942944.0,47.0,53.0,6.0,169.0,1942.944
1942955.0,47.0,53.0,5.0,166.0,1942.955
1942965.0,47.0,52.0,6.0,161.0,1942.965
1942975.0,47.0,57.0,5.0,160.0,1942.975
1942985.0,47.0,56.0,13.0,159.0,1942.985
1942995.0,46.0,57.0,12.0,157.0,1942.995
1943005.0,47.0,62.0,12.0,150.0,1943.005
1943015.0,49.0,58.0,10.0,148.0,1943.015
1943025.0,49.0,56.0,9.0,147.0,1943.025
1943035.0,48.0,54.0,9.0,143.0,1943.035
1943045.0,48.0,54.0,9.0,145.0,1943.045
1943055.0,49.0,50.0,8.0,137.0,1943.055
1943065.0,52.0,50.0,8.0,140.0,1943.065
1943075.0,51.0,49.0,9.0,136.0,1943.075
1943085.0,51.0,50.0,8.0,136.0,1943.085
1943095.0,52.0,56.0,6.0,137.0,1943.095
1943105.0,50.0,54.0,6.0,133.0,1943.105
1943115.0,49.0,54.0,6.0,134.0,1943.115
1943126.0,50.0,51.0,6.0,130.0,1943.126
1943136.0,51.0,50.0,6.0,133.0,1943.136
1943146.0,52.0,50.0,13.0,133.0,1943.146
1943156.0,53.0,56.0,13.0,126.0,1943.156
1943166.0,54.0,56.0,12.0,124.0,1943.166
1943176.0,54.0,53.0,10.0,120.0,1943.176
1943186.0,55.0,52.0,10.0,119.0,1943.186
1943196.0,56.0,52.0,9.0,118.0,1943.196
1943206.0,58.0,50.0,9.0,113.0,1943.206
1943216.0,61.0,50.0,8.0,112.0,1943.216
1943226.0,61.0,57.0,8.0,111.0,1943.226
1943236.0,63.0,57.0,7.0,113.0,1943.236
1943246.0,64.0,55.0,11.0,111.0,1943.246
1943256.0,65.0,52.0,10.0,105.0,1943.256
1943266.0,68.0,54.0,10.0,103.0,1943.266
1943276.0,69.0,50.0,9.0,100.0,1943.276
1943286.0,73.0,51.0,8.0,100.0,1943.286
1943296.0,73.0,50.0,8.0,97.0,1943.296
1943306.0,75.0,49.0,8.0,93.0,1943.306
1943316.0,76.0,50.0,6.0,92.0,1943.316
1943326.0,78.0,50.0,6.0,91.0,1943.326
1943336.0,79.0,53.0,6.0,93.0,1943.336
1943346.0,81.0,60.0,7.0,94.0,1943.346
1943356.0,83.0,60.0,6.0,91.0,1943.356
1943366.0,85.0,61.0,7.0,94.0,1943.366
1943376.0,87.0,62.0,8.0,95.0,1943.376
1943386.0,87.0,63.0,8.0,98.0,1943.386
1943396.0,88.0,63.0,7.0,95.0,1943.396
1943406.0,90.0,63.0,7.0,93.0,1943.406
1943416.0,93.0,65.0,7.0,92.0,1943.416
1943426.0,93.0,62.0,7.0,90.0,1943.426
1943436.0,96.0,60.0,7.0,90.0,1943.436
1943446.0,96.0,58.0,6.0,93.0,1943.446
1943456.0,98.0,63.0,5.0,93.0,1943.456
1943467.0,98.0,60.0,6.0,98.0,1943.467
1943477.0,99.0,59.0,6.0,95.0,1943.477
1943487.0,99.0,58.0,6.0,95.0,1943.487
1943497.0,101.0,58.0,5.0,94.0,1943.497
1943507.0,102.0,56.0,5.0,94.0,1943.507
1943517.0,104.0,57.0,5.0,94.0,1943.517
1943527.0,105.0,56.0,6.0,99.0,1943.527
1943537.0,106.0,57.0,6.0,102.0,1943.537
1943547.0,104.0,55.0,6.0,104.0,1943.547
1943557.0,106.0,61.0,6.0,105.0,1943.557
1943567.0,107.0,62.0,5.0,108.0,1943.567
1943577.0,108.0,58.0,7.0,106.0,1943.577
1943587.0,108.0,57.0,5.0,106.0,1943.587
1943597.0,108.0,55.0,6.0,105.0,1943.597
1943607.0,109.0,55.0,6.0,107.0,1943.607
1943617.0,108.0,56.0,5.0,108.0,1943.617
1943627.0,112.0,59.0,5.0,114.0,1943.627
1943638.0,111.0,59.0,12.0,116.0,1943.638
1943648.0,118.0,61.0,21.0,120.0,1943.648
1943658.0,114.0,62.0,42.0,117.0,1943.658
1943668.0,114.0,66.0,47.0,120.0,1943.668
1943678.0,137.0,74.0,76.0,147.0,1943.678
1943688.0,132.0,79.0,80.0,150.0,1943.688
1943698.0,135.0,93.0,143.0,226.0,1943.698
1943708.0,135.0,97.0,129.0,241.0,1943.708
1943718.0,138.0,98.0,121.0,258.0,1943.718
1943728.0,141.0,97.0,120.0,276.0,1943.728
1943738.0,146.0,94.0,111.0,276.0,1943.738
1943748.0,147.0,95.0,103.0,312.0,1943.748
1943758.0,154.0,92.0,103.0,299.0,1943.758
1943768.0,147.0,96.0,115.0,285.0,1943.768
1943778.0,137.0,108.0,105.0,277.0,1943.778
1943788.0,128.0,111.0,110.0,266.0,1943.788
1943798.0,122.0,114.0,103.0,278.0,1943.798
1943808.0,114.0,114.0,105.0,272.0,1943.808
1943818.0,109.0,114.0,105.0,282.0,1943.818
1943828.0,112.0,116.0,172.0,332.0,1943.828
1943838.0,112.0,134.0,160.0,341.0,1943.838
1943848.0,110.0,137.0,150.0,353.0,1943.848
1943858.0,106.0,145.0,149.0,361.0,1943.858
1943868.0,103.0,146.0,150.0,362.0,1943.868
1943878.0,102.0,150.0,163.0,368.0,1943.878
1943888.0,99.0,159.0,140.0,353.0,1943.888
1943898.0,96.0,162.0,137.0,343.0,1943.898
1943908.0,91.0,165.0,118.0,321.0,1943.908
1943918.0,87.0,167.0,105.0,304.0,1943.918
1943928.0,85.0,171.0,103.0,279.0,1943.928
1943938.0,83.0,171.0,112.0,266.0,1943.938
1943948.0,84.0,173.0,120.0,258.0,1943.948
1943958.0,92.0,180.0,119.0,256.0,1943.958
1943968.0,87.0,181.0,107.0,283.0,1943.968
1943979.0,86.0,183.0,95.0,284.0,1943.979
1943989.0,83.0,185.0,83.0,283.0,1943.989
1943999.0,81.0,185.0,73.0,265.0,1943.999
1944009.0,78.0,184.0,82.0,271.0,1944.009
1944019.0,79.0,186.0,82.0,272.0,1944.019
1944029.0,77.0,187.0,73.0,249.0,1944.029
1944039.0,75.0,189.0,65.0,239.0,1944.039
1944049.0,74.0,186.0,60.0,267.0,1944.049
1944059.0,72.0,184.0,53.0,263.0,1944.059
1944069.0,73.0,182.0,56.0,257.0,1944.069
1944079.0,73.0,182.0,68.0,252.0,1944.079
1944089.0,74.0,182.0,70.0,256.0,1944.089
1944099.0,73.0,180.0,63.0,250.0,1944.099
1944109.0,73.0,178.0,55.0,244.0,1944.109
1944119.0,71.0,176.0,48.0,222.0,1944.119
1944129.0,68.0,174.0,43.0,203.0,1944.129
1944139.0,66.0,171.0,39.0,214.0,1944.139
1944150.0,64.0,167.0,49.0,213.0,1944.15
1944160.0,63.0,166.0,50.0,200.0,1944.16
1944170.0,63.0,166.0,47.0,196.0,1944.17
1944180.0,61.0,165.0,41.0,190.0,1944.18
1944190.0,60.0,161.0,39.0,189.0,1944.19
1944200.0,60.0,159.0,38.0,190.0,1944.2
1944210.0,58.0,158.0,33.0,183.0,1944.21
1944220.0,57.0,153.0,39.0,180.0,1944.22
1944230.0,57.0,152.0,46.0,181.0,1944.23
1944240.0,55.0,152.0,40.0,173.0,1944.24
1944250.0,54.0,150.0,41.0,169.0,1944.25
1944260.0,53.0,148.0,38.0,168.0,1944.26
1944270.0,55.0,147.0,35.0,164.0,1944.27
1944280.0,53.0,142.0,30.0,162.0,1944.28
1944290.0,52.0,141.0,28.0,162.0,1944.29
1944300.0,50.0,139.0,31.0,163.0,1944.3
1944310.0,50.0,137.0,39.0,162.0,1944.31
1944320.0,52.0,137.0,41.0,159.0,1944.32
1944330.0,51.0,134.0,37.0,153.0,1944.33
1944340.0,51.0,132.0,36.0,162.0,1944.34
1944350.0,52.0,131.0,33.0,163.0,1944.35
1944360.0,50.0,129.0,29.0,169.0,1944.36
1944370.0,51.0,126.0,28.0,155.0,1944.37
1944380.0,51.0,126.0,37.0,155.0,1944.38
1944390.0,51.0,125.0,34.0,149.0,1944.39
1944400.0,50.0,122.0,30.0,146.0,1944.4
1944410.0,49.0,120.0,28.0,138.0,1944.41
1944420.0,49.0,118.0,29.0,139.0,1944.42
1944430.0,48.0,116.0,26.0,141.0,1944.43
1944440.0,47.0,114.0,27.0,129.0,1944.44
1944450.0,48.0,112.0,24.0,134.0,1944.45
1944460.0,48.0,110.0,24.0,126.0,1944.46
1944470.0,47.0,108.0,27.0,129.0,1944.47
1944480.0,46.0,105.0,34.0,122.0,1944.48
1944491.0,46.0,105.0,32.0,119.0,1944.491
1944501.0,47.0,104.0,30.0,144.0,1944.501
1944511.0,45.0,100.0,29.0,143.0,1944.511
1944521.0,45.0,96.0,29.0,143.0,1944.521
1944531.0,45.0,95.0,30.0,143.0,1944.531
1944541.0,46.0,94.0,31.0,156.0,1944.541
1944551.0,48.0,90.0,38.0,151.0,1944.551
1944561.0,49.0,89.0,47.0,155.0,1944.561
1944571.0,50.0,87.0,42.0,151.0,1944.571
1944581.0,50.0,85.0,39.0,157.0,1944.581
1944591.0,48.0,80.0,38.0,155.0,1944.591
1944601.0,48.0,78.0,34.0,165.0,1944.601
1944611.0,47.0,74.0,33.0,164.0,1944.611
1944621.0,46.0,71.0,29.0,156.0,1944.621
1944631.0,45.0,68.0,29.0,144.0,1944.631
1944641.0,47.0,69.0,32.0,144.0,1944.641
1944651.0,49.0,70.0,42.0,155.0,1944.651
1944662.0,49.0,70.0,38.0,157.0,1944.662
1944672.0,49.0,68.0,33.0,145.0,1944.672
1944682.0,48.0,67.0,31.0,140.0,1944.682
1944692.0,46.0,64.0,28.0,138.0,1944.692
1944702.0,46.0,63.0,25.0,153.0,1944.702
1944712.0,45.0,61.0,26.0,147.0,1944.712
1944722.0,45.0,57.0,22.0,148.0,1944.722
1944732.0,44.0,55.0,20.0,155.0,1944.732
1944742.0,45.0,52.0,23.0,152.0,1944.742
1944752.0,46.0,54.0,33.0,171.0,1944.752
1944762.0,47.0,52.0,43.0,168.0,1944.762
1944772.0,47.0,52.0,39.0,173.0,1944.772
1944782.0,46.0,50.0,33.0,164.0,1944.782
1944792.0,47.0,48.0,39.0,157.0,1944.792
1944802.0,47.0,47.0,34.0,167.0,1944.802
1944812.0,47.0,46.0,31.0,165.0,1944.812
1944822.0,46.0,45.0,32.0,156.0,1944.822
1944832.0,46.0,45.0,29.0,144.0,1944.832
1944842.0,45.0,42.0,28.0,146.0,1944.842
1944852.0,45.0,42.0,24.0,149.0,1944.852
1944862.0,47.0,46.0,33.0,147.0,1944.862
1944872.0,49.0,47.0,31.0,157.0,1944.872
1944882.0,47.0,46.0,30.0,155.0,1944.882
1944892.0,47.0,45.0,30.0,156.0,1944.892
1944902.0,48.0,45.0,27.0,158.0,1944.902
1944912.0,47.0,44.0,25.0,150.0,1944.912
1944922.0,48.0,43.0,22.0,145.0,1944.922
1944932.0,48.0,44.0,23.0,134.0,1944.932
1944942.0,48.0,42.0,21.0,137.0,1944.942
1944952.0,47.0,42.0,18.0,133.0,1944.952
1944962.0,48.0,45.0,20.0,129.0,1944.962
1944972.0,47.0,43.0,19.0,124.0,1944.972
1944982.0,47.0,46.0,24.0,126.0,1944.982
1944992.0,47.0,44.0,25.0,128.0,1944.992
1945003.0,48.0,45.0,23.0,123.0,1945.003
1945013.0,47.0,45.0,20.0,123.0,1945.013
1945023.0,46.0,46.0,19.0,133.0,1945.023
1945033.0,46.0,46.0,17.0,127.0,1945.033
1945043.0,46.0,47.0,16.0,121.0,1945.043
1945053.0,47.0,51.0,14.0,114.0,1945.053
1945063.0,47.0,50.0,14.0,120.0,1945.063
1945073.0,46.0,50.0,12.0,122.0,1945.073
1945083.0,45.0,51.0,12.0,117.0,1945.083
1945093.0,46.0,50.0,11.0,111.0,1945.093
1945103.0,46.0,53.0,10.0,112.0,1945.103
1945113.0,47.0,55.0,23.0,122.0,1945.113
1945123.0,48.0,55.0,30.0,125.0,1945.123
1945133.0,47.0,54.0,26.0,122.0,1945.133
1945143.0,47.0,53.0,25.0,116.0,1945.143
1945153.0,47.0,52.0,22.0,118.0,1945.153
1945163.0,48.0,54.0,23.0,123.0,1945.163
1945174.0,48.0,54.0,20.0,127.0,1945.174
1945184.0,48.0,54.0,19.0,133.0,1945.184
1945194.0,49.0,56.0,17.0,134.0,1945.194
1945204.0,48.0,55.0,15.0,124.0,1945.204
1945214.0,47.0,54.0,16.0,119.0,1945.214
1945224.0,47.0,54.0,15.0,116.0,1945.224
1945234.0,47.0,53.0,18.0,122.0,1945.234
1945244.0,48.0,53.0,17.0,122.0,1945.244
1945254.0,46.0,53.0,16.0,125.0,1945.254
1945264.0,46.0,53.0,17.0,125.0,1945.264
1945274.0,46.0,53.0,17.0,126.0,1945.274
1945284.0,46.0,53.0,18.0,129.0,1945.284
1945294.0,45.0,54.0,17.0,127.0,1945.294
1945304.0,45.0,54.0,15.0,118.0,1945.304
1945314.0,45.0,54.0,19.0,125.0,1945.314
1945324.0,45.0,56.0,17.0,121.0,1945.324
1945334.0,46.0,54.0,17.0,120.0,1945.334
1945344.0,46.0,55.0,17.0,123.0,1945.344
1945354.0,45.0,57.0,15.0,120.0,1945.354
1945364.0,45.0,56.0,14.0,114.0,1945.364
1945374.0,44.0,55.0,12.0,112.0,1945.374
1945384.0,45.0,55.0,13.0,115.0,1945.384
1945394.0,44.0,55.0,11.0,119.0,1945.394
1945404.0,44.0,55.0,10.0,115.0,1945.404
1945414.0,45.0,56.0,15.0,115.0,1945.414
1945424.0,44.0,57.0,16.0,113.0,1945.424
1945434.0,44.0,53.0,14.0,110.0,1945.434
1945444.0,44.0,53.0,14.0,108.0,1945.444
1945454.0,45.0,53.0,19.0,101.0,1945.454
1945464.0,46.0,51.0,18.0,109.0,1945.464
1945474.0,44.0,53.0,22.0,117.0,1945.474
1945484.0,44.0,52.0,20.0,117.0,1945.484
1945494.0,44.0,54.0,22.0,134.0,1945.494
1945504.0,44.0,53.0,21.0,163.0,1945.504
1945515.0,44.0,52.0,18.0,156.0,1945.515
1945525.0,44.0,52.0,17.0,141.0,1945.525
1945535.0,45.0,53.0,16.0,138.0,1945.535
1945545.0,46.0,55.0,12.0,137.0,1945.545
1945555.0,45.0,55.0,13.0,137.0,1945.555
1945565.0,47.0,57.0,20.0,134.0,1945.565
1945575.0,46.0,56.0,18.0,137.0,1945.575
1945585.0,46.0,56.0,18.0,128.0,1945.585
1945595.0,45.0,57.0,17.0,132.0,1945.595
1945605.0,45.0,58.0,16.0,136.0,1945.605
1945615.0,45.0,60.0,15.0,132.0,1945.615
1945625.0,44.0,60.0,13.0,128.0,1945.625
1945635.0,45.0,61.0,12.0,123.0,1945.635
1945645.0,45.0,64.0,19.0,131.0,1945.645
1945655.0,44.0,63.0,27.0,128.0,1945.655
1945665.0,45.0,62.0,24.0,120.0,1945.665
1945675.0,44.0,63.0,25.0,125.0,1945.675
1945686.0,45.0,66.0,31.0,125.0,1945.686
1945696.0,45.0,64.0,29.0,117.0,1945.696
1945706.0,45.0,65.0,26.0,114.0,1945.706
1945716.0,44.0,67.0,24.0,105.0,1945.716
1945726.0,46.0,67.0,26.0,112.0,1945.726
1945736.0,46.0,66.0,23.0,112.0,1945.736
1945746.0,46.0,67.0,21.0,111.0,1945.746
1945756.0,48.0,67.0,26.0,110.0,1945.756
1945766.0,48.0,67.0,22.0,110.0,1945.766
1945776.0,48.0,68.0,23.0,109.0,1945.776
1945786.0,48.0,68.0,23.0,118.0,1945.786
1945796.0,49.0,70.0,22.0,118.0,1945.796
1945806.0,50.0,69.0,20.0,110.0,1945.806
1945816.0,51.0,70.0,17.0,111.0,1945.816
1945826.0,51.0,69.0,17.0,110.0,1945.826
1945836.0,52.0,70.0,16.0,115.0,1945.836
1945846.0,50.0,70.0,14.0,116.0,1945.846
1945856.0,50.0,69.0,13.0,119.0,1945.856
1945866.0,49.0,70.0,13.0,114.0,1945.866
1945876.0,51.0,70.0,12.0,116.0,1945.876
1945886.0,50.0,70.0,14.0,117.0,1945.886
1945896.0,49.0,70.0,12.0,116.0,1945.896
1945906.0,49.0,69.0,12.0,114.0,1945.906
1945916.0,49.0,70.0,10.0,114.0,1945.916
1945926.0,48.0,70.0,10.0,126.0,1945.926
1945936.0,49.0,71.0,10.0,127.0,1945.936
1945946.0,48.0,70.0,11.0,138.0,1945.946
1945956.0,50.0,70.0,16.0,132.0,1945.956
1945966.0,49.0,69.0,16.0,132.0,1945.966
1945976.0,49.0,67.0,15.0,131.0,1945.976
1945986.0,51.0,69.0,14.0,131.0,1945.986
1945996.0,49.0,68.0,12.0,127.0,1945.996
1946006.0,49.0,68.0,14.0,129.0,1946.006
1946016.0,49.0,69.0,11.0,132.0,1946.016
1946027.0,49.0,67.0,12.0,132.0,1946.027
1946037.0,48.0,66.0,11.0,127.0,1946.037
1946047.0,48.0,68.0,13.0,138.0,1946.047
1946057.0,49.0,69.0,14.0,139.0,1946.057
1946067.0,48.0,71.0,12.0,137.0,1946.067
1946077.0,48.0,70.0,14.0,128.0,1946.077
1946087.0,47.0,72.0,12.0,125.0,1946.087
1946097.0,46.0,74.0,11.0,120.0,1946.097
1946107.0,46.0,75.0,11.0,116.0,1946.107
1946117.0,45.0,76.0,10.0,125.0,1946.117
1946127.0,45.0,78.0,12.0,119.0,1946.127
1946137.0,46.0,79.0,14.0,114.0,1946.137
1946147.0,46.0,79.0,12.0,116.0,1946.147
1946157.0,47.0,79.0,14.0,116.0,1946.157
1946167.0,46.0,80.0,14.0,109.0,1946.167
1946177.0,45.0,79.0,14.0,107.0,1946.177
1946187.0,45.0,78.0,12.0,109.0,1946.187
1946198.0,44.0,77.0,12.0,103.0,1946.198
1946208.0,45.0,74.0,11.0,105.0,1946.208
1946218.0,43.0,73.0,10.0,107.0,1946.218
1946228.0,44.0,73.0,9.0,102.0,1946.228
1946238.0,44.0,73.0,9.0,108.0,1946.238
1946248.0,44.0,72.0,11.0,102.0,1946.248
1946258.0,44.0,70.0,12.0,102.0,1946.258
1946268.0,44.0,68.0,11.0,108.0,1946.268
1946278.0,44.0,67.0,13.0,110.0,1946.278
1946288.0,43.0,66.0,10.0,106.0,1946.288
1946298.0,44.0,64.0,11.0,100.0,1946.298
1946308.0,43.0,63.0,15.0,95.0,1946.308
1946318.0,44.0,61.0,13.0,93.0,1946.318
1946328.0,45.0,60.0,12.0,89.0,1946.328
1946338.0,44.0,58.0,12.0,85.0,1946.338
1946348.0,45.0,59.0,13.0,84.0,1946.348
1946358.0,45.0,57.0,12.0,97.0,1946.358
1946368.0,46.0,56.0,11.0,121.0,1946.368
1946378.0,45.0,57.0,15.0,113.0,1946.378
1946388.0,45.0,56.0,13.0,108.0,1946.388
1946398.0,45.0,54.0,18.0,110.0,1946.398
1946408.0,46.0,53.0,17.0,118.0,1946.408
1946418.0,46.0,52.0,19.0,125.0,1946.418
1946428.0,48.0,51.0,19.0,120.0,1946.428
1946438.0,46.0,51.0,18.0,118.0,1946.438
1946448.0,47.0,49.0,19.0,110.0,1946.448
1946458.0,47.0,49.0,18.0,114.0,1946.458
1946468.0,48.0,50.0,18.0,109.0,1946.468
1946478.0,48.0,48.0,17.0,107.0,1946.478
1946488.0,49.0,48.0,15.0,100.0,1946.488
1946498.0,48.0,49.0,17.0,102.0,1946.498
1946508.0,48.0,48.0,19.0,111.0,1946.508
1946518.0,48.0,47.0,20.0,119.0,1946.518
1946528.0,48.0,45.0,20.0,115.0,1946.528
1946539.0,48.0,46.0,17.0,117.0,1946.539
1946549.0,49.0,44.0,19.0,112.0,1946.549
1946559.0,50.0,44.0,16.0,114.0,1946.559
1946569.0,49.0,44.0,16.0,113.0,1946.569
1946579.0,50.0,44.0,16.0,107.0,1946.579
1946589.0,50.0,43.0,14.0,105.0,1946.589
1946599.0,51.0,41.0,14.0,115.0,1946.599
1946609.0,53.0,44.0,14.0,127.0,1946.609
1946619.0,53.0,42.0,14.0,122.0,1946.619
1946629.0,55.0,40.0,12.0,130.0,1946.629
1946639.0,56.0,41.0,11.0,128.0,1946.639
1946649.0,57.0,41.0,11.0,127.0,1946.649
1946659.0,53.0,41.0,8.0,117.0,1946.659
1946669.0,54.0,40.0,8.0,107.0,1946.669
1946679.0,53.0,41.0,8.0,96.0,1946.679
1946689.0,52.0,41.0,7.0,88.0,1946.689
1946699.0,52.0,39.0,7.0,82.0,1946.699
1946710.0,51.0,39.0,5.0,93.0,1946.71
1946720.0,51.0,39.0,8.0,99.0,1946.72
1946730.0,50.0,41.0,19.0,106.0,1946.73
1946740.0,51.0,41.0,16.0,108.0,1946.74
1946750.0,52.0,41.0,17.0,112.0,1946.75
1946760.0,52.0,42.0,17.0,127.0,1946.76
1946770.0,53.0,40.0,16.0,122.0,1946.77
1946780.0,55.0,39.0,14.0,111.0,1946.78
1946790.0,56.0,39.0,13.0,109.0,1946.79
1946800.0,56.0,39.0,12.0,109.0,1946.8
1946810.0,54.0,38.0,10.0,101.0,1946.81
1946820.0,52.0,37.0,10.0,96.0,1946.82
1946830.0,51.0,37.0,10.0,92.0,1946.83
1946840.0,51.0,38.0,9.0,86.0,1946.84
1946850.0,52.0,38.0,10.0,82.0,1946.85
1946860.0,52.0,37.0,13.0,88.0,1946.86
1946870.0,53.0,36.0,15.0,101.0,1946.87
1946880.0,54.0,36.0,13.0,105.0,1946.88
1946890.0,54.0,37.0,12.0,103.0,1946.89
1946900.0,55.0,37.0,11.0,100.0,1946.9
1946910.0,54.0,39.0,11.0,98.0,1946.91
1946920.0,55.0,38.0,11.0,103.0,1946.92
1946930.0,55.0,39.0,9.0,99.0,1946.93
1946940.0,56.0,40.0,10.0,98.0,1946.94
1946950.0,57.0,40.0,9.0,102.0,1946.95
1946960.0,56.0,42.0,9.0,110.0,1946.96
1946970.0,56.0,42.0,9.0,107.0,1946.97
1946980.0,55.0,43.0,10.0,104.0,1946.98
1946990.0,56.0,44.0,10.0,104.0,1946.99
1947000.0,57.0,44.0,9.0,97.0,1947.0
1947010.0,58.0,45.0,8.0,96.0,1947.01
1947020.0,61.0,47.0,9.0,96.0,1947.02
1947030.0,60.0,48.0,10.0,105.0,1947.03
1947040.0,60.0,51.0,9.0,104.0,1947.04
1947051.0,60.0,52.0,13.0,112.0,1947.051
1947061.0,61.0,54.0,11.0,113.0,1947.061
1947071.0,62.0,54.0,11.0,106.0,1947.071
1947081.0,64.0,56.0,10.0,115.0,1947.081
1947091.0,64.0,57.0,10.0,106.0,1947.091
1947101.0,62.0,56.0,9.0,104.0,1947.101
1947111.0,63.0,57.0,6.0,100.0,1947.111
1947121.0,65.0,57.0,7.0,97.0,1947.121
1947131.0,64.0,61.0,8.0,97.0,1947.131
1947141.0,63.0,61.0,8.0,88.0,1947.141
1947151.0,63.0,60.0,7.0,84.0,1947.151
1947161.0,63.0,63.0,7.0,90.0,1947.161
1947171.0,65.0,63.0,7.0,91.0,1947.171
1947181.0,62.0,63.0,5.0,94.0,1947.181
1947191.0,62.0,64.0,7.0,91.0,1947.191
1947201.0,60.0,64.0,7.0,87.0,1947.201
1947211.0,59.0,64.0,6.0,94.0,1947.211
1947222.0,61.0,64.0,6.0,87.0,1947.222
1947232.0,60.0,62.0,5.0,91.0,1947.232
1947242.0,60.0,63.0,12.0,88.0,1947.242
1947252.0,60.0,63.0,9.0,98.0,1947.252
1947262.0,61.0,64.0,8.0,109.0,1947.262
1947272.0,62.0,64.0,8.0,103.0,1947.272
1947282.0,62.0,64.0,8.0,106.0,1947.282
1947292.0,62.0,64.0,7.0,98.0,1947.292
1947302.0,62.0,64.0,7.0,111.0,1947.302
1947312.0,62.0,63.0,7.0,113.0,1947.312
1947322.0,63.0,63.0,8.0,111.0,1947.322
1947332.0,63.0,64.0,6.0,119.0,1947.332
1947342.0,64.0,64.0,7.0,110.0,1947.342
1947352.0,64.0,66.0,10.0,126.0,1947.352
1947362.0,64.0,64.0,9.0,122.0,1947.362
1947372.0,65.0,63.0,8.0,112.0,1947.372
1947382.0,64.0,64.0,7.0,115.0,1947.382
1947392.0,64.0,66.0,8.0,110.0,1947.392
1947402.0,64.0,66.0,9.0,129.0,1947.402
1947412.0,62.0,65.0,8.0,120.0,1947.412
1947422.0,61.0,65.0,8.0,116.0,1947.422
1947432.0,61.0,66.0,8.0,114.0,1947.432
1947442.0,60.0,66.0,8.0,110.0,1947.442
1947452.0,61.0,66.0,8.0,108.0,1947.452
1947462.0,61.0,66.0,8.0,105.0,1947.462
1947472.0,61.0,67.0,10.0,109.0,1947.472
1947482.0,60.0,67.0,10.0,115.0,1947.482
1947492.0,60.0,68.0,12.0,111.0,1947.492
1947502.0,59.0,69.0,14.0,114.0,1947.502
1947512.0,60.0,70.0,13.0,107.0,1947.512
1947522.0,58.0,70.0,12.0,110.0,1947.522
1947532.0,57.0,69.0,12.0,105.0,1947.532
1947542.0,59.0,69.0,16.0,109.0,1947.542
1947552.0,60.0,70.0,12.0,119.0,1947.552
1947563.0,61.0,69.0,12.0,118.0,1947.563
1947573.0,63.0,70.0,12.0,111.0,1947.573
1947583.0,63.0,70.0,10.0,101.0,1947.583
1947593.0,63.0,68.0,9.0,102.0,1947.593
1947603.0,63.0,68.0,12.0,115.0,1947.603
1947613.0,62.0,66.0,14.0,114.0,1947.613
1947623.0,64.0,66.0,12.0,111.0,1947.623
1947633.0,64.0,65.0,10.0,105.0,1947.633
1947643.0,63.0,64.0,11.0,107.0,1947.643
1947653.0,63.0,64.0,10.0,108.0,1947.653
1947663.0,64.0,63.0,10.0,106.0,1947.663
1947673.0,65.0,64.0,11.0,108.0,1947.673
1947683.0,65.0,64.0,12.0,101.0,1947.683
1947693.0,68.0,65.0,12.0,107.0,1947.693
1947703.0,66.0,65.0,10.0,107.0,1947.703
1947713.0,68.0,64.0,11.0,109.0,1947.713
1947723.0,68.0,64.0,11.0,101.0,1947.723
1947734.0,67.0,62.0,11.0,98.0,1947.734
1947744.0,67.0,59.0,10.0,100.0,1947.744
1947754.0,67.0,59.0,13.0,116.0,1947.754
1947764.0,67.0,58.0,12.0,117.0,1947.764
1947774.0,68.0,58.0,11.0,110.0,1947.774
1947784.0,68.0,57.0,11.0,110.0,1947.784
1947794.0,68.0,57.0,10.0,105.0,1947.794
1947804.0,69.0,57.0,9.0,115.0,1947.804
1947814.0,69.0,56.0,10.0,106.0,1947.814
1947824.0,70.0,57.0,9.0,103.0,1947.824
1947834.0,70.0,56.0,9.0,96.0,1947.834
1947844.0,71.0,56.0,8.0,95.0,1947.844
1947854.0,70.0,56.0,7.0,95.0,1947.854
1947864.0,70.0,54.0,9.0,99.0,1947.864
1947874.0,69.0,54.0,8.0,102.0,1947.874
1947884.0,69.0,53.0,7.0,101.0,1947.884
1947894.0,69.0,52.0,7.0,95.0,1947.894
1947904.0,68.0,52.0,7.0,92.0,1947.904
1947914.0,70.0,52.0,7.0,87.0,1947.914
1947924.0,69.0,52.0,6.0,105.0,1947.924
1947934.0,71.0,52.0,6.0,103.0,1947.934
1947944.0,71.0,51.0,7.0,108.0,1947.944
1947954.0,72.0,52.0,8.0,114.0,1947.954
1947964.0,73.0,50.0,10.0,107.0,1947.964
1947974.0,73.0,49.0,11.0,102.0,1947.974
1947984.0,73.0,48.0,15.0,106.0,1947.984
1947994.0,75.0,48.0,14.0,104.0,1947.994
1948004.0,74.0,47.0,12.0,108.0,1948.004
1948014.0,73.0,47.0,11.0,115.0,1948.014
1948024.0,73.0,47.0,11.0,105.0,1948.024
1948034.0,74.0,46.0,11.0,104.0,1948.034
1948044.0,73.0,46.0,11.0,111.0,1948.044
1948054.0,73.0,46.0,13.0,128.0,1948.054
1948064.0,74.0,45.0,14.0,121.0,1948.064
1948075.0,72.0,44.0,12.0,113.0,1948.075
1948085.0,72.0,43.0,11.0,108.0,1948.085
1948095.0,70.0,44.0,11.0,107.0,1948.095
1948105.0,70.0,42.0,10.0,101.0,1948.105
1948115.0,70.0,42.0,12.0,99.0,1948.115
1948125.0,71.0,42.0,11.0,96.0,1948.125
1948135.0,72.0,42.0,11.0,92.0,1948.135
1948145.0,72.0,42.0,16.0,94.0,1948.145
1948155.0,73.0,42.0,15.0,98.0,1948.155
1948165.0,74.0,41.0,14.0,95.0,1948.165
1948175.0,75.0,40.0,13.0,96.0,1948.175
1948185.0,75.0,38.0,11.0,94.0,1948.185
1948195.0,75.0,39.0,10.0,94.0,1948.195
1948205.0,75.0,39.0,10.0,107.0,1948.205
1948215.0,75.0,39.0,9.0,99.0,1948.215
1948225.0,75.0,39.0,8.0,107.0,1948.225
1948235.0,76.0,40.0,12.0,111.0,1948.235
1948246.0,76.0,39.0,10.0,111.0,1948.246
1948256.0,75.0,38.0,9.0,116.0,1948.256
1948266.0,75.0,38.0,9.0,108.0,1948.266
1948276.0,75.0,37.0,8.0,104.0,1948.276
1948286.0,76.0,37.0,9.0,105.0,1948.286
1948296.0,74.0,38.0,8.0,111.0,1948.296
1948306.0,74.0,39.0,11.0,117.0,1948.306
1948316.0,74.0,37.0,9.0,113.0,1948.316
1948326.0,75.0,39.0,9.0,106.0,1948.326
1948336.0,77.0,38.0,9.0,102.0,1948.336
1948346.0,76.0,39.0,8.0,105.0,1948.346
1948356.0,77.0,39.0,8.0,109.0,1948.356
1948366.0,79.0,38.0,8.0,106.0,1948.366
1948376.0,78.0,39.0,6.0,107.0,1948.376
1948386.0,79.0,37.0,6.0,103.0,1948.386
1948396.0,78.0,40.0,6.0,96.0,1948.396
1948406.0,78.0,38.0,6.0,90.0,1948.406
1948416.0,79.0,39.0,5.0,85.0,1948.416
1948426.0,78.0,39.0,7.0,81.0,1948.426
1948436.0,79.0,40.0,10.0,78.0,1948.436
1948446.0,79.0,41.0,8.0,81.0,1948.446
1948456.0,79.0,41.0,10.0,92.0,1948.456
1948466.0,79.0,40.0,9.0,87.0,1948.466
1948476.0,78.0,41.0,12.0,90.0,1948.476
1948486.0,81.0,40.0,11.0,95.0,1948.486
1948496.0,81.0,40.0,9.0,93.0,1948.496
1948506.0,83.0,39.0,10.0,92.0,1948.506
1948516.0,85.0,39.0,8.0,94.0,1948.516
1948526.0,83.0,41.0,7.0,88.0,1948.526
1948536.0,84.0,40.0,8.0,82.0,1948.536
1948546.0,84.0,40.0,6.0,81.0,1948.546
1948556.0,85.0,38.0,10.0,84.0,1948.556
1948566.0,87.0,38.0,9.0,94.0,1948.566
1948576.0,89.0,37.0,9.0,95.0,1948.576
1948587.0,91.0,37.0,8.0,91.0,1948.587
1948597.0,90.0,36.0,6.0,99.0,1948.597
1948607.0,92.0,36.0,6.0,96.0,1948.607
1948617.0,92.0,37.0,8.0,105.0,1948.617
1948627.0,93.0,37.0,7.0,108.0,1948.627
1948637.0,95.0,38.0,7.0,102.0,1948.637
1948647.0,95.0,37.0,7.0,98.0,1948.647
1948657.0,96.0,37.0,9.0,99.0,1948.657
1948667.0,95.0,38.0,8.0,98.0,1948.667
1948677.0,97.0,37.0,8.0,95.0,1948.677
1948687.0,97.0,39.0,7.0,98.0,1948.687
1948697.0,94.0,39.0,7.0,97.0,1948.697
1948707.0,93.0,38.0,9.0,92.0,1948.707
1948717.0,92.0,40.0,9.0,95.0,1948.717
1948727.0,91.0,39.0,9.0,109.0,1948.727
1948737.0,91.0,40.0,8.0,104.0,1948.737
1948747.0,90.0,40.0,7.0,100.0,1948.747
1948758.0,89.0,41.0,6.0,93.0,1948.758
1948768.0,91.0,43.0,6.0,97.0,1948.768
1948778.0,91.0,42.0,7.0,105.0,1948.778
1948788.0,93.0,42.0,6.0,110.0,1948.788
1948798.0,99.0,45.0,9.0,105.0,1948.798
1948808.0,186.0,44.0,7.0,100.0,1948.808
1948818.0,198.0,45.0,6.0,93.0,1948.818
1948828.0,180.0,45.0,6.0,96.0,1948.828
1948838.0,164.0,46.0,6.0,110.0,1948.838
1948848.0,154.0,44.0,7.0,102.0,1948.848
1948858.0,149.0,44.0,12.0,104.0,1948.858
1948868.0,146.0,47.0,11.0,100.0,1948.868
1948878.0,143.0,46.0,11.0,102.0,1948.878
1948888.0,142.0,49.0,9.0,113.0,1948.888
1948898.0,138.0,50.0,8.0,116.0,1948.898
1948908.0,138.0,51.0,8.0,114.0,1948.908
1948918.0,136.0,52.0,8.0,107.0,1948.918
1948928.0,134.0,50.0,7.0,107.0,1948.928
1948938.0,134.0,51.0,8.0,136.0,1948.938
1948948.0,133.0,51.0,8.0,129.0,1948.948
1948958.0,133.0,51.0,8.0,127.0,1948.958
1948968.0,130.0,52.0,7.0,115.0,1948.968
1948978.0,130.0,51.0,8.0,114.0,1948.978
1948988.0,128.0,53.0,6.0,113.0,1948.988
1948998.0,127.0,52.0,7.0,112.0,1948.998
1949008.0,127.0,52.0,6.0,111.0,1949.008
1949018.0,126.0,52.0,6.0,106.0,1949.018
1949028.0,125.0,50.0,8.0,99.0,1949.028
1949038.0,123.0,49.0,7.0,94.0,1949.038
1949048.0,122.0,49.0,7.0,92.0,1949.048
1949058.0,121.0,49.0,9.0,87.0,1949.058
1949068.0,120.0,50.0,13.0,85.0,1949.068
1949078.0,120.0,49.0,12.0,87.0,1949.078
1949088.0,120.0,50.0,11.0,100.0,1949.088
1949099.0,117.0,48.0,11.0,98.0,1949.099
1949109.0,116.0,48.0,10.0,96.0,1949.109
1949119.0,113.0,47.0,8.0,91.0,1949.119
1949129.0,112.0,46.0,9.0,85.0,1949.129
1949139.0,111.0,47.0,11.0,82.0,1949.139
1949149.0,109.0,47.0,11.0,76.0,1949.149
1949159.0,108.0,46.0,9.0,89.0,1949.159
1949169.0,105.0,47.0,9.0,93.0,1949.169
1949179.0,104.0,47.0,8.0,92.0,1949.179
1949189.0,103.0,48.0,7.0,88.0,1949.189
1949199.0,102.0,48.0,7.0,87.0,1949.199
1949209.0,101.0,47.0,7.0,89.0,1949.209
1949219.0,101.0,47.0,11.0,88.0,1949.219
1949229.0,100.0,44.0,9.0,82.0,1949.229
1949239.0,99.0,44.0,9.0,90.0,1949.239
1949249.0,98.0,44.0,9.0,91.0,1949.249
1949259.0,97.0,43.0,11.0,94.0,1949.259
1949270.0,95.0,44.0,10.0,96.0,1949.27
1949280.0,92.0,43.0,10.0,91.0,1949.28
1949290.0,90.0,42.0,9.0,89.0,1949.29
1949300.0,89.0,40.0,10.0,86.0,1949.3
1949310.0,90.0,41.0,9.0,86.0,1949.31
1949320.0,89.0,41.0,9.0,86.0,1949.32
1949330.0,89.0,40.0,9.0,83.0,1949.33
1949340.0,86.0,40.0,7.0,86.0,1949.34
1949350.0,85.0,39.0,7.0,85.0,1949.35
1949360.0,84.0,39.0,6.0,86.0,1949.36
1949370.0,83.0,41.0,7.0,92.0,1949.37
1949380.0,83.0,40.0,7.0,89.0,1949.38
1949390.0,83.0,42.0,5.0,84.0,1949.39
1949400.0,82.0,42.0,6.0,82.0,1949.4
1949410.0,80.0,42.0,5.0,89.0,1949.41
1949420.0,80.0,44.0,6.0,95.0,1949.42
1949430.0,79.0,43.0,7.0,97.0,1949.43
1949440.0,80.0,45.0,6.0,93.0,1949.44
1949450.0,79.0,44.0,6.0,90.0,1949.45
1949460.0,80.0,44.0,5.0,98.0,1949.46
1949470.0,81.0,45.0,6.0,107.0,1949.47
1949480.0,79.0,43.0,6.0,108.0,1949.48
1949490.0,78.0,44.0,4.0,101.0,1949.49
1949500.0,78.0,42.0,5.0,95.0,1949.5
1949510.0,78.0,42.0,6.0,101.0,1949.51
1949520.0,78.0,40.0,6.0,110.0,1949.52
1949530.0,78.0,39.0,6.0,117.0,1949.53
1949540.0,77.0,39.0,5.0,110.0,1949.54
1949550.0,77.0,38.0,5.0,103.0,1949.55
1949560.0,76.0,37.0,4.0,102.0,1949.56
1949570.0,76.0,38.0,6.0,107.0,1949.57
1949580.0,76.0,37.0,7.0,111.0,1949.58
1949590.0,75.0,39.0,8.0,111.0,1949.59
1949600.0,75.0,38.0,7.0,106.0,1949.6
1949611.0,75.0,37.0,6.0,108.0,1949.611
1949621.0,75.0,37.0,7.0,112.0,1949.621
1949631.0,74.0,37.0,6.0,112.0,1949.631
1949641.0,73.0,38.0,7.0,106.0,1949.641
1949651.0,72.0,39.0,9.0,105.0,1949.651
1949661.0,73.0,41.0,9.0,108.0,1949.661
1949671.0,74.0,39.0,8.0,105.0,1949.671
1949681.0,73.0,39.0,7.0,107.0,1949.681
1949691.0,73.0,40.0,7.0,113.0,1949.691
1949701.0,73.0,40.0,7.0,114.0,1949.701
1949711.0,70.0,39.0,6.0,115.0,1949.711
1949721.0,68.0,40.0,6.0,123.0,1949.721
1949731.0,67.0,43.0,8.0,123.0,1949.731
1949741.0,66.0,42.0,8.0,120.0,1949.741
1949751.0,64.0,44.0,8.0,124.0,1949.751
1949761.0,63.0,44.0,7.0,115.0,1949.761
1949771.0,63.0,45.0,8.0,115.0,1949.771
1949782.0,62.0,47.0,6.0,116.0,1949.782
1949792.0,60.0,47.0,7.0,115.0,1949.792
1949802.0,58.0,46.0,6.0,112.0,1949.802
1949812.0,55.0,48.0,15.0,111.0,1949.812
1949822.0,53.0,46.0,13.0,108.0,1949.822
1949832.0,52.0,46.0,12.0,107.0,1949.832
