time (ms),signal 0,signal 1,signal 2,signal3,time (sec)
2060803.0,61.0,49.0,19.0,102.0,2060.803
2060813.0,60.0,50.0,23.0,118.0,2060.813
2060823.0,61.0,50.0,25.0,118.0,2060.823
2060833.0,61.0,50.0,26.0,117.0,2060.833
2060843.0,61.0,47.0,24.0,113.0,2060.843
2060853.0,60.0,47.0,22.0,116.0,2060.853
2060863.0,60.0,45.0,25.0,108.0,2060.863
2060873.0,61.0,47.0,35.0,115.0,2060.873
2060883.0,59.0,46.0,32.0,116.0,2060.883
2060893.0,60.0,46.0,31.0,129.0,2060.893
2060903.0,59.0,46.0,28.0,123.0,2060.903
2060913.0,59.0,46.0,27.0,116.0,2060.913
2060923.0,58.0,46.0,27.0,119.0,2060.923
2060933.0,58.0,48.0,34.0,121.0,2060.933
2060943.0,59.0,49.0,33.0,117.0,2060.943
2060953.0,58.0,49.0,31.0,126.0,2060.953
2060963.0,58.0,50.0,30.0,124.0,2060.963
2060973.0,57.0,50.0,32.0,118.0,2060.973
2060983.0,56.0,50.0,31.0,126.0,2060.983
2060993.0,56.0,51.0,34.0,124.0,2060.993
2061003.0,55.0,52.0,43.0,125.0,2061.003
2061014.0,56.0,52.0,39.0,132.0,2061.014
2061024.0,56.0,52.0,34.0,124.0,2061.024
2061034.0,56.0,51.0,30.0,122.0,2061.034
2061044.0,55.0,50.0,28.0,134.0,2061.044
2061054.0,55.0,50.0,30.0,144.0,2061.054
2061064.0,55.0,48.0,29.0,134.0,2061.064
2061074.0,55.0,52.0,46.0,128.0,2061.074
2061084.0,55.0,53.0,42.0,128.0,2061.084
2061094.0,56.0,56.0,37.0,119.0,2061.094
2061104.0,54.0,55.0,35.0,129.0,2061.104
2061114.0,54.0,54.0,31.0,126.0,2061.114
2061124.0,53.0,54.0,32.0,123.0,2061.124
2061134.0,56.0,55.0,33.0,121.0,2061.134
2061144.0,56.0,55.0,30.0,113.0,2061.144
2061154.0,54.0,55.0,39.0,109.0,2061.154
2061164.0,56.0,57.0,35.0,111.0,2061.164
2061174.0,56.0,59.0,31.0,111.0,2061.174
2061184.0,57.0,58.0,30.0,110.0,2061.184
2061194.0,57.0,60.0,28.0,113.0,2061.194
2061204.0,57.0,61.0,27.0,112.0,2061.204
2061214.0,57.0,59.0,29.0,111.0,2061.214
2061224.0,58.0,61.0,44.0,114.0,2061.224
2061234.0,58.0,62.0,39.0,125.0,2061.234
2061244.0,60.0,64.0,35.0,122.0,2061.244
2061254.0,59.0,62.0,34.0,114.0,2061.254
2061264.0,61.0,63.0,30.0,116.0,2061.264
2061274.0,61.0,63.0,26.0,107.0,2061.274
2061284.0,59.0,62.0,34.0,109.0,2061.284
2061294.0,60.0,62.0,30.0,117.0,2061.294
2061304.0,61.0,63.0,34.0,117.0,2061.304
2061314.0,62.0,63.0,31.0,111.0,2061.314
2061324.0,61.0,63.0,31.0,113.0,2061.324
2061334.0,60.0,62.0,28.0,118.0,2061.334
2061344.0,62.0,63.0,25.0,118.0,2061.344
2061355.0,60.0,61.0,31.0,116.0,2061.355
2061365.0,60.0,61.0,34.0,111.0,2061.365
2061375.0,60.0,62.0,30.0,109.0,2061.375
2061385.0,60.0,60.0,30.0,105.0,2061.385
2061395.0,58.0,60.0,26.0,99.0,2061.395
2061405.0,58.0,59.0,26.0,122.0,2061.405
2061415.0,58.0,59.0,23.0,114.0,2061.415
2061425.0,57.0,58.0,21.0,114.0,2061.425
2061435.0,57.0,57.0,24.0,107.0,2061.435
2061445.0,58.0,56.0,22.0,106.0,2061.445
2061455.0,60.0,58.0,40.0,137.0,2061.455
2061465.0,61.0,58.0,45.0,126.0,2061.465
2061475.0,61.0,55.0,39.0,126.0,2061.475
2061485.0,62.0,54.0,36.0,122.0,2061.485
2061495.0,63.0,52.0,32.0,119.0,2061.495
2061505.0,66.0,51.0,29.0,112.0,2061.505
2061515.0,64.0,50.0,30.0,120.0,2061.515
2061526.0,66.0,50.0,25.0,119.0,2061.526
2061536.0,66.0,50.0,33.0,118.0,2061.536
2061546.0,65.0,49.0,35.0,123.0,2061.546
2061556.0,66.0,50.0,34.0,122.0,2061.556
2061566.0,65.0,49.0,31.0,121.0,2061.566
2061576.0,66.0,49.0,30.0,115.0,2061.576
2061586.0,65.0,48.0,26.0,108.0,2061.586
2061596.0,63.0,47.0,28.0,110.0,2061.596
2061606.0,64.0,48.0,30.0,121.0,2061.606
2061616.0,63.0,51.0,35.0,120.0,2061.616
2061626.0,64.0,50.0,37.0,112.0,2061.626
2061636.0,65.0,49.0,33.0,114.0,2061.636
2061646.0,65.0,47.0,33.0,113.0,2061.646
2061656.0,65.0,46.0,36.0,113.0,2061.656
2061666.0,62.0,45.0,35.0,113.0,2061.666
2061676.0,61.0,44.0,31.0,118.0,2061.676
2061686.0,60.0,46.0,38.0,115.0,2061.686
2061696.0,60.0,46.0,37.0,114.0,2061.696
2061706.0,59.0,46.0,35.0,107.0,2061.706
2061716.0,57.0,46.0,32.0,108.0,2061.716
2061726.0,57.0,45.0,30.0,111.0,2061.726
2061736.0,55.0,45.0,30.0,115.0,2061.736
2061746.0,55.0,46.0,28.0,143.0,2061.746
2061756.0,55.0,45.0,28.0,133.0,2061.756
2061766.0,55.0,46.0,35.0,130.0,2061.766
2061776.0,57.0,47.0,34.0,128.0,2061.776
2061786.0,57.0,48.0,31.0,121.0,2061.786
2061796.0,55.0,47.0,30.0,123.0,2061.796
2061806.0,56.0,47.0,28.0,125.0,2061.806
2061816.0,54.0,45.0,25.0,116.0,2061.816
2061826.0,54.0,45.0,24.0,113.0,2061.826
2061836.0,54.0,46.0,23.0,113.0,2061.836
2061846.0,53.0,46.0,34.0,107.0,2061.846
2061856.0,53.0,48.0,33.0,116.0,2061.856
2061867.0,51.0,48.0,33.0,117.0,2061.867
2061877.0,51.0,47.0,34.0,116.0,2061.877
2061887.0,50.0,49.0,30.0,109.0,2061.887
2061897.0,49.0,49.0,25.0,101.0,2061.897
2061907.0,48.0,49.0,23.0,97.0,2061.907
2061917.0,48.0,49.0,24.0,107.0,2061.917
2061927.0,48.0,48.0,39.0,107.0,2061.927
2061937.0,48.0,50.0,40.0,106.0,2061.937
2061947.0,48.0,48.0,37.0,105.0,2061.947
2061957.0,48.0,50.0,34.0,105.0,2061.957
2061967.0,48.0,50.0,30.0,101.0,2061.967
2061977.0,48.0,47.0,28.0,101.0,2061.977
2061987.0,48.0,49.0,31.0,100.0,2061.987
2061997.0,48.0,48.0,31.0,94.0,2061.997
2062007.0,49.0,49.0,33.0,101.0,2062.007
2062017.0,49.0,48.0,29.0,111.0,2062.017
2062027.0,49.0,47.0,28.0,110.0,2062.027
2062038.0,48.0,47.0,27.0,102.0,2062.038
2062048.0,48.0,48.0,26.0,96.0,2062.048
2062058.0,48.0,47.0,24.0,94.0,2062.058
2062068.0,48.0,45.0,25.0,106.0,2062.068
2062078.0,48.0,46.0,37.0,120.0,2062.078
2062088.0,49.0,46.0,33.0,117.0,2062.088
2062098.0,49.0,45.0,33.0,115.0,2062.098
2062108.0,48.0,44.0,28.0,109.0,2062.108
2062118.0,49.0,43.0,26.0,103.0,2062.118
2062128.0,49.0,43.0,24.0,106.0,2062.128
2062138.0,49.0,43.0,30.0,112.0,2062.138
2062148.0,47.0,42.0,29.0,114.0,2062.148
2062158.0,48.0,45.0,37.0,109.0,2062.158
2062168.0,49.0,46.0,35.0,105.0,2062.168
2062178.0,49.0,46.0,42.0,99.0,2062.178
2062188.0,49.0,46.0,37.0,97.0,2062.188
2062198.0,49.0,45.0,34.0,108.0,2062.198
2062208.0,49.0,44.0,31.0,102.0,2062.208
2062218.0,51.0,46.0,28.0,98.0,2062.218
2062228.0,51.0,46.0,27.0,96.0,2062.228
2062238.0,51.0,46.0,36.0,96.0,2062.238
2062248.0,50.0,43.0,37.0,112.0,2062.248
2062258.0,52.0,46.0,32.0,123.0,2062.258
2062268.0,52.0,44.0,30.0,117.0,2062.268
2062278.0,53.0,47.0,29.0,111.0,2062.278
2062288.0,53.0,46.0,27.0,106.0,2062.288
2062298.0,54.0,46.0,25.0,103.0,2062.298
2062308.0,52.0,45.0,23.0,123.0,2062.308
2062318.0,52.0,45.0,24.0,123.0,2062.318
2062328.0,49.0,45.0,24.0,123.0,2062.328
2062338.0,52.0,47.0,26.0,122.0,2062.338
2062348.0,52.0,47.0,23.0,120.0,2062.348
2062358.0,53.0,48.0,22.0,123.0,2062.358
2062368.0,53.0,46.0,21.0,132.0,2062.368
2062379.0,52.0,45.0,17.0,126.0,2062.379
2062389.0,52.0,43.0,19.0,115.0,2062.389
2062399.0,50.0,41.0,16.0,113.0,2062.399
2062409.0,50.0,41.0,15.0,107.0,2062.409
2062419.0,50.0,41.0,23.0,107.0,2062.419
2062429.0,50.0,44.0,40.0,114.0,2062.429
2062439.0,52.0,43.0,40.0,113.0,2062.439
2062449.0,51.0,42.0,36.0,114.0,2062.449
2062459.0,50.0,42.0,33.0,107.0,2062.459
2062469.0,52.0,43.0,31.0,97.0,2062.469
2062479.0,49.0,42.0,26.0,91.0,2062.479
2062489.0,51.0,43.0,25.0,123.0,2062.489
2062499.0,51.0,45.0,28.0,121.0,2062.499
2062509.0,51.0,46.0,26.0,112.0,2062.509
2062519.0,51.0,44.0,31.0,116.0,2062.519
2062529.0,51.0,44.0,33.0,119.0,2062.529
2062539.0,52.0,42.0,32.0,109.0,2062.539
2062550.0,50.0,42.0,30.0,104.0,2062.55
2062560.0,50.0,41.0,25.0,108.0,2062.56
2062570.0,51.0,42.0,23.0,115.0,2062.57
2062580.0,51.0,45.0,33.0,116.0,2062.58
2062590.0,52.0,45.0,34.0,109.0,2062.59
2062600.0,51.0,43.0,33.0,103.0,2062.6
2062610.0,51.0,43.0,32.0,96.0,2062.61
2062620.0,51.0,42.0,28.0,98.0,2062.62
2062630.0,50.0,41.0,25.0,96.0,2062.63
2062640.0,49.0,39.0,22.0,99.0,2062.64
2062650.0,49.0,41.0,23.0,110.0,2062.65
2062660.0,52.0,42.0,22.0,112.0,2062.66
2062670.0,53.0,44.0,27.0,111.0,2062.67
2062680.0,53.0,43.0,25.0,115.0,2062.68
2062690.0,55.0,43.0,27.0,135.0,2062.69
2062700.0,54.0,43.0,28.0,131.0,2062.7
2062710.0,54.0,41.0,33.0,127.0,2062.71
2062720.0,56.0,42.0,30.0,126.0,2062.72
2062730.0,57.0,42.0,27.0,126.0,2062.73
2062740.0,56.0,42.0,34.0,119.0,2062.74
2062750.0,56.0,41.0,32.0,114.0,2062.75
2062760.0,56.0,41.0,29.0,115.0,2062.76
2062770.0,55.0,44.0,34.0,117.0,2062.77
2062780.0,54.0,42.0,33.0,107.0,2062.78
2062790.0,54.0,41.0,32.0,106.0,2062.79
2062800.0,54.0,43.0,27.0,116.0,2062.8
2062810.0,54.0,42.0,29.0,115.0,2062.81
2062820.0,53.0,45.0,46.0,110.0,2062.82
2062830.0,55.0,43.0,41.0,108.0,2062.83
2062840.0,54.0,43.0,38.0,112.0,2062.84
2062850.0,54.0,43.0,35.0,111.0,2062.85
2062860.0,57.0,43.0,33.0,104.0,2062.86
2062870.0,57.0,43.0,30.0,102.0,2062.87
2062880.0,58.0,42.0,27.0,110.0,2062.88
2062891.0,59.0,43.0,26.0,107.0,2062.891
2062901.0,59.0,41.0,23.0,110.0,2062.901
2062911.0,58.0,44.0,24.0,113.0,2062.911
2062921.0,60.0,44.0,22.0,105.0,2062.921
2062931.0,60.0,44.0,21.0,98.0,2062.931
2062941.0,61.0,43.0,21.0,95.0,2062.941
2062951.0,61.0,42.0,22.0,90.0,2062.951
2062961.0,62.0,42.0,26.0,109.0,2062.961
2062971.0,61.0,41.0,24.0,111.0,2062.971
2062981.0,63.0,41.0,22.0,107.0,2062.981
2062991.0,62.0,41.0,24.0,103.0,2062.991
2063001.0,62.0,42.0,26.0,109.0,2063.001
2063011.0,63.0,41.0,28.0,108.0,2063.011
2063021.0,63.0,42.0,26.0,109.0,2063.021
2063031.0,63.0,40.0,27.0,112.0,2063.031
2063041.0,64.0,40.0,24.0,110.0,2063.041
2063051.0,64.0,40.0,35.0,121.0,2063.051
2063062.0,63.0,39.0,36.0,111.0,2063.062
2063072.0,62.0,39.0,33.0,114.0,2063.072
2063082.0,60.0,39.0,29.0,110.0,2063.082
2063092.0,58.0,39.0,25.0,110.0,2063.092
2063102.0,58.0,38.0,23.0,112.0,2063.102
2063112.0,56.0,42.0,29.0,115.0,2063.112
2063122.0,57.0,41.0,28.0,115.0,2063.122
2063132.0,59.0,40.0,26.0,113.0,2063.132
2063142.0,55.0,42.0,22.0,110.0,2063.142
2063152.0,58.0,41.0,27.0,125.0,2063.152
2063162.0,56.0,43.0,27.0,125.0,2063.162
2063172.0,57.0,42.0,24.0,119.0,2063.172
2063182.0,58.0,44.0,29.0,111.0,2063.182
2063192.0,57.0,44.0,25.0,110.0,2063.192
2063202.0,58.0,42.0,23.0,107.0,2063.202
2063212.0,57.0,42.0,20.0,102.0,2063.212
2063222.0,55.0,42.0,18.0,109.0,2063.222
2063232.0,55.0,44.0,20.0,109.0,2063.232
2063242.0,56.0,44.0,18.0,106.0,2063.242
2063252.0,56.0,42.0,17.0,108.0,2063.252
2063262.0,54.0,42.0,17.0,105.0,2063.262
2063272.0,55.0,44.0,27.0,108.0,2063.272
2063282.0,55.0,43.0,31.0,114.0,2063.282
2063292.0,54.0,43.0,28.0,115.0,2063.292
2063302.0,53.0,41.0,25.0,113.0,2063.302
2063312.0,52.0,43.0,24.0,114.0,2063.312
2063322.0,51.0,42.0,23.0,111.0,2063.322
2063332.0,52.0,41.0,24.0,112.0,2063.332
2063342.0,49.0,41.0,22.0,109.0,2063.342
2063352.0,52.0,40.0,23.0,111.0,2063.352
2063362.0,50.0,40.0,20.0,112.0,2063.362
2063372.0,50.0,40.0,21.0,123.0,2063.372
2063382.0,52.0,44.0,31.0,122.0,2063.382
2063392.0,51.0,44.0,31.0,125.0,2063.392
2063403.0,53.0,43.0,32.0,118.0,2063.403
2063413.0,52.0,43.0,28.0,113.0,2063.413
2063423.0,50.0,42.0,24.0,103.0,2063.423
2063433.0,50.0,41.0,22.0,96.0,2063.433
2063443.0,51.0,41.0,20.0,113.0,2063.443
2063453.0,52.0,41.0,18.0,119.0,2063.453
2063463.0,51.0,43.0,19.0,109.0,2063.463
2063473.0,51.0,40.0,18.0,102.0,2063.473
2063483.0,51.0,42.0,16.0,124.0,2063.483
2063493.0,50.0,43.0,23.0,119.0,2063.493
2063503.0,52.0,43.0,28.0,108.0,2063.503
2063513.0,52.0,43.0,26.0,103.0,2063.513
2063523.0,52.0,41.0,22.0,101.0,2063.523
2063533.0,53.0,42.0,21.0,115.0,2063.533
2063543.0,53.0,41.0,19.0,117.0,2063.543
2063553.0,52.0,40.0,20.0,119.0,2063.553
2063563.0,52.0,41.0,18.0,125.0,2063.563
2063574.0,53.0,41.0,18.0,121.0,2063.574
2063584.0,52.0,41.0,18.0,112.0,2063.584
2063594.0,52.0,41.0,16.0,103.0,2063.594
2063604.0,52.0,41.0,15.0,114.0,2063.604
2063614.0,52.0,42.0,27.0,116.0,2063.614
2063624.0,53.0,42.0,25.0,120.0,2063.624
2063634.0,53.0,41.0,25.0,117.0,2063.634
2063644.0,53.0,41.0,27.0,111.0,2063.644
2063654.0,53.0,41.0,24.0,127.0,2063.654
2063664.0,52.0,41.0,21.0,125.0,2063.664
2063674.0,54.0,40.0,19.0,122.0,2063.674
2063684.0,54.0,40.0,17.0,116.0,2063.684
2063694.0,53.0,40.0,18.0,116.0,2063.694
2063704.0,52.0,39.0,17.0,119.0,2063.704
2063714.0,52.0,39.0,17.0,113.0,2063.714
2063724.0,52.0,41.0,20.0,115.0,2063.724
2063734.0,52.0,44.0,28.0,116.0,2063.734
2063744.0,53.0,43.0,29.0,111.0,2063.744
2063754.0,53.0,44.0,31.0,109.0,2063.754
2063764.0,51.0,45.0,30.0,113.0,2063.764
2063774.0,51.0,44.0,27.0,109.0,2063.774
2063784.0,52.0,43.0,25.0,107.0,2063.784
2063794.0,53.0,43.0,24.0,107.0,2063.794
2063804.0,53.0,43.0,19.0,115.0,2063.804
2063814.0,52.0,42.0,20.0,120.0,2063.814
2063824.0,51.0,43.0,20.0,120.0,2063.824
2063834.0,50.0,45.0,30.0,113.0,2063.834
2063844.0,50.0,44.0,35.0,112.0,2063.844
2063854.0,50.0,44.0,32.0,107.0,2063.854
2063864.0,51.0,42.0,31.0,110.0,2063.864
2063874.0,53.0,41.0,27.0,107.0,2063.874
2063884.0,52.0,40.0,26.0,107.0,2063.884
2063894.0,54.0,39.0,23.0,105.0,2063.894
2063904.0,54.0,40.0,21.0,101.0,2063.904
2063915.0,55.0,40.0,19.0,98.0,2063.915
2063925.0,54.0,41.0,17.0,118.0,2063.925
2063935.0,55.0,40.0,17.0,123.0,2063.935
2063945.0,55.0,42.0,21.0,117.0,2063.945
2063955.0,55.0,44.0,27.0,112.0,2063.955
2063965.0,55.0,44.0,36.0,109.0,2063.965
2063975.0,55.0,44.0,33.0,106.0,2063.975
2063985.0,55.0,44.0,31.0,101.0,2063.985
2063995.0,55.0,42.0,29.0,96.0,2063.995
2064005.0,55.0,42.0,26.0,93.0,2064.005
2064015.0,55.0,43.0,26.0,95.0,2064.015
2064025.0,53.0,46.0,36.0,92.0,2064.025
2064035.0,55.0,47.0,37.0,98.0,2064.035
2064045.0,57.0,45.0,34.0,100.0,2064.045
2064055.0,57.0,45.0,30.0,100.0,2064.055
2064065.0,57.0,43.0,29.0,94.0,2064.065
2064075.0,56.0,43.0,25.0,103.0,2064.075
2064086.0,57.0,42.0,25.0,98.0,2064.086
2064096.0,59.0,41.0,22.0,102.0,2064.096
2064106.0,58.0,41.0,20.0,102.0,2064.106
2064116.0,59.0,40.0,20.0,93.0,2064.116
2064126.0,59.0,40.0,19.0,101.0,2064.126
2064136.0,59.0,42.0,31.0,99.0,2064.136
2064146.0,59.0,41.0,33.0,96.0,2064.146
2064156.0,60.0,41.0,29.0,101.0,2064.156
2064166.0,61.0,40.0,27.0,99.0,2064.166
2064176.0,58.0,40.0,23.0,91.0,2064.176
2064186.0,58.0,39.0,24.0,92.0,2064.186
2064196.0,57.0,40.0,21.0,95.0,2064.196
2064206.0,55.0,39.0,20.0,102.0,2064.206
2064216.0,55.0,38.0,19.0,102.0,2064.216
2064226.0,53.0,38.0,17.0,104.0,2064.226
2064236.0,53.0,39.0,23.0,100.0,2064.236
2064246.0,54.0,41.0,20.0,96.0,2064.246
2064256.0,52.0,40.0,19.0,93.0,2064.256
2064266.0,53.0,40.0,16.0,88.0,2064.266
2064276.0,54.0,40.0,15.0,90.0,2064.276
2064286.0,55.0,38.0,13.0,99.0,2064.286
2064296.0,55.0,39.0,19.0,96.0,2064.296
2064306.0,56.0,40.0,21.0,109.0,2064.306
2064316.0,57.0,41.0,20.0,110.0,2064.316
2064326.0,56.0,40.0,18.0,104.0,2064.326
2064336.0,57.0,43.0,27.0,101.0,2064.336
2064346.0,57.0,42.0,24.0,106.0,2064.346
2064356.0,57.0,40.0,23.0,106.0,2064.356
2064366.0,56.0,41.0,27.0,106.0,2064.366
2064376.0,56.0,41.0,28.0,100.0,2064.376
2064386.0,57.0,41.0,26.0,97.0,2064.386
2064396.0,56.0,41.0,22.0,96.0,2064.396
2064406.0,55.0,41.0,19.0,95.0,2064.406
2064416.0,56.0,41.0,19.0,94.0,2064.416
2064427.0,56.0,40.0,17.0,87.0,2064.427
2064437.0,57.0,38.0,16.0,87.0,2064.437
2064447.0,57.0,39.0,14.0,88.0,2064.447
2064457.0,56.0,41.0,24.0,98.0,2064.457
2064467.0,56.0,40.0,23.0,113.0,2064.467
2064477.0,55.0,40.0,23.0,110.0,2064.477
2064487.0,57.0,40.0,25.0,100.0,2064.487
2064497.0,56.0,41.0,35.0,102.0,2064.497
2064507.0,57.0,40.0,34.0,96.0,2064.507
2064517.0,58.0,40.0,30.0,98.0,2064.517
2064527.0,56.0,40.0,28.0,97.0,2064.527
2064537.0,57.0,43.0,38.0,105.0,2064.537
2064547.0,55.0,43.0,36.0,101.0,2064.547
2064557.0,57.0,41.0,32.0,101.0,2064.557
2064567.0,55.0,43.0,35.0,114.0,2064.567
2064577.0,55.0,41.0,31.0,110.0,2064.577
2064587.0,54.0,40.0,31.0,112.0,2064.587
2064598.0,52.0,39.0,25.0,102.0,2064.598
2064608.0,52.0,38.0,24.0,103.0,2064.608
2064618.0,52.0,38.0,20.0,118.0,2064.618
2064628.0,51.0,39.0,22.0,124.0,2064.628
2064638.0,52.0,39.0,26.0,113.0,2064.638
2064648.0,51.0,40.0,23.0,110.0,2064.648
2064658.0,51.0,40.0,29.0,100.0,2064.658
2064668.0,51.0,40.0,28.0,104.0,2064.668
2064678.0,51.0,41.0,27.0,101.0,2064.678
2064688.0,50.0,41.0,25.0,105.0,2064.688
2064698.0,50.0,41.0,22.0,105.0,2064.698
2064708.0,52.0,41.0,25.0,101.0,2064.708
2064718.0,50.0,44.0,25.0,116.0,2064.718
2064728.0,51.0,43.0,25.0,124.0,2064.728
2064738.0,51.0,42.0,22.0,119.0,2064.738
2064748.0,49.0,43.0,20.0,114.0,2064.748
2064758.0,51.0,43.0,26.0,104.0,2064.758
2064768.0,50.0,43.0,23.0,126.0,2064.768
2064778.0,52.0,46.0,32.0,128.0,2064.778
2064788.0,51.0,45.0,31.0,129.0,2064.788
2064798.0,51.0,43.0,27.0,118.0,2064.798
2064808.0,51.0,44.0,26.0,109.0,2064.808
2064818.0,50.0,43.0,23.0,121.0,2064.818
2064828.0,52.0,43.0,27.0,128.0,2064.828
2064838.0,52.0,42.0,27.0,125.0,2064.838
2064848.0,50.0,41.0,24.0,123.0,2064.848
2064858.0,51.0,42.0,22.0,118.0,2064.858
2064868.0,50.0,42.0,19.0,112.0,2064.868
2064878.0,48.0,39.0,17.0,107.0,2064.878
2064888.0,48.0,41.0,15.0,99.0,2064.888
2064898.0,48.0,40.0,15.0,107.0,2064.898
2064908.0,48.0,39.0,15.0,104.0,2064.908
2064918.0,48.0,43.0,30.0,108.0,2064.918
2064928.0,50.0,41.0,26.0,115.0,2064.928
2064939.0,51.0,42.0,23.0,109.0,2064.939
2064949.0,51.0,41.0,21.0,100.0,2064.949
2064959.0,51.0,39.0,18.0,96.0,2064.959
2064969.0,49.0,40.0,15.0,111.0,2064.969
2064979.0,51.0,39.0,15.0,114.0,2064.979
2064989.0,50.0,40.0,15.0,112.0,2064.989
2064999.0,50.0,40.0,14.0,103.0,2064.999
2065009.0,49.0,41.0,14.0,100.0,2065.009
2065019.0,49.0,40.0,15.0,122.0,2065.019
2065029.0,50.0,39.0,17.0,115.0,2065.029
2065039.0,49.0,39.0,15.0,121.0,2065.039
2065049.0,49.0,40.0,17.0,121.0,2065.049
2065059.0,48.0,40.0,16.0,115.0,2065.059
2065069.0,48.0,43.0,14.0,111.0,2065.069
2065079.0,47.0,56.0,14.0,102.0,2065.079
2065089.0,47.0,63.0,11.0,94.0,2065.089
2065099.0,46.0,64.0,11.0,86.0,2065.099
2065110.0,47.0,63.0,11.0,85.0,2065.11
2065120.0,54.0,59.0,10.0,93.0,2065.12
2065130.0,57.0,56.0,10.0,97.0,2065.13
2065140.0,54.0,54.0,9.0,96.0,2065.14
2065150.0,54.0,52.0,8.0,91.0,2065.15
2065160.0,52.0,53.0,7.0,85.0,2065.16
2065170.0,54.0,54.0,7.0,86.0,2065.17
2065180.0,56.0,52.0,6.0,91.0,2065.18
2065190.0,58.0,51.0,6.0,87.0,2065.19
2065200.0,67.0,55.0,7.0,96.0,2065.2
2065210.0,86.0,62.0,6.0,88.0,2065.21
2065220.0,95.0,64.0,9.0,85.0,2065.22
2065230.0,105.0,73.0,9.0,81.0,2065.23
2065240.0,101.0,74.0,8.0,84.0,2065.24
2065250.0,105.0,68.0,8.0,90.0,2065.25
2065260.0,124.0,76.0,9.0,97.0,2065.26
2065270.0,169.0,86.0,14.0,96.0,2065.27
2065280.0,172.0,90.0,14.0,95.0,2065.28
2065290.0,176.0,106.0,31.0,105.0,2065.29
2065300.0,187.0,106.0,35.0,139.0,2065.3
2065310.0,181.0,125.0,37.0,130.0,2065.31
2065320.0,174.0,128.0,33.0,124.0,2065.32
2065330.0,161.0,141.0,38.0,115.0,2065.33
2065340.0,172.0,144.0,45.0,120.0,2065.34
2065350.0,159.0,137.0,40.0,121.0,2065.35
2065360.0,149.0,138.0,38.0,121.0,2065.36
2065370.0,138.0,138.0,35.0,120.0,2065.37
2065380.0,126.0,132.0,31.0,117.0,2065.38
2065390.0,121.0,129.0,28.0,122.0,2065.39
2065400.0,118.0,123.0,29.0,119.0,2065.4
2065410.0,109.0,127.0,29.0,121.0,2065.41
2065420.0,105.0,127.0,30.0,120.0,2065.42
2065430.0,102.0,129.0,27.0,122.0,2065.43
2065440.0,98.0,129.0,24.0,116.0,2065.44
2065451.0,93.0,132.0,21.0,122.0,2065.451
2065461.0,86.0,133.0,19.0,118.0,2065.461
2065471.0,89.0,138.0,18.0,114.0,2065.471
2065481.0,85.0,138.0,21.0,118.0,2065.481
2065491.0,83.0,139.0,20.0,140.0,2065.491
2065501.0,79.0,135.0,20.0,128.0,2065.501
2065511.0,79.0,136.0,18.0,125.0,2065.511
2065521.0,76.0,132.0,16.0,117.0,2065.521
2065531.0,75.0,135.0,15.0,111.0,2065.531
2065541.0,72.0,132.0,14.0,106.0,2065.541
2065551.0,68.0,132.0,11.0,117.0,2065.551
2065561.0,65.0,133.0,11.0,129.0,2065.561
2065571.0,65.0,134.0,10.0,122.0,2065.571
2065581.0,63.0,136.0,9.0,121.0,2065.581
2065591.0,68.0,138.0,10.0,117.0,2065.591
2065601.0,65.0,136.0,9.0,115.0,2065.601
2065611.0,62.0,136.0,8.0,116.0,2065.611
2065622.0,63.0,135.0,8.0,116.0,2065.622
2065632.0,61.0,135.0,8.0,119.0,2065.632
2065642.0,63.0,132.0,8.0,121.0,2065.642
2065652.0,60.0,130.0,8.0,116.0,2065.652
2065662.0,59.0,129.0,13.0,120.0,2065.662
2065672.0,60.0,127.0,25.0,119.0,2065.672
2065682.0,62.0,125.0,22.0,125.0,2065.682
2065692.0,61.0,123.0,20.0,125.0,2065.692
2065702.0,61.0,124.0,17.0,118.0,2065.702
2065712.0,62.0,123.0,17.0,115.0,2065.712
2065722.0,60.0,120.0,14.0,113.0,2065.722
2065732.0,60.0,117.0,13.0,122.0,2065.732
2065742.0,62.0,116.0,12.0,127.0,2065.742
2065752.0,64.0,116.0,11.0,124.0,2065.752
2065762.0,64.0,113.0,11.0,114.0,2065.762
2065772.0,63.0,111.0,9.0,105.0,2065.772
2065782.0,61.0,109.0,9.0,105.0,2065.782
2065792.0,59.0,109.0,8.0,108.0,2065.792
2065802.0,60.0,107.0,7.0,112.0,2065.802
2065812.0,60.0,107.0,6.0,108.0,2065.812
2065822.0,60.0,106.0,7.0,105.0,2065.822
2065832.0,58.0,104.0,7.0,98.0,2065.832
2065842.0,62.0,106.0,7.0,103.0,2065.842
2065852.0,61.0,103.0,8.0,110.0,2065.852
2065862.0,60.0,102.0,11.0,106.0,2065.862
2065872.0,57.0,101.0,9.0,103.0,2065.872
2065882.0,56.0,101.0,10.0,107.0,2065.882
2065892.0,54.0,101.0,10.0,107.0,2065.892
2065902.0,51.0,102.0,9.0,114.0,2065.902
2065912.0,53.0,102.0,8.0,118.0,2065.912
2065922.0,55.0,103.0,8.0,118.0,2065.922
2065932.0,55.0,101.0,9.0,111.0,2065.932
2065942.0,59.0,102.0,7.0,114.0,2065.942
2065952.0,59.0,102.0,6.0,114.0,2065.952
2065963.0,61.0,101.0,11.0,109.0,2065.963
2065973.0,59.0,103.0,9.0,108.0,2065.973
2065983.0,58.0,100.0,8.0,106.0,2065.983
2065993.0,57.0,101.0,7.0,105.0,2065.993
2066003.0,54.0,100.0,9.0,101.0,2066.003
2066013.0,53.0,100.0,9.0,98.0,2066.013
2066023.0,52.0,99.0,8.0,98.0,2066.023
2066033.0,55.0,96.0,8.0,95.0,2066.033
2066043.0,54.0,97.0,9.0,104.0,2066.043
2066053.0,56.0,96.0,12.0,104.0,2066.053
2066063.0,56.0,92.0,11.0,99.0,2066.063
2066073.0,57.0,92.0,9.0,96.0,2066.073
2066083.0,57.0,91.0,10.0,95.0,2066.083
2066093.0,55.0,88.0,8.0,101.0,2066.093
2066103.0,55.0,86.0,9.0,107.0,2066.103
2066113.0,58.0,85.0,8.0,108.0,2066.113
2066123.0,57.0,83.0,7.0,118.0,2066.123
2066134.0,56.0,81.0,7.0,143.0,2066.134
2066144.0,53.0,82.0,7.0,135.0,2066.144
2066154.0,53.0,82.0,10.0,124.0,2066.154
2066164.0,52.0,80.0,8.0,120.0,2066.164
2066174.0,50.0,82.0,8.0,116.0,2066.174
2066184.0,50.0,84.0,8.0,112.0,2066.184
2066194.0,51.0,87.0,7.0,110.0,2066.194
2066204.0,51.0,86.0,6.0,117.0,2066.204
2066214.0,55.0,88.0,8.0,106.0,2066.214
2066224.0,58.0,86.0,10.0,99.0,2066.224
2066234.0,56.0,85.0,10.0,109.0,2066.234
2066244.0,54.0,83.0,8.0,108.0,2066.244
2066254.0,53.0,81.0,9.0,113.0,2066.254
2066264.0,52.0,79.0,7.0,120.0,2066.264
2066274.0,54.0,81.0,19.0,132.0,2066.274
2066284.0,54.0,77.0,17.0,142.0,2066.284
2066294.0,51.0,76.0,15.0,138.0,2066.294
2066304.0,56.0,75.0,15.0,129.0,2066.304
2066314.0,56.0,76.0,12.0,141.0,2066.314
2066324.0,57.0,72.0,11.0,137.0,2066.324
2066334.0,55.0,71.0,10.0,127.0,2066.334
2066344.0,54.0,70.0,9.0,124.0,2066.344
2066354.0,55.0,67.0,11.0,118.0,2066.354
2066364.0,60.0,66.0,12.0,110.0,2066.364
2066374.0,59.0,64.0,13.0,125.0,2066.374
2066384.0,58.0,60.0,11.0,127.0,2066.384
2066394.0,56.0,59.0,10.0,130.0,2066.394
2066404.0,54.0,56.0,10.0,124.0,2066.404
2066414.0,53.0,55.0,9.0,127.0,2066.414
2066424.0,53.0,55.0,8.0,127.0,2066.424
2066434.0,52.0,53.0,8.0,125.0,2066.434
2066444.0,51.0,52.0,8.0,147.0,2066.444
2066454.0,52.0,51.0,8.0,138.0,2066.454
2066464.0,55.0,52.0,6.0,135.0,2066.464
2066475.0,58.0,52.0,6.0,133.0,2066.475
2066485.0,57.0,54.0,6.0,127.0,2066.485
2066495.0,55.0,55.0,6.0,123.0,2066.495
2066505.0,54.0,56.0,7.0,114.0,2066.505
2066515.0,53.0,56.0,6.0,127.0,2066.515
2066525.0,54.0,58.0,5.0,142.0,2066.525
2066535.0,54.0,56.0,6.0,133.0,2066.535
2066545.0,57.0,59.0,7.0,123.0,2066.545
2066555.0,58.0,57.0,8.0,126.0,2066.555
2066565.0,56.0,59.0,8.0,130.0,2066.565
2066575.0,56.0,58.0,7.0,130.0,2066.575
2066585.0,53.0,57.0,8.0,129.0,2066.585
2066595.0,53.0,59.0,8.0,117.0,2066.595
2066605.0,52.0,59.0,9.0,107.0,2066.605
2066615.0,49.0,59.0,9.0,97.0,2066.615
2066625.0,49.0,59.0,8.0,93.0,2066.625
2066635.0,48.0,59.0,7.0,92.0,2066.635
2066646.0,48.0,59.0,7.0,86.0,2066.646
2066656.0,47.0,58.0,5.0,100.0,2066.656
2066666.0,47.0,59.0,6.0,116.0,2066.666
2066676.0,46.0,59.0,6.0,116.0,2066.676
2066686.0,45.0,60.0,6.0,116.0,2066.686
2066696.0,47.0,59.0,7.0,179.0,2066.696
2066706.0,50.0,59.0,6.0,171.0,2066.706
2066716.0,51.0,59.0,6.0,156.0,2066.716
2066726.0,52.0,58.0,6.0,162.0,2066.726
2066736.0,51.0,57.0,5.0,148.0,2066.736
2066746.0,51.0,58.0,6.0,139.0,2066.746
2066756.0,49.0,58.0,7.0,127.0,2066.756
2066766.0,48.0,58.0,7.0,116.0,2066.766
2066776.0,47.0,60.0,7.0,121.0,2066.776
2066786.0,49.0,61.0,7.0,118.0,2066.786
2066796.0,50.0,58.0,6.0,114.0,2066.796
2066806.0,49.0,59.0,5.0,109.0,2066.806
2066816.0,49.0,59.0,6.0,103.0,2066.816
2066826.0,49.0,58.0,5.0,112.0,2066.826
2066836.0,50.0,57.0,5.0,109.0,2066.836
2066846.0,49.0,56.0,5.0,111.0,2066.846
2066856.0,49.0,58.0,5.0,113.0,2066.856
2066866.0,49.0,56.0,6.0,124.0,2066.866
2066876.0,49.0,55.0,5.0,120.0,2066.876
2066886.0,53.0,56.0,6.0,117.0,2066.886
2066896.0,53.0,55.0,6.0,116.0,2066.896
2066906.0,52.0,54.0,4.0,121.0,2066.906
2066916.0,52.0,53.0,5.0,118.0,2066.916
2066926.0,51.0,54.0,5.0,115.0,2066.926
2066936.0,50.0,54.0,5.0,108.0,2066.936
2066946.0,50.0,54.0,5.0,112.0,2066.946
2066956.0,49.0,54.0,5.0,124.0,2066.956
2066966.0,53.0,55.0,7.0,121.0,2066.966
2066976.0,54.0,55.0,6.0,114.0,2066.976
2066987.0,52.0,57.0,5.0,114.0,2066.987
2066997.0,52.0,58.0,5.0,127.0,2066.997
2067007.0,51.0,57.0,5.0,118.0,2067.007
2067017.0,51.0,56.0,7.0,114.0,2067.017
2067027.0,51.0,56.0,6.0,111.0,2067.027
2067037.0,52.0,56.0,6.0,120.0,2067.037
2067047.0,52.0,56.0,7.0,120.0,2067.047
2067057.0,50.0,58.0,7.0,121.0,2067.057
2067067.0,56.0,56.0,6.0,110.0,2067.067
2067077.0,54.0,58.0,6.0,105.0,2067.077
2067087.0,54.0,58.0,6.0,106.0,2067.087
2067097.0,55.0,55.0,5.0,120.0,2067.097
2067107.0,52.0,55.0,5.0,112.0,2067.107
2067117.0,54.0,57.0,5.0,115.0,2067.117
2067127.0,50.0,57.0,6.0,106.0,2067.127
2067137.0,52.0,57.0,6.0,101.0,2067.137
2067147.0,51.0,57.0,6.0,107.0,2067.147
2067158.0,51.0,56.0,8.0,102.0,2067.158
2067168.0,52.0,54.0,8.0,99.0,2067.168
2067178.0,55.0,54.0,8.0,95.0,2067.178
2067188.0,56.0,53.0,9.0,88.0,2067.188
2067198.0,54.0,52.0,12.0,94.0,2067.198
2067208.0,54.0,52.0,12.0,93.0,2067.208
2067218.0,53.0,50.0,11.0,97.0,2067.218
2067228.0,53.0,50.0,10.0,93.0,2067.228
2067238.0,52.0,50.0,9.0,93.0,2067.238
2067248.0,51.0,51.0,11.0,103.0,2067.248
2067258.0,56.0,50.0,9.0,106.0,2067.258
2067268.0,57.0,49.0,9.0,104.0,2067.268
2067278.0,57.0,47.0,8.0,104.0,2067.278
2067288.0,55.0,47.0,7.0,99.0,2067.288
2067298.0,55.0,47.0,7.0,101.0,2067.298
2067308.0,55.0,45.0,7.0,107.0,2067.308
2067318.0,55.0,45.0,8.0,101.0,2067.318
2067328.0,56.0,44.0,8.0,101.0,2067.328
2067338.0,57.0,46.0,11.0,92.0,2067.338
2067348.0,62.0,46.0,12.0,89.0,2067.348
2067358.0,62.0,45.0,12.0,96.0,2067.358
2067368.0,61.0,45.0,11.0,104.0,2067.368
2067378.0,63.0,45.0,10.0,96.0,2067.378
2067388.0,62.0,44.0,9.0,94.0,2067.388
2067398.0,62.0,44.0,9.0,93.0,2067.398
2067408.0,61.0,43.0,11.0,112.0,2067.408
2067418.0,60.0,42.0,8.0,119.0,2067.418
2067428.0,58.0,43.0,8.0,110.0,2067.428
2067438.0,60.0,44.0,8.0,109.0,2067.438
2067448.0,61.0,44.0,8.0,99.0,2067.448
2067458.0,61.0,41.0,7.0,100.0,2067.458
2067468.0,58.0,42.0,5.0,98.0,2067.468
2067478.0,57.0,41.0,7.0,89.0,2067.478
2067488.0,59.0,41.0,6.0,111.0,2067.488
2067499.0,56.0,41.0,6.0,104.0,2067.499
2067509.0,58.0,40.0,5.0,111.0,2067.509
2067519.0,55.0,42.0,5.0,110.0,2067.519
2067529.0,54.0,40.0,5.0,106.0,2067.529
2067539.0,57.0,42.0,5.0,107.0,2067.539
2067549.0,57.0,42.0,5.0,107.0,2067.549
2067559.0,58.0,40.0,4.0,109.0,2067.559
2067569.0,56.0,40.0,4.0,104.0,2067.569
2067579.0,56.0,40.0,5.0,96.0,2067.579
2067589.0,55.0,39.0,4.0,103.0,2067.589
2067599.0,53.0,39.0,4.0,96.0,2067.599
2067609.0,54.0,39.0,4.0,95.0,2067.609
2067619.0,52.0,41.0,4.0,92.0,2067.619
2067629.0,53.0,39.0,4.0,87.0,2067.629
2067639.0,53.0,40.0,5.0,90.0,2067.639
2067649.0,55.0,39.0,5.0,108.0,2067.649
2067659.0,54.0,37.0,5.0,108.0,2067.659
2067670.0,54.0,38.0,3.0,108.0,2067.67
2067680.0,55.0,38.0,5.0,106.0,2067.68
2067690.0,54.0,38.0,4.0,108.0,2067.69
2067700.0,54.0,39.0,8.0,104.0,2067.7
2067710.0,56.0,40.0,8.0,97.0,2067.71
2067720.0,56.0,39.0,7.0,94.0,2067.72
2067730.0,56.0,38.0,6.0,99.0,2067.73
2067740.0,56.0,38.0,6.0,109.0,2067.74
2067750.0,57.0,38.0,6.0,110.0,2067.75
2067760.0,56.0,38.0,5.0,112.0,2067.76
2067770.0,55.0,37.0,7.0,107.0,2067.77
2067780.0,55.0,37.0,15.0,101.0,2067.78
2067790.0,54.0,38.0,14.0,104.0,2067.79
2067800.0,54.0,37.0,13.0,103.0,2067.8
2067810.0,56.0,40.0,13.0,99.0,2067.81
2067820.0,54.0,41.0,13.0,120.0,2067.82
2067830.0,53.0,40.0,12.0,124.0,2067.83
2067840.0,56.0,41.0,9.0,119.0,2067.84
2067850.0,57.0,41.0,11.0,113.0,2067.85
2067860.0,58.0,41.0,8.0,130.0,2067.86
2067870.0,57.0,41.0,14.0,141.0,2067.87
2067880.0,59.0,43.0,15.0,149.0,2067.88
2067890.0,59.0,45.0,14.0,155.0,2067.89
2067900.0,60.0,45.0,13.0,153.0,2067.9
2067910.0,60.0,44.0,12.0,158.0,2067.91
2067920.0,60.0,43.0,13.0,173.0,2067.92
2067930.0,66.0,43.0,13.0,179.0,2067.93
2067940.0,66.0,44.0,12.0,205.0,2067.94
2067950.0,65.0,44.0,12.0,210.0,2067.95
2067960.0,65.0,45.0,17.0,206.0,2067.96
2067970.0,64.0,45.0,17.0,194.0,2067.97
2067980.0,64.0,43.0,15.0,186.0,2067.98
2067990.0,62.0,42.0,13.0,183.0,2067.99
2068000.0,65.0,42.0,13.0,174.0,2068.0
2068011.0,65.0,43.0,14.0,164.0,2068.011
2068021.0,64.0,41.0,14.0,152.0,2068.021
2068031.0,63.0,42.0,17.0,161.0,2068.031
2068041.0,63.0,41.0,16.0,154.0,2068.041
2068051.0,63.0,42.0,14.0,155.0,2068.051
2068061.0,64.0,44.0,15.0,153.0,2068.061
2068071.0,65.0,43.0,15.0,169.0,2068.071
2068081.0,64.0,43.0,16.0,156.0,2068.081
2068091.0,61.0,43.0,15.0,141.0,2068.091
2068101.0,62.0,44.0,13.0,139.0,2068.101
2068111.0,61.0,45.0,11.0,131.0,2068.111
2068121.0,59.0,42.0,11.0,156.0,2068.121
2068131.0,60.0,44.0,10.0,149.0,2068.131
2068141.0,59.0,43.0,9.0,144.0,2068.141
2068151.0,58.0,42.0,12.0,142.0,2068.151
2068161.0,55.0,43.0,11.0,173.0,2068.161
2068171.0,55.0,43.0,12.0,164.0,2068.171
2068182.0,54.0,45.0,11.0,164.0,2068.182
2068192.0,56.0,45.0,11.0,173.0,2068.192
2068202.0,57.0,44.0,10.0,173.0,2068.202
2068212.0,55.0,44.0,9.0,160.0,2068.212
2068222.0,56.0,43.0,11.0,155.0,2068.222
2068232.0,58.0,45.0,10.0,146.0,2068.232
2068242.0,58.0,45.0,10.0,160.0,2068.242
2068252.0,55.0,43.0,9.0,157.0,2068.252
2068262.0,55.0,43.0,8.0,141.0,2068.262
2068272.0,55.0,42.0,8.0,132.0,2068.272
2068282.0,53.0,43.0,8.0,126.0,2068.282
2068292.0,52.0,43.0,8.0,142.0,2068.292
2068302.0,51.0,42.0,7.0,157.0,2068.302
2068312.0,54.0,42.0,6.0,144.0,2068.312
2068322.0,53.0,41.0,6.0,140.0,2068.322
2068332.0,51.0,41.0,6.0,132.0,2068.332
2068342.0,50.0,40.0,6.0,122.0,2068.342
2068352.0,50.0,42.0,5.0,121.0,2068.352
2068362.0,49.0,43.0,6.0,119.0,2068.362
2068372.0,50.0,43.0,9.0,122.0,2068.372
2068382.0,48.0,44.0,7.0,111.0,2068.382
2068392.0,47.0,44.0,7.0,117.0,2068.392
2068402.0,51.0,46.0,7.0,123.0,2068.402
2068412.0,58.0,46.0,6.0,124.0,2068.412
2068422.0,56.0,44.0,7.0,124.0,2068.422
2068432.0,53.0,44.0,14.0,132.0,2068.432
2068442.0,53.0,43.0,14.0,129.0,2068.442
2068452.0,54.0,41.0,13.0,131.0,2068.452
2068462.0,52.0,40.0,12.0,128.0,2068.462
2068472.0,52.0,40.0,10.0,125.0,2068.472
2068482.0,51.0,41.0,10.0,127.0,2068.482
2068492.0,52.0,39.0,9.0,119.0,2068.492
2068502.0,60.0,41.0,8.0,123.0,2068.502
2068512.0,61.0,40.0,13.0,119.0,2068.512
2068523.0,60.0,41.0,12.0,147.0,2068.523
2068533.0,58.0,40.0,16.0,168.0,2068.533
2068543.0,56.0,40.0,19.0,157.0,2068.543
2068553.0,57.0,41.0,17.0,150.0,2068.553
2068563.0,56.0,40.0,15.0,132.0,2068.563
2068573.0,53.0,38.0,13.0,124.0,2068.573
2068583.0,53.0,39.0,12.0,147.0,2068.583
2068593.0,57.0,39.0,12.0,147.0,2068.593
2068603.0,56.0,38.0,12.0,137.0,2068.603
2068613.0,55.0,38.0,11.0,128.0,2068.613
2068623.0,56.0,41.0,12.0,137.0,2068.623
2068633.0,56.0,41.0,11.0,142.0,2068.633
2068643.0,55.0,40.0,12.0,150.0,2068.643
2068653.0,53.0,40.0,9.0,138.0,2068.653
2068663.0,52.0,39.0,10.0,128.0,2068.663
2068673.0,51.0,39.0,9.0,130.0,2068.673
2068683.0,52.0,39.0,10.0,126.0,2068.683
2068694.0,56.0,40.0,9.0,135.0,2068.694
2068704.0,56.0,42.0,18.0,124.0,2068.704
2068714.0,56.0,39.0,16.0,122.0,2068.714
2068724.0,58.0,40.0,15.0,132.0,2068.724
2068734.0,59.0,40.0,14.0,135.0,2068.734
2068744.0,61.0,40.0,13.0,124.0,2068.744
2068754.0,59.0,42.0,12.0,128.0,2068.754
2068764.0,59.0,41.0,12.0,131.0,2068.764
2068774.0,58.0,44.0,11.0,132.0,2068.774
2068784.0,59.0,42.0,10.0,126.0,2068.784
2068794.0,56.0,43.0,9.0,126.0,2068.794
2068804.0,59.0,42.0,9.0,122.0,2068.804
2068814.0,59.0,40.0,8.0,120.0,2068.814
2068824.0,57.0,40.0,6.0,115.0,2068.824
2068834.0,58.0,38.0,8.0,104.0,2068.834
2068844.0,56.0,39.0,7.0,102.0,2068.844
2068854.0,55.0,39.0,6.0,100.0,2068.854
2068864.0,56.0,39.0,8.0,108.0,2068.864
2068874.0,53.0,40.0,7.0,113.0,2068.874
2068884.0,55.0,40.0,7.0,124.0,2068.884
2068894.0,54.0,41.0,6.0,122.0,2068.894
2068904.0,55.0,42.0,8.0,121.0,2068.904
2068914.0,55.0,42.0,8.0,143.0,2068.914
2068924.0,53.0,42.0,8.0,139.0,2068.924
2068934.0,53.0,41.0,7.0,137.0,2068.934
2068944.0,54.0,43.0,7.0,127.0,2068.944
2068954.0,53.0,43.0,8.0,123.0,2068.954
2068964.0,52.0,42.0,6.0,154.0,2068.964
2068974.0,50.0,42.0,6.0,154.0,2068.974
2068984.0,51.0,41.0,6.0,145.0,2068.984
2068994.0,51.0,41.0,6.0,140.0,2068.994
2069004.0,51.0,42.0,5.0,128.0,2069.004
2069014.0,50.0,40.0,5.0,122.0,2069.014
2069024.0,49.0,41.0,7.0,122.0,2069.024
2069035.0,51.0,40.0,7.0,144.0,2069.035
2069045.0,54.0,41.0,6.0,134.0,2069.045
2069055.0,56.0,41.0,9.0,123.0,2069.055
2069065.0,56.0,41.0,9.0,116.0,2069.065
2069075.0,59.0,41.0,8.0,114.0,2069.075
2069085.0,59.0,39.0,7.0,118.0,2069.085
2069095.0,58.0,39.0,7.0,115.0,2069.095
2069105.0,59.0,40.0,8.0,120.0,2069.105
2069115.0,59.0,40.0,8.0,138.0,2069.115
2069125.0,55.0,39.0,6.0,130.0,2069.125
2069135.0,55.0,37.0,6.0,123.0,2069.135
2069145.0,54.0,39.0,10.0,123.0,2069.145
2069155.0,54.0,45.0,28.0,135.0,2069.155
2069165.0,63.0,50.0,56.0,142.0,2069.165
2069175.0,63.0,56.0,87.0,172.0,2069.175
2069185.0,85.0,64.0,153.0,188.0,2069.185
2069195.0,106.0,80.0,242.0,268.0,2069.195
2069206.0,108.0,80.0,233.0,253.0,2069.206
2069216.0,112.0,82.0,221.0,258.0,2069.216
2069226.0,105.0,80.0,211.0,248.0,2069.226
2069236.0,101.0,80.0,210.0,269.0,2069.236
2069246.0,101.0,80.0,212.0,258.0,2069.246
2069256.0,101.0,81.0,205.0,274.0,2069.256
2069266.0,96.0,79.0,193.0,266.0,2069.266
2069276.0,93.0,78.0,177.0,263.0,2069.276
2069286.0,94.0,78.0,173.0,249.0,2069.286
2069296.0,91.0,74.0,153.0,245.0,2069.296
2069306.0,91.0,78.0,148.0,259.0,2069.306
2069316.0,93.0,78.0,157.0,271.0,2069.316
2069326.0,91.0,74.0,145.0,270.0,2069.326
2069336.0,86.0,72.0,135.0,263.0,2069.336
2069346.0,84.0,69.0,129.0,252.0,2069.346
2069356.0,82.0,68.0,132.0,263.0,2069.356
2069366.0,85.0,73.0,135.0,262.0,2069.366
2069376.0,85.0,73.0,140.0,284.0,2069.376
2069386.0,83.0,68.0,128.0,264.0,2069.386
2069396.0,79.0,65.0,126.0,246.0,2069.396
2069406.0,80.0,63.0,115.0,237.0,2069.406
2069416.0,77.0,62.0,108.0,244.0,2069.416
2069426.0,80.0,64.0,116.0,259.0,2069.426
2069436.0,80.0,62.0,106.0,241.0,2069.436
2069446.0,75.0,62.0,101.0,228.0,2069.446
2069456.0,75.0,60.0,97.0,241.0,2069.456
2069466.0,74.0,58.0,85.0,243.0,2069.466
2069476.0,73.0,58.0,76.0,229.0,2069.476
2069486.0,72.0,58.0,66.0,231.0,2069.486
2069496.0,71.0,58.0,66.0,221.0,2069.496
2069506.0,69.0,59.0,63.0,227.0,2069.506
2069516.0,68.0,63.0,79.0,217.0,2069.516
2069526.0,69.0,60.0,71.0,207.0,2069.526
2069536.0,69.0,59.0,62.0,195.0,2069.536
2069547.0,68.0,59.0,61.0,185.0,2069.547
2069557.0,66.0,61.0,64.0,184.0,2069.557
2069567.0,66.0,60.0,59.0,182.0,2069.567
2069577.0,68.0,61.0,53.0,184.0,2069.577
2069587.0,67.0,63.0,51.0,181.0,2069.587
2069597.0,67.0,60.0,51.0,171.0,2069.597
2069607.0,67.0,60.0,45.0,168.0,2069.607
2069617.0,69.0,60.0,41.0,178.0,2069.617
2069627.0,68.0,65.0,64.0,183.0,2069.627
2069637.0,70.0,63.0,62.0,179.0,2069.637
2069647.0,70.0,63.0,60.0,165.0,2069.647
2069657.0,70.0,63.0,53.0,155.0,2069.657
2069667.0,69.0,62.0,55.0,164.0,2069.667
2069677.0,69.0,58.0,49.0,163.0,2069.677
2069687.0,68.0,60.0,45.0,152.0,2069.687
2069697.0,67.0,61.0,41.0,137.0,2069.697
2069707.0,66.0,62.0,48.0,140.0,2069.707
2069718.0,66.0,62.0,46.0,141.0,2069.718
2069728.0,68.0,61.0,45.0,151.0,2069.728
2069738.0,67.0,60.0,40.0,142.0,2069.738
2069748.0,67.0,58.0,36.0,142.0,2069.748
2069758.0,65.0,59.0,31.0,133.0,2069.758
2069768.0,67.0,58.0,32.0,130.0,2069.768
2069778.0,65.0,58.0,30.0,130.0,2069.778
2069788.0,63.0,58.0,29.0,145.0,2069.788
2069798.0,64.0,56.0,33.0,143.0,2069.798
2069808.0,65.0,55.0,31.0,136.0,2069.808
2069818.0,65.0,54.0,28.0,125.0,2069.818
2069828.0,66.0,53.0,26.0,125.0,2069.828
2069838.0,64.0,53.0,25.0,128.0,2069.838
2069848.0,64.0,55.0,26.0,130.0,2069.848
2069858.0,64.0,54.0,22.0,127.0,2069.858
2069868.0,64.0,51.0,22.0,121.0,2069.868
2069878.0,65.0,54.0,29.0,126.0,2069.878
2069888.0,63.0,54.0,27.0,142.0,2069.888
2069898.0,62.0,53.0,25.0,139.0,2069.898
2069908.0,61.0,53.0,25.0,135.0,2069.908
2069918.0,59.0,52.0,32.0,141.0,2069.918
2069928.0,60.0,50.0,30.0,138.0,2069.928
2069938.0,59.0,51.0,26.0,132.0,2069.938
2069948.0,60.0,49.0,25.0,129.0,2069.948
2069958.0,59.0,49.0,24.0,135.0,2069.958
2069968.0,59.0,48.0,34.0,139.0,2069.968
2069978.0,59.0,47.0,32.0,132.0,2069.978
2069988.0,59.0,46.0,29.0,128.0,2069.988
2069998.0,58.0,45.0,26.0,139.0,2069.998
2070008.0,56.0,47.0,32.0,149.0,2070.008
2070018.0,57.0,45.0,29.0,137.0,2070.018
2070028.0,57.0,45.0,27.0,136.0,2070.028
2070038.0,57.0,43.0,27.0,128.0,2070.038
2070048.0,58.0,43.0,25.0,131.0,2070.048
2070059.0,57.0,43.0,33.0,132.0,2070.059
2070069.0,60.0,42.0,34.0,141.0,2070.069
2070079.0,60.0,41.0,28.0,137.0,2070.079
2070089.0,60.0,44.0,31.0,129.0,2070.089
2070099.0,63.0,45.0,31.0,148.0,2070.099
2070109.0,61.0,45.0,27.0,140.0,2070.109
2070119.0,64.0,43.0,26.0,151.0,2070.119
2070129.0,63.0,45.0,36.0,144.0,2070.129
2070139.0,63.0,44.0,33.0,138.0,2070.139
2070149.0,62.0,45.0,30.0,134.0,2070.149
2070159.0,62.0,44.0,28.0,128.0,2070.159
2070169.0,63.0,45.0,25.0,135.0,2070.169
2070179.0,62.0,45.0,22.0,123.0,2070.179
2070189.0,63.0,46.0,26.0,132.0,2070.189
2070199.0,63.0,44.0,23.0,127.0,2070.199
2070209.0,61.0,44.0,22.0,125.0,2070.209
2070219.0,62.0,44.0,36.0,126.0,2070.219
2070230.0,62.0,44.0,32.0,122.0,2070.23
2070240.0,62.0,42.0,28.0,117.0,2070.24
2070250.0,64.0,43.0,27.0,114.0,2070.25
2070260.0,63.0,42.0,30.0,106.0,2070.26
2070270.0,63.0,43.0,26.0,109.0,2070.27
2070280.0,63.0,43.0,25.0,109.0,2070.28
2070290.0,63.0,45.0,24.0,121.0,2070.29
2070300.0,60.0,48.0,30.0,135.0,2070.3
2070310.0,63.0,45.0,28.0,124.0,2070.31
2070320.0,63.0,48.0,28.0,117.0,2070.32
2070330.0,64.0,47.0,24.0,110.0,2070.33
2070340.0,63.0,47.0,24.0,112.0,2070.34
2070350.0,61.0,48.0,21.0,107.0,2070.35
2070360.0,63.0,49.0,22.0,111.0,2070.36
2070370.0,62.0,50.0,19.0,108.0,2070.37
2070380.0,61.0,49.0,18.0,107.0,2070.38
2070390.0,61.0,49.0,20.0,103.0,2070.39
2070400.0,61.0,50.0,31.0,110.0,2070.4
2070410.0,61.0,49.0,38.0,108.0,2070.41
2070420.0,61.0,48.0,33.0,105.0,2070.42
2070430.0,61.0,49.0,31.0,100.0,2070.43
2070440.0,62.0,48.0,28.0,108.0,2070.44
2070450.0,62.0,46.0,25.0,107.0,2070.45
2070460.0,63.0,45.0,22.0,100.0,2070.46
2070470.0,62.0,47.0,19.0,98.0,2070.47
2070480.0,62.0,46.0,21.0,101.0,2070.48
2070490.0,61.0,46.0,20.0,112.0,2070.49
2070500.0,61.0,45.0,17.0,110.0,2070.5
2070510.0,61.0,45.0,26.0,106.0,2070.51
2070520.0,60.0,45.0,24.0,115.0,2070.52
2070530.0,59.0,44.0,23.0,114.0,2070.53
2070540.0,59.0,44.0,22.0,116.0,2070.54
2070550.0,59.0,44.0,23.0,115.0,2070.55
2070560.0,59.0,42.0,21.0,112.0,2070.56
2070571.0,57.0,42.0,18.0,117.0,2070.571
2070581.0,59.0,40.0,18.0,110.0,2070.581
2070591.0,57.0,40.0,18.0,109.0,2070.591
2070601.0,56.0,40.0,17.0,106.0,2070.601
2070611.0,58.0,39.0,18.0,98.0,2070.611
2070621.0,57.0,40.0,19.0,104.0,2070.621
2070631.0,58.0,40.0,22.0,107.0,2070.631
2070641.0,57.0,42.0,31.0,102.0,2070.641
2070651.0,57.0,41.0,28.0,113.0,2070.651
2070661.0,59.0,42.0,30.0,118.0,2070.661
2070671.0,58.0,44.0,30.0,115.0,2070.671
2070681.0,59.0,43.0,27.0,117.0,2070.681
2070691.0,57.0,44.0,24.0,120.0,2070.691
2070701.0,58.0,43.0,21.0,122.0,2070.701
2070711.0,56.0,42.0,20.0,122.0,2070.711
2070721.0,56.0,42.0,18.0,121.0,2070.721
2070731.0,57.0,40.0,17.0,120.0,2070.731
2070742.0,56.0,43.0,26.0,115.0,2070.742
2070752.0,54.0,41.0,28.0,108.0,2070.752
2070762.0,54.0,42.0,27.0,111.0,2070.762
2070772.0,56.0,42.0,23.0,104.0,2070.772
2070782.0,56.0,42.0,24.0,111.0,2070.782
2070792.0,57.0,42.0,21.0,115.0,2070.792
2070802.0,57.0,42.0,21.0,117.0,2070.802
2070812.0,56.0,40.0,17.0,117.0,2070.812
2070822.0,54.0,40.0,16.0,122.0,2070.822
2070832.0,54.0,40.0,16.0,125.0,2070.832
