time (ms),signal 0,signal 1,signal 2,signal3,time (sec)
2014849.0,81.0,201.0,5.0,147.0,2014.849
2014859.0,78.0,195.0,5.0,147.0,2014.859
2014869.0,76.0,187.0,5.0,145.0,2014.869
2014879.0,76.0,182.0,6.0,131.0,2014.879
2014889.0,75.0,177.0,16.0,126.0,2014.889
2014899.0,72.0,168.0,30.0,150.0,2014.899
2014909.0,69.0,160.0,31.0,165.0,2014.909
2014919.0,71.0,159.0,49.0,159.0,2014.919
2014929.0,68.0,153.0,58.0,164.0,2014.929
2014939.0,68.0,139.0,75.0,196.0,2014.939
2014949.0,64.0,130.0,80.0,205.0,2014.949
2014959.0,63.0,124.0,90.0,210.0,2014.959
2014969.0,62.0,120.0,82.0,205.0,2014.969
2014979.0,62.0,119.0,78.0,202.0,2014.979
2014989.0,64.0,120.0,89.0,205.0,2014.989
2014999.0,62.0,113.0,96.0,215.0,2014.999
2015009.0,61.0,109.0,120.0,246.0,2015.009
2015019.0,61.0,99.0,130.0,301.0,2015.019
2015029.0,59.0,94.0,119.0,313.0,2015.029
2015039.0,57.0,89.0,108.0,311.0,2015.039
2015049.0,54.0,86.0,95.0,312.0,2015.049
2015059.0,54.0,85.0,85.0,308.0,2015.059
2015069.0,53.0,84.0,81.0,307.0,2015.069
2015079.0,53.0,84.0,71.0,306.0,2015.079
2015089.0,52.0,82.0,64.0,297.0,2015.089
2015099.0,53.0,81.0,61.0,313.0,2015.099
2015109.0,55.0,82.0,58.0,309.0,2015.109
2015119.0,54.0,79.0,53.0,316.0,2015.119
2015129.0,53.0,78.0,50.0,327.0,2015.129
2015139.0,52.0,75.0,48.0,334.0,2015.139
2015149.0,51.0,75.0,46.0,334.0,2015.149
2015159.0,51.0,72.0,42.0,332.0,2015.159
2015169.0,51.0,68.0,42.0,329.0,2015.169
2015179.0,50.0,67.0,39.0,329.0,2015.179
2015190.0,51.0,66.0,39.0,328.0,2015.19
2015200.0,52.0,66.0,46.0,314.0,2015.2
2015210.0,50.0,62.0,52.0,318.0,2015.21
2015220.0,49.0,59.0,48.0,319.0,2015.22
2015230.0,49.0,56.0,43.0,315.0,2015.23
2015240.0,48.0,54.0,42.0,303.0,2015.24
2015250.0,47.0,52.0,40.0,304.0,2015.25
2015260.0,47.0,51.0,36.0,298.0,2015.26
2015270.0,46.0,49.0,32.0,288.0,2015.27
2015280.0,45.0,48.0,33.0,274.0,2015.28
2015290.0,46.0,47.0,48.0,273.0,2015.29
2015300.0,46.0,48.0,43.0,275.0,2015.3
2015310.0,45.0,44.0,38.0,270.0,2015.31
2015320.0,45.0,44.0,36.0,270.0,2015.32
2015330.0,44.0,42.0,32.0,264.0,2015.33
2015340.0,44.0,43.0,29.0,254.0,2015.34
2015350.0,44.0,41.0,26.0,249.0,2015.35
2015360.0,45.0,41.0,26.0,246.0,2015.36
2015370.0,44.0,41.0,23.0,243.0,2015.37
2015380.0,43.0,40.0,21.0,232.0,2015.38
2015390.0,43.0,39.0,23.0,227.0,2015.39
2015400.0,43.0,39.0,21.0,225.0,2015.4
2015410.0,44.0,39.0,19.0,214.0,2015.41
2015420.0,44.0,41.0,32.0,219.0,2015.42
2015430.0,44.0,41.0,28.0,216.0,2015.43
2015440.0,43.0,41.0,26.0,212.0,2015.44
2015450.0,43.0,42.0,24.0,206.0,2015.45
2015460.0,44.0,42.0,22.0,198.0,2015.46
2015470.0,44.0,42.0,20.0,188.0,2015.47
2015480.0,43.0,43.0,19.0,191.0,2015.48
2015490.0,44.0,43.0,17.0,190.0,2015.49
2015500.0,43.0,44.0,15.0,189.0,2015.5
2015510.0,42.0,44.0,14.0,177.0,2015.51
2015520.0,44.0,46.0,16.0,166.0,2015.52
2015531.0,45.0,44.0,17.0,165.0,2015.531
2015541.0,45.0,46.0,18.0,163.0,2015.541
2015551.0,45.0,48.0,24.0,160.0,2015.551
2015561.0,45.0,48.0,25.0,156.0,2015.561
2015571.0,44.0,48.0,22.0,155.0,2015.571
2015581.0,44.0,48.0,19.0,150.0,2015.581
2015591.0,45.0,47.0,17.0,144.0,2015.591
2015601.0,44.0,48.0,15.0,149.0,2015.601
2015611.0,44.0,46.0,14.0,140.0,2015.611
2015621.0,44.0,47.0,12.0,140.0,2015.621
2015631.0,44.0,47.0,13.0,139.0,2015.631
2015641.0,44.0,47.0,12.0,129.0,2015.641
2015651.0,44.0,47.0,10.0,134.0,2015.651
2015661.0,45.0,45.0,12.0,133.0,2015.661
2015671.0,45.0,47.0,21.0,131.0,2015.671
2015681.0,45.0,46.0,22.0,132.0,2015.681
2015691.0,44.0,47.0,19.0,134.0,2015.691
2015702.0,45.0,47.0,18.0,133.0,2015.702
2015712.0,45.0,45.0,16.0,130.0,2015.712
2015722.0,44.0,47.0,14.0,131.0,2015.722
2015732.0,45.0,45.0,13.0,129.0,2015.732
2015742.0,46.0,46.0,13.0,120.0,2015.742
2015752.0,46.0,47.0,14.0,120.0,2015.752
2015762.0,46.0,47.0,13.0,122.0,2015.762
2015772.0,45.0,48.0,12.0,121.0,2015.772
2015782.0,48.0,49.0,11.0,123.0,2015.782
2015792.0,46.0,49.0,10.0,122.0,2015.792
2015802.0,47.0,49.0,9.0,115.0,2015.802
2015812.0,47.0,50.0,8.0,111.0,2015.812
2015822.0,46.0,52.0,8.0,110.0,2015.822
2015832.0,47.0,52.0,8.0,114.0,2015.832
2015842.0,47.0,52.0,7.0,112.0,2015.842
2015852.0,47.0,53.0,7.0,114.0,2015.852
2015862.0,47.0,52.0,8.0,108.0,2015.862
2015872.0,46.0,53.0,7.0,103.0,2015.872
2015882.0,47.0,53.0,8.0,105.0,2015.882
2015892.0,47.0,56.0,6.0,107.0,2015.892
2015902.0,47.0,54.0,7.0,109.0,2015.902
2015912.0,47.0,54.0,6.0,106.0,2015.912
2015922.0,47.0,53.0,7.0,101.0,2015.922
2015932.0,48.0,54.0,6.0,102.0,2015.932
2015942.0,48.0,55.0,6.0,101.0,2015.942
2015952.0,48.0,58.0,5.0,97.0,2015.952
2015962.0,46.0,59.0,5.0,98.0,2015.962
2015972.0,48.0,59.0,5.0,92.0,2015.972
2015982.0,48.0,58.0,7.0,92.0,2015.982
2015992.0,46.0,60.0,6.0,92.0,2015.992
2016002.0,48.0,61.0,7.0,91.0,2016.002
2016012.0,46.0,62.0,6.0,89.0,2016.012
2016022.0,48.0,62.0,5.0,85.0,2016.022
2016032.0,47.0,63.0,5.0,81.0,2016.032
2016043.0,48.0,62.0,5.0,78.0,2016.043
2016053.0,49.0,60.0,5.0,82.0,2016.053
2016063.0,49.0,60.0,5.0,85.0,2016.063
2016073.0,49.0,61.0,5.0,80.0,2016.073
2016083.0,50.0,59.0,4.0,79.0,2016.083
2016093.0,50.0,59.0,4.0,74.0,2016.093
2016103.0,50.0,59.0,5.0,71.0,2016.103
2016113.0,51.0,59.0,4.0,83.0,2016.113
2016123.0,50.0,58.0,4.0,78.0,2016.123
2016133.0,51.0,57.0,4.0,79.0,2016.133
2016143.0,49.0,57.0,4.0,75.0,2016.143
2016153.0,51.0,58.0,5.0,73.0,2016.153
2016163.0,50.0,56.0,4.0,72.0,2016.163
2016173.0,51.0,57.0,5.0,70.0,2016.173
2016183.0,51.0,57.0,4.0,74.0,2016.183
2016193.0,50.0,56.0,3.0,71.0,2016.193
2016203.0,50.0,57.0,4.0,70.0,2016.203
2016214.0,50.0,57.0,5.0,68.0,2016.214
2016224.0,51.0,59.0,6.0,67.0,2016.224
2016234.0,50.0,59.0,4.0,71.0,2016.234
2016244.0,50.0,59.0,4.0,71.0,2016.244
2016254.0,50.0,59.0,4.0,70.0,2016.254
2016264.0,50.0,59.0,4.0,67.0,2016.264
2016274.0,51.0,58.0,5.0,64.0,2016.274
2016284.0,50.0,59.0,7.0,63.0,2016.284
2016294.0,50.0,59.0,7.0,66.0,2016.294
2016304.0,50.0,59.0,6.0,68.0,2016.304
2016314.0,50.0,59.0,6.0,70.0,2016.314
2016324.0,51.0,59.0,5.0,69.0,2016.324
2016334.0,52.0,59.0,6.0,67.0,2016.334
2016344.0,52.0,57.0,7.0,67.0,2016.344
2016354.0,52.0,58.0,6.0,68.0,2016.354
2016364.0,49.0,58.0,5.0,65.0,2016.364
2016374.0,50.0,59.0,6.0,64.0,2016.374
2016384.0,49.0,58.0,5.0,64.0,2016.384
2016394.0,49.0,57.0,6.0,63.0,2016.394
2016404.0,48.0,58.0,7.0,63.0,2016.404
2016414.0,47.0,58.0,6.0,66.0,2016.414
2016424.0,47.0,58.0,7.0,66.0,2016.424
2016434.0,47.0,60.0,6.0,66.0,2016.434
2016444.0,48.0,57.0,6.0,65.0,2016.444
2016454.0,48.0,57.0,5.0,65.0,2016.454
2016464.0,46.0,59.0,6.0,66.0,2016.464
2016474.0,47.0,61.0,6.0,64.0,2016.474
2016484.0,50.0,63.0,5.0,67.0,2016.484
2016494.0,51.0,61.0,5.0,74.0,2016.494
2016504.0,50.0,61.0,4.0,71.0,2016.504
2016514.0,49.0,59.0,4.0,70.0,2016.514
2016524.0,50.0,58.0,5.0,74.0,2016.524
2016534.0,52.0,59.0,4.0,69.0,2016.534
2016544.0,55.0,57.0,5.0,65.0,2016.544
2016555.0,55.0,59.0,5.0,65.0,2016.555
2016565.0,64.0,58.0,6.0,68.0,2016.565
2016575.0,66.0,54.0,6.0,70.0,2016.575
2016585.0,65.0,52.0,5.0,72.0,2016.585
2016595.0,76.0,54.0,6.0,69.0,2016.595
2016605.0,75.0,53.0,6.0,67.0,2016.605
2016615.0,82.0,58.0,5.0,65.0,2016.615
2016625.0,93.0,63.0,5.0,62.0,2016.625
2016635.0,100.0,64.0,6.0,68.0,2016.635
2016645.0,96.0,60.0,8.0,74.0,2016.645
2016655.0,97.0,58.0,8.0,78.0,2016.655
2016665.0,137.0,73.0,15.0,80.0,2016.665
2016675.0,141.0,70.0,16.0,97.0,2016.675
2016685.0,138.0,71.0,20.0,115.0,2016.685
2016695.0,181.0,83.0,21.0,112.0,2016.695
2016705.0,182.0,80.0,18.0,116.0,2016.705
2016715.0,167.0,79.0,18.0,116.0,2016.715
2016726.0,150.0,79.0,21.0,122.0,2016.726
2016736.0,139.0,78.0,21.0,120.0,2016.736
2016746.0,134.0,81.0,26.0,143.0,2016.746
2016756.0,137.0,84.0,26.0,137.0,2016.756
2016766.0,135.0,85.0,30.0,133.0,2016.766
2016776.0,132.0,92.0,33.0,143.0,2016.776
2016786.0,131.0,97.0,35.0,138.0,2016.786
2016796.0,126.0,93.0,35.0,143.0,2016.796
2016806.0,114.0,86.0,41.0,192.0,2016.806
2016816.0,111.0,86.0,43.0,231.0,2016.816
2016826.0,106.0,84.0,39.0,246.0,2016.826
2016836.0,103.0,82.0,35.0,247.0,2016.836
2016846.0,99.0,79.0,32.0,264.0,2016.846
2016856.0,98.0,79.0,32.0,244.0,2016.856
2016866.0,98.0,77.0,35.0,226.0,2016.866
2016876.0,98.0,77.0,39.0,208.0,2016.876
2016886.0,98.0,77.0,34.0,203.0,2016.886
2016896.0,96.0,79.0,32.0,195.0,2016.896
2016906.0,95.0,79.0,32.0,190.0,2016.906
2016916.0,95.0,79.0,32.0,181.0,2016.916
2016926.0,96.0,84.0,33.0,177.0,2016.926
2016936.0,94.0,82.0,31.0,231.0,2016.936
2016946.0,95.0,82.0,27.0,228.0,2016.946
2016956.0,102.0,83.0,28.0,225.0,2016.956
2016966.0,99.0,80.0,26.0,222.0,2016.966
2016976.0,98.0,80.0,26.0,205.0,2016.976
2016986.0,102.0,80.0,25.0,197.0,2016.986
2016996.0,101.0,78.0,26.0,187.0,2016.996
2017006.0,98.0,76.0,27.0,207.0,2017.006
2017016.0,100.0,74.0,24.0,222.0,2017.016
2017026.0,99.0,72.0,25.0,206.0,2017.026
2017036.0,98.0,68.0,25.0,191.0,2017.036
2017046.0,101.0,69.0,26.0,184.0,2017.046
2017056.0,98.0,65.0,24.0,193.0,2017.056
2017067.0,98.0,61.0,24.0,193.0,2017.067
2017077.0,97.0,59.0,24.0,188.0,2017.077
2017087.0,95.0,56.0,24.0,170.0,2017.087
2017097.0,96.0,54.0,27.0,178.0,2017.097
2017107.0,96.0,53.0,24.0,194.0,2017.107
2017117.0,94.0,51.0,25.0,185.0,2017.117
2017127.0,92.0,50.0,24.0,185.0,2017.127
2017137.0,91.0,47.0,23.0,186.0,2017.137
2017147.0,91.0,48.0,24.0,186.0,2017.147
2017157.0,87.0,47.0,23.0,180.0,2017.157
2017167.0,87.0,46.0,22.0,172.0,2017.167
2017177.0,85.0,45.0,23.0,170.0,2017.177
2017187.0,84.0,43.0,22.0,170.0,2017.187
2017197.0,90.0,46.0,19.0,167.0,2017.197
2017207.0,86.0,45.0,20.0,156.0,2017.207
2017217.0,84.0,45.0,21.0,158.0,2017.217
2017227.0,82.0,44.0,22.0,154.0,2017.227
2017238.0,80.0,44.0,21.0,154.0,2017.238
2017248.0,76.0,44.0,19.0,151.0,2017.248
2017258.0,81.0,44.0,19.0,149.0,2017.258
2017268.0,78.0,45.0,17.0,143.0,2017.268
2017278.0,76.0,44.0,16.0,133.0,2017.278
2017288.0,73.0,47.0,17.0,139.0,2017.288
2017298.0,73.0,47.0,16.0,140.0,2017.298
2017308.0,73.0,47.0,15.0,145.0,2017.308
2017318.0,72.0,47.0,17.0,166.0,2017.318
2017328.0,69.0,49.0,16.0,157.0,2017.328
2017338.0,70.0,48.0,15.0,157.0,2017.338
2017348.0,72.0,47.0,14.0,149.0,2017.348
2017358.0,74.0,47.0,15.0,147.0,2017.358
2017368.0,73.0,49.0,15.0,141.0,2017.368
2017378.0,71.0,47.0,13.0,141.0,2017.378
2017388.0,72.0,46.0,12.0,134.0,2017.388
2017398.0,74.0,46.0,12.0,140.0,2017.398
2017408.0,76.0,45.0,12.0,139.0,2017.408
2017418.0,72.0,46.0,12.0,142.0,2017.418
2017428.0,74.0,47.0,11.0,143.0,2017.428
2017438.0,72.0,47.0,12.0,149.0,2017.438
2017448.0,69.0,49.0,11.0,170.0,2017.448
2017458.0,68.0,48.0,10.0,162.0,2017.458
2017468.0,70.0,48.0,12.0,160.0,2017.468
2017478.0,70.0,49.0,11.0,159.0,2017.478
2017488.0,73.0,49.0,11.0,153.0,2017.488
2017498.0,70.0,51.0,10.0,147.0,2017.498
2017508.0,71.0,52.0,9.0,148.0,2017.508
2017518.0,69.0,55.0,9.0,150.0,2017.518
2017528.0,69.0,54.0,8.0,158.0,2017.528
2017538.0,66.0,55.0,8.0,151.0,2017.538
2017548.0,65.0,56.0,9.0,148.0,2017.548
2017558.0,67.0,55.0,8.0,147.0,2017.558
2017568.0,64.0,55.0,7.0,150.0,2017.568
2017579.0,66.0,55.0,10.0,137.0,2017.579
2017589.0,63.0,57.0,9.0,146.0,2017.589
2017599.0,65.0,56.0,8.0,138.0,2017.599
2017609.0,67.0,53.0,11.0,146.0,2017.609
2017619.0,64.0,54.0,10.0,149.0,2017.619
2017629.0,66.0,55.0,11.0,169.0,2017.629
2017639.0,64.0,54.0,10.0,163.0,2017.639
2017649.0,60.0,53.0,8.0,163.0,2017.649
2017659.0,60.0,52.0,8.0,166.0,2017.659
2017669.0,59.0,52.0,11.0,158.0,2017.669
2017679.0,62.0,52.0,12.0,149.0,2017.679
2017689.0,63.0,51.0,13.0,154.0,2017.689
2017699.0,62.0,51.0,12.0,147.0,2017.699
2017709.0,65.0,51.0,11.0,152.0,2017.709
2017719.0,62.0,55.0,10.0,152.0,2017.719
2017729.0,61.0,53.0,15.0,141.0,2017.729
2017739.0,60.0,54.0,13.0,132.0,2017.739
2017750.0,59.0,56.0,13.0,130.0,2017.75
2017760.0,58.0,55.0,13.0,130.0,2017.76
2017770.0,68.0,57.0,13.0,127.0,2017.77
2017780.0,68.0,58.0,12.0,129.0,2017.78
2017790.0,66.0,58.0,10.0,127.0,2017.79
2017800.0,65.0,57.0,9.0,119.0,2017.8
2017810.0,63.0,58.0,9.0,124.0,2017.81
2017820.0,62.0,57.0,8.0,128.0,2017.82
2017830.0,65.0,56.0,11.0,132.0,2017.83
2017840.0,63.0,57.0,9.0,125.0,2017.84
2017850.0,64.0,57.0,11.0,123.0,2017.85
2017860.0,64.0,56.0,9.0,121.0,2017.86
2017870.0,66.0,56.0,9.0,127.0,2017.87
2017880.0,64.0,57.0,10.0,123.0,2017.88
2017890.0,64.0,58.0,10.0,121.0,2017.89
2017900.0,63.0,56.0,9.0,114.0,2017.9
2017910.0,63.0,55.0,13.0,117.0,2017.91
2017920.0,69.0,56.0,15.0,118.0,2017.92
2017930.0,71.0,58.0,14.0,117.0,2017.93
2017940.0,70.0,57.0,14.0,111.0,2017.94
2017950.0,67.0,55.0,16.0,103.0,2017.95
2017960.0,67.0,55.0,15.0,101.0,2017.96
2017970.0,67.0,54.0,13.0,102.0,2017.97
2017980.0,65.0,51.0,14.0,97.0,2017.98
2017990.0,63.0,51.0,15.0,94.0,2017.99
2018000.0,71.0,52.0,14.0,101.0,2018.0
2018010.0,70.0,53.0,14.0,110.0,2018.01
2018020.0,67.0,53.0,16.0,103.0,2018.02
2018030.0,65.0,52.0,15.0,105.0,2018.03
2018040.0,64.0,51.0,13.0,100.0,2018.04
2018050.0,67.0,48.0,16.0,102.0,2018.05
2018060.0,66.0,48.0,14.0,102.0,2018.06
2018070.0,65.0,47.0,13.0,100.0,2018.07
2018080.0,65.0,45.0,13.0,91.0,2018.08
2018091.0,68.0,45.0,10.0,87.0,2018.091
2018101.0,65.0,43.0,13.0,100.0,2018.101
2018111.0,62.0,43.0,12.0,104.0,2018.111
2018121.0,63.0,44.0,14.0,124.0,2018.121
2018131.0,62.0,43.0,13.0,127.0,2018.131
2018141.0,62.0,44.0,13.0,134.0,2018.141
2018151.0,61.0,43.0,11.0,127.0,2018.151
2018161.0,59.0,43.0,9.0,117.0,2018.161
2018171.0,64.0,45.0,9.0,115.0,2018.171
2018181.0,63.0,45.0,8.0,118.0,2018.181
2018191.0,64.0,47.0,7.0,116.0,2018.191
2018201.0,62.0,46.0,8.0,110.0,2018.201
2018211.0,61.0,47.0,8.0,108.0,2018.211
2018221.0,59.0,47.0,9.0,105.0,2018.221
2018231.0,58.0,49.0,6.0,111.0,2018.231
2018241.0,56.0,52.0,11.0,108.0,2018.241
2018251.0,59.0,52.0,10.0,112.0,2018.251
2018262.0,57.0,55.0,10.0,112.0,2018.262
2018272.0,60.0,54.0,10.0,103.0,2018.272
2018282.0,65.0,59.0,9.0,102.0,2018.282
2018292.0,64.0,58.0,9.0,103.0,2018.292
2018302.0,62.0,59.0,12.0,106.0,2018.302
2018312.0,59.0,59.0,18.0,120.0,2018.312
2018322.0,61.0,59.0,16.0,119.0,2018.322
2018332.0,62.0,61.0,14.0,111.0,2018.332
2018342.0,69.0,62.0,18.0,108.0,2018.342
2018352.0,67.0,60.0,16.0,109.0,2018.352
2018362.0,64.0,61.0,14.0,118.0,2018.362
2018372.0,62.0,62.0,13.0,111.0,2018.372
2018382.0,64.0,63.0,12.0,108.0,2018.382
2018392.0,64.0,64.0,12.0,100.0,2018.392
2018402.0,62.0,64.0,12.0,107.0,2018.402
2018412.0,59.0,65.0,11.0,122.0,2018.412
2018422.0,58.0,63.0,11.0,119.0,2018.422
2018432.0,55.0,65.0,9.0,119.0,2018.432
2018442.0,54.0,66.0,10.0,120.0,2018.442
2018452.0,52.0,66.0,10.0,126.0,2018.452
2018462.0,57.0,68.0,12.0,132.0,2018.462
2018472.0,64.0,68.0,12.0,131.0,2018.472
2018482.0,62.0,69.0,11.0,123.0,2018.482
2018492.0,62.0,68.0,12.0,124.0,2018.492
2018502.0,61.0,67.0,9.0,124.0,2018.502
2018512.0,60.0,69.0,10.0,118.0,2018.512
2018522.0,59.0,67.0,10.0,126.0,2018.522
2018532.0,56.0,69.0,9.0,123.0,2018.532
2018542.0,56.0,68.0,9.0,129.0,2018.542
2018552.0,55.0,70.0,9.0,141.0,2018.552
2018562.0,55.0,70.0,7.0,128.0,2018.562
2018572.0,54.0,70.0,8.0,126.0,2018.572
2018582.0,52.0,71.0,7.0,118.0,2018.582
2018592.0,57.0,73.0,8.0,114.0,2018.592
2018603.0,58.0,73.0,6.0,113.0,2018.603
2018613.0,58.0,74.0,6.0,119.0,2018.613
2018623.0,58.0,74.0,6.0,118.0,2018.623
2018633.0,59.0,74.0,6.0,113.0,2018.633
2018643.0,61.0,74.0,6.0,121.0,2018.643
2018653.0,62.0,73.0,6.0,134.0,2018.653
2018663.0,61.0,73.0,6.0,133.0,2018.663
2018673.0,63.0,72.0,5.0,131.0,2018.673
2018683.0,67.0,71.0,5.0,143.0,2018.683
2018693.0,65.0,72.0,5.0,132.0,2018.693
2018703.0,67.0,72.0,7.0,130.0,2018.703
2018713.0,68.0,70.0,9.0,135.0,2018.713
2018723.0,69.0,71.0,12.0,135.0,2018.723
2018733.0,70.0,71.0,11.0,129.0,2018.733
2018743.0,72.0,71.0,10.0,122.0,2018.743
2018753.0,72.0,70.0,7.0,127.0,2018.753
2018763.0,71.0,69.0,10.0,132.0,2018.763
2018774.0,73.0,70.0,9.0,130.0,2018.774
2018784.0,75.0,68.0,8.0,136.0,2018.784
2018794.0,75.0,68.0,8.0,135.0,2018.794
2018804.0,74.0,68.0,7.0,136.0,2018.804
2018814.0,75.0,67.0,8.0,124.0,2018.814
2018824.0,72.0,69.0,8.0,119.0,2018.824
2018834.0,71.0,69.0,8.0,117.0,2018.834
2018844.0,72.0,69.0,8.0,109.0,2018.844
2018854.0,71.0,70.0,7.0,115.0,2018.854
2018864.0,71.0,70.0,8.0,113.0,2018.864
2018874.0,73.0,75.0,7.0,116.0,2018.874
2018884.0,77.0,73.0,8.0,111.0,2018.884
2018894.0,76.0,75.0,7.0,113.0,2018.894
2018904.0,78.0,76.0,7.0,126.0,2018.904
2018914.0,76.0,75.0,6.0,120.0,2018.914
2018924.0,74.0,77.0,5.0,115.0,2018.924
2018934.0,75.0,77.0,6.0,118.0,2018.934
2018944.0,77.0,77.0,5.0,128.0,2018.944
2018954.0,77.0,76.0,5.0,122.0,2018.954
2018964.0,77.0,75.0,6.0,123.0,2018.964
2018974.0,76.0,74.0,4.0,127.0,2018.974
2018984.0,73.0,75.0,5.0,137.0,2018.984
2018994.0,70.0,78.0,5.0,138.0,2018.994
2019004.0,66.0,80.0,9.0,130.0,2019.004
2019014.0,67.0,76.0,8.0,128.0,2019.014
2019024.0,67.0,76.0,7.0,135.0,2019.024
2019034.0,68.0,74.0,8.0,131.0,2019.034
2019044.0,64.0,75.0,6.0,121.0,2019.044
2019054.0,63.0,75.0,6.0,113.0,2019.054
2019064.0,62.0,73.0,9.0,102.0,2019.064
2019074.0,63.0,75.0,9.0,97.0,2019.074
2019084.0,63.0,76.0,8.0,94.0,2019.084
2019094.0,65.0,75.0,7.0,114.0,2019.094
2019104.0,65.0,75.0,7.0,112.0,2019.104
2019115.0,66.0,72.0,6.0,126.0,2019.115
2019125.0,63.0,74.0,6.0,131.0,2019.125
2019135.0,63.0,72.0,6.0,134.0,2019.135
2019145.0,63.0,73.0,6.0,124.0,2019.145
2019155.0,64.0,71.0,5.0,116.0,2019.155
2019165.0,63.0,71.0,5.0,115.0,2019.165
2019175.0,61.0,72.0,6.0,112.0,2019.175
2019185.0,66.0,72.0,8.0,110.0,2019.185
2019195.0,66.0,74.0,7.0,107.0,2019.195
2019205.0,64.0,73.0,7.0,104.0,2019.205
2019215.0,66.0,74.0,6.0,111.0,2019.215
2019225.0,66.0,75.0,6.0,112.0,2019.225
2019235.0,64.0,76.0,6.0,120.0,2019.235
2019245.0,65.0,76.0,5.0,127.0,2019.245
2019255.0,66.0,75.0,6.0,125.0,2019.255
2019265.0,66.0,75.0,6.0,135.0,2019.265
2019275.0,67.0,75.0,7.0,123.0,2019.275
2019286.0,69.0,75.0,7.0,114.0,2019.286
2019296.0,67.0,75.0,7.0,111.0,2019.296
2019306.0,67.0,74.0,7.0,102.0,2019.306
2019316.0,65.0,75.0,7.0,110.0,2019.316
2019326.0,68.0,72.0,10.0,111.0,2019.326
2019336.0,68.0,72.0,10.0,104.0,2019.336
2019346.0,68.0,69.0,8.0,96.0,2019.346
2019356.0,67.0,73.0,25.0,108.0,2019.356
2019366.0,67.0,87.0,107.0,175.0,2019.366
2019376.0,67.0,94.0,135.0,218.0,2019.376
2019386.0,71.0,113.0,242.0,308.0,2019.386
2019396.0,83.0,112.0,285.0,317.0,2019.396
2019406.0,96.0,111.0,277.0,308.0,2019.406
2019416.0,99.0,111.0,300.0,341.0,2019.416
2019426.0,102.0,111.0,338.0,323.0,2019.426
2019436.0,109.0,106.0,308.0,313.0,2019.436
2019446.0,113.0,104.0,287.0,298.0,2019.446
2019456.0,115.0,106.0,287.0,310.0,2019.456
2019466.0,113.0,115.0,278.0,292.0,2019.466
2019476.0,117.0,118.0,249.0,303.0,2019.476
2019486.0,115.0,129.0,225.0,291.0,2019.486
2019496.0,112.0,142.0,236.0,294.0,2019.496
2019506.0,113.0,149.0,236.0,282.0,2019.506
2019516.0,110.0,160.0,216.0,311.0,2019.516
2019526.0,115.0,166.0,217.0,317.0,2019.526
2019536.0,112.0,174.0,196.0,292.0,2019.536
2019546.0,112.0,181.0,178.0,278.0,2019.546
2019556.0,112.0,187.0,176.0,270.0,2019.556
2019566.0,109.0,194.0,175.0,267.0,2019.566
2019576.0,110.0,198.0,164.0,256.0,2019.576
2019586.0,111.0,202.0,161.0,260.0,2019.586
2019596.0,108.0,207.0,167.0,261.0,2019.596
2019606.0,108.0,208.0,165.0,253.0,2019.606
2019616.0,108.0,210.0,147.0,257.0,2019.616
2019627.0,110.0,210.0,147.0,265.0,2019.627
2019637.0,106.0,210.0,149.0,257.0,2019.637
2019647.0,110.0,211.0,144.0,259.0,2019.647
2019657.0,112.0,211.0,146.0,265.0,2019.657
2019667.0,112.0,208.0,138.0,263.0,2019.667
2019677.0,111.0,207.0,142.0,249.0,2019.677
2019687.0,114.0,199.0,136.0,258.0,2019.687
2019697.0,112.0,198.0,134.0,262.0,2019.697
2019707.0,112.0,193.0,122.0,268.0,2019.707
2019717.0,112.0,189.0,118.0,271.0,2019.717
2019727.0,112.0,185.0,112.0,272.0,2019.727
2019737.0,108.0,183.0,114.0,265.0,2019.737
2019747.0,109.0,179.0,107.0,277.0,2019.747
2019757.0,110.0,173.0,104.0,307.0,2019.757
2019767.0,105.0,173.0,109.0,280.0,2019.767
2019777.0,108.0,164.0,95.0,284.0,2019.777
2019787.0,106.0,161.0,84.0,291.0,2019.787
2019798.0,105.0,156.0,77.0,294.0,2019.798
2019808.0,101.0,155.0,88.0,272.0,2019.808
2019818.0,102.0,147.0,79.0,268.0,2019.818
2019828.0,100.0,142.0,73.0,261.0,2019.828
2019838.0,97.0,138.0,78.0,267.0,2019.838
2019848.0,98.0,132.0,75.0,261.0,2019.848
2019858.0,94.0,129.0,68.0,259.0,2019.858
2019868.0,92.0,125.0,69.0,268.0,2019.868
2019878.0,90.0,122.0,67.0,251.0,2019.878
2019888.0,88.0,118.0,60.0,249.0,2019.888
2019898.0,86.0,114.0,55.0,262.0,2019.898
2019908.0,85.0,111.0,57.0,264.0,2019.908
2019918.0,85.0,108.0,53.0,267.0,2019.918
2019928.0,84.0,106.0,50.0,268.0,2019.928
2019938.0,82.0,103.0,50.0,257.0,2019.938
2019948.0,82.0,98.0,48.0,254.0,2019.948
2019958.0,80.0,97.0,45.0,242.0,2019.958
2019968.0,80.0,92.0,43.0,256.0,2019.968
2019978.0,79.0,90.0,46.0,260.0,2019.978
2019988.0,77.0,88.0,43.0,254.0,2019.988
2019998.0,77.0,86.0,52.0,247.0,2019.998
2020008.0,75.0,83.0,51.0,242.0,2020.008
2020018.0,76.0,78.0,46.0,245.0,2020.018
2020028.0,77.0,75.0,41.0,242.0,2020.028
2020038.0,77.0,73.0,43.0,254.0,2020.038
2020048.0,76.0,70.0,38.0,241.0,2020.048
2020058.0,76.0,69.0,44.0,247.0,2020.058
2020068.0,77.0,64.0,45.0,246.0,2020.068
2020078.0,75.0,62.0,40.0,251.0,2020.078
2020088.0,74.0,60.0,36.0,246.0,2020.088
2020098.0,73.0,57.0,36.0,256.0,2020.098
2020108.0,73.0,57.0,35.0,254.0,2020.108
2020118.0,71.0,55.0,40.0,244.0,2020.118
2020128.0,71.0,52.0,37.0,249.0,2020.128
2020139.0,68.0,52.0,34.0,246.0,2020.139
2020149.0,68.0,50.0,31.0,236.0,2020.149
2020159.0,66.0,50.0,32.0,232.0,2020.159
2020169.0,65.0,50.0,31.0,229.0,2020.169
2020179.0,65.0,52.0,34.0,231.0,2020.179
2020189.0,65.0,51.0,45.0,239.0,2020.189
2020199.0,65.0,48.0,42.0,220.0,2020.199
2020209.0,63.0,47.0,41.0,229.0,2020.209
2020219.0,65.0,46.0,37.0,238.0,2020.219
2020229.0,63.0,45.0,38.0,222.0,2020.229
2020239.0,62.0,45.0,39.0,226.0,2020.239
2020249.0,62.0,47.0,43.0,220.0,2020.249
2020259.0,62.0,49.0,49.0,222.0,2020.259
2020269.0,61.0,46.0,44.0,223.0,2020.269
2020279.0,60.0,46.0,39.0,217.0,2020.279
2020289.0,58.0,45.0,38.0,223.0,2020.289
2020299.0,57.0,43.0,34.0,221.0,2020.299
2020310.0,54.0,44.0,34.0,224.0,2020.31
2020320.0,56.0,44.0,41.0,223.0,2020.32
2020330.0,55.0,45.0,38.0,215.0,2020.33
2020340.0,55.0,43.0,38.0,202.0,2020.34
2020350.0,54.0,42.0,35.0,200.0,2020.35
2020360.0,53.0,43.0,31.0,198.0,2020.36
2020370.0,53.0,42.0,30.0,195.0,2020.37
2020380.0,51.0,43.0,28.0,194.0,2020.38
2020390.0,52.0,44.0,34.0,205.0,2020.39
2020400.0,51.0,45.0,33.0,211.0,2020.4
2020410.0,51.0,45.0,34.0,195.0,2020.41
2020420.0,51.0,46.0,35.0,193.0,2020.42
2020430.0,50.0,47.0,32.0,202.0,2020.43
2020440.0,49.0,45.0,35.0,202.0,2020.44
2020450.0,50.0,46.0,32.0,198.0,2020.45
2020460.0,49.0,45.0,34.0,194.0,2020.46
2020470.0,49.0,45.0,37.0,189.0,2020.47
2020480.0,49.0,46.0,39.0,187.0,2020.48
2020490.0,48.0,45.0,36.0,180.0,2020.49
2020500.0,47.0,44.0,32.0,176.0,2020.5
2020510.0,47.0,44.0,36.0,190.0,2020.51
2020520.0,49.0,46.0,32.0,203.0,2020.52
2020530.0,47.0,46.0,28.0,210.0,2020.53
2020540.0,46.0,45.0,27.0,202.0,2020.54
2020550.0,46.0,47.0,35.0,191.0,2020.55
2020560.0,47.0,46.0,39.0,177.0,2020.56
2020570.0,49.0,49.0,36.0,179.0,2020.57
2020580.0,48.0,47.0,37.0,180.0,2020.58
2020590.0,48.0,46.0,35.0,178.0,2020.59
2020600.0,48.0,47.0,39.0,175.0,2020.6
2020610.0,48.0,46.0,34.0,172.0,2020.61
2020620.0,47.0,45.0,33.0,169.0,2020.62
2020630.0,47.0,45.0,38.0,165.0,2020.63
2020640.0,47.0,44.0,34.0,160.0,2020.64
2020651.0,46.0,43.0,36.0,158.0,2020.651
2020661.0,45.0,43.0,39.0,160.0,2020.661
2020671.0,48.0,43.0,38.0,167.0,2020.671
2020681.0,46.0,45.0,39.0,174.0,2020.681
2020691.0,47.0,44.0,40.0,169.0,2020.691
2020701.0,46.0,45.0,39.0,165.0,2020.701
2020711.0,47.0,43.0,35.0,161.0,2020.711
2020721.0,47.0,43.0,32.0,164.0,2020.721
2020731.0,47.0,43.0,29.0,168.0,2020.731
2020741.0,48.0,44.0,47.0,166.0,2020.741
2020751.0,48.0,46.0,44.0,159.0,2020.751
2020761.0,49.0,46.0,39.0,148.0,2020.761
2020771.0,49.0,47.0,35.0,155.0,2020.771
2020781.0,48.0,45.0,31.0,152.0,2020.781
2020791.0,48.0,44.0,33.0,155.0,2020.791
2020801.0,47.0,43.0,29.0,151.0,2020.801
2020811.0,47.0,44.0,36.0,147.0,2020.811
2020822.0,47.0,43.0,33.0,139.0,2020.822
2020832.0,48.0,46.0,34.0,148.0,2020.832
2020842.0,47.0,44.0,30.0,145.0,2020.842
2020852.0,47.0,44.0,28.0,142.0,2020.852
2020862.0,47.0,42.0,25.0,144.0,2020.862
2020872.0,45.0,41.0,23.0,142.0,2020.872
2020882.0,46.0,40.0,26.0,139.0,2020.882
2020892.0,47.0,42.0,31.0,138.0,2020.892
2020902.0,46.0,42.0,28.0,133.0,2020.902
2020912.0,46.0,41.0,27.0,130.0,2020.912
2020922.0,46.0,42.0,24.0,119.0,2020.922
2020932.0,46.0,41.0,27.0,118.0,2020.932
2020942.0,47.0,40.0,35.0,131.0,2020.942
2020952.0,45.0,41.0,33.0,139.0,2020.952
2020962.0,47.0,41.0,36.0,130.0,2020.962
2020972.0,46.0,42.0,38.0,127.0,2020.972
2020982.0,46.0,41.0,35.0,121.0,2020.982
2020992.0,48.0,41.0,33.0,117.0,2020.992
2021002.0,47.0,41.0,31.0,115.0,2021.002
2021012.0,48.0,39.0,30.0,115.0,2021.012
2021022.0,46.0,40.0,32.0,118.0,2021.022
2021032.0,48.0,40.0,35.0,117.0,2021.032
2021042.0,48.0,42.0,36.0,118.0,2021.042
2021052.0,48.0,41.0,34.0,113.0,2021.052
2021062.0,48.0,40.0,31.0,116.0,2021.062
2021072.0,48.0,42.0,29.0,122.0,2021.072
2021082.0,48.0,39.0,25.0,118.0,2021.082
2021092.0,49.0,41.0,32.0,123.0,2021.092
2021102.0,47.0,41.0,28.0,126.0,2021.102
2021112.0,49.0,41.0,28.0,119.0,2021.112
2021122.0,48.0,41.0,34.0,120.0,2021.122
2021132.0,48.0,41.0,35.0,137.0,2021.132
2021142.0,48.0,44.0,35.0,138.0,2021.142
2021152.0,47.0,44.0,30.0,140.0,2021.152
2021163.0,47.0,42.0,26.0,132.0,2021.163
2021173.0,45.0,43.0,23.0,122.0,2021.173
2021183.0,48.0,46.0,27.0,144.0,2021.183
2021193.0,47.0,44.0,26.0,159.0,2021.193
2021203.0,48.0,45.0,26.0,156.0,2021.203
2021213.0,46.0,45.0,26.0,148.0,2021.213
2021223.0,45.0,46.0,24.0,144.0,2021.223
2021233.0,46.0,44.0,25.0,142.0,2021.233
2021243.0,47.0,43.0,25.0,144.0,2021.243
2021253.0,48.0,45.0,33.0,140.0,2021.253
2021263.0,48.0,45.0,33.0,141.0,2021.263
2021273.0,48.0,45.0,29.0,131.0,2021.273
2021283.0,50.0,44.0,31.0,131.0,2021.283
2021293.0,50.0,45.0,32.0,130.0,2021.293
2021303.0,50.0,46.0,28.0,129.0,2021.303
2021313.0,52.0,45.0,24.0,134.0,2021.313
2021323.0,51.0,46.0,21.0,126.0,2021.323
2021334.0,54.0,47.0,30.0,114.0,2021.334
2021344.0,52.0,47.0,26.0,105.0,2021.344
2021354.0,53.0,47.0,24.0,109.0,2021.354
2021364.0,54.0,46.0,24.0,111.0,2021.364
2021374.0,53.0,45.0,23.0,104.0,2021.374
2021384.0,54.0,44.0,28.0,98.0,2021.384
2021394.0,53.0,45.0,26.0,98.0,2021.394
2021404.0,53.0,46.0,31.0,94.0,2021.404
2021414.0,51.0,47.0,27.0,99.0,2021.414
2021424.0,51.0,44.0,24.0,99.0,2021.424
2021434.0,51.0,43.0,21.0,97.0,2021.434
2021444.0,51.0,43.0,20.0,99.0,2021.444
2021454.0,53.0,41.0,23.0,103.0,2021.454
2021464.0,52.0,42.0,20.0,100.0,2021.464
2021474.0,53.0,42.0,22.0,96.0,2021.474
2021484.0,53.0,40.0,20.0,102.0,2021.484
2021494.0,52.0,44.0,31.0,105.0,2021.494
2021504.0,53.0,44.0,31.0,105.0,2021.504
2021514.0,54.0,44.0,27.0,106.0,2021.514
2021524.0,54.0,44.0,24.0,104.0,2021.524
2021534.0,54.0,44.0,22.0,107.0,2021.534
2021544.0,56.0,44.0,21.0,100.0,2021.544
2021554.0,55.0,43.0,22.0,100.0,2021.554
2021564.0,56.0,44.0,28.0,93.0,2021.564
2021574.0,55.0,42.0,29.0,100.0,2021.574
2021584.0,55.0,41.0,26.0,105.0,2021.584
2021594.0,53.0,40.0,25.0,103.0,2021.594
2021604.0,53.0,41.0,23.0,104.0,2021.604
2021614.0,52.0,40.0,20.0,99.0,2021.614
2021624.0,51.0,38.0,19.0,93.0,2021.624
2021634.0,51.0,39.0,19.0,93.0,2021.634
2021644.0,51.0,42.0,18.0,95.0,2021.644
2021654.0,52.0,44.0,29.0,98.0,2021.654
2021664.0,51.0,46.0,27.0,103.0,2021.664
2021675.0,50.0,46.0,23.0,106.0,2021.675
2021685.0,50.0,46.0,21.0,118.0,2021.685
2021695.0,49.0,47.0,20.0,117.0,2021.695
2021705.0,51.0,48.0,19.0,113.0,2021.705
2021715.0,50.0,50.0,18.0,111.0,2021.715
2021725.0,52.0,50.0,15.0,105.0,2021.725
2021735.0,53.0,53.0,20.0,111.0,2021.735
2021745.0,53.0,54.0,26.0,111.0,2021.745
2021755.0,53.0,54.0,25.0,105.0,2021.755
2021765.0,52.0,55.0,23.0,104.0,2021.765
2021775.0,52.0,55.0,21.0,99.0,2021.775
2021785.0,52.0,58.0,21.0,95.0,2021.785
2021795.0,51.0,59.0,21.0,92.0,2021.795
2021805.0,53.0,63.0,25.0,109.0,2021.805
2021815.0,51.0,61.0,24.0,124.0,2021.815
2021825.0,52.0,61.0,23.0,112.0,2021.825
2021835.0,49.0,60.0,21.0,105.0,2021.835
2021846.0,50.0,61.0,22.0,102.0,2021.846
2021856.0,50.0,62.0,21.0,102.0,2021.856
2021866.0,48.0,61.0,26.0,103.0,2021.866
2021876.0,48.0,61.0,23.0,109.0,2021.876
2021886.0,49.0,65.0,24.0,104.0,2021.886
2021896.0,47.0,62.0,24.0,106.0,2021.896
2021906.0,47.0,60.0,21.0,105.0,2021.906
2021916.0,45.0,60.0,19.0,102.0,2021.916
2021926.0,47.0,61.0,17.0,120.0,2021.926
2021936.0,46.0,59.0,15.0,125.0,2021.936
2021946.0,45.0,60.0,18.0,121.0,2021.946
2021956.0,46.0,59.0,16.0,115.0,2021.956
2021966.0,46.0,59.0,14.0,110.0,2021.966
2021976.0,47.0,60.0,20.0,110.0,2021.976
2021986.0,48.0,58.0,19.0,102.0,2021.986
2021996.0,49.0,57.0,20.0,105.0,2021.996
2022006.0,49.0,58.0,18.0,114.0,2022.006
2022016.0,48.0,57.0,16.0,111.0,2022.016
2022026.0,47.0,57.0,14.0,104.0,2022.026
2022036.0,45.0,58.0,12.0,104.0,2022.036
2022046.0,45.0,56.0,11.0,108.0,2022.046
2022056.0,45.0,56.0,10.0,98.0,2022.056
2022066.0,46.0,57.0,15.0,118.0,2022.066
2022076.0,48.0,59.0,23.0,115.0,2022.076
2022086.0,48.0,58.0,38.0,115.0,2022.086
2022096.0,48.0,55.0,33.0,115.0,2022.096
2022106.0,47.0,53.0,29.0,120.0,2022.106
2022116.0,46.0,53.0,26.0,112.0,2022.116
2022126.0,47.0,52.0,26.0,114.0,2022.126
2022136.0,47.0,52.0,26.0,107.0,2022.136
2022146.0,48.0,54.0,28.0,106.0,2022.146
2022156.0,47.0,53.0,30.0,107.0,2022.156
2022166.0,46.0,51.0,27.0,98.0,2022.166
2022176.0,47.0,51.0,26.0,95.0,2022.176
2022187.0,47.0,51.0,24.0,92.0,2022.187
2022197.0,47.0,49.0,23.0,89.0,2022.197
2022207.0,45.0,49.0,21.0,93.0,2022.207
2022217.0,46.0,48.0,21.0,94.0,2022.217
2022227.0,46.0,48.0,18.0,94.0,2022.227
2022237.0,45.0,46.0,18.0,95.0,2022.237
2022247.0,47.0,47.0,28.0,90.0,2022.247
2022257.0,45.0,47.0,24.0,84.0,2022.257
2022267.0,45.0,44.0,24.0,79.0,2022.267
2022277.0,46.0,45.0,21.0,75.0,2022.277
2022287.0,46.0,45.0,19.0,70.0,2022.287
2022297.0,47.0,46.0,17.0,70.0,2022.297
2022307.0,47.0,47.0,16.0,84.0,2022.307
2022317.0,47.0,48.0,28.0,91.0,2022.317
2022327.0,48.0,48.0,26.0,95.0,2022.327
2022337.0,48.0,49.0,24.0,96.0,2022.337
2022347.0,49.0,47.0,22.0,90.0,2022.347
2022358.0,49.0,48.0,20.0,94.0,2022.358
2022368.0,48.0,48.0,20.0,94.0,2022.368
2022378.0,48.0,49.0,18.0,92.0,2022.378
2022388.0,47.0,51.0,31.0,88.0,2022.388
2022398.0,47.0,51.0,28.0,91.0,2022.398
2022408.0,46.0,53.0,29.0,92.0,2022.408
2022418.0,47.0,51.0,26.0,90.0,2022.418
2022428.0,45.0,52.0,21.0,86.0,2022.428
2022438.0,46.0,53.0,21.0,88.0,2022.438
2022448.0,46.0,55.0,20.0,97.0,2022.448
2022458.0,44.0,56.0,20.0,98.0,2022.458
2022468.0,45.0,56.0,17.0,103.0,2022.468
2022478.0,45.0,59.0,25.0,107.0,2022.478
2022488.0,44.0,58.0,24.0,98.0,2022.488
2022498.0,44.0,59.0,24.0,99.0,2022.498
2022508.0,43.0,60.0,22.0,98.0,2022.508
2022518.0,44.0,60.0,22.0,114.0,2022.518
2022528.0,42.0,60.0,18.0,106.0,2022.528
2022538.0,43.0,61.0,18.0,97.0,2022.538
2022548.0,44.0,65.0,21.0,91.0,2022.548
2022558.0,43.0,64.0,26.0,102.0,2022.558
2022568.0,44.0,62.0,23.0,106.0,2022.568
2022578.0,43.0,63.0,24.0,112.0,2022.578
2022588.0,44.0,63.0,22.0,107.0,2022.588
2022598.0,44.0,64.0,19.0,109.0,2022.598
2022608.0,42.0,64.0,17.0,107.0,2022.608
2022618.0,44.0,65.0,31.0,104.0,2022.618
2022628.0,45.0,68.0,33.0,102.0,2022.628
2022638.0,45.0,64.0,34.0,107.0,2022.638
2022648.0,45.0,64.0,32.0,109.0,2022.648
2022658.0,44.0,64.0,28.0,100.0,2022.658
2022668.0,44.0,64.0,24.0,109.0,2022.668
2022678.0,44.0,64.0,21.0,107.0,2022.678
2022688.0,43.0,64.0,19.0,97.0,2022.688
2022699.0,42.0,65.0,16.0,98.0,2022.699
2022709.0,43.0,65.0,16.0,104.0,2022.709
2022719.0,44.0,64.0,26.0,98.0,2022.719
2022729.0,44.0,65.0,27.0,90.0,2022.729
2022739.0,47.0,63.0,25.0,102.0,2022.739
2022749.0,46.0,63.0,22.0,111.0,2022.749
2022759.0,47.0,63.0,29.0,102.0,2022.759
2022769.0,47.0,63.0,25.0,102.0,2022.769
2022779.0,47.0,62.0,23.0,92.0,2022.779
2022789.0,46.0,62.0,20.0,99.0,2022.789
2022799.0,45.0,61.0,19.0,101.0,2022.799
2022809.0,45.0,61.0,19.0,97.0,2022.809
2022819.0,46.0,62.0,26.0,100.0,2022.819
2022829.0,46.0,61.0,27.0,94.0,2022.829
2022839.0,46.0,61.0,24.0,96.0,2022.839
2022849.0,46.0,62.0,22.0,93.0,2022.849
2022859.0,45.0,60.0,19.0,91.0,2022.859
2022870.0,45.0,61.0,17.0,88.0,2022.87
2022880.0,45.0,62.0,15.0,89.0,2022.88
2022890.0,44.0,64.0,22.0,90.0,2022.89
2022900.0,46.0,63.0,22.0,93.0,2022.9
2022910.0,45.0,63.0,21.0,89.0,2022.91
2022920.0,44.0,63.0,19.0,97.0,2022.92
2022930.0,44.0,61.0,19.0,100.0,2022.93
2022940.0,44.0,61.0,19.0,99.0,2022.94
2022950.0,45.0,61.0,16.0,92.0,2022.95
2022960.0,45.0,61.0,15.0,93.0,2022.96
2022970.0,44.0,61.0,14.0,95.0,2022.97
2022980.0,45.0,59.0,14.0,107.0,2022.98
2022990.0,44.0,59.0,12.0,108.0,2022.99
2023000.0,45.0,60.0,17.0,108.0,2023.0
2023010.0,45.0,58.0,16.0,100.0,2023.01
2023020.0,45.0,58.0,15.0,103.0,2023.02
2023030.0,47.0,56.0,15.0,110.0,2023.03
2023040.0,46.0,55.0,12.0,105.0,2023.04
2023050.0,46.0,56.0,12.0,103.0,2023.05
2023060.0,45.0,55.0,11.0,93.0,2023.06
2023070.0,45.0,55.0,10.0,94.0,2023.07
2023080.0,46.0,55.0,14.0,102.0,2023.08
2023090.0,46.0,54.0,25.0,105.0,2023.09
2023100.0,46.0,54.0,27.0,97.0,2023.1
2023110.0,46.0,52.0,26.0,94.0,2023.11
2023120.0,44.0,50.0,22.0,91.0,2023.12
2023130.0,45.0,48.0,21.0,95.0,2023.13
2023140.0,45.0,47.0,18.0,99.0,2023.14
2023150.0,46.0,47.0,17.0,99.0,2023.15
2023160.0,45.0,47.0,17.0,91.0,2023.16
2023170.0,45.0,47.0,13.0,87.0,2023.17
2023180.0,44.0,48.0,19.0,97.0,2023.18
2023190.0,44.0,47.0,21.0,96.0,2023.19
2023200.0,45.0,46.0,20.0,90.0,2023.2
2023211.0,45.0,47.0,17.0,104.0,2023.211
2023221.0,43.0,48.0,18.0,97.0,2023.221
2023231.0,43.0,46.0,16.0,88.0,2023.231
2023241.0,43.0,49.0,18.0,88.0,2023.241
2023251.0,44.0,51.0,18.0,103.0,2023.251
2023261.0,45.0,51.0,16.0,101.0,2023.261
2023271.0,44.0,54.0,16.0,101.0,2023.271
2023281.0,44.0,53.0,16.0,97.0,2023.281
2023291.0,43.0,55.0,14.0,91.0,2023.291
2023301.0,43.0,56.0,14.0,101.0,2023.301
2023311.0,43.0,58.0,13.0,97.0,2023.311
2023321.0,43.0,59.0,11.0,93.0,2023.321
2023331.0,44.0,59.0,13.0,95.0,2023.331
2023341.0,42.0,61.0,12.0,100.0,2023.341
2023351.0,43.0,61.0,12.0,100.0,2023.351
2023361.0,44.0,62.0,19.0,101.0,2023.361
2023371.0,43.0,61.0,18.0,96.0,2023.371
2023382.0,44.0,61.0,18.0,108.0,2023.382
2023392.0,43.0,62.0,16.0,104.0,2023.392
2023402.0,44.0,61.0,19.0,96.0,2023.402
2023412.0,44.0,61.0,18.0,110.0,2023.412
2023422.0,46.0,61.0,24.0,104.0,2023.422
2023432.0,47.0,59.0,21.0,95.0,2023.432
2023442.0,46.0,60.0,19.0,93.0,2023.442
2023452.0,45.0,60.0,18.0,90.0,2023.452
2023462.0,45.0,61.0,17.0,97.0,2023.462
2023472.0,44.0,61.0,16.0,100.0,2023.472
2023482.0,46.0,59.0,16.0,94.0,2023.482
2023492.0,44.0,62.0,20.0,93.0,2023.492
2023502.0,46.0,60.0,20.0,92.0,2023.502
2023512.0,45.0,63.0,24.0,94.0,2023.512
2023522.0,46.0,63.0,24.0,94.0,2023.522
2023532.0,46.0,61.0,21.0,93.0,2023.532
2023542.0,45.0,62.0,19.0,86.0,2023.542
2023552.0,46.0,62.0,20.0,89.0,2023.552
2023562.0,45.0,63.0,16.0,89.0,2023.562
2023572.0,46.0,64.0,16.0,85.0,2023.572
2023582.0,46.0,65.0,16.0,82.0,2023.582
2023592.0,47.0,64.0,17.0,86.0,2023.592
2023602.0,48.0,60.0,15.0,80.0,2023.602
2023612.0,47.0,63.0,15.0,81.0,2023.612
2023622.0,47.0,62.0,14.0,80.0,2023.622
2023632.0,47.0,61.0,13.0,84.0,2023.632
2023642.0,46.0,63.0,12.0,82.0,2023.642
2023652.0,46.0,65.0,15.0,85.0,2023.652
2023662.0,46.0,64.0,23.0,89.0,2023.662
2023672.0,46.0,63.0,23.0,84.0,2023.672
2023682.0,48.0,61.0,21.0,92.0,2023.682
2023692.0,47.0,61.0,18.0,89.0,2023.692
2023702.0,48.0,61.0,18.0,87.0,2023.702
2023712.0,46.0,62.0,16.0,91.0,2023.712
2023723.0,47.0,63.0,15.0,88.0,2023.723
2023733.0,47.0,65.0,13.0,91.0,2023.733
2023743.0,48.0,65.0,21.0,83.0,2023.743
2023753.0,48.0,63.0,20.0,86.0,2023.753
2023763.0,49.0,65.0,19.0,97.0,2023.763
2023773.0,49.0,62.0,20.0,90.0,2023.773
2023783.0,48.0,63.0,20.0,93.0,2023.783
2023793.0,49.0,61.0,19.0,94.0,2023.793
2023803.0,50.0,62.0,24.0,92.0,2023.803
2023813.0,51.0,62.0,25.0,100.0,2023.813
2023823.0,51.0,60.0,24.0,98.0,2023.823
2023833.0,50.0,62.0,26.0,95.0,2023.833
2023843.0,52.0,60.0,24.0,101.0,2023.843
2023853.0,52.0,61.0,20.0,97.0,2023.853
2023863.0,51.0,61.0,19.0,92.0,2023.863
2023873.0,51.0,60.0,17.0,92.0,2023.873
2023883.0,50.0,58.0,15.0,92.0,2023.883
2023894.0,52.0,60.0,26.0,98.0,2023.894
2023904.0,53.0,59.0,24.0,104.0,2023.904
2023914.0,52.0,59.0,22.0,103.0,2023.914
2023924.0,51.0,59.0,23.0,101.0,2023.924
2023934.0,51.0,57.0,20.0,105.0,2023.934
2023944.0,51.0,56.0,19.0,108.0,2023.944
2023954.0,51.0,58.0,24.0,112.0,2023.954
2023964.0,50.0,58.0,27.0,116.0,2023.964
2023974.0,49.0,58.0,27.0,110.0,2023.974
2023984.0,49.0,57.0,24.0,111.0,2023.984
2023994.0,50.0,56.0,27.0,107.0,2023.994
2024004.0,50.0,55.0,23.0,105.0,2024.004
2024014.0,50.0,54.0,20.0,105.0,2024.014
2024024.0,49.0,55.0,19.0,98.0,2024.024
2024034.0,50.0,55.0,17.0,93.0,2024.034
2024044.0,50.0,55.0,29.0,85.0,2024.044
2024054.0,49.0,55.0,28.0,93.0,2024.054
2024064.0,49.0,53.0,25.0,95.0,2024.064
2024074.0,49.0,53.0,23.0,94.0,2024.074
2024084.0,47.0,52.0,21.0,90.0,2024.084
2024094.0,47.0,53.0,22.0,86.0,2024.094
2024104.0,47.0,55.0,19.0,85.0,2024.104
2024114.0,47.0,54.0,33.0,78.0,2024.114
2024124.0,46.0,53.0,29.0,87.0,2024.124
2024134.0,45.0,55.0,25.0,93.0,2024.134
2024144.0,46.0,55.0,23.0,98.0,2024.144
2024154.0,46.0,55.0,21.0,95.0,2024.154
2024164.0,46.0,55.0,22.0,92.0,2024.164
2024174.0,47.0,55.0,19.0,85.0,2024.174
2024184.0,46.0,57.0,21.0,81.0,2024.184
2024194.0,47.0,56.0,24.0,87.0,2024.194
2024204.0,47.0,57.0,20.0,92.0,2024.204
2024214.0,47.0,57.0,19.0,90.0,2024.214
2024224.0,47.0,58.0,18.0,87.0,2024.224
2024235.0,47.0,56.0,17.0,83.0,2024.235
2024245.0,48.0,57.0,16.0,85.0,2024.245
2024255.0,48.0,59.0,17.0,94.0,2024.255
2024265.0,48.0,58.0,20.0,90.0,2024.265
2024275.0,47.0,59.0,21.0,86.0,2024.275
2024285.0,47.0,59.0,20.0,96.0,2024.285
2024295.0,47.0,58.0,17.0,92.0,2024.295
2024305.0,46.0,56.0,16.0,95.0,2024.305
2024315.0,49.0,56.0,16.0,97.0,2024.315
2024325.0,48.0,55.0,16.0,93.0,2024.325
2024335.0,47.0,55.0,14.0,91.0,2024.335
2024345.0,49.0,56.0,13.0,93.0,2024.345
2024355.0,50.0,55.0,17.0,84.0,2024.355
2024365.0,51.0,54.0,17.0,83.0,2024.365
2024375.0,50.0,54.0,15.0,89.0,2024.375
2024385.0,52.0,52.0,14.0,86.0,2024.385
2024395.0,52.0,50.0,13.0,88.0,2024.395
2024406.0,51.0,51.0,17.0,91.0,2024.406
2024416.0,51.0,48.0,15.0,94.0,2024.416
2024426.0,52.0,48.0,15.0,86.0,2024.426
2024436.0,53.0,48.0,22.0,88.0,2024.436
2024446.0,54.0,46.0,21.0,83.0,2024.446
2024456.0,55.0,45.0,20.0,77.0,2024.456
2024466.0,54.0,45.0,17.0,73.0,2024.466
2024476.0,54.0,47.0,16.0,78.0,2024.476
2024486.0,55.0,45.0,13.0,85.0,2024.486
2024496.0,56.0,44.0,13.0,86.0,2024.496
2024506.0,56.0,45.0,21.0,85.0,2024.506
2024516.0,56.0,45.0,20.0,80.0,2024.516
2024526.0,55.0,46.0,20.0,81.0,2024.526
2024536.0,55.0,48.0,26.0,85.0,2024.536
2024546.0,56.0,47.0,30.0,84.0,2024.546
2024556.0,57.0,47.0,27.0,82.0,2024.556
2024566.0,57.0,46.0,23.0,79.0,2024.566
2024576.0,56.0,48.0,22.0,74.0,2024.576
2024586.0,57.0,48.0,22.0,79.0,2024.586
2024596.0,57.0,50.0,23.0,85.0,2024.596
2024606.0,56.0,51.0,27.0,87.0,2024.606
2024616.0,57.0,50.0,24.0,91.0,2024.616
2024626.0,56.0,49.0,22.0,96.0,2024.626
2024636.0,57.0,48.0,19.0,95.0,2024.636
2024646.0,56.0,49.0,17.0,90.0,2024.646
2024656.0,57.0,50.0,20.0,89.0,2024.656
2024666.0,58.0,50.0,19.0,83.0,2024.666
2024676.0,57.0,52.0,17.0,84.0,2024.676
2024686.0,57.0,53.0,23.0,96.0,2024.686
2024696.0,56.0,54.0,20.0,95.0,2024.696
2024706.0,56.0,53.0,18.0,91.0,2024.706
2024716.0,58.0,54.0,20.0,89.0,2024.716
2024726.0,57.0,55.0,18.0,86.0,2024.726
2024736.0,58.0,55.0,17.0,81.0,2024.736
2024747.0,57.0,56.0,15.0,97.0,2024.747
2024757.0,59.0,56.0,13.0,96.0,2024.757
2024767.0,58.0,59.0,26.0,90.0,2024.767
2024777.0,61.0,59.0,31.0,88.0,2024.777
2024787.0,62.0,58.0,29.0,84.0,2024.787
2024797.0,62.0,60.0,27.0,88.0,2024.797
2024807.0,62.0,58.0,25.0,86.0,2024.807
2024817.0,62.0,56.0,22.0,86.0,2024.817
2024827.0,60.0,56.0,18.0,82.0,2024.827
2024837.0,59.0,56.0,17.0,81.0,2024.837
2024847.0,58.0,55.0,15.0,83.0,2024.847
2024857.0,58.0,57.0,24.0,93.0,2024.857
2024867.0,58.0,55.0,20.0,98.0,2024.867
2024877.0,58.0,54.0,20.0,104.0,2024.877
