time (ms),signal 0,signal 1,signal 2,signal3,time (sec)
2045130.0,57.0,40.0,27.0,106.0,2045.13
2045140.0,57.0,41.0,24.0,101.0,2045.14
2045150.0,55.0,43.0,24.0,109.0,2045.15
2045160.0,56.0,44.0,23.0,118.0,2045.16
2045170.0,55.0,43.0,20.0,116.0,2045.17
2045180.0,55.0,43.0,19.0,116.0,2045.18
2045190.0,59.0,42.0,19.0,115.0,2045.19
2045200.0,58.0,42.0,18.0,106.0,2045.2
2045210.0,57.0,43.0,16.0,98.0,2045.21
2045220.0,58.0,46.0,26.0,112.0,2045.22
2045230.0,57.0,47.0,23.0,118.0,2045.23
2045240.0,57.0,46.0,22.0,116.0,2045.24
2045250.0,57.0,45.0,20.0,120.0,2045.25
2045260.0,57.0,45.0,27.0,112.0,2045.26
2045270.0,58.0,44.0,24.0,112.0,2045.27
2045280.0,57.0,44.0,22.0,115.0,2045.28
2045290.0,58.0,44.0,19.0,110.0,2045.29
2045300.0,59.0,43.0,26.0,112.0,2045.3
2045310.0,58.0,43.0,24.0,106.0,2045.31
2045320.0,58.0,45.0,27.0,119.0,2045.32
2045330.0,60.0,46.0,29.0,129.0,2045.33
2045340.0,60.0,47.0,35.0,122.0,2045.34
2045350.0,60.0,46.0,32.0,117.0,2045.35
2045360.0,59.0,46.0,30.0,112.0,2045.36
2045370.0,58.0,46.0,26.0,119.0,2045.37
2045380.0,58.0,45.0,26.0,120.0,2045.38
2045390.0,57.0,46.0,35.0,116.0,2045.39
2045400.0,58.0,46.0,30.0,112.0,2045.4
2045410.0,57.0,47.0,28.0,106.0,2045.41
2045420.0,56.0,49.0,24.0,121.0,2045.42
2045430.0,54.0,49.0,22.0,128.0,2045.43
2045440.0,56.0,50.0,21.0,130.0,2045.44
2045450.0,56.0,49.0,21.0,123.0,2045.45
2045460.0,56.0,48.0,22.0,116.0,2045.46
2045470.0,57.0,48.0,20.0,116.0,2045.47
2045480.0,58.0,49.0,28.0,122.0,2045.48
2045490.0,59.0,49.0,28.0,117.0,2045.49
2045500.0,59.0,48.0,26.0,116.0,2045.5
2045510.0,60.0,48.0,25.0,107.0,2045.51
2045520.0,59.0,49.0,24.0,103.0,2045.52
2045530.0,59.0,48.0,23.0,103.0,2045.53
2045540.0,61.0,46.0,21.0,107.0,2045.54
2045550.0,61.0,46.0,19.0,99.0,2045.55
2045560.0,60.0,46.0,18.0,102.0,2045.56
2045570.0,60.0,45.0,16.0,101.0,2045.57
2045580.0,60.0,46.0,18.0,102.0,2045.58
2045590.0,60.0,47.0,34.0,111.0,2045.59
2045600.0,62.0,46.0,31.0,120.0,2045.6
2045611.0,61.0,47.0,28.0,120.0,2045.611
2045621.0,63.0,46.0,29.0,120.0,2045.621
2045631.0,63.0,45.0,26.0,117.0,2045.631
2045641.0,61.0,47.0,22.0,112.0,2045.641
2045651.0,62.0,45.0,20.0,118.0,2045.651
2045661.0,62.0,45.0,18.0,121.0,2045.661
2045671.0,61.0,45.0,16.0,121.0,2045.671
2045681.0,59.0,43.0,18.0,118.0,2045.681
2045691.0,59.0,44.0,17.0,116.0,2045.691
2045701.0,59.0,46.0,25.0,138.0,2045.701
2045711.0,60.0,43.0,25.0,141.0,2045.711
2045721.0,60.0,44.0,26.0,150.0,2045.721
2045731.0,61.0,41.0,22.0,137.0,2045.731
2045741.0,59.0,43.0,20.0,127.0,2045.741
2045751.0,59.0,43.0,19.0,119.0,2045.751
2045761.0,61.0,41.0,17.0,124.0,2045.761
2045771.0,60.0,44.0,21.0,121.0,2045.771
2045782.0,63.0,45.0,28.0,143.0,2045.782
2045792.0,60.0,46.0,32.0,137.0,2045.792
2045802.0,63.0,47.0,29.0,127.0,2045.802
2045812.0,62.0,45.0,26.0,117.0,2045.812
2045822.0,60.0,44.0,24.0,116.0,2045.822
2045832.0,61.0,42.0,23.0,114.0,2045.832
2045842.0,60.0,43.0,23.0,116.0,2045.842
2045852.0,60.0,44.0,23.0,126.0,2045.852
2045862.0,58.0,43.0,21.0,127.0,2045.862
2045872.0,59.0,42.0,19.0,127.0,2045.872
2045882.0,59.0,41.0,18.0,113.0,2045.882
2045892.0,57.0,44.0,17.0,112.0,2045.892
2045902.0,56.0,44.0,24.0,108.0,2045.902
2045912.0,56.0,43.0,23.0,121.0,2045.912
2045922.0,55.0,44.0,26.0,128.0,2045.922
2045932.0,58.0,43.0,26.0,127.0,2045.932
2045942.0,56.0,44.0,23.0,129.0,2045.942
2045952.0,56.0,43.0,22.0,125.0,2045.952
2045962.0,57.0,42.0,21.0,130.0,2045.962
2045972.0,58.0,42.0,19.0,127.0,2045.972
2045982.0,59.0,40.0,17.0,125.0,2045.982
2045992.0,59.0,43.0,25.0,122.0,2045.992
2046002.0,59.0,43.0,25.0,114.0,2046.002
2046012.0,57.0,43.0,23.0,119.0,2046.012
2046022.0,58.0,43.0,21.0,119.0,2046.022
2046032.0,59.0,41.0,19.0,116.0,2046.032
2046042.0,59.0,42.0,17.0,110.0,2046.042
2046052.0,60.0,40.0,16.0,104.0,2046.052
2046062.0,59.0,42.0,17.0,102.0,2046.062
2046072.0,59.0,42.0,17.0,105.0,2046.072
2046082.0,58.0,43.0,31.0,99.0,2046.082
2046092.0,57.0,43.0,32.0,99.0,2046.092
2046102.0,58.0,41.0,29.0,104.0,2046.102
2046112.0,58.0,41.0,25.0,97.0,2046.112
2046123.0,57.0,41.0,22.0,92.0,2046.123
2046133.0,56.0,40.0,20.0,96.0,2046.133
2046143.0,57.0,41.0,21.0,107.0,2046.143
2046153.0,57.0,40.0,18.0,106.0,2046.153
2046163.0,56.0,44.0,34.0,109.0,2046.163
2046173.0,58.0,44.0,30.0,103.0,2046.173
2046183.0,58.0,44.0,27.0,99.0,2046.183
2046193.0,58.0,42.0,23.0,104.0,2046.193
2046203.0,59.0,42.0,27.0,105.0,2046.203
2046213.0,59.0,42.0,25.0,111.0,2046.213
2046223.0,60.0,42.0,27.0,107.0,2046.223
2046233.0,58.0,43.0,26.0,103.0,2046.233
2046243.0,58.0,41.0,23.0,105.0,2046.243
2046253.0,60.0,42.0,23.0,111.0,2046.253
2046263.0,58.0,46.0,36.0,117.0,2046.263
2046273.0,59.0,44.0,36.0,109.0,2046.273
2046283.0,60.0,44.0,32.0,107.0,2046.283
2046294.0,59.0,45.0,30.0,108.0,2046.294
2046304.0,59.0,44.0,26.0,109.0,2046.304
2046314.0,59.0,45.0,34.0,121.0,2046.314
2046324.0,59.0,45.0,31.0,129.0,2046.324
2046334.0,58.0,47.0,29.0,121.0,2046.334
2046344.0,57.0,47.0,30.0,108.0,2046.344
2046354.0,59.0,46.0,36.0,131.0,2046.354
2046364.0,59.0,45.0,36.0,131.0,2046.364
2046374.0,59.0,45.0,33.0,130.0,2046.374
2046384.0,58.0,44.0,29.0,123.0,2046.384
2046394.0,58.0,44.0,26.0,122.0,2046.394
2046404.0,56.0,44.0,23.0,124.0,2046.404
2046414.0,57.0,44.0,21.0,133.0,2046.414
2046424.0,57.0,42.0,19.0,140.0,2046.424
2046434.0,54.0,46.0,24.0,132.0,2046.434
2046444.0,54.0,46.0,30.0,123.0,2046.444
2046454.0,53.0,45.0,26.0,122.0,2046.454
2046464.0,55.0,44.0,23.0,127.0,2046.464
2046474.0,54.0,45.0,21.0,133.0,2046.474
2046484.0,53.0,45.0,19.0,126.0,2046.484
2046494.0,55.0,44.0,18.0,114.0,2046.494
2046504.0,55.0,42.0,16.0,105.0,2046.504
2046514.0,55.0,43.0,17.0,102.0,2046.514
2046524.0,54.0,43.0,18.0,97.0,2046.524
2046534.0,53.0,45.0,31.0,98.0,2046.534
2046544.0,53.0,44.0,33.0,94.0,2046.544
2046554.0,56.0,45.0,30.0,97.0,2046.554
2046564.0,56.0,44.0,28.0,103.0,2046.564
2046574.0,56.0,44.0,25.0,110.0,2046.574
2046584.0,57.0,43.0,31.0,104.0,2046.584
2046594.0,59.0,43.0,29.0,109.0,2046.594
2046604.0,57.0,43.0,25.0,115.0,2046.604
2046614.0,56.0,45.0,34.0,113.0,2046.614
2046624.0,57.0,44.0,35.0,107.0,2046.624
2046635.0,58.0,45.0,31.0,126.0,2046.635
2046645.0,56.0,44.0,42.0,114.0,2046.645
2046655.0,56.0,45.0,43.0,113.0,2046.655
2046665.0,58.0,44.0,38.0,110.0,2046.665
2046675.0,58.0,45.0,44.0,107.0,2046.675
2046685.0,56.0,45.0,39.0,98.0,2046.685
2046695.0,57.0,46.0,36.0,89.0,2046.695
2046705.0,55.0,47.0,34.0,88.0,2046.705
2046715.0,56.0,45.0,31.0,91.0,2046.715
2046725.0,56.0,47.0,37.0,92.0,2046.725
2046735.0,57.0,47.0,36.0,86.0,2046.735
2046745.0,58.0,48.0,39.0,82.0,2046.745
2046755.0,58.0,47.0,36.0,83.0,2046.755
2046765.0,59.0,46.0,32.0,78.0,2046.765
2046775.0,58.0,46.0,28.0,76.0,2046.775
2046785.0,57.0,48.0,36.0,86.0,2046.785
2046795.0,58.0,47.0,38.0,91.0,2046.795
2046806.0,58.0,47.0,37.0,94.0,2046.806
2046816.0,58.0,46.0,33.0,100.0,2046.816
2046826.0,58.0,48.0,35.0,99.0,2046.826
2046836.0,61.0,46.0,36.0,96.0,2046.836
2046846.0,61.0,46.0,33.0,109.0,2046.846
2046856.0,59.0,45.0,30.0,120.0,2046.856
2046866.0,60.0,45.0,31.0,112.0,2046.866
2046876.0,60.0,45.0,27.0,107.0,2046.876
2046886.0,60.0,43.0,27.0,103.0,2046.886
2046896.0,60.0,43.0,27.0,98.0,2046.896
2046906.0,59.0,44.0,36.0,98.0,2046.906
2046916.0,57.0,44.0,34.0,100.0,2046.916
2046926.0,57.0,45.0,30.0,95.0,2046.926
2046936.0,56.0,44.0,31.0,96.0,2046.936
2046946.0,56.0,44.0,33.0,91.0,2046.946
2046956.0,56.0,42.0,32.0,86.0,2046.956
2046966.0,56.0,41.0,28.0,83.0,2046.966
2046976.0,57.0,41.0,24.0,80.0,2046.976
2046986.0,56.0,41.0,26.0,84.0,2046.986
2046996.0,54.0,43.0,26.0,89.0,2046.996
2047006.0,57.0,44.0,33.0,88.0,2047.006
2047016.0,57.0,44.0,30.0,82.0,2047.016
2047026.0,57.0,44.0,27.0,84.0,2047.026
2047036.0,57.0,45.0,34.0,82.0,2047.036
2047046.0,57.0,43.0,29.0,77.0,2047.046
2047056.0,55.0,43.0,27.0,73.0,2047.056
2047066.0,55.0,44.0,25.0,69.0,2047.066
2047076.0,54.0,45.0,22.0,73.0,2047.076
2047086.0,54.0,48.0,34.0,72.0,2047.086
2047096.0,55.0,48.0,32.0,74.0,2047.096
2047106.0,55.0,47.0,29.0,71.0,2047.106
2047116.0,57.0,45.0,25.0,69.0,2047.116
2047126.0,57.0,47.0,22.0,67.0,2047.126
2047136.0,56.0,47.0,20.0,65.0,2047.136
2047147.0,55.0,48.0,20.0,81.0,2047.147
2047157.0,55.0,48.0,18.0,84.0,2047.157
2047167.0,56.0,51.0,25.0,82.0,2047.167
2047177.0,61.0,49.0,24.0,78.0,2047.177
2047187.0,58.0,50.0,21.0,71.0,2047.187
2047197.0,58.0,48.0,18.0,74.0,2047.197
2047207.0,60.0,51.0,18.0,70.0,2047.207
2047217.0,57.0,51.0,14.0,67.0,2047.217
2047227.0,56.0,51.0,13.0,64.0,2047.227
2047237.0,64.0,52.0,12.0,64.0,2047.237
2047247.0,72.0,60.0,15.0,67.0,2047.247
2047257.0,79.0,70.0,16.0,69.0,2047.257
2047267.0,87.0,73.0,15.0,71.0,2047.267
2047277.0,93.0,76.0,14.0,77.0,2047.277
2047287.0,103.0,82.0,15.0,77.0,2047.287
2047297.0,114.0,83.0,14.0,77.0,2047.297
2047307.0,126.0,90.0,16.0,76.0,2047.307
2047318.0,149.0,94.0,15.0,74.0,2047.318
2047328.0,155.0,89.0,14.0,81.0,2047.328
2047338.0,167.0,89.0,12.0,75.0,2047.338
2047348.0,176.0,102.0,12.0,74.0,2047.348
2047358.0,200.0,109.0,14.0,77.0,2047.358
2047368.0,199.0,113.0,13.0,79.0,2047.368
2047378.0,215.0,118.0,11.0,73.0,2047.378
2047388.0,242.0,125.0,13.0,77.0,2047.388
2047398.0,240.0,137.0,18.0,96.0,2047.398
2047408.0,221.0,134.0,17.0,100.0,2047.408
2047418.0,198.0,139.0,16.0,102.0,2047.418
2047428.0,178.0,137.0,15.0,110.0,2047.428
2047438.0,190.0,145.0,14.0,107.0,2047.438
2047448.0,194.0,146.0,12.0,102.0,2047.448
2047458.0,188.0,142.0,12.0,106.0,2047.458
2047468.0,182.0,142.0,11.0,103.0,2047.468
2047478.0,171.0,143.0,10.0,106.0,2047.478
2047488.0,163.0,141.0,10.0,99.0,2047.488
2047498.0,146.0,136.0,13.0,93.0,2047.498
2047508.0,133.0,130.0,11.0,93.0,2047.508
2047518.0,121.0,127.0,10.0,109.0,2047.518
2047528.0,118.0,124.0,9.0,108.0,2047.528
2047538.0,111.0,120.0,9.0,112.0,2047.538
2047548.0,109.0,118.0,14.0,139.0,2047.548
2047558.0,103.0,111.0,14.0,144.0,2047.558
2047568.0,99.0,109.0,12.0,136.0,2047.568
2047578.0,93.0,106.0,10.0,127.0,2047.578
2047588.0,86.0,102.0,10.0,127.0,2047.588
2047598.0,83.0,98.0,9.0,135.0,2047.598
2047608.0,82.0,96.0,8.0,132.0,2047.608
2047618.0,79.0,93.0,12.0,135.0,2047.618
2047628.0,75.0,89.0,14.0,154.0,2047.628
2047638.0,72.0,88.0,12.0,143.0,2047.638
2047648.0,78.0,86.0,15.0,143.0,2047.648
2047659.0,75.0,81.0,13.0,133.0,2047.659
2047669.0,71.0,80.0,11.0,119.0,2047.669
2047679.0,74.0,76.0,11.0,117.0,2047.679
2047689.0,75.0,75.0,9.0,120.0,2047.689
2047699.0,77.0,73.0,11.0,116.0,2047.699
2047709.0,81.0,70.0,11.0,114.0,2047.709
2047719.0,78.0,67.0,11.0,112.0,2047.719
2047729.0,73.0,63.0,10.0,107.0,2047.729
2047739.0,70.0,62.0,9.0,107.0,2047.739
2047749.0,68.0,60.0,10.0,103.0,2047.749
2047759.0,68.0,58.0,9.0,104.0,2047.759
2047769.0,65.0,56.0,9.0,103.0,2047.769
2047779.0,64.0,53.0,8.0,96.0,2047.779
2047789.0,62.0,51.0,12.0,95.0,2047.789
2047799.0,63.0,51.0,12.0,97.0,2047.799
2047809.0,60.0,51.0,10.0,98.0,2047.809
2047819.0,60.0,49.0,16.0,100.0,2047.819
2047830.0,66.0,50.0,16.0,100.0,2047.83
2047840.0,67.0,49.0,14.0,103.0,2047.84
2047850.0,70.0,49.0,15.0,97.0,2047.85
2047860.0,69.0,47.0,16.0,91.0,2047.86
2047870.0,68.0,46.0,14.0,92.0,2047.87
2047880.0,68.0,46.0,13.0,89.0,2047.88
2047890.0,68.0,47.0,12.0,110.0,2047.89
2047900.0,72.0,46.0,11.0,107.0,2047.9
2047910.0,68.0,45.0,9.0,101.0,2047.91
2047920.0,68.0,45.0,10.0,93.0,2047.92
2047930.0,67.0,45.0,10.0,94.0,2047.93
2047940.0,62.0,45.0,9.0,86.0,2047.94
2047950.0,61.0,43.0,8.0,84.0,2047.95
2047960.0,60.0,46.0,9.0,87.0,2047.96
2047970.0,62.0,47.0,10.0,84.0,2047.97
2047980.0,62.0,49.0,17.0,88.0,2047.98
2047990.0,60.0,47.0,17.0,90.0,2047.99
2048000.0,60.0,46.0,17.0,90.0,2048.0
2048010.0,60.0,45.0,14.0,94.0,2048.01
2048020.0,62.0,45.0,13.0,97.0,2048.02
2048030.0,69.0,47.0,12.0,97.0,2048.03
2048040.0,69.0,47.0,11.0,94.0,2048.04
2048050.0,73.0,47.0,10.0,94.0,2048.05
2048060.0,72.0,48.0,9.0,90.0,2048.06
2048070.0,74.0,47.0,13.0,87.0,2048.07
2048080.0,72.0,48.0,10.0,91.0,2048.08
2048090.0,73.0,46.0,10.0,87.0,2048.09
2048100.0,72.0,45.0,9.0,93.0,2048.1
2048110.0,69.0,45.0,9.0,94.0,2048.11
2048120.0,67.0,42.0,7.0,90.0,2048.12
2048130.0,65.0,42.0,6.0,86.0,2048.13
2048140.0,65.0,44.0,8.0,85.0,2048.14
2048150.0,65.0,42.0,7.0,78.0,2048.15
2048160.0,68.0,45.0,6.0,81.0,2048.16
2048171.0,71.0,45.0,9.0,85.0,2048.171
2048181.0,67.0,45.0,9.0,83.0,2048.181
2048191.0,67.0,44.0,8.0,80.0,2048.191
2048201.0,67.0,43.0,14.0,80.0,2048.201
2048211.0,65.0,44.0,24.0,77.0,2048.211
2048221.0,71.0,44.0,22.0,90.0,2048.221
2048231.0,68.0,44.0,18.0,93.0,2048.231
2048241.0,66.0,43.0,16.0,89.0,2048.241
2048251.0,69.0,45.0,15.0,95.0,2048.251
2048261.0,66.0,44.0,14.0,89.0,2048.261
2048271.0,64.0,42.0,14.0,82.0,2048.271
2048281.0,61.0,44.0,15.0,80.0,2048.281
2048291.0,61.0,43.0,17.0,89.0,2048.291
2048301.0,62.0,44.0,15.0,88.0,2048.301
2048311.0,60.0,44.0,13.0,97.0,2048.311
2048321.0,59.0,44.0,12.0,104.0,2048.321
2048331.0,59.0,43.0,11.0,96.0,2048.331
2048342.0,57.0,44.0,12.0,95.0,2048.342
2048352.0,58.0,45.0,10.0,87.0,2048.352
2048362.0,57.0,45.0,10.0,96.0,2048.362
2048372.0,57.0,45.0,8.0,115.0,2048.372
2048382.0,59.0,45.0,8.0,108.0,2048.382
2048392.0,61.0,45.0,7.0,107.0,2048.392
2048402.0,61.0,45.0,7.0,99.0,2048.402
2048412.0,59.0,45.0,7.0,90.0,2048.412
2048422.0,60.0,46.0,7.0,81.0,2048.422
2048432.0,60.0,45.0,9.0,102.0,2048.432
2048442.0,59.0,46.0,9.0,105.0,2048.442
2048452.0,58.0,45.0,8.0,110.0,2048.452
2048462.0,58.0,46.0,10.0,109.0,2048.462
2048472.0,55.0,49.0,13.0,114.0,2048.472
2048482.0,56.0,48.0,11.0,121.0,2048.482
2048492.0,58.0,48.0,11.0,126.0,2048.492
2048502.0,57.0,48.0,9.0,123.0,2048.502
2048512.0,59.0,47.0,10.0,114.0,2048.512
2048522.0,62.0,49.0,8.0,111.0,2048.522
2048532.0,64.0,47.0,10.0,112.0,2048.532
2048542.0,63.0,47.0,10.0,105.0,2048.542
2048552.0,68.0,46.0,8.0,110.0,2048.552
2048562.0,66.0,47.0,8.0,106.0,2048.562
2048572.0,63.0,47.0,7.0,105.0,2048.572
2048582.0,61.0,45.0,7.0,104.0,2048.582
2048592.0,64.0,46.0,7.0,101.0,2048.592
2048602.0,63.0,47.0,5.0,103.0,2048.602
2048612.0,61.0,47.0,6.0,93.0,2048.612
2048622.0,59.0,48.0,7.0,107.0,2048.622
2048632.0,58.0,46.0,7.0,109.0,2048.632
2048642.0,61.0,46.0,7.0,109.0,2048.642
2048652.0,59.0,46.0,7.0,104.0,2048.652
2048662.0,59.0,45.0,7.0,109.0,2048.662
2048672.0,57.0,44.0,5.0,103.0,2048.672
2048683.0,56.0,44.0,6.0,105.0,2048.683
2048693.0,54.0,45.0,9.0,104.0,2048.693
2048703.0,55.0,45.0,9.0,105.0,2048.703
2048713.0,54.0,44.0,8.0,107.0,2048.713
2048723.0,54.0,45.0,8.0,122.0,2048.723
2048733.0,55.0,44.0,9.0,114.0,2048.733
2048743.0,55.0,44.0,7.0,103.0,2048.743
2048753.0,58.0,44.0,6.0,102.0,2048.753
2048763.0,60.0,45.0,6.0,97.0,2048.763
2048773.0,64.0,48.0,7.0,98.0,2048.773
2048783.0,63.0,46.0,7.0,94.0,2048.783
2048793.0,61.0,46.0,5.0,93.0,2048.793
2048803.0,63.0,47.0,6.0,93.0,2048.803
2048813.0,65.0,46.0,7.0,90.0,2048.813
2048823.0,63.0,45.0,6.0,86.0,2048.823
2048833.0,70.0,47.0,5.0,81.0,2048.833
2048843.0,67.0,47.0,6.0,79.0,2048.843
2048854.0,73.0,48.0,6.0,86.0,2048.854
2048864.0,76.0,47.0,5.0,84.0,2048.864
2048874.0,72.0,47.0,5.0,77.0,2048.874
2048884.0,72.0,45.0,6.0,76.0,2048.884
2048894.0,66.0,46.0,6.0,80.0,2048.894
2048904.0,81.0,50.0,8.0,80.0,2048.904
2048914.0,79.0,49.0,7.0,82.0,2048.914
2048924.0,75.0,51.0,7.0,76.0,2048.924
2048934.0,74.0,50.0,7.0,73.0,2048.934
2048944.0,73.0,51.0,7.0,83.0,2048.944
2048954.0,69.0,51.0,11.0,80.0,2048.954
2048964.0,69.0,51.0,11.0,95.0,2048.964
2048974.0,69.0,51.0,10.0,101.0,2048.974
2048984.0,68.0,49.0,9.0,97.0,2048.984
2048994.0,66.0,51.0,9.0,97.0,2048.994
2049004.0,67.0,51.0,8.0,88.0,2049.004
2049014.0,69.0,52.0,7.0,103.0,2049.014
2049024.0,67.0,52.0,7.0,103.0,2049.024
2049034.0,67.0,52.0,6.0,97.0,2049.034
2049044.0,66.0,54.0,6.0,93.0,2049.044
2049054.0,66.0,53.0,6.0,91.0,2049.054
2049064.0,65.0,54.0,5.0,97.0,2049.064
2049074.0,64.0,52.0,5.0,95.0,2049.074
2049084.0,63.0,51.0,5.0,88.0,2049.084
2049094.0,60.0,52.0,4.0,94.0,2049.094
2049104.0,58.0,53.0,6.0,89.0,2049.104
2049114.0,58.0,51.0,4.0,90.0,2049.114
2049124.0,60.0,52.0,4.0,81.0,2049.124
2049134.0,67.0,51.0,5.0,74.0,2049.134
2049144.0,65.0,51.0,5.0,67.0,2049.144
2049154.0,64.0,51.0,5.0,63.0,2049.154
2049164.0,65.0,50.0,4.0,64.0,2049.164
2049174.0,65.0,50.0,5.0,71.0,2049.174
2049184.0,63.0,50.0,4.0,70.0,2049.184
2049195.0,60.0,51.0,4.0,66.0,2049.195
2049205.0,58.0,51.0,4.0,62.0,2049.205
2049215.0,57.0,52.0,3.0,57.0,2049.215
2049225.0,55.0,51.0,5.0,60.0,2049.225
2049235.0,55.0,51.0,5.0,63.0,2049.235
2049245.0,59.0,51.0,6.0,61.0,2049.245
2049255.0,61.0,50.0,7.0,68.0,2049.255
2049265.0,62.0,50.0,7.0,78.0,2049.265
2049275.0,63.0,49.0,7.0,96.0,2049.275
2049285.0,63.0,48.0,6.0,103.0,2049.285
2049295.0,66.0,51.0,7.0,113.0,2049.295
2049305.0,71.0,48.0,6.0,110.0,2049.305
2049315.0,69.0,48.0,6.0,125.0,2049.315
2049325.0,70.0,47.0,7.0,126.0,2049.325
2049335.0,68.0,46.0,6.0,122.0,2049.335
2049345.0,66.0,45.0,5.0,112.0,2049.345
2049355.0,65.0,45.0,5.0,104.0,2049.355
2049366.0,65.0,45.0,5.0,96.0,2049.366
2049376.0,64.0,44.0,5.0,89.0,2049.376
2049386.0,66.0,43.0,5.0,90.0,2049.386
2049396.0,65.0,43.0,5.0,90.0,2049.396
2049406.0,71.0,46.0,5.0,91.0,2049.406
2049416.0,72.0,45.0,5.0,88.0,2049.416
2049426.0,71.0,44.0,5.0,81.0,2049.426
2049436.0,70.0,43.0,4.0,84.0,2049.436
2049446.0,69.0,42.0,5.0,84.0,2049.446
2049456.0,70.0,41.0,5.0,87.0,2049.456
2049466.0,72.0,42.0,5.0,84.0,2049.466
2049476.0,73.0,42.0,5.0,81.0,2049.476
2049486.0,68.0,41.0,4.0,89.0,2049.486
2049496.0,70.0,41.0,6.0,96.0,2049.496
2049506.0,69.0,41.0,5.0,104.0,2049.506
2049516.0,69.0,41.0,5.0,100.0,2049.516
2049526.0,69.0,42.0,5.0,92.0,2049.526
2049536.0,72.0,42.0,3.0,91.0,2049.536
2049546.0,72.0,42.0,5.0,95.0,2049.546
2049556.0,69.0,41.0,4.0,94.0,2049.556
2049566.0,66.0,41.0,5.0,100.0,2049.566
2049576.0,66.0,40.0,8.0,103.0,2049.576
2049586.0,65.0,41.0,8.0,100.0,2049.586
2049596.0,66.0,40.0,7.0,93.0,2049.596
2049606.0,66.0,39.0,8.0,106.0,2049.606
2049616.0,67.0,40.0,7.0,102.0,2049.616
2049626.0,67.0,39.0,7.0,93.0,2049.626
2049636.0,70.0,41.0,7.0,91.0,2049.636
2049646.0,71.0,40.0,6.0,85.0,2049.646
2049656.0,69.0,40.0,6.0,79.0,2049.656
2049666.0,69.0,39.0,6.0,106.0,2049.666
2049676.0,67.0,38.0,6.0,98.0,2049.676
2049686.0,65.0,40.0,7.0,96.0,2049.686
2049696.0,67.0,41.0,8.0,91.0,2049.696
2049707.0,66.0,41.0,6.0,97.0,2049.707
2049717.0,65.0,40.0,6.0,89.0,2049.717
2049727.0,66.0,41.0,5.0,90.0,2049.727
2049737.0,67.0,41.0,6.0,94.0,2049.737
2049747.0,71.0,40.0,7.0,93.0,2049.747
2049757.0,76.0,42.0,6.0,94.0,2049.757
2049767.0,75.0,42.0,6.0,92.0,2049.767
2049777.0,76.0,40.0,6.0,90.0,2049.777
2049787.0,72.0,40.0,6.0,104.0,2049.787
2049797.0,73.0,41.0,6.0,103.0,2049.797
2049807.0,72.0,40.0,4.0,101.0,2049.807
2049817.0,72.0,39.0,6.0,92.0,2049.817
2049827.0,70.0,41.0,5.0,100.0,2049.827
2049837.0,69.0,41.0,5.0,92.0,2049.837
2049847.0,70.0,41.0,5.0,87.0,2049.847
2049857.0,69.0,41.0,4.0,103.0,2049.857
2049867.0,71.0,39.0,5.0,99.0,2049.867
2049878.0,68.0,40.0,5.0,94.0,2049.878
2049888.0,67.0,40.0,5.0,92.0,2049.888
2049898.0,69.0,40.0,8.0,88.0,2049.898
2049908.0,71.0,40.0,7.0,110.0,2049.908
2049918.0,72.0,40.0,7.0,118.0,2049.918
2049928.0,73.0,40.0,6.0,111.0,2049.928
2049938.0,71.0,42.0,9.0,113.0,2049.938
2049948.0,69.0,45.0,19.0,119.0,2049.948
2049958.0,69.0,50.0,45.0,142.0,2049.958
2049968.0,74.0,52.0,56.0,140.0,2049.968
2049978.0,73.0,52.0,59.0,139.0,2049.978
2049988.0,73.0,62.0,111.0,175.0,2049.988
2049998.0,74.0,65.0,136.0,211.0,2049.998
2050008.0,74.0,73.0,155.0,232.0,2050.008
2050018.0,93.0,76.0,187.0,280.0,2050.018
2050028.0,99.0,79.0,211.0,369.0,2050.028
2050038.0,106.0,88.0,215.0,406.0,2050.038
2050048.0,118.0,100.0,253.0,418.0,2050.048
2050058.0,119.0,97.0,243.0,434.0,2050.058
2050068.0,118.0,98.0,250.0,429.0,2050.068
2050078.0,116.0,99.0,242.0,428.0,2050.078
2050088.0,113.0,97.0,226.0,448.0,2050.088
2050098.0,111.0,96.0,243.0,458.0,2050.098
2050108.0,115.0,102.0,272.0,527.0,2050.108
2050118.0,112.0,94.0,246.0,488.0,2050.118
2050128.0,108.0,91.0,250.0,452.0,2050.128
2050138.0,105.0,87.0,243.0,411.0,2050.138
2050148.0,107.0,82.0,212.0,383.0,2050.148
2050158.0,104.0,80.0,194.0,367.0,2050.158
2050168.0,104.0,76.0,177.0,354.0,2050.168
2050178.0,104.0,74.0,158.0,327.0,2050.178
2050188.0,103.0,70.0,159.0,303.0,2050.188
2050198.0,104.0,69.0,152.0,288.0,2050.198
2050208.0,105.0,68.0,140.0,274.0,2050.208
2050219.0,108.0,66.0,131.0,263.0,2050.219
2050229.0,106.0,63.0,117.0,248.0,2050.229
2050239.0,104.0,62.0,114.0,242.0,2050.239
2050249.0,104.0,60.0,99.0,241.0,2050.249
2050259.0,104.0,58.0,96.0,248.0,2050.259
2050269.0,103.0,58.0,99.0,248.0,2050.269
2050279.0,104.0,58.0,91.0,253.0,2050.279
2050289.0,105.0,55.0,86.0,237.0,2050.289
2050299.0,102.0,53.0,81.0,220.0,2050.299
2050309.0,99.0,51.0,75.0,205.0,2050.309
2050319.0,101.0,51.0,69.0,193.0,2050.319
2050329.0,98.0,56.0,89.0,211.0,2050.329
2050339.0,97.0,52.0,96.0,198.0,2050.339
2050349.0,97.0,55.0,89.0,196.0,2050.349
2050359.0,96.0,55.0,79.0,190.0,2050.359
2050369.0,96.0,53.0,70.0,195.0,2050.369
2050379.0,96.0,52.0,66.0,187.0,2050.379
2050390.0,95.0,52.0,74.0,190.0,2050.39
2050400.0,94.0,51.0,67.0,183.0,2050.4
2050410.0,93.0,51.0,84.0,182.0,2050.41
2050420.0,93.0,50.0,73.0,185.0,2050.42
2050430.0,93.0,48.0,67.0,194.0,2050.43
2050440.0,95.0,49.0,59.0,192.0,2050.44
2050450.0,92.0,48.0,56.0,197.0,2050.45
2050460.0,94.0,49.0,52.0,201.0,2050.46
2050470.0,94.0,51.0,70.0,193.0,2050.47
2050480.0,93.0,49.0,67.0,192.0,2050.48
2050490.0,94.0,48.0,61.0,188.0,2050.49
2050500.0,93.0,48.0,53.0,186.0,2050.5
2050510.0,92.0,47.0,47.0,211.0,2050.51
2050520.0,90.0,46.0,42.0,209.0,2050.52
2050530.0,88.0,45.0,38.0,205.0,2050.53
2050540.0,85.0,46.0,54.0,192.0,2050.54
2050550.0,85.0,48.0,60.0,208.0,2050.55
2050560.0,86.0,48.0,54.0,214.0,2050.56
2050570.0,85.0,46.0,51.0,212.0,2050.57
2050580.0,84.0,45.0,52.0,203.0,2050.58
2050590.0,84.0,45.0,55.0,213.0,2050.59
2050600.0,85.0,46.0,52.0,241.0,2050.6
2050610.0,84.0,45.0,47.0,239.0,2050.61
2050620.0,82.0,45.0,42.0,233.0,2050.62
2050630.0,79.0,45.0,52.0,218.0,2050.63
2050640.0,80.0,47.0,51.0,215.0,2050.64
2050650.0,79.0,47.0,47.0,228.0,2050.65
2050660.0,81.0,47.0,43.0,223.0,2050.66
2050670.0,79.0,46.0,36.0,222.0,2050.67
2050680.0,76.0,45.0,45.0,205.0,2050.68
2050690.0,77.0,47.0,49.0,216.0,2050.69
2050700.0,77.0,49.0,62.0,230.0,2050.7
2050710.0,77.0,49.0,56.0,236.0,2050.71
2050720.0,75.0,48.0,49.0,225.0,2050.72
2050731.0,75.0,46.0,51.0,211.0,2050.731
2050741.0,74.0,46.0,47.0,207.0,2050.741
2050751.0,73.0,45.0,41.0,223.0,2050.751
2050761.0,73.0,46.0,37.0,219.0,2050.761
2050771.0,71.0,47.0,41.0,204.0,2050.771
2050781.0,73.0,52.0,47.0,206.0,2050.781
2050791.0,73.0,51.0,47.0,191.0,2050.791
2050801.0,73.0,51.0,43.0,186.0,2050.801
2050811.0,72.0,51.0,39.0,195.0,2050.811
2050821.0,71.0,51.0,34.0,185.0,2050.821
2050831.0,70.0,51.0,31.0,173.0,2050.831
2050841.0,71.0,53.0,32.0,174.0,2050.841
2050851.0,69.0,51.0,30.0,164.0,2050.851
2050861.0,71.0,52.0,27.0,162.0,2050.861
2050871.0,69.0,53.0,33.0,162.0,2050.871
2050881.0,71.0,54.0,40.0,157.0,2050.881
2050891.0,69.0,55.0,34.0,161.0,2050.891
2050902.0,69.0,55.0,37.0,149.0,2050.902
2050912.0,69.0,56.0,33.0,157.0,2050.912
2050922.0,67.0,54.0,36.0,156.0,2050.922
2050932.0,69.0,57.0,46.0,162.0,2050.932
2050942.0,69.0,59.0,40.0,167.0,2050.942
2050952.0,71.0,58.0,37.0,165.0,2050.952
2050962.0,70.0,58.0,32.0,161.0,2050.962
2050972.0,66.0,56.0,33.0,154.0,2050.972
2050982.0,67.0,57.0,37.0,186.0,2050.982
2050992.0,67.0,59.0,35.0,194.0,2050.992
2051002.0,67.0,58.0,31.0,197.0,2051.002
2051012.0,67.0,60.0,32.0,186.0,2051.012
2051022.0,65.0,58.0,43.0,189.0,2051.022
2051032.0,68.0,59.0,52.0,197.0,2051.032
2051042.0,68.0,62.0,44.0,198.0,2051.042
2051052.0,67.0,61.0,39.0,187.0,2051.052
2051062.0,67.0,61.0,38.0,192.0,2051.062
2051072.0,65.0,62.0,34.0,180.0,2051.072
2051082.0,66.0,60.0,31.0,178.0,2051.082
2051092.0,67.0,62.0,29.0,191.0,2051.092
2051102.0,67.0,59.0,35.0,187.0,2051.102
2051112.0,68.0,62.0,30.0,177.0,2051.112
2051122.0,67.0,60.0,33.0,172.0,2051.122
2051132.0,68.0,61.0,46.0,165.0,2051.132
2051142.0,67.0,62.0,49.0,162.0,2051.142
2051152.0,67.0,58.0,44.0,172.0,2051.152
2051162.0,69.0,61.0,40.0,177.0,2051.162
2051172.0,68.0,60.0,36.0,165.0,2051.172
2051182.0,69.0,59.0,33.0,170.0,2051.182
2051192.0,68.0,58.0,34.0,169.0,2051.192
2051202.0,67.0,56.0,34.0,172.0,2051.202
2051212.0,68.0,58.0,38.0,164.0,2051.212
2051222.0,67.0,58.0,44.0,156.0,2051.222
2051232.0,67.0,57.0,39.0,148.0,2051.232
2051243.0,65.0,57.0,34.0,147.0,2051.243
2051253.0,67.0,56.0,30.0,136.0,2051.253
2051263.0,66.0,55.0,26.0,142.0,2051.263
2051273.0,67.0,55.0,26.0,149.0,2051.273
2051283.0,66.0,54.0,23.0,153.0,2051.283
2051293.0,67.0,54.0,19.0,144.0,2051.293
2051303.0,65.0,52.0,18.0,134.0,2051.303
2051313.0,65.0,50.0,17.0,149.0,2051.313
2051323.0,65.0,51.0,29.0,154.0,2051.323
2051333.0,65.0,53.0,26.0,158.0,2051.333
2051343.0,63.0,53.0,22.0,149.0,2051.343
2051353.0,62.0,51.0,21.0,143.0,2051.353
2051363.0,63.0,52.0,19.0,143.0,2051.363
2051373.0,61.0,48.0,18.0,144.0,2051.373
2051383.0,60.0,48.0,16.0,131.0,2051.383
2051393.0,59.0,47.0,15.0,133.0,2051.393
2051403.0,58.0,46.0,16.0,127.0,2051.403
2051414.0,56.0,45.0,14.0,130.0,2051.414
2051424.0,55.0,44.0,15.0,151.0,2051.424
2051434.0,55.0,44.0,19.0,156.0,2051.434
2051444.0,54.0,46.0,31.0,142.0,2051.444
2051454.0,55.0,48.0,28.0,138.0,2051.454
2051464.0,56.0,50.0,25.0,143.0,2051.464
2051474.0,56.0,49.0,22.0,152.0,2051.474
2051484.0,55.0,49.0,18.0,152.0,2051.484
2051494.0,54.0,49.0,19.0,147.0,2051.494
2051504.0,53.0,47.0,19.0,141.0,2051.504
2051514.0,52.0,50.0,18.0,135.0,2051.514
2051524.0,52.0,48.0,21.0,142.0,2051.524
2051534.0,52.0,50.0,37.0,144.0,2051.534
2051544.0,52.0,51.0,40.0,141.0,2051.544
2051554.0,54.0,53.0,39.0,143.0,2051.554
2051564.0,50.0,51.0,34.0,133.0,2051.564
2051574.0,53.0,51.0,30.0,122.0,2051.574
2051584.0,51.0,51.0,27.0,118.0,2051.584
2051594.0,51.0,49.0,24.0,114.0,2051.594
2051604.0,50.0,48.0,35.0,135.0,2051.604
2051614.0,53.0,49.0,31.0,149.0,2051.614
2051624.0,53.0,49.0,27.0,138.0,2051.624
2051634.0,54.0,52.0,32.0,151.0,2051.634
2051644.0,53.0,51.0,31.0,149.0,2051.644
2051654.0,53.0,50.0,28.0,145.0,2051.654
2051664.0,53.0,52.0,25.0,142.0,2051.664
2051674.0,54.0,52.0,24.0,137.0,2051.674
2051684.0,53.0,51.0,24.0,126.0,2051.684
2051694.0,54.0,51.0,22.0,120.0,2051.694
2051704.0,53.0,50.0,25.0,119.0,2051.704
2051714.0,53.0,50.0,25.0,112.0,2051.714
2051724.0,53.0,49.0,32.0,108.0,2051.724
2051734.0,54.0,52.0,30.0,131.0,2051.734
2051744.0,54.0,50.0,28.0,130.0,2051.744
2051755.0,52.0,49.0,24.0,126.0,2051.755
2051765.0,53.0,49.0,24.0,113.0,2051.765
2051775.0,53.0,49.0,21.0,109.0,2051.775
2051785.0,52.0,49.0,22.0,118.0,2051.785
2051795.0,51.0,47.0,29.0,117.0,2051.795
2051805.0,51.0,48.0,30.0,115.0,2051.805
2051815.0,51.0,48.0,26.0,116.0,2051.815
2051825.0,51.0,47.0,24.0,109.0,2051.825
2051835.0,49.0,46.0,22.0,99.0,2051.835
2051845.0,50.0,47.0,22.0,105.0,2051.845
2051855.0,48.0,47.0,18.0,126.0,2051.855
2051865.0,48.0,49.0,17.0,118.0,2051.865
2051875.0,49.0,47.0,26.0,123.0,2051.875
2051885.0,49.0,49.0,27.0,128.0,2051.885
2051895.0,49.0,50.0,26.0,122.0,2051.895
2051905.0,49.0,50.0,23.0,114.0,2051.905
2051915.0,50.0,49.0,25.0,127.0,2051.915
2051926.0,50.0,50.0,23.0,146.0,2051.926
2051936.0,49.0,48.0,21.0,149.0,2051.936
2051946.0,50.0,48.0,19.0,147.0,2051.946
2051956.0,51.0,51.0,19.0,146.0,2051.956
2051966.0,53.0,52.0,22.0,137.0,2051.966
2051976.0,53.0,53.0,20.0,140.0,2051.976
2051986.0,52.0,53.0,19.0,138.0,2051.986
2051996.0,51.0,53.0,17.0,128.0,2051.996
2052006.0,50.0,51.0,20.0,129.0,2052.006
2052016.0,51.0,52.0,17.0,125.0,2052.016
2052026.0,51.0,53.0,17.0,122.0,2052.026
2052036.0,53.0,54.0,15.0,131.0,2052.036
2052046.0,54.0,55.0,30.0,130.0,2052.046
2052056.0,56.0,54.0,29.0,127.0,2052.056
2052066.0,57.0,53.0,26.0,119.0,2052.066
2052076.0,56.0,51.0,22.0,112.0,2052.076
2052086.0,56.0,51.0,19.0,130.0,2052.086
2052096.0,57.0,51.0,19.0,138.0,2052.096
2052106.0,57.0,49.0,19.0,134.0,2052.106
2052116.0,58.0,48.0,19.0,130.0,2052.116
2052126.0,55.0,47.0,17.0,122.0,2052.126
2052136.0,56.0,48.0,30.0,126.0,2052.136
2052146.0,56.0,48.0,26.0,128.0,2052.146
2052156.0,54.0,48.0,26.0,147.0,2052.156
2052166.0,55.0,48.0,23.0,135.0,2052.166
2052176.0,55.0,47.0,21.0,127.0,2052.176
2052186.0,55.0,46.0,19.0,114.0,2052.186
2052196.0,54.0,46.0,20.0,112.0,2052.196
2052206.0,55.0,46.0,18.0,112.0,2052.206
2052216.0,54.0,45.0,19.0,123.0,2052.216
2052226.0,54.0,44.0,16.0,122.0,2052.226
2052236.0,55.0,44.0,25.0,111.0,2052.236
2052246.0,57.0,45.0,26.0,117.0,2052.246
2052256.0,56.0,43.0,25.0,116.0,2052.256
2052267.0,54.0,41.0,26.0,114.0,2052.267
2052277.0,53.0,42.0,26.0,122.0,2052.277
2052287.0,56.0,43.0,24.0,123.0,2052.287
2052297.0,55.0,43.0,20.0,115.0,2052.297
2052307.0,54.0,41.0,20.0,116.0,2052.307
2052317.0,54.0,41.0,18.0,127.0,2052.317
2052327.0,55.0,41.0,16.0,129.0,2052.327
2052337.0,55.0,39.0,14.0,133.0,2052.337
2052347.0,56.0,40.0,13.0,130.0,2052.347
2052357.0,58.0,43.0,14.0,121.0,2052.357
2052367.0,58.0,42.0,14.0,113.0,2052.367
2052377.0,58.0,42.0,15.0,107.0,2052.377
2052387.0,57.0,41.0,15.0,101.0,2052.387
2052397.0,58.0,43.0,17.0,108.0,2052.397
2052407.0,58.0,44.0,35.0,112.0,2052.407
2052417.0,58.0,44.0,41.0,108.0,2052.417
2052427.0,60.0,45.0,40.0,105.0,2052.427
2052438.0,60.0,44.0,35.0,104.0,2052.438
2052448.0,58.0,43.0,30.0,96.0,2052.448
2052458.0,58.0,43.0,29.0,113.0,2052.458
2052468.0,59.0,42.0,29.0,115.0,2052.468
2052478.0,59.0,44.0,42.0,113.0,2052.478
2052488.0,58.0,42.0,41.0,108.0,2052.488
2052498.0,57.0,43.0,36.0,102.0,2052.498
2052508.0,57.0,43.0,32.0,100.0,2052.508
2052518.0,56.0,42.0,30.0,117.0,2052.518
2052528.0,56.0,43.0,31.0,120.0,2052.528
2052538.0,56.0,43.0,30.0,125.0,2052.538
2052548.0,57.0,46.0,27.0,124.0,2052.548
2052558.0,56.0,44.0,29.0,114.0,2052.558
2052568.0,57.0,46.0,36.0,110.0,2052.568
2052578.0,58.0,47.0,33.0,113.0,2052.578
2052588.0,57.0,43.0,29.0,116.0,2052.588
2052598.0,56.0,46.0,25.0,108.0,2052.598
2052608.0,57.0,45.0,22.0,105.0,2052.608
2052618.0,56.0,46.0,20.0,104.0,2052.618
2052628.0,55.0,46.0,18.0,94.0,2052.628
2052638.0,55.0,44.0,21.0,89.0,2052.638
2052648.0,53.0,44.0,19.0,90.0,2052.648
2052658.0,54.0,45.0,17.0,109.0,2052.658
2052668.0,52.0,45.0,18.0,113.0,2052.668
2052678.0,53.0,45.0,17.0,110.0,2052.678
2052688.0,54.0,47.0,16.0,106.0,2052.688
2052698.0,55.0,47.0,15.0,122.0,2052.698
2052708.0,56.0,48.0,27.0,150.0,2052.708
2052718.0,55.0,48.0,28.0,154.0,2052.718
2052728.0,56.0,47.0,27.0,143.0,2052.728
2052738.0,54.0,46.0,26.0,137.0,2052.738
2052748.0,55.0,47.0,27.0,155.0,2052.748
2052758.0,56.0,47.0,25.0,145.0,2052.758
2052768.0,56.0,46.0,22.0,135.0,2052.768
2052779.0,56.0,44.0,22.0,125.0,2052.779
2052789.0,56.0,42.0,20.0,116.0,2052.789
2052799.0,56.0,46.0,38.0,125.0,2052.799
2052809.0,58.0,45.0,34.0,131.0,2052.809
2052819.0,58.0,47.0,30.0,122.0,2052.819
2052829.0,59.0,45.0,27.0,113.0,2052.829
2052839.0,58.0,45.0,24.0,114.0,2052.839
2052849.0,57.0,44.0,25.0,116.0,2052.849
2052859.0,57.0,44.0,29.0,149.0,2052.859
2052869.0,57.0,44.0,25.0,149.0,2052.869
2052879.0,59.0,45.0,24.0,138.0,2052.879
2052889.0,56.0,45.0,26.0,131.0,2052.889
2052899.0,55.0,44.0,27.0,130.0,2052.899
2052909.0,56.0,47.0,42.0,137.0,2052.909
2052919.0,55.0,46.0,37.0,132.0,2052.919
2052929.0,57.0,46.0,33.0,122.0,2052.929
2052939.0,57.0,45.0,29.0,112.0,2052.939
2052950.0,58.0,46.0,27.0,107.0,2052.95
2052960.0,56.0,44.0,25.0,114.0,2052.96
2052970.0,58.0,45.0,22.0,107.0,2052.97
2052980.0,57.0,44.0,20.0,107.0,2052.98
2052990.0,58.0,45.0,18.0,98.0,2052.99
2053000.0,59.0,44.0,15.0,94.0,2053.0
2053010.0,59.0,45.0,20.0,114.0,2053.01
2053020.0,59.0,46.0,20.0,112.0,2053.02
2053030.0,60.0,46.0,18.0,113.0,2053.03
2053040.0,58.0,44.0,16.0,112.0,2053.04
2053050.0,57.0,44.0,16.0,113.0,2053.05
2053060.0,59.0,47.0,22.0,106.0,2053.06
2053070.0,57.0,45.0,19.0,119.0,2053.07
2053080.0,57.0,44.0,18.0,114.0,2053.08
2053090.0,56.0,43.0,17.0,120.0,2053.09
2053100.0,55.0,41.0,16.0,118.0,2053.1
2053110.0,55.0,42.0,14.0,111.0,2053.11
2053120.0,55.0,41.0,13.0,113.0,2053.12
2053130.0,56.0,42.0,12.0,127.0,2053.13
2053140.0,56.0,41.0,11.0,132.0,2053.14
2053150.0,54.0,39.0,10.0,132.0,2053.15
2053160.0,54.0,39.0,9.0,124.0,2053.16
2053170.0,54.0,41.0,13.0,120.0,2053.17
2053180.0,55.0,41.0,13.0,114.0,2053.18
2053190.0,54.0,40.0,13.0,130.0,2053.19
2053200.0,55.0,41.0,21.0,131.0,2053.2
2053210.0,57.0,44.0,19.0,129.0,2053.21
2053220.0,56.0,42.0,18.0,122.0,2053.22
2053230.0,55.0,41.0,15.0,121.0,2053.23
2053240.0,56.0,40.0,13.0,122.0,2053.24
2053250.0,58.0,40.0,14.0,117.0,2053.25
2053260.0,58.0,41.0,14.0,110.0,2053.26
2053270.0,59.0,41.0,13.0,117.0,2053.27
2053280.0,59.0,41.0,11.0,114.0,2053.28
2053291.0,58.0,40.0,12.0,108.0,2053.291
2053301.0,58.0,40.0,13.0,119.0,2053.301
2053311.0,60.0,45.0,31.0,135.0,2053.311
2053321.0,60.0,45.0,29.0,125.0,2053.321
2053331.0,57.0,45.0,24.0,121.0,2053.331
2053341.0,57.0,45.0,22.0,120.0,2053.341
2053351.0,56.0,44.0,22.0,121.0,2053.351
2053361.0,56.0,45.0,22.0,126.0,2053.361
2053371.0,56.0,44.0,22.0,116.0,2053.371
2053381.0,55.0,44.0,21.0,111.0,2053.381
2053391.0,55.0,45.0,20.0,111.0,2053.391
2053401.0,55.0,45.0,20.0,105.0,2053.401
2053411.0,54.0,45.0,18.0,113.0,2053.411
2053421.0,54.0,45.0,21.0,111.0,2053.421
2053431.0,56.0,49.0,30.0,109.0,2053.431
2053441.0,54.0,48.0,27.0,103.0,2053.441
2053451.0,53.0,48.0,25.0,101.0,2053.451
2053462.0,52.0,48.0,25.0,116.0,2053.462
2053472.0,52.0,47.0,23.0,111.0,2053.472
2053482.0,50.0,47.0,20.0,110.0,2053.482
2053492.0,52.0,48.0,19.0,113.0,2053.492
2053502.0,52.0,47.0,17.0,115.0,2053.502
2053512.0,51.0,47.0,17.0,124.0,2053.512
2053522.0,53.0,48.0,19.0,128.0,2053.522
2053532.0,53.0,48.0,17.0,127.0,2053.532
2053542.0,55.0,49.0,25.0,121.0,2053.542
2053552.0,55.0,49.0,26.0,115.0,2053.552
2053562.0,54.0,49.0,24.0,115.0,2053.562
2053572.0,55.0,49.0,23.0,125.0,2053.572
2053582.0,53.0,50.0,21.0,128.0,2053.582
2053592.0,52.0,48.0,20.0,119.0,2053.592
2053602.0,53.0,47.0,17.0,114.0,2053.602
2053612.0,53.0,45.0,15.0,107.0,2053.612
2053622.0,55.0,48.0,30.0,113.0,2053.622
2053632.0,53.0,47.0,30.0,112.0,2053.632
2053642.0,54.0,47.0,28.0,127.0,2053.642
2053652.0,53.0,47.0,27.0,125.0,2053.652
2053662.0,54.0,46.0,24.0,116.0,2053.662
2053672.0,55.0,46.0,27.0,111.0,2053.672
2053682.0,54.0,48.0,29.0,109.0,2053.682
2053692.0,55.0,48.0,27.0,122.0,2053.692
2053702.0,53.0,46.0,28.0,129.0,2053.702
2053712.0,52.0,45.0,24.0,132.0,2053.712
2053722.0,51.0,45.0,23.0,126.0,2053.722
2053732.0,50.0,46.0,31.0,117.0,2053.732
2053742.0,50.0,44.0,28.0,107.0,2053.742
2053752.0,49.0,43.0,25.0,108.0,2053.752
2053762.0,49.0,43.0,25.0,104.0,2053.762
2053772.0,50.0,42.0,22.0,120.0,2053.772
2053782.0,50.0,42.0,23.0,126.0,2053.782
2053792.0,52.0,41.0,21.0,128.0,2053.792
2053803.0,51.0,43.0,23.0,127.0,2053.803
2053813.0,53.0,42.0,29.0,136.0,2053.813
2053823.0,54.0,42.0,29.0,139.0,2053.823
2053833.0,55.0,42.0,27.0,146.0,2053.833
2053843.0,55.0,41.0,27.0,137.0,2053.843
2053853.0,54.0,42.0,30.0,137.0,2053.853
2053863.0,56.0,43.0,31.0,123.0,2053.863
2053873.0,56.0,43.0,27.0,118.0,2053.873
2053883.0,55.0,44.0,36.0,134.0,2053.883
2053893.0,54.0,43.0,38.0,132.0,2053.893
2053903.0,53.0,43.0,35.0,126.0,2053.903
2053913.0,55.0,42.0,32.0,129.0,2053.913
2053923.0,54.0,42.0,30.0,126.0,2053.923
2053933.0,52.0,41.0,30.0,123.0,2053.933
2053943.0,53.0,41.0,28.0,123.0,2053.943
2053953.0,50.0,40.0,26.0,127.0,2053.953
2053963.0,51.0,40.0,25.0,122.0,2053.963
2053974.0,50.0,42.0,38.0,118.0,2053.974
2053984.0,52.0,42.0,38.0,114.0,2053.984
2053994.0,51.0,41.0,36.0,115.0,2053.994
2054004.0,50.0,41.0,34.0,109.0,2054.004
2054014.0,49.0,40.0,40.0,105.0,2054.014
2054024.0,51.0,42.0,36.0,107.0,2054.024
2054034.0,51.0,42.0,46.0,114.0,2054.034
2054044.0,52.0,44.0,47.0,111.0,2054.044
2054054.0,51.0,43.0,47.0,101.0,2054.054
2054064.0,54.0,45.0,42.0,101.0,2054.064
2054074.0,52.0,44.0,38.0,105.0,2054.074
2054084.0,52.0,45.0,40.0,105.0,2054.084
2054094.0,53.0,47.0,51.0,113.0,2054.094
2054104.0,53.0,46.0,48.0,110.0,2054.104
2054114.0,53.0,46.0,54.0,113.0,2054.114
2054124.0,53.0,45.0,47.0,117.0,2054.124
2054134.0,52.0,46.0,42.0,129.0,2054.134
2054144.0,52.0,46.0,44.0,127.0,2054.144
2054154.0,50.0,47.0,44.0,117.0,2054.154
2054164.0,52.0,46.0,39.0,109.0,2054.164
2054174.0,52.0,48.0,43.0,110.0,2054.174
2054184.0,53.0,48.0,47.0,127.0,2054.184
2054194.0,53.0,48.0,45.0,130.0,2054.194
2054204.0,52.0,52.0,43.0,131.0,2054.204
2054214.0,55.0,53.0,46.0,131.0,2054.214
2054224.0,54.0,54.0,53.0,119.0,2054.224
2054234.0,55.0,53.0,48.0,147.0,2054.234
2054244.0,55.0,54.0,44.0,142.0,2054.244
2054254.0,56.0,53.0,40.0,133.0,2054.254
2054264.0,56.0,55.0,35.0,140.0,2054.264
2054274.0,54.0,55.0,33.0,132.0,2054.274
2054284.0,55.0,55.0,31.0,121.0,2054.284
2054294.0,55.0,56.0,43.0,142.0,2054.294
2054304.0,54.0,57.0,46.0,132.0,2054.304
2054315.0,54.0,58.0,41.0,135.0,2054.315
2054325.0,54.0,57.0,35.0,132.0,2054.325
2054335.0,52.0,58.0,36.0,127.0,2054.335
2054345.0,53.0,56.0,33.0,130.0,2054.345
2054355.0,53.0,57.0,33.0,123.0,2054.355
2054365.0,52.0,56.0,35.0,117.0,2054.365
2054375.0,50.0,56.0,32.0,126.0,2054.375
2054385.0,51.0,57.0,37.0,122.0,2054.385
2054395.0,51.0,58.0,42.0,122.0,2054.395
2054405.0,52.0,57.0,44.0,144.0,2054.405
2054415.0,52.0,57.0,39.0,137.0,2054.415
2054425.0,53.0,56.0,36.0,142.0,2054.425
2054435.0,52.0,57.0,39.0,142.0,2054.435
2054445.0,52.0,56.0,37.0,138.0,2054.445
2054455.0,53.0,56.0,50.0,133.0,2054.455
2054465.0,53.0,57.0,50.0,134.0,2054.465
2054475.0,53.0,56.0,47.0,132.0,2054.475
2054486.0,52.0,56.0,44.0,121.0,2054.486
2054496.0,53.0,55.0,43.0,119.0,2054.496
2054506.0,52.0,57.0,45.0,114.0,2054.506
2054516.0,52.0,58.0,58.0,117.0,2054.516
2054526.0,52.0,56.0,53.0,113.0,2054.526
2054536.0,51.0,57.0,48.0,106.0,2054.536
2054546.0,51.0,57.0,48.0,125.0,2054.546
2054556.0,51.0,56.0,42.0,126.0,2054.556
2054566.0,50.0,57.0,47.0,120.0,2054.566
2054576.0,49.0,56.0,44.0,114.0,2054.576
2054586.0,50.0,56.0,43.0,118.0,2054.586
2054596.0,50.0,56.0,43.0,120.0,2054.596
2054606.0,49.0,55.0,40.0,115.0,2054.606
2054616.0,49.0,56.0,37.0,109.0,2054.616
2054626.0,50.0,54.0,34.0,106.0,2054.626
2054636.0,49.0,57.0,33.0,104.0,2054.636
2054646.0,51.0,57.0,38.0,112.0,2054.646
2054656.0,52.0,56.0,36.0,106.0,2054.656
2054666.0,50.0,57.0,35.0,110.0,2054.666
2054676.0,52.0,56.0,38.0,105.0,2054.676
2054686.0,51.0,57.0,34.0,106.0,2054.686
2054696.0,51.0,57.0,33.0,113.0,2054.696
2054706.0,51.0,55.0,30.0,114.0,2054.706
2054716.0,51.0,57.0,30.0,115.0,2054.716
2054726.0,53.0,58.0,43.0,120.0,2054.726
2054736.0,50.0,57.0,38.0,110.0,2054.736
2054746.0,51.0,56.0,36.0,114.0,2054.746
2054756.0,51.0,56.0,35.0,120.0,2054.756
2054766.0,51.0,57.0,31.0,121.0,2054.766
2054776.0,51.0,56.0,28.0,119.0,2054.776
2054786.0,49.0,60.0,32.0,116.0,2054.786
2054796.0,50.0,59.0,34.0,108.0,2054.796
2054806.0,50.0,59.0,30.0,108.0,2054.806
2054816.0,48.0,59.0,26.0,108.0,2054.816
2054827.0,49.0,59.0,30.0,108.0,2054.827
2054837.0,49.0,60.0,29.0,114.0,2054.837
2054847.0,49.0,58.0,27.0,111.0,2054.847
2054857.0,49.0,59.0,31.0,112.0,2054.857
2054867.0,49.0,58.0,36.0,119.0,2054.867
2054877.0,51.0,57.0,34.0,132.0,2054.877
2054887.0,50.0,56.0,32.0,125.0,2054.887
2054897.0,51.0,55.0,28.0,123.0,2054.897
2054907.0,50.0,56.0,30.0,125.0,2054.907
2054917.0,50.0,55.0,42.0,122.0,2054.917
2054927.0,50.0,55.0,48.0,120.0,2054.927
2054937.0,51.0,54.0,45.0,115.0,2054.937
2054947.0,52.0,53.0,43.0,123.0,2054.947
2054957.0,51.0,53.0,37.0,124.0,2054.957
2054967.0,50.0,53.0,32.0,120.0,2054.967
2054977.0,51.0,53.0,30.0,136.0,2054.977
2054987.0,54.0,55.0,33.0,129.0,2054.987
2054998.0,53.0,53.0,31.0,126.0,2054.998
2055008.0,55.0,54.0,31.0,132.0,2055.008
2055018.0,56.0,53.0,36.0,131.0,2055.018
2055028.0,56.0,55.0,36.0,137.0,2055.028
2055038.0,54.0,56.0,36.0,134.0,2055.038
2055048.0,55.0,56.0,32.0,136.0,2055.048
2055058.0,54.0,55.0,29.0,137.0,2055.058
2055068.0,55.0,53.0,26.0,126.0,2055.068
2055078.0,53.0,54.0,29.0,118.0,2055.078
2055088.0,52.0,56.0,29.0,109.0,2055.088
2055098.0,54.0,54.0,36.0,106.0,2055.098
2055108.0,53.0,55.0,32.0,101.0,2055.108
2055118.0,53.0,55.0,32.0,105.0,2055.118
2055128.0,52.0,55.0,30.0,111.0,2055.128
2055138.0,51.0,54.0,27.0,106.0,2055.138
2055148.0,53.0,52.0,26.0,118.0,2055.148
2055158.0,50.0,55.0,33.0,114.0,2055.158
