time (ms),signal 0,signal 1,signal 2,signal3,time (sec)
2081590.0,56.0,42.0,18.0,118.0,2081.59
2081600.0,57.0,42.0,18.0,113.0,2081.6
2081610.0,57.0,40.0,16.0,105.0,2081.61
2081620.0,57.0,40.0,13.0,114.0,2081.62
2081630.0,57.0,40.0,15.0,112.0,2081.63
2081640.0,57.0,41.0,15.0,120.0,2081.64
2081650.0,58.0,42.0,14.0,134.0,2081.65
2081660.0,58.0,40.0,14.0,129.0,2081.66
2081670.0,59.0,40.0,15.0,126.0,2081.67
2081680.0,59.0,39.0,15.0,125.0,2081.68
2081690.0,58.0,39.0,12.0,123.0,2081.69
2081700.0,58.0,39.0,13.0,119.0,2081.7
2081710.0,59.0,37.0,15.0,122.0,2081.71
2081720.0,59.0,38.0,17.0,120.0,2081.72
2081730.0,62.0,38.0,17.0,124.0,2081.73
2081740.0,60.0,38.0,17.0,118.0,2081.74
2081750.0,60.0,40.0,19.0,111.0,2081.75
2081760.0,60.0,40.0,18.0,110.0,2081.76
2081770.0,58.0,40.0,16.0,109.0,2081.77
2081780.0,58.0,39.0,16.0,112.0,2081.78
2081790.0,60.0,41.0,15.0,111.0,2081.79
2081800.0,59.0,38.0,14.0,102.0,2081.8
2081810.0,60.0,39.0,14.0,101.0,2081.81
2081820.0,57.0,39.0,13.0,102.0,2081.82
2081830.0,58.0,38.0,11.0,103.0,2081.83
2081840.0,58.0,38.0,10.0,99.0,2081.84
2081850.0,56.0,39.0,10.0,93.0,2081.85
2081860.0,55.0,39.0,10.0,92.0,2081.86
2081870.0,55.0,40.0,10.0,84.0,2081.87
2081880.0,55.0,38.0,9.0,84.0,2081.88
2081890.0,54.0,38.0,9.0,80.0,2081.89
2081900.0,55.0,37.0,9.0,104.0,2081.9
2081910.0,55.0,38.0,8.0,104.0,2081.91
2081920.0,56.0,39.0,7.0,102.0,2081.92
2081930.0,58.0,37.0,7.0,97.0,2081.93
2081940.0,57.0,38.0,7.0,99.0,2081.94
2081950.0,58.0,38.0,7.0,104.0,2081.95
2081960.0,61.0,38.0,6.0,123.0,2081.96
2081970.0,61.0,39.0,9.0,117.0,2081.97
2081980.0,63.0,39.0,11.0,130.0,2081.98
2081990.0,63.0,39.0,9.0,120.0,2081.99
2082000.0,63.0,39.0,9.0,137.0,2082.0
2082010.0,64.0,41.0,8.0,128.0,2082.01
2082020.0,63.0,40.0,8.0,121.0,2082.02
2082030.0,64.0,40.0,8.0,115.0,2082.03
2082040.0,61.0,42.0,9.0,119.0,2082.04
2082050.0,61.0,43.0,11.0,118.0,2082.05
2082060.0,62.0,45.0,12.0,121.0,2082.06
2082070.0,62.0,43.0,10.0,121.0,2082.07
2082080.0,62.0,43.0,12.0,125.0,2082.08
2082091.0,62.0,42.0,11.0,124.0,2082.091
2082101.0,61.0,42.0,9.0,114.0,2082.101
2082111.0,61.0,43.0,8.0,110.0,2082.111
2082121.0,62.0,42.0,9.0,115.0,2082.121
2082131.0,60.0,44.0,8.0,126.0,2082.131
2082141.0,60.0,44.0,9.0,123.0,2082.141
2082151.0,60.0,43.0,10.0,126.0,2082.151
2082161.0,60.0,43.0,10.0,118.0,2082.161
2082171.0,61.0,41.0,10.0,124.0,2082.171
2082181.0,61.0,42.0,9.0,123.0,2082.181
2082191.0,61.0,41.0,9.0,130.0,2082.191
2082201.0,60.0,41.0,8.0,125.0,2082.201
2082211.0,60.0,40.0,9.0,118.0,2082.211
2082221.0,59.0,39.0,9.0,133.0,2082.221
2082231.0,60.0,41.0,12.0,136.0,2082.231
2082241.0,61.0,40.0,14.0,138.0,2082.241
2082251.0,60.0,39.0,12.0,133.0,2082.251
2082262.0,60.0,39.0,12.0,133.0,2082.262
2082272.0,60.0,39.0,12.0,125.0,2082.272
2082282.0,58.0,38.0,8.0,115.0,2082.282
2082292.0,58.0,38.0,13.0,112.0,2082.292
2082302.0,57.0,39.0,12.0,105.0,2082.302
2082312.0,58.0,38.0,11.0,113.0,2082.312
2082322.0,58.0,38.0,11.0,118.0,2082.322
2082332.0,56.0,38.0,11.0,121.0,2082.332
2082342.0,56.0,38.0,11.0,118.0,2082.342
2082352.0,55.0,39.0,9.0,114.0,2082.352
2082362.0,55.0,39.0,11.0,117.0,2082.362
2082372.0,55.0,38.0,11.0,117.0,2082.372
2082382.0,54.0,39.0,10.0,116.0,2082.382
2082392.0,53.0,38.0,10.0,112.0,2082.392
2082402.0,53.0,37.0,8.0,109.0,2082.402
2082412.0,53.0,37.0,8.0,108.0,2082.412
2082422.0,53.0,37.0,8.0,115.0,2082.422
2082432.0,52.0,38.0,7.0,126.0,2082.432
2082442.0,52.0,37.0,8.0,120.0,2082.442
2082452.0,51.0,37.0,11.0,119.0,2082.452
2082462.0,51.0,37.0,14.0,115.0,2082.462
2082472.0,53.0,37.0,13.0,110.0,2082.472
2082482.0,52.0,37.0,13.0,122.0,2082.482
2082492.0,54.0,37.0,13.0,133.0,2082.492
2082502.0,54.0,37.0,11.0,144.0,2082.502
2082512.0,53.0,37.0,12.0,140.0,2082.512
2082522.0,55.0,37.0,11.0,130.0,2082.522
2082532.0,55.0,38.0,11.0,130.0,2082.532
2082542.0,56.0,38.0,11.0,128.0,2082.542
2082552.0,56.0,38.0,9.0,125.0,2082.552
2082562.0,57.0,38.0,11.0,123.0,2082.562
2082572.0,57.0,39.0,10.0,127.0,2082.572
2082582.0,55.0,38.0,9.0,119.0,2082.582
2082592.0,57.0,39.0,13.0,113.0,2082.592
2082603.0,56.0,39.0,13.0,108.0,2082.603
2082613.0,54.0,38.0,11.0,110.0,2082.613
2082623.0,54.0,38.0,10.0,106.0,2082.623
2082633.0,56.0,39.0,10.0,99.0,2082.633
2082643.0,56.0,40.0,13.0,97.0,2082.643
2082653.0,56.0,41.0,11.0,93.0,2082.653
2082663.0,58.0,42.0,12.0,97.0,2082.663
2082673.0,58.0,44.0,11.0,102.0,2082.673
2082683.0,59.0,43.0,11.0,100.0,2082.683
2082693.0,60.0,43.0,11.0,103.0,2082.693
2082703.0,61.0,44.0,13.0,100.0,2082.703
2082713.0,64.0,41.0,16.0,101.0,2082.713
2082723.0,64.0,42.0,14.0,111.0,2082.723
2082733.0,64.0,42.0,13.0,109.0,2082.733
2082743.0,66.0,41.0,11.0,107.0,2082.743
2082753.0,65.0,42.0,10.0,107.0,2082.753
2082763.0,66.0,40.0,10.0,108.0,2082.763
2082774.0,65.0,41.0,9.0,105.0,2082.774
2082784.0,63.0,42.0,11.0,101.0,2082.784
2082794.0,63.0,42.0,12.0,98.0,2082.794
2082804.0,62.0,41.0,12.0,95.0,2082.804
2082814.0,62.0,41.0,10.0,96.0,2082.814
2082824.0,63.0,42.0,12.0,93.0,2082.824
2082834.0,63.0,43.0,12.0,88.0,2082.834
2082844.0,63.0,43.0,10.0,86.0,2082.844
2082854.0,63.0,44.0,14.0,93.0,2082.854
2082864.0,63.0,43.0,15.0,91.0,2082.864
2082874.0,63.0,44.0,12.0,97.0,2082.874
2082884.0,63.0,45.0,13.0,94.0,2082.884
2082894.0,63.0,45.0,13.0,99.0,2082.894
2082904.0,63.0,44.0,13.0,104.0,2082.904
2082914.0,63.0,46.0,13.0,103.0,2082.914
2082924.0,64.0,45.0,12.0,101.0,2082.924
2082934.0,65.0,46.0,13.0,104.0,2082.934
2082944.0,65.0,47.0,11.0,108.0,2082.944
2082954.0,64.0,50.0,27.0,108.0,2082.954
2082964.0,66.0,49.0,25.0,112.0,2082.964
2082974.0,66.0,49.0,24.0,113.0,2082.974
2082984.0,66.0,47.0,25.0,115.0,2082.984
2082994.0,67.0,45.0,21.0,107.0,2082.994
2083004.0,65.0,46.0,19.0,99.0,2083.004
2083014.0,65.0,47.0,17.0,100.0,2083.014
2083024.0,63.0,46.0,16.0,95.0,2083.024
2083034.0,63.0,47.0,14.0,89.0,2083.034
2083044.0,64.0,47.0,15.0,85.0,2083.044
2083054.0,63.0,46.0,14.0,86.0,2083.054
2083064.0,64.0,46.0,13.0,98.0,2083.064
2083074.0,87.0,50.0,14.0,110.0,2083.074
2083084.0,92.0,49.0,15.0,102.0,2083.084
2083094.0,98.0,49.0,12.0,94.0,2083.094
2083104.0,96.0,47.0,11.0,85.0,2083.104
2083115.0,106.0,47.0,9.0,84.0,2083.115
2083125.0,100.0,48.0,9.0,78.0,2083.125
2083135.0,100.0,50.0,9.0,85.0,2083.135
2083145.0,103.0,53.0,13.0,90.0,2083.145
2083155.0,108.0,62.0,16.0,97.0,2083.155
2083165.0,119.0,69.0,22.0,105.0,2083.165
2083175.0,129.0,75.0,20.0,101.0,2083.175
2083185.0,126.0,73.0,20.0,95.0,2083.185
2083195.0,131.0,76.0,20.0,89.0,2083.195
2083205.0,153.0,88.0,29.0,102.0,2083.205
2083215.0,188.0,102.0,27.0,112.0,2083.215
2083225.0,196.0,115.0,36.0,110.0,2083.225
2083235.0,234.0,117.0,36.0,111.0,2083.235
2083245.0,219.0,114.0,36.0,117.0,2083.245
2083255.0,216.0,121.0,35.0,143.0,2083.255
2083265.0,202.0,130.0,37.0,148.0,2083.265
2083275.0,183.0,124.0,33.0,163.0,2083.275
2083286.0,166.0,128.0,31.0,171.0,2083.286
2083296.0,151.0,123.0,29.0,187.0,2083.296
2083306.0,140.0,130.0,34.0,179.0,2083.306
2083316.0,137.0,129.0,36.0,181.0,2083.316
2083326.0,131.0,127.0,33.0,179.0,2083.326
2083336.0,125.0,129.0,37.0,168.0,2083.336
2083346.0,116.0,128.0,48.0,162.0,2083.346
2083356.0,112.0,130.0,71.0,165.0,2083.356
2083366.0,105.0,128.0,72.0,165.0,2083.366
2083376.0,110.0,130.0,73.0,152.0,2083.376
2083386.0,104.0,127.0,64.0,140.0,2083.386
2083396.0,100.0,128.0,73.0,155.0,2083.396
2083406.0,94.0,125.0,65.0,154.0,2083.406
2083416.0,92.0,132.0,79.0,147.0,2083.416
2083426.0,87.0,132.0,77.0,144.0,2083.426
2083436.0,90.0,131.0,73.0,149.0,2083.436
2083446.0,90.0,128.0,71.0,156.0,2083.446
2083456.0,90.0,133.0,68.0,165.0,2083.456
2083466.0,88.0,134.0,64.0,187.0,2083.466
2083476.0,93.0,137.0,83.0,236.0,2083.476
2083486.0,92.0,135.0,78.0,258.0,2083.486
2083496.0,91.0,134.0,93.0,341.0,2083.496
2083506.0,89.0,132.0,91.0,336.0,2083.506
2083516.0,92.0,138.0,93.0,448.0,2083.516
2083526.0,92.0,135.0,112.0,532.0,2083.526
2083536.0,94.0,132.0,116.0,532.0,2083.536
2083546.0,100.0,129.0,118.0,491.0,2083.546
2083556.0,92.0,129.0,133.0,491.0,2083.556
2083566.0,91.0,127.0,127.0,511.0,2083.566
2083576.0,95.0,126.0,124.0,502.0,2083.576
2083586.0,101.0,130.0,116.0,501.0,2083.586
2083596.0,99.0,131.0,109.0,499.0,2083.596
2083606.0,96.0,129.0,116.0,492.0,2083.606
2083616.0,113.0,131.0,118.0,472.0,2083.616
2083627.0,112.0,123.0,114.0,435.0,2083.627
2083637.0,104.0,122.0,107.0,418.0,2083.637
2083647.0,104.0,118.0,101.0,432.0,2083.647
2083657.0,98.0,120.0,96.0,411.0,2083.657
2083667.0,102.0,123.0,92.0,407.0,2083.667
2083677.0,98.0,115.0,88.0,448.0,2083.677
2083687.0,97.0,117.0,102.0,506.0,2083.687
2083697.0,96.0,114.0,123.0,486.0,2083.697
2083707.0,92.0,106.0,110.0,469.0,2083.707
2083717.0,106.0,111.0,112.0,537.0,2083.717
2083727.0,120.0,108.0,103.0,522.0,2083.727
2083737.0,116.0,104.0,111.0,496.0,2083.737
2083747.0,116.0,100.0,114.0,498.0,2083.747
2083757.0,107.0,97.0,103.0,465.0,2083.757
2083767.0,108.0,99.0,130.0,431.0,2083.767
2083777.0,104.0,92.0,124.0,413.0,2083.777
2083787.0,105.0,96.0,119.0,415.0,2083.787
2083798.0,108.0,93.0,118.0,476.0,2083.798
2083808.0,103.0,88.0,107.0,453.0,2083.808
2083818.0,99.0,91.0,115.0,422.0,2083.818
2083828.0,99.0,89.0,112.0,397.0,2083.828
2083838.0,108.0,88.0,106.0,376.0,2083.838
2083848.0,106.0,85.0,99.0,374.0,2083.848
2083858.0,109.0,83.0,96.0,382.0,2083.858
2083868.0,100.0,80.0,94.0,356.0,2083.868
2083878.0,101.0,82.0,103.0,337.0,2083.878
2083888.0,109.0,79.0,95.0,319.0,2083.888
2083898.0,109.0,78.0,85.0,354.0,2083.898
2083908.0,100.0,77.0,78.0,336.0,2083.908
2083918.0,96.0,73.0,72.0,323.0,2083.918
2083928.0,99.0,76.0,66.0,357.0,2083.928
2083938.0,97.0,76.0,72.0,360.0,2083.938
2083948.0,103.0,82.0,89.0,327.0,2083.948
2083958.0,100.0,78.0,87.0,310.0,2083.958
2083968.0,98.0,75.0,86.0,299.0,2083.968
2083978.0,92.0,76.0,88.0,301.0,2083.978
2083988.0,89.0,77.0,90.0,302.0,2083.988
2083998.0,101.0,82.0,92.0,296.0,2083.998
2084008.0,107.0,83.0,80.0,295.0,2084.008
2084018.0,106.0,82.0,71.0,279.0,2084.018
2084028.0,99.0,85.0,73.0,275.0,2084.028
2084038.0,97.0,86.0,77.0,272.0,2084.038
2084048.0,93.0,81.0,86.0,292.0,2084.048
2084058.0,94.0,81.0,86.0,297.0,2084.058
2084068.0,90.0,79.0,78.0,308.0,2084.068
2084078.0,89.0,76.0,71.0,302.0,2084.078
2084088.0,91.0,76.0,63.0,293.0,2084.088
2084098.0,93.0,76.0,68.0,343.0,2084.098
2084108.0,89.0,77.0,72.0,353.0,2084.108
2084118.0,90.0,78.0,71.0,328.0,2084.118
2084128.0,92.0,84.0,90.0,304.0,2084.128
2084139.0,96.0,83.0,88.0,308.0,2084.139
2084149.0,96.0,79.0,83.0,314.0,2084.149
2084159.0,95.0,77.0,78.0,320.0,2084.159
2084169.0,91.0,74.0,67.0,302.0,2084.169
2084179.0,92.0,78.0,68.0,302.0,2084.179
2084189.0,91.0,79.0,73.0,294.0,2084.189
2084199.0,84.0,79.0,75.0,289.0,2084.199
2084209.0,90.0,79.0,79.0,304.0,2084.209
2084219.0,89.0,82.0,91.0,318.0,2084.219
2084229.0,88.0,80.0,85.0,310.0,2084.229
2084239.0,88.0,81.0,80.0,320.0,2084.239
2084249.0,89.0,83.0,73.0,328.0,2084.249
2084259.0,87.0,88.0,76.0,311.0,2084.259
2084269.0,83.0,87.0,72.0,304.0,2084.269
2084279.0,82.0,87.0,104.0,305.0,2084.279
2084289.0,83.0,87.0,117.0,302.0,2084.289
2084299.0,91.0,89.0,113.0,290.0,2084.299
2084310.0,86.0,81.0,97.0,272.0,2084.31
2084320.0,85.0,79.0,93.0,274.0,2084.32
2084330.0,80.0,76.0,82.0,258.0,2084.33
2084340.0,81.0,78.0,74.0,256.0,2084.34
2084350.0,77.0,79.0,73.0,259.0,2084.35
2084360.0,78.0,80.0,77.0,236.0,2084.36
2084370.0,82.0,83.0,87.0,240.0,2084.37
2084380.0,79.0,82.0,93.0,252.0,2084.38
2084390.0,78.0,79.0,91.0,261.0,2084.39
2084400.0,76.0,76.0,79.0,286.0,2084.4
2084410.0,74.0,75.0,79.0,288.0,2084.41
2084420.0,70.0,79.0,80.0,265.0,2084.42
2084430.0,70.0,74.0,70.0,273.0,2084.43
2084440.0,71.0,76.0,64.0,283.0,2084.44
2084450.0,71.0,76.0,67.0,275.0,2084.45
2084460.0,70.0,72.0,75.0,280.0,2084.46
2084470.0,71.0,73.0,72.0,269.0,2084.47
2084480.0,76.0,74.0,77.0,255.0,2084.48
2084490.0,75.0,75.0,76.0,243.0,2084.49
2084500.0,71.0,77.0,70.0,257.0,2084.5
2084510.0,77.0,75.0,76.0,283.0,2084.51
2084520.0,75.0,75.0,77.0,286.0,2084.52
2084530.0,74.0,76.0,91.0,316.0,2084.53
2084540.0,74.0,76.0,88.0,326.0,2084.54
2084550.0,76.0,73.0,79.0,311.0,2084.55
2084560.0,76.0,73.0,71.0,286.0,2084.56
2084570.0,74.0,73.0,64.0,271.0,2084.57
2084580.0,81.0,73.0,61.0,250.0,2084.58
2084590.0,78.0,75.0,73.0,260.0,2084.59
2084600.0,77.0,76.0,77.0,246.0,2084.6
2084610.0,75.0,74.0,80.0,254.0,2084.61
2084620.0,73.0,72.0,83.0,263.0,2084.62
2084630.0,74.0,73.0,77.0,267.0,2084.63
2084640.0,74.0,74.0,72.0,264.0,2084.64
2084651.0,78.0,73.0,70.0,240.0,2084.651
2084661.0,80.0,71.0,80.0,230.0,2084.661
2084671.0,83.0,70.0,75.0,252.0,2084.671
2084681.0,80.0,67.0,66.0,266.0,2084.681
2084691.0,77.0,67.0,57.0,251.0,2084.691
2084701.0,78.0,66.0,54.0,242.0,2084.701
2084711.0,74.0,67.0,54.0,280.0,2084.711
2084721.0,73.0,65.0,57.0,302.0,2084.721
2084731.0,75.0,65.0,53.0,306.0,2084.731
2084741.0,76.0,65.0,49.0,278.0,2084.741
2084751.0,75.0,64.0,65.0,252.0,2084.751
2084761.0,80.0,63.0,64.0,288.0,2084.761
2084771.0,77.0,62.0,58.0,280.0,2084.771
2084781.0,77.0,62.0,56.0,262.0,2084.781
2084791.0,78.0,62.0,48.0,250.0,2084.791
2084801.0,79.0,61.0,43.0,243.0,2084.801
2084811.0,80.0,63.0,53.0,228.0,2084.811
2084822.0,80.0,60.0,55.0,216.0,2084.822
2084832.0,82.0,56.0,49.0,224.0,2084.832
2084842.0,78.0,59.0,44.0,234.0,2084.842
2084852.0,78.0,56.0,41.0,216.0,2084.852
2084862.0,76.0,57.0,42.0,197.0,2084.862
2084872.0,77.0,55.0,42.0,203.0,2084.872
2084882.0,73.0,60.0,44.0,191.0,2084.882
2084892.0,75.0,60.0,45.0,192.0,2084.892
2084902.0,75.0,59.0,41.0,188.0,2084.902
2084912.0,77.0,60.0,38.0,190.0,2084.912
2084922.0,77.0,58.0,37.0,189.0,2084.922
2084932.0,76.0,59.0,36.0,185.0,2084.932
2084942.0,76.0,59.0,34.0,191.0,2084.942
2084952.0,78.0,59.0,34.0,200.0,2084.952
2084962.0,77.0,62.0,38.0,184.0,2084.962
2084972.0,81.0,63.0,44.0,176.0,2084.972
2084982.0,82.0,62.0,40.0,165.0,2084.982
2084992.0,81.0,59.0,39.0,167.0,2084.992
2085002.0,80.0,56.0,34.0,175.0,2085.002
2085012.0,78.0,55.0,30.0,180.0,2085.012
2085022.0,79.0,57.0,29.0,181.0,2085.022
2085032.0,77.0,57.0,26.0,207.0,2085.032
2085042.0,87.0,61.0,35.0,198.0,2085.042
2085052.0,92.0,62.0,50.0,197.0,2085.052
2085062.0,96.0,65.0,47.0,185.0,2085.062
2085072.0,106.0,63.0,42.0,187.0,2085.072
2085082.0,111.0,60.0,43.0,203.0,2085.082
2085092.0,110.0,61.0,59.0,219.0,2085.092
2085102.0,108.0,59.0,53.0,201.0,2085.102
2085112.0,102.0,58.0,47.0,210.0,2085.112
2085122.0,100.0,60.0,44.0,207.0,2085.122
2085132.0,102.0,60.0,45.0,214.0,2085.132
2085142.0,102.0,58.0,41.0,210.0,2085.142
2085152.0,101.0,63.0,61.0,213.0,2085.152
2085163.0,101.0,61.0,64.0,203.0,2085.163
2085173.0,108.0,61.0,70.0,195.0,2085.173
2085183.0,102.0,61.0,70.0,194.0,2085.183
2085193.0,103.0,58.0,64.0,174.0,2085.193
2085203.0,102.0,57.0,56.0,158.0,2085.203
2085213.0,97.0,56.0,60.0,147.0,2085.213
2085223.0,99.0,56.0,53.0,138.0,2085.223
2085233.0,96.0,57.0,59.0,134.0,2085.233
2085243.0,93.0,56.0,51.0,132.0,2085.243
2085253.0,99.0,56.0,46.0,137.0,2085.253
2085263.0,95.0,55.0,40.0,132.0,2085.263
2085273.0,95.0,53.0,36.0,129.0,2085.273
2085283.0,92.0,52.0,35.0,120.0,2085.283
2085293.0,93.0,52.0,37.0,154.0,2085.293
2085303.0,92.0,51.0,46.0,157.0,2085.303
2085313.0,91.0,52.0,53.0,151.0,2085.313
2085323.0,93.0,55.0,59.0,166.0,2085.323
2085334.0,95.0,59.0,55.0,202.0,2085.334
2085344.0,98.0,58.0,53.0,210.0,2085.344
2085354.0,99.0,58.0,47.0,192.0,2085.354
2085364.0,108.0,63.0,43.0,177.0,2085.364
2085374.0,101.0,63.0,46.0,175.0,2085.374
2085384.0,102.0,65.0,46.0,164.0,2085.384
2085394.0,101.0,65.0,40.0,172.0,2085.394
2085404.0,106.0,67.0,43.0,174.0,2085.404
2085414.0,107.0,70.0,47.0,156.0,2085.414
2085424.0,105.0,71.0,44.0,155.0,2085.424
2085434.0,106.0,72.0,50.0,177.0,2085.434
2085444.0,107.0,70.0,46.0,177.0,2085.444
2085454.0,106.0,73.0,41.0,174.0,2085.454
2085464.0,102.0,72.0,42.0,171.0,2085.464
2085474.0,106.0,71.0,37.0,163.0,2085.474
2085484.0,111.0,69.0,35.0,149.0,2085.484
2085494.0,110.0,72.0,32.0,150.0,2085.494
2085504.0,111.0,71.0,36.0,151.0,2085.504
2085514.0,107.0,70.0,39.0,140.0,2085.514
2085524.0,103.0,72.0,37.0,144.0,2085.524
2085534.0,106.0,72.0,41.0,143.0,2085.534
2085544.0,107.0,73.0,36.0,143.0,2085.544
2085554.0,105.0,75.0,33.0,138.0,2085.554
2085564.0,104.0,75.0,32.0,125.0,2085.564
2085574.0,103.0,77.0,27.0,111.0,2085.574
2085584.0,100.0,77.0,27.0,102.0,2085.584
2085594.0,99.0,77.0,26.0,100.0,2085.594
2085604.0,93.0,76.0,63.0,131.0,2085.604
2085614.0,96.0,80.0,107.0,175.0,2085.614
2085624.0,120.0,87.0,151.0,195.0,2085.624
2085634.0,122.0,87.0,159.0,210.0,2085.634
2085644.0,124.0,92.0,204.0,253.0,2085.644
2085654.0,131.0,101.0,219.0,248.0,2085.654
2085664.0,134.0,101.0,224.0,241.0,2085.664
2085675.0,137.0,105.0,212.0,245.0,2085.675
2085685.0,137.0,106.0,215.0,227.0,2085.685
2085695.0,137.0,109.0,272.0,290.0,2085.695
2085705.0,135.0,108.0,262.0,298.0,2085.705
2085715.0,139.0,113.0,241.0,286.0,2085.715
2085725.0,137.0,111.0,249.0,312.0,2085.725
2085735.0,143.0,119.0,228.0,306.0,2085.735
2085745.0,141.0,119.0,222.0,315.0,2085.745
2085755.0,144.0,128.0,217.0,339.0,2085.755
2085765.0,148.0,135.0,203.0,314.0,2085.765
2085775.0,147.0,138.0,202.0,323.0,2085.775
2085785.0,151.0,143.0,203.0,310.0,2085.785
2085795.0,151.0,148.0,185.0,317.0,2085.795
2085805.0,151.0,148.0,183.0,322.0,2085.805
2085815.0,151.0,149.0,183.0,331.0,2085.815
2085825.0,156.0,154.0,176.0,356.0,2085.825
2085835.0,153.0,154.0,169.0,345.0,2085.835
2085846.0,155.0,155.0,167.0,333.0,2085.846
2085856.0,159.0,157.0,162.0,357.0,2085.856
2085866.0,161.0,160.0,142.0,333.0,2085.866
2085876.0,156.0,158.0,134.0,340.0,2085.876
2085886.0,154.0,158.0,128.0,315.0,2085.886
2085896.0,149.0,156.0,117.0,314.0,2085.896
2085906.0,147.0,156.0,117.0,325.0,2085.906
2085916.0,143.0,154.0,114.0,304.0,2085.916
2085926.0,144.0,157.0,109.0,293.0,2085.926
2085936.0,140.0,151.0,122.0,285.0,2085.936
2085946.0,139.0,152.0,123.0,270.0,2085.946
2085956.0,137.0,151.0,111.0,259.0,2085.956
2085966.0,134.0,150.0,95.0,248.0,2085.966
2085976.0,131.0,150.0,106.0,229.0,2085.976
2085986.0,132.0,149.0,98.0,227.0,2085.986
2085996.0,132.0,149.0,84.0,222.0,2085.996
2086006.0,128.0,146.0,85.0,212.0,2086.006
2086016.0,129.0,147.0,86.0,212.0,2086.016
2086026.0,129.0,148.0,79.0,210.0,2086.026
2086036.0,130.0,147.0,72.0,231.0,2086.036
2086046.0,128.0,144.0,74.0,230.0,2086.046
2086056.0,130.0,143.0,70.0,209.0,2086.056
2086066.0,130.0,144.0,66.0,195.0,2086.066
2086076.0,130.0,144.0,58.0,178.0,2086.076
2086086.0,129.0,144.0,51.0,167.0,2086.086
2086096.0,125.0,139.0,51.0,173.0,2086.096
2086106.0,127.0,142.0,54.0,161.0,2086.106
2086116.0,125.0,141.0,50.0,163.0,2086.116
2086126.0,126.0,141.0,44.0,161.0,2086.126
2086136.0,123.0,139.0,48.0,154.0,2086.136
2086146.0,121.0,139.0,43.0,140.0,2086.146
2086156.0,120.0,135.0,40.0,132.0,2086.156
2086166.0,119.0,134.0,39.0,126.0,2086.166
2086176.0,119.0,132.0,38.0,128.0,2086.176
2086187.0,118.0,130.0,41.0,119.0,2086.187
2086197.0,117.0,129.0,36.0,110.0,2086.197
2086207.0,123.0,125.0,39.0,101.0,2086.207
2086217.0,128.0,126.0,35.0,92.0,2086.217
2086227.0,128.0,123.0,34.0,87.0,2086.227
2086237.0,124.0,119.0,47.0,95.0,2086.237
2086247.0,123.0,119.0,51.0,102.0,2086.247
2086257.0,120.0,118.0,56.0,102.0,2086.257
2086267.0,116.0,117.0,52.0,106.0,2086.267
2086277.0,112.0,114.0,46.0,111.0,2086.277
2086287.0,109.0,114.0,45.0,109.0,2086.287
2086297.0,105.0,110.0,61.0,121.0,2086.297
2086307.0,101.0,109.0,53.0,119.0,2086.307
2086317.0,100.0,111.0,49.0,118.0,2086.317
2086327.0,96.0,109.0,51.0,115.0,2086.327
2086337.0,95.0,110.0,48.0,106.0,2086.337
2086347.0,93.0,111.0,44.0,105.0,2086.347
2086358.0,92.0,112.0,38.0,105.0,2086.358
2086368.0,89.0,109.0,34.0,100.0,2086.368
2086378.0,87.0,106.0,40.0,104.0,2086.378
2086388.0,90.0,111.0,39.0,98.0,2086.388
2086398.0,90.0,110.0,43.0,93.0,2086.398
2086408.0,90.0,110.0,38.0,90.0,2086.408
2086418.0,91.0,110.0,32.0,91.0,2086.418
2086428.0,92.0,109.0,30.0,88.0,2086.428
2086438.0,93.0,110.0,26.0,88.0,2086.438
2086448.0,91.0,106.0,25.0,84.0,2086.448
2086458.0,90.0,103.0,33.0,93.0,2086.458
2086468.0,93.0,106.0,30.0,95.0,2086.468
2086478.0,93.0,104.0,31.0,90.0,2086.478
2086488.0,92.0,103.0,28.0,91.0,2086.488
2086498.0,94.0,102.0,26.0,93.0,2086.498
2086508.0,93.0,101.0,23.0,94.0,2086.508
2086518.0,93.0,98.0,22.0,86.0,2086.518
2086528.0,92.0,96.0,21.0,87.0,2086.528
2086538.0,91.0,93.0,29.0,89.0,2086.538
2086548.0,91.0,93.0,27.0,88.0,2086.548
2086558.0,88.0,88.0,40.0,102.0,2086.558
2086568.0,89.0,88.0,37.0,97.0,2086.568
2086578.0,89.0,85.0,33.0,104.0,2086.578
2086588.0,88.0,85.0,29.0,99.0,2086.588
2086598.0,86.0,82.0,33.0,106.0,2086.598
2086608.0,84.0,78.0,36.0,102.0,2086.608
2086618.0,84.0,78.0,36.0,97.0,2086.618
2086628.0,83.0,77.0,33.0,100.0,2086.628
2086638.0,82.0,78.0,30.0,103.0,2086.638
2086648.0,84.0,77.0,27.0,98.0,2086.648
2086658.0,83.0,78.0,24.0,105.0,2086.658
2086668.0,81.0,74.0,27.0,119.0,2086.668
2086678.0,83.0,74.0,35.0,129.0,2086.678
2086688.0,84.0,76.0,34.0,122.0,2086.688
2086699.0,83.0,75.0,31.0,117.0,2086.699
2086709.0,82.0,75.0,26.0,124.0,2086.709
2086719.0,80.0,73.0,28.0,123.0,2086.719
2086729.0,79.0,74.0,27.0,125.0,2086.729
2086739.0,80.0,74.0,29.0,139.0,2086.739
2086749.0,79.0,73.0,26.0,145.0,2086.749
2086759.0,77.0,71.0,23.0,135.0,2086.759
2086769.0,78.0,69.0,22.0,122.0,2086.769
2086779.0,75.0,69.0,28.0,113.0,2086.779
2086789.0,74.0,67.0,33.0,113.0,2086.789
2086799.0,75.0,68.0,34.0,108.0,2086.799
2086809.0,73.0,66.0,31.0,100.0,2086.809
2086819.0,73.0,64.0,29.0,96.0,2086.819
2086829.0,73.0,63.0,29.0,101.0,2086.829
2086839.0,73.0,63.0,31.0,95.0,2086.839
2086849.0,73.0,61.0,27.0,108.0,2086.849
2086859.0,70.0,59.0,23.0,107.0,2086.859
2086870.0,72.0,59.0,31.0,115.0,2086.87
2086880.0,73.0,59.0,28.0,108.0,2086.88
2086890.0,73.0,57.0,26.0,107.0,2086.89
2086900.0,72.0,57.0,33.0,115.0,2086.9
2086910.0,73.0,57.0,31.0,106.0,2086.91
2086920.0,73.0,58.0,33.0,109.0,2086.92
2086930.0,72.0,56.0,32.0,120.0,2086.93
2086940.0,70.0,54.0,28.0,121.0,2086.94
2086950.0,72.0,55.0,25.0,115.0,2086.95
2086960.0,72.0,53.0,32.0,112.0,2086.96
2086970.0,72.0,51.0,31.0,103.0,2086.97
2086980.0,71.0,50.0,31.0,94.0,2086.98
2086990.0,71.0,48.0,28.0,86.0,2086.99
2087000.0,71.0,46.0,27.0,84.0,2087.0
2087010.0,68.0,46.0,28.0,87.0,2087.01
2087020.0,71.0,47.0,28.0,84.0,2087.02
2087030.0,71.0,47.0,37.0,88.0,2087.03
2087040.0,72.0,46.0,37.0,103.0,2087.04
2087050.0,73.0,44.0,32.0,97.0,2087.05
2087060.0,73.0,45.0,30.0,92.0,2087.06
2087070.0,74.0,43.0,25.0,92.0,2087.07
2087080.0,72.0,43.0,22.0,100.0,2087.08
2087090.0,71.0,43.0,20.0,93.0,2087.09
2087100.0,72.0,44.0,18.0,88.0,2087.1
2087110.0,73.0,43.0,17.0,86.0,2087.11
2087120.0,72.0,49.0,29.0,98.0,2087.12
2087130.0,73.0,48.0,27.0,98.0,2087.13
2087140.0,76.0,47.0,24.0,102.0,2087.14
2087150.0,74.0,47.0,26.0,108.0,2087.15
2087160.0,74.0,45.0,23.0,104.0,2087.16
2087170.0,75.0,45.0,21.0,97.0,2087.17
2087180.0,74.0,46.0,18.0,90.0,2087.18
2087190.0,74.0,45.0,18.0,92.0,2087.19
2087200.0,72.0,46.0,20.0,95.0,2087.2
2087211.0,72.0,44.0,19.0,94.0,2087.211
2087221.0,73.0,44.0,19.0,89.0,2087.221
2087231.0,71.0,44.0,28.0,89.0,2087.231
2087241.0,73.0,44.0,26.0,91.0,2087.241
2087251.0,74.0,45.0,27.0,93.0,2087.251
2087261.0,74.0,43.0,27.0,100.0,2087.261
2087271.0,73.0,43.0,25.0,96.0,2087.271
2087281.0,73.0,43.0,22.0,97.0,2087.281
2087291.0,71.0,43.0,20.0,99.0,2087.291
2087301.0,68.0,45.0,22.0,107.0,2087.301
2087311.0,68.0,45.0,31.0,100.0,2087.311
2087321.0,69.0,46.0,30.0,104.0,2087.321
2087331.0,70.0,45.0,33.0,97.0,2087.331
2087341.0,68.0,45.0,34.0,93.0,2087.341
2087351.0,67.0,45.0,31.0,91.0,2087.351
2087361.0,69.0,43.0,28.0,90.0,2087.361
2087371.0,66.0,43.0,24.0,87.0,2087.371
2087382.0,65.0,45.0,30.0,88.0,2087.382
2087392.0,66.0,46.0,40.0,94.0,2087.392
2087402.0,67.0,44.0,37.0,92.0,2087.402
2087412.0,67.0,44.0,32.0,87.0,2087.412
2087422.0,65.0,43.0,28.0,82.0,2087.422
2087432.0,65.0,46.0,29.0,83.0,2087.432
2087442.0,66.0,45.0,26.0,85.0,2087.442
2087452.0,67.0,45.0,23.0,95.0,2087.452
2087462.0,66.0,47.0,32.0,91.0,2087.462
2087472.0,67.0,45.0,30.0,84.0,2087.472
2087482.0,66.0,47.0,29.0,86.0,2087.482
2087492.0,68.0,48.0,35.0,88.0,2087.492
2087502.0,68.0,50.0,32.0,85.0,2087.502
2087512.0,70.0,49.0,28.0,86.0,2087.512
2087522.0,68.0,47.0,25.0,87.0,2087.522
2087532.0,67.0,45.0,25.0,91.0,2087.532
2087542.0,67.0,47.0,27.0,88.0,2087.542
2087552.0,69.0,44.0,27.0,90.0,2087.552
2087562.0,69.0,44.0,29.0,86.0,2087.562
2087572.0,68.0,46.0,37.0,82.0,2087.572
2087582.0,70.0,45.0,35.0,87.0,2087.582
2087592.0,68.0,46.0,38.0,89.0,2087.592
2087602.0,68.0,46.0,40.0,89.0,2087.602
2087612.0,69.0,45.0,34.0,92.0,2087.612
2087622.0,67.0,47.0,32.0,98.0,2087.622
2087632.0,71.0,44.0,29.0,104.0,2087.632
2087642.0,70.0,45.0,27.0,99.0,2087.642
2087652.0,68.0,48.0,40.0,98.0,2087.652
2087662.0,69.0,47.0,38.0,99.0,2087.662
2087672.0,68.0,46.0,35.0,117.0,2087.672
2087682.0,67.0,45.0,34.0,113.0,2087.682
2087692.0,66.0,44.0,34.0,116.0,2087.692
2087702.0,66.0,42.0,31.0,107.0,2087.702
2087712.0,65.0,42.0,26.0,99.0,2087.712
2087723.0,63.0,43.0,24.0,97.0,2087.723
2087733.0,61.0,46.0,32.0,110.0,2087.733
2087743.0,60.0,48.0,42.0,110.0,2087.743
2087753.0,62.0,47.0,39.0,101.0,2087.753
2087763.0,62.0,47.0,36.0,101.0,2087.763
2087773.0,61.0,47.0,35.0,96.0,2087.773
2087783.0,61.0,46.0,31.0,94.0,2087.783
2087793.0,59.0,49.0,32.0,97.0,2087.793
2087803.0,60.0,49.0,35.0,100.0,2087.803
2087813.0,58.0,50.0,34.0,102.0,2087.813
2087823.0,60.0,51.0,32.0,99.0,2087.823
2087833.0,59.0,51.0,28.0,99.0,2087.833
2087843.0,59.0,52.0,34.0,96.0,2087.843
2087853.0,58.0,50.0,38.0,103.0,2087.853
2087863.0,57.0,51.0,33.0,105.0,2087.863
2087873.0,59.0,50.0,35.0,104.0,2087.873
2087883.0,57.0,50.0,30.0,99.0,2087.883
2087894.0,57.0,53.0,31.0,114.0,2087.894
2087904.0,56.0,50.0,28.0,111.0,2087.904
2087914.0,54.0,50.0,26.0,112.0,2087.914
2087924.0,54.0,49.0,32.0,109.0,2087.924
2087934.0,53.0,50.0,33.0,102.0,2087.934
2087944.0,53.0,51.0,30.0,108.0,2087.944
2087954.0,53.0,51.0,29.0,103.0,2087.954
2087964.0,52.0,50.0,26.0,99.0,2087.964
2087974.0,54.0,50.0,23.0,96.0,2087.974
2087984.0,52.0,51.0,22.0,100.0,2087.984
2087994.0,51.0,52.0,24.0,97.0,2087.994
2088004.0,52.0,51.0,21.0,94.0,2088.004
2088014.0,52.0,51.0,19.0,90.0,2088.014
2088024.0,52.0,51.0,20.0,83.0,2088.024
2088034.0,52.0,51.0,20.0,88.0,2088.034
2088044.0,51.0,50.0,19.0,85.0,2088.044
2088054.0,51.0,49.0,17.0,86.0,2088.054
2088064.0,50.0,53.0,27.0,95.0,2088.064
2088074.0,51.0,51.0,34.0,88.0,2088.074
2088084.0,51.0,50.0,38.0,97.0,2088.084
2088094.0,52.0,49.0,36.0,99.0,2088.094
2088104.0,52.0,50.0,35.0,100.0,2088.104
2088114.0,52.0,50.0,32.0,97.0,2088.114
2088124.0,52.0,48.0,29.0,93.0,2088.124
2088134.0,54.0,49.0,25.0,97.0,2088.134
2088144.0,51.0,48.0,25.0,92.0,2088.144
2088154.0,51.0,50.0,30.0,89.0,2088.154
2088164.0,52.0,51.0,33.0,95.0,2088.164
2088174.0,53.0,48.0,29.0,95.0,2088.174
2088184.0,50.0,49.0,28.0,90.0,2088.184
2088194.0,52.0,48.0,29.0,85.0,2088.194
2088204.0,53.0,50.0,31.0,83.0,2088.204
2088214.0,53.0,53.0,38.0,84.0,2088.214
2088224.0,54.0,50.0,34.0,82.0,2088.224
2088235.0,54.0,50.0,30.0,77.0,2088.235
2088245.0,55.0,48.0,32.0,77.0,2088.245
2088255.0,53.0,48.0,26.0,72.0,2088.255
2088265.0,53.0,47.0,24.0,69.0,2088.265
2088275.0,52.0,49.0,22.0,73.0,2088.275
2088285.0,54.0,49.0,21.0,84.0,2088.285
2088295.0,54.0,49.0,36.0,94.0,2088.295
2088305.0,55.0,48.0,32.0,103.0,2088.305
2088315.0,57.0,47.0,30.0,107.0,2088.315
2088325.0,56.0,47.0,28.0,101.0,2088.325
2088335.0,56.0,46.0,25.0,95.0,2088.335
2088345.0,55.0,45.0,22.0,92.0,2088.345
2088355.0,55.0,45.0,19.0,86.0,2088.355
2088365.0,54.0,49.0,22.0,98.0,2088.365
2088375.0,56.0,48.0,29.0,97.0,2088.375
2088385.0,55.0,48.0,29.0,95.0,2088.385
2088395.0,57.0,46.0,26.0,95.0,2088.395
2088406.0,56.0,46.0,25.0,94.0,2088.406
2088416.0,55.0,47.0,24.0,95.0,2088.416
2088426.0,56.0,47.0,24.0,95.0,2088.426
2088436.0,56.0,44.0,22.0,108.0,2088.436
2088446.0,53.0,44.0,20.0,105.0,2088.446
2088456.0,55.0,43.0,17.0,96.0,2088.456
2088466.0,54.0,43.0,17.0,89.0,2088.466
2088476.0,53.0,43.0,20.0,82.0,2088.476
2088486.0,53.0,44.0,29.0,79.0,2088.486
2088496.0,53.0,44.0,29.0,76.0,2088.496
2088506.0,53.0,45.0,30.0,84.0,2088.506
2088516.0,53.0,44.0,28.0,90.0,2088.516
2088526.0,54.0,43.0,26.0,91.0,2088.526
2088536.0,54.0,43.0,24.0,95.0,2088.536
2088546.0,53.0,42.0,20.0,93.0,2088.546
2088556.0,52.0,43.0,18.0,86.0,2088.556
2088566.0,51.0,44.0,30.0,95.0,2088.566
2088576.0,52.0,45.0,27.0,99.0,2088.576
2088586.0,53.0,42.0,24.0,92.0,2088.586
2088596.0,52.0,43.0,26.0,88.0,2088.596
2088606.0,52.0,43.0,27.0,88.0,2088.606
2088616.0,52.0,43.0,25.0,85.0,2088.616
2088626.0,50.0,44.0,22.0,83.0,2088.626
2088636.0,51.0,46.0,23.0,93.0,2088.636
2088646.0,50.0,47.0,21.0,94.0,2088.646
2088656.0,50.0,48.0,23.0,88.0,2088.656
2088666.0,49.0,50.0,27.0,89.0,2088.666
2088676.0,48.0,50.0,28.0,92.0,2088.676
2088686.0,51.0,49.0,26.0,88.0,2088.686
2088696.0,50.0,49.0,22.0,85.0,2088.696
2088706.0,49.0,49.0,23.0,90.0,2088.706
2088716.0,49.0,48.0,23.0,88.0,2088.716
2088726.0,49.0,49.0,21.0,84.0,2088.726
2088736.0,50.0,48.0,25.0,84.0,2088.736
2088747.0,49.0,51.0,42.0,81.0,2088.747
2088757.0,53.0,50.0,41.0,83.0,2088.757
2088767.0,53.0,47.0,35.0,80.0,2088.767
2088777.0,52.0,47.0,31.0,79.0,2088.777
2088787.0,53.0,47.0,28.0,84.0,2088.787
2088797.0,52.0,46.0,26.0,82.0,2088.797
2088807.0,54.0,45.0,23.0,82.0,2088.807
2088817.0,54.0,47.0,21.0,87.0,2088.817
2088827.0,55.0,46.0,23.0,85.0,2088.827
2088837.0,55.0,45.0,26.0,95.0,2088.837
2088847.0,54.0,44.0,22.0,96.0,2088.847
2088857.0,53.0,44.0,29.0,101.0,2088.857
2088867.0,53.0,44.0,27.0,104.0,2088.867
2088877.0,53.0,43.0,24.0,100.0,2088.877
2088887.0,51.0,44.0,21.0,98.0,2088.887
2088897.0,52.0,44.0,20.0,108.0,2088.897
2088907.0,51.0,45.0,22.0,102.0,2088.907
2088918.0,50.0,45.0,22.0,99.0,2088.918
2088928.0,50.0,44.0,21.0,90.0,2088.928
2088938.0,49.0,44.0,20.0,86.0,2088.938
2088948.0,48.0,46.0,30.0,82.0,2088.948
2088958.0,49.0,44.0,30.0,87.0,2088.958
2088968.0,49.0,44.0,29.0,87.0,2088.968
2088978.0,50.0,43.0,28.0,90.0,2088.978
2088988.0,51.0,43.0,24.0,95.0,2088.988
2088998.0,50.0,43.0,26.0,89.0,2088.998
2089008.0,51.0,44.0,30.0,88.0,2089.008
2089018.0,51.0,44.0,28.0,85.0,2089.018
2089028.0,50.0,44.0,27.0,87.0,2089.028
2089038.0,51.0,45.0,36.0,94.0,2089.038
2089048.0,49.0,45.0,32.0,96.0,2089.048
2089058.0,50.0,47.0,39.0,96.0,2089.058
2089068.0,50.0,46.0,36.0,90.0,2089.068
2089078.0,50.0,44.0,35.0,86.0,2089.078
2089088.0,51.0,45.0,32.0,91.0,2089.088
2089098.0,51.0,44.0,30.0,89.0,2089.098
2089108.0,52.0,42.0,29.0,96.0,2089.108
2089118.0,53.0,43.0,28.0,96.0,2089.118
2089128.0,55.0,42.0,27.0,93.0,2089.128
2089138.0,55.0,42.0,26.0,89.0,2089.138
2089148.0,54.0,43.0,37.0,87.0,2089.148
2089158.0,56.0,43.0,34.0,87.0,2089.158
2089168.0,55.0,44.0,35.0,87.0,2089.168
2089178.0,54.0,43.0,33.0,84.0,2089.178
2089188.0,54.0,44.0,29.0,85.0,2089.188
2089198.0,52.0,45.0,30.0,84.0,2089.198
2089208.0,53.0,45.0,29.0,83.0,2089.208
2089218.0,52.0,46.0,29.0,75.0,2089.218
2089228.0,52.0,45.0,27.0,70.0,2089.228
2089238.0,51.0,47.0,25.0,67.0,2089.238
2089248.0,51.0,44.0,31.0,66.0,2089.248
2089259.0,50.0,45.0,29.0,69.0,2089.259
2089269.0,52.0,43.0,26.0,64.0,2089.269
2089279.0,50.0,45.0,28.0,72.0,2089.279
2089289.0,50.0,44.0,35.0,80.0,2089.289
2089299.0,50.0,44.0,31.0,84.0,2089.299
2089309.0,50.0,43.0,28.0,92.0,2089.309
2089319.0,50.0,43.0,27.0,95.0,2089.319
2089329.0,51.0,43.0,33.0,102.0,2089.329
2089339.0,51.0,43.0,33.0,111.0,2089.339
2089349.0,52.0,42.0,33.0,115.0,2089.349
2089359.0,52.0,42.0,28.0,110.0,2089.359
2089369.0,52.0,41.0,25.0,100.0,2089.369
2089379.0,52.0,42.0,23.0,92.0,2089.379
2089389.0,50.0,43.0,24.0,89.0,2089.389
2089399.0,50.0,42.0,26.0,100.0,2089.399
2089409.0,51.0,42.0,33.0,104.0,2089.409
2089419.0,53.0,43.0,36.0,98.0,2089.419
2089430.0,52.0,42.0,31.0,94.0,2089.43
2089440.0,54.0,42.0,27.0,98.0,2089.44
2089450.0,54.0,41.0,24.0,94.0,2089.45
2089460.0,53.0,43.0,22.0,96.0,2089.46
2089470.0,56.0,41.0,20.0,92.0,2089.47
2089480.0,55.0,41.0,17.0,96.0,2089.48
2089490.0,55.0,41.0,17.0,93.0,2089.49
2089500.0,55.0,42.0,20.0,97.0,2089.5
2089510.0,54.0,41.0,23.0,94.0,2089.51
2089520.0,55.0,44.0,30.0,94.0,2089.52
2089530.0,56.0,44.0,27.0,91.0,2089.53
2089540.0,55.0,41.0,24.0,86.0,2089.54
2089550.0,55.0,42.0,28.0,81.0,2089.55
2089560.0,54.0,41.0,25.0,77.0,2089.56
2089570.0,54.0,42.0,30.0,83.0,2089.57
2089580.0,52.0,44.0,28.0,85.0,2089.58
2089590.0,52.0,44.0,28.0,95.0,2089.59
2089600.0,52.0,45.0,33.0,101.0,2089.6
2089610.0,51.0,45.0,29.0,100.0,2089.61
2089620.0,51.0,44.0,28.0,106.0,2089.62
2089630.0,51.0,46.0,24.0,105.0,2089.63
2089640.0,51.0,44.0,24.0,100.0,2089.64
2089650.0,50.0,45.0,22.0,94.0,2089.65
2089660.0,50.0,45.0,24.0,106.0,2089.66
2089670.0,50.0,45.0,23.0,104.0,2089.67
2089680.0,50.0,46.0,21.0,100.0,2089.68
2089690.0,49.0,44.0,20.0,93.0,2089.69
2089700.0,49.0,45.0,21.0,93.0,2089.7
2089710.0,49.0,44.0,18.0,89.0,2089.71
2089720.0,50.0,43.0,17.0,101.0,2089.72
2089730.0,48.0,44.0,16.0,102.0,2089.73
2089740.0,49.0,44.0,14.0,101.0,2089.74
2089750.0,48.0,47.0,19.0,99.0,2089.75
2089760.0,47.0,47.0,18.0,94.0,2089.76
2089771.0,49.0,46.0,20.0,88.0,2089.771
2089781.0,48.0,46.0,19.0,99.0,2089.781
2089791.0,50.0,46.0,18.0,106.0,2089.791
2089801.0,48.0,46.0,19.0,103.0,2089.801
2089811.0,48.0,44.0,17.0,103.0,2089.811
2089821.0,48.0,44.0,18.0,106.0,2089.821
2089831.0,47.0,44.0,19.0,102.0,2089.831
2089841.0,50.0,43.0,16.0,100.0,2089.841
2089851.0,49.0,42.0,19.0,95.0,2089.851
2089861.0,49.0,41.0,17.0,91.0,2089.861
2089871.0,49.0,42.0,16.0,90.0,2089.871
2089881.0,50.0,42.0,23.0,90.0,2089.881
2089891.0,49.0,41.0,20.0,82.0,2089.891
2089901.0,49.0,43.0,18.0,87.0,2089.901
2089911.0,48.0,42.0,18.0,82.0,2089.911
2089921.0,49.0,42.0,15.0,86.0,2089.921
2089931.0,49.0,43.0,17.0,89.0,2089.931
2089942.0,51.0,43.0,17.0,88.0,2089.942
2089952.0,50.0,42.0,16.0,101.0,2089.952
2089962.0,50.0,43.0,21.0,98.0,2089.962
2089972.0,53.0,44.0,22.0,100.0,2089.972
2089982.0,53.0,42.0,21.0,92.0,2089.982
2089992.0,55.0,42.0,20.0,107.0,2089.992
2090002.0,55.0,40.0,19.0,109.0,2090.002
2090012.0,56.0,41.0,18.0,120.0,2090.012
2090022.0,56.0,40.0,18.0,113.0,2090.022
2090032.0,55.0,40.0,16.0,107.0,2090.032
2090042.0,56.0,40.0,22.0,105.0,2090.042
2090052.0,58.0,41.0,20.0,99.0,2090.052
2090062.0,58.0,40.0,28.0,99.0,2090.062
2090072.0,57.0,39.0,25.0,100.0,2090.072
2090082.0,57.0,39.0,26.0,101.0,2090.082
2090092.0,56.0,39.0,26.0,94.0,2090.092
2090102.0,55.0,38.0,24.0,96.0,2090.102
2090112.0,55.0,37.0,22.0,94.0,2090.112
2090122.0,54.0,39.0,21.0,92.0,2090.122
2090132.0,55.0,38.0,22.0,92.0,2090.132
2090142.0,55.0,39.0,21.0,105.0,2090.142
2090152.0,55.0,41.0,33.0,103.0,2090.152
2090162.0,57.0,41.0,29.0,103.0,2090.162
2090172.0,55.0,41.0,29.0,96.0,2090.172
2090182.0,53.0,39.0,28.0,95.0,2090.182
2090192.0,54.0,41.0,25.0,98.0,2090.192
2090202.0,55.0,42.0,26.0,98.0,2090.202
2090212.0,55.0,40.0,24.0,97.0,2090.212
2090222.0,58.0,41.0,22.0,98.0,2090.222
2090232.0,58.0,39.0,20.0,91.0,2090.232
2090242.0,56.0,40.0,20.0,93.0,2090.242
2090252.0,55.0,41.0,25.0,93.0,2090.252
2090262.0,57.0,40.0,24.0,104.0,2090.262
2090272.0,57.0,41.0,23.0,105.0,2090.272
2090283.0,56.0,39.0,22.0,102.0,2090.283
2090293.0,59.0,40.0,25.0,108.0,2090.293
2090303.0,60.0,39.0,24.0,107.0,2090.303
2090313.0,59.0,39.0,22.0,104.0,2090.313
2090323.0,59.0,39.0,26.0,104.0,2090.323
2090333.0,58.0,41.0,38.0,100.0,2090.333
2090343.0,59.0,42.0,34.0,101.0,2090.343
2090353.0,60.0,41.0,30.0,94.0,2090.353
2090363.0,61.0,40.0,27.0,100.0,2090.363
2090373.0,61.0,41.0,25.0,99.0,2090.373
2090383.0,60.0,43.0,33.0,112.0,2090.383
2090393.0,61.0,43.0,28.0,110.0,2090.393
2090403.0,63.0,41.0,26.0,103.0,2090.403
2090413.0,62.0,41.0,25.0,99.0,2090.413
2090423.0,61.0,41.0,31.0,106.0,2090.423
2090433.0,60.0,41.0,42.0,104.0,2090.433
2090443.0,59.0,40.0,37.0,94.0,2090.443
2090454.0,61.0,40.0,36.0,99.0,2090.454
2090464.0,60.0,40.0,30.0,100.0,2090.464
2090474.0,60.0,40.0,27.0,101.0,2090.474
2090484.0,59.0,40.0,26.0,101.0,2090.484
2090494.0,57.0,40.0,26.0,101.0,2090.494
2090504.0,57.0,39.0,31.0,110.0,2090.504
2090514.0,57.0,40.0,35.0,99.0,2090.514
2090524.0,56.0,39.0,34.0,91.0,2090.524
2090534.0,56.0,40.0,30.0,88.0,2090.534
2090544.0,54.0,40.0,26.0,85.0,2090.544
2090554.0,55.0,41.0,28.0,92.0,2090.554
2090564.0,53.0,42.0,24.0,99.0,2090.564
2090574.0,52.0,40.0,28.0,112.0,2090.574
2090584.0,54.0,41.0,28.0,108.0,2090.584
2090594.0,53.0,40.0,24.0,104.0,2090.594
2090604.0,54.0,43.0,27.0,96.0,2090.604
2090614.0,54.0,43.0,22.0,100.0,2090.614
2090624.0,54.0,43.0,23.0,113.0,2090.624
2090634.0,55.0,43.0,22.0,112.0,2090.634
2090644.0,55.0,42.0,22.0,112.0,2090.644
2090654.0,56.0,41.0,19.0,103.0,2090.654
2090664.0,55.0,40.0,16.0,100.0,2090.664
2090674.0,56.0,39.0,17.0,98.0,2090.674
2090684.0,56.0,40.0,20.0,96.0,2090.684
2090694.0,54.0,40.0,19.0,111.0,2090.694
2090704.0,55.0,39.0,19.0,109.0,2090.704
2090714.0,55.0,39.0,17.0,104.0,2090.714
2090724.0,56.0,42.0,18.0,98.0,2090.724
2090734.0,55.0,42.0,17.0,99.0,2090.734
2090744.0,53.0,42.0,15.0,102.0,2090.744
2090754.0,54.0,41.0,14.0,99.0,2090.754
2090764.0,52.0,41.0,14.0,99.0,2090.764
2090774.0,53.0,41.0,21.0,92.0,2090.774
2090784.0,53.0,42.0,21.0,90.0,2090.784
2090795.0,51.0,41.0,22.0,88.0,2090.795
2090805.0,52.0,44.0,36.0,98.0,2090.805
2090815.0,52.0,42.0,33.0,92.0,2090.815
2090825.0,52.0,42.0,29.0,98.0,2090.825
2090835.0,52.0,42.0,24.0,97.0,2090.835
2090845.0,51.0,41.0,23.0,105.0,2090.845
2090855.0,51.0,42.0,23.0,110.0,2090.855
2090865.0,50.0,40.0,19.0,106.0,2090.865
2090875.0,49.0,39.0,19.0,101.0,2090.875
2090885.0,49.0,40.0,17.0,106.0,2090.885
2090895.0,51.0,39.0,17.0,105.0,2090.895
2090905.0,52.0,40.0,18.0,104.0,2090.905
2090915.0,50.0,40.0,19.0,101.0,2090.915
2090925.0,51.0,43.0,28.0,98.0,2090.925
2090935.0,51.0,45.0,27.0,96.0,2090.935
2090945.0,51.0,44.0,29.0,96.0,2090.945
2090955.0,51.0,44.0,25.0,106.0,2090.955
2090966.0,50.0,44.0,25.0,108.0,2090.966
2090976.0,50.0,43.0,22.0,102.0,2090.976
2090986.0,48.0,42.0,20.0,98.0,2090.986
2090996.0,49.0,41.0,17.0,92.0,2090.996
2091006.0,50.0,41.0,15.0,90.0,2091.006
2091016.0,49.0,41.0,19.0,104.0,2091.016
2091026.0,50.0,42.0,17.0,100.0,2091.026
2091036.0,49.0,42.0,17.0,94.0,2091.036
2091046.0,51.0,42.0,17.0,99.0,2091.046
2091056.0,48.0,42.0,28.0,94.0,2091.056
2091066.0,50.0,43.0,26.0,88.0,2091.066
2091076.0,50.0,43.0,25.0,91.0,2091.076
2091086.0,50.0,43.0,22.0,90.0,2091.086
2091096.0,50.0,42.0,23.0,106.0,2091.096
2091106.0,51.0,44.0,25.0,112.0,2091.106
2091116.0,50.0,42.0,27.0,107.0,2091.116
2091126.0,51.0,43.0,25.0,101.0,2091.126
2091136.0,50.0,43.0,24.0,99.0,2091.136
2091146.0,51.0,42.0,22.0,91.0,2091.146
2091156.0,51.0,45.0,31.0,94.0,2091.156
2091166.0,53.0,44.0,30.0,93.0,2091.166
2091176.0,55.0,45.0,25.0,95.0,2091.176
2091186.0,56.0,46.0,25.0,99.0,2091.186
2091196.0,56.0,44.0,24.0,94.0,2091.196
2091206.0,55.0,44.0,23.0,110.0,2091.206
2091216.0,58.0,45.0,26.0,115.0,2091.216
2091226.0,58.0,45.0,30.0,126.0,2091.226
2091236.0,59.0,48.0,43.0,120.0,2091.236
2091246.0,59.0,48.0,37.0,111.0,2091.246
2091256.0,57.0,48.0,34.0,112.0,2091.256
2091266.0,58.0,48.0,35.0,104.0,2091.266
2091276.0,56.0,48.0,30.0,102.0,2091.276
2091286.0,56.0,48.0,29.0,111.0,2091.286
2091296.0,55.0,47.0,25.0,111.0,2091.296
2091307.0,54.0,46.0,26.0,102.0,2091.307
2091317.0,53.0,44.0,24.0,96.0,2091.317
2091327.0,52.0,43.0,21.0,98.0,2091.327
2091337.0,53.0,43.0,20.0,109.0,2091.337
2091347.0,52.0,45.0,26.0,110.0,2091.347
2091357.0,52.0,44.0,24.0,116.0,2091.357
2091367.0,52.0,44.0,28.0,107.0,2091.367
2091377.0,51.0,45.0,27.0,107.0,2091.377
2091387.0,52.0,45.0,26.0,104.0,2091.387
2091397.0,51.0,45.0,23.0,98.0,2091.397
2091407.0,52.0,46.0,24.0,99.0,2091.407
2091417.0,53.0,46.0,25.0,116.0,2091.417
2091427.0,52.0,47.0,23.0,123.0,2091.427
2091437.0,51.0,49.0,22.0,121.0,2091.437
2091447.0,51.0,51.0,28.0,114.0,2091.447
2091457.0,53.0,52.0,25.0,103.0,2091.457
2091467.0,53.0,53.0,22.0,98.0,2091.467
2091478.0,53.0,52.0,23.0,97.0,2091.478
2091488.0,52.0,49.0,24.0,115.0,2091.488
2091498.0,52.0,49.0,20.0,122.0,2091.498
2091508.0,52.0,49.0,19.0,114.0,2091.508
2091518.0,51.0,49.0,27.0,111.0,2091.518
2091528.0,51.0,49.0,26.0,106.0,2091.528
2091538.0,54.0,48.0,23.0,102.0,2091.538
2091548.0,53.0,47.0,20.0,100.0,2091.548
2091558.0,53.0,46.0,20.0,99.0,2091.558
2091568.0,53.0,44.0,16.0,96.0,2091.568
2091578.0,53.0,45.0,21.0,101.0,2091.578
2091588.0,54.0,44.0,21.0,99.0,2091.588
2091598.0,55.0,46.0,19.0,109.0,2091.598
2091608.0,57.0,46.0,27.0,108.0,2091.608
2091618.0,56.0,44.0,23.0,106.0,2091.618
