time (ms),signal 0,signal 1,signal 2,signal3,time (sec)
2098370.0,57.0,42.0,18.0,155.0,2098.37
2098380.0,57.0,41.0,17.0,151.0,2098.38
2098390.0,58.0,41.0,16.0,151.0,2098.39
2098400.0,58.0,41.0,14.0,149.0,2098.4
2098410.0,58.0,41.0,13.0,135.0,2098.41
2098420.0,57.0,40.0,12.0,127.0,2098.42
2098430.0,57.0,42.0,21.0,124.0,2098.43
2098440.0,57.0,42.0,27.0,114.0,2098.44
2098450.0,57.0,42.0,24.0,106.0,2098.45
2098460.0,57.0,42.0,25.0,112.0,2098.46
2098470.0,57.0,42.0,21.0,104.0,2098.47
2098480.0,58.0,41.0,18.0,98.0,2098.48
2098490.0,57.0,40.0,19.0,95.0,2098.49
2098500.0,55.0,40.0,17.0,95.0,2098.5
2098510.0,55.0,38.0,15.0,92.0,2098.51
2098520.0,55.0,38.0,15.0,97.0,2098.52
2098530.0,56.0,43.0,31.0,94.0,2098.53
2098540.0,56.0,42.0,31.0,89.0,2098.54
2098550.0,58.0,43.0,29.0,83.0,2098.55
2098560.0,58.0,41.0,26.0,81.0,2098.56
2098570.0,57.0,43.0,26.0,84.0,2098.57
2098580.0,58.0,42.0,23.0,90.0,2098.58
2098590.0,57.0,42.0,21.0,95.0,2098.59
2098600.0,59.0,41.0,18.0,91.0,2098.6
2098610.0,58.0,41.0,18.0,93.0,2098.61
2098620.0,58.0,43.0,20.0,93.0,2098.62
2098630.0,59.0,42.0,26.0,91.0,2098.63
2098640.0,60.0,42.0,23.0,89.0,2098.64
2098650.0,61.0,42.0,21.0,108.0,2098.65
2098660.0,60.0,42.0,24.0,107.0,2098.66
2098670.0,61.0,42.0,21.0,105.0,2098.67
2098680.0,62.0,42.0,21.0,106.0,2098.68
2098690.0,63.0,42.0,23.0,109.0,2098.69
2098700.0,62.0,41.0,21.0,105.0,2098.7
2098710.0,62.0,45.0,29.0,103.0,2098.71
2098720.0,61.0,46.0,30.0,98.0,2098.72
2098731.0,62.0,44.0,26.0,101.0,2098.731
2098741.0,60.0,42.0,23.0,101.0,2098.741
2098751.0,60.0,42.0,23.0,98.0,2098.751
2098761.0,60.0,41.0,21.0,95.0,2098.761
2098771.0,58.0,42.0,23.0,102.0,2098.771
2098781.0,58.0,40.0,21.0,95.0,2098.781
2098791.0,56.0,41.0,21.0,90.0,2098.791
2098801.0,56.0,41.0,18.0,88.0,2098.801
2098811.0,54.0,42.0,17.0,83.0,2098.811
2098821.0,53.0,43.0,15.0,88.0,2098.821
2098831.0,53.0,44.0,15.0,84.0,2098.831
2098841.0,54.0,43.0,14.0,83.0,2098.841
2098851.0,52.0,45.0,14.0,86.0,2098.851
2098861.0,53.0,45.0,21.0,87.0,2098.861
2098871.0,54.0,46.0,26.0,88.0,2098.871
2098881.0,55.0,45.0,24.0,90.0,2098.881
2098891.0,57.0,45.0,21.0,98.0,2098.891
2098902.0,57.0,44.0,19.0,102.0,2098.902
2098912.0,58.0,43.0,19.0,102.0,2098.912
2098922.0,57.0,42.0,17.0,111.0,2098.922
2098932.0,58.0,42.0,17.0,107.0,2098.932
2098942.0,58.0,43.0,19.0,111.0,2098.942
2098952.0,57.0,45.0,25.0,111.0,2098.952
2098962.0,57.0,45.0,28.0,109.0,2098.962
2098972.0,58.0,44.0,29.0,113.0,2098.972
2098982.0,60.0,43.0,30.0,130.0,2098.982
2098992.0,61.0,42.0,26.0,122.0,2098.992
2099002.0,63.0,41.0,24.0,116.0,2099.002
2099012.0,62.0,43.0,27.0,115.0,2099.012
2099022.0,64.0,42.0,27.0,116.0,2099.022
2099032.0,64.0,44.0,38.0,112.0,2099.032
2099042.0,62.0,44.0,35.0,108.0,2099.042
2099052.0,65.0,43.0,32.0,107.0,2099.052
2099062.0,62.0,46.0,32.0,103.0,2099.062
2099072.0,62.0,47.0,31.0,107.0,2099.072
2099082.0,64.0,47.0,28.0,114.0,2099.082
2099092.0,64.0,49.0,31.0,119.0,2099.092
2099102.0,66.0,47.0,31.0,119.0,2099.102
2099112.0,66.0,47.0,27.0,111.0,2099.112
2099122.0,65.0,48.0,25.0,112.0,2099.122
2099132.0,64.0,49.0,22.0,113.0,2099.132
2099142.0,64.0,49.0,20.0,115.0,2099.142
2099152.0,65.0,49.0,21.0,118.0,2099.152
2099162.0,63.0,52.0,18.0,113.0,2099.162
2099172.0,64.0,52.0,22.0,118.0,2099.172
2099182.0,63.0,53.0,28.0,111.0,2099.182
2099192.0,64.0,51.0,26.0,103.0,2099.192
2099202.0,63.0,51.0,26.0,105.0,2099.202
2099212.0,65.0,51.0,23.0,102.0,2099.212
2099222.0,66.0,52.0,23.0,112.0,2099.222
2099232.0,68.0,52.0,20.0,107.0,2099.232
2099243.0,68.0,53.0,18.0,98.0,2099.243
2099253.0,68.0,52.0,16.0,99.0,2099.253
2099263.0,68.0,54.0,26.0,110.0,2099.263
2099273.0,68.0,53.0,30.0,126.0,2099.273
2099283.0,68.0,52.0,26.0,121.0,2099.283
2099293.0,66.0,52.0,23.0,117.0,2099.293
2099303.0,66.0,51.0,21.0,124.0,2099.303
2099313.0,67.0,50.0,18.0,119.0,2099.313
2099323.0,67.0,50.0,17.0,114.0,2099.323
2099333.0,67.0,50.0,20.0,119.0,2099.333
2099343.0,66.0,51.0,21.0,124.0,2099.343
2099353.0,66.0,51.0,28.0,127.0,2099.353
2099363.0,66.0,50.0,24.0,123.0,2099.363
2099373.0,67.0,48.0,22.0,120.0,2099.373
2099383.0,66.0,50.0,22.0,115.0,2099.383
2099393.0,66.0,48.0,24.0,113.0,2099.393
2099403.0,66.0,46.0,22.0,103.0,2099.403
2099414.0,67.0,47.0,24.0,111.0,2099.414
2099424.0,66.0,47.0,31.0,104.0,2099.424
2099434.0,66.0,46.0,26.0,102.0,2099.434
2099444.0,66.0,47.0,29.0,104.0,2099.444
2099454.0,66.0,48.0,28.0,102.0,2099.454
2099464.0,65.0,48.0,31.0,99.0,2099.464
2099474.0,67.0,46.0,32.0,102.0,2099.474
2099484.0,67.0,46.0,28.0,102.0,2099.484
2099494.0,68.0,47.0,26.0,100.0,2099.494
2099504.0,68.0,47.0,22.0,94.0,2099.504
2099514.0,68.0,47.0,20.0,88.0,2099.514
2099524.0,69.0,47.0,20.0,87.0,2099.524
2099534.0,71.0,51.0,27.0,84.0,2099.534
2099544.0,71.0,50.0,29.0,83.0,2099.544
2099554.0,74.0,49.0,25.0,96.0,2099.554
2099564.0,74.0,49.0,24.0,92.0,2099.564
2099574.0,75.0,49.0,24.0,86.0,2099.574
2099584.0,72.0,50.0,22.0,84.0,2099.584
2099594.0,73.0,49.0,20.0,79.0,2099.594
2099604.0,70.0,50.0,18.0,93.0,2099.604
2099614.0,69.0,52.0,21.0,99.0,2099.614
2099624.0,68.0,50.0,18.0,97.0,2099.624
2099634.0,69.0,49.0,18.0,107.0,2099.634
2099644.0,68.0,50.0,17.0,105.0,2099.644
2099654.0,66.0,50.0,14.0,110.0,2099.654
2099664.0,66.0,49.0,17.0,116.0,2099.664
2099674.0,66.0,51.0,15.0,119.0,2099.674
2099684.0,66.0,49.0,16.0,121.0,2099.684
2099694.0,66.0,48.0,17.0,108.0,2099.694
2099704.0,65.0,49.0,15.0,113.0,2099.704
2099714.0,65.0,49.0,15.0,110.0,2099.714
2099724.0,64.0,49.0,16.0,112.0,2099.724
2099734.0,63.0,50.0,26.0,114.0,2099.734
2099744.0,64.0,47.0,23.0,122.0,2099.744
2099755.0,65.0,47.0,21.0,119.0,2099.755
2099765.0,63.0,47.0,22.0,116.0,2099.765
2099775.0,63.0,46.0,23.0,110.0,2099.775
2099785.0,64.0,45.0,22.0,111.0,2099.785
2099795.0,63.0,46.0,22.0,119.0,2099.795
2099805.0,62.0,48.0,32.0,119.0,2099.805
2099815.0,62.0,47.0,29.0,115.0,2099.815
2099825.0,61.0,50.0,33.0,107.0,2099.825
2099835.0,62.0,46.0,29.0,96.0,2099.835
2099845.0,60.0,48.0,29.0,103.0,2099.845
2099855.0,60.0,47.0,26.0,102.0,2099.855
2099865.0,61.0,47.0,23.0,99.0,2099.865
2099875.0,59.0,48.0,20.0,90.0,2099.875
2099885.0,60.0,48.0,18.0,88.0,2099.885
2099895.0,60.0,50.0,17.0,87.0,2099.895
2099905.0,61.0,50.0,15.0,86.0,2099.905
2099915.0,61.0,51.0,14.0,92.0,2099.915
2099926.0,61.0,54.0,14.0,89.0,2099.926
2099936.0,62.0,53.0,14.0,88.0,2099.936
2099946.0,62.0,53.0,10.0,80.0,2099.946
2099956.0,63.0,55.0,15.0,81.0,2099.956
2099966.0,65.0,55.0,14.0,79.0,2099.966
2099976.0,64.0,55.0,13.0,82.0,2099.976
2099986.0,62.0,56.0,12.0,76.0,2099.986
2099996.0,63.0,55.0,11.0,75.0,2099.996
2100006.0,62.0,54.0,11.0,70.0,2100.006
2100016.0,68.0,51.0,9.0,69.0,2100.016
2100026.0,66.0,53.0,8.0,78.0,2100.026
2100036.0,70.0,49.0,8.0,75.0,2100.036
2100046.0,71.0,60.0,11.0,81.0,2100.046
2100056.0,84.0,60.0,14.0,74.0,2100.056
2100066.0,86.0,71.0,21.0,74.0,2100.066
2100076.0,93.0,76.0,21.0,79.0,2100.076
2100086.0,106.0,77.0,23.0,90.0,2100.086
2100096.0,118.0,77.0,20.0,88.0,2100.096
2100106.0,138.0,91.0,21.0,88.0,2100.106
2100116.0,141.0,103.0,19.0,91.0,2100.116
2100126.0,169.0,108.0,20.0,92.0,2100.126
2100136.0,189.0,114.0,22.0,92.0,2100.136
2100146.0,175.0,109.0,24.0,102.0,2100.146
2100156.0,167.0,107.0,22.0,99.0,2100.156
2100166.0,186.0,120.0,24.0,124.0,2100.166
2100176.0,199.0,129.0,25.0,131.0,2100.176
2100186.0,212.0,132.0,26.0,132.0,2100.186
2100196.0,206.0,133.0,25.0,125.0,2100.196
2100206.0,201.0,142.0,34.0,119.0,2100.206
2100216.0,205.0,146.0,32.0,126.0,2100.216
2100226.0,193.0,138.0,29.0,124.0,2100.226
2100236.0,176.0,139.0,28.0,142.0,2100.236
2100246.0,158.0,140.0,26.0,133.0,2100.246
2100256.0,148.0,142.0,28.0,136.0,2100.256
2100267.0,157.0,140.0,27.0,162.0,2100.267
2100277.0,151.0,138.0,26.0,149.0,2100.277
2100287.0,145.0,133.0,27.0,144.0,2100.287
2100297.0,136.0,128.0,31.0,155.0,2100.297
2100307.0,125.0,126.0,32.0,178.0,2100.307
2100317.0,118.0,122.0,30.0,191.0,2100.317
2100327.0,110.0,118.0,28.0,176.0,2100.327
2100337.0,109.0,116.0,26.0,180.0,2100.337
2100347.0,103.0,114.0,26.0,175.0,2100.347
2100357.0,96.0,112.0,27.0,175.0,2100.357
2100367.0,89.0,112.0,27.0,199.0,2100.367
2100377.0,88.0,111.0,27.0,194.0,2100.377
2100387.0,88.0,106.0,23.0,184.0,2100.387
2100397.0,92.0,107.0,23.0,208.0,2100.397
2100407.0,97.0,107.0,22.0,221.0,2100.407
2100417.0,95.0,107.0,24.0,226.0,2100.417
2100427.0,94.0,106.0,21.0,225.0,2100.427
2100438.0,90.0,106.0,19.0,227.0,2100.438
2100448.0,86.0,104.0,19.0,243.0,2100.448
2100458.0,85.0,104.0,16.0,237.0,2100.458
2100468.0,85.0,105.0,16.0,230.0,2100.468
2100478.0,86.0,100.0,16.0,240.0,2100.478
2100488.0,86.0,104.0,17.0,247.0,2100.488
2100498.0,81.0,100.0,17.0,238.0,2100.498
2100508.0,82.0,97.0,21.0,235.0,2100.508
2100518.0,87.0,98.0,20.0,234.0,2100.518
2100528.0,89.0,94.0,22.0,222.0,2100.528
2100538.0,86.0,90.0,20.0,214.0,2100.538
2100548.0,83.0,85.0,18.0,209.0,2100.548
2100558.0,83.0,83.0,17.0,212.0,2100.558
2100568.0,79.0,80.0,15.0,199.0,2100.568
2100578.0,79.0,80.0,16.0,191.0,2100.578
2100588.0,78.0,77.0,15.0,185.0,2100.588
2100598.0,81.0,78.0,15.0,185.0,2100.598
2100608.0,81.0,76.0,14.0,183.0,2100.608
2100618.0,87.0,75.0,13.0,189.0,2100.618
2100628.0,84.0,71.0,13.0,183.0,2100.628
2100638.0,83.0,69.0,11.0,178.0,2100.638
2100648.0,82.0,65.0,13.0,188.0,2100.648
2100658.0,83.0,66.0,11.0,183.0,2100.658
2100668.0,84.0,64.0,12.0,177.0,2100.668
2100678.0,82.0,63.0,12.0,183.0,2100.678
2100688.0,78.0,63.0,11.0,181.0,2100.688
2100698.0,74.0,61.0,10.0,183.0,2100.698
2100708.0,73.0,63.0,9.0,180.0,2100.708
2100718.0,73.0,62.0,8.0,186.0,2100.718
2100728.0,74.0,61.0,8.0,181.0,2100.728
2100738.0,72.0,61.0,12.0,165.0,2100.738
2100748.0,79.0,61.0,14.0,183.0,2100.748
2100758.0,75.0,62.0,12.0,180.0,2100.758
2100768.0,78.0,60.0,16.0,173.0,2100.768
2100779.0,74.0,59.0,15.0,183.0,2100.779
2100789.0,72.0,56.0,15.0,232.0,2100.789
2100799.0,72.0,57.0,15.0,217.0,2100.799
2100809.0,71.0,55.0,15.0,196.0,2100.809
2100819.0,71.0,53.0,14.0,187.0,2100.819
2100829.0,68.0,53.0,12.0,173.0,2100.829
2100839.0,70.0,55.0,11.0,163.0,2100.839
2100849.0,70.0,52.0,10.0,192.0,2100.849
2100859.0,70.0,51.0,10.0,175.0,2100.859
2100869.0,67.0,50.0,14.0,176.0,2100.869
2100879.0,74.0,53.0,13.0,170.0,2100.879
2100889.0,72.0,51.0,13.0,178.0,2100.889
2100899.0,72.0,50.0,21.0,202.0,2100.899
2100909.0,70.0,49.0,20.0,192.0,2100.909
2100919.0,70.0,47.0,20.0,185.0,2100.919
2100929.0,72.0,49.0,19.0,175.0,2100.929
2100939.0,74.0,49.0,19.0,195.0,2100.939
2100950.0,75.0,49.0,17.0,195.0,2100.95
2100960.0,73.0,50.0,16.0,209.0,2100.96
2100970.0,73.0,50.0,21.0,209.0,2100.97
2100980.0,70.0,48.0,18.0,197.0,2100.98
2100990.0,71.0,48.0,17.0,184.0,2100.99
2101000.0,73.0,49.0,16.0,220.0,2101.0
2101010.0,72.0,47.0,15.0,206.0,2101.01
2101020.0,71.0,48.0,13.0,191.0,2101.02
2101030.0,69.0,49.0,12.0,183.0,2101.03
2101040.0,68.0,48.0,13.0,184.0,2101.04
2101050.0,66.0,48.0,14.0,185.0,2101.05
2101060.0,67.0,48.0,14.0,178.0,2101.06
2101070.0,64.0,47.0,12.0,164.0,2101.07
2101080.0,64.0,47.0,11.0,156.0,2101.08
2101090.0,67.0,46.0,11.0,144.0,2101.09
2101100.0,65.0,46.0,12.0,161.0,2101.1
2101110.0,65.0,45.0,14.0,169.0,2101.11
2101120.0,63.0,46.0,12.0,170.0,2101.12
2101130.0,62.0,45.0,13.0,172.0,2101.13
2101140.0,62.0,45.0,16.0,184.0,2101.14
2101150.0,60.0,45.0,18.0,186.0,2101.15
2101160.0,62.0,44.0,17.0,194.0,2101.16
2101170.0,61.0,44.0,16.0,231.0,2101.17
2101180.0,60.0,45.0,17.0,256.0,2101.18
2101190.0,61.0,45.0,16.0,264.0,2101.19
2101200.0,63.0,49.0,30.0,331.0,2101.2
2101210.0,61.0,48.0,27.0,322.0,2101.21
2101220.0,62.0,49.0,25.0,297.0,2101.22
2101230.0,63.0,48.0,22.0,276.0,2101.23
2101240.0,66.0,46.0,20.0,271.0,2101.24
2101250.0,65.0,46.0,17.0,258.0,2101.25
2101260.0,70.0,44.0,17.0,265.0,2101.26
2101270.0,72.0,46.0,22.0,260.0,2101.27
2101280.0,72.0,46.0,26.0,275.0,2101.28
2101291.0,69.0,45.0,23.0,268.0,2101.291
2101301.0,67.0,45.0,21.0,244.0,2101.301
2101311.0,65.0,44.0,19.0,226.0,2101.311
2101321.0,64.0,46.0,19.0,264.0,2101.321
2101331.0,69.0,48.0,18.0,270.0,2101.331
2101341.0,66.0,48.0,17.0,259.0,2101.341
2101351.0,63.0,47.0,15.0,238.0,2101.351
2101361.0,65.0,49.0,14.0,246.0,2101.361
2101371.0,66.0,51.0,17.0,236.0,2101.371
2101381.0,64.0,50.0,21.0,234.0,2101.381
2101391.0,65.0,48.0,22.0,246.0,2101.391
2101401.0,63.0,49.0,20.0,254.0,2101.401
2101411.0,66.0,48.0,18.0,264.0,2101.411
2101421.0,64.0,48.0,18.0,260.0,2101.421
2101431.0,61.0,49.0,17.0,253.0,2101.431
2101441.0,62.0,49.0,15.0,263.0,2101.441
2101451.0,59.0,50.0,22.0,296.0,2101.451
2101462.0,59.0,47.0,23.0,277.0,2101.462
2101472.0,60.0,49.0,33.0,273.0,2101.472
2101482.0,63.0,50.0,31.0,260.0,2101.482
2101492.0,62.0,50.0,26.0,254.0,2101.492
2101502.0,63.0,51.0,26.0,242.0,2101.502
2101512.0,65.0,50.0,25.0,240.0,2101.512
2101522.0,63.0,50.0,27.0,242.0,2101.522
2101532.0,60.0,48.0,24.0,234.0,2101.532
2101542.0,63.0,48.0,25.0,243.0,2101.542
2101552.0,64.0,49.0,23.0,238.0,2101.552
2101562.0,68.0,50.0,21.0,220.0,2101.562
2101572.0,66.0,49.0,20.0,232.0,2101.572
2101582.0,65.0,49.0,22.0,248.0,2101.582
2101592.0,64.0,49.0,19.0,252.0,2101.592
2101602.0,62.0,46.0,18.0,256.0,2101.602
2101612.0,62.0,46.0,21.0,245.0,2101.612
2101622.0,60.0,45.0,20.0,226.0,2101.622
2101632.0,59.0,44.0,21.0,219.0,2101.632
2101642.0,56.0,43.0,18.0,197.0,2101.642
2101652.0,59.0,45.0,18.0,220.0,2101.652
2101662.0,63.0,47.0,22.0,251.0,2101.662
2101672.0,63.0,46.0,20.0,261.0,2101.672
2101682.0,63.0,45.0,18.0,268.0,2101.682
2101692.0,61.0,45.0,17.0,257.0,2101.692
2101702.0,60.0,45.0,29.0,255.0,2101.702
2101712.0,58.0,44.0,30.0,243.0,2101.712
2101722.0,57.0,43.0,28.0,254.0,2101.722
2101732.0,58.0,42.0,26.0,254.0,2101.732
2101742.0,55.0,43.0,24.0,234.0,2101.742
2101752.0,55.0,40.0,22.0,245.0,2101.752
2101762.0,53.0,41.0,19.0,248.0,2101.762
2101772.0,53.0,43.0,18.0,251.0,2101.772
2101782.0,53.0,42.0,16.0,236.0,2101.782
2101792.0,51.0,43.0,14.0,236.0,2101.792
2101803.0,57.0,45.0,13.0,244.0,2101.803
2101813.0,58.0,45.0,13.0,242.0,2101.813
2101823.0,59.0,46.0,13.0,230.0,2101.823
2101833.0,59.0,48.0,15.0,228.0,2101.833
2101843.0,59.0,47.0,15.0,224.0,2101.843
2101853.0,59.0,47.0,19.0,211.0,2101.853
2101863.0,60.0,49.0,21.0,199.0,2101.863
2101873.0,60.0,48.0,20.0,201.0,2101.873
2101883.0,59.0,49.0,24.0,204.0,2101.883
2101893.0,62.0,50.0,29.0,202.0,2101.893
2101903.0,60.0,48.0,27.0,219.0,2101.903
2101913.0,60.0,49.0,24.0,220.0,2101.913
2101923.0,59.0,49.0,25.0,236.0,2101.923
2101933.0,57.0,49.0,24.0,251.0,2101.933
2101943.0,56.0,50.0,23.0,252.0,2101.943
2101953.0,58.0,50.0,24.0,229.0,2101.953
2101963.0,57.0,53.0,24.0,232.0,2101.963
2101974.0,58.0,52.0,25.0,212.0,2101.974
2101984.0,57.0,51.0,21.0,215.0,2101.984
2101994.0,59.0,53.0,21.0,232.0,2101.994
2102004.0,57.0,53.0,19.0,221.0,2102.004
2102014.0,55.0,51.0,17.0,220.0,2102.014
2102024.0,54.0,53.0,18.0,221.0,2102.024
2102034.0,54.0,53.0,16.0,224.0,2102.034
2102044.0,62.0,54.0,15.0,221.0,2102.044
2102054.0,64.0,53.0,14.0,226.0,2102.054
2102064.0,61.0,52.0,12.0,221.0,2102.064
2102074.0,70.0,57.0,12.0,231.0,2102.074
2102084.0,72.0,57.0,10.0,226.0,2102.084
2102094.0,72.0,56.0,11.0,206.0,2102.094
2102104.0,76.0,55.0,10.0,248.0,2102.104
2102114.0,80.0,56.0,14.0,252.0,2102.114
2102124.0,78.0,54.0,19.0,258.0,2102.124
2102134.0,77.0,51.0,16.0,234.0,2102.134
2102144.0,81.0,52.0,16.0,262.0,2102.144
2102154.0,79.0,51.0,12.0,253.0,2102.154
2102164.0,76.0,51.0,14.0,252.0,2102.164
2102174.0,76.0,50.0,14.0,234.0,2102.174
2102184.0,77.0,50.0,16.0,229.0,2102.184
2102194.0,74.0,50.0,16.0,213.0,2102.194
2102204.0,72.0,50.0,13.0,199.0,2102.204
2102214.0,70.0,51.0,14.0,190.0,2102.214
2102224.0,68.0,49.0,13.0,189.0,2102.224
2102234.0,64.0,48.0,12.0,197.0,2102.234
2102244.0,66.0,47.0,12.0,208.0,2102.244
2102254.0,65.0,50.0,11.0,207.0,2102.254
2102264.0,69.0,50.0,11.0,208.0,2102.264
2102274.0,70.0,49.0,10.0,197.0,2102.274
2102284.0,69.0,47.0,9.0,200.0,2102.284
2102294.0,75.0,50.0,10.0,200.0,2102.294
2102304.0,72.0,51.0,14.0,193.0,2102.304
2102315.0,70.0,51.0,14.0,191.0,2102.315
2102325.0,73.0,54.0,18.0,202.0,2102.325
2102335.0,73.0,51.0,17.0,205.0,2102.335
2102345.0,72.0,50.0,15.0,199.0,2102.345
2102355.0,68.0,51.0,15.0,199.0,2102.355
2102365.0,70.0,51.0,16.0,202.0,2102.365
2102375.0,70.0,50.0,15.0,190.0,2102.375
2102385.0,68.0,49.0,15.0,187.0,2102.385
2102395.0,68.0,47.0,18.0,191.0,2102.395
2102405.0,66.0,47.0,19.0,210.0,2102.405
2102415.0,69.0,49.0,33.0,217.0,2102.415
2102425.0,68.0,46.0,29.0,204.0,2102.425
2102435.0,69.0,45.0,26.0,202.0,2102.435
2102445.0,71.0,46.0,23.0,201.0,2102.445
2102455.0,66.0,45.0,20.0,214.0,2102.455
2102465.0,65.0,44.0,20.0,225.0,2102.465
2102475.0,63.0,46.0,25.0,207.0,2102.475
2102486.0,62.0,44.0,25.0,198.0,2102.486
2102496.0,62.0,45.0,24.0,229.0,2102.496
2102506.0,66.0,46.0,21.0,217.0,2102.506
2102516.0,71.0,46.0,20.0,208.0,2102.516
2102526.0,68.0,46.0,20.0,203.0,2102.526
2102536.0,65.0,44.0,18.0,193.0,2102.536
2102546.0,64.0,45.0,16.0,187.0,2102.546
2102556.0,62.0,44.0,16.0,188.0,2102.556
2102566.0,62.0,42.0,15.0,188.0,2102.566
2102576.0,63.0,42.0,13.0,189.0,2102.576
2102586.0,69.0,42.0,15.0,227.0,2102.586
2102596.0,74.0,45.0,16.0,236.0,2102.596
2102606.0,74.0,45.0,16.0,238.0,2102.606
2102616.0,70.0,45.0,16.0,240.0,2102.616
2102626.0,68.0,44.0,16.0,234.0,2102.626
2102636.0,67.0,42.0,17.0,233.0,2102.636
2102646.0,64.0,42.0,15.0,225.0,2102.646
2102656.0,67.0,43.0,15.0,223.0,2102.656
2102666.0,67.0,43.0,15.0,206.0,2102.666
2102676.0,66.0,43.0,14.0,192.0,2102.676
2102686.0,69.0,43.0,16.0,203.0,2102.686
2102696.0,68.0,47.0,18.0,200.0,2102.696
2102706.0,69.0,44.0,16.0,195.0,2102.706
2102716.0,69.0,42.0,15.0,195.0,2102.716
2102726.0,68.0,43.0,13.0,201.0,2102.726
2102736.0,75.0,45.0,16.0,237.0,2102.736
2102746.0,72.0,44.0,16.0,226.0,2102.746
2102756.0,71.0,45.0,14.0,217.0,2102.756
2102766.0,71.0,45.0,13.0,216.0,2102.766
2102776.0,73.0,47.0,17.0,226.0,2102.776
2102786.0,71.0,44.0,17.0,219.0,2102.786
2102796.0,73.0,47.0,20.0,231.0,2102.796
2102806.0,74.0,46.0,18.0,223.0,2102.806
2102816.0,71.0,46.0,28.0,276.0,2102.816
2102827.0,68.0,45.0,24.0,269.0,2102.827
2102837.0,66.0,45.0,25.0,252.0,2102.837
2102847.0,66.0,46.0,22.0,234.0,2102.847
2102857.0,65.0,45.0,19.0,226.0,2102.857
2102867.0,65.0,46.0,18.0,222.0,2102.867
2102877.0,67.0,46.0,18.0,210.0,2102.877
2102887.0,68.0,48.0,18.0,229.0,2102.887
2102897.0,64.0,48.0,24.0,214.0,2102.897
2102907.0,63.0,47.0,23.0,193.0,2102.907
2102917.0,66.0,49.0,21.0,187.0,2102.917
2102927.0,64.0,49.0,19.0,174.0,2102.927
2102937.0,61.0,47.0,17.0,170.0,2102.937
2102947.0,61.0,47.0,15.0,174.0,2102.947
2102957.0,63.0,48.0,15.0,171.0,2102.957
2102967.0,64.0,48.0,14.0,168.0,2102.967
2102977.0,63.0,47.0,15.0,161.0,2102.977
2102987.0,61.0,45.0,16.0,163.0,2102.987
2102998.0,67.0,45.0,14.0,162.0,2102.998
2103008.0,67.0,44.0,13.0,161.0,2103.008
2103018.0,68.0,44.0,12.0,158.0,2103.018
2103028.0,67.0,45.0,23.0,167.0,2103.028
2103038.0,68.0,47.0,20.0,175.0,2103.038
2103048.0,68.0,46.0,19.0,172.0,2103.048
2103058.0,66.0,45.0,17.0,188.0,2103.058
2103068.0,69.0,48.0,18.0,194.0,2103.068
2103078.0,69.0,46.0,16.0,188.0,2103.078
2103088.0,72.0,46.0,15.0,180.0,2103.088
2103098.0,70.0,47.0,15.0,160.0,2103.098
2103108.0,69.0,47.0,15.0,155.0,2103.108
2103118.0,68.0,47.0,14.0,176.0,2103.118
2103128.0,67.0,47.0,13.0,193.0,2103.128
2103138.0,64.0,47.0,11.0,180.0,2103.138
2103148.0,65.0,46.0,11.0,193.0,2103.148
2103158.0,67.0,46.0,10.0,192.0,2103.158
2103168.0,67.0,46.0,13.0,190.0,2103.168
2103178.0,67.0,45.0,14.0,193.0,2103.178
2103188.0,64.0,44.0,12.0,188.0,2103.188
2103198.0,64.0,45.0,11.0,182.0,2103.198
2103208.0,63.0,45.0,10.0,189.0,2103.208
2103218.0,63.0,44.0,9.0,178.0,2103.218
2103228.0,61.0,42.0,8.0,186.0,2103.228
2103238.0,59.0,43.0,7.0,185.0,2103.238
2103248.0,61.0,44.0,8.0,193.0,2103.248
2103258.0,59.0,44.0,6.0,191.0,2103.258
2103268.0,58.0,44.0,6.0,192.0,2103.268
2103278.0,58.0,45.0,6.0,197.0,2103.278
2103288.0,58.0,45.0,9.0,211.0,2103.288
2103298.0,58.0,44.0,9.0,203.0,2103.298
2103308.0,59.0,46.0,9.0,219.0,2103.308
2103318.0,61.0,47.0,10.0,224.0,2103.318
2103328.0,62.0,46.0,10.0,239.0,2103.328
2103339.0,62.0,47.0,8.0,217.0,2103.339
2103349.0,62.0,47.0,9.0,220.0,2103.349
2103359.0,68.0,49.0,8.0,216.0,2103.359
2103369.0,68.0,48.0,8.0,207.0,2103.369
2103379.0,67.0,49.0,11.0,198.0,2103.379
2103389.0,69.0,50.0,13.0,188.0,2103.389
2103399.0,71.0,51.0,12.0,205.0,2103.399
2103409.0,66.0,50.0,14.0,200.0,2103.409
2103419.0,67.0,51.0,13.0,209.0,2103.419
2103429.0,65.0,51.0,14.0,202.0,2103.429
2103439.0,72.0,53.0,13.0,194.0,2103.439
2103449.0,70.0,51.0,12.0,210.0,2103.449
2103459.0,69.0,50.0,15.0,201.0,2103.459
2103469.0,71.0,49.0,18.0,214.0,2103.469
2103479.0,70.0,49.0,15.0,230.0,2103.479
2103489.0,68.0,47.0,14.0,218.0,2103.489
2103499.0,69.0,47.0,14.0,255.0,2103.499
2103510.0,72.0,48.0,13.0,235.0,2103.51
2103520.0,72.0,44.0,12.0,231.0,2103.52
2103530.0,69.0,45.0,12.0,241.0,2103.53
2103540.0,69.0,44.0,14.0,240.0,2103.54
2103550.0,69.0,43.0,14.0,222.0,2103.55
2103560.0,69.0,44.0,14.0,213.0,2103.56
2103570.0,70.0,45.0,13.0,195.0,2103.57
2103580.0,74.0,47.0,11.0,225.0,2103.58
2103590.0,70.0,46.0,13.0,228.0,2103.59
2103600.0,71.0,47.0,15.0,226.0,2103.6
2103610.0,69.0,48.0,15.0,230.0,2103.61
2103620.0,67.0,46.0,15.0,239.0,2103.62
2103630.0,68.0,46.0,12.0,227.0,2103.63
2103640.0,69.0,45.0,12.0,208.0,2103.64
2103650.0,72.0,45.0,10.0,204.0,2103.65
2103660.0,72.0,46.0,10.0,208.0,2103.66
2103670.0,74.0,47.0,11.0,203.0,2103.67
2103680.0,73.0,48.0,9.0,193.0,2103.68
2103690.0,71.0,46.0,14.0,207.0,2103.69
2103700.0,69.0,44.0,14.0,197.0,2103.7
2103710.0,70.0,44.0,13.0,205.0,2103.71
2103720.0,68.0,43.0,12.0,195.0,2103.72
2103730.0,67.0,43.0,11.0,186.0,2103.73
2103740.0,67.0,42.0,11.0,198.0,2103.74
2103750.0,69.0,42.0,9.0,213.0,2103.75
2103760.0,73.0,43.0,10.0,202.0,2103.76
2103770.0,74.0,42.0,8.0,198.0,2103.77
2103780.0,72.0,42.0,8.0,198.0,2103.78
2103790.0,74.0,43.0,8.0,217.0,2103.79
2103800.0,72.0,45.0,17.0,203.0,2103.8
2103810.0,75.0,45.0,17.0,186.0,2103.81
2103820.0,77.0,45.0,17.0,179.0,2103.82
2103830.0,77.0,44.0,15.0,171.0,2103.83
2103840.0,75.0,44.0,16.0,215.0,2103.84
2103851.0,73.0,44.0,14.0,256.0,2103.851
2103861.0,73.0,44.0,13.0,231.0,2103.861
2103871.0,70.0,44.0,14.0,244.0,2103.871
2103881.0,70.0,45.0,13.0,230.0,2103.881
2103891.0,67.0,43.0,13.0,218.0,2103.891
2103901.0,69.0,45.0,13.0,208.0,2103.901
2103911.0,69.0,46.0,18.0,198.0,2103.911
2103921.0,70.0,46.0,15.0,186.0,2103.921
2103931.0,70.0,45.0,15.0,201.0,2103.931
2103941.0,69.0,45.0,18.0,199.0,2103.941
2103951.0,67.0,44.0,17.0,198.0,2103.951
2103961.0,66.0,43.0,16.0,199.0,2103.961
2103971.0,64.0,42.0,13.0,184.0,2103.971
2103981.0,65.0,42.0,17.0,186.0,2103.981
2103991.0,68.0,43.0,24.0,180.0,2103.991
2104001.0,70.0,44.0,21.0,176.0,2104.001
2104011.0,70.0,43.0,20.0,173.0,2104.011
2104022.0,75.0,44.0,22.0,187.0,2104.022
2104032.0,76.0,43.0,19.0,188.0,2104.032
2104042.0,76.0,43.0,17.0,199.0,2104.042
2104052.0,76.0,43.0,15.0,190.0,2104.052
2104062.0,78.0,47.0,16.0,197.0,2104.062
2104072.0,78.0,47.0,14.0,189.0,2104.072
2104082.0,78.0,45.0,12.0,168.0,2104.082
2104092.0,78.0,45.0,13.0,174.0,2104.092
2104102.0,78.0,47.0,12.0,176.0,2104.102
2104112.0,80.0,46.0,11.0,187.0,2104.112
2104122.0,79.0,46.0,15.0,187.0,2104.122
2104132.0,78.0,46.0,23.0,190.0,2104.132
2104142.0,77.0,45.0,22.0,192.0,2104.142
2104152.0,76.0,44.0,21.0,183.0,2104.152
2104162.0,75.0,42.0,18.0,174.0,2104.162
2104172.0,71.0,45.0,19.0,168.0,2104.172
2104182.0,67.0,50.0,36.0,178.0,2104.182
2104192.0,76.0,67.0,108.0,217.0,2104.192
2104202.0,76.0,69.0,137.0,267.0,2104.202
2104212.0,76.0,75.0,223.0,312.0,2104.212
2104222.0,87.0,87.0,279.0,319.0,2104.222
2104232.0,86.0,85.0,278.0,344.0,2104.232
2104242.0,91.0,93.0,313.0,388.0,2104.242
2104252.0,94.0,89.0,287.0,383.0,2104.252
2104262.0,94.0,89.0,283.0,394.0,2104.262
2104272.0,92.0,92.0,285.0,421.0,2104.272
2104282.0,95.0,92.0,322.0,416.0,2104.282
2104292.0,96.0,89.0,291.0,395.0,2104.292
2104302.0,95.0,89.0,289.0,375.0,2104.302
2104312.0,115.0,89.0,293.0,366.0,2104.312
2104322.0,124.0,85.0,269.0,348.0,2104.322
2104332.0,127.0,86.0,266.0,366.0,2104.332
2104342.0,125.0,82.0,253.0,341.0,2104.342
2104352.0,120.0,80.0,240.0,323.0,2104.352
2104363.0,120.0,77.0,230.0,334.0,2104.363
2104373.0,118.0,79.0,219.0,349.0,2104.373
2104383.0,120.0,79.0,210.0,357.0,2104.383
2104393.0,114.0,78.0,208.0,334.0,2104.393
2104403.0,114.0,76.0,192.0,313.0,2104.403
2104413.0,111.0,74.0,179.0,317.0,2104.413
2104423.0,111.0,71.0,172.0,300.0,2104.423
2104433.0,111.0,69.0,156.0,282.0,2104.433
2104443.0,108.0,66.0,138.0,267.0,2104.443
2104453.0,107.0,67.0,140.0,296.0,2104.453
2104463.0,107.0,67.0,146.0,301.0,2104.463
2104473.0,105.0,63.0,139.0,275.0,2104.473
2104483.0,105.0,62.0,127.0,295.0,2104.483
2104493.0,104.0,59.0,120.0,294.0,2104.493
2104503.0,106.0,59.0,115.0,303.0,2104.503
2104513.0,103.0,59.0,106.0,289.0,2104.513
2104523.0,102.0,58.0,106.0,268.0,2104.523
2104534.0,101.0,58.0,98.0,259.0,2104.534
2104544.0,102.0,57.0,94.0,246.0,2104.544
2104554.0,101.0,54.0,83.0,232.0,2104.554
2104564.0,98.0,54.0,85.0,223.0,2104.564
2104574.0,98.0,52.0,81.0,224.0,2104.574
2104584.0,95.0,53.0,74.0,217.0,2104.584
2104594.0,94.0,52.0,74.0,206.0,2104.594
2104604.0,97.0,51.0,65.0,208.0,2104.604
2104614.0,95.0,52.0,58.0,209.0,2104.614
2104624.0,93.0,50.0,58.0,206.0,2104.624
2104634.0,94.0,50.0,60.0,210.0,2104.634
2104644.0,92.0,49.0,54.0,197.0,2104.644
2104654.0,90.0,49.0,54.0,203.0,2104.654
2104664.0,88.0,49.0,54.0,194.0,2104.664
2104674.0,89.0,49.0,51.0,187.0,2104.674
2104684.0,88.0,49.0,53.0,183.0,2104.684
2104694.0,87.0,48.0,59.0,172.0,2104.694
2104704.0,85.0,46.0,55.0,169.0,2104.704
2104714.0,84.0,48.0,55.0,161.0,2104.714
2104724.0,85.0,50.0,57.0,186.0,2104.724
2104734.0,84.0,50.0,55.0,201.0,2104.734
2104744.0,85.0,48.0,49.0,190.0,2104.744
2104754.0,82.0,49.0,55.0,180.0,2104.754
2104764.0,82.0,47.0,51.0,173.0,2104.764
2104774.0,80.0,46.0,48.0,158.0,2104.774
2104784.0,79.0,45.0,45.0,146.0,2104.784
2104794.0,78.0,45.0,43.0,140.0,2104.794
2104804.0,78.0,46.0,55.0,160.0,2104.804
2104814.0,78.0,46.0,53.0,174.0,2104.814
2104824.0,76.0,47.0,55.0,165.0,2104.824
2104834.0,75.0,47.0,54.0,155.0,2104.834
2104844.0,75.0,46.0,53.0,146.0,2104.844
2104854.0,73.0,44.0,45.0,134.0,2104.854
2104864.0,70.0,44.0,43.0,156.0,2104.864
2104875.0,71.0,45.0,54.0,162.0,2104.875
2104885.0,70.0,46.0,48.0,155.0,2104.885
2104895.0,69.0,47.0,51.0,147.0,2104.895
2104905.0,67.0,47.0,44.0,155.0,2104.905
2104915.0,67.0,47.0,40.0,156.0,2104.915
2104925.0,66.0,46.0,39.0,150.0,2104.925
2104935.0,64.0,45.0,37.0,143.0,2104.935
2104945.0,66.0,47.0,40.0,150.0,2104.945
2104955.0,64.0,47.0,46.0,150.0,2104.955
2104965.0,63.0,47.0,43.0,141.0,2104.965
2104975.0,62.0,47.0,45.0,136.0,2104.975
2104985.0,61.0,45.0,45.0,128.0,2104.985
2104995.0,63.0,44.0,40.0,122.0,2104.995
2105005.0,61.0,44.0,36.0,120.0,2105.005
2105015.0,62.0,45.0,37.0,147.0,2105.015
2105025.0,61.0,43.0,32.0,173.0,2105.025
2105035.0,60.0,44.0,32.0,165.0,2105.035
2105046.0,61.0,43.0,33.0,152.0,2105.046
2105056.0,61.0,45.0,37.0,142.0,2105.056
2105066.0,62.0,42.0,32.0,134.0,2105.066
2105076.0,60.0,43.0,35.0,153.0,2105.076
2105086.0,60.0,43.0,34.0,147.0,2105.086
2105096.0,61.0,42.0,34.0,143.0,2105.096
2105106.0,60.0,42.0,31.0,139.0,2105.106
2105116.0,59.0,41.0,32.0,151.0,2105.116
2105126.0,59.0,43.0,40.0,163.0,2105.126
2105136.0,59.0,43.0,38.0,154.0,2105.136
2105146.0,59.0,42.0,40.0,146.0,2105.146
2105156.0,58.0,43.0,39.0,132.0,2105.156
2105166.0,59.0,42.0,35.0,129.0,2105.166
2105176.0,56.0,43.0,34.0,131.0,2105.176
2105186.0,56.0,43.0,30.0,140.0,2105.186
2105196.0,55.0,43.0,35.0,133.0,2105.196
2105206.0,55.0,42.0,30.0,128.0,2105.206
2105216.0,55.0,43.0,36.0,118.0,2105.216
2105226.0,53.0,42.0,35.0,116.0,2105.226
2105236.0,54.0,42.0,33.0,111.0,2105.236
2105246.0,54.0,44.0,31.0,115.0,2105.246
2105256.0,54.0,47.0,33.0,110.0,2105.256
2105266.0,55.0,45.0,32.0,111.0,2105.266
2105276.0,56.0,47.0,31.0,114.0,2105.276
2105286.0,55.0,46.0,34.0,112.0,2105.286
2105296.0,55.0,45.0,32.0,115.0,2105.296
2105306.0,55.0,43.0,29.0,120.0,2105.306
2105316.0,54.0,43.0,30.0,123.0,2105.316
2105326.0,54.0,44.0,38.0,123.0,2105.326
2105336.0,55.0,43.0,37.0,121.0,2105.336
2105346.0,56.0,44.0,36.0,127.0,2105.346
2105356.0,55.0,42.0,31.0,128.0,2105.356
2105366.0,56.0,40.0,28.0,124.0,2105.366
2105376.0,55.0,40.0,31.0,126.0,2105.376
2105387.0,55.0,43.0,40.0,128.0,2105.387
2105397.0,54.0,44.0,38.0,134.0,2105.397
2105407.0,56.0,45.0,37.0,134.0,2105.407
2105417.0,57.0,45.0,34.0,136.0,2105.417
2105427.0,57.0,44.0,31.0,137.0,2105.427
2105437.0,56.0,44.0,30.0,132.0,2105.437
2105447.0,57.0,45.0,33.0,132.0,2105.447
2105457.0,58.0,43.0,32.0,132.0,2105.457
2105467.0,58.0,44.0,29.0,133.0,2105.467
2105477.0,58.0,44.0,31.0,140.0,2105.477
2105487.0,58.0,43.0,36.0,144.0,2105.487
2105497.0,57.0,43.0,33.0,141.0,2105.497
2105507.0,57.0,41.0,30.0,138.0,2105.507
2105517.0,58.0,41.0,27.0,135.0,2105.517
2105527.0,57.0,41.0,28.0,128.0,2105.527
2105537.0,58.0,42.0,40.0,135.0,2105.537
2105547.0,58.0,42.0,38.0,145.0,2105.547
2105558.0,59.0,41.0,33.0,140.0,2105.558
2105568.0,58.0,41.0,31.0,147.0,2105.568
2105578.0,56.0,40.0,29.0,139.0,2105.578
2105588.0,56.0,42.0,35.0,154.0,2105.588
2105598.0,57.0,41.0,32.0,150.0,2105.598
2105608.0,57.0,41.0,35.0,151.0,2105.608
2105618.0,56.0,43.0,39.0,141.0,2105.618
2105628.0,57.0,44.0,42.0,152.0,2105.628
2105638.0,59.0,43.0,35.0,146.0,2105.638
2105648.0,59.0,43.0,31.0,134.0,2105.648
2105658.0,58.0,41.0,29.0,130.0,2105.658
2105668.0,58.0,41.0,31.0,119.0,2105.668
2105678.0,57.0,40.0,28.0,116.0,2105.678
2105688.0,57.0,41.0,28.0,115.0,2105.688
2105698.0,56.0,40.0,30.0,110.0,2105.698
2105708.0,57.0,43.0,53.0,137.0,2105.708
2105718.0,58.0,42.0,53.0,141.0,2105.718
2105728.0,57.0,42.0,51.0,134.0,2105.728
2105738.0,57.0,41.0,45.0,152.0,2105.738
2105748.0,59.0,40.0,40.0,142.0,2105.748
2105758.0,60.0,41.0,36.0,145.0,2105.758
2105768.0,58.0,41.0,34.0,140.0,2105.768
2105778.0,60.0,40.0,30.0,145.0,2105.778
2105788.0,60.0,41.0,29.0,153.0,2105.788
2105798.0,60.0,40.0,41.0,153.0,2105.798
2105808.0,62.0,42.0,45.0,150.0,2105.808
2105818.0,61.0,42.0,43.0,150.0,2105.818
2105828.0,60.0,41.0,38.0,147.0,2105.828
2105838.0,62.0,41.0,34.0,161.0,2105.838
2105848.0,63.0,41.0,32.0,155.0,2105.848
2105858.0,63.0,41.0,29.0,148.0,2105.858
2105868.0,64.0,44.0,28.0,137.0,2105.868
2105878.0,64.0,42.0,28.0,147.0,2105.878
2105888.0,63.0,43.0,25.0,141.0,2105.888
2105899.0,64.0,43.0,23.0,133.0,2105.899
2105909.0,62.0,44.0,34.0,137.0,2105.909
2105919.0,64.0,45.0,30.0,139.0,2105.919
2105929.0,65.0,45.0,28.0,131.0,2105.929
2105939.0,65.0,47.0,26.0,130.0,2105.939
2105949.0,64.0,44.0,22.0,134.0,2105.949
2105959.0,64.0,44.0,20.0,154.0,2105.959
2105969.0,62.0,43.0,20.0,143.0,2105.969
2105979.0,64.0,43.0,19.0,134.0,2105.979
2105989.0,62.0,42.0,20.0,126.0,2105.989
2105999.0,62.0,41.0,21.0,123.0,2105.999
2106009.0,61.0,41.0,29.0,116.0,2106.009
2106019.0,62.0,42.0,27.0,108.0,2106.019
2106029.0,62.0,42.0,25.0,117.0,2106.029
2106039.0,61.0,42.0,23.0,115.0,2106.039
2106049.0,61.0,41.0,21.0,110.0,2106.049
2106059.0,59.0,41.0,20.0,118.0,2106.059
2106070.0,57.0,41.0,18.0,118.0,2106.07
2106080.0,57.0,40.0,16.0,113.0,2106.08
2106090.0,57.0,41.0,17.0,117.0,2106.09
2106100.0,55.0,42.0,26.0,112.0,2106.1
2106110.0,56.0,43.0,23.0,110.0,2106.11
2106120.0,56.0,42.0,22.0,105.0,2106.12
2106130.0,54.0,42.0,18.0,101.0,2106.13
2106140.0,54.0,42.0,16.0,106.0,2106.14
2106150.0,54.0,42.0,16.0,108.0,2106.15
2106160.0,55.0,44.0,15.0,106.0,2106.16
2106170.0,56.0,42.0,15.0,96.0,2106.17
2106180.0,56.0,41.0,16.0,97.0,2106.18
2106190.0,56.0,41.0,17.0,107.0,2106.19
2106200.0,58.0,41.0,25.0,107.0,2106.2
2106210.0,58.0,42.0,24.0,112.0,2106.21
2106220.0,59.0,41.0,25.0,118.0,2106.22
2106230.0,61.0,41.0,22.0,124.0,2106.23
2106240.0,59.0,42.0,19.0,131.0,2106.24
2106250.0,62.0,42.0,21.0,140.0,2106.25
2106260.0,60.0,42.0,21.0,135.0,2106.26
2106270.0,63.0,41.0,28.0,131.0,2106.27
2106280.0,62.0,41.0,27.0,132.0,2106.28
2106290.0,63.0,42.0,33.0,132.0,2106.29
2106300.0,64.0,41.0,30.0,127.0,2106.3
2106310.0,64.0,42.0,26.0,120.0,2106.31
2106320.0,65.0,39.0,23.0,118.0,2106.32
2106330.0,64.0,40.0,21.0,114.0,2106.33
2106340.0,62.0,40.0,20.0,110.0,2106.34
2106350.0,63.0,41.0,17.0,107.0,2106.35
2106360.0,61.0,41.0,18.0,110.0,2106.36
2106370.0,61.0,41.0,19.0,120.0,2106.37
2106380.0,62.0,44.0,18.0,119.0,2106.38
2106390.0,62.0,42.0,16.0,112.0,2106.39
2106400.0,62.0,41.0,14.0,108.0,2106.4
2106411.0,61.0,40.0,15.0,111.0,2106.411
2106421.0,63.0,40.0,14.0,112.0,2106.421
2106431.0,62.0,39.0,13.0,104.0,2106.431
2106441.0,62.0,39.0,22.0,101.0,2106.441
2106451.0,63.0,41.0,23.0,123.0,2106.451
2106461.0,63.0,42.0,27.0,124.0,2106.461
2106471.0,62.0,41.0,28.0,129.0,2106.471
2106481.0,61.0,41.0,29.0,126.0,2106.481
2106491.0,63.0,41.0,26.0,119.0,2106.491
2106501.0,60.0,41.0,24.0,113.0,2106.501
2106511.0,60.0,41.0,23.0,120.0,2106.511
2106521.0,60.0,43.0,34.0,116.0,2106.521
2106531.0,62.0,42.0,36.0,114.0,2106.531
2106541.0,60.0,42.0,35.0,111.0,2106.541
2106551.0,60.0,42.0,29.0,103.0,2106.551
2106561.0,60.0,41.0,27.0,100.0,2106.561
2106571.0,58.0,43.0,24.0,98.0,2106.571
2106582.0,57.0,42.0,21.0,117.0,2106.582
2106592.0,59.0,42.0,23.0,120.0,2106.592
2106602.0,56.0,41.0,23.0,115.0,2106.602
2106612.0,58.0,41.0,23.0,123.0,2106.612
2106622.0,60.0,42.0,24.0,119.0,2106.622
2106632.0,60.0,41.0,22.0,125.0,2106.632
2106642.0,60.0,42.0,30.0,123.0,2106.642
2106652.0,59.0,41.0,28.0,128.0,2106.652
2106662.0,61.0,41.0,31.0,132.0,2106.662
2106672.0,61.0,41.0,32.0,125.0,2106.672
2106682.0,62.0,41.0,27.0,130.0,2106.682
2106692.0,63.0,40.0,25.0,134.0,2106.692
2106702.0,61.0,40.0,25.0,140.0,2106.702
2106712.0,63.0,40.0,25.0,129.0,2106.712
2106722.0,62.0,41.0,32.0,125.0,2106.722
2106732.0,62.0,41.0,31.0,115.0,2106.732
2106742.0,62.0,41.0,28.0,115.0,2106.742
2106752.0,61.0,42.0,31.0,113.0,2106.752
2106762.0,61.0,40.0,34.0,112.0,2106.762
2106772.0,61.0,41.0,30.0,120.0,2106.772
2106782.0,62.0,41.0,28.0,120.0,2106.782
2106792.0,62.0,40.0,24.0,112.0,2106.792
2106802.0,62.0,41.0,22.0,125.0,2106.802
2106812.0,62.0,41.0,22.0,125.0,2106.812
2106822.0,60.0,43.0,22.0,121.0,2106.822
2106832.0,61.0,42.0,26.0,130.0,2106.832
2106842.0,60.0,42.0,25.0,129.0,2106.842
2106852.0,61.0,42.0,24.0,123.0,2106.852
2106862.0,63.0,41.0,22.0,115.0,2106.862
2106872.0,60.0,40.0,18.0,112.0,2106.872
2106882.0,61.0,41.0,19.0,111.0,2106.882
2106892.0,63.0,41.0,17.0,104.0,2106.892
2106902.0,63.0,40.0,15.0,100.0,2106.902
2106912.0,62.0,39.0,15.0,96.0,2106.912
2106923.0,61.0,40.0,15.0,117.0,2106.923
2106933.0,63.0,38.0,14.0,112.0,2106.933
2106943.0,62.0,39.0,13.0,109.0,2106.943
2106953.0,65.0,41.0,24.0,119.0,2106.953
2106963.0,65.0,40.0,24.0,126.0,2106.963
2106973.0,66.0,42.0,26.0,124.0,2106.973
2106983.0,65.0,42.0,23.0,119.0,2106.983
2106993.0,65.0,44.0,21.0,120.0,2106.993
2107003.0,67.0,44.0,21.0,115.0,2107.003
2107013.0,68.0,44.0,19.0,113.0,2107.013
2107023.0,67.0,44.0,18.0,113.0,2107.023
2107033.0,66.0,44.0,22.0,113.0,2107.033
2107043.0,67.0,44.0,29.0,121.0,2107.043
2107053.0,66.0,43.0,26.0,123.0,2107.053
2107063.0,65.0,46.0,29.0,122.0,2107.063
2107073.0,65.0,44.0,26.0,124.0,2107.073
2107083.0,67.0,43.0,24.0,113.0,2107.083
2107094.0,64.0,43.0,23.0,107.0,2107.094
2107104.0,63.0,41.0,27.0,113.0,2107.104
2107114.0,64.0,44.0,23.0,121.0,2107.114
2107124.0,63.0,43.0,24.0,118.0,2107.124
2107134.0,63.0,42.0,23.0,124.0,2107.134
2107144.0,63.0,41.0,20.0,128.0,2107.144
2107154.0,62.0,41.0,20.0,126.0,2107.154
2107164.0,60.0,42.0,26.0,126.0,2107.164
2107174.0,61.0,41.0,24.0,128.0,2107.174
2107184.0,61.0,41.0,23.0,124.0,2107.184
2107194.0,62.0,41.0,21.0,129.0,2107.194
2107204.0,62.0,39.0,19.0,130.0,2107.204
2107214.0,61.0,39.0,17.0,128.0,2107.214
2107224.0,62.0,39.0,20.0,118.0,2107.224
2107234.0,63.0,38.0,17.0,120.0,2107.234
2107244.0,63.0,39.0,16.0,115.0,2107.244
2107254.0,65.0,37.0,14.0,117.0,2107.254
2107264.0,66.0,39.0,14.0,114.0,2107.264
2107274.0,66.0,38.0,13.0,106.0,2107.274
2107284.0,67.0,38.0,12.0,122.0,2107.284
2107294.0,67.0,39.0,14.0,129.0,2107.294
2107304.0,67.0,40.0,16.0,131.0,2107.304
2107314.0,67.0,39.0,14.0,130.0,2107.314
2107324.0,67.0,41.0,14.0,136.0,2107.324
2107334.0,67.0,43.0,24.0,136.0,2107.334
2107344.0,67.0,42.0,22.0,136.0,2107.344
2107354.0,69.0,42.0,24.0,129.0,2107.354
2107364.0,69.0,41.0,20.0,126.0,2107.364
2107374.0,71.0,41.0,19.0,123.0,2107.374
2107384.0,70.0,42.0,16.0,126.0,2107.384
2107394.0,69.0,42.0,15.0,121.0,2107.394
2107404.0,67.0,43.0,15.0,117.0,2107.404
2107414.0,67.0,42.0,16.0,114.0,2107.414
2107424.0,68.0,42.0,15.0,116.0,2107.424
2107435.0,68.0,42.0,19.0,135.0,2107.435
2107445.0,68.0,43.0,24.0,127.0,2107.445
2107455.0,67.0,43.0,20.0,122.0,2107.455
2107465.0,66.0,43.0,21.0,114.0,2107.465
2107475.0,66.0,41.0,18.0,117.0,2107.475
2107485.0,65.0,43.0,17.0,125.0,2107.485
2107495.0,65.0,42.0,17.0,116.0,2107.495
2107505.0,64.0,44.0,16.0,116.0,2107.505
2107515.0,64.0,43.0,17.0,111.0,2107.515
2107525.0,64.0,42.0,16.0,118.0,2107.525
2107535.0,64.0,41.0,14.0,111.0,2107.535
2107545.0,66.0,42.0,14.0,111.0,2107.545
2107555.0,63.0,44.0,16.0,107.0,2107.555
2107565.0,64.0,44.0,31.0,102.0,2107.565
2107575.0,65.0,44.0,28.0,103.0,2107.575
2107585.0,64.0,44.0,27.0,101.0,2107.585
2107595.0,65.0,43.0,27.0,109.0,2107.595
2107606.0,64.0,42.0,23.0,108.0,2107.606
2107616.0,62.0,43.0,32.0,103.0,2107.616
2107626.0,63.0,44.0,29.0,104.0,2107.626
2107636.0,62.0,45.0,25.0,105.0,2107.636
2107646.0,63.0,44.0,23.0,106.0,2107.646
2107656.0,61.0,45.0,25.0,101.0,2107.656
2107666.0,63.0,47.0,34.0,103.0,2107.666
2107676.0,63.0,46.0,31.0,108.0,2107.676
2107686.0,63.0,46.0,29.0,105.0,2107.686
2107696.0,64.0,47.0,38.0,109.0,2107.696
2107706.0,65.0,46.0,34.0,104.0,2107.706
2107716.0,65.0,44.0,31.0,96.0,2107.716
2107726.0,64.0,46.0,29.0,99.0,2107.726
2107736.0,64.0,45.0,27.0,100.0,2107.736
2107746.0,63.0,44.0,24.0,113.0,2107.746
2107756.0,63.0,43.0,23.0,114.0,2107.756
2107766.0,64.0,43.0,23.0,107.0,2107.766
2107776.0,62.0,45.0,32.0,107.0,2107.776
2107786.0,64.0,44.0,29.0,110.0,2107.786
2107796.0,66.0,42.0,25.0,112.0,2107.796
2107806.0,63.0,41.0,22.0,111.0,2107.806
2107816.0,64.0,41.0,22.0,109.0,2107.816
2107826.0,63.0,41.0,20.0,110.0,2107.826
2107836.0,62.0,41.0,21.0,105.0,2107.836
2107846.0,64.0,41.0,34.0,121.0,2107.846
2107856.0,64.0,40.0,30.0,125.0,2107.856
2107866.0,64.0,42.0,43.0,115.0,2107.866
2107876.0,62.0,43.0,41.0,114.0,2107.876
2107886.0,61.0,42.0,37.0,114.0,2107.886
2107896.0,63.0,42.0,33.0,111.0,2107.896
2107906.0,62.0,41.0,28.0,119.0,2107.906
2107916.0,61.0,41.0,35.0,119.0,2107.916
2107926.0,62.0,42.0,31.0,124.0,2107.926
2107936.0,62.0,40.0,28.0,126.0,2107.936
2107947.0,61.0,41.0,33.0,113.0,2107.947
2107957.0,62.0,42.0,29.0,110.0,2107.957
2107967.0,63.0,41.0,26.0,114.0,2107.967
2107977.0,62.0,41.0,22.0,124.0,2107.977
2107987.0,62.0,40.0,21.0,125.0,2107.987
2107997.0,60.0,41.0,28.0,119.0,2107.997
2108007.0,60.0,41.0,31.0,114.0,2108.007
2108017.0,62.0,39.0,28.0,128.0,2108.017
2108027.0,61.0,43.0,35.0,142.0,2108.027
2108037.0,62.0,41.0,32.0,142.0,2108.037
2108047.0,60.0,42.0,28.0,143.0,2108.047
2108057.0,60.0,43.0,25.0,129.0,2108.057
2108067.0,61.0,42.0,23.0,119.0,2108.067
2108077.0,60.0,45.0,30.0,118.0,2108.077
2108087.0,61.0,42.0,28.0,124.0,2108.087
2108097.0,60.0,43.0,25.0,125.0,2108.097
2108107.0,60.0,44.0,32.0,127.0,2108.107
2108118.0,59.0,42.0,30.0,127.0,2108.118
2108128.0,60.0,43.0,26.0,117.0,2108.128
2108138.0,58.0,41.0,30.0,113.0,2108.138
2108148.0,59.0,43.0,27.0,113.0,2108.148
2108158.0,58.0,41.0,23.0,106.0,2108.158
2108168.0,58.0,41.0,24.0,107.0,2108.168
2108178.0,57.0,41.0,23.0,108.0,2108.178
2108188.0,59.0,43.0,32.0,110.0,2108.188
2108198.0,56.0,44.0,30.0,109.0,2108.198
2108208.0,58.0,42.0,29.0,108.0,2108.208
2108218.0,57.0,43.0,29.0,108.0,2108.218
2108228.0,57.0,42.0,25.0,102.0,2108.228
2108238.0,58.0,40.0,25.0,101.0,2108.238
2108248.0,59.0,41.0,24.0,97.0,2108.248
2108258.0,57.0,42.0,26.0,105.0,2108.258
2108268.0,58.0,41.0,26.0,105.0,2108.268
2108278.0,58.0,40.0,22.0,109.0,2108.278
2108288.0,56.0,41.0,43.0,108.0,2108.288
2108298.0,58.0,43.0,38.0,107.0,2108.298
2108308.0,59.0,40.0,34.0,107.0,2108.308
2108318.0,59.0,40.0,29.0,107.0,2108.318
2108328.0,60.0,42.0,30.0,105.0,2108.328
2108338.0,60.0,42.0,27.0,108.0,2108.338
2108348.0,58.0,43.0,25.0,115.0,2108.348
2108358.0,61.0,43.0,25.0,124.0,2108.358
2108368.0,63.0,44.0,23.0,122.0,2108.368
2108378.0,63.0,47.0,40.0,128.0,2108.378
2108388.0,62.0,46.0,36.0,121.0,2108.388
2108398.0,63.0,45.0,32.0,115.0,2108.398
