time (ms),signal 0,signal 1,signal 2,signal3,time (sec)
2158196.0,63.0,42.0,16.0,66.0,2158.196
2158206.0,63.0,42.0,17.0,67.0,2158.206
2158216.0,64.0,43.0,27.0,70.0,2158.216
2158226.0,64.0,42.0,27.0,71.0,2158.226
2158236.0,65.0,43.0,23.0,68.0,2158.236
2158246.0,65.0,43.0,21.0,67.0,2158.246
2158256.0,65.0,42.0,19.0,65.0,2158.256
2158266.0,64.0,41.0,17.0,64.0,2158.266
2158276.0,65.0,42.0,16.0,62.0,2158.276
2158286.0,67.0,42.0,14.0,62.0,2158.286
2158296.0,67.0,40.0,14.0,60.0,2158.296
2158306.0,70.0,42.0,13.0,61.0,2158.306
2158316.0,69.0,42.0,12.0,64.0,2158.316
2158326.0,70.0,44.0,22.0,65.0,2158.326
2158336.0,71.0,44.0,21.0,65.0,2158.336
2158346.0,72.0,44.0,20.0,64.0,2158.346
2158356.0,72.0,43.0,18.0,62.0,2158.356
2158366.0,71.0,44.0,17.0,61.0,2158.366
2158376.0,72.0,43.0,16.0,61.0,2158.376
2158386.0,72.0,46.0,16.0,66.0,2158.386
2158396.0,71.0,43.0,15.0,66.0,2158.396
2158406.0,71.0,45.0,21.0,66.0,2158.406
2158416.0,72.0,47.0,21.0,65.0,2158.416
2158426.0,73.0,45.0,19.0,64.0,2158.426
2158436.0,73.0,47.0,17.0,61.0,2158.436
2158446.0,73.0,46.0,17.0,61.0,2158.446
2158456.0,74.0,48.0,16.0,57.0,2158.456
2158466.0,75.0,49.0,16.0,61.0,2158.466
2158476.0,76.0,48.0,14.0,61.0,2158.476
2158486.0,77.0,50.0,13.0,58.0,2158.486
2158496.0,77.0,49.0,19.0,65.0,2158.496
2158507.0,77.0,51.0,17.0,73.0,2158.507
2158517.0,78.0,50.0,27.0,71.0,2158.517
2158527.0,79.0,52.0,29.0,71.0,2158.527
2158537.0,79.0,53.0,26.0,70.0,2158.537
2158547.0,79.0,53.0,23.0,73.0,2158.547
2158557.0,78.0,57.0,21.0,73.0,2158.557
2158567.0,74.0,61.0,28.0,69.0,2158.567
2158577.0,76.0,65.0,24.0,71.0,2158.577
2158587.0,77.0,68.0,29.0,69.0,2158.587
2158597.0,79.0,70.0,28.0,74.0,2158.597
2158607.0,78.0,70.0,26.0,77.0,2158.607
2158617.0,80.0,67.0,24.0,73.0,2158.617
2158627.0,79.0,67.0,21.0,69.0,2158.627
2158637.0,80.0,68.0,19.0,72.0,2158.637
2158647.0,80.0,68.0,18.0,70.0,2158.647
2158657.0,79.0,67.0,17.0,72.0,2158.657
2158667.0,79.0,66.0,17.0,76.0,2158.667
2158678.0,77.0,65.0,18.0,75.0,2158.678
2158688.0,78.0,66.0,25.0,70.0,2158.688
2158698.0,77.0,66.0,22.0,73.0,2158.698
2158708.0,78.0,67.0,19.0,73.0,2158.708
2158718.0,78.0,68.0,20.0,78.0,2158.718
2158728.0,77.0,67.0,17.0,78.0,2158.728
2158738.0,78.0,68.0,17.0,77.0,2158.738
2158748.0,75.0,66.0,17.0,76.0,2158.748
2158758.0,74.0,65.0,16.0,72.0,2158.758
2158768.0,74.0,67.0,16.0,76.0,2158.768
2158778.0,74.0,69.0,14.0,77.0,2158.778
2158788.0,75.0,69.0,14.0,73.0,2158.788
2158798.0,74.0,70.0,24.0,72.0,2158.798
2158808.0,73.0,69.0,21.0,70.0,2158.808
2158818.0,72.0,69.0,21.0,71.0,2158.818
2158828.0,69.0,67.0,21.0,76.0,2158.828
2158838.0,70.0,69.0,21.0,77.0,2158.838
2158848.0,70.0,69.0,23.0,84.0,2158.848
2158858.0,70.0,69.0,20.0,80.0,2158.858
2158868.0,70.0,69.0,32.0,82.0,2158.868
2158878.0,69.0,68.0,29.0,85.0,2158.878
2158888.0,70.0,70.0,26.0,81.0,2158.888
2158898.0,68.0,68.0,34.0,82.0,2158.898
2158908.0,66.0,65.0,41.0,81.0,2158.908
2158918.0,67.0,67.0,48.0,87.0,2158.918
2158928.0,67.0,71.0,49.0,100.0,2158.928
2158938.0,66.0,70.0,47.0,104.0,2158.938
2158948.0,65.0,72.0,40.0,103.0,2158.948
2158958.0,67.0,71.0,36.0,103.0,2158.958
2158968.0,65.0,71.0,35.0,94.0,2158.968
2158978.0,65.0,70.0,33.0,95.0,2158.978
2158988.0,66.0,69.0,30.0,92.0,2158.988
2158998.0,65.0,70.0,42.0,88.0,2158.998
2159008.0,64.0,66.0,39.0,85.0,2159.008
2159019.0,63.0,67.0,36.0,89.0,2159.019
2159029.0,64.0,66.0,43.0,82.0,2159.029
2159039.0,66.0,67.0,41.0,83.0,2159.039
2159049.0,65.0,68.0,41.0,91.0,2159.049
2159059.0,66.0,68.0,36.0,89.0,2159.059
2159069.0,66.0,67.0,41.0,83.0,2159.069
2159079.0,64.0,68.0,39.0,80.0,2159.079
2159089.0,64.0,66.0,40.0,82.0,2159.089
2159099.0,64.0,68.0,37.0,78.0,2159.099
2159109.0,65.0,70.0,37.0,75.0,2159.109
2159119.0,66.0,73.0,34.0,71.0,2159.119
2159129.0,65.0,71.0,39.0,74.0,2159.129
2159139.0,63.0,70.0,48.0,76.0,2159.139
2159149.0,63.0,71.0,51.0,73.0,2159.149
2159159.0,64.0,73.0,52.0,75.0,2159.159
2159169.0,65.0,76.0,50.0,78.0,2159.169
2159179.0,66.0,74.0,58.0,72.0,2159.179
2159190.0,66.0,75.0,64.0,68.0,2159.19
2159200.0,66.0,74.0,61.0,69.0,2159.2
2159210.0,67.0,75.0,53.0,70.0,2159.21
2159220.0,64.0,73.0,47.0,78.0,2159.22
2159230.0,64.0,71.0,49.0,74.0,2159.23
2159240.0,65.0,72.0,49.0,80.0,2159.24
2159250.0,66.0,72.0,45.0,79.0,2159.25
2159260.0,66.0,71.0,42.0,78.0,2159.26
2159270.0,66.0,71.0,36.0,76.0,2159.27
2159280.0,66.0,71.0,34.0,75.0,2159.28
2159290.0,64.0,71.0,34.0,81.0,2159.29
2159300.0,64.0,71.0,32.0,78.0,2159.3
2159310.0,65.0,70.0,47.0,80.0,2159.31
2159320.0,63.0,69.0,45.0,88.0,2159.32
2159330.0,65.0,69.0,41.0,91.0,2159.33
2159340.0,65.0,71.0,38.0,90.0,2159.34
2159350.0,65.0,71.0,35.0,88.0,2159.35
2159360.0,63.0,68.0,35.0,87.0,2159.36
2159370.0,64.0,69.0,42.0,85.0,2159.37
2159380.0,63.0,68.0,36.0,85.0,2159.38
2159390.0,62.0,66.0,44.0,83.0,2159.39
2159400.0,62.0,66.0,41.0,76.0,2159.4
2159410.0,63.0,66.0,39.0,75.0,2159.41
2159420.0,61.0,64.0,36.0,77.0,2159.42
2159430.0,62.0,64.0,31.0,81.0,2159.43
2159440.0,62.0,64.0,43.0,77.0,2159.44
2159450.0,61.0,62.0,41.0,72.0,2159.45
2159460.0,61.0,65.0,37.0,74.0,2159.46
2159470.0,61.0,64.0,32.0,77.0,2159.47
2159480.0,60.0,62.0,30.0,77.0,2159.48
2159490.0,60.0,61.0,29.0,73.0,2159.49
2159500.0,60.0,60.0,30.0,75.0,2159.5
2159510.0,61.0,62.0,34.0,77.0,2159.51
2159520.0,62.0,62.0,44.0,76.0,2159.52
2159531.0,63.0,63.0,39.0,74.0,2159.531
2159541.0,61.0,61.0,35.0,77.0,2159.541
2159551.0,62.0,59.0,52.0,76.0,2159.551
2159561.0,64.0,62.0,48.0,77.0,2159.561
2159571.0,66.0,58.0,44.0,75.0,2159.571
2159581.0,66.0,58.0,39.0,82.0,2159.581
2159591.0,65.0,56.0,35.0,90.0,2159.591
2159601.0,65.0,55.0,41.0,103.0,2159.601
2159611.0,67.0,55.0,37.0,110.0,2159.611
2159621.0,70.0,56.0,51.0,115.0,2159.621
2159631.0,70.0,55.0,56.0,115.0,2159.631
2159641.0,70.0,55.0,49.0,117.0,2159.641
2159651.0,72.0,54.0,47.0,121.0,2159.651
2159661.0,73.0,53.0,43.0,116.0,2159.661
2159671.0,83.0,55.0,40.0,115.0,2159.671
2159681.0,84.0,53.0,47.0,107.0,2159.681
2159691.0,102.0,55.0,41.0,102.0,2159.691
2159702.0,119.0,57.0,37.0,102.0,2159.702
2159712.0,124.0,58.0,38.0,95.0,2159.712
2159722.0,125.0,56.0,36.0,95.0,2159.722
2159732.0,129.0,56.0,35.0,104.0,2159.732
2159742.0,124.0,55.0,31.0,99.0,2159.742
2159752.0,127.0,55.0,28.0,99.0,2159.752
2159762.0,146.0,60.0,25.0,97.0,2159.762
2159772.0,173.0,67.0,28.0,115.0,2159.772
2159782.0,193.0,75.0,25.0,108.0,2159.782
2159792.0,214.0,80.0,29.0,111.0,2159.792
2159802.0,217.0,83.0,26.0,108.0,2159.802
2159812.0,238.0,85.0,32.0,108.0,2159.812
2159822.0,243.0,86.0,30.0,117.0,2159.822
2159832.0,239.0,86.0,26.0,117.0,2159.832
2159842.0,264.0,94.0,29.0,114.0,2159.842
2159852.0,273.0,91.0,26.0,127.0,2159.852
2159862.0,265.0,99.0,29.0,131.0,2159.862
2159872.0,270.0,95.0,27.0,127.0,2159.872
2159882.0,266.0,101.0,24.0,129.0,2159.882
2159892.0,266.0,107.0,26.0,135.0,2159.892
2159902.0,245.0,105.0,31.0,170.0,2159.902
2159912.0,234.0,109.0,35.0,210.0,2159.912
2159922.0,218.0,106.0,46.0,203.0,2159.922
2159932.0,203.0,107.0,55.0,220.0,2159.932
2159942.0,185.0,103.0,57.0,206.0,2159.942
2159952.0,172.0,106.0,56.0,214.0,2159.952
2159962.0,163.0,100.0,60.0,222.0,2159.962
2159972.0,154.0,96.0,53.0,241.0,2159.972
2159982.0,155.0,98.0,48.0,260.0,2159.982
2159992.0,151.0,92.0,42.0,249.0,2159.992
2160002.0,145.0,87.0,42.0,234.0,2160.002
2160012.0,136.0,87.0,48.0,241.0,2160.012
2160022.0,133.0,83.0,54.0,220.0,2160.022
2160032.0,169.0,92.0,54.0,210.0,2160.032
2160043.0,193.0,92.0,49.0,219.0,2160.043
2160053.0,197.0,90.0,63.0,273.0,2160.053
2160063.0,185.0,88.0,62.0,263.0,2160.063
2160073.0,169.0,84.0,60.0,255.0,2160.073
2160083.0,154.0,84.0,60.0,252.0,2160.083
2160093.0,148.0,83.0,59.0,262.0,2160.093
2160103.0,140.0,82.0,59.0,251.0,2160.103
2160113.0,131.0,82.0,52.0,233.0,2160.113
2160123.0,123.0,86.0,71.0,228.0,2160.123
2160133.0,116.0,85.0,71.0,224.0,2160.133
2160143.0,114.0,81.0,66.0,217.0,2160.143
2160153.0,108.0,80.0,59.0,213.0,2160.153
2160163.0,103.0,81.0,52.0,207.0,2160.163
2160173.0,97.0,85.0,58.0,275.0,2160.173
2160183.0,95.0,81.0,56.0,280.0,2160.183
2160193.0,93.0,83.0,69.0,257.0,2160.193
2160203.0,89.0,82.0,82.0,238.0,2160.203
2160214.0,90.0,77.0,72.0,237.0,2160.214
2160224.0,86.0,79.0,71.0,228.0,2160.224
2160234.0,88.0,78.0,66.0,232.0,2160.234
2160244.0,83.0,82.0,62.0,225.0,2160.244
2160254.0,83.0,83.0,57.0,215.0,2160.254
2160264.0,82.0,86.0,68.0,220.0,2160.264
2160274.0,82.0,82.0,60.0,229.0,2160.274
2160284.0,80.0,83.0,56.0,224.0,2160.284
2160294.0,76.0,88.0,54.0,217.0,2160.294
2160304.0,79.0,85.0,49.0,206.0,2160.304
2160314.0,82.0,86.0,50.0,201.0,2160.314
2160324.0,78.0,88.0,43.0,209.0,2160.324
2160334.0,81.0,87.0,42.0,208.0,2160.334
2160344.0,82.0,85.0,43.0,201.0,2160.344
2160354.0,79.0,85.0,57.0,202.0,2160.354
2160364.0,79.0,82.0,50.0,201.0,2160.364
2160374.0,78.0,80.0,44.0,190.0,2160.374
2160384.0,74.0,85.0,45.0,194.0,2160.384
2160394.0,75.0,82.0,47.0,192.0,2160.394
2160404.0,71.0,80.0,41.0,183.0,2160.404
2160414.0,70.0,80.0,41.0,181.0,2160.414
2160424.0,67.0,78.0,59.0,203.0,2160.424
2160434.0,67.0,75.0,56.0,207.0,2160.434
2160444.0,64.0,77.0,55.0,270.0,2160.444
2160454.0,66.0,75.0,59.0,321.0,2160.454
2160464.0,67.0,74.0,59.0,316.0,2160.464
2160474.0,65.0,71.0,56.0,335.0,2160.474
2160484.0,64.0,71.0,55.0,343.0,2160.484
2160494.0,63.0,70.0,58.0,350.0,2160.494
2160504.0,65.0,67.0,51.0,351.0,2160.504
2160514.0,65.0,68.0,50.0,329.0,2160.514
2160524.0,65.0,68.0,56.0,321.0,2160.524
2160534.0,65.0,69.0,71.0,357.0,2160.534
2160544.0,65.0,68.0,82.0,348.0,2160.544
2160555.0,63.0,66.0,74.0,331.0,2160.555
2160565.0,61.0,66.0,68.0,306.0,2160.565
2160575.0,60.0,65.0,69.0,325.0,2160.575
2160585.0,58.0,65.0,61.0,333.0,2160.585
2160595.0,57.0,64.0,63.0,317.0,2160.595
2160605.0,56.0,63.0,64.0,304.0,2160.605
2160615.0,58.0,64.0,69.0,317.0,2160.615
2160625.0,57.0,62.0,68.0,320.0,2160.625
2160635.0,59.0,62.0,68.0,365.0,2160.635
2160645.0,60.0,64.0,68.0,343.0,2160.645
2160655.0,64.0,61.0,72.0,333.0,2160.655
2160665.0,62.0,62.0,66.0,350.0,2160.665
2160675.0,64.0,62.0,57.0,344.0,2160.675
2160685.0,64.0,63.0,58.0,340.0,2160.685
2160695.0,64.0,62.0,61.0,312.0,2160.695
2160705.0,61.0,65.0,72.0,302.0,2160.705
2160715.0,59.0,62.0,63.0,305.0,2160.715
2160726.0,59.0,62.0,61.0,287.0,2160.726
2160736.0,56.0,63.0,56.0,280.0,2160.736
2160746.0,56.0,63.0,56.0,295.0,2160.746
2160756.0,56.0,63.0,49.0,316.0,2160.756
2160766.0,55.0,64.0,44.0,303.0,2160.766
2160776.0,53.0,63.0,44.0,286.0,2160.776
2160786.0,53.0,64.0,41.0,297.0,2160.786
2160796.0,54.0,64.0,43.0,291.0,2160.796
2160806.0,52.0,65.0,46.0,279.0,2160.806
2160816.0,53.0,63.0,46.0,268.0,2160.816
2160826.0,53.0,69.0,48.0,282.0,2160.826
2160836.0,53.0,68.0,45.0,278.0,2160.836
2160846.0,54.0,66.0,42.0,278.0,2160.846
2160856.0,53.0,67.0,44.0,277.0,2160.856
2160866.0,53.0,65.0,49.0,262.0,2160.866
2160876.0,54.0,63.0,50.0,264.0,2160.876
2160886.0,54.0,62.0,47.0,257.0,2160.886
2160896.0,60.0,61.0,44.0,267.0,2160.896
2160906.0,59.0,62.0,42.0,299.0,2160.906
2160916.0,59.0,60.0,42.0,312.0,2160.916
2160926.0,59.0,60.0,40.0,329.0,2160.926
2160936.0,57.0,62.0,41.0,341.0,2160.936
2160946.0,58.0,61.0,37.0,340.0,2160.946
2160956.0,56.0,63.0,42.0,309.0,2160.956
2160966.0,55.0,65.0,52.0,303.0,2160.966
2160976.0,55.0,69.0,47.0,286.0,2160.976
2160986.0,55.0,67.0,42.0,285.0,2160.986
2160996.0,54.0,65.0,37.0,269.0,2160.996
2161006.0,53.0,64.0,36.0,275.0,2161.006
2161016.0,53.0,68.0,35.0,262.0,2161.016
2161026.0,52.0,65.0,30.0,263.0,2161.026
2161036.0,52.0,64.0,28.0,254.0,2161.036
2161046.0,52.0,61.0,25.0,236.0,2161.046
2161056.0,52.0,61.0,27.0,248.0,2161.056
2161067.0,53.0,59.0,24.0,256.0,2161.067
2161077.0,51.0,61.0,24.0,255.0,2161.077
2161087.0,52.0,61.0,22.0,244.0,2161.087
2161097.0,52.0,58.0,20.0,232.0,2161.097
2161107.0,53.0,59.0,23.0,236.0,2161.107
2161117.0,56.0,57.0,21.0,237.0,2161.117
2161127.0,55.0,59.0,30.0,243.0,2161.127
2161137.0,56.0,58.0,31.0,244.0,2161.137
2161147.0,55.0,60.0,43.0,257.0,2161.147
2161157.0,57.0,62.0,52.0,306.0,2161.157
2161167.0,58.0,60.0,47.0,287.0,2161.167
2161177.0,56.0,59.0,44.0,281.0,2161.177
2161187.0,57.0,58.0,40.0,283.0,2161.187
2161197.0,58.0,61.0,36.0,291.0,2161.197
2161207.0,58.0,60.0,39.0,268.0,2161.207
2161217.0,57.0,60.0,46.0,247.0,2161.217
2161227.0,57.0,63.0,45.0,230.0,2161.227
2161238.0,59.0,61.0,43.0,262.0,2161.238
2161248.0,58.0,62.0,38.0,268.0,2161.248
2161258.0,60.0,61.0,51.0,267.0,2161.258
2161268.0,59.0,62.0,57.0,249.0,2161.268
2161278.0,61.0,59.0,59.0,258.0,2161.278
2161288.0,60.0,60.0,54.0,246.0,2161.288
2161298.0,59.0,61.0,45.0,254.0,2161.298
2161308.0,59.0,61.0,42.0,245.0,2161.308
2161318.0,58.0,62.0,36.0,251.0,2161.318
2161328.0,58.0,62.0,32.0,263.0,2161.328
2161338.0,58.0,61.0,30.0,263.0,2161.338
2161348.0,58.0,63.0,27.0,243.0,2161.348
2161358.0,57.0,68.0,29.0,220.0,2161.358
2161368.0,59.0,68.0,37.0,224.0,2161.368
2161378.0,60.0,66.0,39.0,223.0,2161.378
2161388.0,61.0,64.0,36.0,213.0,2161.388
2161398.0,62.0,62.0,32.0,202.0,2161.398
2161408.0,61.0,65.0,30.0,190.0,2161.408
2161418.0,62.0,67.0,26.0,187.0,2161.418
2161428.0,64.0,63.0,23.0,172.0,2161.428
2161438.0,65.0,63.0,20.0,164.0,2161.438
2161448.0,65.0,62.0,18.0,151.0,2161.448
2161458.0,66.0,63.0,17.0,143.0,2161.458
2161468.0,65.0,65.0,14.0,147.0,2161.468
2161478.0,63.0,69.0,14.0,135.0,2161.478
2161488.0,66.0,68.0,13.0,123.0,2161.488
2161498.0,65.0,69.0,15.0,111.0,2161.498
2161508.0,67.0,64.0,13.0,116.0,2161.508
2161518.0,65.0,63.0,12.0,107.0,2161.518
2161528.0,66.0,61.0,11.0,97.0,2161.528
2161538.0,65.0,60.0,10.0,91.0,2161.538
2161548.0,64.0,62.0,14.0,84.0,2161.548
2161558.0,68.0,61.0,14.0,89.0,2161.558
2161568.0,66.0,62.0,16.0,102.0,2161.568
2161579.0,67.0,60.0,18.0,115.0,2161.579
2161589.0,66.0,59.0,15.0,126.0,2161.589
2161599.0,65.0,59.0,16.0,139.0,2161.599
2161609.0,66.0,58.0,14.0,154.0,2161.609
2161619.0,64.0,58.0,15.0,147.0,2161.619
2161629.0,65.0,57.0,14.0,137.0,2161.629
2161639.0,66.0,59.0,15.0,141.0,2161.639
2161649.0,66.0,58.0,14.0,140.0,2161.649
2161659.0,67.0,60.0,13.0,139.0,2161.659
2161669.0,69.0,58.0,13.0,151.0,2161.669
2161679.0,68.0,61.0,17.0,207.0,2161.679
2161689.0,70.0,59.0,16.0,218.0,2161.689
2161699.0,69.0,59.0,14.0,217.0,2161.699
2161709.0,69.0,61.0,13.0,226.0,2161.709
2161719.0,69.0,58.0,11.0,208.0,2161.719
2161729.0,69.0,57.0,16.0,199.0,2161.729
2161739.0,68.0,54.0,13.0,190.0,2161.739
2161750.0,69.0,54.0,16.0,179.0,2161.75
2161760.0,65.0,55.0,13.0,207.0,2161.76
2161770.0,65.0,57.0,12.0,205.0,2161.77
2161780.0,64.0,56.0,19.0,190.0,2161.78
2161790.0,65.0,55.0,18.0,198.0,2161.79
2161800.0,65.0,52.0,19.0,214.0,2161.8
2161810.0,66.0,52.0,17.0,227.0,2161.81
2161820.0,69.0,53.0,18.0,219.0,2161.82
2161830.0,66.0,52.0,18.0,200.0,2161.83
2161840.0,65.0,50.0,15.0,188.0,2161.84
2161850.0,68.0,49.0,15.0,173.0,2161.85
2161860.0,69.0,49.0,16.0,220.0,2161.86
2161870.0,68.0,48.0,16.0,204.0,2161.87
2161880.0,68.0,49.0,15.0,203.0,2161.88
2161890.0,68.0,49.0,15.0,231.0,2161.89
2161900.0,71.0,48.0,14.0,239.0,2161.9
2161910.0,66.0,50.0,26.0,238.0,2161.91
2161920.0,68.0,48.0,25.0,229.0,2161.92
2161930.0,69.0,47.0,21.0,213.0,2161.93
2161940.0,67.0,45.0,20.0,204.0,2161.94
2161950.0,69.0,44.0,17.0,211.0,2161.95
2161960.0,69.0,44.0,15.0,206.0,2161.96
2161970.0,69.0,49.0,15.0,191.0,2161.97
2161980.0,68.0,47.0,12.0,171.0,2161.98
2161990.0,68.0,47.0,17.0,166.0,2161.99
2162000.0,69.0,47.0,16.0,158.0,2162.0
2162010.0,67.0,46.0,14.0,175.0,2162.01
2162020.0,69.0,46.0,13.0,192.0,2162.02
2162030.0,67.0,46.0,12.0,188.0,2162.03
2162040.0,68.0,46.0,12.0,188.0,2162.04
2162050.0,67.0,46.0,10.0,201.0,2162.05
2162060.0,64.0,47.0,10.0,198.0,2162.06
2162070.0,64.0,45.0,10.0,181.0,2162.07
2162080.0,65.0,43.0,9.0,179.0,2162.08
2162091.0,63.0,44.0,9.0,178.0,2162.091
2162101.0,65.0,44.0,13.0,203.0,2162.101
2162111.0,64.0,44.0,13.0,188.0,2162.111
2162121.0,64.0,43.0,12.0,189.0,2162.121
2162131.0,63.0,43.0,10.0,184.0,2162.131
2162141.0,65.0,41.0,12.0,205.0,2162.141
2162151.0,65.0,42.0,11.0,209.0,2162.151
2162161.0,65.0,40.0,11.0,202.0,2162.161
2162171.0,65.0,41.0,9.0,212.0,2162.171
2162181.0,65.0,41.0,9.0,208.0,2162.181
2162191.0,64.0,43.0,11.0,200.0,2162.191
2162201.0,64.0,43.0,12.0,191.0,2162.201
2162211.0,66.0,43.0,12.0,175.0,2162.211
2162221.0,67.0,43.0,11.0,172.0,2162.221
2162231.0,69.0,42.0,10.0,164.0,2162.231
2162241.0,68.0,44.0,9.0,163.0,2162.241
2162251.0,69.0,43.0,9.0,179.0,2162.251
2162262.0,69.0,43.0,11.0,174.0,2162.262
2162272.0,71.0,41.0,10.0,166.0,2162.272
2162282.0,70.0,42.0,11.0,185.0,2162.282
2162292.0,71.0,42.0,10.0,205.0,2162.292
2162302.0,73.0,41.0,9.0,186.0,2162.302
2162312.0,72.0,40.0,8.0,172.0,2162.312
2162322.0,71.0,40.0,8.0,160.0,2162.322
2162332.0,72.0,41.0,7.0,162.0,2162.332
2162342.0,70.0,42.0,6.0,170.0,2162.342
2162352.0,69.0,42.0,6.0,165.0,2162.352
2162362.0,69.0,41.0,6.0,169.0,2162.362
2162372.0,71.0,42.0,5.0,177.0,2162.372
2162382.0,72.0,40.0,5.0,186.0,2162.382
2162392.0,69.0,42.0,4.0,178.0,2162.392
2162402.0,71.0,42.0,7.0,184.0,2162.402
2162412.0,71.0,42.0,7.0,182.0,2162.412
2162422.0,72.0,41.0,6.0,183.0,2162.422
2162432.0,72.0,41.0,6.0,170.0,2162.432
2162442.0,72.0,42.0,6.0,161.0,2162.442
2162452.0,72.0,40.0,5.0,152.0,2162.452
2162462.0,73.0,40.0,5.0,161.0,2162.462
2162472.0,72.0,41.0,5.0,163.0,2162.472
2162482.0,72.0,41.0,7.0,155.0,2162.482
2162492.0,70.0,39.0,4.0,142.0,2162.492
2162502.0,70.0,40.0,5.0,127.0,2162.502
2162512.0,69.0,40.0,7.0,127.0,2162.512
2162522.0,68.0,40.0,7.0,136.0,2162.522
2162532.0,69.0,39.0,7.0,131.0,2162.532
2162542.0,67.0,40.0,10.0,122.0,2162.542
2162552.0,69.0,40.0,11.0,121.0,2162.552
2162562.0,68.0,41.0,10.0,144.0,2162.562
2162572.0,67.0,40.0,10.0,157.0,2162.572
2162582.0,67.0,39.0,10.0,147.0,2162.582
2162592.0,66.0,40.0,9.0,142.0,2162.592
2162603.0,65.0,39.0,8.0,132.0,2162.603
2162613.0,66.0,40.0,8.0,134.0,2162.613
2162623.0,65.0,41.0,7.0,135.0,2162.623
2162633.0,67.0,40.0,8.0,126.0,2162.633
2162643.0,64.0,40.0,6.0,114.0,2162.643
2162653.0,63.0,41.0,7.0,116.0,2162.653
2162663.0,65.0,43.0,7.0,121.0,2162.663
2162673.0,64.0,40.0,6.0,111.0,2162.673
2162683.0,63.0,39.0,6.0,113.0,2162.683
2162693.0,61.0,40.0,5.0,124.0,2162.693
2162703.0,65.0,39.0,6.0,115.0,2162.703
2162713.0,65.0,42.0,14.0,109.0,2162.713
2162723.0,71.0,44.0,24.0,112.0,2162.723
2162733.0,69.0,50.0,85.0,155.0,2162.733
2162743.0,69.0,53.0,99.0,158.0,2162.743
2162753.0,68.0,55.0,131.0,194.0,2162.753
2162763.0,74.0,69.0,231.0,231.0,2162.763
2162774.0,77.0,75.0,319.0,317.0,2162.774
2162784.0,83.0,78.0,326.0,320.0,2162.784
2162794.0,84.0,77.0,293.0,296.0,2162.794
2162804.0,87.0,79.0,305.0,337.0,2162.804
2162814.0,89.0,86.0,338.0,370.0,2162.814
2162824.0,91.0,87.0,357.0,361.0,2162.824
2162834.0,90.0,89.0,325.0,359.0,2162.834
2162844.0,94.0,86.0,292.0,382.0,2162.844
2162854.0,106.0,90.0,309.0,401.0,2162.854
2162864.0,108.0,90.0,295.0,385.0,2162.864
2162874.0,105.0,90.0,282.0,368.0,2162.874
2162884.0,101.0,89.0,253.0,378.0,2162.884
2162894.0,96.0,86.0,262.0,377.0,2162.894
2162904.0,96.0,85.0,251.0,373.0,2162.904
2162914.0,95.0,85.0,238.0,363.0,2162.914
2162924.0,95.0,86.0,231.0,379.0,2162.924
2162934.0,93.0,82.0,205.0,368.0,2162.934
2162944.0,87.0,78.0,206.0,339.0,2162.944
2162954.0,86.0,75.0,188.0,332.0,2162.954
2162964.0,82.0,73.0,190.0,326.0,2162.964
2162974.0,88.0,72.0,190.0,353.0,2162.974
2162984.0,98.0,71.0,177.0,356.0,2162.984
2162994.0,100.0,68.0,178.0,326.0,2162.994
2163004.0,96.0,64.0,161.0,308.0,2163.004
2163014.0,94.0,63.0,151.0,308.0,2163.014
2163024.0,93.0,63.0,146.0,287.0,2163.024
2163034.0,92.0,61.0,137.0,275.0,2163.034
2163044.0,90.0,59.0,129.0,257.0,2163.044
2163054.0,87.0,60.0,136.0,236.0,2163.054
2163064.0,87.0,58.0,126.0,231.0,2163.064
2163074.0,85.0,55.0,119.0,218.0,2163.074
2163084.0,84.0,54.0,111.0,205.0,2163.084
2163094.0,82.0,53.0,108.0,205.0,2163.094
2163104.0,80.0,52.0,104.0,192.0,2163.104
2163115.0,80.0,51.0,101.0,188.0,2163.115
2163125.0,79.0,51.0,96.0,181.0,2163.125
2163135.0,78.0,51.0,89.0,182.0,2163.135
2163145.0,77.0,51.0,87.0,184.0,2163.145
2163155.0,76.0,49.0,78.0,180.0,2163.155
2163165.0,75.0,48.0,80.0,170.0,2163.165
2163175.0,77.0,50.0,75.0,169.0,2163.175
2163185.0,75.0,52.0,75.0,190.0,2163.185
2163195.0,75.0,52.0,83.0,176.0,2163.195
2163205.0,75.0,53.0,77.0,173.0,2163.205
2163215.0,73.0,51.0,73.0,169.0,2163.215
2163225.0,70.0,50.0,72.0,168.0,2163.225
2163235.0,71.0,50.0,67.0,161.0,2163.235
2163245.0,71.0,49.0,63.0,151.0,2163.245
2163255.0,70.0,49.0,71.0,146.0,2163.255
2163265.0,72.0,50.0,73.0,143.0,2163.265
2163275.0,69.0,48.0,64.0,135.0,2163.275
2163286.0,69.0,46.0,67.0,126.0,2163.286
2163296.0,69.0,45.0,67.0,132.0,2163.296
2163306.0,68.0,46.0,72.0,133.0,2163.306
2163316.0,70.0,45.0,65.0,133.0,2163.316
2163326.0,68.0,45.0,60.0,120.0,2163.326
2163336.0,68.0,46.0,83.0,124.0,2163.336
2163346.0,70.0,46.0,73.0,126.0,2163.346
2163356.0,68.0,45.0,65.0,118.0,2163.356
2163366.0,69.0,45.0,58.0,130.0,2163.366
2163376.0,68.0,45.0,55.0,134.0,2163.376
2163386.0,69.0,44.0,59.0,136.0,2163.386
2163396.0,67.0,46.0,56.0,152.0,2163.396
2163406.0,67.0,46.0,61.0,159.0,2163.406
2163416.0,69.0,46.0,56.0,154.0,2163.416
2163426.0,68.0,44.0,54.0,147.0,2163.426
2163436.0,70.0,46.0,52.0,139.0,2163.436
2163446.0,68.0,45.0,46.0,136.0,2163.446
2163456.0,68.0,45.0,44.0,145.0,2163.456
2163466.0,68.0,43.0,40.0,143.0,2163.466
2163476.0,65.0,44.0,39.0,142.0,2163.476
2163486.0,68.0,44.0,43.0,135.0,2163.486
2163496.0,66.0,45.0,41.0,131.0,2163.496
2163506.0,67.0,45.0,41.0,130.0,2163.506
2163516.0,67.0,46.0,40.0,122.0,2163.516
2163526.0,68.0,45.0,36.0,134.0,2163.526
2163536.0,66.0,45.0,38.0,137.0,2163.536
2163546.0,65.0,46.0,34.0,137.0,2163.546
2163556.0,65.0,46.0,33.0,134.0,2163.556
2163566.0,68.0,51.0,36.0,157.0,2163.566
2163576.0,66.0,51.0,42.0,151.0,2163.576
2163586.0,68.0,50.0,45.0,166.0,2163.586
2163596.0,66.0,48.0,38.0,163.0,2163.596
2163606.0,66.0,48.0,38.0,163.0,2163.606
2163616.0,64.0,50.0,45.0,156.0,2163.616
2163627.0,63.0,48.0,49.0,150.0,2163.627
2163637.0,61.0,46.0,45.0,140.0,2163.637
2163647.0,62.0,47.0,49.0,132.0,2163.647
2163657.0,61.0,47.0,50.0,128.0,2163.657
2163667.0,61.0,47.0,43.0,135.0,2163.667
2163677.0,59.0,45.0,39.0,131.0,2163.677
2163687.0,58.0,45.0,34.0,135.0,2163.687
2163697.0,56.0,47.0,43.0,128.0,2163.697
2163707.0,56.0,46.0,49.0,126.0,2163.707
2163717.0,55.0,45.0,47.0,126.0,2163.717
2163727.0,55.0,46.0,46.0,125.0,2163.727
2163737.0,56.0,45.0,39.0,120.0,2163.737
2163747.0,54.0,45.0,38.0,120.0,2163.747
2163757.0,54.0,43.0,34.0,116.0,2163.757
2163767.0,54.0,44.0,30.0,127.0,2163.767
2163777.0,52.0,48.0,34.0,120.0,2163.777
2163787.0,54.0,49.0,44.0,119.0,2163.787
2163798.0,53.0,49.0,47.0,108.0,2163.798
2163808.0,54.0,49.0,41.0,113.0,2163.808
2163818.0,54.0,47.0,35.0,106.0,2163.818
2163828.0,53.0,45.0,33.0,96.0,2163.828
2163838.0,53.0,48.0,38.0,96.0,2163.838
2163848.0,53.0,48.0,36.0,97.0,2163.848
2163858.0,52.0,48.0,39.0,93.0,2163.858
2163868.0,52.0,50.0,46.0,108.0,2163.868
2163878.0,52.0,49.0,43.0,106.0,2163.878
2163888.0,53.0,49.0,53.0,107.0,2163.888
2163898.0,52.0,47.0,61.0,107.0,2163.898
2163908.0,52.0,50.0,61.0,109.0,2163.908
2163918.0,53.0,50.0,61.0,116.0,2163.918
2163928.0,55.0,50.0,63.0,125.0,2163.928
2163938.0,56.0,48.0,57.0,116.0,2163.938
2163948.0,55.0,48.0,51.0,110.0,2163.948
2163958.0,53.0,49.0,46.0,107.0,2163.958
2163968.0,53.0,49.0,45.0,105.0,2163.968
2163978.0,53.0,49.0,41.0,117.0,2163.978
2163988.0,53.0,52.0,48.0,112.0,2163.988
2163998.0,54.0,51.0,45.0,111.0,2163.998
2164008.0,53.0,49.0,45.0,110.0,2164.008
2164018.0,53.0,50.0,47.0,105.0,2164.018
2164028.0,53.0,51.0,46.0,122.0,2164.028
2164038.0,52.0,51.0,43.0,125.0,2164.038
2164048.0,53.0,51.0,51.0,133.0,2164.048
2164058.0,55.0,51.0,45.0,124.0,2164.058
2164068.0,52.0,53.0,56.0,118.0,2164.068
2164078.0,53.0,53.0,51.0,113.0,2164.078
2164088.0,53.0,55.0,46.0,109.0,2164.088
2164098.0,54.0,56.0,42.0,102.0,2164.098
2164108.0,52.0,58.0,44.0,107.0,2164.108
2164118.0,53.0,58.0,51.0,109.0,2164.118
2164128.0,53.0,59.0,50.0,104.0,2164.128
2164139.0,53.0,59.0,65.0,110.0,2164.139
2164149.0,54.0,58.0,59.0,112.0,2164.149
2164159.0,53.0,57.0,58.0,109.0,2164.159
2164169.0,54.0,56.0,52.0,112.0,2164.169
2164179.0,55.0,56.0,48.0,104.0,2164.179
2164189.0,54.0,58.0,55.0,103.0,2164.189
2164199.0,56.0,60.0,60.0,103.0,2164.199
2164209.0,56.0,60.0,51.0,101.0,2164.209
2164219.0,57.0,58.0,52.0,101.0,2164.219
2164229.0,55.0,60.0,53.0,102.0,2164.229
2164239.0,56.0,59.0,50.0,103.0,2164.239
2164249.0,56.0,59.0,45.0,97.0,2164.249
2164259.0,55.0,61.0,51.0,97.0,2164.259
2164269.0,56.0,60.0,52.0,92.0,2164.269
2164279.0,57.0,59.0,46.0,95.0,2164.279
2164289.0,57.0,58.0,44.0,114.0,2164.289
2164299.0,58.0,58.0,41.0,114.0,2164.299
2164310.0,57.0,57.0,39.0,114.0,2164.31
2164320.0,59.0,54.0,37.0,106.0,2164.32
2164330.0,57.0,52.0,32.0,102.0,2164.33
2164340.0,57.0,51.0,32.0,99.0,2164.34
2164350.0,57.0,52.0,40.0,102.0,2164.35
2164360.0,56.0,51.0,36.0,101.0,2164.36
2164370.0,56.0,50.0,33.0,100.0,2164.37
2164380.0,56.0,51.0,30.0,99.0,2164.38
2164390.0,55.0,52.0,33.0,102.0,2164.39
2164400.0,56.0,50.0,32.0,113.0,2164.4
2164410.0,56.0,52.0,36.0,112.0,2164.41
2164420.0,59.0,51.0,31.0,108.0,2164.42
2164430.0,57.0,50.0,27.0,104.0,2164.43
2164440.0,55.0,50.0,27.0,101.0,2164.44
2164450.0,56.0,50.0,26.0,104.0,2164.45
2164460.0,55.0,49.0,25.0,107.0,2164.46
2164470.0,56.0,48.0,32.0,105.0,2164.47
2164480.0,55.0,49.0,32.0,106.0,2164.48
2164490.0,55.0,49.0,39.0,107.0,2164.49
2164500.0,55.0,49.0,38.0,102.0,2164.5
2164510.0,53.0,49.0,36.0,100.0,2164.51
2164520.0,55.0,50.0,33.0,97.0,2164.52
2164530.0,55.0,50.0,36.0,117.0,2164.53
2164540.0,55.0,50.0,36.0,112.0,2164.54
2164550.0,54.0,52.0,31.0,111.0,2164.55
2164560.0,53.0,54.0,31.0,105.0,2164.56
2164570.0,52.0,56.0,43.0,112.0,2164.57
2164580.0,51.0,56.0,41.0,115.0,2164.58
2164590.0,53.0,55.0,41.0,118.0,2164.59
2164600.0,53.0,57.0,41.0,113.0,2164.6
2164610.0,54.0,55.0,38.0,109.0,2164.61
2164620.0,53.0,57.0,41.0,108.0,2164.62
2164630.0,54.0,55.0,37.0,99.0,2164.63
2164640.0,54.0,56.0,40.0,110.0,2164.64
2164651.0,54.0,55.0,35.0,108.0,2164.651
2164661.0,55.0,54.0,32.0,108.0,2164.661
2164671.0,55.0,59.0,31.0,101.0,2164.671
2164681.0,53.0,58.0,30.0,99.0,2164.681
2164691.0,52.0,57.0,28.0,92.0,2164.691
2164701.0,52.0,59.0,32.0,109.0,2164.701
2164711.0,53.0,61.0,35.0,110.0,2164.711
2164721.0,53.0,59.0,35.0,109.0,2164.721
2164731.0,54.0,58.0,31.0,103.0,2164.731
2164741.0,52.0,60.0,37.0,106.0,2164.741
2164751.0,53.0,59.0,38.0,100.0,2164.751
2164761.0,52.0,59.0,32.0,97.0,2164.761
2164771.0,52.0,63.0,38.0,102.0,2164.771
2164781.0,53.0,62.0,46.0,104.0,2164.781
2164791.0,52.0,61.0,45.0,106.0,2164.791
2164801.0,51.0,60.0,43.0,111.0,2164.801
2164811.0,50.0,60.0,39.0,109.0,2164.811
2164822.0,47.0,61.0,36.0,113.0,2164.822
2164832.0,49.0,61.0,33.0,113.0,2164.832
2164842.0,48.0,63.0,47.0,110.0,2164.842
2164852.0,50.0,62.0,50.0,105.0,2164.852
2164862.0,50.0,62.0,53.0,109.0,2164.862
2164872.0,51.0,61.0,50.0,106.0,2164.872
2164882.0,51.0,60.0,45.0,100.0,2164.882
2164892.0,50.0,60.0,49.0,110.0,2164.892
2164902.0,53.0,59.0,47.0,106.0,2164.902
2164912.0,50.0,59.0,42.0,104.0,2164.912
2164922.0,50.0,60.0,48.0,103.0,2164.922
2164932.0,51.0,61.0,60.0,104.0,2164.932
2164942.0,51.0,62.0,57.0,104.0,2164.942
2164952.0,51.0,60.0,51.0,108.0,2164.952
2164962.0,51.0,61.0,52.0,116.0,2164.962
2164972.0,51.0,59.0,49.0,118.0,2164.972
2164982.0,52.0,59.0,48.0,113.0,2164.982
2164992.0,50.0,61.0,44.0,109.0,2164.992
2165002.0,53.0,59.0,50.0,117.0,2165.002
2165012.0,52.0,59.0,49.0,116.0,2165.012
2165022.0,52.0,57.0,44.0,111.0,2165.022
2165032.0,51.0,59.0,50.0,111.0,2165.032
2165042.0,52.0,58.0,45.0,107.0,2165.042
2165052.0,54.0,59.0,46.0,101.0,2165.052
2165062.0,52.0,59.0,54.0,105.0,2165.062
2165072.0,51.0,57.0,48.0,97.0,2165.072
2165082.0,50.0,58.0,43.0,101.0,2165.082
2165092.0,50.0,59.0,40.0,97.0,2165.092
2165102.0,49.0,57.0,36.0,97.0,2165.102
2165112.0,49.0,58.0,37.0,100.0,2165.112
2165122.0,52.0,57.0,41.0,104.0,2165.122
2165132.0,50.0,57.0,40.0,101.0,2165.132
2165142.0,50.0,56.0,37.0,114.0,2165.142
2165152.0,49.0,59.0,40.0,111.0,2165.152
2165163.0,49.0,58.0,40.0,108.0,2165.163
2165173.0,49.0,58.0,43.0,103.0,2165.173
2165183.0,52.0,56.0,41.0,100.0,2165.183
2165193.0,52.0,58.0,54.0,110.0,2165.193
2165203.0,51.0,57.0,57.0,116.0,2165.203
2165213.0,52.0,55.0,54.0,115.0,2165.213
2165223.0,50.0,53.0,52.0,115.0,2165.223
2165233.0,51.0,54.0,47.0,108.0,2165.233
2165243.0,51.0,54.0,42.0,102.0,2165.243
2165253.0,51.0,54.0,40.0,112.0,2165.253
2165263.0,51.0,55.0,44.0,115.0,2165.263
2165273.0,52.0,54.0,38.0,113.0,2165.273
2165283.0,48.0,55.0,36.0,137.0,2165.283
2165293.0,49.0,53.0,44.0,138.0,2165.293
2165303.0,49.0,53.0,38.0,131.0,2165.303
2165313.0,49.0,53.0,35.0,126.0,2165.313
2165323.0,48.0,52.0,35.0,136.0,2165.323
2165334.0,49.0,53.0,41.0,135.0,2165.334
2165344.0,50.0,51.0,41.0,123.0,2165.344
2165354.0,48.0,51.0,38.0,123.0,2165.354
2165364.0,48.0,51.0,46.0,120.0,2165.364
2165374.0,48.0,53.0,43.0,116.0,2165.374
2165384.0,48.0,53.0,47.0,114.0,2165.384
2165394.0,50.0,54.0,58.0,119.0,2165.394
2165404.0,50.0,56.0,59.0,118.0,2165.404
2165414.0,51.0,58.0,53.0,109.0,2165.414
2165424.0,51.0,60.0,47.0,106.0,2165.424
2165434.0,52.0,63.0,54.0,102.0,2165.434
2165444.0,52.0,64.0,49.0,100.0,2165.444
2165454.0,52.0,66.0,49.0,106.0,2165.454
2165464.0,52.0,66.0,47.0,101.0,2165.464
2165474.0,53.0,67.0,49.0,106.0,2165.474
2165484.0,53.0,66.0,49.0,116.0,2165.484
2165494.0,53.0,67.0,54.0,110.0,2165.494
2165504.0,50.0,68.0,48.0,103.0,2165.504
2165514.0,51.0,68.0,46.0,97.0,2165.514
2165524.0,52.0,70.0,50.0,101.0,2165.524
2165534.0,52.0,68.0,45.0,116.0,2165.534
2165544.0,51.0,69.0,41.0,115.0,2165.544
2165554.0,50.0,70.0,37.0,110.0,2165.554
2165564.0,52.0,72.0,33.0,113.0,2165.564
2165574.0,50.0,72.0,34.0,114.0,2165.574
2165584.0,50.0,70.0,31.0,105.0,2165.584
2165594.0,50.0,69.0,29.0,117.0,2165.594
2165604.0,49.0,68.0,39.0,115.0,2165.604
2165614.0,50.0,63.0,39.0,110.0,2165.614
2165624.0,49.0,61.0,33.0,106.0,2165.624
2165634.0,51.0,60.0,31.0,107.0,2165.634
2165644.0,51.0,60.0,46.0,104.0,2165.644
2165654.0,50.0,58.0,40.0,105.0,2165.654
2165664.0,49.0,57.0,38.0,106.0,2165.664
2165675.0,49.0,57.0,43.0,99.0,2165.675
2165685.0,49.0,56.0,42.0,111.0,2165.685
2165695.0,49.0,55.0,37.0,113.0,2165.695
2165705.0,48.0,52.0,38.0,122.0,2165.705
2165715.0,47.0,51.0,35.0,115.0,2165.715
2165725.0,48.0,53.0,34.0,115.0,2165.725
2165735.0,48.0,52.0,43.0,117.0,2165.735
2165745.0,49.0,52.0,38.0,118.0,2165.745
2165755.0,47.0,52.0,34.0,110.0,2165.755
2165765.0,48.0,50.0,31.0,104.0,2165.765
2165775.0,47.0,52.0,29.0,106.0,2165.775
2165785.0,49.0,51.0,27.0,103.0,2165.785
2165795.0,48.0,53.0,28.0,96.0,2165.795
2165805.0,47.0,51.0,28.0,91.0,2165.805
2165815.0,48.0,55.0,40.0,89.0,2165.815
2165825.0,48.0,54.0,38.0,92.0,2165.825
2165835.0,48.0,54.0,44.0,102.0,2165.835
2165846.0,47.0,53.0,43.0,96.0,2165.846
2165856.0,48.0,53.0,44.0,102.0,2165.856
2165866.0,48.0,51.0,42.0,101.0,2165.866
2165876.0,48.0,50.0,37.0,99.0,2165.876
2165886.0,48.0,50.0,42.0,96.0,2165.886
2165896.0,47.0,51.0,42.0,98.0,2165.896
2165906.0,48.0,50.0,42.0,98.0,2165.906
2165916.0,49.0,49.0,38.0,104.0,2165.916
2165926.0,49.0,49.0,37.0,98.0,2165.926
2165936.0,48.0,49.0,36.0,98.0,2165.936
2165946.0,50.0,51.0,42.0,100.0,2165.946
2165956.0,49.0,49.0,37.0,99.0,2165.956
2165966.0,48.0,52.0,40.0,103.0,2165.966
2165976.0,48.0,49.0,38.0,102.0,2165.976
2165986.0,48.0,48.0,36.0,98.0,2165.986
2165996.0,49.0,47.0,34.0,94.0,2165.996
2166006.0,48.0,48.0,32.0,90.0,2166.006
2166016.0,49.0,50.0,35.0,89.0,2166.016
2166026.0,51.0,49.0,42.0,91.0,2166.026
2166036.0,51.0,50.0,37.0,102.0,2166.036
2166046.0,50.0,48.0,34.0,108.0,2166.046
2166056.0,51.0,46.0,31.0,105.0,2166.056
2166066.0,51.0,44.0,28.0,101.0,2166.066
2166076.0,50.0,43.0,29.0,98.0,2166.076
2166086.0,48.0,44.0,36.0,92.0,2166.086
2166096.0,48.0,43.0,35.0,93.0,2166.096
2166106.0,47.0,44.0,36.0,108.0,2166.106
2166116.0,47.0,43.0,34.0,105.0,2166.116
2166126.0,48.0,40.0,34.0,98.0,2166.126
2166136.0,47.0,41.0,30.0,97.0,2166.136
2166146.0,47.0,41.0,31.0,99.0,2166.146
2166156.0,45.0,41.0,25.0,92.0,2166.156
2166166.0,46.0,43.0,39.0,95.0,2166.166
2166176.0,46.0,41.0,34.0,98.0,2166.176
2166187.0,46.0,42.0,30.0,101.0,2166.187
2166197.0,45.0,41.0,30.0,99.0,2166.197
2166207.0,45.0,41.0,32.0,98.0,2166.207
2166217.0,45.0,40.0,32.0,107.0,2166.217
2166227.0,45.0,42.0,36.0,116.0,2166.227
2166237.0,44.0,43.0,38.0,128.0,2166.237
2166247.0,45.0,42.0,35.0,127.0,2166.247
2166257.0,45.0,44.0,32.0,123.0,2166.257
2166267.0,45.0,41.0,30.0,114.0,2166.267
2166277.0,47.0,43.0,32.0,127.0,2166.277
2166287.0,47.0,44.0,32.0,129.0,2166.287
2166297.0,48.0,43.0,29.0,128.0,2166.297
2166307.0,46.0,42.0,34.0,126.0,2166.307
2166317.0,47.0,41.0,32.0,119.0,2166.317
2166327.0,48.0,44.0,41.0,119.0,2166.327
2166337.0,47.0,42.0,37.0,114.0,2166.337
2166347.0,50.0,44.0,43.0,135.0,2166.347
2166358.0,49.0,44.0,37.0,136.0,2166.358
2166368.0,50.0,42.0,33.0,132.0,2166.368
2166378.0,48.0,44.0,28.0,132.0,2166.378
2166388.0,48.0,43.0,29.0,125.0,2166.388
2166398.0,46.0,43.0,25.0,117.0,2166.398
2166408.0,47.0,45.0,34.0,122.0,2166.408
2166418.0,48.0,42.0,31.0,119.0,2166.418
2166428.0,48.0,43.0,39.0,128.0,2166.428
2166438.0,47.0,43.0,37.0,123.0,2166.438
2166448.0,48.0,42.0,36.0,117.0,2166.448
2166458.0,46.0,43.0,32.0,111.0,2166.458
2166468.0,47.0,42.0,29.0,115.0,2166.468
2166478.0,47.0,46.0,37.0,114.0,2166.478
2166488.0,47.0,44.0,33.0,108.0,2166.488
2166498.0,47.0,44.0,33.0,119.0,2166.498
2166508.0,47.0,44.0,31.0,125.0,2166.508
2166518.0,48.0,45.0,34.0,119.0,2166.518
2166528.0,46.0,44.0,30.0,125.0,2166.528
2166538.0,47.0,44.0,27.0,122.0,2166.538
2166548.0,48.0,44.0,25.0,127.0,2166.548
2166558.0,48.0,44.0,31.0,116.0,2166.558
2166568.0,48.0,43.0,28.0,109.0,2166.568
2166578.0,48.0,45.0,41.0,116.0,2166.578
2166588.0,49.0,43.0,38.0,111.0,2166.588
2166598.0,48.0,43.0,34.0,106.0,2166.598
2166608.0,48.0,42.0,30.0,105.0,2166.608
2166618.0,49.0,44.0,33.0,103.0,2166.618
2166628.0,48.0,44.0,29.0,97.0,2166.628
2166638.0,49.0,44.0,32.0,92.0,2166.638
2166648.0,49.0,45.0,34.0,89.0,2166.648
2166658.0,49.0,45.0,34.0,87.0,2166.658
2166668.0,48.0,43.0,30.0,90.0,2166.668
2166678.0,46.0,43.0,26.0,86.0,2166.678
2166688.0,47.0,43.0,23.0,87.0,2166.688
2166699.0,47.0,42.0,20.0,96.0,2166.699
2166709.0,47.0,42.0,20.0,96.0,2166.709
2166719.0,47.0,43.0,19.0,92.0,2166.719
2166729.0,47.0,44.0,32.0,87.0,2166.729
2166739.0,50.0,46.0,40.0,90.0,2166.739
2166749.0,50.0,45.0,36.0,87.0,2166.749
2166759.0,49.0,44.0,33.0,79.0,2166.759
2166769.0,49.0,43.0,29.0,83.0,2166.769
2166779.0,49.0,43.0,26.0,84.0,2166.779
2166789.0,49.0,44.0,26.0,82.0,2166.789
2166799.0,49.0,43.0,23.0,84.0,2166.799
2166809.0,51.0,43.0,21.0,80.0,2166.809
2166819.0,50.0,42.0,20.0,78.0,2166.819
2166829.0,50.0,44.0,29.0,73.0,2166.829
2166839.0,50.0,43.0,26.0,68.0,2166.839
2166849.0,48.0,41.0,22.0,67.0,2166.849
2166859.0,48.0,42.0,20.0,63.0,2166.859
2166870.0,48.0,42.0,18.0,61.0,2166.87
2166880.0,47.0,41.0,17.0,63.0,2166.88
2166890.0,48.0,41.0,16.0,73.0,2166.89
2166900.0,48.0,41.0,15.0,71.0,2166.9
2166910.0,48.0,41.0,18.0,75.0,2166.91
2166920.0,48.0,41.0,15.0,71.0,2166.92
2166930.0,47.0,39.0,14.0,65.0,2166.93
2166940.0,47.0,38.0,13.0,60.0,2166.94
2166950.0,48.0,38.0,11.0,60.0,2166.95
2166960.0,48.0,37.0,11.0,63.0,2166.96
2166970.0,48.0,36.0,9.0,74.0,2166.97
2166980.0,48.0,36.0,8.0,72.0,2166.98
2166990.0,47.0,39.0,9.0,69.0,2166.99
2167000.0,48.0,38.0,9.0,67.0,2167.0
2167010.0,48.0,38.0,8.0,65.0,2167.01
2167020.0,49.0,37.0,7.0,67.0,2167.02
2167030.0,50.0,38.0,12.0,65.0,2167.03
2167040.0,50.0,38.0,10.0,65.0,2167.04
2167050.0,52.0,37.0,10.0,63.0,2167.05
2167060.0,54.0,38.0,10.0,63.0,2167.06
2167070.0,54.0,37.0,9.0,62.0,2167.07
2167080.0,57.0,36.0,8.0,60.0,2167.08
2167090.0,56.0,38.0,7.0,71.0,2167.09
2167100.0,58.0,37.0,8.0,69.0,2167.1
2167110.0,58.0,38.0,10.0,70.0,2167.11
2167120.0,57.0,39.0,11.0,73.0,2167.12
2167130.0,59.0,40.0,19.0,70.0,2167.13
2167140.0,59.0,40.0,19.0,74.0,2167.14
2167150.0,61.0,39.0,18.0,75.0,2167.15
2167160.0,60.0,40.0,15.0,81.0,2167.16
2167170.0,61.0,39.0,15.0,86.0,2167.17
2167180.0,61.0,39.0,13.0,80.0,2167.18
2167190.0,62.0,39.0,15.0,81.0,2167.19
2167200.0,61.0,41.0,20.0,92.0,2167.2
2167211.0,59.0,43.0,18.0,95.0,2167.211
2167221.0,59.0,42.0,17.0,100.0,2167.221
2167231.0,60.0,44.0,25.0,103.0,2167.231
2167241.0,60.0,45.0,23.0,101.0,2167.241
2167251.0,61.0,45.0,21.0,93.0,2167.251
2167261.0,60.0,45.0,18.0,88.0,2167.261
2167271.0,61.0,45.0,15.0,83.0,2167.271
2167281.0,61.0,45.0,14.0,79.0,2167.281
2167291.0,60.0,45.0,15.0,79.0,2167.291
2167301.0,59.0,44.0,15.0,79.0,2167.301
2167311.0,58.0,44.0,15.0,81.0,2167.311
2167321.0,61.0,44.0,14.0,86.0,2167.321
2167331.0,61.0,45.0,24.0,102.0,2167.331
2167341.0,63.0,44.0,22.0,99.0,2167.341
2167351.0,64.0,43.0,20.0,97.0,2167.351
2167361.0,64.0,44.0,18.0,90.0,2167.361
2167371.0,64.0,42.0,16.0,87.0,2167.371
2167382.0,64.0,43.0,15.0,89.0,2167.382
2167392.0,65.0,42.0,14.0,83.0,2167.392
2167402.0,64.0,41.0,12.0,77.0,2167.402
2167412.0,62.0,43.0,13.0,78.0,2167.412
2167422.0,63.0,42.0,11.0,73.0,2167.422
2167432.0,61.0,43.0,11.0,76.0,2167.432
2167442.0,62.0,41.0,11.0,79.0,2167.442
2167452.0,62.0,40.0,11.0,79.0,2167.452
2167462.0,62.0,40.0,9.0,74.0,2167.462
2167472.0,61.0,40.0,9.0,69.0,2167.472
2167482.0,58.0,40.0,8.0,65.0,2167.482
2167492.0,57.0,39.0,7.0,68.0,2167.492
2167502.0,57.0,41.0,11.0,75.0,2167.502
2167512.0,57.0,40.0,13.0,76.0,2167.512
2167522.0,55.0,40.0,13.0,74.0,2167.522
2167532.0,56.0,41.0,23.0,74.0,2167.532
2167542.0,56.0,40.0,21.0,71.0,2167.542
2167552.0,56.0,39.0,17.0,71.0,2167.552
2167562.0,55.0,41.0,17.0,69.0,2167.562
2167572.0,56.0,42.0,15.0,63.0,2167.572
2167582.0,57.0,43.0,13.0,62.0,2167.582
2167592.0,57.0,45.0,13.0,64.0,2167.592
2167602.0,58.0,45.0,11.0,66.0,2167.602
2167612.0,59.0,46.0,12.0,67.0,2167.612
2167622.0,57.0,47.0,11.0,71.0,2167.622
2167632.0,58.0,48.0,16.0,67.0,2167.632
2167642.0,60.0,47.0,17.0,66.0,2167.642
2167652.0,60.0,46.0,15.0,65.0,2167.652
2167662.0,60.0,46.0,13.0,64.0,2167.662
2167672.0,59.0,47.0,11.0,71.0,2167.672
2167682.0,61.0,45.0,12.0,70.0,2167.682
2167692.0,60.0,46.0,12.0,65.0,2167.692
2167702.0,61.0,45.0,11.0,61.0,2167.702
2167712.0,61.0,45.0,14.0,65.0,2167.712
2167723.0,62.0,43.0,12.0,64.0,2167.723
2167733.0,64.0,42.0,11.0,72.0,2167.733
2167743.0,63.0,45.0,19.0,76.0,2167.743
2167753.0,64.0,44.0,18.0,71.0,2167.753
2167763.0,65.0,43.0,16.0,70.0,2167.763
2167773.0,64.0,45.0,15.0,69.0,2167.773
2167783.0,65.0,44.0,15.0,65.0,2167.783
2167793.0,64.0,43.0,12.0,63.0,2167.793
2167803.0,64.0,43.0,11.0,70.0,2167.803
2167813.0,64.0,44.0,16.0,76.0,2167.813
2167823.0,64.0,46.0,14.0,77.0,2167.823
2167833.0,65.0,45.0,13.0,75.0,2167.833
2167843.0,62.0,48.0,17.0,80.0,2167.843
2167853.0,63.0,48.0,17.0,74.0,2167.853
2167863.0,64.0,47.0,15.0,75.0,2167.863
2167873.0,64.0,49.0,12.0,75.0,2167.873
2167883.0,66.0,50.0,12.0,76.0,2167.883
2167894.0,66.0,53.0,11.0,71.0,2167.894
2167904.0,68.0,53.0,13.0,70.0,2167.904
2167914.0,69.0,55.0,11.0,66.0,2167.914
2167924.0,69.0,56.0,10.0,61.0,2167.924
2167934.0,71.0,57.0,13.0,78.0,2167.934
2167944.0,70.0,57.0,12.0,74.0,2167.944
2167954.0,71.0,56.0,11.0,74.0,2167.954
2167964.0,70.0,58.0,18.0,70.0,2167.964
2167974.0,69.0,58.0,25.0,70.0,2167.974
2167984.0,71.0,57.0,24.0,75.0,2167.984
2167994.0,71.0,57.0,20.0,78.0,2167.994
2168004.0,72.0,55.0,18.0,80.0,2168.004
2168014.0,72.0,55.0,16.0,79.0,2168.014
2168024.0,71.0,54.0,15.0,73.0,2168.024
2168034.0,71.0,53.0,15.0,72.0,2168.034
2168044.0,69.0,53.0,17.0,70.0,2168.044
2168054.0,70.0,52.0,17.0,68.0,2168.054
2168064.0,71.0,51.0,15.0,71.0,2168.064
2168074.0,70.0,52.0,25.0,72.0,2168.074
2168084.0,72.0,52.0,22.0,68.0,2168.084
2168094.0,71.0,53.0,22.0,65.0,2168.094
2168104.0,70.0,52.0,20.0,61.0,2168.104
2168114.0,70.0,53.0,18.0,58.0,2168.114
2168124.0,68.0,53.0,16.0,53.0,2168.124
2168134.0,68.0,53.0,14.0,53.0,2168.134
2168144.0,68.0,54.0,13.0,52.0,2168.144
2168154.0,69.0,53.0,12.0,53.0,2168.154
2168164.0,70.0,54.0,10.0,52.0,2168.164
2168174.0,70.0,52.0,10.0,56.0,2168.174
2168184.0,71.0,54.0,26.0,79.0,2168.184
2168194.0,70.0,53.0,29.0,81.0,2168.194
2168204.0,70.0,52.0,30.0,80.0,2168.204
2168214.0,70.0,51.0,26.0,76.0,2168.214
2168224.0,72.0,50.0,24.0,78.0,2168.224
