time (ms),signal 0,signal 1,signal 2,signal3,time (sec)
2170278.0,58.0,44.0,11.0,85.0,2170.278
2170288.0,59.0,45.0,11.0,80.0,2170.288
2170298.0,59.0,43.0,10.0,75.0,2170.298
2170308.0,57.0,44.0,9.0,70.0,2170.308
2170318.0,58.0,44.0,19.0,73.0,2170.318
2170328.0,58.0,43.0,17.0,75.0,2170.328
2170338.0,60.0,45.0,20.0,75.0,2170.338
2170348.0,61.0,44.0,17.0,75.0,2170.348
2170358.0,63.0,45.0,16.0,75.0,2170.358
2170368.0,63.0,49.0,15.0,85.0,2170.368
2170378.0,62.0,47.0,15.0,86.0,2170.378
2170388.0,62.0,46.0,16.0,87.0,2170.388
2170398.0,64.0,47.0,16.0,93.0,2170.398
2170408.0,64.0,47.0,17.0,91.0,2170.408
2170418.0,66.0,47.0,15.0,85.0,2170.418
2170428.0,66.0,49.0,19.0,85.0,2170.428
2170438.0,67.0,46.0,18.0,96.0,2170.438
2170448.0,67.0,48.0,16.0,99.0,2170.448
2170458.0,66.0,48.0,16.0,102.0,2170.458
2170468.0,66.0,48.0,15.0,100.0,2170.468
2170478.0,65.0,49.0,13.0,96.0,2170.478
2170488.0,64.0,49.0,13.0,93.0,2170.488
2170498.0,65.0,49.0,11.0,89.0,2170.498
2170508.0,64.0,49.0,10.0,91.0,2170.508
2170518.0,63.0,49.0,21.0,89.0,2170.518
2170528.0,63.0,49.0,19.0,99.0,2170.528
2170539.0,63.0,48.0,20.0,99.0,2170.539
2170549.0,61.0,47.0,17.0,91.0,2170.549
2170559.0,60.0,47.0,16.0,85.0,2170.559
2170569.0,60.0,48.0,14.0,83.0,2170.569
2170579.0,58.0,48.0,14.0,77.0,2170.579
2170589.0,58.0,48.0,13.0,86.0,2170.589
2170599.0,59.0,50.0,13.0,91.0,2170.599
2170609.0,58.0,49.0,18.0,85.0,2170.609
2170619.0,57.0,49.0,26.0,88.0,2170.619
2170629.0,59.0,48.0,24.0,88.0,2170.629
2170639.0,59.0,47.0,20.0,84.0,2170.639
2170649.0,60.0,48.0,18.0,82.0,2170.649
2170659.0,60.0,46.0,16.0,80.0,2170.659
2170669.0,60.0,46.0,14.0,81.0,2170.669
2170679.0,60.0,46.0,14.0,78.0,2170.679
2170689.0,62.0,47.0,12.0,71.0,2170.689
2170699.0,60.0,48.0,12.0,69.0,2170.699
2170710.0,61.0,47.0,12.0,67.0,2170.71
2170720.0,60.0,48.0,13.0,77.0,2170.72
2170730.0,60.0,48.0,13.0,78.0,2170.73
2170740.0,60.0,47.0,21.0,84.0,2170.74
2170750.0,60.0,48.0,29.0,80.0,2170.75
2170760.0,62.0,47.0,25.0,80.0,2170.76
2170770.0,61.0,46.0,21.0,81.0,2170.77
2170780.0,62.0,44.0,20.0,77.0,2170.78
2170790.0,60.0,46.0,16.0,76.0,2170.79
2170800.0,59.0,45.0,18.0,73.0,2170.8
2170810.0,58.0,46.0,18.0,70.0,2170.81
2170820.0,57.0,47.0,15.0,69.0,2170.82
2170830.0,58.0,47.0,16.0,65.0,2170.83
2170840.0,58.0,47.0,16.0,94.0,2170.84
2170850.0,60.0,45.0,15.0,91.0,2170.85
2170860.0,59.0,45.0,13.0,89.0,2170.86
2170870.0,58.0,47.0,12.0,84.0,2170.87
2170880.0,58.0,47.0,13.0,85.0,2170.88
2170890.0,58.0,48.0,13.0,83.0,2170.89
2170900.0,58.0,48.0,13.0,79.0,2170.9
2170910.0,58.0,47.0,11.0,77.0,2170.91
2170920.0,58.0,48.0,10.0,76.0,2170.92
2170930.0,58.0,49.0,10.0,76.0,2170.93
2170940.0,59.0,53.0,23.0,79.0,2170.94
2170950.0,59.0,49.0,20.0,80.0,2170.95
2170960.0,57.0,50.0,17.0,80.0,2170.96
2170970.0,57.0,48.0,15.0,89.0,2170.97
2170980.0,58.0,47.0,15.0,94.0,2170.98
2170990.0,56.0,47.0,12.0,90.0,2170.99
2171000.0,56.0,45.0,13.0,85.0,2171.0
2171010.0,56.0,47.0,13.0,89.0,2171.01
2171020.0,56.0,46.0,13.0,94.0,2171.02
2171030.0,56.0,48.0,22.0,94.0,2171.03
2171040.0,57.0,48.0,25.0,95.0,2171.04
2171051.0,58.0,47.0,23.0,95.0,2171.051
2171061.0,56.0,46.0,19.0,94.0,2171.061
2171071.0,56.0,45.0,18.0,91.0,2171.071
2171081.0,57.0,45.0,16.0,93.0,2171.081
2171091.0,56.0,46.0,15.0,90.0,2171.091
2171101.0,56.0,44.0,14.0,89.0,2171.101
2171111.0,55.0,44.0,12.0,84.0,2171.111
2171121.0,56.0,46.0,12.0,84.0,2171.121
2171131.0,57.0,47.0,26.0,84.0,2171.131
2171141.0,57.0,46.0,23.0,83.0,2171.141
2171151.0,57.0,45.0,21.0,88.0,2171.151
2171161.0,56.0,44.0,18.0,88.0,2171.161
2171171.0,57.0,43.0,17.0,84.0,2171.171
2171181.0,57.0,43.0,16.0,84.0,2171.181
2171191.0,58.0,43.0,15.0,78.0,2171.191
2171201.0,59.0,41.0,13.0,82.0,2171.201
2171211.0,58.0,42.0,12.0,79.0,2171.211
2171222.0,59.0,41.0,15.0,74.0,2171.222
2171232.0,59.0,41.0,14.0,70.0,2171.232
2171242.0,59.0,39.0,14.0,80.0,2171.242
2171252.0,61.0,39.0,12.0,80.0,2171.252
2171262.0,60.0,41.0,16.0,78.0,2171.262
2171272.0,61.0,41.0,16.0,87.0,2171.272
2171282.0,62.0,40.0,14.0,85.0,2171.282
2171292.0,62.0,40.0,14.0,81.0,2171.292
2171302.0,62.0,40.0,13.0,77.0,2171.302
2171312.0,62.0,40.0,11.0,88.0,2171.312
2171322.0,61.0,41.0,10.0,86.0,2171.322
2171332.0,60.0,42.0,9.0,83.0,2171.332
2171342.0,61.0,42.0,10.0,76.0,2171.342
2171352.0,60.0,42.0,7.0,74.0,2171.352
2171362.0,59.0,43.0,10.0,73.0,2171.362
2171372.0,60.0,43.0,10.0,82.0,2171.372
2171382.0,61.0,44.0,9.0,96.0,2171.382
2171392.0,60.0,44.0,8.0,89.0,2171.392
2171402.0,61.0,43.0,7.0,88.0,2171.402
2171412.0,62.0,44.0,8.0,79.0,2171.412
2171422.0,61.0,43.0,6.0,76.0,2171.422
2171432.0,59.0,45.0,6.0,80.0,2171.432
2171442.0,61.0,45.0,9.0,82.0,2171.442
2171452.0,58.0,47.0,8.0,79.0,2171.452
2171462.0,59.0,46.0,8.0,74.0,2171.462
2171472.0,56.0,45.0,8.0,88.0,2171.472
2171482.0,56.0,44.0,8.0,86.0,2171.482
2171492.0,57.0,43.0,8.0,88.0,2171.492
2171502.0,56.0,44.0,6.0,84.0,2171.502
2171512.0,57.0,44.0,7.0,81.0,2171.512
2171522.0,57.0,44.0,6.0,78.0,2171.522
2171532.0,59.0,44.0,6.0,78.0,2171.532
2171542.0,57.0,44.0,9.0,78.0,2171.542
2171552.0,57.0,44.0,13.0,90.0,2171.552
2171563.0,59.0,42.0,12.0,84.0,2171.563
2171573.0,59.0,43.0,18.0,81.0,2171.573
2171583.0,60.0,41.0,17.0,77.0,2171.583
2171593.0,59.0,43.0,16.0,72.0,2171.593
2171603.0,58.0,42.0,14.0,78.0,2171.603
2171613.0,59.0,41.0,13.0,89.0,2171.613
2171623.0,58.0,42.0,17.0,89.0,2171.623
2171633.0,58.0,41.0,18.0,88.0,2171.633
2171643.0,57.0,42.0,18.0,88.0,2171.643
2171653.0,55.0,43.0,17.0,86.0,2171.653
2171663.0,56.0,44.0,18.0,85.0,2171.663
2171673.0,55.0,44.0,16.0,83.0,2171.673
2171683.0,58.0,44.0,14.0,80.0,2171.683
2171693.0,57.0,44.0,13.0,80.0,2171.693
2171703.0,57.0,45.0,13.0,77.0,2171.703
2171713.0,57.0,45.0,12.0,71.0,2171.713
2171723.0,57.0,45.0,10.0,86.0,2171.723
2171734.0,57.0,45.0,15.0,95.0,2171.734
2171744.0,56.0,44.0,12.0,87.0,2171.744
2171754.0,56.0,43.0,11.0,83.0,2171.754
2171764.0,56.0,45.0,11.0,82.0,2171.764
2171774.0,53.0,44.0,11.0,80.0,2171.774
2171784.0,55.0,46.0,11.0,83.0,2171.784
2171794.0,52.0,48.0,8.0,78.0,2171.794
2171804.0,52.0,49.0,9.0,72.0,2171.804
2171814.0,53.0,49.0,8.0,71.0,2171.814
2171824.0,52.0,51.0,7.0,67.0,2171.824
2171834.0,52.0,52.0,7.0,64.0,2171.834
2171844.0,52.0,53.0,7.0,66.0,2171.844
2171854.0,52.0,55.0,7.0,65.0,2171.854
2171864.0,52.0,55.0,7.0,66.0,2171.864
2171874.0,52.0,55.0,6.0,64.0,2171.874
2171884.0,52.0,53.0,6.0,65.0,2171.884
2171894.0,52.0,54.0,6.0,63.0,2171.894
2171904.0,50.0,53.0,6.0,67.0,2171.904
2171914.0,52.0,53.0,6.0,71.0,2171.914
2171924.0,53.0,53.0,7.0,78.0,2171.924
2171934.0,54.0,53.0,6.0,73.0,2171.934
2171944.0,51.0,54.0,6.0,69.0,2171.944
2171954.0,51.0,54.0,6.0,65.0,2171.954
2171964.0,51.0,56.0,7.0,65.0,2171.964
2171974.0,49.0,54.0,6.0,64.0,2171.974
2171984.0,49.0,55.0,9.0,78.0,2171.984
2171994.0,48.0,55.0,9.0,81.0,2171.994
2172004.0,49.0,56.0,10.0,84.0,2172.004
2172014.0,48.0,58.0,8.0,83.0,2172.014
2172024.0,48.0,58.0,8.0,78.0,2172.024
2172034.0,48.0,59.0,7.0,74.0,2172.034
2172044.0,48.0,60.0,7.0,68.0,2172.044
2172054.0,47.0,61.0,6.0,64.0,2172.054
2172064.0,46.0,62.0,5.0,59.0,2172.064
2172075.0,45.0,63.0,7.0,58.0,2172.075
2172085.0,45.0,64.0,8.0,60.0,2172.085
2172095.0,46.0,65.0,9.0,68.0,2172.095
2172105.0,46.0,66.0,8.0,67.0,2172.105
2172115.0,48.0,66.0,7.0,69.0,2172.115
2172125.0,49.0,65.0,7.0,73.0,2172.125
2172135.0,49.0,65.0,7.0,68.0,2172.135
2172145.0,51.0,65.0,10.0,89.0,2172.145
2172155.0,50.0,63.0,9.0,87.0,2172.155
2172165.0,51.0,63.0,9.0,86.0,2172.165
2172175.0,52.0,62.0,9.0,80.0,2172.175
2172185.0,53.0,62.0,8.0,80.0,2172.185
2172195.0,54.0,62.0,9.0,80.0,2172.195
2172205.0,55.0,62.0,8.0,78.0,2172.205
2172215.0,56.0,62.0,9.0,80.0,2172.215
2172225.0,57.0,61.0,8.0,75.0,2172.225
2172235.0,54.0,62.0,6.0,75.0,2172.235
2172246.0,56.0,61.0,11.0,84.0,2172.246
2172256.0,55.0,63.0,19.0,86.0,2172.256
2172266.0,55.0,60.0,17.0,88.0,2172.266
2172276.0,54.0,60.0,15.0,85.0,2172.276
2172286.0,55.0,59.0,14.0,83.0,2172.286
2172296.0,54.0,59.0,12.0,76.0,2172.296
2172306.0,54.0,58.0,11.0,79.0,2172.306
2172316.0,55.0,57.0,13.0,79.0,2172.316
2172326.0,55.0,57.0,11.0,78.0,2172.326
2172336.0,54.0,56.0,11.0,79.0,2172.336
2172346.0,53.0,55.0,11.0,76.0,2172.346
2172356.0,52.0,54.0,12.0,83.0,2172.356
2172366.0,53.0,53.0,11.0,83.0,2172.366
2172376.0,52.0,52.0,10.0,76.0,2172.376
2172386.0,53.0,51.0,9.0,74.0,2172.386
2172396.0,52.0,53.0,8.0,72.0,2172.396
2172406.0,54.0,53.0,8.0,69.0,2172.406
2172416.0,55.0,52.0,8.0,77.0,2172.416
2172426.0,55.0,53.0,9.0,81.0,2172.426
2172436.0,53.0,53.0,10.0,76.0,2172.436
2172446.0,54.0,54.0,9.0,71.0,2172.446
2172456.0,54.0,54.0,8.0,65.0,2172.456
2172466.0,55.0,54.0,8.0,60.0,2172.466
2172476.0,54.0,56.0,8.0,63.0,2172.476
2172486.0,54.0,54.0,7.0,58.0,2172.486
2172496.0,52.0,54.0,7.0,63.0,2172.496
2172506.0,51.0,54.0,8.0,67.0,2172.506
2172516.0,51.0,53.0,9.0,70.0,2172.516
2172526.0,50.0,53.0,9.0,68.0,2172.526
2172536.0,51.0,52.0,10.0,72.0,2172.536
2172546.0,51.0,52.0,9.0,73.0,2172.546
2172556.0,53.0,50.0,8.0,73.0,2172.556
2172566.0,54.0,50.0,8.0,68.0,2172.566
2172576.0,55.0,49.0,8.0,65.0,2172.576
2172587.0,55.0,50.0,9.0,66.0,2172.587
2172597.0,54.0,50.0,15.0,68.0,2172.597
2172607.0,55.0,49.0,15.0,76.0,2172.607
2172617.0,57.0,47.0,15.0,79.0,2172.617
2172627.0,56.0,47.0,12.0,81.0,2172.627
2172637.0,58.0,45.0,12.0,79.0,2172.637
2172647.0,59.0,44.0,10.0,73.0,2172.647
2172657.0,59.0,44.0,10.0,68.0,2172.657
2172667.0,58.0,43.0,10.0,65.0,2172.667
2172677.0,58.0,43.0,7.0,68.0,2172.677
2172687.0,57.0,43.0,12.0,69.0,2172.687
2172697.0,57.0,42.0,12.0,74.0,2172.697
2172707.0,57.0,41.0,10.0,74.0,2172.707
2172717.0,57.0,41.0,9.0,73.0,2172.717
2172727.0,56.0,41.0,9.0,71.0,2172.727
2172737.0,56.0,40.0,9.0,67.0,2172.737
2172747.0,54.0,40.0,7.0,67.0,2172.747
2172758.0,54.0,40.0,7.0,72.0,2172.758
2172768.0,53.0,41.0,7.0,73.0,2172.768
2172778.0,51.0,40.0,7.0,66.0,2172.778
2172788.0,51.0,39.0,6.0,67.0,2172.788
2172798.0,49.0,41.0,6.0,68.0,2172.798
2172808.0,48.0,41.0,10.0,70.0,2172.808
2172818.0,48.0,40.0,8.0,65.0,2172.818
2172828.0,48.0,41.0,8.0,73.0,2172.828
2172838.0,49.0,42.0,7.0,72.0,2172.838
2172848.0,48.0,41.0,6.0,67.0,2172.848
2172858.0,47.0,42.0,6.0,70.0,2172.858
2172868.0,45.0,41.0,5.0,71.0,2172.868
2172878.0,46.0,42.0,7.0,71.0,2172.878
2172888.0,46.0,42.0,5.0,67.0,2172.888
2172898.0,52.0,46.0,5.0,72.0,2172.898
2172908.0,68.0,47.0,7.0,67.0,2172.908
2172918.0,67.0,48.0,7.0,64.0,2172.918
2172928.0,79.0,50.0,6.0,68.0,2172.928
2172938.0,90.0,50.0,6.0,67.0,2172.938
2172948.0,89.0,49.0,6.0,65.0,2172.948
2172958.0,89.0,50.0,6.0,65.0,2172.958
2172968.0,98.0,52.0,6.0,67.0,2172.968
2172978.0,106.0,53.0,8.0,63.0,2172.978
2172988.0,152.0,65.0,11.0,75.0,2172.988
2172998.0,153.0,64.0,13.0,70.0,2172.998
2173008.0,156.0,67.0,13.0,70.0,2173.008
2173018.0,171.0,72.0,12.0,80.0,2173.018
2173028.0,179.0,76.0,11.0,88.0,2173.028
2173038.0,244.0,85.0,10.0,87.0,2173.038
2173048.0,233.0,83.0,10.0,84.0,2173.048
2173058.0,264.0,96.0,12.0,88.0,2173.058
2173068.0,256.0,100.0,11.0,104.0,2173.068
2173078.0,243.0,102.0,12.0,102.0,2173.078
2173088.0,217.0,97.0,14.0,101.0,2173.088
2173099.0,203.0,112.0,17.0,127.0,2173.099
2173109.0,187.0,128.0,29.0,142.0,2173.109
2173119.0,175.0,127.0,45.0,159.0,2173.119
2173129.0,167.0,127.0,51.0,206.0,2173.129
2173139.0,174.0,138.0,58.0,207.0,2173.139
2173149.0,167.0,143.0,75.0,204.0,2173.149
2173159.0,153.0,143.0,68.0,232.0,2173.159
2173169.0,151.0,136.0,85.0,238.0,2173.169
2173179.0,148.0,136.0,96.0,259.0,2173.179
2173189.0,150.0,132.0,102.0,295.0,2173.189
2173199.0,144.0,138.0,105.0,302.0,2173.199
2173209.0,153.0,136.0,116.0,347.0,2173.209
2173219.0,148.0,134.0,143.0,353.0,2173.219
2173229.0,148.0,140.0,144.0,352.0,2173.229
2173239.0,141.0,135.0,133.0,353.0,2173.239
2173249.0,139.0,138.0,150.0,365.0,2173.249
2173259.0,128.0,140.0,137.0,380.0,2173.259
2173270.0,123.0,141.0,162.0,417.0,2173.27
2173280.0,115.0,139.0,179.0,439.0,2173.28
2173290.0,115.0,136.0,174.0,422.0,2173.29
2173300.0,109.0,139.0,173.0,456.0,2173.3
2173310.0,107.0,132.0,153.0,480.0,2173.31
2173320.0,104.0,130.0,146.0,464.0,2173.32
2173330.0,98.0,127.0,134.0,428.0,2173.33
2173340.0,98.0,123.0,122.0,388.0,2173.34
2173350.0,91.0,123.0,121.0,376.0,2173.35
2173360.0,87.0,122.0,122.0,362.0,2173.36
2173370.0,85.0,119.0,114.0,338.0,2173.37
2173380.0,80.0,118.0,119.0,357.0,2173.38
2173390.0,77.0,112.0,106.0,341.0,2173.39
2173400.0,75.0,108.0,99.0,323.0,2173.4
2173410.0,72.0,107.0,103.0,304.0,2173.41
2173420.0,69.0,104.0,102.0,292.0,2173.42
2173430.0,67.0,101.0,97.0,307.0,2173.43
2173440.0,69.0,99.0,88.0,301.0,2173.44
2173450.0,68.0,96.0,93.0,312.0,2173.45
2173460.0,73.0,97.0,104.0,291.0,2173.46
2173470.0,75.0,90.0,100.0,287.0,2173.47
2173480.0,70.0,87.0,98.0,265.0,2173.48
2173490.0,67.0,82.0,95.0,253.0,2173.49
2173500.0,64.0,80.0,91.0,253.0,2173.5
2173510.0,63.0,79.0,85.0,243.0,2173.51
2173520.0,60.0,76.0,89.0,231.0,2173.52
2173530.0,59.0,76.0,88.0,218.0,2173.53
2173540.0,61.0,72.0,81.0,203.0,2173.54
2173550.0,58.0,74.0,82.0,225.0,2173.55
2173560.0,58.0,73.0,75.0,245.0,2173.56
2173570.0,56.0,72.0,70.0,254.0,2173.57
2173580.0,57.0,72.0,70.0,237.0,2173.58
2173590.0,64.0,72.0,74.0,238.0,2173.59
2173600.0,65.0,69.0,83.0,238.0,2173.6
2173611.0,66.0,71.0,81.0,227.0,2173.611
2173621.0,64.0,69.0,80.0,234.0,2173.621
2173631.0,63.0,66.0,80.0,267.0,2173.631
2173641.0,61.0,64.0,71.0,265.0,2173.641
2173651.0,61.0,65.0,71.0,264.0,2173.651
2173661.0,59.0,62.0,68.0,266.0,2173.661
2173671.0,61.0,60.0,64.0,270.0,2173.671
2173681.0,61.0,63.0,74.0,321.0,2173.681
2173691.0,64.0,60.0,76.0,377.0,2173.691
2173701.0,64.0,59.0,76.0,363.0,2173.701
2173711.0,63.0,59.0,74.0,340.0,2173.711
2173721.0,68.0,60.0,72.0,395.0,2173.721
2173731.0,67.0,57.0,62.0,388.0,2173.731
2173741.0,65.0,54.0,57.0,369.0,2173.741
2173751.0,63.0,56.0,52.0,364.0,2173.751
2173761.0,67.0,58.0,64.0,376.0,2173.761
2173771.0,64.0,58.0,68.0,350.0,2173.771
2173782.0,63.0,55.0,65.0,340.0,2173.782
2173792.0,66.0,57.0,62.0,317.0,2173.792
2173802.0,64.0,55.0,58.0,316.0,2173.802
2173812.0,61.0,54.0,54.0,298.0,2173.812
2173822.0,59.0,54.0,53.0,279.0,2173.822
2173832.0,59.0,53.0,64.0,272.0,2173.832
2173842.0,56.0,53.0,60.0,260.0,2173.842
2173852.0,56.0,53.0,67.0,244.0,2173.852
2173862.0,57.0,49.0,60.0,244.0,2173.862
2173872.0,56.0,51.0,58.0,227.0,2173.872
2173882.0,58.0,50.0,56.0,216.0,2173.882
2173892.0,57.0,49.0,63.0,224.0,2173.892
2173902.0,57.0,49.0,67.0,206.0,2173.902
2173912.0,56.0,49.0,65.0,203.0,2173.912
2173922.0,54.0,50.0,76.0,217.0,2173.922
2173932.0,53.0,49.0,72.0,219.0,2173.932
2173942.0,53.0,50.0,70.0,224.0,2173.942
2173952.0,52.0,48.0,67.0,222.0,2173.952
2173962.0,53.0,46.0,64.0,209.0,2173.962
2173972.0,53.0,46.0,61.0,203.0,2173.972
2173982.0,58.0,47.0,54.0,189.0,2173.982
2173992.0,58.0,49.0,52.0,188.0,2173.992
2174002.0,60.0,51.0,67.0,188.0,2174.002
2174012.0,61.0,49.0,60.0,190.0,2174.012
2174022.0,60.0,49.0,57.0,183.0,2174.022
2174032.0,60.0,48.0,56.0,192.0,2174.032
2174042.0,59.0,48.0,50.0,179.0,2174.042
2174052.0,57.0,48.0,46.0,171.0,2174.052
2174062.0,58.0,48.0,41.0,166.0,2174.062
2174072.0,60.0,51.0,40.0,162.0,2174.072
2174082.0,59.0,52.0,44.0,161.0,2174.082
2174092.0,59.0,53.0,51.0,149.0,2174.092
2174102.0,56.0,52.0,64.0,150.0,2174.102
2174112.0,55.0,50.0,56.0,153.0,2174.112
2174123.0,55.0,49.0,52.0,173.0,2174.123
2174133.0,54.0,50.0,45.0,165.0,2174.133
2174143.0,52.0,49.0,40.0,149.0,2174.143
2174153.0,51.0,47.0,37.0,137.0,2174.153
2174163.0,51.0,47.0,34.0,126.0,2174.163
2174173.0,51.0,46.0,34.0,114.0,2174.173
2174183.0,49.0,45.0,31.0,128.0,2174.183
2174193.0,50.0,46.0,52.0,128.0,2174.193
2174203.0,51.0,46.0,46.0,137.0,2174.203
2174213.0,48.0,46.0,42.0,144.0,2174.213
2174223.0,48.0,45.0,40.0,152.0,2174.223
2174233.0,51.0,47.0,35.0,169.0,2174.233
2174243.0,51.0,44.0,31.0,237.0,2174.243
2174253.0,51.0,44.0,30.0,260.0,2174.253
2174263.0,49.0,44.0,27.0,264.0,2174.263
2174273.0,51.0,45.0,25.0,281.0,2174.273
2174283.0,57.0,43.0,22.0,294.0,2174.283
2174294.0,55.0,44.0,26.0,293.0,2174.294
2174304.0,54.0,44.0,26.0,291.0,2174.304
2174314.0,54.0,43.0,29.0,288.0,2174.314
2174324.0,53.0,44.0,39.0,311.0,2174.324
2174334.0,53.0,45.0,40.0,396.0,2174.334
2174344.0,53.0,46.0,51.0,431.0,2174.344
2174354.0,52.0,45.0,47.0,410.0,2174.354
2174364.0,51.0,44.0,46.0,379.0,2174.364
2174374.0,53.0,48.0,44.0,384.0,2174.374
2174384.0,51.0,47.0,39.0,369.0,2174.384
2174394.0,53.0,48.0,48.0,343.0,2174.394
2174404.0,53.0,47.0,42.0,369.0,2174.404
2174414.0,55.0,47.0,37.0,340.0,2174.414
2174424.0,55.0,46.0,40.0,314.0,2174.424
2174434.0,54.0,47.0,40.0,308.0,2174.434
2174444.0,56.0,48.0,54.0,288.0,2174.444
2174454.0,57.0,49.0,48.0,286.0,2174.454
2174464.0,57.0,47.0,43.0,306.0,2174.464
2174474.0,57.0,47.0,41.0,303.0,2174.474
2174484.0,55.0,48.0,38.0,289.0,2174.484
2174494.0,55.0,46.0,34.0,272.0,2174.494
2174504.0,52.0,46.0,28.0,259.0,2174.504
2174514.0,53.0,46.0,27.0,285.0,2174.514
2174524.0,52.0,47.0,38.0,276.0,2174.524
2174534.0,53.0,47.0,33.0,254.0,2174.534
2174544.0,52.0,46.0,30.0,238.0,2174.544
2174554.0,54.0,45.0,26.0,230.0,2174.554
2174564.0,53.0,47.0,35.0,264.0,2174.564
2174574.0,54.0,46.0,30.0,253.0,2174.574
2174584.0,53.0,47.0,27.0,249.0,2174.584
2174594.0,53.0,45.0,25.0,246.0,2174.594
2174604.0,51.0,47.0,23.0,273.0,2174.604
2174614.0,51.0,44.0,20.0,267.0,2174.614
2174624.0,50.0,47.0,17.0,250.0,2174.624
2174635.0,54.0,46.0,17.0,249.0,2174.635
2174645.0,52.0,46.0,17.0,260.0,2174.645
2174655.0,52.0,49.0,25.0,257.0,2174.655
2174665.0,52.0,48.0,33.0,269.0,2174.665
2174675.0,53.0,48.0,31.0,284.0,2174.675
2174685.0,55.0,48.0,29.0,264.0,2174.685
2174695.0,53.0,46.0,30.0,249.0,2174.695
2174705.0,53.0,48.0,36.0,232.0,2174.705
2174715.0,55.0,47.0,33.0,231.0,2174.715
2174725.0,52.0,45.0,34.0,229.0,2174.725
2174735.0,53.0,44.0,32.0,217.0,2174.735
2174745.0,54.0,44.0,29.0,230.0,2174.745
2174755.0,53.0,45.0,40.0,270.0,2174.755
2174765.0,54.0,44.0,44.0,268.0,2174.765
2174775.0,54.0,43.0,41.0,253.0,2174.775
2174785.0,57.0,43.0,37.0,243.0,2174.785
2174795.0,56.0,44.0,33.0,242.0,2174.795
2174806.0,57.0,45.0,30.0,230.0,2174.806
2174816.0,59.0,45.0,27.0,246.0,2174.816
2174826.0,59.0,46.0,23.0,232.0,2174.826
2174836.0,57.0,48.0,29.0,225.0,2174.836
2174846.0,59.0,47.0,28.0,216.0,2174.846
2174856.0,59.0,46.0,29.0,226.0,2174.856
2174866.0,58.0,46.0,28.0,221.0,2174.866
2174876.0,58.0,45.0,28.0,209.0,2174.876
2174886.0,58.0,45.0,25.0,213.0,2174.886
2174896.0,59.0,45.0,22.0,217.0,2174.896
2174906.0,59.0,43.0,19.0,210.0,2174.906
2174916.0,60.0,44.0,17.0,194.0,2174.916
2174926.0,59.0,44.0,15.0,184.0,2174.926
2174936.0,59.0,45.0,20.0,190.0,2174.936
2174946.0,60.0,46.0,22.0,183.0,2174.946
2174956.0,61.0,45.0,21.0,198.0,2174.956
2174966.0,61.0,43.0,18.0,191.0,2174.966
2174976.0,61.0,44.0,17.0,190.0,2174.976
2174986.0,62.0,44.0,17.0,202.0,2174.986
2174996.0,60.0,44.0,15.0,198.0,2174.996
2175006.0,59.0,43.0,15.0,186.0,2175.006
2175016.0,60.0,43.0,14.0,194.0,2175.016
2175026.0,58.0,44.0,12.0,180.0,2175.026
2175036.0,60.0,43.0,12.0,170.0,2175.036
2175046.0,61.0,43.0,11.0,162.0,2175.046
2175056.0,60.0,44.0,18.0,164.0,2175.056
2175066.0,64.0,44.0,22.0,171.0,2175.066
2175076.0,65.0,42.0,21.0,165.0,2175.076
2175086.0,65.0,41.0,18.0,176.0,2175.086
2175096.0,66.0,42.0,18.0,175.0,2175.096
2175106.0,66.0,43.0,19.0,209.0,2175.106
2175116.0,67.0,42.0,17.0,191.0,2175.116
2175126.0,67.0,44.0,26.0,175.0,2175.126
2175136.0,69.0,43.0,33.0,208.0,2175.136
2175147.0,70.0,46.0,36.0,231.0,2175.147
2175157.0,73.0,43.0,31.0,222.0,2175.157
2175167.0,74.0,45.0,26.0,210.0,2175.167
2175177.0,72.0,47.0,26.0,191.0,2175.177
2175187.0,72.0,49.0,22.0,183.0,2175.187
2175197.0,72.0,51.0,20.0,181.0,2175.197
2175207.0,73.0,52.0,18.0,169.0,2175.207
2175217.0,74.0,52.0,15.0,164.0,2175.217
2175227.0,75.0,54.0,16.0,175.0,2175.227
2175237.0,72.0,54.0,15.0,173.0,2175.237
2175247.0,70.0,55.0,22.0,170.0,2175.247
2175257.0,70.0,57.0,29.0,163.0,2175.257
2175267.0,70.0,55.0,27.0,160.0,2175.267
2175277.0,71.0,54.0,24.0,172.0,2175.277
2175287.0,69.0,56.0,21.0,176.0,2175.287
2175297.0,70.0,57.0,20.0,166.0,2175.297
2175307.0,68.0,59.0,16.0,154.0,2175.307
2175318.0,68.0,58.0,15.0,144.0,2175.318
2175328.0,68.0,59.0,14.0,138.0,2175.328
2175338.0,68.0,60.0,13.0,159.0,2175.338
2175348.0,69.0,60.0,12.0,172.0,2175.348
2175358.0,69.0,63.0,17.0,168.0,2175.358
2175368.0,71.0,65.0,24.0,168.0,2175.368
2175378.0,68.0,73.0,77.0,201.0,2175.378
2175388.0,68.0,83.0,130.0,259.0,2175.388
2175398.0,73.0,82.0,147.0,264.0,2175.398
2175408.0,72.0,86.0,176.0,279.0,2175.408
2175418.0,80.0,88.0,213.0,312.0,2175.418
2175428.0,86.0,87.0,224.0,296.0,2175.428
2175438.0,84.0,82.0,213.0,273.0,2175.438
2175448.0,82.0,79.0,205.0,257.0,2175.448
2175458.0,79.0,79.0,187.0,250.0,2175.458
2175468.0,78.0,84.0,194.0,273.0,2175.468
2175478.0,79.0,79.0,174.0,264.0,2175.478
2175488.0,78.0,81.0,171.0,265.0,2175.488
2175498.0,81.0,78.0,161.0,244.0,2175.498
2175508.0,80.0,79.0,151.0,232.0,2175.508
2175518.0,79.0,79.0,177.0,271.0,2175.518
2175528.0,85.0,75.0,165.0,258.0,2175.528
2175538.0,89.0,75.0,160.0,275.0,2175.538
2175548.0,89.0,73.0,149.0,268.0,2175.548
2175558.0,89.0,77.0,163.0,292.0,2175.558
2175568.0,91.0,78.0,173.0,279.0,2175.568
2175578.0,94.0,76.0,165.0,269.0,2175.578
2175588.0,91.0,74.0,145.0,274.0,2175.588
2175598.0,90.0,74.0,162.0,308.0,2175.598
2175608.0,88.0,70.0,155.0,302.0,2175.608
2175618.0,88.0,67.0,147.0,296.0,2175.618
2175628.0,86.0,68.0,139.0,290.0,2175.628
2175638.0,86.0,68.0,147.0,273.0,2175.638
2175648.0,87.0,72.0,150.0,308.0,2175.648
2175659.0,84.0,70.0,136.0,309.0,2175.659
2175669.0,87.0,65.0,134.0,289.0,2175.669
2175679.0,84.0,62.0,117.0,262.0,2175.679
2175689.0,81.0,65.0,119.0,255.0,2175.689
2175699.0,79.0,63.0,112.0,235.0,2175.699
2175709.0,76.0,65.0,113.0,257.0,2175.709
2175719.0,73.0,63.0,106.0,264.0,2175.719
2175729.0,74.0,63.0,102.0,261.0,2175.729
2175739.0,72.0,62.0,95.0,246.0,2175.739
2175749.0,70.0,59.0,84.0,235.0,2175.749
2175759.0,70.0,60.0,81.0,217.0,2175.759
2175769.0,70.0,57.0,78.0,220.0,2175.769
2175779.0,70.0,59.0,82.0,216.0,2175.779
2175789.0,70.0,58.0,81.0,225.0,2175.789
2175799.0,69.0,56.0,74.0,213.0,2175.799
2175809.0,69.0,56.0,71.0,195.0,2175.809
2175819.0,68.0,55.0,70.0,179.0,2175.819
2175830.0,68.0,55.0,62.0,171.0,2175.83
2175840.0,66.0,55.0,68.0,173.0,2175.84
2175850.0,68.0,54.0,67.0,183.0,2175.85
2175860.0,68.0,52.0,64.0,174.0,2175.86
2175870.0,67.0,53.0,74.0,165.0,2175.87
2175880.0,66.0,52.0,72.0,155.0,2175.88
2175890.0,66.0,51.0,68.0,149.0,2175.89
2175900.0,64.0,50.0,60.0,146.0,2175.9
2175910.0,66.0,49.0,56.0,149.0,2175.91
2175920.0,65.0,52.0,64.0,164.0,2175.92
2175930.0,64.0,49.0,70.0,150.0,2175.93
2175940.0,63.0,47.0,61.0,143.0,2175.94
2175950.0,61.0,47.0,68.0,149.0,2175.95
2175960.0,62.0,47.0,67.0,147.0,2175.96
2175970.0,62.0,46.0,60.0,139.0,2175.97
2175980.0,61.0,44.0,56.0,127.0,2175.98
2175990.0,61.0,44.0,53.0,119.0,2175.99
2176000.0,61.0,47.0,69.0,115.0,2176.0
2176010.0,60.0,44.0,61.0,108.0,2176.01
2176020.0,59.0,45.0,60.0,120.0,2176.02
2176030.0,59.0,44.0,59.0,112.0,2176.03
2176040.0,58.0,44.0,58.0,116.0,2176.04
2176050.0,58.0,44.0,52.0,114.0,2176.05
2176060.0,58.0,43.0,46.0,108.0,2176.06
2176070.0,57.0,45.0,48.0,109.0,2176.07
2176080.0,56.0,44.0,48.0,108.0,2176.08
2176090.0,58.0,44.0,44.0,104.0,2176.09
2176100.0,59.0,43.0,42.0,97.0,2176.1
2176110.0,58.0,43.0,46.0,99.0,2176.11
2176120.0,56.0,45.0,46.0,110.0,2176.12
2176130.0,57.0,44.0,41.0,105.0,2176.13
2176140.0,58.0,44.0,35.0,101.0,2176.14
2176150.0,58.0,43.0,35.0,103.0,2176.15
2176160.0,58.0,42.0,31.0,104.0,2176.16
2176171.0,59.0,43.0,31.0,100.0,2176.171
2176181.0,61.0,43.0,29.0,101.0,2176.181
2176191.0,58.0,45.0,37.0,101.0,2176.191
2176201.0,59.0,44.0,34.0,97.0,2176.201
2176211.0,60.0,44.0,35.0,108.0,2176.211
2176221.0,60.0,43.0,31.0,110.0,2176.221
2176231.0,62.0,42.0,27.0,102.0,2176.231
2176241.0,61.0,44.0,25.0,98.0,2176.241
2176251.0,62.0,45.0,35.0,97.0,2176.251
2176261.0,60.0,45.0,36.0,97.0,2176.261
2176271.0,60.0,44.0,32.0,99.0,2176.271
2176281.0,59.0,45.0,34.0,106.0,2176.281
2176291.0,59.0,46.0,44.0,104.0,2176.291
2176301.0,59.0,44.0,44.0,103.0,2176.301
2176311.0,60.0,43.0,40.0,96.0,2176.311
2176321.0,59.0,43.0,37.0,112.0,2176.321
2176331.0,58.0,43.0,32.0,111.0,2176.331
2176342.0,56.0,43.0,30.0,106.0,2176.342
2176352.0,55.0,44.0,29.0,106.0,2176.352
2176362.0,54.0,47.0,34.0,98.0,2176.362
2176372.0,54.0,48.0,39.0,90.0,2176.372
2176382.0,54.0,48.0,40.0,103.0,2176.382
2176392.0,54.0,47.0,37.0,104.0,2176.392
2176402.0,56.0,46.0,33.0,105.0,2176.402
2176412.0,55.0,45.0,29.0,97.0,2176.412
2176422.0,53.0,47.0,29.0,103.0,2176.422
2176432.0,53.0,47.0,25.0,102.0,2176.432
2176442.0,53.0,47.0,22.0,92.0,2176.442
2176452.0,51.0,46.0,20.0,90.0,2176.452
2176462.0,51.0,48.0,22.0,93.0,2176.462
2176472.0,53.0,50.0,36.0,93.0,2176.472
2176482.0,52.0,48.0,36.0,91.0,2176.482
2176492.0,51.0,47.0,35.0,92.0,2176.492
2176502.0,51.0,46.0,31.0,86.0,2176.502
2176512.0,50.0,47.0,27.0,82.0,2176.512
2176522.0,51.0,44.0,25.0,87.0,2176.522
2176532.0,51.0,44.0,21.0,86.0,2176.532
2176542.0,52.0,43.0,20.0,82.0,2176.542
2176552.0,53.0,43.0,18.0,77.0,2176.552
2176562.0,53.0,42.0,16.0,85.0,2176.562
2176572.0,53.0,43.0,16.0,85.0,2176.572
2176582.0,53.0,43.0,17.0,88.0,2176.582
2176592.0,53.0,43.0,19.0,89.0,2176.592
2176602.0,52.0,43.0,17.0,83.0,2176.602
2176612.0,52.0,42.0,15.0,77.0,2176.612
2176622.0,51.0,43.0,15.0,76.0,2176.622
2176632.0,50.0,45.0,28.0,87.0,2176.632
2176642.0,53.0,45.0,36.0,91.0,2176.642
2176652.0,53.0,46.0,32.0,88.0,2176.652
2176662.0,52.0,44.0,28.0,83.0,2176.662
2176672.0,51.0,42.0,25.0,80.0,2176.672
2176683.0,49.0,44.0,25.0,75.0,2176.683
2176693.0,51.0,43.0,24.0,75.0,2176.693
2176703.0,48.0,43.0,20.0,80.0,2176.703
2176713.0,50.0,44.0,31.0,81.0,2176.713
2176723.0,50.0,45.0,38.0,77.0,2176.723
2176733.0,50.0,44.0,34.0,81.0,2176.733
2176743.0,51.0,44.0,32.0,80.0,2176.743
2176753.0,49.0,43.0,29.0,73.0,2176.753
2176763.0,50.0,43.0,27.0,71.0,2176.763
2176773.0,48.0,43.0,22.0,73.0,2176.773
2176783.0,47.0,44.0,22.0,73.0,2176.783
2176793.0,46.0,45.0,24.0,79.0,2176.793
2176803.0,47.0,47.0,21.0,80.0,2176.803
2176813.0,48.0,44.0,20.0,78.0,2176.813
2176823.0,48.0,48.0,31.0,82.0,2176.823
2176833.0,49.0,48.0,29.0,79.0,2176.833
2176843.0,49.0,48.0,26.0,78.0,2176.843
2176854.0,48.0,48.0,22.0,80.0,2176.854
2176864.0,49.0,46.0,20.0,76.0,2176.864
2176874.0,48.0,50.0,18.0,75.0,2176.874
2176884.0,47.0,48.0,17.0,74.0,2176.884
2176894.0,47.0,46.0,15.0,75.0,2176.894
2176904.0,45.0,48.0,19.0,83.0,2176.904
2176914.0,47.0,47.0,20.0,87.0,2176.914
2176924.0,46.0,46.0,18.0,86.0,2176.924
2176934.0,46.0,45.0,19.0,83.0,2176.934
2176944.0,47.0,48.0,27.0,85.0,2176.944
2176954.0,46.0,47.0,27.0,80.0,2176.954
2176964.0,46.0,46.0,25.0,74.0,2176.964
2176974.0,45.0,48.0,24.0,71.0,2176.974
2176984.0,45.0,50.0,23.0,78.0,2176.984
2176994.0,44.0,49.0,22.0,81.0,2176.994
2177004.0,44.0,49.0,20.0,81.0,2177.004
2177014.0,43.0,47.0,19.0,77.0,2177.014
2177024.0,43.0,49.0,17.0,79.0,2177.024
2177034.0,43.0,48.0,16.0,80.0,2177.034
2177044.0,43.0,48.0,15.0,77.0,2177.044
2177054.0,44.0,47.0,16.0,73.0,2177.054
2177064.0,44.0,49.0,15.0,75.0,2177.064
2177074.0,44.0,50.0,25.0,70.0,2177.074
2177084.0,44.0,47.0,22.0,68.0,2177.084
2177094.0,43.0,48.0,22.0,74.0,2177.094
2177104.0,43.0,48.0,22.0,66.0,2177.104
2177114.0,44.0,47.0,19.0,66.0,2177.114
2177124.0,43.0,47.0,18.0,68.0,2177.124
2177134.0,43.0,47.0,17.0,66.0,2177.134
2177144.0,42.0,48.0,19.0,69.0,2177.144
2177154.0,42.0,48.0,21.0,64.0,2177.154
2177164.0,43.0,50.0,20.0,71.0,2177.164
2177174.0,43.0,48.0,24.0,67.0,2177.174
2177184.0,45.0,48.0,21.0,65.0,2177.184
2177195.0,45.0,48.0,22.0,72.0,2177.195
2177205.0,46.0,48.0,21.0,67.0,2177.205
2177215.0,46.0,48.0,18.0,63.0,2177.215
2177225.0,45.0,49.0,16.0,64.0,2177.225
2177235.0,45.0,49.0,15.0,65.0,2177.235
2177245.0,45.0,48.0,14.0,62.0,2177.245
2177255.0,45.0,46.0,13.0,64.0,2177.255
2177265.0,45.0,47.0,15.0,74.0,2177.265
2177275.0,46.0,45.0,14.0,70.0,2177.275
2177285.0,45.0,45.0,12.0,69.0,2177.285
2177295.0,44.0,44.0,11.0,68.0,2177.295
2177305.0,45.0,44.0,10.0,66.0,2177.305
2177315.0,44.0,45.0,9.0,70.0,2177.315
2177325.0,45.0,43.0,11.0,68.0,2177.325
2177335.0,45.0,43.0,9.0,74.0,2177.335
2177345.0,45.0,41.0,10.0,71.0,2177.345
2177355.0,45.0,42.0,13.0,74.0,2177.355
2177366.0,44.0,41.0,13.0,74.0,2177.366
2177376.0,45.0,41.0,11.0,69.0,2177.376
2177386.0,44.0,42.0,11.0,69.0,2177.386
2177396.0,45.0,42.0,13.0,70.0,2177.396
2177406.0,45.0,40.0,11.0,66.0,2177.406
2177416.0,45.0,40.0,11.0,69.0,2177.416
2177426.0,46.0,39.0,10.0,68.0,2177.426
2177436.0,45.0,40.0,10.0,72.0,2177.436
2177446.0,47.0,40.0,15.0,68.0,2177.446
2177456.0,47.0,40.0,13.0,65.0,2177.456
2177466.0,47.0,41.0,12.0,68.0,2177.466
2177476.0,47.0,39.0,12.0,63.0,2177.476
2177486.0,48.0,40.0,12.0,61.0,2177.486
2177496.0,51.0,40.0,13.0,61.0,2177.496
2177506.0,50.0,42.0,12.0,60.0,2177.506
2177516.0,52.0,41.0,14.0,56.0,2177.516
2177526.0,54.0,41.0,13.0,52.0,2177.526
2177536.0,54.0,42.0,11.0,51.0,2177.536
2177546.0,56.0,42.0,12.0,55.0,2177.546
2177556.0,56.0,44.0,11.0,55.0,2177.556
2177566.0,58.0,44.0,11.0,56.0,2177.566
2177576.0,58.0,45.0,12.0,62.0,2177.576
2177586.0,58.0,47.0,14.0,57.0,2177.586
2177596.0,60.0,45.0,13.0,59.0,2177.596
2177606.0,59.0,47.0,12.0,56.0,2177.606
2177616.0,61.0,46.0,12.0,54.0,2177.616
2177626.0,61.0,46.0,12.0,61.0,2177.626
2177636.0,63.0,46.0,13.0,58.0,2177.636
2177646.0,64.0,44.0,13.0,56.0,2177.646
2177656.0,62.0,46.0,12.0,55.0,2177.656
2177666.0,62.0,47.0,12.0,57.0,2177.666
2177676.0,63.0,46.0,12.0,61.0,2177.676
2177686.0,61.0,47.0,11.0,63.0,2177.686
2177696.0,62.0,45.0,10.0,58.0,2177.696
2177707.0,62.0,46.0,9.0,62.0,2177.707
2177717.0,63.0,46.0,16.0,59.0,2177.717
2177727.0,64.0,45.0,14.0,58.0,2177.727
2177737.0,62.0,45.0,17.0,61.0,2177.737
2177747.0,65.0,45.0,17.0,60.0,2177.747
2177757.0,65.0,44.0,16.0,58.0,2177.757
2177767.0,64.0,44.0,15.0,54.0,2177.767
2177777.0,63.0,45.0,15.0,60.0,2177.777
2177787.0,64.0,43.0,16.0,58.0,2177.787
2177797.0,64.0,43.0,14.0,63.0,2177.797
2177807.0,62.0,43.0,21.0,64.0,2177.807
2177817.0,62.0,43.0,24.0,68.0,2177.817
2177827.0,62.0,42.0,22.0,66.0,2177.827
2177837.0,62.0,42.0,21.0,62.0,2177.837
2177847.0,61.0,41.0,18.0,63.0,2177.847
2177857.0,61.0,41.0,17.0,63.0,2177.857
2177867.0,63.0,41.0,17.0,61.0,2177.867
2177878.0,62.0,43.0,19.0,57.0,2177.878
2177888.0,61.0,45.0,20.0,60.0,2177.888
2177898.0,62.0,44.0,18.0,60.0,2177.898
2177908.0,62.0,43.0,18.0,64.0,2177.908
2177918.0,62.0,42.0,20.0,63.0,2177.918
2177928.0,61.0,43.0,23.0,73.0,2177.928
2177938.0,63.0,42.0,22.0,70.0,2177.938
2177948.0,62.0,42.0,19.0,64.0,2177.948
2177958.0,62.0,43.0,19.0,72.0,2177.958
2177968.0,61.0,44.0,18.0,72.0,2177.968
2177978.0,61.0,42.0,16.0,68.0,2177.978
2177988.0,61.0,42.0,14.0,64.0,2177.988
2177998.0,59.0,42.0,17.0,66.0,2177.998
2178008.0,59.0,43.0,20.0,66.0,2178.008
2178018.0,57.0,44.0,16.0,65.0,2178.018
2178028.0,57.0,44.0,15.0,60.0,2178.028
2178038.0,57.0,45.0,13.0,56.0,2178.038
2178048.0,55.0,46.0,11.0,62.0,2178.048
2178058.0,55.0,46.0,15.0,62.0,2178.058
2178068.0,55.0,45.0,13.0,65.0,2178.068
2178078.0,56.0,44.0,13.0,62.0,2178.078
2178088.0,56.0,43.0,12.0,58.0,2178.088
2178098.0,54.0,45.0,14.0,57.0,2178.098
2178108.0,55.0,45.0,14.0,56.0,2178.108
2178118.0,56.0,46.0,15.0,56.0,2178.118
2178128.0,56.0,44.0,14.0,56.0,2178.128
2178138.0,57.0,44.0,13.0,58.0,2178.138
2178148.0,57.0,44.0,13.0,58.0,2178.148
2178158.0,59.0,43.0,13.0,62.0,2178.158
2178168.0,58.0,42.0,10.0,59.0,2178.168
2178178.0,59.0,41.0,10.0,56.0,2178.178
2178188.0,58.0,42.0,13.0,60.0,2178.188
2178198.0,58.0,41.0,12.0,57.0,2178.198
2178208.0,58.0,40.0,13.0,59.0,2178.208
2178219.0,57.0,41.0,16.0,72.0,2178.219
2178229.0,58.0,39.0,15.0,66.0,2178.229
2178239.0,56.0,39.0,13.0,64.0,2178.239
2178249.0,57.0,38.0,15.0,64.0,2178.249
2178259.0,56.0,38.0,13.0,60.0,2178.259
2178269.0,55.0,40.0,13.0,60.0,2178.269
2178279.0,55.0,38.0,12.0,56.0,2178.279
2178289.0,54.0,39.0,16.0,62.0,2178.289
2178299.0,55.0,39.0,15.0,59.0,2178.299
2178309.0,54.0,39.0,14.0,56.0,2178.309
2178319.0,53.0,38.0,12.0,55.0,2178.319
2178329.0,54.0,38.0,11.0,53.0,2178.329
2178339.0,54.0,39.0,8.0,53.0,2178.339
2178349.0,55.0,39.0,9.0,50.0,2178.349
2178359.0,55.0,39.0,9.0,60.0,2178.359
2178369.0,56.0,40.0,13.0,66.0,2178.369
2178379.0,56.0,39.0,12.0,63.0,2178.379
2178390.0,57.0,39.0,11.0,60.0,2178.39
2178400.0,59.0,39.0,12.0,58.0,2178.4
2178410.0,59.0,39.0,10.0,55.0,2178.41
2178420.0,59.0,38.0,8.0,55.0,2178.42
2178430.0,59.0,38.0,12.0,59.0,2178.43
2178440.0,60.0,40.0,13.0,64.0,2178.44
2178450.0,63.0,38.0,12.0,62.0,2178.45
2178460.0,62.0,40.0,10.0,63.0,2178.46
2178470.0,63.0,38.0,10.0,61.0,2178.47
2178480.0,61.0,39.0,9.0,61.0,2178.48
2178490.0,62.0,39.0,10.0,58.0,2178.49
2178500.0,61.0,39.0,9.0,58.0,2178.5
2178510.0,61.0,38.0,8.0,55.0,2178.51
2178520.0,61.0,38.0,9.0,66.0,2178.52
2178530.0,62.0,39.0,8.0,68.0,2178.53
2178540.0,61.0,39.0,8.0,67.0,2178.54
2178550.0,61.0,37.0,7.0,63.0,2178.55
2178560.0,60.0,37.0,6.0,61.0,2178.56
2178570.0,59.0,37.0,7.0,58.0,2178.57
2178580.0,59.0,36.0,6.0,54.0,2178.58
2178590.0,58.0,38.0,7.0,54.0,2178.59
2178600.0,60.0,38.0,7.0,57.0,2178.6
2178610.0,60.0,38.0,7.0,55.0,2178.61
2178620.0,60.0,37.0,7.0,55.0,2178.62
2178630.0,62.0,38.0,6.0,54.0,2178.63
2178640.0,60.0,38.0,6.0,55.0,2178.64
2178650.0,62.0,39.0,8.0,56.0,2178.65
2178660.0,61.0,37.0,7.0,58.0,2178.66
2178670.0,63.0,38.0,7.0,61.0,2178.67
2178680.0,62.0,37.0,6.0,61.0,2178.68
2178690.0,61.0,37.0,8.0,56.0,2178.69
2178700.0,60.0,37.0,7.0,55.0,2178.7
2178710.0,59.0,36.0,6.0,50.0,2178.71
2178720.0,58.0,36.0,7.0,54.0,2178.72
2178731.0,57.0,36.0,5.0,53.0,2178.731
2178741.0,57.0,36.0,6.0,60.0,2178.741
2178751.0,55.0,35.0,6.0,58.0,2178.751
2178761.0,55.0,36.0,6.0,55.0,2178.761
2178771.0,54.0,36.0,6.0,56.0,2178.771
2178781.0,54.0,36.0,6.0,52.0,2178.781
2178791.0,53.0,34.0,9.0,52.0,2178.791
2178801.0,53.0,36.0,7.0,52.0,2178.801
2178811.0,54.0,35.0,9.0,52.0,2178.811
2178821.0,53.0,37.0,9.0,56.0,2178.821
2178831.0,54.0,38.0,9.0,63.0,2178.831
2178841.0,54.0,37.0,9.0,61.0,2178.841
2178851.0,55.0,38.0,8.0,59.0,2178.851
2178861.0,53.0,37.0,8.0,58.0,2178.861
2178871.0,52.0,38.0,7.0,58.0,2178.871
2178881.0,52.0,37.0,8.0,63.0,2178.881
2178891.0,52.0,38.0,8.0,71.0,2178.891
2178902.0,51.0,37.0,8.0,67.0,2178.902
2178912.0,51.0,37.0,7.0,64.0,2178.912
2178922.0,50.0,39.0,7.0,61.0,2178.922
2178932.0,50.0,36.0,7.0,56.0,2178.932
2178942.0,50.0,36.0,5.0,54.0,2178.942
2178952.0,49.0,37.0,6.0,58.0,2178.952
2178962.0,49.0,35.0,6.0,59.0,2178.962
2178972.0,48.0,36.0,6.0,58.0,2178.972
2178982.0,47.0,36.0,5.0,61.0,2178.982
2178992.0,46.0,36.0,6.0,58.0,2178.992
2179002.0,46.0,36.0,6.0,57.0,2179.002
2179012.0,47.0,36.0,6.0,56.0,2179.012
2179022.0,46.0,37.0,5.0,55.0,2179.022
2179032.0,46.0,36.0,5.0,57.0,2179.032
2179042.0,47.0,36.0,6.0,55.0,2179.042
2179052.0,46.0,37.0,7.0,60.0,2179.052
2179062.0,47.0,36.0,7.0,60.0,2179.062
2179072.0,46.0,36.0,6.0,58.0,2179.072
2179082.0,46.0,36.0,7.0,54.0,2179.082
2179092.0,45.0,36.0,6.0,53.0,2179.092
2179102.0,45.0,36.0,6.0,50.0,2179.102
2179112.0,46.0,37.0,7.0,50.0,2179.112
2179122.0,45.0,36.0,6.0,50.0,2179.122
2179132.0,45.0,36.0,8.0,53.0,2179.132
2179142.0,47.0,37.0,9.0,60.0,2179.142
2179152.0,47.0,36.0,9.0,60.0,2179.152
2179162.0,48.0,36.0,8.0,68.0,2179.162
2179172.0,47.0,38.0,7.0,66.0,2179.172
2179182.0,49.0,39.0,8.0,72.0,2179.182
2179192.0,50.0,38.0,6.0,69.0,2179.192
2179202.0,49.0,38.0,7.0,69.0,2179.202
2179212.0,50.0,39.0,8.0,71.0,2179.212
2179222.0,51.0,40.0,8.0,70.0,2179.222
2179232.0,50.0,39.0,7.0,65.0,2179.232
2179243.0,49.0,40.0,7.0,63.0,2179.243
2179253.0,50.0,40.0,6.0,58.0,2179.253
2179263.0,49.0,41.0,6.0,62.0,2179.263
2179273.0,48.0,41.0,11.0,60.0,2179.273
2179283.0,49.0,40.0,10.0,61.0,2179.283
2179293.0,48.0,41.0,9.0,64.0,2179.293
2179303.0,47.0,40.0,9.0,62.0,2179.303
2179313.0,47.0,41.0,8.0,57.0,2179.313
2179323.0,47.0,40.0,8.0,55.0,2179.323
2179333.0,46.0,39.0,7.0,54.0,2179.333
2179343.0,46.0,40.0,6.0,51.0,2179.343
2179353.0,46.0,41.0,7.0,55.0,2179.353
2179363.0,46.0,41.0,6.0,58.0,2179.363
2179373.0,45.0,41.0,6.0,55.0,2179.373
2179383.0,46.0,39.0,5.0,54.0,2179.383
2179393.0,44.0,39.0,7.0,60.0,2179.393
2179403.0,45.0,39.0,7.0,59.0,2179.403
2179414.0,44.0,39.0,6.0,64.0,2179.414
2179424.0,45.0,40.0,7.0,65.0,2179.424
2179434.0,45.0,40.0,7.0,65.0,2179.434
2179444.0,45.0,40.0,6.0,65.0,2179.444
2179454.0,45.0,39.0,6.0,62.0,2179.454
2179464.0,45.0,40.0,6.0,60.0,2179.464
2179474.0,46.0,39.0,7.0,58.0,2179.474
2179484.0,46.0,40.0,6.0,59.0,2179.484
2179494.0,46.0,40.0,5.0,57.0,2179.494
2179504.0,47.0,40.0,7.0,59.0,2179.504
2179514.0,46.0,42.0,8.0,66.0,2179.514
2179524.0,48.0,39.0,7.0,62.0,2179.524
2179534.0,47.0,42.0,7.0,61.0,2179.534
2179544.0,49.0,41.0,6.0,58.0,2179.544
2179554.0,47.0,41.0,6.0,55.0,2179.554
2179564.0,48.0,41.0,7.0,56.0,2179.564
2179574.0,47.0,40.0,9.0,60.0,2179.574
2179584.0,46.0,40.0,9.0,60.0,2179.584
2179594.0,47.0,39.0,9.0,58.0,2179.594
2179604.0,46.0,41.0,7.0,57.0,2179.604
2179614.0,46.0,39.0,8.0,53.0,2179.614
2179624.0,46.0,39.0,7.0,51.0,2179.624
2179634.0,45.0,39.0,5.0,51.0,2179.634
2179644.0,44.0,38.0,6.0,50.0,2179.644
2179654.0,45.0,40.0,11.0,62.0,2179.654
2179664.0,46.0,40.0,12.0,66.0,2179.664
2179674.0,47.0,39.0,11.0,63.0,2179.674
2179684.0,47.0,39.0,9.0,61.0,2179.684
2179694.0,48.0,38.0,10.0,58.0,2179.694
2179704.0,46.0,38.0,8.0,55.0,2179.704
2179714.0,47.0,37.0,9.0,55.0,2179.714
2179724.0,49.0,37.0,7.0,54.0,2179.724
2179734.0,49.0,40.0,7.0,55.0,2179.734
2179744.0,48.0,40.0,7.0,58.0,2179.744
2179755.0,47.0,41.0,5.0,57.0,2179.755
2179765.0,46.0,43.0,6.0,57.0,2179.765
2179775.0,46.0,43.0,6.0,56.0,2179.775
2179785.0,46.0,43.0,5.0,55.0,2179.785
2179795.0,44.0,44.0,8.0,53.0,2179.795
2179805.0,44.0,45.0,6.0,55.0,2179.805
2179815.0,44.0,44.0,7.0,57.0,2179.815
2179825.0,45.0,44.0,6.0,53.0,2179.825
2179835.0,45.0,43.0,7.0,53.0,2179.835
2179845.0,45.0,43.0,6.0,62.0,2179.845
2179855.0,44.0,43.0,6.0,61.0,2179.855
2179865.0,44.0,43.0,6.0,58.0,2179.865
2179875.0,44.0,43.0,5.0,55.0,2179.875
2179885.0,43.0,40.0,6.0,60.0,2179.885
2179895.0,45.0,42.0,6.0,63.0,2179.895
2179905.0,45.0,41.0,6.0,62.0,2179.905
2179915.0,45.0,41.0,6.0,57.0,2179.915
2179926.0,42.0,43.0,6.0,62.0,2179.926
2179936.0,43.0,41.0,6.0,59.0,2179.936
2179946.0,44.0,42.0,6.0,59.0,2179.946
2179956.0,44.0,41.0,6.0,61.0,2179.956
2179966.0,44.0,39.0,7.0,63.0,2179.966
2179976.0,43.0,40.0,8.0,60.0,2179.976
2179986.0,44.0,39.0,8.0,56.0,2179.986
2179996.0,44.0,39.0,7.0,60.0,2179.996
2180006.0,43.0,39.0,6.0,56.0,2180.006
2180016.0,44.0,39.0,6.0,53.0,2180.016
2180026.0,43.0,39.0,6.0,50.0,2180.026
2180036.0,43.0,38.0,7.0,56.0,2180.036
2180046.0,44.0,39.0,7.0,56.0,2180.046
2180056.0,44.0,38.0,6.0,56.0,2180.056
2180066.0,44.0,40.0,7.0,53.0,2180.066
2180076.0,44.0,39.0,6.0,52.0,2180.076
2180086.0,43.0,39.0,6.0,51.0,2180.086
2180096.0,44.0,40.0,6.0,54.0,2180.096
2180106.0,44.0,40.0,7.0,55.0,2180.106
2180116.0,44.0,39.0,8.0,55.0,2180.116
2180126.0,43.0,39.0,7.0,52.0,2180.126
2180136.0,43.0,38.0,6.0,54.0,2180.136
2180146.0,43.0,37.0,6.0,58.0,2180.146
2180156.0,42.0,36.0,6.0,54.0,2180.156
2180166.0,42.0,37.0,5.0,57.0,2180.166
2180176.0,43.0,36.0,5.0,54.0,2180.176
2180186.0,43.0,37.0,6.0,53.0,2180.186
2180196.0,43.0,36.0,5.0,54.0,2180.196
2180206.0,45.0,36.0,8.0,51.0,2180.206
2180216.0,44.0,37.0,10.0,56.0,2180.216
2180226.0,44.0,36.0,10.0,60.0,2180.226
2180236.0,46.0,37.0,9.0,57.0,2180.236
2180246.0,47.0,36.0,8.0,55.0,2180.246
2180256.0,48.0,36.0,8.0,52.0,2180.256
2180267.0,49.0,36.0,7.0,51.0,2180.267
2180277.0,50.0,37.0,7.0,49.0,2180.277
2180287.0,50.0,37.0,16.0,72.0,2180.287
2180297.0,51.0,37.0,18.0,72.0,2180.297
2180307.0,51.0,37.0,15.0,69.0,2180.307
