time (ms),signal 0,signal 1,signal 2,signal3,time (sec)
2208286.0,57.0,147.0,95.0,160.0,2208.286
2208296.0,56.0,152.0,93.0,158.0,2208.296
2208306.0,55.0,153.0,93.0,155.0,2208.306
2208316.0,53.0,154.0,88.0,153.0,2208.316
2208326.0,54.0,155.0,86.0,153.0,2208.326
2208336.0,52.0,155.0,87.0,157.0,2208.336
2208346.0,53.0,154.0,82.0,164.0,2208.346
2208356.0,52.0,156.0,74.0,156.0,2208.356
2208366.0,59.0,157.0,75.0,159.0,2208.366
2208376.0,57.0,159.0,74.0,158.0,2208.376
2208386.0,56.0,159.0,72.0,155.0,2208.386
2208396.0,54.0,160.0,68.0,160.0,2208.396
2208406.0,54.0,157.0,66.0,164.0,2208.406
2208416.0,54.0,161.0,66.0,158.0,2208.416
2208427.0,51.0,159.0,62.0,159.0,2208.427
2208437.0,50.0,158.0,59.0,159.0,2208.437
2208447.0,50.0,158.0,61.0,162.0,2208.447
2208457.0,52.0,153.0,70.0,163.0,2208.457
2208467.0,49.0,158.0,64.0,159.0,2208.467
2208477.0,51.0,158.0,62.0,162.0,2208.477
2208487.0,49.0,158.0,58.0,164.0,2208.487
2208497.0,50.0,157.0,59.0,166.0,2208.497
2208507.0,49.0,156.0,55.0,166.0,2208.507
2208517.0,47.0,156.0,51.0,171.0,2208.517
2208527.0,58.0,152.0,65.0,167.0,2208.527
2208537.0,56.0,154.0,66.0,175.0,2208.537
2208547.0,55.0,155.0,63.0,168.0,2208.547
2208557.0,54.0,155.0,58.0,179.0,2208.557
2208567.0,54.0,157.0,59.0,176.0,2208.567
2208577.0,52.0,154.0,53.0,178.0,2208.577
2208587.0,51.0,155.0,54.0,177.0,2208.587
2208598.0,50.0,155.0,55.0,178.0,2208.598
2208608.0,51.0,153.0,55.0,179.0,2208.608
2208618.0,49.0,155.0,50.0,178.0,2208.618
2208628.0,48.0,154.0,44.0,185.0,2208.628
2208638.0,48.0,154.0,46.0,182.0,2208.638
2208648.0,47.0,157.0,43.0,179.0,2208.648
2208658.0,47.0,159.0,46.0,177.0,2208.658
2208668.0,46.0,160.0,43.0,173.0,2208.668
2208678.0,49.0,158.0,38.0,176.0,2208.678
2208688.0,48.0,160.0,40.0,178.0,2208.688
2208698.0,49.0,161.0,36.0,175.0,2208.698
2208708.0,50.0,160.0,37.0,180.0,2208.708
2208718.0,51.0,162.0,39.0,180.0,2208.718
2208728.0,51.0,162.0,37.0,177.0,2208.728
2208738.0,51.0,162.0,43.0,177.0,2208.738
2208748.0,51.0,163.0,39.0,173.0,2208.748
2208758.0,51.0,165.0,34.0,180.0,2208.758
2208768.0,51.0,165.0,39.0,175.0,2208.768
2208778.0,52.0,165.0,34.0,178.0,2208.778
2208788.0,53.0,164.0,35.0,186.0,2208.788
2208798.0,53.0,163.0,42.0,181.0,2208.798
2208808.0,52.0,165.0,37.0,181.0,2208.808
2208818.0,51.0,166.0,40.0,174.0,2208.818
2208828.0,50.0,165.0,36.0,177.0,2208.828
2208838.0,50.0,166.0,38.0,175.0,2208.838
2208848.0,49.0,165.0,41.0,183.0,2208.848
2208858.0,49.0,167.0,49.0,181.0,2208.858
2208868.0,49.0,162.0,53.0,184.0,2208.868
2208878.0,50.0,162.0,59.0,182.0,2208.878
2208888.0,51.0,160.0,65.0,182.0,2208.888
2208898.0,50.0,159.0,64.0,185.0,2208.898
2208908.0,50.0,157.0,59.0,186.0,2208.908
2208918.0,48.0,156.0,55.0,181.0,2208.918
2208928.0,49.0,157.0,59.0,174.0,2208.928
2208939.0,48.0,156.0,51.0,176.0,2208.939
2208949.0,47.0,155.0,45.0,184.0,2208.949
2208959.0,46.0,156.0,43.0,178.0,2208.959
2208969.0,47.0,155.0,41.0,182.0,2208.969
2208979.0,46.0,155.0,40.0,179.0,2208.979
2208989.0,46.0,156.0,44.0,177.0,2208.989
2208999.0,46.0,155.0,46.0,174.0,2208.999
2209009.0,47.0,156.0,45.0,172.0,2209.009
2209019.0,48.0,156.0,48.0,174.0,2209.019
2209029.0,49.0,158.0,57.0,171.0,2209.029
2209039.0,47.0,159.0,50.0,166.0,2209.039
2209049.0,46.0,161.0,44.0,169.0,2209.049
2209059.0,45.0,161.0,41.0,169.0,2209.059
2209069.0,46.0,163.0,44.0,177.0,2209.069
2209079.0,48.0,163.0,48.0,174.0,2209.079
2209089.0,48.0,162.0,45.0,174.0,2209.089
2209099.0,49.0,164.0,47.0,175.0,2209.099
2209110.0,49.0,166.0,47.0,180.0,2209.11
2209120.0,49.0,165.0,46.0,174.0,2209.12
2209130.0,48.0,165.0,46.0,167.0,2209.13
2209140.0,48.0,164.0,43.0,170.0,2209.14
2209150.0,49.0,166.0,51.0,167.0,2209.15
2209160.0,48.0,167.0,46.0,166.0,2209.16
2209170.0,48.0,167.0,41.0,165.0,2209.17
2209180.0,49.0,165.0,47.0,171.0,2209.18
2209190.0,49.0,165.0,42.0,169.0,2209.19
2209200.0,47.0,166.0,46.0,171.0,2209.2
2209210.0,47.0,166.0,51.0,172.0,2209.21
2209220.0,47.0,167.0,50.0,170.0,2209.22
2209230.0,47.0,168.0,46.0,164.0,2209.23
2209240.0,46.0,168.0,43.0,169.0,2209.24
2209250.0,46.0,167.0,42.0,172.0,2209.25
2209260.0,47.0,166.0,49.0,168.0,2209.26
2209270.0,48.0,169.0,43.0,168.0,2209.27
2209280.0,46.0,168.0,39.0,175.0,2209.28
2209290.0,47.0,168.0,42.0,179.0,2209.29
2209300.0,47.0,168.0,43.0,173.0,2209.3
2209310.0,49.0,166.0,44.0,178.0,2209.31
2209320.0,48.0,166.0,38.0,174.0,2209.32
2209330.0,49.0,166.0,38.0,171.0,2209.33
2209340.0,48.0,166.0,33.0,169.0,2209.34
2209350.0,48.0,166.0,30.0,169.0,2209.35
2209360.0,48.0,163.0,32.0,175.0,2209.36
2209370.0,48.0,165.0,33.0,178.0,2209.37
2209380.0,48.0,163.0,33.0,170.0,2209.38
2209390.0,49.0,164.0,29.0,171.0,2209.39
2209400.0,51.0,167.0,30.0,165.0,2209.4
2209410.0,50.0,167.0,30.0,167.0,2209.41
2209420.0,49.0,166.0,32.0,164.0,2209.42
2209430.0,50.0,165.0,31.0,161.0,2209.43
2209440.0,50.0,166.0,30.0,159.0,2209.44
2209451.0,52.0,166.0,27.0,157.0,2209.451
2209461.0,52.0,166.0,26.0,159.0,2209.461
2209471.0,52.0,165.0,35.0,161.0,2209.471
2209481.0,52.0,165.0,32.0,157.0,2209.481
2209491.0,50.0,164.0,32.0,160.0,2209.491
2209501.0,52.0,164.0,35.0,161.0,2209.501
2209511.0,50.0,165.0,32.0,159.0,2209.511
2209521.0,51.0,164.0,30.0,158.0,2209.521
2209531.0,51.0,163.0,41.0,158.0,2209.531
2209541.0,51.0,164.0,49.0,155.0,2209.541
2209551.0,52.0,164.0,43.0,155.0,2209.551
2209561.0,51.0,165.0,43.0,154.0,2209.561
2209571.0,52.0,167.0,39.0,156.0,2209.571
2209581.0,52.0,167.0,40.0,155.0,2209.581
2209591.0,52.0,168.0,34.0,151.0,2209.591
2209601.0,52.0,165.0,35.0,151.0,2209.601
2209611.0,53.0,167.0,33.0,143.0,2209.611
2209622.0,54.0,167.0,30.0,142.0,2209.622
2209632.0,54.0,167.0,26.0,142.0,2209.632
2209642.0,52.0,167.0,23.0,143.0,2209.642
2209652.0,52.0,165.0,21.0,148.0,2209.652
2209662.0,53.0,168.0,19.0,149.0,2209.662
2209672.0,52.0,165.0,17.0,157.0,2209.672
2209682.0,50.0,157.0,16.0,154.0,2209.682
2209692.0,54.0,150.0,15.0,156.0,2209.692
2209702.0,55.0,152.0,15.0,167.0,2209.702
2209712.0,63.0,146.0,20.0,189.0,2209.712
2209722.0,85.0,143.0,32.0,215.0,2209.722
2209732.0,99.0,157.0,39.0,212.0,2209.732
2209742.0,116.0,156.0,48.0,246.0,2209.742
2209752.0,139.0,158.0,64.0,245.0,2209.752
2209762.0,156.0,162.0,68.0,237.0,2209.762
2209772.0,168.0,171.0,69.0,249.0,2209.772
2209782.0,168.0,171.0,73.0,275.0,2209.782
2209792.0,181.0,173.0,78.0,306.0,2209.792
2209802.0,171.0,162.0,75.0,275.0,2209.802
2209812.0,155.0,156.0,77.0,257.0,2209.812
2209822.0,145.0,158.0,85.0,247.0,2209.822
2209832.0,137.0,154.0,79.0,230.0,2209.832
2209842.0,132.0,147.0,88.0,218.0,2209.842
2209852.0,123.0,145.0,94.0,204.0,2209.852
2209862.0,118.0,147.0,97.0,195.0,2209.862
2209872.0,112.0,145.0,103.0,239.0,2209.872
2209882.0,111.0,177.0,95.0,240.0,2209.882
2209892.0,105.0,181.0,104.0,263.0,2209.892
2209902.0,98.0,173.0,108.0,302.0,2209.902
2209912.0,93.0,184.0,111.0,273.0,2209.912
2209922.0,87.0,200.0,124.0,287.0,2209.922
2209932.0,86.0,205.0,140.0,268.0,2209.932
2209942.0,83.0,240.0,157.0,245.0,2209.942
2209952.0,86.0,234.0,168.0,240.0,2209.952
2209963.0,83.0,231.0,157.0,318.0,2209.963
2209973.0,81.0,233.0,165.0,302.0,2209.973
2209983.0,79.0,234.0,155.0,334.0,2209.983
2209993.0,77.0,236.0,164.0,339.0,2209.993
2210003.0,76.0,249.0,154.0,305.0,2210.003
2210013.0,81.0,255.0,150.0,353.0,2210.013
2210023.0,84.0,250.0,160.0,336.0,2210.023
2210033.0,80.0,241.0,155.0,323.0,2210.033
2210043.0,78.0,241.0,153.0,309.0,2210.043
2210053.0,91.0,240.0,148.0,317.0,2210.053
2210063.0,88.0,232.0,153.0,308.0,2210.063
2210073.0,84.0,225.0,152.0,306.0,2210.073
2210083.0,83.0,227.0,149.0,288.0,2210.083
2210093.0,84.0,214.0,149.0,274.0,2210.093
2210103.0,83.0,210.0,139.0,266.0,2210.103
2210113.0,85.0,205.0,134.0,269.0,2210.113
2210123.0,84.0,198.0,130.0,263.0,2210.123
2210134.0,86.0,186.0,129.0,245.0,2210.134
2210144.0,84.0,181.0,120.0,242.0,2210.144
2210154.0,80.0,177.0,141.0,236.0,2210.154
2210164.0,77.0,177.0,141.0,251.0,2210.164
2210174.0,80.0,167.0,141.0,257.0,2210.174
2210184.0,79.0,161.0,132.0,240.0,2210.184
2210194.0,77.0,155.0,126.0,226.0,2210.194
2210204.0,77.0,149.0,125.0,261.0,2210.204
2210214.0,77.0,149.0,127.0,238.0,2210.214
2210224.0,80.0,147.0,125.0,256.0,2210.224
2210234.0,81.0,139.0,122.0,296.0,2210.234
2210244.0,80.0,140.0,123.0,297.0,2210.244
2210254.0,78.0,137.0,130.0,310.0,2210.254
2210264.0,77.0,136.0,129.0,297.0,2210.264
2210274.0,72.0,131.0,117.0,290.0,2210.274
2210284.0,75.0,127.0,119.0,293.0,2210.284
2210294.0,70.0,125.0,105.0,309.0,2210.294
2210304.0,70.0,124.0,99.0,301.0,2210.304
2210314.0,68.0,122.0,100.0,298.0,2210.314
2210324.0,67.0,113.0,102.0,288.0,2210.324
2210334.0,67.0,116.0,101.0,280.0,2210.334
2210344.0,67.0,114.0,93.0,287.0,2210.344
2210354.0,70.0,112.0,101.0,298.0,2210.354
2210364.0,66.0,115.0,92.0,306.0,2210.364
2210374.0,70.0,113.0,100.0,302.0,2210.374
2210384.0,74.0,113.0,91.0,294.0,2210.384
2210394.0,71.0,115.0,83.0,306.0,2210.394
2210404.0,70.0,111.0,77.0,308.0,2210.404
2210414.0,68.0,112.0,78.0,347.0,2210.414
2210424.0,70.0,112.0,78.0,346.0,2210.424
2210434.0,69.0,115.0,75.0,331.0,2210.434
2210444.0,71.0,112.0,71.0,302.0,2210.444
2210454.0,76.0,112.0,79.0,316.0,2210.454
2210464.0,75.0,113.0,81.0,317.0,2210.464
2210475.0,74.0,116.0,74.0,363.0,2210.475
2210485.0,83.0,123.0,73.0,364.0,2210.485
2210495.0,88.0,119.0,78.0,374.0,2210.495
2210505.0,84.0,121.0,74.0,388.0,2210.505
2210515.0,88.0,121.0,77.0,398.0,2210.515
2210525.0,89.0,121.0,74.0,374.0,2210.525
2210535.0,83.0,120.0,77.0,368.0,2210.535
2210545.0,83.0,125.0,79.0,395.0,2210.545
2210555.0,80.0,124.0,77.0,388.0,2210.555
2210565.0,87.0,125.0,72.0,376.0,2210.565
2210575.0,97.0,124.0,66.0,371.0,2210.575
2210585.0,103.0,123.0,70.0,366.0,2210.585
2210595.0,105.0,126.0,72.0,405.0,2210.595
2210605.0,101.0,122.0,69.0,395.0,2210.605
2210615.0,97.0,124.0,69.0,383.0,2210.615
2210625.0,90.0,121.0,72.0,362.0,2210.625
2210635.0,85.0,124.0,71.0,394.0,2210.635
2210646.0,81.0,124.0,73.0,388.0,2210.646
2210656.0,81.0,131.0,68.0,352.0,2210.656
2210666.0,79.0,128.0,76.0,334.0,2210.666
2210676.0,87.0,135.0,72.0,332.0,2210.676
2210686.0,84.0,137.0,71.0,355.0,2210.686
2210696.0,82.0,129.0,66.0,345.0,2210.696
2210706.0,79.0,133.0,65.0,329.0,2210.706
2210716.0,76.0,134.0,67.0,369.0,2210.716
2210726.0,76.0,135.0,67.0,357.0,2210.726
2210736.0,75.0,134.0,63.0,342.0,2210.736
2210746.0,73.0,135.0,68.0,350.0,2210.746
2210756.0,75.0,139.0,63.0,332.0,2210.756
2210766.0,79.0,133.0,75.0,313.0,2210.766
2210776.0,75.0,135.0,67.0,298.0,2210.776
2210786.0,73.0,135.0,62.0,290.0,2210.786
2210796.0,73.0,134.0,61.0,294.0,2210.796
2210806.0,83.0,132.0,62.0,326.0,2210.806
2210816.0,83.0,138.0,58.0,327.0,2210.816
2210826.0,87.0,134.0,64.0,305.0,2210.826
2210836.0,85.0,131.0,64.0,352.0,2210.836
2210846.0,79.0,134.0,64.0,357.0,2210.846
2210856.0,76.0,130.0,61.0,356.0,2210.856
2210866.0,74.0,128.0,61.0,353.0,2210.866
2210876.0,70.0,130.0,55.0,364.0,2210.876
2210886.0,69.0,137.0,55.0,400.0,2210.886
2210896.0,90.0,142.0,54.0,415.0,2210.896
2210906.0,99.0,147.0,62.0,489.0,2210.906
2210916.0,98.0,144.0,62.0,481.0,2210.916
2210926.0,98.0,141.0,56.0,456.0,2210.926
2210936.0,94.0,135.0,51.0,446.0,2210.936
2210946.0,89.0,133.0,46.0,431.0,2210.946
2210956.0,88.0,128.0,46.0,416.0,2210.956
2210966.0,84.0,125.0,43.0,420.0,2210.966
2210976.0,80.0,127.0,42.0,400.0,2210.976
2210987.0,85.0,127.0,43.0,385.0,2210.987
2210997.0,83.0,126.0,53.0,424.0,2210.997
2211007.0,93.0,127.0,60.0,449.0,2211.007
2211017.0,94.0,128.0,57.0,421.0,2211.017
2211027.0,93.0,129.0,56.0,408.0,2211.027
2211037.0,91.0,125.0,59.0,410.0,2211.037
2211047.0,86.0,125.0,56.0,399.0,2211.047
2211057.0,89.0,123.0,52.0,403.0,2211.057
2211067.0,86.0,117.0,49.0,413.0,2211.067
2211077.0,81.0,117.0,44.0,400.0,2211.077
2211087.0,78.0,116.0,41.0,395.0,2211.087
2211097.0,75.0,113.0,60.0,372.0,2211.097
2211107.0,89.0,111.0,59.0,408.0,2211.107
2211117.0,88.0,110.0,52.0,388.0,2211.117
2211127.0,85.0,114.0,53.0,356.0,2211.127
2211137.0,91.0,114.0,57.0,385.0,2211.137
2211147.0,88.0,113.0,52.0,389.0,2211.147
2211158.0,84.0,116.0,47.0,383.0,2211.158
2211168.0,81.0,116.0,42.0,361.0,2211.168
2211178.0,79.0,119.0,40.0,329.0,2211.178
2211188.0,77.0,124.0,35.0,335.0,2211.188
2211198.0,76.0,119.0,31.0,322.0,2211.198
2211208.0,73.0,124.0,38.0,318.0,2211.208
2211218.0,76.0,126.0,37.0,310.0,2211.218
2211228.0,82.0,131.0,42.0,298.0,2211.228
2211238.0,80.0,137.0,46.0,302.0,2211.238
2211248.0,80.0,137.0,48.0,321.0,2211.248
2211258.0,78.0,147.0,43.0,325.0,2211.258
2211268.0,78.0,145.0,48.0,320.0,2211.268
2211278.0,78.0,148.0,50.0,317.0,2211.278
2211288.0,77.0,150.0,51.0,351.0,2211.288
2211298.0,74.0,154.0,55.0,340.0,2211.298
2211308.0,73.0,157.0,51.0,336.0,2211.308
2211318.0,71.0,160.0,45.0,313.0,2211.318
2211328.0,76.0,169.0,42.0,307.0,2211.328
2211338.0,77.0,167.0,48.0,368.0,2211.338
2211348.0,71.0,167.0,49.0,358.0,2211.348
2211358.0,70.0,175.0,49.0,347.0,2211.358
2211368.0,68.0,175.0,48.0,337.0,2211.368
2211378.0,68.0,177.0,43.0,320.0,2211.378
2211388.0,70.0,183.0,42.0,363.0,2211.388
2211398.0,73.0,187.0,41.0,348.0,2211.398
2211408.0,71.0,184.0,45.0,346.0,2211.408
2211418.0,67.0,191.0,42.0,352.0,2211.418
2211428.0,68.0,191.0,42.0,331.0,2211.428
2211438.0,65.0,185.0,49.0,309.0,2211.438
2211448.0,64.0,186.0,50.0,307.0,2211.448
2211458.0,67.0,183.0,48.0,342.0,2211.458
2211468.0,66.0,186.0,46.0,333.0,2211.468
2211478.0,67.0,184.0,47.0,329.0,2211.478
2211488.0,72.0,182.0,43.0,313.0,2211.488
2211499.0,70.0,182.0,39.0,300.0,2211.499
2211509.0,68.0,183.0,34.0,287.0,2211.509
2211519.0,67.0,186.0,46.0,276.0,2211.519
2211529.0,68.0,179.0,42.0,272.0,2211.529
2211539.0,68.0,176.0,38.0,282.0,2211.539
2211549.0,67.0,181.0,43.0,301.0,2211.549
2211559.0,65.0,176.0,38.0,297.0,2211.559
2211569.0,69.0,181.0,38.0,291.0,2211.569
2211579.0,70.0,177.0,35.0,275.0,2211.579
2211589.0,69.0,184.0,38.0,263.0,2211.589
2211599.0,72.0,177.0,33.0,247.0,2211.599
2211609.0,72.0,176.0,44.0,231.0,2211.609
2211619.0,75.0,178.0,45.0,256.0,2211.619
2211629.0,76.0,175.0,44.0,256.0,2211.629
2211639.0,87.0,175.0,56.0,298.0,2211.639
2211649.0,103.0,180.0,55.0,278.0,2211.649
2211659.0,108.0,178.0,48.0,277.0,2211.659
2211670.0,108.0,171.0,67.0,273.0,2211.67
2211680.0,100.0,168.0,76.0,302.0,2211.68
2211690.0,97.0,157.0,67.0,327.0,2211.69
2211700.0,94.0,155.0,63.0,333.0,2211.7
2211710.0,88.0,153.0,56.0,332.0,2211.71
2211720.0,85.0,152.0,51.0,333.0,2211.72
2211730.0,79.0,160.0,51.0,336.0,2211.73
2211740.0,83.0,156.0,53.0,366.0,2211.74
2211750.0,87.0,150.0,48.0,352.0,2211.75
2211760.0,85.0,152.0,54.0,336.0,2211.76
2211770.0,84.0,147.0,53.0,342.0,2211.77
2211780.0,84.0,143.0,58.0,353.0,2211.78
2211790.0,81.0,145.0,59.0,348.0,2211.79
2211800.0,84.0,141.0,57.0,348.0,2211.8
2211810.0,90.0,139.0,56.0,338.0,2211.81
2211820.0,87.0,137.0,52.0,333.0,2211.82
2211830.0,84.0,134.0,47.0,318.0,2211.83
2211840.0,83.0,131.0,54.0,327.0,2211.84
2211850.0,80.0,127.0,50.0,333.0,2211.85
2211860.0,76.0,132.0,47.0,302.0,2211.86
2211870.0,78.0,123.0,42.0,293.0,2211.87
2211880.0,79.0,132.0,39.0,280.0,2211.88
2211890.0,85.0,132.0,41.0,256.0,2211.89
2211900.0,83.0,128.0,38.0,256.0,2211.9
2211910.0,84.0,125.0,38.0,246.0,2211.91
2211920.0,85.0,126.0,38.0,238.0,2211.92
2211930.0,95.0,127.0,46.0,226.0,2211.93
2211940.0,107.0,124.0,46.0,212.0,2211.94
2211950.0,105.0,135.0,73.0,219.0,2211.95
2211960.0,115.0,131.0,126.0,235.0,2211.96
2211970.0,115.0,121.0,143.0,240.0,2211.97
2211980.0,127.0,113.0,132.0,226.0,2211.98
2211990.0,124.0,113.0,123.0,208.0,2211.99
2212000.0,122.0,106.0,119.0,214.0,2212.0
2212011.0,130.0,101.0,118.0,216.0,2212.011
2212021.0,123.0,105.0,125.0,205.0,2212.021
2212031.0,115.0,108.0,113.0,196.0,2212.031
2212041.0,111.0,111.0,142.0,210.0,2212.041
2212051.0,113.0,115.0,148.0,208.0,2212.051
2212061.0,122.0,112.0,149.0,201.0,2212.061
2212071.0,129.0,118.0,182.0,223.0,2212.071
2212081.0,131.0,114.0,182.0,234.0,2212.081
2212091.0,127.0,112.0,173.0,255.0,2212.091
2212101.0,129.0,104.0,193.0,253.0,2212.101
2212111.0,140.0,111.0,192.0,258.0,2212.111
2212121.0,141.0,120.0,191.0,242.0,2212.121
2212131.0,148.0,133.0,173.0,246.0,2212.131
2212141.0,146.0,140.0,171.0,239.0,2212.141
2212151.0,144.0,149.0,158.0,227.0,2212.151
2212161.0,142.0,157.0,153.0,232.0,2212.161
2212171.0,143.0,167.0,164.0,223.0,2212.171
2212182.0,143.0,178.0,147.0,227.0,2212.182
2212192.0,143.0,186.0,137.0,210.0,2212.192
2212202.0,141.0,192.0,122.0,193.0,2212.202
2212212.0,144.0,196.0,128.0,189.0,2212.212
2212222.0,145.0,203.0,121.0,178.0,2212.222
2212232.0,143.0,208.0,110.0,168.0,2212.232
2212242.0,154.0,208.0,118.0,170.0,2212.242
2212252.0,168.0,216.0,116.0,162.0,2212.252
2212262.0,164.0,221.0,114.0,150.0,2212.262
2212272.0,163.0,225.0,107.0,145.0,2212.272
2212282.0,160.0,227.0,118.0,145.0,2212.282
2212292.0,159.0,233.0,121.0,147.0,2212.292
2212302.0,159.0,236.0,117.0,138.0,2212.302
2212312.0,156.0,238.0,130.0,156.0,2212.312
2212322.0,156.0,242.0,129.0,148.0,2212.322
2212332.0,155.0,244.0,131.0,142.0,2212.332
2212342.0,152.0,246.0,126.0,133.0,2212.342
2212352.0,156.0,248.0,126.0,123.0,2212.352
2212362.0,154.0,249.0,126.0,121.0,2212.362
2212372.0,155.0,253.0,122.0,114.0,2212.372
2212382.0,150.0,251.0,118.0,112.0,2212.382
2212392.0,149.0,252.0,119.0,115.0,2212.392
2212402.0,150.0,253.0,116.0,112.0,2212.402
2212412.0,145.0,253.0,121.0,109.0,2212.412
2212422.0,139.0,251.0,125.0,104.0,2212.422
2212432.0,143.0,253.0,116.0,97.0,2212.432
2212442.0,139.0,251.0,112.0,98.0,2212.442
2212452.0,143.0,248.0,105.0,96.0,2212.452
2212462.0,137.0,249.0,115.0,92.0,2212.462
2212472.0,143.0,249.0,122.0,93.0,2212.472
2212482.0,140.0,248.0,119.0,93.0,2212.482
2212492.0,132.0,245.0,132.0,99.0,2212.492
2212502.0,138.0,244.0,122.0,94.0,2212.502
2212512.0,138.0,244.0,115.0,92.0,2212.512
2212523.0,131.0,243.0,116.0,88.0,2212.523
2212533.0,130.0,241.0,117.0,92.0,2212.533
2212543.0,132.0,239.0,122.0,93.0,2212.543
2212553.0,138.0,241.0,119.0,86.0,2212.553
2212563.0,134.0,240.0,112.0,87.0,2212.563
2212573.0,131.0,238.0,109.0,87.0,2212.573
2212583.0,141.0,241.0,105.0,85.0,2212.583
2212593.0,136.0,236.0,103.0,89.0,2212.593
2212603.0,134.0,240.0,102.0,96.0,2212.603
2212613.0,129.0,242.0,100.0,91.0,2212.613
2212623.0,125.0,242.0,93.0,97.0,2212.623
2212633.0,121.0,244.0,89.0,95.0,2212.633
2212643.0,119.0,245.0,85.0,94.0,2212.643
2212653.0,116.0,244.0,83.0,96.0,2212.653
2212663.0,122.0,246.0,82.0,105.0,2212.663
2212673.0,123.0,245.0,77.0,103.0,2212.673
2212683.0,121.0,246.0,69.0,106.0,2212.683
2212694.0,121.0,248.0,71.0,102.0,2212.694
2212704.0,116.0,247.0,63.0,105.0,2212.704
2212714.0,112.0,248.0,65.0,105.0,2212.714
2212724.0,110.0,247.0,57.0,110.0,2212.724
2212734.0,105.0,250.0,59.0,106.0,2212.734
2212744.0,103.0,247.0,66.0,102.0,2212.744
2212754.0,109.0,251.0,59.0,106.0,2212.754
2212764.0,107.0,252.0,55.0,100.0,2212.764
2212774.0,107.0,251.0,50.0,111.0,2212.774
2212784.0,104.0,251.0,55.0,119.0,2212.784
2212794.0,102.0,254.0,57.0,113.0,2212.794
2212804.0,99.0,255.0,51.0,115.0,2212.804
2212814.0,96.0,254.0,46.0,115.0,2212.814
2212824.0,95.0,254.0,43.0,114.0,2212.824
2212834.0,102.0,258.0,40.0,121.0,2212.834
2212844.0,101.0,257.0,42.0,128.0,2212.844
2212854.0,97.0,261.0,38.0,128.0,2212.854
2212864.0,98.0,258.0,39.0,133.0,2212.864
2212874.0,98.0,262.0,40.0,131.0,2212.874
2212884.0,91.0,262.0,44.0,136.0,2212.884
2212894.0,89.0,262.0,41.0,137.0,2212.894
2212904.0,97.0,265.0,43.0,136.0,2212.904
2212914.0,98.0,267.0,41.0,137.0,2212.914
2212924.0,94.0,265.0,38.0,138.0,2212.924
2212934.0,99.0,269.0,47.0,137.0,2212.934
2212944.0,95.0,271.0,44.0,131.0,2212.944
2212954.0,93.0,269.0,46.0,134.0,2212.954
2212964.0,90.0,271.0,45.0,129.0,2212.964
2212974.0,93.0,272.0,39.0,138.0,2212.974
2212984.0,94.0,270.0,39.0,140.0,2212.984
2212994.0,94.0,269.0,35.0,147.0,2212.994
2213004.0,92.0,269.0,46.0,140.0,2213.004
2213014.0,89.0,271.0,43.0,137.0,2213.014
2213024.0,96.0,271.0,42.0,133.0,2213.024
2213035.0,93.0,271.0,44.0,133.0,2213.035
2213045.0,100.0,269.0,39.0,136.0,2213.045
2213055.0,100.0,269.0,36.0,133.0,2213.055
2213065.0,96.0,269.0,37.0,141.0,2213.065
2213075.0,91.0,269.0,32.0,138.0,2213.075
2213085.0,89.0,267.0,32.0,133.0,2213.085
2213095.0,86.0,268.0,29.0,144.0,2213.095
2213105.0,80.0,268.0,32.0,141.0,2213.105
2213115.0,94.0,266.0,29.0,139.0,2213.115
2213125.0,92.0,264.0,35.0,149.0,2213.125
2213135.0,95.0,263.0,37.0,145.0,2213.135
2213145.0,92.0,264.0,36.0,133.0,2213.145
2213155.0,89.0,264.0,32.0,133.0,2213.155
2213165.0,87.0,265.0,29.0,134.0,2213.165
2213175.0,82.0,261.0,27.0,136.0,2213.175
2213185.0,87.0,261.0,34.0,139.0,2213.185
2213195.0,93.0,260.0,31.0,135.0,2213.195
2213206.0,94.0,260.0,29.0,137.0,2213.206
2213216.0,89.0,259.0,27.0,141.0,2213.216
2213226.0,87.0,258.0,29.0,145.0,2213.226
2213236.0,82.0,257.0,30.0,141.0,2213.236
2213246.0,79.0,258.0,26.0,135.0,2213.246
2213256.0,83.0,254.0,27.0,143.0,2213.256
2213266.0,89.0,256.0,27.0,150.0,2213.266
2213276.0,86.0,256.0,33.0,162.0,2213.276
2213286.0,98.0,257.0,34.0,161.0,2213.286
2213296.0,92.0,257.0,32.0,150.0,2213.296
2213306.0,92.0,256.0,30.0,144.0,2213.306
2213316.0,99.0,257.0,25.0,133.0,2213.316
2213326.0,94.0,254.0,37.0,146.0,2213.326
2213336.0,89.0,254.0,36.0,150.0,2213.336
2213346.0,83.0,252.0,31.0,154.0,2213.346
2213356.0,79.0,250.0,34.0,151.0,2213.356
2213366.0,81.0,250.0,29.0,154.0,2213.366
2213376.0,84.0,250.0,28.0,144.0,2213.376
2213386.0,79.0,247.0,35.0,137.0,2213.386
2213396.0,74.0,246.0,38.0,131.0,2213.396
2213406.0,86.0,246.0,37.0,129.0,2213.406
2213416.0,91.0,247.0,33.0,132.0,2213.416
2213426.0,87.0,246.0,30.0,129.0,2213.426
2213436.0,95.0,243.0,46.0,142.0,2213.436
2213446.0,95.0,244.0,48.0,128.0,2213.446
2213456.0,89.0,242.0,47.0,134.0,2213.456
2213466.0,83.0,242.0,44.0,131.0,2213.466
2213476.0,93.0,238.0,41.0,133.0,2213.476
2213486.0,89.0,238.0,35.0,138.0,2213.486
2213496.0,85.0,234.0,42.0,138.0,2213.496
2213506.0,80.0,235.0,36.0,136.0,2213.506
2213516.0,81.0,235.0,47.0,151.0,2213.516
2213526.0,90.0,235.0,42.0,141.0,2213.526
2213536.0,84.0,236.0,38.0,140.0,2213.536
2213547.0,86.0,234.0,50.0,137.0,2213.547
2213557.0,90.0,236.0,45.0,140.0,2213.557
2213567.0,86.0,235.0,39.0,128.0,2213.567
2213577.0,80.0,233.0,36.0,128.0,2213.577
2213587.0,82.0,230.0,34.0,137.0,2213.587
2213597.0,78.0,229.0,39.0,139.0,2213.597
2213607.0,76.0,230.0,40.0,137.0,2213.607
2213617.0,72.0,230.0,38.0,146.0,2213.617
2213627.0,70.0,229.0,35.0,142.0,2213.627
2213637.0,69.0,229.0,31.0,142.0,2213.637
2213647.0,66.0,226.0,33.0,139.0,2213.647
2213657.0,87.0,219.0,47.0,149.0,2213.657
2213667.0,98.0,221.0,43.0,140.0,2213.667
2213677.0,94.0,221.0,40.0,141.0,2213.677
2213687.0,87.0,218.0,39.0,145.0,2213.687
2213697.0,83.0,216.0,46.0,147.0,2213.697
2213707.0,98.0,216.0,54.0,158.0,2213.707
2213718.0,97.0,217.0,48.0,155.0,2213.718
2213728.0,90.0,215.0,41.0,149.0,2213.728
2213738.0,83.0,215.0,39.0,150.0,2213.738
2213748.0,83.0,215.0,34.0,153.0,2213.748
2213758.0,87.0,214.0,31.0,143.0,2213.758
2213768.0,82.0,216.0,28.0,144.0,2213.768
2213778.0,77.0,215.0,33.0,147.0,2213.778
2213788.0,73.0,216.0,37.0,148.0,2213.788
2213798.0,72.0,215.0,44.0,158.0,2213.798
2213808.0,82.0,216.0,46.0,148.0,2213.808
2213818.0,80.0,216.0,41.0,142.0,2213.818
2213828.0,80.0,216.0,39.0,138.0,2213.828
2213838.0,79.0,212.0,43.0,136.0,2213.838
2213848.0,75.0,213.0,43.0,139.0,2213.848
2213858.0,81.0,212.0,46.0,132.0,2213.858
2213868.0,79.0,211.0,42.0,131.0,2213.868
2213878.0,77.0,209.0,40.0,127.0,2213.878
2213888.0,78.0,207.0,40.0,129.0,2213.888
2213898.0,83.0,206.0,38.0,125.0,2213.898
2213908.0,85.0,200.0,45.0,125.0,2213.908
2213918.0,81.0,196.0,49.0,122.0,2213.918
2213928.0,78.0,195.0,47.0,113.0,2213.928
2213938.0,82.0,193.0,42.0,121.0,2213.938
2213948.0,82.0,191.0,38.0,112.0,2213.948
2213958.0,78.0,188.0,40.0,121.0,2213.958
2213968.0,75.0,187.0,43.0,117.0,2213.968
2213978.0,73.0,184.0,43.0,119.0,2213.978
2213988.0,72.0,181.0,46.0,129.0,2213.988
2213998.0,68.0,182.0,43.0,124.0,2213.998
2214008.0,65.0,180.0,37.0,128.0,2214.008
2214018.0,63.0,178.0,35.0,129.0,2214.018
2214028.0,60.0,177.0,48.0,117.0,2214.028
2214038.0,59.0,176.0,44.0,112.0,2214.038
2214048.0,57.0,176.0,43.0,116.0,2214.048
2214059.0,56.0,173.0,39.0,111.0,2214.059
2214069.0,55.0,172.0,37.0,123.0,2214.069
2214079.0,53.0,171.0,48.0,131.0,2214.079
2214089.0,62.0,168.0,46.0,125.0,2214.089
2214099.0,66.0,170.0,40.0,124.0,2214.099
2214109.0,64.0,170.0,36.0,125.0,2214.109
2214119.0,70.0,168.0,42.0,134.0,2214.119
2214129.0,75.0,170.0,38.0,132.0,2214.129
2214139.0,71.0,168.0,46.0,130.0,2214.139
2214149.0,69.0,165.0,51.0,134.0,2214.149
2214159.0,68.0,165.0,47.0,135.0,2214.159
2214169.0,64.0,163.0,48.0,126.0,2214.169
2214179.0,62.0,162.0,44.0,131.0,2214.179
2214189.0,60.0,159.0,45.0,126.0,2214.189
2214199.0,65.0,155.0,66.0,123.0,2214.199
2214209.0,70.0,154.0,65.0,146.0,2214.209
2214219.0,66.0,153.0,58.0,131.0,2214.219
2214230.0,64.0,149.0,54.0,130.0,2214.23
2214240.0,65.0,149.0,47.0,126.0,2214.24
2214250.0,73.0,147.0,46.0,125.0,2214.25
2214260.0,74.0,144.0,58.0,151.0,2214.26
2214270.0,71.0,144.0,56.0,141.0,2214.27
2214280.0,67.0,142.0,50.0,140.0,2214.28
2214290.0,65.0,142.0,46.0,134.0,2214.29
2214300.0,64.0,139.0,41.0,135.0,2214.3
2214310.0,60.0,136.0,37.0,124.0,2214.31
2214320.0,61.0,134.0,37.0,117.0,2214.32
2214330.0,68.0,133.0,46.0,121.0,2214.33
2214340.0,64.0,134.0,42.0,122.0,2214.34
2214350.0,63.0,132.0,39.0,115.0,2214.35
2214360.0,61.0,131.0,35.0,117.0,2214.36
2214370.0,60.0,131.0,39.0,118.0,2214.37
2214380.0,60.0,130.0,38.0,120.0,2214.38
2214390.0,62.0,129.0,35.0,124.0,2214.39
2214400.0,61.0,126.0,42.0,129.0,2214.4
2214410.0,58.0,127.0,40.0,118.0,2214.41
2214420.0,56.0,127.0,35.0,112.0,2214.42
2214430.0,54.0,124.0,32.0,115.0,2214.43
2214440.0,53.0,123.0,28.0,111.0,2214.44
2214450.0,53.0,121.0,28.0,131.0,2214.45
2214460.0,52.0,123.0,30.0,128.0,2214.46
2214470.0,50.0,124.0,27.0,139.0,2214.47
2214480.0,50.0,124.0,25.0,156.0,2214.48
2214490.0,50.0,124.0,37.0,144.0,2214.49
2214500.0,50.0,123.0,38.0,129.0,2214.5
2214510.0,48.0,125.0,34.0,121.0,2214.51
2214520.0,49.0,126.0,32.0,119.0,2214.52
2214530.0,49.0,127.0,28.0,123.0,2214.53
2214540.0,47.0,128.0,26.0,117.0,2214.54
2214550.0,47.0,125.0,30.0,119.0,2214.55
2214560.0,48.0,127.0,31.0,112.0,2214.56
2214571.0,48.0,125.0,28.0,111.0,2214.571
2214581.0,47.0,124.0,26.0,115.0,2214.581
2214591.0,46.0,122.0,28.0,133.0,2214.591
2214601.0,46.0,124.0,25.0,124.0,2214.601
2214611.0,46.0,123.0,22.0,121.0,2214.611
2214621.0,45.0,121.0,20.0,121.0,2214.621
2214631.0,43.0,121.0,17.0,116.0,2214.631
2214641.0,44.0,118.0,16.0,116.0,2214.641
2214651.0,44.0,118.0,24.0,128.0,2214.651
2214661.0,44.0,118.0,22.0,120.0,2214.661
2214671.0,45.0,119.0,20.0,117.0,2214.671
2214681.0,44.0,119.0,18.0,117.0,2214.681
2214691.0,44.0,119.0,17.0,126.0,2214.691
2214701.0,43.0,119.0,18.0,119.0,2214.701
2214711.0,44.0,119.0,33.0,113.0,2214.711
2214721.0,44.0,120.0,29.0,111.0,2214.721
2214731.0,41.0,122.0,27.0,109.0,2214.731
2214742.0,42.0,120.0,24.0,108.0,2214.742
2214752.0,42.0,122.0,20.0,111.0,2214.752
2214762.0,43.0,121.0,19.0,103.0,2214.762
2214772.0,43.0,121.0,17.0,104.0,2214.772
2214782.0,43.0,117.0,24.0,109.0,2214.782
2214792.0,45.0,117.0,28.0,115.0,2214.792
2214802.0,47.0,121.0,25.0,107.0,2214.802
2214812.0,47.0,118.0,27.0,111.0,2214.812
2214822.0,47.0,119.0,26.0,106.0,2214.822
2214832.0,47.0,116.0,39.0,108.0,2214.832
2214842.0,48.0,118.0,42.0,102.0,2214.842
2214852.0,47.0,117.0,49.0,104.0,2214.852
2214862.0,48.0,114.0,47.0,106.0,2214.862
2214872.0,49.0,113.0,56.0,106.0,2214.872
2214882.0,50.0,115.0,57.0,102.0,2214.882
2214892.0,49.0,114.0,53.0,104.0,2214.892
2214902.0,48.0,116.0,48.0,104.0,2214.902
2214912.0,47.0,116.0,43.0,97.0,2214.912
2214922.0,47.0,119.0,40.0,126.0,2214.922
2214932.0,47.0,118.0,50.0,118.0,2214.932
2214942.0,47.0,121.0,54.0,115.0,2214.942
2214952.0,48.0,121.0,48.0,112.0,2214.952
2214962.0,47.0,119.0,42.0,110.0,2214.962
2214972.0,47.0,118.0,38.0,117.0,2214.972
2214982.0,47.0,116.0,39.0,124.0,2214.982
2214992.0,48.0,116.0,46.0,120.0,2214.992
2215002.0,49.0,118.0,48.0,111.0,2215.002
2215012.0,49.0,117.0,42.0,116.0,2215.012
2215022.0,49.0,117.0,41.0,117.0,2215.022
2215032.0,51.0,116.0,37.0,119.0,2215.032
2215042.0,50.0,116.0,32.0,113.0,2215.042
2215052.0,50.0,115.0,35.0,113.0,2215.052
2215062.0,50.0,114.0,45.0,113.0,2215.062
2215072.0,50.0,117.0,40.0,108.0,2215.072
2215083.0,50.0,116.0,37.0,109.0,2215.083
2215093.0,49.0,115.0,33.0,126.0,2215.093
2215103.0,49.0,115.0,32.0,128.0,2215.103
2215113.0,49.0,115.0,35.0,117.0,2215.113
2215123.0,49.0,116.0,34.0,118.0,2215.123
2215133.0,50.0,115.0,36.0,128.0,2215.133
2215143.0,49.0,115.0,33.0,131.0,2215.143
2215153.0,49.0,113.0,31.0,123.0,2215.153
2215163.0,49.0,110.0,28.0,117.0,2215.163
2215173.0,49.0,110.0,24.0,112.0,2215.173
2215183.0,51.0,109.0,22.0,108.0,2215.183
2215193.0,50.0,104.0,24.0,121.0,2215.193
2215203.0,53.0,107.0,32.0,112.0,2215.203
2215213.0,50.0,106.0,33.0,114.0,2215.213
2215223.0,52.0,109.0,37.0,106.0,2215.223
2215233.0,51.0,109.0,35.0,95.0,2215.233
2215243.0,49.0,108.0,37.0,97.0,2215.243
2215254.0,52.0,111.0,43.0,95.0,2215.254
2215264.0,50.0,113.0,39.0,104.0,2215.264
2215274.0,48.0,113.0,37.0,97.0,2215.274
2215284.0,48.0,115.0,35.0,93.0,2215.284
2215294.0,47.0,112.0,33.0,92.0,2215.294
2215304.0,47.0,113.0,33.0,98.0,2215.304
2215314.0,49.0,112.0,36.0,94.0,2215.314
2215324.0,50.0,114.0,35.0,86.0,2215.324
2215334.0,50.0,112.0,36.0,96.0,2215.334
2215344.0,50.0,113.0,38.0,98.0,2215.344
2215354.0,51.0,113.0,34.0,93.0,2215.354
2215364.0,51.0,115.0,29.0,84.0,2215.364
2215374.0,51.0,114.0,30.0,88.0,2215.374
2215384.0,51.0,114.0,36.0,96.0,2215.384
2215394.0,52.0,117.0,41.0,94.0,2215.394
2215404.0,52.0,118.0,34.0,93.0,2215.404
2215414.0,52.0,118.0,42.0,88.0,2215.414
2215424.0,51.0,117.0,39.0,83.0,2215.424
2215434.0,52.0,116.0,42.0,90.0,2215.434
2215444.0,52.0,114.0,40.0,94.0,2215.444
2215454.0,52.0,114.0,37.0,90.0,2215.454
2215464.0,51.0,113.0,32.0,92.0,2215.464
2215474.0,51.0,114.0,30.0,95.0,2215.474
2215484.0,50.0,111.0,34.0,98.0,2215.484
2215494.0,51.0,113.0,33.0,95.0,2215.494
2215504.0,50.0,114.0,30.0,96.0,2215.504
2215514.0,50.0,113.0,26.0,90.0,2215.514
2215524.0,48.0,112.0,25.0,89.0,2215.524
2215534.0,47.0,113.0,22.0,88.0,2215.534
2215544.0,48.0,111.0,23.0,103.0,2215.544
2215554.0,48.0,108.0,30.0,102.0,2215.554
2215564.0,49.0,109.0,26.0,95.0,2215.564
2215574.0,48.0,107.0,24.0,102.0,2215.574
2215584.0,48.0,108.0,26.0,104.0,2215.584
2215595.0,47.0,108.0,23.0,103.0,2215.595
2215605.0,47.0,106.0,36.0,106.0,2215.605
2215615.0,48.0,106.0,42.0,103.0,2215.615
2215625.0,48.0,107.0,35.0,93.0,2215.625
2215635.0,46.0,108.0,31.0,92.0,2215.635
2215645.0,46.0,108.0,28.0,97.0,2215.645
2215655.0,46.0,109.0,25.0,94.0,2215.655
2215665.0,46.0,106.0,31.0,95.0,2215.665
2215675.0,47.0,106.0,44.0,91.0,2215.675
2215685.0,47.0,108.0,47.0,90.0,2215.685
2215695.0,47.0,107.0,40.0,88.0,2215.695
2215705.0,46.0,108.0,36.0,87.0,2215.705
2215715.0,45.0,108.0,35.0,95.0,2215.715
2215725.0,46.0,107.0,35.0,97.0,2215.725
2215735.0,46.0,108.0,33.0,88.0,2215.735
2215745.0,45.0,108.0,29.0,90.0,2215.745
2215755.0,45.0,110.0,25.0,85.0,2215.755
2215766.0,44.0,110.0,23.0,83.0,2215.766
2215776.0,42.0,110.0,20.0,80.0,2215.776
2215786.0,43.0,109.0,18.0,80.0,2215.786
2215796.0,43.0,112.0,17.0,86.0,2215.796
2215806.0,44.0,111.0,20.0,86.0,2215.806
2215816.0,44.0,110.0,23.0,86.0,2215.816
2215826.0,45.0,108.0,35.0,93.0,2215.826
2215836.0,49.0,110.0,33.0,95.0,2215.836
2215846.0,48.0,110.0,40.0,95.0,2215.846
2215856.0,50.0,112.0,39.0,97.0,2215.856
2215866.0,50.0,111.0,35.0,92.0,2215.866
2215876.0,51.0,109.0,31.0,87.0,2215.876
2215886.0,50.0,107.0,27.0,87.0,2215.886
2215896.0,49.0,106.0,25.0,85.0,2215.896
2215906.0,49.0,105.0,23.0,82.0,2215.906
2215916.0,48.0,104.0,20.0,82.0,2215.916
2215926.0,46.0,103.0,22.0,85.0,2215.926
2215936.0,46.0,100.0,31.0,85.0,2215.936
2215946.0,46.0,101.0,34.0,92.0,2215.946
2215956.0,46.0,101.0,32.0,94.0,2215.956
2215966.0,47.0,100.0,29.0,94.0,2215.966
2215976.0,45.0,99.0,27.0,89.0,2215.976
2215986.0,46.0,99.0,26.0,85.0,2215.986
2215996.0,45.0,98.0,22.0,82.0,2215.996
2216006.0,46.0,96.0,32.0,83.0,2216.006
2216016.0,45.0,95.0,33.0,85.0,2216.016
2216026.0,44.0,94.0,31.0,90.0,2216.026
2216036.0,45.0,92.0,27.0,89.0,2216.036
2216046.0,45.0,90.0,24.0,90.0,2216.046
2216056.0,45.0,90.0,23.0,83.0,2216.056
2216066.0,44.0,89.0,22.0,81.0,2216.066
2216076.0,46.0,88.0,19.0,77.0,2216.076
2216086.0,47.0,88.0,27.0,77.0,2216.086
2216096.0,47.0,89.0,24.0,77.0,2216.096
2216107.0,48.0,87.0,26.0,91.0,2216.107
2216117.0,48.0,89.0,25.0,84.0,2216.117
2216127.0,49.0,88.0,26.0,81.0,2216.127
2216137.0,50.0,88.0,34.0,86.0,2216.137
2216147.0,50.0,88.0,31.0,80.0,2216.147
2216157.0,49.0,86.0,28.0,81.0,2216.157
2216167.0,50.0,85.0,30.0,88.0,2216.167
2216177.0,49.0,82.0,30.0,80.0,2216.177
2216187.0,49.0,82.0,27.0,75.0,2216.187
2216197.0,50.0,80.0,30.0,84.0,2216.197
2216207.0,51.0,79.0,35.0,86.0,2216.207
2216217.0,52.0,79.0,33.0,84.0,2216.217
2216227.0,51.0,76.0,34.0,87.0,2216.227
2216237.0,52.0,78.0,32.0,83.0,2216.237
2216247.0,52.0,76.0,28.0,80.0,2216.247
2216257.0,53.0,76.0,25.0,89.0,2216.257
2216267.0,51.0,74.0,30.0,88.0,2216.267
2216278.0,53.0,73.0,30.0,85.0,2216.278
2216288.0,53.0,76.0,38.0,83.0,2216.288
2216298.0,51.0,75.0,40.0,104.0,2216.298
2216308.0,52.0,76.0,40.0,100.0,2216.308
2216318.0,51.0,76.0,36.0,93.0,2216.318
2216328.0,52.0,74.0,33.0,90.0,2216.328
2216338.0,51.0,73.0,48.0,94.0,2216.338
2216348.0,53.0,72.0,48.0,91.0,2216.348
2216358.0,51.0,70.0,44.0,96.0,2216.358
2216368.0,52.0,71.0,40.0,91.0,2216.368
2216378.0,50.0,68.0,35.0,97.0,2216.378
2216388.0,50.0,67.0,31.0,94.0,2216.388
2216398.0,48.0,66.0,34.0,96.0,2216.398
2216408.0,48.0,64.0,44.0,99.0,2216.408
2216418.0,51.0,65.0,43.0,94.0,2216.418
2216428.0,51.0,65.0,38.0,98.0,2216.428
2216438.0,50.0,63.0,38.0,95.0,2216.438
2216448.0,51.0,64.0,49.0,93.0,2216.448
2216458.0,51.0,63.0,43.0,90.0,2216.458
2216468.0,52.0,59.0,40.0,93.0,2216.468
2216478.0,51.0,58.0,43.0,90.0,2216.478
2216488.0,51.0,56.0,37.0,90.0,2216.488
2216498.0,51.0,55.0,36.0,93.0,2216.498
2216508.0,50.0,55.0,40.0,106.0,2216.508
2216518.0,50.0,53.0,44.0,107.0,2216.518
2216528.0,49.0,54.0,43.0,107.0,2216.528
2216538.0,49.0,54.0,59.0,108.0,2216.538
2216548.0,49.0,54.0,55.0,103.0,2216.548
2216558.0,49.0,53.0,49.0,104.0,2216.558
2216568.0,49.0,51.0,48.0,102.0,2216.568
2216578.0,48.0,52.0,42.0,104.0,2216.578
2216588.0,49.0,52.0,52.0,110.0,2216.588
2216598.0,49.0,53.0,50.0,109.0,2216.598
2216608.0,49.0,53.0,46.0,104.0,2216.608
2216619.0,50.0,54.0,41.0,100.0,2216.619
2216629.0,49.0,53.0,35.0,108.0,2216.629
2216639.0,51.0,52.0,33.0,118.0,2216.639
2216649.0,52.0,55.0,33.0,110.0,2216.649
2216659.0,51.0,55.0,32.0,109.0,2216.659
2216669.0,51.0,55.0,28.0,112.0,2216.669
2216679.0,51.0,55.0,27.0,110.0,2216.679
2216689.0,52.0,54.0,31.0,106.0,2216.689
2216699.0,53.0,56.0,43.0,114.0,2216.699
2216709.0,53.0,57.0,40.0,113.0,2216.709
2216719.0,52.0,57.0,34.0,112.0,2216.719
2216729.0,52.0,57.0,30.0,115.0,2216.729
2216739.0,52.0,55.0,32.0,120.0,2216.739
2216749.0,53.0,56.0,30.0,118.0,2216.749
2216759.0,52.0,54.0,36.0,122.0,2216.759
2216769.0,52.0,55.0,31.0,115.0,2216.769
2216779.0,53.0,56.0,28.0,115.0,2216.779
2216790.0,53.0,56.0,25.0,119.0,2216.79
2216800.0,52.0,57.0,22.0,119.0,2216.8
2216810.0,52.0,53.0,20.0,127.0,2216.81
2216820.0,52.0,55.0,23.0,124.0,2216.82
2216830.0,53.0,56.0,35.0,114.0,2216.83
2216840.0,55.0,56.0,33.0,121.0,2216.84
2216850.0,55.0,56.0,29.0,131.0,2216.85
2216860.0,55.0,55.0,30.0,145.0,2216.86
2216870.0,54.0,54.0,38.0,162.0,2216.87
2216880.0,55.0,57.0,34.0,170.0,2216.88
2216890.0,56.0,56.0,31.0,177.0,2216.89
2216900.0,58.0,57.0,27.0,198.0,2216.9
2216910.0,58.0,54.0,25.0,221.0,2216.91
2216920.0,58.0,54.0,27.0,245.0,2216.92
2216930.0,61.0,55.0,48.0,268.0,2216.93
2216940.0,60.0,55.0,40.0,294.0,2216.94
2216950.0,60.0,53.0,39.0,331.0,2216.95
2216960.0,59.0,52.0,35.0,358.0,2216.96
2216970.0,58.0,53.0,33.0,410.0,2216.97
2216980.0,58.0,52.0,34.0,472.0,2216.98
2216990.0,58.0,55.0,42.0,537.0,2216.99
2217000.0,60.0,58.0,38.0,591.0,2217.0
2217010.0,61.0,59.0,34.0,643.0,2217.01
2217020.0,60.0,59.0,32.0,667.0,2217.02
2217030.0,60.0,58.0,29.0,667.0,2217.03
2217040.0,59.0,60.0,34.0,668.0,2217.04
2217050.0,61.0,60.0,44.0,667.0,2217.05
2217060.0,62.0,63.0,40.0,668.0,2217.06
2217070.0,60.0,63.0,45.0,668.0,2217.07
2217080.0,61.0,63.0,55.0,668.0,2217.08
2217090.0,60.0,65.0,60.0,667.0,2217.09
2217100.0,61.0,65.0,52.0,667.0,2217.1
2217110.0,60.0,65.0,47.0,668.0,2217.11
2217120.0,59.0,65.0,41.0,667.0,2217.12
2217131.0,59.0,66.0,36.0,668.0,2217.131
2217141.0,58.0,66.0,32.0,667.0,2217.141
2217151.0,58.0,63.0,30.0,667.0,2217.151
2217161.0,55.0,64.0,44.0,668.0,2217.161
2217171.0,56.0,66.0,40.0,667.0,2217.171
2217181.0,55.0,66.0,38.0,667.0,2217.181
2217191.0,55.0,65.0,34.0,667.0,2217.191
2217201.0,53.0,64.0,33.0,667.0,2217.201
2217211.0,55.0,65.0,39.0,668.0,2217.211
2217221.0,56.0,66.0,35.0,667.0,2217.221
2217231.0,56.0,66.0,36.0,667.0,2217.231
2217241.0,54.0,65.0,33.0,667.0,2217.241
2217251.0,55.0,63.0,29.0,667.0,2217.251
2217261.0,55.0,63.0,27.0,668.0,2217.261
2217271.0,54.0,60.0,26.0,667.0,2217.271
2217281.0,56.0,62.0,37.0,661.0,2217.281
2217291.0,53.0,62.0,36.0,651.0,2217.291
2217302.0,55.0,62.0,36.0,640.0,2217.302
2217312.0,55.0,62.0,33.0,628.0,2217.312
2217322.0,54.0,59.0,31.0,610.0,2217.322
2217332.0,54.0,59.0,27.0,589.0,2217.332
2217342.0,53.0,57.0,31.0,577.0,2217.342
2217352.0,53.0,56.0,40.0,572.0,2217.352
2217362.0,51.0,56.0,36.0,556.0,2217.362
2217372.0,53.0,54.0,35.0,547.0,2217.372
2217382.0,53.0,53.0,35.0,532.0,2217.382
2217392.0,54.0,52.0,32.0,511.0,2217.392
2217402.0,53.0,49.0,32.0,503.0,2217.402
2217412.0,55.0,54.0,50.0,499.0,2217.412
2217422.0,57.0,52.0,46.0,486.0,2217.422
2217432.0,56.0,51.0,41.0,461.0,2217.432
2217442.0,57.0,50.0,37.0,450.0,2217.442
2217452.0,56.0,50.0,48.0,454.0,2217.452
2217462.0,55.0,49.0,43.0,436.0,2217.462
2217472.0,58.0,50.0,39.0,423.0,2217.472
2217482.0,57.0,51.0,35.0,416.0,2217.482
2217492.0,58.0,48.0,32.0,404.0,2217.492
2217502.0,57.0,48.0,33.0,391.0,2217.502
2217512.0,57.0,47.0,33.0,386.0,2217.512
2217522.0,58.0,47.0,30.0,383.0,2217.522
2217532.0,56.0,49.0,39.0,368.0,2217.532
2217542.0,58.0,47.0,37.0,358.0,2217.542
2217552.0,59.0,48.0,33.0,353.0,2217.552
2217562.0,58.0,46.0,29.0,348.0,2217.562
2217572.0,57.0,46.0,33.0,336.0,2217.572
2217582.0,56.0,47.0,36.0,334.0,2217.582
2217592.0,58.0,46.0,35.0,325.0,2217.592
2217602.0,59.0,47.0,30.0,324.0,2217.602
2217612.0,58.0,47.0,29.0,309.0,2217.612
2217622.0,59.0,47.0,29.0,301.0,2217.622
2217632.0,59.0,47.0,26.0,292.0,2217.632
2217643.0,59.0,47.0,46.0,287.0,2217.643
2217653.0,59.0,47.0,43.0,286.0,2217.653
2217663.0,62.0,48.0,38.0,289.0,2217.663
2217673.0,62.0,47.0,34.0,276.0,2217.673
2217683.0,63.0,49.0,30.0,264.0,2217.683
2217693.0,62.0,47.0,27.0,269.0,2217.693
2217703.0,64.0,49.0,37.0,263.0,2217.703
2217713.0,62.0,48.0,35.0,258.0,2217.713
2217723.0,64.0,51.0,31.0,249.0,2217.723
2217733.0,65.0,51.0,28.0,249.0,2217.733
2217743.0,66.0,51.0,27.0,241.0,2217.743
2217753.0,64.0,51.0,30.0,241.0,2217.753
2217763.0,64.0,52.0,40.0,229.0,2217.763
2217773.0,64.0,53.0,35.0,223.0,2217.773
2217783.0,63.0,49.0,31.0,221.0,2217.783
2217793.0,62.0,48.0,29.0,213.0,2217.793
2217803.0,61.0,48.0,26.0,207.0,2217.803
2217814.0,62.0,47.0,23.0,204.0,2217.814
2217824.0,58.0,46.0,30.0,206.0,2217.824
2217834.0,59.0,48.0,31.0,189.0,2217.834
2217844.0,57.0,48.0,28.0,189.0,2217.844
2217854.0,56.0,47.0,25.0,188.0,2217.854
2217864.0,55.0,46.0,24.0,181.0,2217.864
2217874.0,56.0,46.0,21.0,174.0,2217.874
2217884.0,56.0,46.0,18.0,171.0,2217.884
2217894.0,55.0,45.0,18.0,171.0,2217.894
2217904.0,55.0,45.0,19.0,169.0,2217.904
2217914.0,54.0,45.0,27.0,179.0,2217.914
2217924.0,55.0,46.0,24.0,164.0,2217.924
2217934.0,54.0,46.0,26.0,156.0,2217.934
2217944.0,55.0,48.0,24.0,152.0,2217.944
2217954.0,57.0,48.0,28.0,155.0,2217.954
2217964.0,56.0,48.0,28.0,152.0,2217.964
2217974.0,55.0,47.0,34.0,146.0,2217.974
2217984.0,58.0,49.0,36.0,142.0,2217.984
2217994.0,57.0,48.0,32.0,147.0,2217.994
2218004.0,56.0,46.0,31.0,141.0,2218.004
2218014.0,56.0,46.0,27.0,138.0,2218.014
2218024.0,55.0,44.0,30.0,150.0,2218.024
2218034.0,54.0,44.0,36.0,144.0,2218.034
2218044.0,54.0,45.0,37.0,142.0,2218.044
2218054.0,55.0,45.0,32.0,133.0,2218.054
2218064.0,54.0,47.0,27.0,129.0,2218.064
2218074.0,54.0,46.0,28.0,127.0,2218.074
2218084.0,55.0,47.0,26.0,124.0,2218.084
2218094.0,55.0,47.0,29.0,125.0,2218.094
2218104.0,56.0,49.0,32.0,126.0,2218.104
2218114.0,55.0,50.0,28.0,125.0,2218.114
2218124.0,55.0,50.0,26.0,117.0,2218.124
2218134.0,55.0,51.0,23.0,113.0,2218.134
2218144.0,54.0,49.0,22.0,110.0,2218.144
2218155.0,54.0,50.0,30.0,112.0,2218.155
2218165.0,54.0,50.0,27.0,115.0,2218.165
2218175.0,56.0,49.0,25.0,112.0,2218.175
2218185.0,54.0,49.0,26.0,108.0,2218.185
2218195.0,53.0,47.0,25.0,105.0,2218.195
2218205.0,55.0,47.0,22.0,106.0,2218.205
2218215.0,55.0,49.0,27.0,104.0,2218.215
2218225.0,55.0,47.0,26.0,103.0,2218.225
2218235.0,56.0,48.0,25.0,101.0,2218.235
2218245.0,56.0,47.0,24.0,96.0,2218.245
2218255.0,55.0,46.0,20.0,98.0,2218.255
2218265.0,55.0,47.0,19.0,91.0,2218.265
2218275.0,55.0,45.0,17.0,88.0,2218.275
2218285.0,56.0,47.0,32.0,89.0,2218.285
2218295.0,54.0,45.0,32.0,95.0,2218.295
2218305.0,55.0,45.0,29.0,90.0,2218.305
2218315.0,53.0,44.0,26.0,84.0,2218.315
