time (ms),signal 0,signal 1,signal 2,signal3,time (sec)
2221723.0,52.0,43.0,33.0,68.0,2221.723
2221733.0,53.0,42.0,31.0,64.0,2221.733
2221743.0,53.0,44.0,30.0,60.0,2221.743
2221753.0,54.0,44.0,28.0,62.0,2221.753
2221763.0,56.0,45.0,28.0,59.0,2221.763
2221773.0,54.0,46.0,24.0,59.0,2221.773
2221783.0,55.0,47.0,31.0,62.0,2221.783
2221793.0,55.0,47.0,30.0,61.0,2221.793
2221803.0,55.0,48.0,29.0,56.0,2221.803
2221813.0,56.0,46.0,28.0,56.0,2221.813
2221824.0,54.0,49.0,24.0,58.0,2221.824
2221834.0,54.0,49.0,33.0,59.0,2221.834
2221844.0,55.0,47.0,31.0,63.0,2221.844
2221854.0,54.0,46.0,28.0,61.0,2221.854
2221864.0,54.0,45.0,29.0,59.0,2221.864
2221874.0,55.0,44.0,25.0,59.0,2221.874
2221884.0,55.0,43.0,25.0,58.0,2221.884
2221894.0,54.0,43.0,22.0,56.0,2221.894
2221904.0,54.0,45.0,35.0,57.0,2221.904
2221914.0,53.0,43.0,31.0,56.0,2221.914
2221924.0,55.0,44.0,29.0,56.0,2221.924
2221934.0,55.0,43.0,29.0,56.0,2221.934
2221944.0,55.0,43.0,25.0,54.0,2221.944
2221954.0,55.0,43.0,26.0,52.0,2221.954
2221964.0,53.0,44.0,24.0,53.0,2221.964
2221974.0,52.0,47.0,35.0,52.0,2221.974
2221984.0,53.0,46.0,39.0,51.0,2221.984
2221995.0,53.0,47.0,37.0,54.0,2221.995
2222005.0,52.0,45.0,34.0,51.0,2222.005
2222015.0,51.0,45.0,29.0,50.0,2222.015
2222025.0,49.0,44.0,28.0,51.0,2222.025
2222035.0,49.0,43.0,24.0,51.0,2222.035
2222045.0,48.0,43.0,22.0,56.0,2222.045
2222055.0,49.0,46.0,55.0,63.0,2222.055
2222065.0,49.0,46.0,51.0,71.0,2222.065
2222075.0,48.0,44.0,45.0,67.0,2222.075
2222085.0,48.0,46.0,42.0,65.0,2222.085
2222095.0,47.0,45.0,38.0,60.0,2222.095
2222105.0,47.0,44.0,34.0,56.0,2222.105
2222115.0,46.0,44.0,28.0,53.0,2222.115
2222125.0,46.0,44.0,26.0,49.0,2222.125
2222135.0,46.0,44.0,23.0,47.0,2222.135
2222145.0,45.0,44.0,20.0,44.0,2222.145
2222155.0,45.0,44.0,18.0,42.0,2222.155
2222166.0,45.0,44.0,19.0,43.0,2222.166
2222176.0,46.0,46.0,23.0,45.0,2222.176
2222186.0,44.0,46.0,35.0,48.0,2222.186
2222196.0,44.0,45.0,33.0,45.0,2222.196
2222206.0,46.0,45.0,30.0,46.0,2222.206
2222216.0,46.0,44.0,27.0,43.0,2222.216
2222226.0,45.0,52.0,25.0,43.0,2222.226
2222236.0,45.0,52.0,21.0,42.0,2222.236
2222246.0,47.0,49.0,20.0,42.0,2222.246
2222256.0,47.0,52.0,17.0,44.0,2222.256
2222266.0,48.0,55.0,15.0,57.0,2222.266
2222276.0,52.0,53.0,14.0,56.0,2222.276
2222286.0,52.0,55.0,12.0,58.0,2222.286
2222296.0,53.0,55.0,11.0,56.0,2222.296
2222306.0,56.0,56.0,9.0,62.0,2222.306
2222316.0,54.0,61.0,10.0,59.0,2222.316
2222326.0,54.0,76.0,11.0,65.0,2222.326
2222336.0,56.0,102.0,12.0,75.0,2222.336
2222346.0,59.0,121.0,18.0,76.0,2222.346
2222356.0,65.0,123.0,15.0,77.0,2222.356
2222366.0,71.0,123.0,15.0,76.0,2222.366
2222376.0,72.0,156.0,22.0,76.0,2222.376
2222386.0,77.0,156.0,28.0,75.0,2222.386
2222396.0,77.0,155.0,33.0,137.0,2222.396
2222406.0,77.0,161.0,28.0,144.0,2222.406
2222416.0,76.0,173.0,28.0,132.0,2222.416
2222426.0,76.0,172.0,28.0,126.0,2222.426
2222436.0,75.0,181.0,29.0,139.0,2222.436
2222446.0,76.0,190.0,31.0,141.0,2222.446
2222456.0,75.0,203.0,48.0,134.0,2222.456
2222466.0,79.0,209.0,52.0,129.0,2222.466
2222476.0,76.0,214.0,44.0,128.0,2222.476
2222486.0,76.0,235.0,42.0,128.0,2222.486
2222496.0,80.0,235.0,38.0,123.0,2222.496
2222507.0,77.0,234.0,36.0,167.0,2222.507
2222517.0,75.0,261.0,32.0,176.0,2222.517
2222527.0,73.0,257.0,29.0,181.0,2222.527
2222537.0,72.0,268.0,28.0,172.0,2222.537
2222547.0,71.0,277.0,32.0,169.0,2222.547
2222557.0,69.0,272.0,36.0,168.0,2222.557
2222567.0,67.0,277.0,35.0,167.0,2222.567
2222577.0,64.0,284.0,34.0,175.0,2222.577
2222587.0,63.0,289.0,33.0,164.0,2222.587
2222597.0,62.0,298.0,30.0,161.0,2222.597
2222607.0,61.0,299.0,31.0,180.0,2222.607
2222617.0,62.0,309.0,30.0,192.0,2222.617
2222627.0,62.0,316.0,28.0,197.0,2222.627
2222637.0,61.0,309.0,30.0,213.0,2222.637
2222647.0,59.0,308.0,30.0,202.0,2222.647
2222657.0,59.0,312.0,27.0,195.0,2222.657
2222667.0,64.0,309.0,39.0,199.0,2222.667
2222678.0,63.0,313.0,45.0,205.0,2222.678
2222688.0,63.0,314.0,40.0,193.0,2222.688
2222698.0,62.0,311.0,35.0,184.0,2222.698
2222708.0,63.0,306.0,32.0,181.0,2222.708
2222718.0,62.0,304.0,27.0,174.0,2222.718
2222728.0,61.0,300.0,26.0,176.0,2222.728
2222738.0,61.0,304.0,24.0,175.0,2222.738
2222748.0,59.0,294.0,23.0,173.0,2222.748
2222758.0,59.0,288.0,27.0,168.0,2222.758
2222768.0,59.0,284.0,25.0,153.0,2222.768
2222778.0,59.0,276.0,29.0,155.0,2222.778
2222788.0,58.0,268.0,26.0,174.0,2222.788
2222798.0,55.0,266.0,24.0,178.0,2222.798
2222808.0,56.0,262.0,24.0,172.0,2222.808
2222818.0,55.0,254.0,21.0,174.0,2222.818
2222828.0,54.0,251.0,21.0,172.0,2222.828
2222838.0,54.0,248.0,20.0,158.0,2222.838
2222848.0,54.0,243.0,26.0,158.0,2222.848
2222858.0,56.0,237.0,23.0,157.0,2222.858
2222868.0,54.0,233.0,20.0,156.0,2222.868
2222878.0,53.0,232.0,18.0,157.0,2222.878
2222888.0,51.0,228.0,16.0,168.0,2222.888
2222898.0,52.0,223.0,16.0,178.0,2222.898
2222908.0,53.0,225.0,16.0,172.0,2222.908
2222918.0,54.0,214.0,14.0,164.0,2222.918
2222928.0,55.0,210.0,15.0,161.0,2222.928
2222938.0,53.0,205.0,13.0,159.0,2222.938
2222948.0,52.0,206.0,11.0,161.0,2222.948
2222958.0,53.0,204.0,11.0,169.0,2222.958
2222968.0,53.0,197.0,12.0,157.0,2222.968
2222978.0,56.0,195.0,13.0,147.0,2222.978
2222988.0,54.0,190.0,11.0,159.0,2222.988
2222998.0,53.0,185.0,10.0,161.0,2222.998
2223008.0,54.0,187.0,12.0,144.0,2223.008
2223019.0,56.0,184.0,24.0,137.0,2223.019
2223029.0,54.0,179.0,21.0,138.0,2223.029
2223039.0,57.0,175.0,18.0,143.0,2223.039
2223049.0,56.0,173.0,17.0,136.0,2223.049
2223059.0,55.0,171.0,18.0,133.0,2223.059
2223069.0,54.0,167.0,16.0,122.0,2223.069
2223079.0,54.0,163.0,16.0,144.0,2223.079
2223089.0,54.0,163.0,16.0,140.0,2223.089
2223099.0,53.0,160.0,14.0,138.0,2223.099
2223109.0,54.0,160.0,13.0,129.0,2223.109
2223119.0,53.0,158.0,12.0,136.0,2223.119
2223129.0,53.0,155.0,11.0,133.0,2223.129
2223139.0,53.0,152.0,10.0,131.0,2223.139
2223149.0,55.0,151.0,10.0,125.0,2223.149
2223159.0,56.0,148.0,9.0,155.0,2223.159
2223169.0,57.0,142.0,10.0,162.0,2223.169
2223179.0,58.0,143.0,10.0,157.0,2223.179
2223190.0,57.0,142.0,10.0,146.0,2223.19
2223200.0,58.0,138.0,9.0,132.0,2223.2
2223210.0,56.0,133.0,7.0,122.0,2223.21
2223220.0,56.0,127.0,8.0,156.0,2223.22
2223230.0,57.0,127.0,8.0,147.0,2223.23
2223240.0,57.0,121.0,8.0,137.0,2223.24
2223250.0,57.0,120.0,8.0,141.0,2223.25
2223260.0,55.0,119.0,8.0,152.0,2223.26
2223270.0,56.0,115.0,9.0,150.0,2223.27
2223280.0,55.0,116.0,7.0,147.0,2223.28
2223290.0,55.0,113.0,11.0,149.0,2223.29
2223300.0,58.0,109.0,14.0,148.0,2223.3
2223310.0,57.0,103.0,11.0,150.0,2223.31
2223320.0,59.0,100.0,11.0,160.0,2223.32
2223330.0,57.0,99.0,11.0,156.0,2223.33
2223340.0,58.0,95.0,11.0,158.0,2223.34
2223350.0,56.0,95.0,9.0,156.0,2223.35
2223360.0,54.0,95.0,8.0,158.0,2223.36
2223370.0,56.0,92.0,8.0,154.0,2223.37
2223380.0,57.0,97.0,11.0,144.0,2223.38
2223390.0,55.0,90.0,11.0,150.0,2223.39
2223400.0,58.0,90.0,12.0,144.0,2223.4
2223410.0,57.0,87.0,12.0,152.0,2223.41
2223420.0,59.0,87.0,12.0,160.0,2223.42
2223430.0,56.0,87.0,10.0,165.0,2223.43
2223440.0,57.0,84.0,11.0,183.0,2223.44
2223450.0,57.0,86.0,10.0,186.0,2223.45
2223460.0,57.0,89.0,9.0,174.0,2223.46
2223470.0,55.0,86.0,8.0,171.0,2223.47
2223480.0,53.0,84.0,8.0,163.0,2223.48
2223490.0,54.0,85.0,8.0,159.0,2223.49
2223500.0,53.0,85.0,6.0,168.0,2223.5
2223510.0,53.0,85.0,7.0,174.0,2223.51
2223520.0,52.0,83.0,8.0,169.0,2223.52
2223531.0,52.0,81.0,9.0,157.0,2223.531
2223541.0,53.0,78.0,9.0,173.0,2223.541
2223551.0,53.0,79.0,8.0,172.0,2223.551
2223561.0,54.0,78.0,9.0,162.0,2223.561
2223571.0,53.0,77.0,8.0,158.0,2223.571
2223581.0,53.0,73.0,7.0,161.0,2223.581
2223591.0,56.0,73.0,10.0,186.0,2223.591
2223601.0,55.0,73.0,9.0,177.0,2223.601
2223611.0,53.0,70.0,9.0,160.0,2223.611
2223621.0,52.0,68.0,9.0,164.0,2223.621
2223631.0,53.0,66.0,10.0,186.0,2223.631
2223641.0,51.0,68.0,9.0,177.0,2223.641
2223651.0,52.0,64.0,8.0,165.0,2223.651
2223661.0,52.0,68.0,8.0,158.0,2223.661
2223671.0,51.0,68.0,7.0,159.0,2223.671
2223681.0,52.0,64.0,7.0,156.0,2223.681
2223691.0,51.0,64.0,7.0,150.0,2223.691
2223702.0,51.0,66.0,7.0,152.0,2223.702
2223712.0,52.0,64.0,6.0,144.0,2223.712
2223722.0,50.0,66.0,6.0,142.0,2223.722
2223732.0,50.0,63.0,5.0,147.0,2223.732
2223742.0,50.0,66.0,5.0,151.0,2223.742
2223752.0,51.0,62.0,5.0,140.0,2223.752
2223762.0,50.0,61.0,5.0,140.0,2223.762
2223772.0,49.0,62.0,6.0,150.0,2223.772
2223782.0,49.0,65.0,5.0,141.0,2223.782
2223792.0,48.0,65.0,4.0,131.0,2223.792
2223802.0,49.0,63.0,7.0,135.0,2223.802
2223812.0,50.0,68.0,7.0,150.0,2223.812
2223822.0,49.0,63.0,7.0,151.0,2223.822
2223832.0,49.0,61.0,11.0,148.0,2223.832
2223842.0,49.0,59.0,12.0,152.0,2223.842
2223852.0,50.0,58.0,13.0,154.0,2223.852
2223862.0,48.0,58.0,10.0,158.0,2223.862
2223872.0,49.0,59.0,11.0,165.0,2223.872
2223882.0,48.0,58.0,10.0,182.0,2223.882
2223892.0,50.0,57.0,10.0,166.0,2223.892
2223902.0,51.0,62.0,14.0,158.0,2223.902
2223912.0,49.0,61.0,13.0,154.0,2223.912
2223922.0,49.0,59.0,14.0,145.0,2223.922
2223932.0,50.0,59.0,14.0,149.0,2223.932
2223942.0,48.0,61.0,14.0,155.0,2223.942
2223952.0,47.0,57.0,12.0,151.0,2223.952
2223962.0,47.0,58.0,11.0,159.0,2223.962
2223972.0,47.0,56.0,11.0,160.0,2223.972
2223982.0,50.0,61.0,11.0,154.0,2223.982
2223992.0,50.0,63.0,10.0,152.0,2223.992
2224002.0,50.0,60.0,13.0,163.0,2224.002
2224012.0,48.0,59.0,12.0,153.0,2224.012
2224022.0,50.0,57.0,12.0,141.0,2224.022
2224032.0,50.0,57.0,11.0,166.0,2224.032
2224043.0,51.0,55.0,16.0,182.0,2224.043
2224053.0,50.0,58.0,15.0,176.0,2224.053
2224063.0,52.0,61.0,20.0,200.0,2224.063
2224073.0,54.0,61.0,21.0,197.0,2224.073
2224083.0,54.0,61.0,16.0,201.0,2224.083
2224093.0,55.0,60.0,16.0,223.0,2224.093
2224103.0,55.0,60.0,15.0,207.0,2224.103
2224113.0,54.0,58.0,14.0,200.0,2224.113
2224123.0,54.0,60.0,13.0,185.0,2224.123
2224133.0,53.0,58.0,12.0,182.0,2224.133
2224143.0,52.0,58.0,14.0,177.0,2224.143
2224153.0,53.0,65.0,12.0,173.0,2224.153
2224163.0,52.0,61.0,10.0,177.0,2224.163
2224173.0,52.0,60.0,10.0,200.0,2224.173
2224183.0,51.0,60.0,9.0,203.0,2224.183
2224193.0,53.0,60.0,9.0,210.0,2224.193
2224203.0,52.0,59.0,13.0,220.0,2224.203
2224214.0,52.0,59.0,15.0,213.0,2224.214
2224224.0,53.0,64.0,14.0,223.0,2224.224
2224234.0,56.0,64.0,15.0,206.0,2224.234
2224244.0,57.0,61.0,16.0,201.0,2224.244
2224254.0,57.0,62.0,17.0,202.0,2224.254
2224264.0,57.0,63.0,18.0,194.0,2224.264
2224274.0,55.0,61.0,18.0,176.0,2224.274
2224284.0,55.0,60.0,18.0,181.0,2224.284
2224294.0,56.0,59.0,16.0,177.0,2224.294
2224304.0,57.0,66.0,16.0,238.0,2224.304
2224314.0,57.0,64.0,18.0,225.0,2224.314
2224324.0,62.0,64.0,19.0,219.0,2224.324
2224334.0,67.0,68.0,24.0,228.0,2224.334
2224344.0,65.0,63.0,20.0,219.0,2224.344
2224354.0,64.0,61.0,18.0,203.0,2224.354
2224364.0,63.0,63.0,17.0,195.0,2224.364
2224374.0,64.0,64.0,18.0,202.0,2224.374
2224384.0,64.0,68.0,22.0,217.0,2224.384
2224394.0,67.0,72.0,23.0,207.0,2224.394
2224404.0,67.0,70.0,21.0,202.0,2224.404
2224414.0,80.0,71.0,20.0,202.0,2224.414
2224424.0,81.0,79.0,26.0,199.0,2224.424
2224434.0,85.0,83.0,39.0,194.0,2224.434
2224444.0,80.0,84.0,35.0,191.0,2224.444
2224454.0,75.0,80.0,33.0,189.0,2224.454
2224464.0,75.0,77.0,30.0,209.0,2224.464
2224474.0,74.0,75.0,27.0,203.0,2224.474
2224484.0,84.0,70.0,24.0,186.0,2224.484
2224494.0,90.0,69.0,21.0,175.0,2224.494
2224504.0,86.0,71.0,20.0,157.0,2224.504
2224514.0,84.0,70.0,19.0,151.0,2224.514
2224524.0,78.0,70.0,18.0,185.0,2224.524
2224534.0,76.0,70.0,18.0,184.0,2224.534
2224544.0,74.0,69.0,21.0,193.0,2224.544
2224555.0,74.0,68.0,20.0,203.0,2224.555
2224565.0,71.0,68.0,23.0,193.0,2224.565
2224575.0,68.0,64.0,22.0,192.0,2224.575
2224585.0,69.0,66.0,20.0,189.0,2224.585
2224595.0,71.0,64.0,18.0,184.0,2224.595
2224605.0,71.0,61.0,16.0,177.0,2224.605
2224615.0,69.0,61.0,17.0,164.0,2224.615
2224625.0,81.0,63.0,15.0,164.0,2224.625
2224635.0,84.0,63.0,17.0,189.0,2224.635
2224645.0,81.0,66.0,17.0,192.0,2224.645
2224655.0,78.0,65.0,22.0,218.0,2224.655
2224665.0,74.0,66.0,26.0,263.0,2224.665
2224675.0,71.0,63.0,23.0,248.0,2224.675
2224685.0,70.0,60.0,21.0,234.0,2224.685
2224695.0,73.0,61.0,19.0,219.0,2224.695
2224705.0,70.0,62.0,20.0,216.0,2224.705
2224715.0,67.0,61.0,18.0,212.0,2224.715
2224726.0,67.0,63.0,19.0,235.0,2224.726
2224736.0,67.0,67.0,28.0,271.0,2224.736
2224746.0,64.0,63.0,27.0,280.0,2224.746
2224756.0,63.0,63.0,26.0,271.0,2224.756
2224766.0,64.0,67.0,23.0,283.0,2224.766
2224776.0,64.0,64.0,24.0,267.0,2224.776
2224786.0,64.0,63.0,24.0,242.0,2224.786
2224796.0,75.0,70.0,24.0,242.0,2224.796
2224806.0,73.0,67.0,22.0,253.0,2224.806
2224816.0,70.0,66.0,20.0,253.0,2224.816
2224826.0,67.0,62.0,24.0,237.0,2224.826
2224836.0,66.0,62.0,25.0,236.0,2224.836
2224846.0,63.0,58.0,22.0,229.0,2224.846
2224856.0,62.0,59.0,20.0,225.0,2224.856
2224866.0,61.0,57.0,18.0,214.0,2224.866
2224876.0,60.0,58.0,19.0,226.0,2224.876
2224886.0,58.0,60.0,16.0,266.0,2224.886
2224896.0,62.0,61.0,17.0,247.0,2224.896
2224906.0,62.0,61.0,20.0,248.0,2224.906
2224916.0,63.0,59.0,23.0,246.0,2224.916
2224926.0,62.0,60.0,23.0,244.0,2224.926
2224936.0,60.0,60.0,21.0,246.0,2224.936
2224946.0,59.0,59.0,20.0,242.0,2224.946
2224956.0,56.0,60.0,18.0,251.0,2224.956
2224966.0,55.0,61.0,16.0,241.0,2224.966
2224976.0,55.0,61.0,15.0,234.0,2224.976
2224986.0,54.0,61.0,15.0,242.0,2224.986
2224996.0,55.0,62.0,21.0,243.0,2224.996
2225006.0,57.0,63.0,24.0,230.0,2225.006
2225016.0,54.0,63.0,22.0,223.0,2225.016
2225026.0,56.0,62.0,21.0,211.0,2225.026
2225036.0,55.0,62.0,19.0,200.0,2225.036
2225046.0,55.0,63.0,17.0,197.0,2225.046
2225056.0,57.0,66.0,17.0,235.0,2225.056
2225067.0,57.0,68.0,16.0,242.0,2225.067
2225077.0,57.0,66.0,19.0,233.0,2225.077
2225087.0,55.0,66.0,23.0,223.0,2225.087
2225097.0,55.0,67.0,25.0,226.0,2225.097
2225107.0,54.0,70.0,22.0,217.0,2225.107
2225117.0,55.0,66.0,22.0,203.0,2225.117
2225127.0,54.0,69.0,21.0,196.0,2225.127
2225137.0,54.0,64.0,18.0,200.0,2225.137
2225147.0,57.0,70.0,27.0,206.0,2225.147
2225157.0,56.0,72.0,25.0,227.0,2225.157
2225167.0,58.0,69.0,24.0,254.0,2225.167
2225177.0,55.0,73.0,21.0,260.0,2225.177
2225187.0,56.0,69.0,25.0,259.0,2225.187
2225197.0,55.0,72.0,25.0,255.0,2225.197
2225207.0,55.0,74.0,22.0,252.0,2225.207
2225217.0,56.0,74.0,26.0,250.0,2225.217
2225227.0,60.0,76.0,24.0,281.0,2225.227
2225238.0,67.0,74.0,21.0,264.0,2225.238
2225248.0,66.0,72.0,20.0,240.0,2225.248
2225258.0,65.0,72.0,18.0,238.0,2225.258
2225268.0,63.0,73.0,18.0,231.0,2225.268
2225278.0,61.0,78.0,22.0,238.0,2225.278
2225288.0,59.0,78.0,27.0,234.0,2225.288
2225298.0,57.0,78.0,29.0,238.0,2225.298
2225308.0,61.0,78.0,28.0,255.0,2225.308
2225318.0,58.0,80.0,24.0,262.0,2225.318
2225328.0,57.0,78.0,21.0,245.0,2225.328
2225338.0,57.0,77.0,20.0,237.0,2225.338
2225348.0,55.0,79.0,24.0,233.0,2225.348
2225358.0,55.0,81.0,26.0,238.0,2225.358
2225368.0,57.0,81.0,27.0,222.0,2225.368
2225378.0,61.0,80.0,23.0,214.0,2225.378
2225388.0,59.0,83.0,23.0,200.0,2225.388
2225398.0,58.0,89.0,22.0,217.0,2225.398
2225408.0,56.0,84.0,21.0,228.0,2225.408
2225418.0,55.0,82.0,22.0,212.0,2225.418
2225428.0,53.0,82.0,19.0,204.0,2225.428
2225438.0,56.0,86.0,26.0,198.0,2225.438
2225448.0,59.0,92.0,49.0,188.0,2225.448
2225458.0,75.0,91.0,74.0,179.0,2225.458
2225468.0,76.0,90.0,82.0,166.0,2225.468
2225478.0,81.0,88.0,107.0,151.0,2225.478
2225488.0,78.0,86.0,119.0,152.0,2225.488
2225498.0,75.0,84.0,128.0,159.0,2225.498
2225508.0,76.0,86.0,144.0,155.0,2225.508
2225518.0,79.0,82.0,154.0,181.0,2225.518
2225528.0,79.0,77.0,152.0,173.0,2225.528
2225538.0,75.0,73.0,158.0,182.0,2225.538
2225548.0,74.0,75.0,187.0,183.0,2225.548
2225558.0,78.0,76.0,166.0,196.0,2225.558
2225568.0,82.0,76.0,159.0,199.0,2225.568
2225579.0,79.0,74.0,156.0,207.0,2225.579
2225589.0,79.0,75.0,153.0,207.0,2225.589
2225599.0,83.0,79.0,165.0,205.0,2225.599
2225609.0,83.0,82.0,172.0,217.0,2225.609
2225619.0,84.0,86.0,162.0,204.0,2225.619
2225629.0,85.0,85.0,150.0,205.0,2225.629
2225639.0,90.0,93.0,142.0,205.0,2225.639
2225649.0,89.0,94.0,148.0,202.0,2225.649
2225659.0,95.0,100.0,149.0,188.0,2225.659
2225669.0,97.0,103.0,137.0,183.0,2225.669
2225679.0,100.0,108.0,130.0,176.0,2225.679
2225689.0,96.0,106.0,135.0,178.0,2225.689
2225699.0,97.0,112.0,129.0,169.0,2225.699
2225709.0,98.0,118.0,117.0,179.0,2225.709
2225719.0,99.0,123.0,107.0,170.0,2225.719
2225729.0,100.0,124.0,99.0,165.0,2225.729
2225739.0,101.0,128.0,117.0,179.0,2225.739
2225750.0,100.0,130.0,118.0,176.0,2225.75
2225760.0,102.0,136.0,106.0,181.0,2225.76
2225770.0,105.0,141.0,99.0,168.0,2225.77
2225780.0,105.0,145.0,89.0,163.0,2225.78
2225790.0,107.0,150.0,78.0,149.0,2225.79
2225800.0,105.0,150.0,85.0,142.0,2225.8
2225810.0,105.0,155.0,76.0,145.0,2225.81
2225820.0,106.0,157.0,74.0,144.0,2225.82
2225830.0,106.0,161.0,68.0,143.0,2225.83
2225840.0,103.0,162.0,62.0,133.0,2225.84
2225850.0,106.0,165.0,58.0,156.0,2225.85
2225860.0,103.0,166.0,69.0,149.0,2225.86
2225870.0,104.0,167.0,68.0,148.0,2225.87
2225880.0,101.0,169.0,62.0,154.0,2225.88
2225890.0,107.0,168.0,58.0,146.0,2225.89
2225900.0,106.0,167.0,50.0,134.0,2225.9
2225910.0,106.0,166.0,45.0,145.0,2225.91
2225920.0,109.0,165.0,46.0,173.0,2225.92
2225930.0,106.0,163.0,61.0,161.0,2225.93
2225940.0,109.0,164.0,63.0,150.0,2225.94
2225950.0,110.0,165.0,56.0,138.0,2225.95
2225960.0,109.0,164.0,52.0,129.0,2225.96
2225970.0,109.0,160.0,51.0,149.0,2225.97
2225980.0,112.0,166.0,50.0,168.0,2225.98
2225990.0,112.0,167.0,43.0,165.0,2225.99
2226000.0,111.0,169.0,41.0,152.0,2226.0
2226010.0,111.0,167.0,40.0,142.0,2226.01
2226020.0,112.0,166.0,54.0,149.0,2226.02
2226030.0,112.0,167.0,47.0,146.0,2226.03
2226040.0,112.0,166.0,43.0,137.0,2226.04
2226050.0,110.0,165.0,54.0,124.0,2226.05
2226060.0,110.0,163.0,55.0,124.0,2226.06
2226070.0,110.0,162.0,56.0,133.0,2226.07
2226080.0,110.0,165.0,51.0,128.0,2226.08
2226091.0,110.0,164.0,45.0,128.0,2226.091
2226101.0,109.0,161.0,46.0,120.0,2226.101
2226111.0,109.0,159.0,52.0,122.0,2226.111
2226121.0,110.0,161.0,48.0,121.0,2226.121
2226131.0,110.0,160.0,44.0,113.0,2226.131
2226141.0,109.0,159.0,40.0,107.0,2226.141
2226151.0,109.0,157.0,35.0,101.0,2226.151
2226161.0,109.0,154.0,34.0,104.0,2226.161
2226171.0,109.0,152.0,33.0,104.0,2226.171
2226181.0,109.0,152.0,45.0,108.0,2226.181
2226191.0,109.0,150.0,44.0,102.0,2226.191
2226201.0,107.0,149.0,50.0,106.0,2226.201
2226211.0,106.0,149.0,44.0,105.0,2226.211
2226221.0,107.0,149.0,38.0,110.0,2226.221
2226231.0,108.0,148.0,36.0,109.0,2226.231
2226241.0,106.0,146.0,39.0,104.0,2226.241
2226251.0,104.0,145.0,51.0,117.0,2226.251
2226262.0,106.0,147.0,46.0,109.0,2226.262
2226272.0,105.0,147.0,41.0,102.0,2226.272
2226282.0,102.0,143.0,36.0,97.0,2226.282
2226292.0,104.0,143.0,40.0,106.0,2226.292
2226302.0,103.0,142.0,52.0,99.0,2226.302
2226312.0,104.0,141.0,48.0,93.0,2226.312
2226322.0,100.0,139.0,41.0,86.0,2226.322
2226332.0,103.0,136.0,38.0,83.0,2226.332
2226342.0,102.0,134.0,34.0,78.0,2226.342
2226352.0,100.0,132.0,32.0,75.0,2226.352
2226362.0,100.0,129.0,31.0,75.0,2226.362
2226372.0,97.0,124.0,38.0,78.0,2226.372
2226382.0,107.0,123.0,38.0,76.0,2226.382
2226392.0,114.0,120.0,34.0,77.0,2226.392
2226402.0,117.0,120.0,31.0,80.0,2226.402
2226412.0,117.0,119.0,29.0,78.0,2226.412
2226422.0,113.0,116.0,28.0,82.0,2226.422
2226432.0,112.0,115.0,27.0,86.0,2226.432
2226442.0,107.0,112.0,25.0,86.0,2226.442
2226452.0,105.0,110.0,32.0,111.0,2226.452
2226462.0,102.0,107.0,28.0,108.0,2226.462
2226472.0,99.0,104.0,27.0,106.0,2226.472
2226482.0,101.0,101.0,26.0,110.0,2226.482
2226492.0,98.0,95.0,26.0,107.0,2226.492
2226502.0,99.0,95.0,38.0,101.0,2226.502
2226512.0,100.0,94.0,34.0,93.0,2226.512
2226522.0,95.0,90.0,31.0,86.0,2226.522
2226532.0,96.0,87.0,28.0,93.0,2226.532
2226542.0,93.0,84.0,26.0,109.0,2226.542
2226552.0,93.0,82.0,26.0,101.0,2226.552
2226562.0,89.0,79.0,24.0,103.0,2226.562
2226572.0,88.0,79.0,24.0,100.0,2226.572
2226582.0,89.0,77.0,38.0,99.0,2226.582
2226592.0,90.0,73.0,36.0,95.0,2226.592
2226603.0,92.0,70.0,40.0,100.0,2226.603
2226613.0,93.0,70.0,39.0,92.0,2226.613
2226623.0,92.0,68.0,35.0,88.0,2226.623
2226633.0,94.0,68.0,32.0,89.0,2226.633
2226643.0,92.0,65.0,29.0,91.0,2226.643
2226653.0,89.0,63.0,27.0,86.0,2226.653
2226663.0,90.0,63.0,39.0,101.0,2226.663
2226673.0,87.0,60.0,44.0,105.0,2226.673
2226683.0,88.0,61.0,40.0,97.0,2226.683
2226693.0,89.0,58.0,37.0,94.0,2226.693
2226703.0,89.0,55.0,48.0,87.0,2226.703
2226713.0,90.0,58.0,42.0,86.0,2226.713
2226723.0,89.0,57.0,39.0,83.0,2226.723
2226733.0,89.0,58.0,36.0,88.0,2226.733
2226743.0,87.0,58.0,37.0,86.0,2226.743
2226753.0,87.0,59.0,35.0,85.0,2226.753
2226763.0,85.0,58.0,32.0,87.0,2226.763
2226774.0,84.0,60.0,28.0,91.0,2226.774
2226784.0,86.0,59.0,39.0,90.0,2226.784
2226794.0,87.0,63.0,42.0,88.0,2226.794
2226804.0,84.0,62.0,39.0,90.0,2226.804
2226814.0,84.0,61.0,35.0,85.0,2226.814
2226824.0,83.0,61.0,32.0,89.0,2226.824
2226834.0,81.0,59.0,29.0,101.0,2226.834
2226844.0,79.0,59.0,39.0,98.0,2226.844
2226854.0,77.0,59.0,33.0,107.0,2226.854
2226864.0,75.0,61.0,30.0,99.0,2226.864
2226874.0,77.0,63.0,26.0,93.0,2226.874
2226884.0,74.0,63.0,24.0,91.0,2226.884
2226894.0,73.0,61.0,22.0,87.0,2226.894
2226904.0,72.0,61.0,19.0,86.0,2226.904
2226914.0,72.0,59.0,18.0,88.0,2226.914
2226924.0,71.0,58.0,15.0,86.0,2226.924
2226934.0,70.0,59.0,14.0,90.0,2226.934
2226944.0,70.0,56.0,13.0,94.0,2226.944
2226954.0,67.0,54.0,14.0,98.0,2226.954
2226964.0,66.0,53.0,25.0,97.0,2226.964
2226974.0,69.0,55.0,26.0,95.0,2226.974
2226984.0,70.0,53.0,27.0,93.0,2226.984
2226994.0,69.0,53.0,41.0,103.0,2226.994
2227004.0,72.0,53.0,34.0,97.0,2227.004
2227014.0,75.0,51.0,33.0,95.0,2227.014
2227024.0,73.0,52.0,29.0,91.0,2227.024
2227034.0,71.0,50.0,26.0,85.0,2227.034
2227044.0,70.0,49.0,24.0,83.0,2227.044
2227054.0,69.0,49.0,22.0,83.0,2227.054
2227064.0,69.0,46.0,23.0,80.0,2227.064
2227074.0,68.0,48.0,37.0,89.0,2227.074
2227084.0,70.0,48.0,39.0,89.0,2227.084
2227094.0,72.0,47.0,38.0,97.0,2227.094
2227104.0,71.0,46.0,34.0,98.0,2227.104
2227115.0,71.0,45.0,32.0,97.0,2227.115
2227125.0,71.0,45.0,32.0,96.0,2227.125
2227135.0,71.0,45.0,28.0,92.0,2227.135
2227145.0,71.0,46.0,34.0,92.0,2227.145
2227155.0,69.0,46.0,36.0,91.0,2227.155
2227165.0,68.0,45.0,33.0,92.0,2227.165
2227175.0,67.0,45.0,32.0,90.0,2227.175
2227185.0,69.0,46.0,29.0,88.0,2227.185
2227195.0,67.0,47.0,34.0,92.0,2227.195
2227205.0,65.0,46.0,46.0,92.0,2227.205
2227215.0,68.0,48.0,44.0,89.0,2227.215
2227225.0,66.0,48.0,38.0,91.0,2227.225
2227235.0,65.0,47.0,35.0,90.0,2227.235
2227245.0,64.0,47.0,32.0,93.0,2227.245
2227255.0,63.0,47.0,28.0,89.0,2227.255
2227265.0,60.0,44.0,29.0,90.0,2227.265
2227275.0,59.0,45.0,33.0,103.0,2227.275
2227286.0,59.0,43.0,32.0,98.0,2227.286
2227296.0,56.0,43.0,28.0,94.0,2227.296
2227306.0,57.0,42.0,45.0,89.0,2227.306
2227316.0,63.0,44.0,42.0,93.0,2227.316
2227326.0,61.0,41.0,44.0,87.0,2227.326
2227336.0,60.0,41.0,39.0,89.0,2227.336
2227346.0,59.0,41.0,34.0,89.0,2227.346
2227356.0,58.0,40.0,31.0,93.0,2227.356
2227366.0,58.0,41.0,29.0,90.0,2227.366
2227376.0,58.0,44.0,38.0,88.0,2227.376
2227386.0,56.0,44.0,43.0,90.0,2227.386
2227396.0,57.0,44.0,42.0,92.0,2227.396
2227406.0,58.0,45.0,38.0,93.0,2227.406
2227416.0,58.0,45.0,35.0,90.0,2227.416
2227426.0,58.0,46.0,42.0,88.0,2227.426
2227436.0,55.0,43.0,39.0,88.0,2227.436
2227446.0,54.0,44.0,38.0,86.0,2227.446
2227456.0,53.0,43.0,36.0,99.0,2227.456
2227466.0,53.0,43.0,34.0,91.0,2227.466
2227476.0,53.0,43.0,31.0,90.0,2227.476
2227486.0,54.0,44.0,28.0,92.0,2227.486
2227496.0,53.0,44.0,37.0,95.0,2227.496
2227506.0,55.0,43.0,35.0,96.0,2227.506
2227516.0,53.0,44.0,36.0,88.0,2227.516
2227526.0,55.0,41.0,32.0,84.0,2227.526
2227536.0,61.0,43.0,30.0,89.0,2227.536
2227546.0,61.0,41.0,27.0,84.0,2227.546
2227556.0,61.0,42.0,25.0,83.0,2227.556
2227566.0,60.0,42.0,21.0,83.0,2227.566
2227576.0,61.0,43.0,41.0,81.0,2227.576
2227586.0,58.0,44.0,42.0,84.0,2227.586
2227596.0,58.0,43.0,38.0,93.0,2227.596
2227606.0,57.0,44.0,34.0,98.0,2227.606
2227616.0,56.0,44.0,34.0,96.0,2227.616
2227627.0,58.0,43.0,30.0,97.0,2227.627
2227637.0,57.0,44.0,37.0,94.0,2227.637
2227647.0,59.0,43.0,34.0,87.0,2227.647
2227657.0,58.0,43.0,28.0,91.0,2227.657
2227667.0,57.0,43.0,26.0,88.0,2227.667
2227677.0,58.0,43.0,26.0,83.0,2227.677
2227687.0,57.0,44.0,27.0,86.0,2227.687
2227697.0,58.0,46.0,34.0,87.0,2227.697
2227707.0,66.0,47.0,41.0,86.0,2227.707
2227717.0,66.0,45.0,36.0,88.0,2227.717
2227727.0,65.0,46.0,33.0,86.0,2227.727
2227737.0,67.0,45.0,32.0,85.0,2227.737
2227747.0,68.0,45.0,28.0,85.0,2227.747
2227757.0,67.0,46.0,27.0,84.0,2227.757
2227767.0,66.0,44.0,25.0,79.0,2227.767
2227777.0,65.0,44.0,21.0,82.0,2227.777
2227787.0,65.0,47.0,24.0,88.0,2227.787
2227798.0,65.0,47.0,23.0,91.0,2227.798
2227808.0,66.0,46.0,22.0,88.0,2227.808
2227818.0,68.0,46.0,25.0,93.0,2227.818
2227828.0,67.0,46.0,21.0,88.0,2227.828
2227838.0,66.0,46.0,19.0,88.0,2227.838
2227848.0,71.0,46.0,17.0,86.0,2227.848
2227858.0,69.0,46.0,31.0,84.0,2227.858
2227868.0,71.0,44.0,30.0,90.0,2227.868
2227878.0,71.0,46.0,35.0,84.0,2227.878
2227888.0,72.0,46.0,34.0,85.0,2227.888
2227898.0,72.0,45.0,29.0,82.0,2227.898
2227908.0,71.0,46.0,27.0,79.0,2227.908
2227918.0,71.0,49.0,49.0,85.0,2227.918
2227928.0,72.0,48.0,43.0,83.0,2227.928
2227938.0,73.0,47.0,40.0,83.0,2227.938
2227948.0,73.0,47.0,33.0,79.0,2227.948
2227958.0,71.0,49.0,33.0,83.0,2227.958
2227968.0,72.0,47.0,29.0,76.0,2227.968
2227978.0,71.0,48.0,24.0,74.0,2227.978
2227988.0,71.0,50.0,23.0,74.0,2227.988
2227998.0,75.0,51.0,35.0,81.0,2227.998
2228008.0,73.0,50.0,35.0,80.0,2228.008
2228018.0,71.0,49.0,41.0,79.0,2228.018
2228028.0,70.0,49.0,42.0,81.0,2228.028
2228038.0,69.0,49.0,39.0,77.0,2228.038
2228048.0,67.0,50.0,37.0,70.0,2228.048
2228058.0,65.0,50.0,33.0,86.0,2228.058
2228068.0,64.0,51.0,37.0,85.0,2228.068
2228078.0,64.0,51.0,33.0,83.0,2228.078
2228088.0,64.0,51.0,30.0,84.0,2228.088
2228098.0,61.0,50.0,28.0,77.0,2228.098
2228108.0,62.0,49.0,25.0,73.0,2228.108
2228118.0,60.0,49.0,27.0,77.0,2228.118
2228128.0,59.0,47.0,24.0,84.0,2228.128
2228139.0,65.0,49.0,21.0,83.0,2228.139
2228149.0,64.0,50.0,30.0,98.0,2228.149
2228159.0,63.0,48.0,31.0,90.0,2228.159
2228169.0,62.0,47.0,26.0,86.0,2228.169
2228179.0,60.0,46.0,25.0,82.0,2228.179
2228189.0,61.0,46.0,26.0,88.0,2228.189
2228199.0,60.0,46.0,24.0,83.0,2228.199
2228209.0,58.0,44.0,21.0,79.0,2228.209
2228219.0,57.0,45.0,21.0,77.0,2228.219
2228229.0,58.0,48.0,34.0,74.0,2228.229
2228239.0,56.0,46.0,31.0,71.0,2228.239
2228249.0,55.0,47.0,29.0,72.0,2228.249
2228259.0,61.0,47.0,30.0,75.0,2228.259
2228269.0,60.0,46.0,27.0,75.0,2228.269
2228279.0,58.0,46.0,25.0,71.0,2228.279
2228289.0,58.0,46.0,21.0,69.0,2228.289
2228299.0,56.0,45.0,24.0,74.0,2228.299
2228310.0,55.0,44.0,22.0,70.0,2228.31
2228320.0,54.0,45.0,18.0,68.0,2228.32
2228330.0,53.0,44.0,18.0,69.0,2228.33
2228340.0,53.0,49.0,32.0,83.0,2228.34
2228350.0,54.0,46.0,34.0,82.0,2228.35
2228360.0,51.0,47.0,33.0,83.0,2228.36
2228370.0,51.0,46.0,30.0,85.0,2228.37
2228380.0,62.0,49.0,41.0,81.0,2228.38
2228390.0,60.0,47.0,41.0,77.0,2228.39
2228400.0,61.0,45.0,37.0,72.0,2228.4
2228410.0,58.0,45.0,33.0,74.0,2228.41
2228420.0,58.0,44.0,31.0,73.0,2228.42
2228430.0,58.0,44.0,29.0,74.0,2228.43
2228440.0,56.0,45.0,28.0,74.0,2228.44
2228450.0,55.0,47.0,28.0,92.0,2228.45
2228460.0,56.0,48.0,34.0,99.0,2228.46
2228470.0,58.0,48.0,31.0,98.0,2228.47
2228480.0,58.0,47.0,26.0,97.0,2228.48
2228490.0,59.0,47.0,23.0,91.0,2228.49
2228500.0,63.0,46.0,23.0,91.0,2228.5
2228510.0,63.0,46.0,21.0,91.0,2228.51
2228520.0,62.0,47.0,28.0,103.0,2228.52
2228530.0,64.0,47.0,31.0,108.0,2228.53
2228540.0,63.0,45.0,28.0,99.0,2228.54
2228550.0,63.0,44.0,25.0,91.0,2228.55
2228560.0,62.0,45.0,22.0,90.0,2228.56
2228570.0,61.0,44.0,22.0,85.0,2228.57
2228580.0,61.0,43.0,20.0,85.0,2228.58
2228590.0,59.0,46.0,33.0,86.0,2228.59
2228600.0,60.0,45.0,32.0,87.0,2228.6
2228610.0,58.0,46.0,32.0,96.0,2228.61
2228620.0,60.0,43.0,30.0,90.0,2228.62
2228630.0,66.0,44.0,26.0,86.0,2228.63
2228640.0,65.0,44.0,23.0,81.0,2228.64
2228651.0,62.0,45.0,26.0,83.0,2228.651
2228661.0,61.0,45.0,28.0,79.0,2228.661
2228671.0,60.0,46.0,32.0,84.0,2228.671
2228681.0,60.0,44.0,32.0,80.0,2228.681
2228691.0,61.0,45.0,29.0,73.0,2228.691
2228701.0,60.0,46.0,26.0,77.0,2228.701
2228711.0,59.0,44.0,23.0,69.0,2228.711
2228721.0,57.0,44.0,20.0,67.0,2228.721
2228731.0,57.0,46.0,18.0,65.0,2228.731
2228741.0,56.0,46.0,28.0,76.0,2228.741
2228751.0,57.0,50.0,40.0,88.0,2228.751
2228761.0,57.0,48.0,36.0,81.0,2228.761
2228771.0,56.0,49.0,31.0,76.0,2228.771
2228781.0,58.0,49.0,28.0,71.0,2228.781
2228791.0,61.0,50.0,28.0,66.0,2228.791
2228801.0,61.0,50.0,26.0,66.0,2228.801
2228811.0,59.0,52.0,33.0,69.0,2228.811
2228822.0,57.0,51.0,37.0,74.0,2228.822
2228832.0,55.0,48.0,32.0,70.0,2228.832
2228842.0,55.0,48.0,28.0,70.0,2228.842
2228852.0,53.0,48.0,26.0,68.0,2228.852
2228862.0,52.0,49.0,24.0,71.0,2228.862
2228872.0,52.0,50.0,24.0,73.0,2228.872
2228882.0,53.0,53.0,32.0,73.0,2228.882
2228892.0,53.0,50.0,27.0,72.0,2228.892
2228902.0,54.0,50.0,25.0,73.0,2228.902
2228912.0,61.0,49.0,24.0,68.0,2228.912
2228922.0,58.0,49.0,22.0,65.0,2228.922
2228932.0,57.0,50.0,22.0,65.0,2228.932
2228942.0,55.0,49.0,23.0,75.0,2228.942
2228952.0,56.0,50.0,30.0,73.0,2228.952
2228962.0,55.0,48.0,27.0,69.0,2228.962
2228972.0,53.0,46.0,23.0,70.0,2228.972
2228982.0,52.0,45.0,23.0,71.0,2228.982
2228992.0,52.0,46.0,21.0,71.0,2228.992
2229002.0,50.0,45.0,22.0,75.0,2229.002
2229012.0,52.0,44.0,21.0,74.0,2229.012
2229022.0,52.0,47.0,35.0,73.0,2229.022
2229032.0,55.0,45.0,36.0,69.0,2229.032
2229042.0,59.0,45.0,32.0,70.0,2229.042
2229052.0,59.0,45.0,29.0,72.0,2229.052
2229062.0,60.0,44.0,26.0,80.0,2229.062
2229072.0,60.0,44.0,24.0,78.0,2229.072
2229082.0,60.0,43.0,22.0,73.0,2229.082
2229092.0,59.0,42.0,20.0,83.0,2229.092
2229102.0,57.0,42.0,34.0,81.0,2229.102
2229112.0,59.0,43.0,30.0,75.0,2229.112
2229122.0,58.0,42.0,28.0,75.0,2229.122
2229132.0,60.0,41.0,24.0,72.0,2229.132
2229142.0,58.0,41.0,22.0,68.0,2229.142
2229152.0,58.0,39.0,19.0,71.0,2229.152
2229163.0,63.0,40.0,18.0,73.0,2229.163
2229173.0,65.0,42.0,34.0,76.0,2229.173
2229183.0,65.0,40.0,30.0,71.0,2229.183
2229193.0,63.0,41.0,26.0,73.0,2229.193
2229203.0,63.0,41.0,25.0,72.0,2229.203
2229213.0,60.0,40.0,23.0,75.0,2229.213
2229223.0,59.0,40.0,24.0,90.0,2229.223
2229233.0,58.0,40.0,22.0,87.0,2229.233
2229243.0,57.0,39.0,20.0,84.0,2229.243
2229253.0,58.0,41.0,27.0,83.0,2229.253
2229263.0,57.0,40.0,32.0,80.0,2229.263
2229273.0,57.0,39.0,28.0,76.0,2229.273
2229283.0,56.0,38.0,26.0,76.0,2229.283
2229293.0,55.0,39.0,29.0,76.0,2229.293
2229303.0,55.0,39.0,27.0,76.0,2229.303
2229313.0,56.0,40.0,25.0,75.0,2229.313
2229323.0,57.0,40.0,27.0,67.0,2229.323
2229334.0,57.0,41.0,41.0,84.0,2229.334
2229344.0,57.0,42.0,36.0,93.0,2229.344
2229354.0,56.0,42.0,34.0,92.0,2229.354
2229364.0,56.0,42.0,33.0,89.0,2229.364
2229374.0,55.0,40.0,30.0,85.0,2229.374
2229384.0,57.0,41.0,27.0,88.0,2229.384
2229394.0,59.0,40.0,25.0,81.0,2229.394
2229404.0,57.0,39.0,25.0,85.0,2229.404
2229414.0,56.0,41.0,42.0,89.0,2229.414
2229424.0,57.0,40.0,38.0,85.0,2229.424
2229434.0,56.0,40.0,35.0,78.0,2229.434
2229444.0,58.0,42.0,34.0,82.0,2229.444
2229454.0,57.0,41.0,31.0,81.0,2229.454
2229464.0,58.0,41.0,27.0,74.0,2229.464
2229474.0,57.0,41.0,34.0,71.0,2229.474
2229484.0,57.0,42.0,40.0,65.0,2229.484
2229494.0,59.0,40.0,36.0,61.0,2229.494
2229504.0,59.0,41.0,32.0,69.0,2229.504
2229514.0,58.0,39.0,29.0,75.0,2229.514
2229524.0,58.0,39.0,27.0,83.0,2229.524
2229534.0,57.0,41.0,29.0,85.0,2229.534
2229544.0,59.0,41.0,27.0,85.0,2229.544
2229554.0,57.0,41.0,26.0,81.0,2229.554
2229564.0,57.0,42.0,39.0,77.0,2229.564
2229574.0,54.0,42.0,34.0,73.0,2229.574
2229584.0,54.0,42.0,30.0,73.0,2229.584
2229594.0,52.0,43.0,28.0,79.0,2229.594
2229604.0,51.0,41.0,26.0,81.0,2229.604
2229614.0,53.0,43.0,26.0,75.0,2229.614
2229624.0,52.0,44.0,36.0,75.0,2229.624
2229634.0,52.0,45.0,37.0,76.0,2229.634
2229644.0,54.0,47.0,38.0,77.0,2229.644
2229654.0,54.0,46.0,33.0,76.0,2229.654
2229664.0,53.0,46.0,31.0,71.0,2229.664
2229675.0,51.0,46.0,27.0,73.0,2229.675
2229685.0,52.0,46.0,24.0,75.0,2229.685
2229695.0,53.0,46.0,21.0,70.0,2229.695
2229705.0,52.0,47.0,36.0,74.0,2229.705
2229715.0,54.0,48.0,42.0,77.0,2229.715
2229725.0,52.0,47.0,40.0,75.0,2229.725
2229735.0,52.0,46.0,41.0,72.0,2229.735
2229745.0,54.0,47.0,39.0,73.0,2229.745
2229755.0,55.0,45.0,33.0,78.0,2229.755
2229765.0,55.0,43.0,31.0,73.0,2229.765
2229775.0,56.0,46.0,33.0,81.0,2229.775
2229785.0,58.0,45.0,32.0,79.0,2229.785
2229795.0,58.0,45.0,31.0,78.0,2229.795
2229805.0,56.0,43.0,28.0,75.0,2229.805
2229815.0,57.0,42.0,25.0,73.0,2229.815
2229825.0,55.0,43.0,22.0,83.0,2229.825
2229835.0,55.0,42.0,23.0,79.0,2229.835
2229846.0,55.0,44.0,27.0,79.0,2229.846
2229856.0,53.0,43.0,26.0,74.0,2229.856
2229866.0,53.0,45.0,26.0,86.0,2229.866
2229876.0,53.0,43.0,23.0,82.0,2229.876
2229886.0,54.0,41.0,20.0,77.0,2229.886
2229896.0,53.0,42.0,19.0,82.0,2229.896
2229906.0,52.0,42.0,33.0,82.0,2229.906
2229916.0,54.0,42.0,29.0,81.0,2229.916
2229926.0,54.0,42.0,31.0,77.0,2229.926
2229936.0,56.0,41.0,29.0,73.0,2229.936
2229946.0,54.0,43.0,28.0,71.0,2229.946
2229956.0,60.0,44.0,31.0,75.0,2229.956
2229966.0,61.0,45.0,28.0,74.0,2229.966
2229976.0,62.0,43.0,26.0,71.0,2229.976
2229986.0,61.0,43.0,34.0,65.0,2229.986
2229996.0,59.0,43.0,36.0,66.0,2229.996
2230006.0,58.0,42.0,34.0,63.0,2230.006
2230016.0,59.0,42.0,33.0,63.0,2230.016
2230026.0,57.0,40.0,29.0,60.0,2230.026
2230036.0,56.0,39.0,25.0,58.0,2230.036
2230046.0,57.0,38.0,22.0,60.0,2230.046
2230056.0,57.0,38.0,21.0,59.0,2230.056
2230066.0,54.0,39.0,18.0,69.0,2230.066
2230076.0,55.0,38.0,28.0,71.0,2230.076
2230086.0,56.0,39.0,24.0,66.0,2230.086
2230096.0,55.0,38.0,26.0,73.0,2230.096
2230106.0,57.0,40.0,30.0,79.0,2230.106
2230116.0,57.0,39.0,25.0,76.0,2230.116
2230126.0,56.0,38.0,23.0,78.0,2230.126
2230136.0,57.0,40.0,32.0,74.0,2230.136
2230146.0,58.0,41.0,28.0,72.0,2230.146
2230156.0,59.0,40.0,25.0,69.0,2230.156
2230166.0,57.0,40.0,23.0,80.0,2230.166
2230176.0,57.0,40.0,26.0,77.0,2230.176
2230187.0,57.0,39.0,23.0,76.0,2230.187
2230197.0,57.0,39.0,20.0,79.0,2230.197
2230207.0,56.0,40.0,18.0,80.0,2230.207
2230217.0,56.0,41.0,28.0,78.0,2230.217
2230227.0,57.0,41.0,25.0,75.0,2230.227
2230237.0,59.0,42.0,25.0,77.0,2230.237
2230247.0,63.0,40.0,23.0,77.0,2230.247
2230257.0,63.0,40.0,25.0,77.0,2230.257
2230267.0,62.0,42.0,23.0,74.0,2230.267
2230277.0,63.0,44.0,21.0,80.0,2230.277
2230287.0,62.0,44.0,20.0,81.0,2230.287
2230297.0,63.0,44.0,31.0,80.0,2230.297
2230307.0,60.0,45.0,29.0,83.0,2230.307
2230317.0,61.0,44.0,30.0,79.0,2230.317
2230327.0,60.0,44.0,28.0,78.0,2230.327
2230337.0,60.0,43.0,27.0,84.0,2230.337
2230347.0,60.0,42.0,24.0,82.0,2230.347
2230358.0,58.0,44.0,36.0,77.0,2230.358
2230368.0,61.0,43.0,35.0,80.0,2230.368
2230378.0,60.0,43.0,30.0,78.0,2230.378
2230388.0,59.0,42.0,30.0,81.0,2230.388
2230398.0,59.0,40.0,34.0,78.0,2230.398
2230408.0,59.0,41.0,37.0,88.0,2230.408
2230418.0,60.0,40.0,46.0,90.0,2230.418
2230428.0,58.0,40.0,40.0,84.0,2230.428
2230438.0,60.0,40.0,36.0,89.0,2230.438
2230448.0,60.0,39.0,31.0,92.0,2230.448
2230458.0,59.0,41.0,35.0,88.0,2230.458
2230468.0,58.0,40.0,31.0,89.0,2230.468
2230478.0,59.0,39.0,27.0,81.0,2230.478
2230488.0,57.0,41.0,36.0,80.0,2230.488
2230498.0,58.0,41.0,35.0,74.0,2230.498
2230508.0,55.0,40.0,30.0,74.0,2230.508
2230518.0,56.0,41.0,32.0,75.0,2230.518
2230528.0,54.0,40.0,28.0,76.0,2230.528
2230538.0,53.0,40.0,26.0,70.0,2230.538
2230548.0,55.0,43.0,34.0,67.0,2230.548
2230558.0,55.0,41.0,29.0,67.0,2230.558
2230568.0,56.0,41.0,29.0,74.0,2230.568
2230578.0,54.0,42.0,29.0,73.0,2230.578
2230588.0,55.0,42.0,25.0,69.0,2230.588
2230598.0,55.0,42.0,22.0,76.0,2230.598
2230608.0,53.0,42.0,29.0,78.0,2230.608
2230618.0,54.0,42.0,32.0,73.0,2230.618
2230628.0,54.0,42.0,30.0,70.0,2230.628
2230638.0,54.0,40.0,30.0,67.0,2230.638
2230648.0,56.0,40.0,25.0,64.0,2230.648
2230658.0,56.0,39.0,25.0,72.0,2230.658
2230668.0,54.0,39.0,24.0,70.0,2230.668
2230678.0,56.0,39.0,23.0,69.0,2230.678
2230688.0,57.0,40.0,32.0,69.0,2230.688
2230699.0,58.0,41.0,28.0,68.0,2230.699
2230709.0,58.0,39.0,25.0,65.0,2230.709
2230719.0,59.0,39.0,25.0,63.0,2230.719
2230729.0,58.0,41.0,25.0,77.0,2230.729
2230739.0,59.0,42.0,37.0,75.0,2230.739
2230749.0,60.0,42.0,35.0,76.0,2230.749
2230759.0,60.0,40.0,30.0,71.0,2230.759
2230769.0,59.0,41.0,27.0,67.0,2230.769
2230779.0,58.0,40.0,25.0,74.0,2230.779
2230789.0,57.0,40.0,26.0,70.0,2230.789
2230799.0,56.0,40.0,24.0,85.0,2230.799
2230809.0,56.0,41.0,24.0,83.0,2230.809
2230819.0,55.0,44.0,32.0,80.0,2230.819
2230829.0,56.0,44.0,40.0,76.0,2230.829
2230839.0,56.0,44.0,35.0,74.0,2230.839
2230849.0,58.0,44.0,31.0,76.0,2230.849
2230859.0,59.0,43.0,29.0,72.0,2230.859
2230870.0,57.0,44.0,25.0,70.0,2230.87
2230880.0,56.0,45.0,32.0,71.0,2230.88
2230890.0,54.0,44.0,36.0,68.0,2230.89
2230900.0,55.0,44.0,31.0,63.0,2230.9
2230910.0,54.0,44.0,29.0,75.0,2230.91
2230920.0,54.0,44.0,31.0,76.0,2230.92
2230930.0,55.0,43.0,28.0,81.0,2230.93
2230940.0,53.0,43.0,27.0,80.0,2230.94
2230950.0,54.0,44.0,41.0,84.0,2230.95
2230960.0,56.0,43.0,37.0,82.0,2230.96
2230970.0,55.0,41.0,32.0,75.0,2230.97
2230980.0,56.0,40.0,28.0,78.0,2230.98
2230990.0,56.0,42.0,26.0,80.0,2230.99
2231000.0,57.0,40.0,23.0,76.0,2231.0
2231010.0,58.0,40.0,20.0,81.0,2231.01
2231020.0,57.0,39.0,27.0,77.0,2231.02
2231030.0,57.0,41.0,37.0,75.0,2231.03
2231040.0,57.0,42.0,32.0,68.0,2231.04
2231050.0,58.0,40.0,29.0,70.0,2231.05
2231060.0,58.0,39.0,27.0,70.0,2231.06
2231070.0,58.0,38.0,25.0,66.0,2231.07
2231080.0,57.0,39.0,25.0,67.0,2231.08
2231090.0,54.0,40.0,24.0,73.0,2231.09
2231100.0,56.0,41.0,39.0,74.0,2231.1
2231110.0,56.0,41.0,35.0,73.0,2231.11
2231120.0,54.0,40.0,33.0,68.0,2231.12
2231130.0,55.0,39.0,32.0,65.0,2231.13
2231140.0,53.0,41.0,32.0,66.0,2231.14
2231150.0,56.0,42.0,29.0,70.0,2231.15
2231160.0,57.0,43.0,38.0,77.0,2231.16
2231170.0,58.0,42.0,39.0,77.0,2231.17
2231180.0,59.0,41.0,34.0,75.0,2231.18
2231190.0,58.0,41.0,31.0,76.0,2231.19
2231200.0,58.0,41.0,29.0,75.0,2231.2
2231211.0,58.0,41.0,26.0,71.0,2231.211
2231221.0,58.0,42.0,30.0,68.0,2231.221
2231231.0,60.0,42.0,26.0,67.0,2231.231
2231241.0,61.0,42.0,27.0,82.0,2231.241
2231251.0,61.0,42.0,23.0,80.0,2231.251
2231261.0,62.0,43.0,21.0,77.0,2231.261
2231271.0,60.0,41.0,19.0,77.0,2231.271
2231281.0,58.0,42.0,25.0,78.0,2231.281
2231291.0,58.0,42.0,44.0,85.0,2231.291
2231301.0,59.0,44.0,44.0,88.0,2231.301
2231311.0,58.0,44.0,38.0,88.0,2231.311
2231321.0,58.0,42.0,34.0,87.0,2231.321
2231331.0,59.0,43.0,30.0,83.0,2231.331
2231341.0,61.0,42.0,28.0,83.0,2231.341
2231351.0,60.0,42.0,27.0,81.0,2231.351
2231361.0,61.0,41.0,25.0,86.0,2231.361
2231371.0,61.0,40.0,35.0,83.0,2231.371
2231382.0,60.0,41.0,32.0,80.0,2231.382
2231392.0,61.0,40.0,29.0,78.0,2231.392
2231402.0,60.0,42.0,26.0,74.0,2231.402
2231412.0,59.0,41.0,24.0,70.0,2231.412
2231422.0,60.0,39.0,21.0,72.0,2231.422
2231432.0,59.0,40.0,28.0,71.0,2231.432
2231442.0,59.0,40.0,43.0,73.0,2231.442
2231452.0,62.0,41.0,38.0,73.0,2231.452
2231462.0,64.0,41.0,39.0,74.0,2231.462
2231472.0,62.0,40.0,34.0,71.0,2231.472
2231482.0,64.0,40.0,31.0,67.0,2231.482
2231492.0,64.0,39.0,31.0,71.0,2231.492
2231502.0,61.0,40.0,36.0,76.0,2231.502
2231512.0,63.0,41.0,51.0,81.0,2231.512
2231522.0,61.0,41.0,45.0,80.0,2231.522
2231532.0,60.0,40.0,46.0,77.0,2231.532
2231542.0,61.0,40.0,40.0,76.0,2231.542
2231552.0,60.0,40.0,40.0,74.0,2231.552
2231562.0,60.0,40.0,48.0,74.0,2231.562
2231572.0,59.0,40.0,44.0,78.0,2231.572
2231582.0,59.0,40.0,43.0,78.0,2231.582
2231592.0,59.0,40.0,37.0,74.0,2231.592
2231602.0,59.0,39.0,37.0,73.0,2231.602
2231612.0,59.0,40.0,34.0,77.0,2231.612
2231622.0,60.0,43.0,44.0,79.0,2231.622
2231632.0,60.0,40.0,38.0,76.0,2231.632
2231642.0,61.0,42.0,38.0,74.0,2231.642
2231652.0,62.0,42.0,34.0,70.0,2231.652
2231662.0,64.0,41.0,30.0,72.0,2231.662
2231672.0,61.0,43.0,25.0,77.0,2231.672
2231682.0,61.0,43.0,33.0,81.0,2231.682
2231692.0,60.0,44.0,38.0,83.0,2231.692
2231702.0,60.0,44.0,36.0,83.0,2231.702
2231712.0,58.0,42.0,33.0,80.0,2231.712
2231723.0,59.0,43.0,33.0,80.0,2231.723
2231733.0,59.0,41.0,30.0,75.0,2231.733
2231743.0,56.0,41.0,29.0,78.0,2231.743
2231753.0,55.0,40.0,29.0,77.0,2231.753
