time (ms),signal 0,signal 1,signal 2,signal3,time (sec)
2235886.0,57.0,48.0,24.0,71.0,2235.886
2235896.0,58.0,47.0,25.0,71.0,2235.896
2235906.0,58.0,47.0,24.0,72.0,2235.906
2235916.0,56.0,44.0,22.0,69.0,2235.916
2235926.0,58.0,44.0,29.0,71.0,2235.926
2235936.0,59.0,44.0,31.0,71.0,2235.936
2235947.0,59.0,42.0,29.0,69.0,2235.947
2235957.0,56.0,42.0,25.0,67.0,2235.957
2235967.0,56.0,41.0,24.0,69.0,2235.967
2235977.0,57.0,41.0,22.0,70.0,2235.977
2235987.0,55.0,41.0,19.0,76.0,2235.987
2235997.0,56.0,40.0,18.0,74.0,2235.997
2236007.0,56.0,44.0,19.0,77.0,2236.007
2236017.0,58.0,43.0,22.0,79.0,2236.017
2236027.0,57.0,43.0,21.0,75.0,2236.027
2236037.0,57.0,42.0,21.0,73.0,2236.037
2236047.0,57.0,41.0,18.0,75.0,2236.047
2236057.0,56.0,41.0,16.0,77.0,2236.057
2236067.0,55.0,39.0,15.0,72.0,2236.067
2236077.0,54.0,41.0,21.0,74.0,2236.077
2236087.0,53.0,40.0,24.0,70.0,2236.087
2236097.0,55.0,41.0,26.0,71.0,2236.097
2236107.0,55.0,43.0,29.0,69.0,2236.107
2236118.0,55.0,43.0,27.0,68.0,2236.118
2236128.0,54.0,42.0,24.0,70.0,2236.128
2236138.0,56.0,44.0,38.0,68.0,2236.138
2236148.0,55.0,44.0,41.0,69.0,2236.148
2236158.0,56.0,43.0,37.0,66.0,2236.158
2236168.0,55.0,42.0,37.0,65.0,2236.168
2236178.0,55.0,42.0,36.0,60.0,2236.178
2236188.0,55.0,40.0,33.0,58.0,2236.188
2236198.0,56.0,41.0,30.0,66.0,2236.198
2236208.0,57.0,43.0,39.0,73.0,2236.208
2236218.0,57.0,41.0,39.0,70.0,2236.218
2236228.0,58.0,41.0,34.0,66.0,2236.228
2236238.0,59.0,41.0,31.0,63.0,2236.238
2236248.0,60.0,40.0,26.0,65.0,2236.248
2236258.0,61.0,39.0,25.0,66.0,2236.258
2236268.0,60.0,39.0,22.0,69.0,2236.268
2236278.0,60.0,40.0,26.0,72.0,2236.278
2236288.0,58.0,40.0,42.0,69.0,2236.288
2236298.0,59.0,42.0,37.0,66.0,2236.298
2236308.0,60.0,42.0,36.0,62.0,2236.308
2236318.0,59.0,41.0,32.0,61.0,2236.318
2236328.0,60.0,40.0,29.0,59.0,2236.328
2236338.0,59.0,38.0,25.0,59.0,2236.338
2236348.0,58.0,39.0,22.0,60.0,2236.348
2236358.0,57.0,37.0,23.0,60.0,2236.358
2236368.0,56.0,39.0,37.0,61.0,2236.368
2236378.0,56.0,39.0,37.0,59.0,2236.378
2236388.0,55.0,38.0,32.0,60.0,2236.388
2236398.0,56.0,39.0,28.0,60.0,2236.398
2236408.0,55.0,37.0,25.0,61.0,2236.408
2236418.0,54.0,37.0,22.0,69.0,2236.418
2236428.0,53.0,36.0,19.0,65.0,2236.428
2236438.0,52.0,36.0,18.0,61.0,2236.438
2236448.0,51.0,36.0,17.0,56.0,2236.448
2236459.0,51.0,36.0,17.0,54.0,2236.459
2236469.0,50.0,37.0,20.0,53.0,2236.469
2236479.0,51.0,37.0,22.0,52.0,2236.479
2236489.0,50.0,40.0,35.0,59.0,2236.489
2236499.0,50.0,39.0,30.0,57.0,2236.499
2236509.0,51.0,39.0,27.0,57.0,2236.509
2236519.0,51.0,38.0,24.0,53.0,2236.519
2236529.0,51.0,37.0,21.0,50.0,2236.529
2236539.0,50.0,38.0,19.0,48.0,2236.539
2236549.0,49.0,38.0,16.0,45.0,2236.549
2236559.0,50.0,39.0,15.0,43.0,2236.559
2236569.0,48.0,42.0,15.0,44.0,2236.569
2236579.0,49.0,41.0,14.0,51.0,2236.579
2236589.0,48.0,43.0,13.0,49.0,2236.589
2236599.0,50.0,43.0,13.0,49.0,2236.599
2236609.0,52.0,46.0,11.0,48.0,2236.609
2236619.0,54.0,54.0,9.0,46.0,2236.619
2236630.0,62.0,63.0,9.0,45.0,2236.63
2236640.0,70.0,72.0,8.0,44.0,2236.64
2236650.0,74.0,80.0,9.0,44.0,2236.65
2236660.0,76.0,88.0,9.0,44.0,2236.66
2236670.0,93.0,109.0,14.0,51.0,2236.67
2236680.0,92.0,117.0,13.0,51.0,2236.68
2236690.0,100.0,130.0,16.0,54.0,2236.69
2236700.0,107.0,138.0,19.0,53.0,2236.7
2236710.0,106.0,155.0,19.0,59.0,2236.71
2236720.0,110.0,176.0,19.0,58.0,2236.72
2236730.0,105.0,191.0,23.0,63.0,2236.73
2236740.0,95.0,204.0,23.0,58.0,2236.74
2236750.0,89.0,219.0,22.0,65.0,2236.75
2236760.0,84.0,235.0,20.0,76.0,2236.76
2236770.0,81.0,252.0,20.0,79.0,2236.77
2236780.0,83.0,281.0,18.0,114.0,2236.78
2236790.0,86.0,301.0,28.0,133.0,2236.79
2236800.0,85.0,306.0,25.0,138.0,2236.8
2236810.0,99.0,335.0,29.0,140.0,2236.81
2236820.0,97.0,325.0,31.0,158.0,2236.82
2236830.0,95.0,321.0,28.0,165.0,2236.83
2236840.0,92.0,338.0,27.0,187.0,2236.84
2236850.0,101.0,351.0,24.0,200.0,2236.85
2236860.0,96.0,356.0,26.0,230.0,2236.86
2236870.0,100.0,359.0,31.0,229.0,2236.87
2236880.0,100.0,352.0,33.0,221.0,2236.88
2236890.0,99.0,356.0,32.0,219.0,2236.89
2236900.0,96.0,357.0,32.0,200.0,2236.9
2236910.0,108.0,378.0,44.0,194.0,2236.91
2236920.0,113.0,395.0,41.0,193.0,2236.92
2236930.0,121.0,409.0,53.0,208.0,2236.93
2236940.0,117.0,408.0,52.0,226.0,2236.94
2236950.0,120.0,412.0,48.0,266.0,2236.95
2236960.0,118.0,417.0,42.0,300.0,2236.96
2236971.0,114.0,422.0,43.0,343.0,2236.971
2236981.0,114.0,428.0,41.0,345.0,2236.981
2236991.0,113.0,444.0,44.0,332.0,2236.991
2237001.0,122.0,449.0,40.0,318.0,2237.001
2237011.0,117.0,448.0,41.0,322.0,2237.011
2237021.0,127.0,466.0,39.0,307.0,2237.021
2237031.0,126.0,469.0,45.0,299.0,2237.031
2237041.0,120.0,482.0,49.0,288.0,2237.041
2237051.0,118.0,481.0,46.0,286.0,2237.051
2237061.0,114.0,482.0,48.0,277.0,2237.061
2237071.0,115.0,493.0,46.0,261.0,2237.071
2237081.0,111.0,500.0,40.0,268.0,2237.081
2237091.0,110.0,501.0,38.0,269.0,2237.091
2237101.0,106.0,506.0,33.0,286.0,2237.101
2237111.0,104.0,512.0,31.0,304.0,2237.111
2237121.0,102.0,516.0,34.0,315.0,2237.121
2237131.0,101.0,517.0,30.0,313.0,2237.131
2237142.0,100.0,521.0,27.0,285.0,2237.142
2237152.0,99.0,527.0,30.0,308.0,2237.152
2237162.0,99.0,519.0,29.0,307.0,2237.162
2237172.0,97.0,524.0,28.0,331.0,2237.172
2237182.0,95.0,522.0,26.0,315.0,2237.182
2237192.0,95.0,523.0,25.0,306.0,2237.192
2237202.0,94.0,523.0,23.0,336.0,2237.202
2237212.0,96.0,525.0,21.0,331.0,2237.212
2237222.0,94.0,522.0,20.0,336.0,2237.222
2237232.0,93.0,527.0,21.0,321.0,2237.232
2237242.0,95.0,531.0,22.0,327.0,2237.242
2237252.0,93.0,529.0,25.0,328.0,2237.252
2237262.0,95.0,532.0,22.0,337.0,2237.262
2237272.0,92.0,530.0,20.0,334.0,2237.272
2237282.0,93.0,534.0,20.0,333.0,2237.282
2237292.0,92.0,540.0,22.0,324.0,2237.292
2237302.0,93.0,545.0,34.0,361.0,2237.302
2237312.0,89.0,544.0,30.0,362.0,2237.312
2237322.0,86.0,548.0,26.0,364.0,2237.322
2237332.0,86.0,551.0,27.0,365.0,2237.332
2237342.0,84.0,553.0,23.0,367.0,2237.342
2237352.0,83.0,558.0,23.0,368.0,2237.352
2237362.0,81.0,560.0,20.0,363.0,2237.362
2237372.0,81.0,565.0,22.0,378.0,2237.372
2237382.0,80.0,565.0,19.0,385.0,2237.382
2237392.0,78.0,575.0,19.0,372.0,2237.392
2237402.0,77.0,577.0,17.0,375.0,2237.402
2237412.0,75.0,583.0,15.0,361.0,2237.412
2237422.0,74.0,585.0,14.0,362.0,2237.422
2237432.0,74.0,586.0,14.0,374.0,2237.432
2237442.0,72.0,592.0,16.0,375.0,2237.442
2237452.0,71.0,596.0,18.0,367.0,2237.452
2237462.0,69.0,603.0,24.0,380.0,2237.462
2237472.0,67.0,609.0,22.0,382.0,2237.472
2237483.0,66.0,613.0,27.0,369.0,2237.483
2237493.0,64.0,617.0,23.0,395.0,2237.493
2237503.0,62.0,618.0,21.0,395.0,2237.503
2237513.0,60.0,621.0,18.0,406.0,2237.513
2237523.0,59.0,627.0,17.0,397.0,2237.523
2237533.0,57.0,629.0,15.0,393.0,2237.533
2237543.0,58.0,638.0,15.0,388.0,2237.543
2237553.0,57.0,639.0,14.0,385.0,2237.553
2237563.0,55.0,641.0,18.0,406.0,2237.563
2237573.0,55.0,643.0,17.0,394.0,2237.573
2237583.0,52.0,645.0,17.0,391.0,2237.583
2237593.0,52.0,649.0,16.0,424.0,2237.593
2237603.0,53.0,653.0,16.0,428.0,2237.603
2237613.0,54.0,658.0,17.0,414.0,2237.613
2237623.0,53.0,660.0,15.0,434.0,2237.623
2237633.0,53.0,662.0,14.0,417.0,2237.633
2237643.0,53.0,668.0,15.0,434.0,2237.643
2237654.0,55.0,669.0,23.0,429.0,2237.654
2237664.0,54.0,668.0,22.0,432.0,2237.664
2237674.0,55.0,668.0,20.0,414.0,2237.674
2237684.0,55.0,670.0,18.0,432.0,2237.684
2237694.0,57.0,669.0,17.0,444.0,2237.694
2237704.0,57.0,668.0,15.0,427.0,2237.704
2237714.0,57.0,669.0,14.0,446.0,2237.714
2237724.0,57.0,668.0,13.0,456.0,2237.724
2237734.0,55.0,668.0,12.0,449.0,2237.734
2237744.0,56.0,669.0,11.0,463.0,2237.744
2237754.0,56.0,669.0,17.0,476.0,2237.754
2237764.0,57.0,669.0,17.0,487.0,2237.764
2237774.0,59.0,669.0,19.0,475.0,2237.774
2237784.0,58.0,668.0,22.0,465.0,2237.784
2237794.0,63.0,669.0,21.0,491.0,2237.794
2237804.0,61.0,669.0,18.0,501.0,2237.804
2237814.0,63.0,668.0,17.0,496.0,2237.814
2237824.0,65.0,669.0,17.0,506.0,2237.824
2237834.0,62.0,668.0,17.0,521.0,2237.834
2237844.0,64.0,668.0,21.0,519.0,2237.844
2237854.0,64.0,669.0,20.0,522.0,2237.854
2237864.0,67.0,668.0,21.0,525.0,2237.864
2237874.0,68.0,669.0,18.0,529.0,2237.874
2237884.0,67.0,669.0,16.0,540.0,2237.884
2237894.0,67.0,668.0,16.0,538.0,2237.894
2237904.0,69.0,668.0,17.0,518.0,2237.904
2237914.0,70.0,669.0,18.0,544.0,2237.914
2237924.0,70.0,669.0,16.0,552.0,2237.924
2237934.0,68.0,669.0,16.0,531.0,2237.934
2237944.0,72.0,668.0,17.0,546.0,2237.944
2237954.0,74.0,669.0,16.0,543.0,2237.954
2237964.0,75.0,669.0,15.0,553.0,2237.964
2237974.0,76.0,669.0,13.0,538.0,2237.974
2237984.0,77.0,669.0,13.0,557.0,2237.984
2237995.0,76.0,669.0,14.0,559.0,2237.995
2238005.0,76.0,668.0,14.0,566.0,2238.005
2238015.0,80.0,669.0,16.0,572.0,2238.015
2238025.0,81.0,670.0,16.0,570.0,2238.025
2238035.0,82.0,667.0,16.0,557.0,2238.035
2238045.0,80.0,669.0,18.0,564.0,2238.045
2238055.0,83.0,668.0,17.0,566.0,2238.055
2238065.0,84.0,665.0,19.0,578.0,2238.065
2238075.0,84.0,659.0,22.0,564.0,2238.075
2238085.0,85.0,662.0,21.0,561.0,2238.085
2238095.0,82.0,656.0,20.0,581.0,2238.095
2238105.0,83.0,657.0,19.0,579.0,2238.105
2238115.0,84.0,654.0,20.0,574.0,2238.115
2238125.0,83.0,652.0,18.0,575.0,2238.125
2238135.0,83.0,652.0,17.0,573.0,2238.135
2238145.0,83.0,648.0,14.0,581.0,2238.145
2238155.0,80.0,651.0,14.0,574.0,2238.155
2238166.0,82.0,652.0,14.0,580.0,2238.166
2238176.0,81.0,652.0,16.0,576.0,2238.176
2238186.0,83.0,644.0,14.0,599.0,2238.186
2238196.0,83.0,643.0,13.0,590.0,2238.196
2238206.0,82.0,641.0,16.0,596.0,2238.206
2238216.0,82.0,639.0,15.0,616.0,2238.216
2238226.0,81.0,641.0,13.0,607.0,2238.226
2238236.0,82.0,639.0,17.0,614.0,2238.236
2238246.0,82.0,635.0,15.0,606.0,2238.246
2238256.0,81.0,633.0,13.0,590.0,2238.256
2238266.0,80.0,631.0,18.0,612.0,2238.266
2238276.0,79.0,627.0,15.0,616.0,2238.276
2238286.0,80.0,625.0,15.0,606.0,2238.286
2238296.0,82.0,619.0,15.0,610.0,2238.296
2238306.0,83.0,619.0,14.0,625.0,2238.306
2238316.0,82.0,614.0,12.0,600.0,2238.316
2238326.0,85.0,609.0,15.0,621.0,2238.326
2238336.0,86.0,604.0,14.0,616.0,2238.336
2238346.0,86.0,599.0,13.0,635.0,2238.346
2238356.0,87.0,600.0,19.0,626.0,2238.356
2238366.0,91.0,590.0,20.0,635.0,2238.366
2238376.0,91.0,587.0,18.0,633.0,2238.376
2238386.0,92.0,582.0,18.0,637.0,2238.386
2238396.0,93.0,579.0,18.0,632.0,2238.396
2238406.0,93.0,574.0,16.0,641.0,2238.406
2238416.0,95.0,571.0,15.0,645.0,2238.416
2238426.0,95.0,570.0,16.0,657.0,2238.426
2238436.0,94.0,572.0,15.0,658.0,2238.436
2238446.0,93.0,564.0,20.0,645.0,2238.446
2238456.0,94.0,562.0,18.0,657.0,2238.456
2238466.0,95.0,559.0,17.0,651.0,2238.466
2238476.0,95.0,555.0,15.0,666.0,2238.476
2238486.0,95.0,550.0,13.0,659.0,2238.486
2238496.0,94.0,548.0,19.0,636.0,2238.496
2238507.0,94.0,546.0,22.0,654.0,2238.507
2238517.0,93.0,541.0,20.0,657.0,2238.517
2238527.0,92.0,534.0,19.0,656.0,2238.527
2238537.0,90.0,533.0,16.0,651.0,2238.537
2238547.0,88.0,532.0,16.0,638.0,2238.547
2238557.0,88.0,530.0,13.0,643.0,2238.557
2238567.0,87.0,527.0,14.0,620.0,2238.567
2238577.0,89.0,523.0,15.0,639.0,2238.577
2238587.0,86.0,519.0,17.0,638.0,2238.587
2238597.0,87.0,514.0,23.0,610.0,2238.597
2238607.0,84.0,513.0,22.0,621.0,2238.607
2238617.0,80.0,513.0,30.0,629.0,2238.617
2238627.0,82.0,506.0,27.0,625.0,2238.627
2238637.0,81.0,503.0,27.0,640.0,2238.637
2238647.0,81.0,498.0,25.0,632.0,2238.647
2238657.0,82.0,494.0,21.0,624.0,2238.657
2238667.0,81.0,491.0,21.0,622.0,2238.667
2238678.0,81.0,488.0,21.0,646.0,2238.678
2238688.0,82.0,484.0,20.0,631.0,2238.688
2238698.0,83.0,480.0,19.0,636.0,2238.698
2238708.0,82.0,479.0,17.0,638.0,2238.708
2238718.0,83.0,475.0,17.0,640.0,2238.718
2238728.0,84.0,470.0,15.0,636.0,2238.728
2238738.0,83.0,469.0,13.0,630.0,2238.738
2238748.0,83.0,466.0,12.0,643.0,2238.748
2238758.0,84.0,462.0,12.0,638.0,2238.758
2238768.0,82.0,465.0,14.0,610.0,2238.768
2238778.0,84.0,461.0,13.0,619.0,2238.778
2238788.0,85.0,458.0,15.0,642.0,2238.788
2238798.0,87.0,457.0,16.0,641.0,2238.798
2238808.0,86.0,451.0,14.0,638.0,2238.808
2238818.0,86.0,448.0,14.0,638.0,2238.818
2238828.0,86.0,443.0,11.0,626.0,2238.828
2238838.0,85.0,439.0,10.0,623.0,2238.838
2238848.0,85.0,437.0,12.0,624.0,2238.848
2238858.0,85.0,435.0,11.0,627.0,2238.858
2238868.0,85.0,433.0,12.0,593.0,2238.868
2238878.0,90.0,425.0,12.0,611.0,2238.878
2238888.0,89.0,424.0,13.0,604.0,2238.888
2238898.0,92.0,417.0,12.0,616.0,2238.898
2238908.0,93.0,421.0,13.0,615.0,2238.908
2238918.0,92.0,410.0,15.0,619.0,2238.918
2238928.0,93.0,407.0,13.0,610.0,2238.928
2238938.0,93.0,404.0,13.0,601.0,2238.938
2238948.0,93.0,403.0,11.0,612.0,2238.948
2238958.0,92.0,400.0,10.0,594.0,2238.958
2238968.0,93.0,395.0,13.0,581.0,2238.968
2238978.0,92.0,387.0,12.0,588.0,2238.978
2238988.0,89.0,389.0,16.0,589.0,2238.988
2238998.0,91.0,386.0,16.0,583.0,2238.998
2239008.0,93.0,379.0,15.0,558.0,2239.008
2239019.0,92.0,375.0,18.0,585.0,2239.019
2239029.0,92.0,374.0,16.0,584.0,2239.029
2239039.0,92.0,369.0,19.0,554.0,2239.039
2239049.0,91.0,366.0,18.0,544.0,2239.049
2239059.0,93.0,362.0,16.0,570.0,2239.059
2239069.0,93.0,356.0,15.0,562.0,2239.069
2239079.0,91.0,351.0,23.0,552.0,2239.079
2239089.0,94.0,344.0,21.0,543.0,2239.089
2239099.0,93.0,342.0,20.0,527.0,2239.099
2239109.0,92.0,337.0,21.0,548.0,2239.109
2239119.0,94.0,330.0,23.0,539.0,2239.119
2239129.0,94.0,324.0,26.0,522.0,2239.129
2239139.0,94.0,321.0,26.0,543.0,2239.139
2239149.0,94.0,316.0,23.0,538.0,2239.149
2239159.0,93.0,315.0,22.0,543.0,2239.159
2239169.0,93.0,309.0,22.0,548.0,2239.169
2239179.0,93.0,304.0,22.0,560.0,2239.179
2239190.0,93.0,301.0,20.0,542.0,2239.19
2239200.0,91.0,299.0,19.0,543.0,2239.2
2239210.0,92.0,293.0,22.0,532.0,2239.21
2239220.0,92.0,290.0,20.0,546.0,2239.22
2239230.0,93.0,285.0,17.0,540.0,2239.23
2239240.0,93.0,284.0,16.0,525.0,2239.24
2239250.0,92.0,285.0,14.0,512.0,2239.25
2239260.0,94.0,280.0,16.0,512.0,2239.26
2239270.0,92.0,278.0,13.0,517.0,2239.27
2239280.0,93.0,274.0,18.0,516.0,2239.28
2239290.0,92.0,273.0,20.0,508.0,2239.29
2239300.0,93.0,271.0,20.0,505.0,2239.3
2239310.0,95.0,262.0,19.0,497.0,2239.31
2239320.0,94.0,262.0,17.0,498.0,2239.32
2239330.0,94.0,257.0,19.0,486.0,2239.33
2239340.0,93.0,253.0,18.0,473.0,2239.34
2239350.0,93.0,250.0,16.0,480.0,2239.35
2239360.0,94.0,244.0,17.0,481.0,2239.36
2239370.0,94.0,241.0,15.0,479.0,2239.37
2239380.0,93.0,238.0,14.0,471.0,2239.38
2239390.0,93.0,231.0,13.0,478.0,2239.39
2239400.0,93.0,231.0,12.0,474.0,2239.4
2239410.0,92.0,224.0,12.0,468.0,2239.41
2239420.0,92.0,221.0,12.0,475.0,2239.42
2239430.0,93.0,215.0,15.0,475.0,2239.43
2239440.0,90.0,214.0,26.0,480.0,2239.44
2239450.0,92.0,210.0,23.0,470.0,2239.45
2239460.0,93.0,207.0,20.0,452.0,2239.46
2239470.0,90.0,206.0,19.0,438.0,2239.47
2239480.0,92.0,199.0,18.0,463.0,2239.48
2239490.0,92.0,198.0,16.0,447.0,2239.49
2239500.0,91.0,195.0,14.0,443.0,2239.5
2239510.0,92.0,190.0,15.0,438.0,2239.51
2239520.0,91.0,189.0,14.0,446.0,2239.52
2239531.0,93.0,187.0,16.0,448.0,2239.531
2239541.0,93.0,186.0,17.0,426.0,2239.541
2239551.0,93.0,181.0,18.0,443.0,2239.551
2239561.0,92.0,181.0,16.0,441.0,2239.561
2239571.0,91.0,179.0,15.0,435.0,2239.571
2239581.0,92.0,175.0,14.0,428.0,2239.581
2239591.0,93.0,174.0,14.0,444.0,2239.591
2239601.0,94.0,173.0,16.0,435.0,2239.601
2239611.0,93.0,171.0,13.0,433.0,2239.611
2239621.0,93.0,168.0,13.0,420.0,2239.621
2239631.0,91.0,170.0,14.0,426.0,2239.631
2239641.0,92.0,162.0,13.0,439.0,2239.641
2239651.0,90.0,160.0,13.0,438.0,2239.651
2239661.0,91.0,157.0,12.0,437.0,2239.661
2239671.0,88.0,155.0,11.0,439.0,2239.671
2239681.0,90.0,152.0,11.0,433.0,2239.681
2239691.0,88.0,147.0,11.0,428.0,2239.691
2239702.0,84.0,147.0,9.0,421.0,2239.702
2239712.0,85.0,145.0,11.0,408.0,2239.712
2239722.0,83.0,144.0,12.0,407.0,2239.722
2239732.0,83.0,139.0,12.0,405.0,2239.732
2239742.0,81.0,138.0,14.0,407.0,2239.742
2239752.0,80.0,134.0,13.0,408.0,2239.752
2239762.0,80.0,130.0,12.0,404.0,2239.762
2239772.0,80.0,129.0,11.0,383.0,2239.772
2239782.0,78.0,126.0,9.0,371.0,2239.782
2239792.0,77.0,124.0,11.0,395.0,2239.792
2239802.0,78.0,122.0,11.0,378.0,2239.802
2239812.0,78.0,119.0,12.0,377.0,2239.812
2239822.0,79.0,117.0,11.0,379.0,2239.822
2239832.0,78.0,118.0,10.0,396.0,2239.832
2239842.0,78.0,114.0,10.0,375.0,2239.842
2239852.0,77.0,119.0,12.0,372.0,2239.852
2239862.0,76.0,117.0,17.0,365.0,2239.862
2239872.0,76.0,114.0,17.0,384.0,2239.872
2239882.0,76.0,112.0,15.0,373.0,2239.882
2239892.0,76.0,111.0,14.0,349.0,2239.892
2239902.0,75.0,109.0,12.0,350.0,2239.902
2239912.0,77.0,111.0,14.0,337.0,2239.912
2239922.0,75.0,113.0,22.0,323.0,2239.922
2239932.0,76.0,109.0,22.0,311.0,2239.932
2239942.0,75.0,106.0,19.0,314.0,2239.942
2239952.0,76.0,104.0,17.0,304.0,2239.952
2239962.0,76.0,103.0,17.0,305.0,2239.962
2239972.0,75.0,102.0,15.0,300.0,2239.972
2239982.0,75.0,100.0,16.0,288.0,2239.982
2239992.0,75.0,101.0,15.0,296.0,2239.992
2240002.0,73.0,103.0,15.0,271.0,2240.002
2240012.0,73.0,98.0,15.0,291.0,2240.012
2240022.0,73.0,97.0,22.0,277.0,2240.022
2240032.0,72.0,96.0,21.0,285.0,2240.032
2240043.0,73.0,95.0,19.0,287.0,2240.043
2240053.0,71.0,95.0,16.0,281.0,2240.053
2240063.0,72.0,94.0,15.0,276.0,2240.063
2240073.0,69.0,96.0,13.0,279.0,2240.073
2240083.0,67.0,98.0,12.0,277.0,2240.083
2240093.0,68.0,101.0,13.0,270.0,2240.093
2240103.0,73.0,99.0,15.0,259.0,2240.103
2240113.0,75.0,91.0,15.0,255.0,2240.113
2240123.0,76.0,87.0,14.0,257.0,2240.123
2240133.0,74.0,83.0,13.0,253.0,2240.133
2240143.0,75.0,79.0,12.0,251.0,2240.143
2240153.0,75.0,77.0,11.0,245.0,2240.153
2240163.0,75.0,72.0,10.0,234.0,2240.163
2240173.0,75.0,73.0,9.0,227.0,2240.173
2240183.0,75.0,68.0,15.0,211.0,2240.183
2240193.0,79.0,71.0,36.0,198.0,2240.193
2240203.0,79.0,81.0,79.0,213.0,2240.203
2240214.0,89.0,83.0,92.0,226.0,2240.214
2240224.0,98.0,85.0,112.0,224.0,2240.224
2240234.0,99.0,78.0,115.0,245.0,2240.234
2240244.0,100.0,73.0,106.0,243.0,2240.244
2240254.0,102.0,69.0,107.0,225.0,2240.254
2240264.0,103.0,65.0,98.0,213.0,2240.264
2240274.0,107.0,72.0,96.0,207.0,2240.274
2240284.0,110.0,77.0,97.0,215.0,2240.284
2240294.0,112.0,84.0,94.0,209.0,2240.294
2240304.0,117.0,93.0,96.0,201.0,2240.304
2240314.0,125.0,111.0,101.0,196.0,2240.314
2240324.0,129.0,126.0,92.0,182.0,2240.324
2240334.0,130.0,141.0,86.0,168.0,2240.334
2240344.0,133.0,157.0,92.0,172.0,2240.344
2240354.0,133.0,172.0,90.0,176.0,2240.354
2240364.0,134.0,189.0,83.0,171.0,2240.364
2240374.0,134.0,202.0,83.0,173.0,2240.374
2240384.0,136.0,215.0,73.0,162.0,2240.384
2240394.0,136.0,229.0,67.0,161.0,2240.394
2240404.0,137.0,244.0,84.0,151.0,2240.404
2240414.0,138.0,258.0,80.0,141.0,2240.414
2240424.0,139.0,271.0,78.0,133.0,2240.424
2240434.0,139.0,280.0,72.0,129.0,2240.434
2240444.0,140.0,291.0,67.0,136.0,2240.444
2240454.0,139.0,295.0,58.0,138.0,2240.454
2240464.0,140.0,303.0,64.0,137.0,2240.464
2240474.0,141.0,309.0,65.0,141.0,2240.474
2240484.0,140.0,317.0,65.0,132.0,2240.484
2240494.0,141.0,324.0,58.0,133.0,2240.494
2240504.0,141.0,330.0,51.0,143.0,2240.504
2240514.0,142.0,335.0,46.0,134.0,2240.514
2240524.0,143.0,341.0,42.0,134.0,2240.524
2240534.0,144.0,348.0,39.0,134.0,2240.534
2240544.0,141.0,350.0,43.0,131.0,2240.544
2240555.0,142.0,358.0,38.0,128.0,2240.555
2240565.0,142.0,364.0,34.0,131.0,2240.565
2240575.0,142.0,370.0,32.0,128.0,2240.575
2240585.0,141.0,376.0,27.0,120.0,2240.585
2240595.0,141.0,382.0,24.0,112.0,2240.595
2240605.0,138.0,385.0,25.0,118.0,2240.605
2240615.0,137.0,390.0,36.0,129.0,2240.615
2240625.0,139.0,401.0,52.0,133.0,2240.625
2240635.0,137.0,408.0,46.0,133.0,2240.635
2240645.0,139.0,414.0,43.0,131.0,2240.645
2240655.0,138.0,419.0,40.0,127.0,2240.655
2240665.0,136.0,422.0,45.0,136.0,2240.665
2240675.0,137.0,426.0,43.0,125.0,2240.675
2240685.0,135.0,427.0,58.0,140.0,2240.685
2240695.0,139.0,432.0,51.0,132.0,2240.695
2240705.0,137.0,435.0,48.0,125.0,2240.705
2240715.0,135.0,437.0,48.0,124.0,2240.715
2240726.0,135.0,441.0,43.0,127.0,2240.726
2240736.0,135.0,442.0,43.0,129.0,2240.736
2240746.0,133.0,444.0,40.0,127.0,2240.746
2240756.0,132.0,444.0,49.0,128.0,2240.756
2240766.0,131.0,449.0,51.0,127.0,2240.766
2240776.0,131.0,452.0,50.0,121.0,2240.776
2240786.0,129.0,454.0,46.0,123.0,2240.786
2240796.0,128.0,457.0,43.0,121.0,2240.796
2240806.0,125.0,459.0,41.0,126.0,2240.806
2240816.0,124.0,461.0,40.0,126.0,2240.816
2240826.0,122.0,463.0,36.0,136.0,2240.826
2240836.0,120.0,463.0,39.0,135.0,2240.836
2240846.0,118.0,463.0,40.0,140.0,2240.846
2240856.0,116.0,465.0,42.0,138.0,2240.856
2240866.0,115.0,464.0,38.0,147.0,2240.866
2240876.0,115.0,467.0,36.0,145.0,2240.876
2240886.0,113.0,467.0,33.0,148.0,2240.886
2240896.0,113.0,469.0,30.0,147.0,2240.896
2240906.0,111.0,470.0,28.0,138.0,2240.906
2240916.0,111.0,471.0,28.0,152.0,2240.916
2240926.0,108.0,471.0,26.0,148.0,2240.926
2240936.0,107.0,472.0,22.0,161.0,2240.936
2240946.0,106.0,473.0,22.0,165.0,2240.946
2240956.0,106.0,474.0,34.0,187.0,2240.956
2240966.0,106.0,475.0,34.0,174.0,2240.966
2240976.0,107.0,478.0,33.0,161.0,2240.976
2240986.0,109.0,481.0,32.0,165.0,2240.986
2240996.0,106.0,480.0,32.0,181.0,2240.996
2241006.0,107.0,484.0,29.0,190.0,2241.006
2241016.0,106.0,484.0,28.0,175.0,2241.016
2241026.0,105.0,487.0,26.0,177.0,2241.026
2241036.0,104.0,484.0,24.0,179.0,2241.036
2241046.0,103.0,483.0,35.0,183.0,2241.046
2241056.0,103.0,482.0,32.0,182.0,2241.056
2241067.0,102.0,482.0,29.0,207.0,2241.067
2241077.0,102.0,483.0,26.0,186.0,2241.077
2241087.0,100.0,482.0,25.0,179.0,2241.087
2241097.0,98.0,483.0,22.0,183.0,2241.097
2241107.0,94.0,480.0,34.0,183.0,2241.107
2241117.0,94.0,481.0,32.0,189.0,2241.117
2241127.0,91.0,480.0,31.0,188.0,2241.127
2241137.0,89.0,481.0,28.0,184.0,2241.137
2241147.0,87.0,480.0,28.0,208.0,2241.147
2241157.0,86.0,480.0,29.0,197.0,2241.157
2241167.0,84.0,480.0,28.0,197.0,2241.167
2241177.0,81.0,479.0,25.0,196.0,2241.177
2241187.0,80.0,478.0,22.0,192.0,2241.187
2241197.0,79.0,477.0,19.0,186.0,2241.197
2241207.0,77.0,474.0,36.0,189.0,2241.207
2241217.0,75.0,473.0,31.0,189.0,2241.217
2241227.0,73.0,471.0,27.0,193.0,2241.227
2241238.0,72.0,469.0,27.0,192.0,2241.238
2241248.0,71.0,467.0,25.0,208.0,2241.248
2241258.0,71.0,467.0,24.0,197.0,2241.258
2241268.0,69.0,466.0,37.0,198.0,2241.268
2241278.0,68.0,465.0,32.0,196.0,2241.278
2241288.0,67.0,463.0,29.0,195.0,2241.288
2241298.0,65.0,460.0,26.0,207.0,2241.298
2241308.0,66.0,461.0,24.0,201.0,2241.308
2241318.0,63.0,459.0,23.0,198.0,2241.318
2241328.0,63.0,459.0,21.0,199.0,2241.328
2241338.0,61.0,456.0,18.0,213.0,2241.338
2241348.0,60.0,454.0,21.0,211.0,2241.348
2241358.0,60.0,454.0,22.0,207.0,2241.358
2241368.0,58.0,451.0,21.0,217.0,2241.368
2241378.0,61.0,451.0,20.0,210.0,2241.378
2241388.0,58.0,450.0,18.0,215.0,2241.388
2241398.0,57.0,448.0,17.0,211.0,2241.398
2241408.0,56.0,446.0,17.0,211.0,2241.408
2241418.0,53.0,443.0,17.0,217.0,2241.418
2241428.0,53.0,441.0,30.0,230.0,2241.428
2241438.0,52.0,439.0,35.0,216.0,2241.438
2241448.0,53.0,438.0,31.0,209.0,2241.448
2241458.0,52.0,438.0,27.0,209.0,2241.458
2241468.0,50.0,435.0,30.0,222.0,2241.468
2241478.0,49.0,431.0,32.0,235.0,2241.478
2241488.0,48.0,430.0,33.0,217.0,2241.488
2241498.0,48.0,429.0,30.0,212.0,2241.498
2241508.0,48.0,423.0,27.0,223.0,2241.508
2241518.0,47.0,423.0,28.0,217.0,2241.518
2241528.0,48.0,422.0,25.0,217.0,2241.528
2241538.0,49.0,420.0,23.0,219.0,2241.538
2241548.0,47.0,417.0,21.0,228.0,2241.548
2241558.0,47.0,416.0,22.0,230.0,2241.558
2241568.0,47.0,414.0,21.0,217.0,2241.568
2241579.0,46.0,411.0,22.0,220.0,2241.579
2241589.0,46.0,410.0,35.0,226.0,2241.589
2241599.0,48.0,410.0,34.0,223.0,2241.599
2241609.0,46.0,409.0,31.0,224.0,2241.609
2241619.0,45.0,405.0,27.0,221.0,2241.619
2241629.0,45.0,401.0,24.0,227.0,2241.629
2241639.0,45.0,399.0,25.0,229.0,2241.639
2241649.0,45.0,398.0,24.0,223.0,2241.649
2241659.0,44.0,395.0,28.0,235.0,2241.659
2241669.0,46.0,397.0,25.0,224.0,2241.669
2241679.0,46.0,396.0,23.0,228.0,2241.679
2241689.0,45.0,396.0,24.0,220.0,2241.689
2241699.0,45.0,394.0,22.0,223.0,2241.699
2241709.0,45.0,393.0,21.0,227.0,2241.709
2241719.0,45.0,391.0,20.0,222.0,2241.719
2241729.0,44.0,390.0,16.0,221.0,2241.729
2241739.0,44.0,385.0,16.0,241.0,2241.739
2241750.0,47.0,385.0,20.0,228.0,2241.75
2241760.0,46.0,385.0,18.0,225.0,2241.76
2241770.0,46.0,382.0,16.0,232.0,2241.77
2241780.0,45.0,382.0,15.0,235.0,2241.78
2241790.0,45.0,380.0,13.0,233.0,2241.79
2241800.0,44.0,378.0,14.0,231.0,2241.8
2241810.0,45.0,377.0,13.0,230.0,2241.81
2241820.0,46.0,376.0,27.0,238.0,2241.82
2241830.0,44.0,374.0,25.0,236.0,2241.83
2241840.0,45.0,372.0,22.0,233.0,2241.84
2241850.0,45.0,371.0,19.0,231.0,2241.85
2241860.0,44.0,370.0,18.0,248.0,2241.86
2241870.0,44.0,369.0,17.0,236.0,2241.87
2241880.0,44.0,367.0,16.0,238.0,2241.88
2241890.0,44.0,365.0,21.0,245.0,2241.89
2241900.0,46.0,364.0,31.0,238.0,2241.9
2241910.0,47.0,364.0,28.0,247.0,2241.91
2241920.0,47.0,362.0,25.0,239.0,2241.92
2241930.0,45.0,358.0,22.0,234.0,2241.93
2241940.0,45.0,355.0,21.0,238.0,2241.94
2241950.0,44.0,352.0,20.0,239.0,2241.95
2241960.0,46.0,351.0,18.0,237.0,2241.96
2241970.0,45.0,347.0,15.0,237.0,2241.97
2241980.0,46.0,346.0,14.0,237.0,2241.98
2241990.0,46.0,341.0,23.0,245.0,2241.99
2242000.0,45.0,340.0,20.0,246.0,2242.0
2242010.0,45.0,339.0,19.0,243.0,2242.01
2242020.0,44.0,334.0,16.0,246.0,2242.02
2242030.0,44.0,333.0,16.0,246.0,2242.03
2242040.0,44.0,331.0,14.0,247.0,2242.04
2242050.0,43.0,328.0,13.0,245.0,2242.05
2242060.0,45.0,322.0,23.0,247.0,2242.06
2242070.0,44.0,322.0,33.0,249.0,2242.07
2242080.0,44.0,322.0,30.0,250.0,2242.08
2242091.0,44.0,322.0,26.0,243.0,2242.091
2242101.0,45.0,320.0,23.0,257.0,2242.101
2242111.0,44.0,321.0,22.0,249.0,2242.111
2242121.0,46.0,321.0,19.0,251.0,2242.121
2242131.0,46.0,319.0,18.0,248.0,2242.131
2242141.0,47.0,317.0,27.0,256.0,2242.141
2242151.0,46.0,318.0,28.0,264.0,2242.151
2242161.0,46.0,318.0,24.0,266.0,2242.161
2242171.0,46.0,315.0,23.0,259.0,2242.171
2242181.0,48.0,313.0,29.0,258.0,2242.181
2242191.0,47.0,314.0,26.0,260.0,2242.191
2242201.0,46.0,311.0,23.0,257.0,2242.201
2242211.0,47.0,310.0,20.0,254.0,2242.211
2242221.0,47.0,309.0,31.0,258.0,2242.221
2242231.0,48.0,307.0,32.0,254.0,2242.231
2242241.0,47.0,305.0,28.0,266.0,2242.241
2242251.0,47.0,301.0,26.0,257.0,2242.251
2242262.0,46.0,300.0,23.0,245.0,2242.262
2242272.0,46.0,298.0,21.0,248.0,2242.272
2242282.0,47.0,294.0,21.0,252.0,2242.282
2242292.0,45.0,293.0,19.0,249.0,2242.292
2242302.0,48.0,289.0,25.0,254.0,2242.302
2242312.0,47.0,290.0,37.0,247.0,2242.312
2242322.0,47.0,289.0,33.0,241.0,2242.322
2242332.0,47.0,287.0,33.0,247.0,2242.332
2242342.0,47.0,285.0,30.0,246.0,2242.342
2242352.0,47.0,283.0,27.0,246.0,2242.352
2242362.0,47.0,283.0,24.0,242.0,2242.362
2242372.0,47.0,280.0,24.0,253.0,2242.372
2242382.0,47.0,278.0,39.0,240.0,2242.382
2242392.0,48.0,278.0,36.0,237.0,2242.392
2242402.0,47.0,276.0,33.0,239.0,2242.402
2242412.0,45.0,275.0,28.0,245.0,2242.412
2242422.0,45.0,274.0,26.0,243.0,2242.422
2242432.0,44.0,272.0,23.0,243.0,2242.432
2242442.0,43.0,270.0,20.0,243.0,2242.442
2242452.0,43.0,267.0,18.0,257.0,2242.452
2242462.0,43.0,268.0,15.0,247.0,2242.462
2242472.0,43.0,265.0,20.0,253.0,2242.472
2242482.0,43.0,266.0,33.0,252.0,2242.482
2242492.0,43.0,266.0,32.0,240.0,2242.492
2242502.0,44.0,266.0,28.0,244.0,2242.502
2242512.0,44.0,264.0,25.0,244.0,2242.512
2242522.0,46.0,261.0,23.0,246.0,2242.522
2242532.0,44.0,261.0,21.0,251.0,2242.532
2242542.0,47.0,259.0,23.0,241.0,2242.542
2242552.0,46.0,256.0,33.0,243.0,2242.552
2242562.0,46.0,256.0,40.0,240.0,2242.562
2242572.0,45.0,254.0,36.0,247.0,2242.572
2242582.0,45.0,254.0,31.0,244.0,2242.582
2242592.0,45.0,254.0,28.0,245.0,2242.592
2242603.0,45.0,251.0,24.0,244.0,2242.603
2242613.0,45.0,250.0,24.0,247.0,2242.613
2242623.0,45.0,248.0,38.0,251.0,2242.623
2242633.0,46.0,249.0,46.0,246.0,2242.633
2242643.0,45.0,248.0,41.0,248.0,2242.643
2242653.0,45.0,248.0,36.0,247.0,2242.653
2242663.0,45.0,246.0,33.0,251.0,2242.663
2242673.0,45.0,245.0,29.0,245.0,2242.673
2242683.0,44.0,244.0,26.0,241.0,2242.683
2242693.0,44.0,243.0,25.0,244.0,2242.693
2242703.0,44.0,243.0,22.0,245.0,2242.703
2242713.0,44.0,240.0,19.0,243.0,2242.713
2242723.0,45.0,239.0,33.0,251.0,2242.723
2242733.0,46.0,237.0,34.0,255.0,2242.733
2242743.0,47.0,237.0,37.0,251.0,2242.743
2242753.0,46.0,236.0,32.0,250.0,2242.753
2242763.0,47.0,235.0,29.0,250.0,2242.763
2242774.0,48.0,233.0,26.0,252.0,2242.774
2242784.0,48.0,230.0,23.0,252.0,2242.784
2242794.0,50.0,230.0,35.0,251.0,2242.794
2242804.0,49.0,229.0,33.0,251.0,2242.804
2242814.0,50.0,230.0,32.0,246.0,2242.814
2242824.0,48.0,230.0,28.0,244.0,2242.824
2242834.0,48.0,230.0,27.0,247.0,2242.834
2242844.0,48.0,231.0,24.0,244.0,2242.844
2242854.0,48.0,231.0,21.0,245.0,2242.854
2242864.0,48.0,231.0,19.0,241.0,2242.864
2242874.0,49.0,229.0,29.0,241.0,2242.874
2242884.0,50.0,227.0,38.0,241.0,2242.884
2242894.0,49.0,227.0,32.0,243.0,2242.894
2242904.0,50.0,224.0,35.0,245.0,2242.904
2242914.0,50.0,224.0,31.0,241.0,2242.914
2242924.0,48.0,223.0,27.0,239.0,2242.924
2242934.0,48.0,220.0,26.0,242.0,2242.934
2242944.0,48.0,220.0,37.0,241.0,2242.944
2242954.0,47.0,217.0,35.0,238.0,2242.954
2242964.0,47.0,216.0,32.0,246.0,2242.964
2242974.0,46.0,215.0,28.0,241.0,2242.974
2242984.0,46.0,212.0,30.0,249.0,2242.984
2242994.0,46.0,213.0,27.0,242.0,2242.994
2243004.0,46.0,211.0,25.0,242.0,2243.004
2243014.0,47.0,208.0,24.0,243.0,2243.014
2243024.0,47.0,208.0,30.0,238.0,2243.024
2243034.0,47.0,206.0,27.0,239.0,2243.034
2243044.0,46.0,204.0,23.0,242.0,2243.044
2243054.0,46.0,201.0,21.0,243.0,2243.054
2243064.0,45.0,201.0,19.0,246.0,2243.064
2243074.0,46.0,200.0,18.0,241.0,2243.074
2243084.0,45.0,199.0,16.0,242.0,2243.084
2243094.0,47.0,195.0,21.0,246.0,2243.094
2243104.0,47.0,197.0,20.0,243.0,2243.104
2243115.0,45.0,196.0,16.0,242.0,2243.115
2243125.0,45.0,197.0,16.0,243.0,2243.125
2243135.0,45.0,198.0,15.0,240.0,2243.135
2243145.0,44.0,198.0,12.0,241.0,2243.145
2243155.0,43.0,198.0,11.0,239.0,2243.155
2243165.0,45.0,195.0,17.0,249.0,2243.165
2243175.0,46.0,198.0,15.0,244.0,2243.175
2243185.0,44.0,197.0,14.0,240.0,2243.185
2243195.0,45.0,198.0,15.0,243.0,2243.195
2243205.0,46.0,198.0,15.0,245.0,2243.205
2243215.0,46.0,199.0,14.0,242.0,2243.215
2243225.0,46.0,198.0,16.0,240.0,2243.225
2243235.0,47.0,192.0,25.0,247.0,2243.235
2243245.0,46.0,195.0,31.0,236.0,2243.245
2243255.0,47.0,195.0,32.0,236.0,2243.255
2243265.0,46.0,194.0,28.0,237.0,2243.265
2243275.0,46.0,193.0,26.0,239.0,2243.275
2243286.0,46.0,192.0,22.0,237.0,2243.286
2243296.0,48.0,192.0,21.0,243.0,2243.296
2243306.0,46.0,190.0,24.0,236.0,2243.306
2243316.0,46.0,190.0,31.0,237.0,2243.316
2243326.0,46.0,190.0,28.0,231.0,2243.326
2243336.0,44.0,188.0,24.0,229.0,2243.336
2243346.0,46.0,185.0,24.0,230.0,2243.346
2243356.0,44.0,187.0,20.0,231.0,2243.356
2243366.0,47.0,186.0,22.0,234.0,2243.366
2243376.0,47.0,186.0,20.0,227.0,2243.376
2243386.0,45.0,183.0,19.0,225.0,2243.386
2243396.0,47.0,183.0,37.0,225.0,2243.396
2243406.0,45.0,180.0,32.0,229.0,2243.406
2243416.0,46.0,180.0,33.0,227.0,2243.416
2243426.0,46.0,182.0,30.0,219.0,2243.426
2243436.0,45.0,181.0,25.0,224.0,2243.436
2243446.0,45.0,180.0,23.0,218.0,2243.446
2243456.0,45.0,180.0,20.0,224.0,2243.456
2243466.0,47.0,176.0,24.0,226.0,2243.466
2243476.0,46.0,176.0,33.0,226.0,2243.476
2243486.0,46.0,174.0,32.0,232.0,2243.486
2243496.0,45.0,172.0,30.0,231.0,2243.496
2243506.0,44.0,174.0,26.0,226.0,2243.506
2243516.0,44.0,173.0,24.0,227.0,2243.516
2243526.0,44.0,174.0,35.0,232.0,2243.526
2243536.0,44.0,173.0,31.0,232.0,2243.536
2243546.0,45.0,172.0,29.0,234.0,2243.546
2243556.0,46.0,174.0,25.0,237.0,2243.556
2243566.0,46.0,173.0,23.0,236.0,2243.566
2243576.0,46.0,175.0,22.0,229.0,2243.576
2243586.0,44.0,172.0,21.0,226.0,2243.586
2243596.0,44.0,173.0,20.0,223.0,2243.596
2243606.0,44.0,170.0,25.0,226.0,2243.606
2243616.0,46.0,170.0,30.0,233.0,2243.616
2243627.0,45.0,170.0,27.0,224.0,2243.627
2243637.0,46.0,169.0,24.0,224.0,2243.637
2243647.0,47.0,168.0,25.0,224.0,2243.647
2243657.0,47.0,168.0,23.0,218.0,2243.657
2243667.0,46.0,166.0,21.0,217.0,2243.667
2243677.0,45.0,164.0,21.0,222.0,2243.677
2243687.0,47.0,161.0,33.0,223.0,2243.687
2243697.0,45.0,159.0,28.0,220.0,2243.697
2243707.0,46.0,157.0,28.0,216.0,2243.707
2243717.0,45.0,155.0,24.0,219.0,2243.717
2243727.0,45.0,154.0,25.0,216.0,2243.727
2243737.0,46.0,151.0,22.0,216.0,2243.737
2243747.0,45.0,150.0,20.0,213.0,2243.747
2243757.0,46.0,149.0,18.0,215.0,2243.757
2243767.0,45.0,149.0,15.0,213.0,2243.767
2243777.0,45.0,148.0,24.0,221.0,2243.777
2243787.0,47.0,147.0,24.0,218.0,2243.787
2243798.0,46.0,147.0,23.0,217.0,2243.798
2243808.0,47.0,147.0,20.0,210.0,2243.808
2243818.0,46.0,145.0,24.0,214.0,2243.818
2243828.0,46.0,145.0,30.0,212.0,2243.828
2243838.0,48.0,146.0,27.0,213.0,2243.838
2243848.0,46.0,144.0,24.0,208.0,2243.848
2243858.0,47.0,143.0,23.0,216.0,2243.858
2243868.0,48.0,146.0,21.0,208.0,2243.868
2243878.0,48.0,146.0,19.0,202.0,2243.878
2243888.0,48.0,146.0,17.0,208.0,2243.888
2243898.0,47.0,146.0,15.0,207.0,2243.898
2243908.0,49.0,143.0,20.0,208.0,2243.908
2243918.0,48.0,144.0,22.0,205.0,2243.918
2243928.0,49.0,142.0,22.0,204.0,2243.928
2243938.0,48.0,143.0,19.0,201.0,2243.938
2243948.0,47.0,142.0,17.0,200.0,2243.948
2243958.0,48.0,142.0,18.0,197.0,2243.958
2243968.0,47.0,142.0,17.0,198.0,2243.968
2243978.0,47.0,140.0,18.0,198.0,2243.978
2243988.0,48.0,140.0,30.0,198.0,2243.988
2243998.0,48.0,139.0,30.0,194.0,2243.998
2244008.0,48.0,139.0,25.0,195.0,2244.008
2244018.0,47.0,138.0,24.0,194.0,2244.018
2244028.0,46.0,135.0,21.0,194.0,2244.028
2244038.0,45.0,135.0,18.0,200.0,2244.038
2244048.0,47.0,135.0,22.0,192.0,2244.048
2244058.0,45.0,135.0,18.0,191.0,2244.058
2244068.0,44.0,135.0,16.0,189.0,2244.068
2244078.0,44.0,133.0,26.0,193.0,2244.078
2244088.0,45.0,134.0,32.0,195.0,2244.088
2244098.0,46.0,133.0,28.0,186.0,2244.098
2244108.0,48.0,134.0,28.0,188.0,2244.108
2244118.0,47.0,133.0,25.0,189.0,2244.118
2244128.0,49.0,133.0,25.0,193.0,2244.128
2244139.0,48.0,132.0,21.0,186.0,2244.139
2244149.0,49.0,129.0,19.0,188.0,2244.149
2244159.0,48.0,130.0,17.0,186.0,2244.159
2244169.0,47.0,127.0,15.0,186.0,2244.169
2244179.0,48.0,127.0,13.0,186.0,2244.179
2244189.0,49.0,126.0,12.0,182.0,2244.189
2244199.0,50.0,125.0,11.0,182.0,2244.199
2244209.0,48.0,125.0,11.0,183.0,2244.209
2244219.0,48.0,124.0,9.0,184.0,2244.219
2244229.0,49.0,124.0,8.0,183.0,2244.229
2244239.0,48.0,123.0,8.0,182.0,2244.239
2244249.0,47.0,120.0,12.0,186.0,2244.249
2244259.0,47.0,121.0,11.0,186.0,2244.259
2244269.0,49.0,117.0,39.0,189.0,2244.269
2244279.0,48.0,117.0,36.0,187.0,2244.279
2244289.0,50.0,119.0,42.0,177.0,2244.289
2244299.0,50.0,118.0,41.0,176.0,2244.299
2244310.0,50.0,118.0,36.0,173.0,2244.31
2244320.0,51.0,118.0,32.0,169.0,2244.32
2244330.0,51.0,117.0,29.0,169.0,2244.33
2244340.0,51.0,116.0,26.0,170.0,2244.34
2244350.0,52.0,115.0,24.0,176.0,2244.35
2244360.0,50.0,113.0,23.0,172.0,2244.36
2244370.0,52.0,112.0,22.0,175.0,2244.37
2244380.0,51.0,110.0,21.0,175.0,2244.38
2244390.0,52.0,109.0,32.0,175.0,2244.39
2244400.0,51.0,108.0,32.0,172.0,2244.4
2244410.0,51.0,105.0,35.0,170.0,2244.41
2244420.0,51.0,103.0,31.0,163.0,2244.42
2244430.0,51.0,102.0,27.0,161.0,2244.43
2244440.0,52.0,101.0,24.0,165.0,2244.44
2244450.0,51.0,100.0,21.0,165.0,2244.45
2244460.0,51.0,98.0,19.0,167.0,2244.46
2244470.0,50.0,96.0,34.0,175.0,2244.47
2244480.0,50.0,94.0,37.0,169.0,2244.48
2244490.0,52.0,95.0,35.0,168.0,2244.49
2244500.0,51.0,92.0,33.0,161.0,2244.5
2244510.0,52.0,92.0,29.0,160.0,2244.51
2244520.0,51.0,92.0,27.0,166.0,2244.52
2244530.0,51.0,90.0,41.0,164.0,2244.53
2244540.0,51.0,90.0,37.0,161.0,2244.54
2244550.0,51.0,88.0,35.0,164.0,2244.55
2244560.0,51.0,86.0,35.0,161.0,2244.56
2244570.0,51.0,87.0,30.0,163.0,2244.57
2244580.0,51.0,86.0,28.0,163.0,2244.58
2244590.0,51.0,85.0,25.0,167.0,2244.59
2244600.0,51.0,84.0,40.0,170.0,2244.6
2244610.0,51.0,84.0,42.0,172.0,2244.61
2244620.0,51.0,81.0,39.0,172.0,2244.62
2244630.0,52.0,81.0,36.0,169.0,2244.63
2244640.0,53.0,83.0,31.0,167.0,2244.64
2244651.0,52.0,82.0,28.0,165.0,2244.651
2244661.0,53.0,79.0,30.0,165.0,2244.661
2244671.0,51.0,79.0,37.0,165.0,2244.671
2244681.0,51.0,78.0,33.0,162.0,2244.681
2244691.0,51.0,78.0,28.0,160.0,2244.691
2244701.0,52.0,78.0,26.0,160.0,2244.701
2244711.0,51.0,75.0,33.0,165.0,2244.711
2244721.0,50.0,76.0,30.0,159.0,2244.721
2244731.0,51.0,77.0,27.0,161.0,2244.731
2244741.0,51.0,78.0,25.0,159.0,2244.741
2244751.0,50.0,76.0,31.0,162.0,2244.751
2244761.0,52.0,78.0,30.0,159.0,2244.761
2244771.0,51.0,79.0,25.0,159.0,2244.771
2244781.0,51.0,78.0,24.0,160.0,2244.781
2244791.0,50.0,77.0,20.0,164.0,2244.791
2244801.0,49.0,77.0,18.0,165.0,2244.801
2244811.0,48.0,76.0,16.0,166.0,2244.811
2244822.0,48.0,74.0,16.0,174.0,2244.822
2244832.0,48.0,75.0,15.0,172.0,2244.832
2244842.0,46.0,75.0,13.0,173.0,2244.842
2244852.0,47.0,75.0,15.0,170.0,2244.852
2244862.0,46.0,76.0,12.0,176.0,2244.862
2244872.0,45.0,74.0,22.0,177.0,2244.872
2244882.0,47.0,77.0,34.0,179.0,2244.882
2244892.0,47.0,79.0,30.0,181.0,2244.892
2244902.0,46.0,78.0,28.0,180.0,2244.902
2244912.0,47.0,79.0,25.0,181.0,2244.912
2244922.0,47.0,79.0,23.0,182.0,2244.922
2244932.0,48.0,79.0,20.0,184.0,2244.932
2244942.0,48.0,77.0,18.0,191.0,2244.942
2244952.0,49.0,75.0,23.0,195.0,2244.952
2244962.0,49.0,75.0,30.0,199.0,2244.962
2244972.0,51.0,74.0,27.0,194.0,2244.972
2244982.0,52.0,74.0,25.0,193.0,2244.982
2244992.0,53.0,74.0,23.0,194.0,2244.992
2245002.0,55.0,74.0,21.0,197.0,2245.002
2245012.0,52.0,70.0,24.0,207.0,2245.012
2245022.0,53.0,71.0,31.0,207.0,2245.022
2245032.0,53.0,71.0,29.0,207.0,2245.032
2245042.0,54.0,71.0,26.0,203.0,2245.042
2245052.0,56.0,70.0,23.0,201.0,2245.052
2245062.0,57.0,72.0,21.0,204.0,2245.062
2245072.0,58.0,71.0,22.0,212.0,2245.072
2245082.0,57.0,71.0,20.0,209.0,2245.082
2245092.0,57.0,71.0,17.0,208.0,2245.092
2245102.0,57.0,71.0,16.0,208.0,2245.102
2245112.0,56.0,70.0,16.0,205.0,2245.112
2245122.0,57.0,70.0,22.0,202.0,2245.122
2245132.0,58.0,72.0,20.0,200.0,2245.132
2245142.0,58.0,72.0,20.0,199.0,2245.142
2245152.0,56.0,71.0,17.0,199.0,2245.152
2245163.0,57.0,73.0,16.0,198.0,2245.163
2245173.0,57.0,73.0,15.0,197.0,2245.173
2245183.0,57.0,74.0,27.0,190.0,2245.183
2245193.0,58.0,74.0,24.0,187.0,2245.193
2245203.0,57.0,74.0,20.0,186.0,2245.203
2245213.0,57.0,74.0,21.0,186.0,2245.213
2245223.0,58.0,74.0,18.0,183.0,2245.223
2245233.0,58.0,74.0,20.0,183.0,2245.233
2245243.0,58.0,73.0,19.0,181.0,2245.243
2245253.0,57.0,74.0,17.0,181.0,2245.253
2245263.0,57.0,72.0,16.0,175.0,2245.263
2245273.0,56.0,70.0,15.0,170.0,2245.273
2245283.0,54.0,70.0,29.0,166.0,2245.283
2245293.0,55.0,69.0,26.0,163.0,2245.293
2245303.0,52.0,67.0,23.0,164.0,2245.303
2245313.0,50.0,65.0,21.0,158.0,2245.313
2245323.0,51.0,64.0,19.0,154.0,2245.323
2245334.0,51.0,63.0,19.0,148.0,2245.334
2245344.0,50.0,60.0,21.0,148.0,2245.344
2245354.0,51.0,61.0,29.0,143.0,2245.354
2245364.0,52.0,59.0,27.0,137.0,2245.364
2245374.0,50.0,57.0,24.0,146.0,2245.374
2245384.0,49.0,54.0,22.0,141.0,2245.384
2245394.0,48.0,53.0,19.0,142.0,2245.394
2245404.0,47.0,52.0,19.0,148.0,2245.404
2245414.0,47.0,48.0,18.0,151.0,2245.414
2245424.0,47.0,48.0,15.0,155.0,2245.424
2245434.0,47.0,47.0,15.0,159.0,2245.434
2245444.0,45.0,46.0,14.0,165.0,2245.444
2245454.0,44.0,45.0,13.0,169.0,2245.454
2245464.0,45.0,45.0,11.0,168.0,2245.464
2245474.0,46.0,45.0,10.0,172.0,2245.474
2245484.0,46.0,44.0,19.0,182.0,2245.484
2245494.0,45.0,45.0,28.0,188.0,2245.494
2245504.0,47.0,45.0,29.0,187.0,2245.504
2245514.0,47.0,45.0,27.0,186.0,2245.514
2245524.0,46.0,44.0,23.0,194.0,2245.524
2245534.0,45.0,41.0,22.0,197.0,2245.534
2245544.0,45.0,45.0,35.0,204.0,2245.544
2245554.0,46.0,43.0,32.0,201.0,2245.554
2245564.0,46.0,42.0,35.0,207.0,2245.564
2245574.0,45.0,43.0,31.0,209.0,2245.574
2245584.0,46.0,42.0,28.0,209.0,2245.584
2245594.0,44.0,42.0,26.0,208.0,2245.594
2245604.0,45.0,41.0,35.0,219.0,2245.604
2245614.0,46.0,44.0,37.0,213.0,2245.614
2245624.0,46.0,44.0,33.0,212.0,2245.624
2245634.0,47.0,42.0,33.0,217.0,2245.634
2245644.0,45.0,41.0,29.0,217.0,2245.644
2245654.0,47.0,40.0,29.0,219.0,2245.654
2245664.0,46.0,40.0,27.0,220.0,2245.664
2245675.0,47.0,40.0,25.0,219.0,2245.675
2245685.0,48.0,39.0,23.0,216.0,2245.685
2245695.0,48.0,41.0,35.0,216.0,2245.695
2245705.0,49.0,39.0,34.0,217.0,2245.705
2245715.0,49.0,40.0,29.0,220.0,2245.715
2245725.0,50.0,40.0,28.0,227.0,2245.725
2245735.0,49.0,40.0,28.0,223.0,2245.735
2245745.0,48.0,40.0,24.0,221.0,2245.745
2245755.0,47.0,41.0,27.0,225.0,2245.755
2245765.0,48.0,44.0,29.0,220.0,2245.765
2245775.0,48.0,42.0,27.0,218.0,2245.775
2245785.0,47.0,44.0,24.0,222.0,2245.785
2245795.0,47.0,44.0,24.0,219.0,2245.795
2245805.0,48.0,43.0,24.0,214.0,2245.805
2245815.0,48.0,43.0,20.0,210.0,2245.815
2245825.0,48.0,42.0,19.0,209.0,2245.825
2245835.0,49.0,42.0,19.0,207.0,2245.835
2245846.0,49.0,42.0,27.0,210.0,2245.846
2245856.0,51.0,43.0,30.0,204.0,2245.856
2245866.0,52.0,43.0,29.0,203.0,2245.866
2245876.0,54.0,42.0,25.0,194.0,2245.876
2245886.0,54.0,41.0,22.0,190.0,2245.886
2245896.0,56.0,41.0,20.0,191.0,2245.896
2245906.0,56.0,41.0,18.0,191.0,2245.906
2245916.0,56.0,42.0,31.0,185.0,2245.916
