time (ms),signal 0,signal 1,signal 2,signal3,time (sec)
2250873.0,45.0,40.0,24.0,44.0,2250.873
2250883.0,46.0,41.0,28.0,43.0,2250.883
2250893.0,46.0,42.0,36.0,44.0,2250.893
2250903.0,48.0,41.0,33.0,49.0,2250.903
2250913.0,48.0,40.0,28.0,49.0,2250.913
2250923.0,49.0,40.0,29.0,49.0,2250.923
2250933.0,51.0,39.0,30.0,51.0,2250.933
2250943.0,51.0,40.0,30.0,52.0,2250.943
2250953.0,52.0,39.0,27.0,50.0,2250.953
2250963.0,51.0,40.0,25.0,51.0,2250.963
2250973.0,54.0,41.0,33.0,54.0,2250.973
2250983.0,52.0,40.0,28.0,58.0,2250.983
2250993.0,52.0,40.0,38.0,60.0,2250.993
2251003.0,53.0,39.0,34.0,57.0,2251.003
2251013.0,52.0,39.0,29.0,56.0,2251.013
2251023.0,51.0,39.0,39.0,55.0,2251.023
2251033.0,51.0,39.0,35.0,53.0,2251.033
2251043.0,52.0,40.0,32.0,51.0,2251.043
2251053.0,52.0,41.0,32.0,50.0,2251.053
2251063.0,51.0,42.0,33.0,51.0,2251.063
2251073.0,51.0,40.0,29.0,53.0,2251.073
2251083.0,51.0,40.0,25.0,51.0,2251.083
2251094.0,50.0,41.0,32.0,48.0,2251.094
2251104.0,51.0,41.0,35.0,47.0,2251.104
2251114.0,49.0,41.0,31.0,48.0,2251.114
2251124.0,49.0,41.0,33.0,47.0,2251.124
2251134.0,48.0,41.0,32.0,47.0,2251.134
2251144.0,48.0,41.0,30.0,46.0,2251.144
2251154.0,47.0,38.0,27.0,44.0,2251.154
2251164.0,46.0,38.0,24.0,42.0,2251.164
2251174.0,47.0,38.0,21.0,42.0,2251.174
2251184.0,47.0,42.0,36.0,43.0,2251.184
2251194.0,47.0,41.0,37.0,48.0,2251.194
2251204.0,46.0,41.0,34.0,48.0,2251.204
2251214.0,45.0,40.0,29.0,45.0,2251.214
2251224.0,45.0,39.0,32.0,46.0,2251.224
2251234.0,44.0,38.0,31.0,45.0,2251.234
2251244.0,44.0,36.0,27.0,43.0,2251.244
2251254.0,44.0,37.0,24.0,43.0,2251.254
2251264.0,44.0,37.0,22.0,46.0,2251.264
2251274.0,46.0,40.0,24.0,49.0,2251.274
2251284.0,45.0,39.0,31.0,54.0,2251.284
2251294.0,46.0,39.0,28.0,57.0,2251.294
2251304.0,47.0,38.0,24.0,61.0,2251.304
2251314.0,47.0,38.0,23.0,57.0,2251.314
2251324.0,47.0,37.0,20.0,53.0,2251.324
2251334.0,48.0,37.0,21.0,49.0,2251.334
2251344.0,50.0,37.0,18.0,47.0,2251.344
2251354.0,48.0,40.0,26.0,49.0,2251.354
2251364.0,50.0,40.0,29.0,54.0,2251.364
2251374.0,51.0,41.0,25.0,56.0,2251.374
2251384.0,51.0,39.0,22.0,53.0,2251.384
2251394.0,50.0,39.0,26.0,53.0,2251.394
2251404.0,48.0,38.0,23.0,51.0,2251.404
2251414.0,49.0,39.0,28.0,49.0,2251.414
2251424.0,48.0,41.0,38.0,49.0,2251.424
2251435.0,47.0,40.0,33.0,46.0,2251.435
2251445.0,47.0,40.0,29.0,47.0,2251.445
2251455.0,45.0,39.0,26.0,45.0,2251.455
2251465.0,46.0,38.0,23.0,45.0,2251.465
2251475.0,46.0,39.0,28.0,48.0,2251.475
2251485.0,45.0,38.0,26.0,48.0,2251.485
2251495.0,45.0,39.0,24.0,49.0,2251.495
2251505.0,45.0,39.0,22.0,50.0,2251.505
2251515.0,44.0,37.0,19.0,47.0,2251.515
2251525.0,43.0,38.0,17.0,45.0,2251.525
2251535.0,44.0,37.0,16.0,48.0,2251.535
2251545.0,44.0,37.0,13.0,49.0,2251.545
2251555.0,44.0,37.0,13.0,50.0,2251.555
2251565.0,47.0,39.0,12.0,60.0,2251.565
2251575.0,47.0,43.0,14.0,96.0,2251.575
2251585.0,54.0,55.0,18.0,125.0,2251.585
2251595.0,66.0,102.0,27.0,135.0,2251.595
2251606.0,70.0,120.0,30.0,158.0,2251.606
2251616.0,79.0,142.0,37.0,197.0,2251.616
2251626.0,95.0,207.0,48.0,229.0,2251.626
2251636.0,101.0,236.0,68.0,231.0,2251.636
2251646.0,104.0,232.0,63.0,242.0,2251.646
2251656.0,116.0,232.0,61.0,238.0,2251.656
2251666.0,125.0,227.0,59.0,290.0,2251.666
2251676.0,121.0,209.0,62.0,329.0,2251.676
2251686.0,115.0,208.0,61.0,309.0,2251.686
2251696.0,110.0,206.0,54.0,286.0,2251.696
2251706.0,124.0,203.0,53.0,268.0,2251.706
2251716.0,125.0,202.0,49.0,249.0,2251.716
2251726.0,122.0,208.0,48.0,280.0,2251.726
2251736.0,116.0,202.0,56.0,287.0,2251.736
2251746.0,118.0,209.0,54.0,268.0,2251.746
2251756.0,123.0,233.0,56.0,274.0,2251.756
2251766.0,115.0,233.0,52.0,263.0,2251.766
2251776.0,111.0,242.0,57.0,292.0,2251.776
2251786.0,109.0,276.0,55.0,292.0,2251.786
2251796.0,106.0,287.0,49.0,279.0,2251.796
2251806.0,104.0,345.0,43.0,275.0,2251.806
2251816.0,106.0,350.0,52.0,291.0,2251.816
2251826.0,101.0,373.0,54.0,310.0,2251.826
2251836.0,98.0,385.0,56.0,296.0,2251.836
2251846.0,96.0,389.0,55.0,275.0,2251.846
2251856.0,91.0,406.0,57.0,272.0,2251.856
2251866.0,88.0,426.0,58.0,274.0,2251.866
2251876.0,84.0,440.0,58.0,265.0,2251.876
2251886.0,77.0,457.0,59.0,250.0,2251.886
2251896.0,77.0,478.0,58.0,270.0,2251.896
2251906.0,74.0,487.0,54.0,267.0,2251.906
2251916.0,72.0,507.0,52.0,276.0,2251.916
2251926.0,69.0,515.0,50.0,266.0,2251.926
2251936.0,66.0,524.0,55.0,292.0,2251.936
2251947.0,65.0,532.0,54.0,300.0,2251.947
2251957.0,63.0,544.0,50.0,284.0,2251.957
2251967.0,63.0,540.0,54.0,265.0,2251.967
2251977.0,63.0,536.0,53.0,250.0,2251.977
2251987.0,67.0,536.0,52.0,263.0,2251.987
2251997.0,69.0,528.0,52.0,274.0,2251.997
2252007.0,93.0,525.0,50.0,286.0,2252.007
2252017.0,94.0,520.0,54.0,273.0,2252.017
2252027.0,92.0,510.0,56.0,292.0,2252.027
2252037.0,90.0,503.0,53.0,279.0,2252.037
2252047.0,86.0,497.0,51.0,275.0,2252.047
2252057.0,81.0,489.0,53.0,285.0,2252.057
2252067.0,78.0,483.0,50.0,279.0,2252.067
2252077.0,75.0,480.0,54.0,281.0,2252.077
2252087.0,72.0,466.0,50.0,263.0,2252.087
2252097.0,71.0,455.0,50.0,268.0,2252.097
2252107.0,69.0,448.0,46.0,272.0,2252.107
2252118.0,67.0,443.0,45.0,263.0,2252.118
2252128.0,63.0,435.0,41.0,285.0,2252.128
2252138.0,63.0,427.0,42.0,339.0,2252.138
2252148.0,65.0,417.0,48.0,337.0,2252.148
2252158.0,62.0,409.0,45.0,314.0,2252.158
2252168.0,69.0,403.0,42.0,295.0,2252.168
2252178.0,67.0,395.0,37.0,285.0,2252.178
2252188.0,67.0,388.0,47.0,269.0,2252.188
2252198.0,68.0,384.0,46.0,283.0,2252.198
2252208.0,65.0,375.0,45.0,280.0,2252.208
2252218.0,67.0,361.0,40.0,261.0,2252.218
2252228.0,66.0,355.0,39.0,279.0,2252.228
2252238.0,64.0,346.0,40.0,281.0,2252.238
2252248.0,63.0,339.0,39.0,268.0,2252.248
2252258.0,62.0,332.0,41.0,270.0,2252.258
2252268.0,62.0,326.0,40.0,249.0,2252.268
2252278.0,62.0,316.0,39.0,247.0,2252.278
2252288.0,62.0,311.0,42.0,267.0,2252.288
2252298.0,61.0,303.0,37.0,268.0,2252.298
2252308.0,62.0,295.0,38.0,269.0,2252.308
2252318.0,61.0,288.0,34.0,260.0,2252.318
2252328.0,59.0,279.0,33.0,245.0,2252.328
2252338.0,59.0,276.0,31.0,256.0,2252.338
2252348.0,59.0,274.0,32.0,260.0,2252.348
2252358.0,60.0,267.0,34.0,259.0,2252.358
2252368.0,61.0,257.0,35.0,255.0,2252.368
2252378.0,59.0,255.0,33.0,246.0,2252.378
2252388.0,66.0,245.0,34.0,255.0,2252.388
2252398.0,64.0,244.0,31.0,250.0,2252.398
2252408.0,62.0,236.0,29.0,244.0,2252.408
2252418.0,60.0,236.0,25.0,247.0,2252.418
2252428.0,58.0,237.0,25.0,236.0,2252.428
2252438.0,58.0,230.0,22.0,235.0,2252.438
2252448.0,58.0,227.0,21.0,235.0,2252.448
2252459.0,57.0,228.0,20.0,228.0,2252.459
2252469.0,55.0,222.0,17.0,219.0,2252.469
2252479.0,56.0,216.0,17.0,226.0,2252.479
2252489.0,57.0,214.0,16.0,225.0,2252.489
2252499.0,55.0,214.0,15.0,220.0,2252.499
2252509.0,55.0,211.0,14.0,206.0,2252.509
2252519.0,54.0,208.0,18.0,226.0,2252.519
2252529.0,54.0,204.0,17.0,233.0,2252.529
2252539.0,53.0,210.0,21.0,234.0,2252.539
2252549.0,54.0,203.0,27.0,247.0,2252.549
2252559.0,56.0,196.0,26.0,272.0,2252.559
2252569.0,55.0,198.0,26.0,276.0,2252.569
2252579.0,56.0,193.0,27.0,256.0,2252.579
2252589.0,55.0,190.0,24.0,259.0,2252.589
2252599.0,56.0,193.0,23.0,242.0,2252.599
2252609.0,56.0,192.0,21.0,256.0,2252.609
2252619.0,58.0,185.0,20.0,271.0,2252.619
2252630.0,58.0,190.0,19.0,280.0,2252.63
2252640.0,58.0,191.0,18.0,287.0,2252.64
2252650.0,60.0,183.0,21.0,302.0,2252.65
2252660.0,60.0,185.0,21.0,305.0,2252.66
2252670.0,60.0,181.0,20.0,291.0,2252.67
2252680.0,61.0,175.0,23.0,302.0,2252.68
2252690.0,60.0,176.0,21.0,293.0,2252.69
2252700.0,62.0,174.0,21.0,281.0,2252.7
2252710.0,59.0,170.0,20.0,271.0,2252.71
2252720.0,57.0,170.0,18.0,255.0,2252.72
2252730.0,58.0,173.0,17.0,261.0,2252.73
2252740.0,56.0,170.0,16.0,259.0,2252.74
2252750.0,56.0,165.0,15.0,251.0,2252.75
2252760.0,55.0,166.0,16.0,248.0,2252.76
2252770.0,55.0,170.0,16.0,234.0,2252.77
2252780.0,55.0,168.0,20.0,256.0,2252.78
2252790.0,56.0,161.0,18.0,256.0,2252.79
2252800.0,57.0,154.0,17.0,262.0,2252.8
2252810.0,56.0,152.0,16.0,260.0,2252.81
2252820.0,56.0,149.0,18.0,257.0,2252.82
2252830.0,55.0,151.0,17.0,246.0,2252.83
2252840.0,59.0,149.0,21.0,250.0,2252.84
2252850.0,61.0,146.0,22.0,256.0,2252.85
2252860.0,59.0,144.0,22.0,240.0,2252.86
2252870.0,61.0,142.0,21.0,241.0,2252.87
2252880.0,64.0,143.0,22.0,259.0,2252.88
2252890.0,63.0,145.0,22.0,264.0,2252.89
2252900.0,65.0,140.0,21.0,258.0,2252.9
2252910.0,63.0,144.0,19.0,244.0,2252.91
2252920.0,62.0,141.0,22.0,255.0,2252.92
2252930.0,63.0,136.0,22.0,275.0,2252.93
2252940.0,63.0,135.0,22.0,255.0,2252.94
2252950.0,63.0,133.0,22.0,250.0,2252.95
2252960.0,63.0,131.0,25.0,258.0,2252.96
2252971.0,62.0,126.0,23.0,251.0,2252.971
2252981.0,72.0,127.0,19.0,260.0,2252.981
2252991.0,74.0,125.0,20.0,249.0,2252.991
2253001.0,72.0,124.0,18.0,254.0,2253.001
2253011.0,69.0,124.0,17.0,257.0,2253.011
2253021.0,69.0,119.0,16.0,245.0,2253.021
2253031.0,67.0,117.0,15.0,241.0,2253.031
2253041.0,67.0,119.0,15.0,258.0,2253.041
2253051.0,67.0,116.0,15.0,251.0,2253.051
2253061.0,66.0,117.0,16.0,251.0,2253.061
2253071.0,72.0,112.0,14.0,273.0,2253.071
2253081.0,68.0,112.0,13.0,258.0,2253.081
2253091.0,70.0,111.0,12.0,260.0,2253.091
2253101.0,68.0,109.0,14.0,281.0,2253.101
2253111.0,66.0,104.0,14.0,276.0,2253.111
2253121.0,68.0,102.0,14.0,279.0,2253.121
2253131.0,65.0,102.0,15.0,281.0,2253.131
2253142.0,64.0,99.0,14.0,275.0,2253.142
2253152.0,62.0,101.0,12.0,281.0,2253.152
2253162.0,61.0,100.0,13.0,276.0,2253.162
2253172.0,60.0,100.0,13.0,255.0,2253.172
2253182.0,66.0,98.0,13.0,268.0,2253.182
2253192.0,64.0,100.0,15.0,265.0,2253.192
2253202.0,64.0,93.0,13.0,253.0,2253.202
2253212.0,63.0,94.0,13.0,241.0,2253.212
2253222.0,62.0,90.0,11.0,230.0,2253.222
2253232.0,63.0,89.0,11.0,220.0,2253.232
2253242.0,63.0,89.0,14.0,234.0,2253.242
2253252.0,61.0,86.0,12.0,227.0,2253.252
2253262.0,61.0,87.0,13.0,216.0,2253.262
2253272.0,59.0,86.0,16.0,217.0,2253.272
2253282.0,60.0,83.0,15.0,209.0,2253.282
2253292.0,58.0,82.0,14.0,207.0,2253.292
2253302.0,55.0,83.0,12.0,197.0,2253.302
2253312.0,57.0,82.0,12.0,196.0,2253.312
2253322.0,60.0,90.0,13.0,178.0,2253.322
2253332.0,58.0,91.0,16.0,191.0,2253.332
2253342.0,61.0,92.0,15.0,201.0,2253.342
2253352.0,68.0,91.0,15.0,203.0,2253.352
2253362.0,69.0,85.0,15.0,195.0,2253.362
2253372.0,68.0,82.0,13.0,203.0,2253.372
2253382.0,67.0,85.0,13.0,211.0,2253.382
2253392.0,67.0,87.0,12.0,223.0,2253.392
2253402.0,66.0,82.0,11.0,212.0,2253.402
2253412.0,64.0,84.0,10.0,205.0,2253.412
2253422.0,65.0,84.0,11.0,202.0,2253.422
2253432.0,64.0,81.0,11.0,199.0,2253.432
2253442.0,64.0,83.0,10.0,191.0,2253.442
2253452.0,72.0,82.0,10.0,191.0,2253.452
2253462.0,72.0,87.0,10.0,190.0,2253.462
2253472.0,69.0,87.0,11.0,196.0,2253.472
2253483.0,67.0,82.0,9.0,185.0,2253.483
2253493.0,65.0,85.0,9.0,195.0,2253.493
2253503.0,64.0,79.0,9.0,179.0,2253.503
2253513.0,62.0,82.0,8.0,201.0,2253.513
2253523.0,62.0,85.0,8.0,210.0,2253.523
2253533.0,64.0,85.0,9.0,217.0,2253.533
2253543.0,71.0,84.0,9.0,209.0,2253.543
2253553.0,68.0,86.0,9.0,198.0,2253.553
2253563.0,68.0,84.0,7.0,201.0,2253.563
2253573.0,65.0,85.0,9.0,205.0,2253.573
2253583.0,63.0,84.0,8.0,198.0,2253.583
2253593.0,62.0,90.0,6.0,184.0,2253.593
2253603.0,63.0,89.0,7.0,189.0,2253.603
2253613.0,62.0,87.0,6.0,180.0,2253.613
2253623.0,60.0,82.0,8.0,184.0,2253.623
2253633.0,60.0,84.0,7.0,181.0,2253.633
2253643.0,59.0,87.0,6.0,171.0,2253.643
2253654.0,58.0,83.0,6.0,183.0,2253.654
2253664.0,55.0,88.0,6.0,185.0,2253.664
2253674.0,60.0,88.0,8.0,180.0,2253.674
2253684.0,67.0,88.0,9.0,185.0,2253.684
2253694.0,69.0,83.0,10.0,176.0,2253.694
2253704.0,68.0,84.0,10.0,170.0,2253.704
2253714.0,65.0,83.0,12.0,175.0,2253.714
2253724.0,67.0,82.0,12.0,185.0,2253.724
2253734.0,62.0,81.0,11.0,192.0,2253.734
2253744.0,61.0,80.0,13.0,199.0,2253.744
2253754.0,59.0,83.0,13.0,184.0,2253.754
2253764.0,57.0,78.0,18.0,191.0,2253.764
2253774.0,57.0,74.0,16.0,177.0,2253.774
2253784.0,59.0,81.0,15.0,193.0,2253.784
2253794.0,67.0,78.0,18.0,189.0,2253.794
2253804.0,64.0,74.0,14.0,208.0,2253.804
2253814.0,62.0,77.0,14.0,196.0,2253.814
2253824.0,62.0,79.0,12.0,190.0,2253.824
2253834.0,60.0,76.0,11.0,196.0,2253.834
2253844.0,60.0,76.0,11.0,199.0,2253.844
2253854.0,61.0,74.0,9.0,218.0,2253.854
2253864.0,61.0,74.0,15.0,260.0,2253.864
2253874.0,61.0,70.0,14.0,256.0,2253.874
2253884.0,60.0,72.0,14.0,252.0,2253.884
2253894.0,61.0,76.0,13.0,248.0,2253.894
2253904.0,59.0,80.0,15.0,236.0,2253.904
2253914.0,60.0,74.0,13.0,229.0,2253.914
2253924.0,60.0,72.0,12.0,217.0,2253.924
2253934.0,59.0,72.0,13.0,215.0,2253.934
2253944.0,60.0,74.0,15.0,217.0,2253.944
2253954.0,60.0,73.0,14.0,220.0,2253.954
2253964.0,59.0,71.0,12.0,217.0,2253.964
2253974.0,59.0,69.0,11.0,212.0,2253.974
2253984.0,59.0,73.0,10.0,210.0,2253.984
2253995.0,59.0,71.0,9.0,213.0,2253.995
2254005.0,61.0,77.0,12.0,216.0,2254.005
2254015.0,68.0,79.0,11.0,210.0,2254.015
2254025.0,69.0,80.0,10.0,200.0,2254.025
2254035.0,68.0,77.0,12.0,212.0,2254.035
2254045.0,68.0,84.0,11.0,223.0,2254.045
2254055.0,66.0,80.0,12.0,242.0,2254.055
2254065.0,67.0,78.0,13.0,235.0,2254.065
2254075.0,67.0,75.0,12.0,255.0,2254.075
2254085.0,67.0,72.0,12.0,255.0,2254.085
2254095.0,64.0,69.0,14.0,243.0,2254.095
2254105.0,64.0,70.0,15.0,250.0,2254.105
2254115.0,65.0,73.0,19.0,239.0,2254.115
2254125.0,72.0,73.0,17.0,242.0,2254.125
2254135.0,70.0,70.0,16.0,227.0,2254.135
2254145.0,72.0,68.0,15.0,222.0,2254.145
2254155.0,73.0,73.0,15.0,222.0,2254.155
2254166.0,72.0,72.0,14.0,220.0,2254.166
2254176.0,70.0,77.0,12.0,212.0,2254.176
2254186.0,69.0,78.0,13.0,212.0,2254.186
2254196.0,69.0,75.0,11.0,206.0,2254.196
2254206.0,71.0,72.0,12.0,256.0,2254.206
2254216.0,71.0,76.0,10.0,255.0,2254.216
2254226.0,71.0,75.0,12.0,239.0,2254.226
2254236.0,72.0,77.0,12.0,227.0,2254.236
2254246.0,70.0,75.0,11.0,216.0,2254.246
2254256.0,72.0,74.0,13.0,255.0,2254.256
2254266.0,67.0,72.0,14.0,245.0,2254.266
2254276.0,69.0,71.0,15.0,249.0,2254.276
2254286.0,69.0,76.0,14.0,242.0,2254.286
2254296.0,69.0,77.0,13.0,233.0,2254.296
2254306.0,69.0,75.0,12.0,235.0,2254.306
2254316.0,69.0,74.0,10.0,248.0,2254.316
2254326.0,69.0,69.0,10.0,249.0,2254.326
2254336.0,66.0,69.0,12.0,257.0,2254.336
2254346.0,65.0,73.0,10.0,236.0,2254.346
2254356.0,65.0,72.0,10.0,238.0,2254.356
2254366.0,65.0,74.0,11.0,245.0,2254.366
2254376.0,67.0,75.0,11.0,234.0,2254.376
2254386.0,66.0,75.0,8.0,219.0,2254.386
2254396.0,66.0,73.0,11.0,200.0,2254.396
2254406.0,67.0,74.0,10.0,197.0,2254.406
2254416.0,67.0,79.0,9.0,216.0,2254.416
2254426.0,68.0,79.0,9.0,238.0,2254.426
2254436.0,69.0,82.0,8.0,237.0,2254.436
2254446.0,69.0,80.0,11.0,249.0,2254.446
2254456.0,68.0,76.0,10.0,261.0,2254.456
2254466.0,64.0,78.0,11.0,250.0,2254.466
2254476.0,65.0,75.0,10.0,232.0,2254.476
2254486.0,65.0,76.0,11.0,234.0,2254.486
2254496.0,66.0,76.0,12.0,223.0,2254.496
2254507.0,68.0,76.0,14.0,212.0,2254.507
2254517.0,69.0,80.0,14.0,211.0,2254.517
2254527.0,69.0,83.0,13.0,200.0,2254.527
2254537.0,68.0,83.0,12.0,198.0,2254.537
2254547.0,68.0,80.0,11.0,199.0,2254.547
2254557.0,66.0,76.0,11.0,200.0,2254.557
2254567.0,67.0,76.0,10.0,186.0,2254.567
2254577.0,68.0,82.0,12.0,196.0,2254.577
2254587.0,68.0,85.0,11.0,198.0,2254.587
2254597.0,68.0,82.0,12.0,200.0,2254.597
2254607.0,69.0,82.0,10.0,213.0,2254.607
2254617.0,70.0,82.0,11.0,207.0,2254.617
2254627.0,70.0,81.0,11.0,196.0,2254.627
2254637.0,72.0,83.0,10.0,188.0,2254.637
2254647.0,71.0,83.0,10.0,206.0,2254.647
2254657.0,69.0,86.0,13.0,205.0,2254.657
2254667.0,73.0,83.0,13.0,200.0,2254.667
2254678.0,74.0,80.0,12.0,210.0,2254.678
2254688.0,75.0,81.0,12.0,212.0,2254.688
2254698.0,76.0,80.0,14.0,190.0,2254.698
2254708.0,75.0,85.0,13.0,193.0,2254.708
2254718.0,72.0,86.0,12.0,185.0,2254.718
2254728.0,70.0,90.0,12.0,199.0,2254.728
2254738.0,69.0,91.0,13.0,189.0,2254.738
2254748.0,70.0,90.0,10.0,188.0,2254.748
2254758.0,66.0,86.0,10.0,193.0,2254.758
2254768.0,68.0,87.0,10.0,188.0,2254.768
2254778.0,67.0,87.0,10.0,198.0,2254.778
2254788.0,69.0,90.0,10.0,206.0,2254.788
2254798.0,68.0,89.0,12.0,212.0,2254.798
2254808.0,66.0,87.0,11.0,203.0,2254.808
2254818.0,73.0,88.0,12.0,189.0,2254.818
2254828.0,76.0,88.0,10.0,201.0,2254.828
2254838.0,76.0,87.0,11.0,195.0,2254.838
2254848.0,74.0,88.0,10.0,190.0,2254.848
2254858.0,73.0,84.0,10.0,174.0,2254.858
2254868.0,72.0,82.0,9.0,191.0,2254.868
2254878.0,71.0,80.0,8.0,185.0,2254.878
2254888.0,70.0,83.0,9.0,186.0,2254.888
2254898.0,68.0,79.0,8.0,173.0,2254.898
2254908.0,67.0,83.0,9.0,176.0,2254.908
2254918.0,70.0,84.0,9.0,183.0,2254.918
2254928.0,73.0,85.0,9.0,173.0,2254.928
2254938.0,73.0,84.0,10.0,176.0,2254.938
2254948.0,73.0,83.0,9.0,170.0,2254.948
2254958.0,71.0,81.0,10.0,170.0,2254.958
2254968.0,72.0,86.0,14.0,206.0,2254.968
2254978.0,73.0,85.0,16.0,206.0,2254.978
2254988.0,72.0,85.0,15.0,205.0,2254.988
2254998.0,69.0,85.0,13.0,202.0,2254.998
2255008.0,69.0,87.0,13.0,218.0,2255.008
2255019.0,67.0,85.0,17.0,222.0,2255.019
2255029.0,68.0,86.0,17.0,227.0,2255.029
2255039.0,70.0,83.0,15.0,210.0,2255.039
2255049.0,71.0,85.0,14.0,207.0,2255.049
2255059.0,72.0,83.0,12.0,203.0,2255.059
2255069.0,70.0,83.0,11.0,200.0,2255.069
2255079.0,69.0,84.0,10.0,181.0,2255.079
2255089.0,69.0,80.0,10.0,181.0,2255.089
2255099.0,67.0,79.0,12.0,201.0,2255.099
2255109.0,65.0,80.0,12.0,191.0,2255.109
2255119.0,64.0,81.0,11.0,181.0,2255.119
2255129.0,63.0,79.0,11.0,185.0,2255.129
2255139.0,62.0,77.0,10.0,193.0,2255.139
2255149.0,62.0,75.0,9.0,194.0,2255.149
2255159.0,62.0,74.0,8.0,189.0,2255.159
2255169.0,61.0,76.0,11.0,209.0,2255.169
2255179.0,63.0,75.0,12.0,223.0,2255.179
2255190.0,60.0,80.0,12.0,213.0,2255.19
2255200.0,59.0,76.0,12.0,209.0,2255.2
2255210.0,61.0,77.0,11.0,212.0,2255.21
2255220.0,59.0,75.0,11.0,221.0,2255.22
2255230.0,62.0,74.0,10.0,214.0,2255.23
2255240.0,61.0,72.0,9.0,224.0,2255.24
2255250.0,60.0,69.0,10.0,217.0,2255.25
2255260.0,60.0,70.0,8.0,229.0,2255.26
2255270.0,59.0,68.0,7.0,228.0,2255.27
2255280.0,58.0,66.0,7.0,232.0,2255.28
2255290.0,59.0,64.0,9.0,226.0,2255.29
2255300.0,67.0,62.0,9.0,222.0,2255.3
2255310.0,65.0,60.0,10.0,219.0,2255.31
2255320.0,65.0,61.0,10.0,216.0,2255.32
2255330.0,64.0,59.0,9.0,200.0,2255.33
2255340.0,63.0,59.0,7.0,206.0,2255.34
2255350.0,63.0,59.0,7.0,200.0,2255.35
2255360.0,61.0,59.0,8.0,196.0,2255.36
2255370.0,66.0,56.0,7.0,182.0,2255.37
2255380.0,68.0,57.0,9.0,171.0,2255.38
2255390.0,66.0,60.0,20.0,166.0,2255.39
2255400.0,71.0,59.0,22.0,162.0,2255.4
2255410.0,66.0,62.0,31.0,160.0,2255.41
2255420.0,65.0,65.0,40.0,177.0,2255.42
2255430.0,67.0,70.0,44.0,174.0,2255.43
2255440.0,69.0,70.0,51.0,161.0,2255.44
2255450.0,79.0,72.0,76.0,166.0,2255.45
2255460.0,79.0,71.0,71.0,183.0,2255.46
2255470.0,85.0,77.0,97.0,189.0,2255.47
2255480.0,84.0,78.0,112.0,200.0,2255.48
2255490.0,79.0,75.0,110.0,204.0,2255.49
2255500.0,82.0,88.0,118.0,223.0,2255.5
2255510.0,83.0,109.0,124.0,230.0,2255.51
2255520.0,89.0,132.0,131.0,230.0,2255.52
2255531.0,91.0,151.0,137.0,239.0,2255.531
2255541.0,97.0,177.0,153.0,235.0,2255.541
2255551.0,100.0,202.0,163.0,230.0,2255.551
2255561.0,101.0,220.0,171.0,265.0,2255.561
2255571.0,107.0,246.0,166.0,257.0,2255.571
2255581.0,110.0,268.0,155.0,263.0,2255.581
2255591.0,114.0,287.0,149.0,244.0,2255.591
2255601.0,116.0,301.0,135.0,227.0,2255.601
2255611.0,117.0,314.0,135.0,229.0,2255.611
2255621.0,118.0,323.0,133.0,218.0,2255.621
2255631.0,124.0,337.0,122.0,207.0,2255.631
2255641.0,124.0,346.0,113.0,204.0,2255.641
2255651.0,130.0,356.0,103.0,194.0,2255.651
2255661.0,133.0,360.0,94.0,196.0,2255.661
2255671.0,135.0,364.0,102.0,193.0,2255.671
2255681.0,134.0,369.0,95.0,189.0,2255.681
2255691.0,138.0,375.0,87.0,183.0,2255.691
2255702.0,140.0,383.0,79.0,177.0,2255.702
2255712.0,141.0,383.0,83.0,181.0,2255.712
2255722.0,142.0,387.0,78.0,163.0,2255.722
2255732.0,142.0,386.0,70.0,153.0,2255.732
2255742.0,143.0,387.0,63.0,146.0,2255.742
2255752.0,146.0,389.0,59.0,149.0,2255.752
2255762.0,146.0,387.0,62.0,155.0,2255.762
2255772.0,145.0,385.0,64.0,160.0,2255.772
2255782.0,145.0,383.0,66.0,161.0,2255.782
2255792.0,149.0,385.0,63.0,165.0,2255.792
2255802.0,145.0,384.0,55.0,154.0,2255.802
2255812.0,145.0,381.0,52.0,153.0,2255.812
2255822.0,140.0,376.0,54.0,149.0,2255.822
2255832.0,145.0,374.0,57.0,144.0,2255.832
2255842.0,147.0,372.0,57.0,142.0,2255.842
2255852.0,147.0,370.0,50.0,135.0,2255.852
2255862.0,146.0,367.0,44.0,126.0,2255.862
2255872.0,145.0,365.0,49.0,124.0,2255.872
2255882.0,142.0,359.0,52.0,124.0,2255.882
2255892.0,142.0,359.0,45.0,113.0,2255.892
2255902.0,141.0,357.0,45.0,106.0,2255.902
2255912.0,140.0,352.0,43.0,100.0,2255.912
2255922.0,138.0,352.0,46.0,103.0,2255.922
2255932.0,136.0,346.0,41.0,97.0,2255.932
2255942.0,134.0,343.0,44.0,97.0,2255.942
2255952.0,132.0,339.0,47.0,97.0,2255.952
2255962.0,132.0,337.0,42.0,95.0,2255.962
2255972.0,133.0,336.0,45.0,94.0,2255.972
2255982.0,132.0,331.0,46.0,90.0,2255.982
2255992.0,130.0,328.0,40.0,84.0,2255.992
2256002.0,129.0,324.0,36.0,79.0,2256.002
2256012.0,127.0,320.0,32.0,74.0,2256.012
2256022.0,125.0,316.0,31.0,77.0,2256.022
2256032.0,124.0,314.0,39.0,79.0,2256.032
2256043.0,123.0,312.0,34.0,84.0,2256.043
2256053.0,124.0,309.0,43.0,82.0,2256.053
2256063.0,124.0,306.0,38.0,84.0,2256.063
2256073.0,122.0,304.0,35.0,85.0,2256.073
2256083.0,123.0,301.0,31.0,87.0,2256.083
2256093.0,121.0,298.0,28.0,86.0,2256.093
2256103.0,121.0,296.0,26.0,84.0,2256.103
2256113.0,121.0,294.0,27.0,88.0,2256.113
2256123.0,119.0,290.0,27.0,82.0,2256.123
2256133.0,117.0,287.0,35.0,77.0,2256.133
2256143.0,114.0,284.0,34.0,76.0,2256.143
2256153.0,114.0,281.0,32.0,79.0,2256.153
2256163.0,113.0,279.0,31.0,79.0,2256.163
2256173.0,108.0,272.0,28.0,80.0,2256.173
2256183.0,108.0,270.0,27.0,80.0,2256.183
2256193.0,105.0,267.0,24.0,75.0,2256.193
2256203.0,104.0,263.0,22.0,69.0,2256.203
2256214.0,100.0,259.0,26.0,71.0,2256.214
2256224.0,98.0,257.0,24.0,69.0,2256.224
2256234.0,96.0,254.0,26.0,70.0,2256.234
2256244.0,95.0,253.0,29.0,67.0,2256.244
2256254.0,93.0,251.0,34.0,70.0,2256.254
2256264.0,91.0,250.0,35.0,67.0,2256.264
2256274.0,91.0,250.0,32.0,65.0,2256.274
2256284.0,87.0,246.0,30.0,67.0,2256.284
2256294.0,85.0,244.0,40.0,64.0,2256.294
2256304.0,85.0,244.0,37.0,65.0,2256.304
2256314.0,83.0,243.0,33.0,66.0,2256.314
2256324.0,81.0,240.0,30.0,63.0,2256.324
2256334.0,82.0,242.0,29.0,64.0,2256.334
2256344.0,82.0,240.0,25.0,63.0,2256.344
2256354.0,80.0,238.0,24.0,59.0,2256.354
2256364.0,78.0,235.0,23.0,60.0,2256.364
2256374.0,79.0,233.0,32.0,60.0,2256.374
2256384.0,80.0,236.0,33.0,59.0,2256.384
2256394.0,78.0,234.0,30.0,55.0,2256.394
2256404.0,79.0,232.0,31.0,56.0,2256.404
2256414.0,79.0,229.0,29.0,55.0,2256.414
2256424.0,79.0,227.0,26.0,53.0,2256.424
2256434.0,79.0,225.0,22.0,51.0,2256.434
2256444.0,78.0,222.0,24.0,55.0,2256.444
2256454.0,78.0,222.0,35.0,57.0,2256.454
2256464.0,79.0,217.0,35.0,58.0,2256.464
2256474.0,78.0,214.0,31.0,60.0,2256.474
2256484.0,79.0,211.0,30.0,61.0,2256.484
2256494.0,79.0,209.0,27.0,61.0,2256.494
2256504.0,78.0,206.0,22.0,59.0,2256.504
2256514.0,77.0,201.0,25.0,65.0,2256.514
2256524.0,78.0,199.0,23.0,66.0,2256.524
2256534.0,78.0,196.0,21.0,63.0,2256.534
2256544.0,77.0,194.0,19.0,62.0,2256.544
2256555.0,76.0,191.0,17.0,62.0,2256.555
2256565.0,77.0,187.0,39.0,72.0,2256.565
2256575.0,78.0,188.0,32.0,69.0,2256.575
2256585.0,77.0,186.0,31.0,70.0,2256.585
2256595.0,76.0,183.0,28.0,65.0,2256.595
2256605.0,75.0,182.0,27.0,67.0,2256.605
2256615.0,75.0,178.0,28.0,72.0,2256.615
2256625.0,75.0,178.0,28.0,69.0,2256.625
2256635.0,75.0,177.0,25.0,66.0,2256.635
2256645.0,74.0,175.0,24.0,69.0,2256.645
2256655.0,74.0,174.0,22.0,69.0,2256.655
2256665.0,74.0,173.0,20.0,67.0,2256.665
2256675.0,75.0,175.0,18.0,63.0,2256.675
2256685.0,74.0,173.0,19.0,63.0,2256.685
2256695.0,73.0,171.0,19.0,70.0,2256.695
2256705.0,73.0,172.0,25.0,75.0,2256.705
2256715.0,74.0,172.0,26.0,70.0,2256.715
2256726.0,72.0,170.0,22.0,69.0,2256.726
2256736.0,74.0,169.0,22.0,70.0,2256.736
2256746.0,71.0,167.0,31.0,78.0,2256.746
2256756.0,73.0,166.0,33.0,76.0,2256.756
2256766.0,72.0,162.0,31.0,72.0,2256.766
2256776.0,71.0,158.0,33.0,69.0,2256.776
2256786.0,70.0,157.0,43.0,75.0,2256.786
2256796.0,70.0,157.0,39.0,75.0,2256.796
2256806.0,70.0,157.0,35.0,71.0,2256.806
2256816.0,68.0,155.0,37.0,76.0,2256.816
2256826.0,67.0,152.0,49.0,89.0,2256.826
2256836.0,67.0,151.0,44.0,86.0,2256.836
2256846.0,65.0,148.0,41.0,84.0,2256.846
2256856.0,67.0,147.0,38.0,81.0,2256.856
2256866.0,64.0,145.0,32.0,85.0,2256.866
2256876.0,62.0,142.0,31.0,83.0,2256.876
2256886.0,62.0,143.0,31.0,85.0,2256.886
2256896.0,62.0,143.0,27.0,81.0,2256.896
2256906.0,61.0,138.0,28.0,86.0,2256.906
2256916.0,61.0,140.0,40.0,86.0,2256.916
2256926.0,63.0,140.0,35.0,82.0,2256.926
2256936.0,62.0,139.0,32.0,80.0,2256.936
2256946.0,58.0,137.0,29.0,90.0,2256.946
2256956.0,61.0,135.0,40.0,86.0,2256.956
2256966.0,62.0,135.0,35.0,83.0,2256.966
2256976.0,62.0,132.0,31.0,80.0,2256.976
2256986.0,60.0,128.0,33.0,86.0,2256.986
2256996.0,58.0,127.0,36.0,88.0,2256.996
2257006.0,60.0,127.0,38.0,91.0,2257.006
2257016.0,58.0,126.0,32.0,86.0,2257.016
2257026.0,58.0,125.0,30.0,85.0,2257.026
2257036.0,58.0,125.0,29.0,89.0,2257.036
2257046.0,57.0,124.0,26.0,90.0,2257.046
2257056.0,56.0,123.0,23.0,89.0,2257.056
2257067.0,55.0,121.0,34.0,92.0,2257.067
2257077.0,56.0,120.0,34.0,95.0,2257.077
2257087.0,54.0,119.0,30.0,94.0,2257.087
2257097.0,54.0,118.0,27.0,89.0,2257.097
2257107.0,53.0,118.0,25.0,97.0,2257.107
2257117.0,53.0,116.0,26.0,100.0,2257.117
2257127.0,54.0,112.0,36.0,96.0,2257.127
2257137.0,54.0,113.0,31.0,96.0,2257.137
2257147.0,54.0,110.0,29.0,99.0,2257.147
2257157.0,52.0,109.0,25.0,100.0,2257.157
2257167.0,52.0,108.0,23.0,100.0,2257.167
2257177.0,53.0,106.0,21.0,98.0,2257.177
2257187.0,53.0,104.0,19.0,99.0,2257.187
2257197.0,53.0,102.0,23.0,102.0,2257.197
2257207.0,55.0,104.0,34.0,95.0,2257.207
2257217.0,52.0,100.0,30.0,94.0,2257.217
2257227.0,53.0,100.0,27.0,92.0,2257.227
2257238.0,53.0,98.0,24.0,96.0,2257.238
2257248.0,53.0,97.0,23.0,90.0,2257.248
2257258.0,52.0,97.0,20.0,87.0,2257.258
2257268.0,52.0,96.0,18.0,82.0,2257.268
2257278.0,51.0,95.0,17.0,86.0,2257.278
2257288.0,51.0,93.0,17.0,91.0,2257.288
2257298.0,50.0,91.0,26.0,91.0,2257.298
2257308.0,50.0,93.0,28.0,90.0,2257.308
2257318.0,51.0,92.0,30.0,85.0,2257.318
2257328.0,51.0,92.0,27.0,85.0,2257.328
2257338.0,51.0,91.0,26.0,82.0,2257.338
2257348.0,52.0,90.0,23.0,82.0,2257.348
2257358.0,51.0,88.0,32.0,80.0,2257.358
2257368.0,53.0,90.0,30.0,79.0,2257.368
2257378.0,49.0,87.0,25.0,80.0,2257.378
2257388.0,49.0,85.0,23.0,79.0,2257.388
2257398.0,48.0,84.0,20.0,83.0,2257.398
2257408.0,48.0,83.0,18.0,85.0,2257.408
2257418.0,48.0,82.0,19.0,84.0,2257.418
2257428.0,47.0,82.0,17.0,84.0,2257.428
2257438.0,48.0,82.0,16.0,82.0,2257.438
2257448.0,47.0,81.0,14.0,83.0,2257.448
2257458.0,48.0,80.0,14.0,81.0,2257.458
2257468.0,47.0,79.0,24.0,86.0,2257.468
2257478.0,48.0,79.0,21.0,85.0,2257.478
2257488.0,48.0,80.0,22.0,85.0,2257.488
2257498.0,49.0,79.0,19.0,88.0,2257.498
2257508.0,50.0,79.0,18.0,91.0,2257.508
2257518.0,51.0,80.0,16.0,91.0,2257.518
2257528.0,50.0,80.0,14.0,93.0,2257.528
2257538.0,50.0,81.0,14.0,92.0,2257.538
2257548.0,50.0,79.0,20.0,98.0,2257.548
2257558.0,51.0,79.0,27.0,100.0,2257.558
2257568.0,54.0,83.0,29.0,93.0,2257.568
2257579.0,53.0,81.0,26.0,90.0,2257.579
2257589.0,53.0,79.0,23.0,90.0,2257.589
2257599.0,51.0,75.0,20.0,92.0,2257.599
2257609.0,51.0,73.0,19.0,93.0,2257.609
2257619.0,50.0,73.0,18.0,96.0,2257.619
2257629.0,48.0,70.0,16.0,98.0,2257.629
2257639.0,48.0,69.0,25.0,102.0,2257.639
2257649.0,50.0,69.0,24.0,95.0,2257.649
2257659.0,51.0,67.0,22.0,94.0,2257.659
2257669.0,50.0,64.0,18.0,94.0,2257.669
2257679.0,49.0,63.0,17.0,98.0,2257.679
2257689.0,50.0,63.0,29.0,97.0,2257.689
2257699.0,51.0,60.0,29.0,96.0,2257.699
2257709.0,51.0,59.0,28.0,94.0,2257.709
2257719.0,51.0,57.0,25.0,96.0,2257.719
2257729.0,51.0,55.0,25.0,96.0,2257.729
2257739.0,50.0,55.0,22.0,95.0,2257.739
2257750.0,51.0,55.0,21.0,95.0,2257.75
2257760.0,49.0,52.0,20.0,96.0,2257.76
2257770.0,50.0,54.0,34.0,96.0,2257.77
2257780.0,50.0,54.0,30.0,92.0,2257.78
2257790.0,49.0,54.0,33.0,93.0,2257.79
2257800.0,52.0,55.0,31.0,94.0,2257.8
2257810.0,51.0,54.0,28.0,92.0,2257.81
2257820.0,51.0,55.0,29.0,89.0,2257.82
2257830.0,50.0,53.0,25.0,83.0,2257.83
2257840.0,49.0,53.0,22.0,81.0,2257.84
2257850.0,48.0,50.0,21.0,82.0,2257.85
2257860.0,48.0,50.0,19.0,83.0,2257.86
2257870.0,48.0,50.0,17.0,83.0,2257.87
2257880.0,48.0,49.0,20.0,86.0,2257.88
2257890.0,48.0,51.0,16.0,83.0,2257.89
2257900.0,48.0,51.0,28.0,89.0,2257.9
2257910.0,48.0,52.0,29.0,87.0,2257.91
2257920.0,48.0,52.0,28.0,88.0,2257.92
2257930.0,48.0,50.0,25.0,85.0,2257.93
2257940.0,48.0,50.0,32.0,82.0,2257.94
2257950.0,49.0,49.0,28.0,75.0,2257.95
2257960.0,48.0,49.0,23.0,77.0,2257.96
2257970.0,48.0,46.0,22.0,76.0,2257.97
2257980.0,47.0,45.0,21.0,77.0,2257.98
2257990.0,47.0,45.0,19.0,78.0,2257.99
2258000.0,48.0,44.0,19.0,82.0,2258.0
2258010.0,47.0,43.0,17.0,78.0,2258.01
2258020.0,49.0,43.0,29.0,74.0,2258.02
2258030.0,48.0,44.0,37.0,70.0,2258.03
2258040.0,50.0,43.0,32.0,68.0,2258.04
2258050.0,51.0,43.0,31.0,70.0,2258.05
2258060.0,51.0,42.0,29.0,69.0,2258.06
2258070.0,51.0,39.0,26.0,65.0,2258.07
2258080.0,51.0,41.0,22.0,65.0,2258.08
2258091.0,53.0,40.0,21.0,59.0,2258.091
2258101.0,53.0,40.0,18.0,64.0,2258.101
2258111.0,54.0,40.0,16.0,64.0,2258.111
2258121.0,53.0,41.0,24.0,75.0,2258.121
2258131.0,52.0,41.0,29.0,71.0,2258.131
2258141.0,52.0,40.0,26.0,70.0,2258.141
2258151.0,52.0,41.0,29.0,72.0,2258.151
2258161.0,53.0,42.0,35.0,74.0,2258.161
2258171.0,53.0,41.0,32.0,74.0,2258.171
2258181.0,52.0,40.0,28.0,72.0,2258.181
2258191.0,53.0,41.0,30.0,69.0,2258.191
2258201.0,53.0,41.0,26.0,65.0,2258.201
2258211.0,53.0,39.0,23.0,62.0,2258.211
2258221.0,53.0,39.0,20.0,63.0,2258.221
2258231.0,52.0,38.0,19.0,69.0,2258.231
2258241.0,51.0,38.0,22.0,71.0,2258.241
2258251.0,51.0,40.0,27.0,74.0,2258.251
2258262.0,52.0,40.0,25.0,72.0,2258.262
2258272.0,51.0,41.0,23.0,72.0,2258.272
2258282.0,51.0,39.0,21.0,68.0,2258.282
2258292.0,51.0,38.0,21.0,65.0,2258.292
2258302.0,51.0,38.0,18.0,64.0,2258.302
2258312.0,51.0,38.0,19.0,69.0,2258.312
2258322.0,50.0,39.0,27.0,64.0,2258.322
2258332.0,50.0,39.0,25.0,62.0,2258.332
2258342.0,51.0,39.0,27.0,66.0,2258.342
2258352.0,50.0,40.0,26.0,64.0,2258.352
2258362.0,49.0,39.0,23.0,64.0,2258.362
2258372.0,49.0,40.0,20.0,64.0,2258.372
2258382.0,50.0,40.0,21.0,64.0,2258.382
2258392.0,50.0,41.0,29.0,68.0,2258.392
2258402.0,50.0,40.0,29.0,64.0,2258.402
2258412.0,51.0,40.0,27.0,65.0,2258.412
2258422.0,51.0,41.0,35.0,64.0,2258.422
2258432.0,53.0,41.0,32.0,64.0,2258.432
2258442.0,52.0,40.0,28.0,61.0,2258.442
2258452.0,53.0,41.0,39.0,61.0,2258.452
2258462.0,53.0,40.0,34.0,59.0,2258.462
2258472.0,52.0,39.0,30.0,63.0,2258.472
2258482.0,52.0,39.0,27.0,61.0,2258.482
2258492.0,50.0,40.0,27.0,65.0,2258.492
2258502.0,50.0,38.0,25.0,60.0,2258.502
2258512.0,50.0,39.0,24.0,63.0,2258.512
2258522.0,49.0,39.0,24.0,66.0,2258.522
2258532.0,50.0,38.0,22.0,63.0,2258.532
2258542.0,48.0,40.0,29.0,60.0,2258.542
2258552.0,48.0,38.0,27.0,57.0,2258.552
2258562.0,47.0,39.0,32.0,63.0,2258.562
2258572.0,48.0,38.0,28.0,61.0,2258.572
2258582.0,48.0,37.0,25.0,59.0,2258.582
2258592.0,47.0,37.0,21.0,57.0,2258.592
2258603.0,50.0,38.0,20.0,60.0,2258.603
2258613.0,48.0,38.0,18.0,62.0,2258.613
2258623.0,49.0,38.0,41.0,60.0,2258.623
2258633.0,50.0,38.0,36.0,58.0,2258.633
2258643.0,50.0,39.0,31.0,55.0,2258.643
2258653.0,52.0,38.0,28.0,52.0,2258.653
2258663.0,52.0,39.0,25.0,53.0,2258.663
2258673.0,53.0,38.0,23.0,53.0,2258.673
2258683.0,52.0,38.0,20.0,52.0,2258.683
2258693.0,52.0,38.0,18.0,56.0,2258.693
2258703.0,52.0,40.0,33.0,52.0,2258.703
2258713.0,51.0,40.0,31.0,53.0,2258.713
2258723.0,50.0,40.0,28.0,54.0,2258.723
2258733.0,50.0,40.0,26.0,54.0,2258.733
2258743.0,49.0,38.0,24.0,53.0,2258.743
2258753.0,50.0,38.0,21.0,50.0,2258.753
2258763.0,49.0,38.0,20.0,49.0,2258.763
2258774.0,50.0,39.0,27.0,49.0,2258.774
2258784.0,50.0,41.0,27.0,48.0,2258.784
2258794.0,50.0,39.0,25.0,49.0,2258.794
2258804.0,51.0,39.0,23.0,47.0,2258.804
2258814.0,51.0,39.0,24.0,57.0,2258.814
2258824.0,53.0,39.0,24.0,56.0,2258.824
2258834.0,52.0,40.0,22.0,52.0,2258.834
2258844.0,53.0,44.0,35.0,51.0,2258.844
2258854.0,54.0,44.0,32.0,50.0,2258.854
2258864.0,53.0,43.0,28.0,50.0,2258.864
2258874.0,53.0,43.0,26.0,52.0,2258.874
2258884.0,53.0,45.0,23.0,51.0,2258.884
2258894.0,53.0,43.0,22.0,58.0,2258.894
2258904.0,52.0,45.0,20.0,56.0,2258.904
2258914.0,51.0,45.0,18.0,55.0,2258.914
2258924.0,52.0,45.0,32.0,58.0,2258.924
2258934.0,50.0,48.0,29.0,56.0,2258.934
2258944.0,50.0,48.0,26.0,54.0,2258.944
2258954.0,50.0,50.0,23.0,56.0,2258.954
2258964.0,50.0,49.0,23.0,54.0,2258.964
2258974.0,49.0,48.0,21.0,58.0,2258.974
2258984.0,48.0,48.0,20.0,55.0,2258.984
2258994.0,49.0,47.0,17.0,57.0,2258.994
2259004.0,50.0,50.0,30.0,60.0,2259.004
2259014.0,50.0,49.0,28.0,56.0,2259.014
2259024.0,50.0,50.0,24.0,61.0,2259.024
2259034.0,51.0,52.0,25.0,62.0,2259.034
2259044.0,50.0,50.0,35.0,62.0,2259.044
2259054.0,50.0,52.0,34.0,58.0,2259.054
2259064.0,51.0,51.0,31.0,56.0,2259.064
2259074.0,50.0,50.0,27.0,56.0,2259.074
2259084.0,49.0,49.0,25.0,52.0,2259.084
2259094.0,48.0,48.0,22.0,54.0,2259.094
2259104.0,47.0,50.0,21.0,51.0,2259.104
2259115.0,48.0,48.0,20.0,50.0,2259.115
2259125.0,48.0,48.0,19.0,56.0,2259.125
2259135.0,49.0,50.0,33.0,61.0,2259.135
2259145.0,48.0,48.0,30.0,62.0,2259.145
2259155.0,50.0,48.0,28.0,57.0,2259.155
2259165.0,50.0,46.0,24.0,57.0,2259.165
2259175.0,49.0,44.0,21.0,57.0,2259.175
2259185.0,51.0,46.0,21.0,56.0,2259.185
2259195.0,50.0,45.0,18.0,62.0,2259.195
2259205.0,50.0,45.0,18.0,61.0,2259.205
2259215.0,51.0,47.0,26.0,64.0,2259.215
2259225.0,50.0,47.0,25.0,61.0,2259.225
2259235.0,51.0,46.0,22.0,63.0,2259.235
2259245.0,50.0,47.0,23.0,69.0,2259.245
2259255.0,53.0,49.0,39.0,66.0,2259.255
2259265.0,52.0,49.0,33.0,63.0,2259.265
2259275.0,52.0,48.0,30.0,60.0,2259.275
2259286.0,52.0,48.0,27.0,57.0,2259.286
2259296.0,51.0,47.0,24.0,58.0,2259.296
2259306.0,51.0,46.0,21.0,56.0,2259.306
2259316.0,51.0,45.0,20.0,57.0,2259.316
2259326.0,51.0,45.0,24.0,57.0,2259.326
2259336.0,54.0,45.0,22.0,56.0,2259.336
2259346.0,54.0,47.0,30.0,60.0,2259.346
2259356.0,56.0,47.0,28.0,59.0,2259.356
2259366.0,55.0,47.0,24.0,61.0,2259.366
2259376.0,55.0,44.0,22.0,59.0,2259.376
2259386.0,55.0,44.0,24.0,58.0,2259.386
2259396.0,56.0,44.0,23.0,54.0,2259.396
2259406.0,57.0,45.0,36.0,51.0,2259.406
2259416.0,54.0,44.0,34.0,50.0,2259.416
2259426.0,56.0,44.0,30.0,50.0,2259.426
2259436.0,57.0,44.0,26.0,51.0,2259.436
2259446.0,57.0,42.0,23.0,48.0,2259.446
2259456.0,59.0,41.0,20.0,48.0,2259.456
2259466.0,58.0,41.0,19.0,48.0,2259.466
2259476.0,59.0,40.0,22.0,48.0,2259.476
2259486.0,58.0,40.0,20.0,47.0,2259.486
2259496.0,58.0,41.0,33.0,49.0,2259.496
2259506.0,60.0,41.0,30.0,50.0,2259.506
2259516.0,60.0,41.0,26.0,49.0,2259.516
2259526.0,60.0,38.0,23.0,47.0,2259.526
2259536.0,60.0,39.0,21.0,47.0,2259.536
2259546.0,59.0,38.0,20.0,47.0,2259.546
2259556.0,58.0,39.0,20.0,47.0,2259.556
2259566.0,54.0,39.0,20.0,48.0,2259.566
2259576.0,56.0,39.0,17.0,47.0,2259.576
2259586.0,55.0,41.0,23.0,55.0,2259.586
2259596.0,56.0,40.0,23.0,53.0,2259.596
2259606.0,57.0,39.0,21.0,51.0,2259.606
2259616.0,57.0,40.0,21.0,50.0,2259.616
2259627.0,57.0,39.0,17.0,50.0,2259.627
2259637.0,57.0,40.0,16.0,50.0,2259.637
2259647.0,59.0,40.0,16.0,51.0,2259.647
2259657.0,59.0,39.0,14.0,50.0,2259.657
2259667.0,58.0,38.0,14.0,50.0,2259.667
2259677.0,59.0,38.0,13.0,50.0,2259.677
2259687.0,58.0,39.0,18.0,57.0,2259.687
2259697.0,61.0,39.0,19.0,55.0,2259.697
2259707.0,60.0,39.0,16.0,53.0,2259.707
2259717.0,60.0,39.0,15.0,53.0,2259.717
2259727.0,58.0,39.0,16.0,52.0,2259.727
2259737.0,59.0,40.0,14.0,52.0,2259.737
2259747.0,57.0,39.0,14.0,55.0,2259.747
2259757.0,56.0,41.0,27.0,54.0,2259.757
2259767.0,57.0,39.0,24.0,52.0,2259.767
2259777.0,56.0,39.0,21.0,50.0,2259.777
2259787.0,56.0,39.0,18.0,49.0,2259.787
2259798.0,55.0,39.0,16.0,49.0,2259.798
2259808.0,55.0,40.0,17.0,48.0,2259.808
2259818.0,54.0,38.0,16.0,46.0,2259.818
2259828.0,53.0,39.0,15.0,49.0,2259.828
2259838.0,53.0,42.0,28.0,50.0,2259.838
2259848.0,54.0,41.0,28.0,50.0,2259.848
2259858.0,54.0,40.0,25.0,52.0,2259.858
2259868.0,55.0,39.0,22.0,49.0,2259.868
2259878.0,53.0,41.0,24.0,50.0,2259.878
2259888.0,53.0,40.0,22.0,48.0,2259.888
2259898.0,53.0,41.0,19.0,47.0,2259.898
2259908.0,53.0,42.0,23.0,49.0,2259.908
2259918.0,53.0,41.0,29.0,49.0,2259.918
2259928.0,53.0,40.0,26.0,48.0,2259.928
2259938.0,53.0,40.0,24.0,46.0,2259.938
2259948.0,54.0,41.0,22.0,45.0,2259.948
2259958.0,53.0,39.0,19.0,43.0,2259.958
2259968.0,53.0,39.0,18.0,43.0,2259.968
2259978.0,53.0,42.0,35.0,44.0,2259.978
2259988.0,57.0,41.0,32.0,44.0,2259.988
2259998.0,55.0,41.0,27.0,44.0,2259.998
2260008.0,56.0,40.0,23.0,44.0,2260.008
2260018.0,56.0,41.0,21.0,45.0,2260.018
2260028.0,55.0,42.0,19.0,42.0,2260.028
2260038.0,56.0,40.0,18.0,44.0,2260.038
2260048.0,54.0,42.0,17.0,47.0,2260.048
2260058.0,54.0,41.0,16.0,46.0,2260.058
2260068.0,53.0,42.0,16.0,43.0,2260.068
2260078.0,54.0,43.0,27.0,48.0,2260.078
2260088.0,54.0,41.0,23.0,45.0,2260.088
2260098.0,54.0,42.0,21.0,42.0,2260.098
2260108.0,53.0,43.0,19.0,46.0,2260.108
2260118.0,53.0,44.0,17.0,43.0,2260.118
2260128.0,54.0,45.0,17.0,45.0,2260.128
2260139.0,53.0,46.0,15.0,44.0,2260.139
2260149.0,54.0,46.0,14.0,48.0,2260.149
2260159.0,54.0,45.0,13.0,53.0,2260.159
2260169.0,54.0,46.0,17.0,58.0,2260.169
2260179.0,54.0,44.0,16.0,53.0,2260.179
2260189.0,54.0,44.0,17.0,53.0,2260.189
2260199.0,55.0,43.0,15.0,50.0,2260.199
2260209.0,56.0,42.0,14.0,47.0,2260.209
2260219.0,58.0,41.0,12.0,49.0,2260.219
2260229.0,57.0,40.0,11.0,47.0,2260.229
2260239.0,57.0,41.0,10.0,47.0,2260.239
2260249.0,56.0,39.0,9.0,45.0,2260.249
2260259.0,56.0,39.0,10.0,51.0,2260.259
2260269.0,57.0,39.0,12.0,54.0,2260.269
2260279.0,57.0,39.0,29.0,53.0,2260.279
2260289.0,58.0,41.0,30.0,58.0,2260.289
2260299.0,59.0,39.0,29.0,54.0,2260.299
2260310.0,58.0,40.0,24.0,54.0,2260.31
2260320.0,55.0,41.0,21.0,49.0,2260.32
2260330.0,55.0,42.0,22.0,51.0,2260.33
2260340.0,54.0,45.0,33.0,50.0,2260.34
2260350.0,55.0,46.0,34.0,50.0,2260.35
2260360.0,54.0,46.0,36.0,48.0,2260.36
2260370.0,55.0,45.0,33.0,50.0,2260.37
2260380.0,57.0,47.0,40.0,50.0,2260.38
2260390.0,56.0,49.0,41.0,52.0,2260.39
2260400.0,57.0,49.0,39.0,54.0,2260.4
2260410.0,56.0,51.0,34.0,52.0,2260.41
2260420.0,58.0,49.0,32.0,53.0,2260.42
2260430.0,56.0,51.0,27.0,50.0,2260.43
2260440.0,55.0,51.0,26.0,50.0,2260.44
2260450.0,56.0,51.0,24.0,49.0,2260.45
2260460.0,56.0,51.0,21.0,46.0,2260.46
2260470.0,55.0,51.0,20.0,44.0,2260.47
2260480.0,55.0,51.0,35.0,45.0,2260.48
2260490.0,56.0,50.0,33.0,48.0,2260.49
2260500.0,57.0,48.0,29.0,47.0,2260.5
2260510.0,58.0,48.0,25.0,47.0,2260.51
2260520.0,60.0,47.0,23.0,47.0,2260.52
2260530.0,59.0,51.0,27.0,48.0,2260.53
2260540.0,61.0,48.0,35.0,46.0,2260.54
2260550.0,61.0,47.0,32.0,47.0,2260.55
2260560.0,60.0,48.0,28.0,46.0,2260.56
2260570.0,61.0,48.0,25.0,46.0,2260.57
2260580.0,62.0,49.0,22.0,45.0,2260.58
2260590.0,63.0,48.0,20.0,44.0,2260.59
2260600.0,64.0,49.0,17.0,45.0,2260.6
2260610.0,64.0,50.0,15.0,41.0,2260.61
2260620.0,63.0,53.0,14.0,46.0,2260.62
2260630.0,63.0,53.0,24.0,47.0,2260.63
2260640.0,66.0,51.0,22.0,47.0,2260.64
2260651.0,65.0,51.0,19.0,46.0,2260.651
2260661.0,65.0,51.0,17.0,45.0,2260.661
2260671.0,66.0,50.0,15.0,45.0,2260.671
2260681.0,65.0,52.0,14.0,47.0,2260.681
2260691.0,67.0,52.0,27.0,49.0,2260.691
2260701.0,65.0,51.0,24.0,47.0,2260.701
2260711.0,65.0,52.0,22.0,46.0,2260.711
2260721.0,65.0,52.0,20.0,48.0,2260.721
2260731.0,66.0,50.0,20.0,48.0,2260.731
2260741.0,66.0,51.0,18.0,49.0,2260.741
2260751.0,66.0,52.0,17.0,47.0,2260.751
2260761.0,66.0,52.0,18.0,44.0,2260.761
2260771.0,65.0,55.0,28.0,47.0,2260.771
2260781.0,67.0,53.0,32.0,48.0,2260.781
2260791.0,67.0,52.0,27.0,49.0,2260.791
2260801.0,67.0,53.0,24.0,52.0,2260.801
2260811.0,65.0,53.0,22.0,53.0,2260.811
2260822.0,66.0,52.0,20.0,51.0,2260.822
2260832.0,66.0,52.0,18.0,48.0,2260.832
2260842.0,66.0,52.0,16.0,47.0,2260.842
2260852.0,68.0,50.0,15.0,45.0,2260.852
2260862.0,68.0,50.0,14.0,45.0,2260.862
2260872.0,68.0,52.0,26.0,50.0,2260.872
2260882.0,68.0,51.0,25.0,48.0,2260.882
2260892.0,67.0,53.0,25.0,52.0,2260.892
2260902.0,67.0,52.0,23.0,50.0,2260.902
