time (ms),signal 0,signal 1,signal 2,signal3,time (sec)
2284723.0,52.0,41.0,28.0,59.0,2284.723
2284733.0,53.0,39.0,26.0,63.0,2284.733
2284743.0,51.0,39.0,23.0,62.0,2284.743
2284753.0,53.0,41.0,23.0,63.0,2284.753
2284763.0,54.0,40.0,24.0,64.0,2284.763
2284773.0,52.0,41.0,39.0,64.0,2284.773
2284783.0,53.0,42.0,42.0,70.0,2284.783
2284793.0,53.0,41.0,43.0,70.0,2284.793
2284803.0,54.0,40.0,46.0,70.0,2284.803
2284813.0,54.0,41.0,40.0,71.0,2284.813
2284823.0,54.0,41.0,38.0,69.0,2284.823
2284833.0,53.0,41.0,48.0,69.0,2284.833
2284843.0,53.0,42.0,50.0,68.0,2284.843
2284853.0,53.0,40.0,44.0,68.0,2284.853
2284863.0,53.0,41.0,39.0,66.0,2284.863
2284873.0,53.0,42.0,37.0,68.0,2284.873
2284883.0,52.0,41.0,34.0,67.0,2284.883
2284893.0,51.0,40.0,30.0,65.0,2284.893
2284903.0,51.0,41.0,40.0,64.0,2284.903
2284913.0,51.0,42.0,35.0,64.0,2284.913
2284923.0,50.0,40.0,31.0,60.0,2284.923
2284933.0,51.0,40.0,29.0,59.0,2284.933
2284943.0,51.0,41.0,27.0,58.0,2284.943
2284953.0,53.0,40.0,26.0,57.0,2284.953
2284963.0,51.0,42.0,40.0,57.0,2284.963
2284973.0,53.0,43.0,41.0,56.0,2284.973
2284983.0,51.0,43.0,35.0,55.0,2284.983
2284993.0,52.0,41.0,40.0,51.0,2284.993
2285003.0,53.0,41.0,37.0,51.0,2285.003
2285014.0,53.0,42.0,39.0,53.0,2285.014
2285024.0,55.0,40.0,37.0,53.0,2285.024
2285034.0,53.0,42.0,46.0,51.0,2285.034
2285044.0,54.0,41.0,40.0,54.0,2285.044
2285054.0,54.0,42.0,40.0,60.0,2285.054
2285064.0,54.0,43.0,40.0,59.0,2285.064
2285074.0,56.0,43.0,35.0,61.0,2285.074
2285084.0,56.0,43.0,31.0,62.0,2285.084
2285094.0,57.0,44.0,28.0,60.0,2285.094
2285104.0,56.0,46.0,37.0,59.0,2285.104
2285114.0,57.0,47.0,36.0,63.0,2285.114
2285124.0,59.0,48.0,32.0,69.0,2285.124
2285134.0,57.0,48.0,30.0,66.0,2285.134
2285144.0,57.0,46.0,29.0,63.0,2285.144
2285154.0,58.0,46.0,29.0,60.0,2285.154
2285164.0,58.0,44.0,26.0,64.0,2285.164
2285174.0,58.0,43.0,23.0,65.0,2285.174
2285184.0,58.0,46.0,34.0,66.0,2285.184
2285194.0,60.0,45.0,33.0,65.0,2285.194
2285204.0,59.0,45.0,29.0,67.0,2285.204
2285214.0,58.0,44.0,35.0,69.0,2285.214
2285224.0,60.0,43.0,34.0,68.0,2285.224
2285234.0,60.0,43.0,30.0,65.0,2285.234
2285244.0,60.0,42.0,27.0,65.0,2285.244
2285254.0,58.0,40.0,23.0,63.0,2285.254
2285264.0,59.0,40.0,22.0,61.0,2285.264
2285274.0,58.0,42.0,37.0,60.0,2285.274
2285284.0,58.0,41.0,36.0,64.0,2285.284
2285294.0,59.0,42.0,33.0,68.0,2285.294
2285304.0,59.0,41.0,29.0,66.0,2285.304
2285314.0,58.0,39.0,27.0,63.0,2285.314
2285324.0,58.0,40.0,26.0,63.0,2285.324
2285334.0,58.0,39.0,26.0,63.0,2285.334
2285344.0,57.0,42.0,36.0,68.0,2285.344
2285355.0,59.0,43.0,31.0,65.0,2285.355
2285365.0,59.0,40.0,28.0,64.0,2285.365
2285375.0,58.0,40.0,27.0,62.0,2285.375
2285385.0,59.0,39.0,24.0,64.0,2285.385
2285395.0,58.0,39.0,24.0,65.0,2285.395
2285405.0,58.0,41.0,23.0,67.0,2285.405
2285415.0,59.0,40.0,23.0,66.0,2285.415
2285425.0,58.0,42.0,38.0,64.0,2285.425
2285435.0,57.0,41.0,35.0,60.0,2285.435
2285445.0,57.0,42.0,33.0,63.0,2285.445
2285455.0,57.0,40.0,30.0,62.0,2285.455
2285465.0,56.0,39.0,25.0,62.0,2285.465
2285475.0,56.0,39.0,24.0,62.0,2285.475
2285485.0,57.0,39.0,22.0,63.0,2285.485
2285495.0,56.0,38.0,20.0,60.0,2285.495
2285505.0,57.0,42.0,34.0,64.0,2285.505
2285515.0,56.0,41.0,30.0,64.0,2285.515
2285526.0,57.0,41.0,28.0,65.0,2285.526
2285536.0,56.0,40.0,24.0,60.0,2285.536
2285546.0,53.0,39.0,25.0,56.0,2285.546
2285556.0,53.0,37.0,28.0,60.0,2285.556
2285566.0,52.0,39.0,26.0,68.0,2285.566
2285576.0,53.0,38.0,24.0,71.0,2285.576
2285586.0,54.0,41.0,34.0,68.0,2285.586
2285596.0,52.0,40.0,31.0,66.0,2285.596
2285606.0,53.0,39.0,28.0,65.0,2285.606
2285616.0,50.0,39.0,25.0,60.0,2285.616
2285626.0,51.0,38.0,24.0,58.0,2285.626
2285636.0,50.0,39.0,22.0,61.0,2285.636
2285646.0,49.0,37.0,19.0,63.0,2285.646
2285656.0,49.0,37.0,18.0,62.0,2285.656
2285666.0,51.0,40.0,28.0,61.0,2285.666
2285676.0,50.0,39.0,30.0,58.0,2285.676
2285686.0,51.0,41.0,32.0,55.0,2285.686
2285696.0,51.0,41.0,29.0,55.0,2285.696
2285706.0,52.0,42.0,26.0,55.0,2285.706
2285716.0,51.0,41.0,22.0,54.0,2285.716
2285726.0,52.0,39.0,21.0,55.0,2285.726
2285736.0,50.0,39.0,21.0,53.0,2285.736
2285746.0,51.0,42.0,32.0,58.0,2285.746
2285756.0,51.0,40.0,36.0,57.0,2285.756
2285766.0,52.0,40.0,32.0,53.0,2285.766
2285776.0,51.0,38.0,30.0,58.0,2285.776
2285786.0,50.0,38.0,26.0,58.0,2285.786
2285796.0,49.0,39.0,23.0,55.0,2285.796
2285806.0,49.0,41.0,21.0,55.0,2285.806
2285816.0,49.0,43.0,41.0,60.0,2285.816
2285826.0,51.0,42.0,36.0,59.0,2285.826
2285836.0,50.0,41.0,32.0,60.0,2285.836
2285846.0,50.0,39.0,30.0,61.0,2285.846
2285856.0,50.0,39.0,28.0,59.0,2285.856
2285867.0,49.0,40.0,27.0,62.0,2285.867
2285877.0,49.0,40.0,24.0,67.0,2285.877
2285887.0,51.0,41.0,29.0,70.0,2285.887
2285897.0,52.0,40.0,27.0,69.0,2285.897
2285907.0,52.0,39.0,23.0,67.0,2285.907
2285917.0,53.0,40.0,21.0,63.0,2285.917
2285927.0,52.0,40.0,19.0,65.0,2285.927
2285937.0,53.0,39.0,18.0,71.0,2285.937
2285947.0,52.0,39.0,19.0,70.0,2285.947
2285957.0,53.0,41.0,31.0,68.0,2285.957
2285967.0,54.0,40.0,33.0,67.0,2285.967
2285977.0,54.0,40.0,30.0,66.0,2285.977
2285987.0,55.0,40.0,28.0,64.0,2285.987
2285997.0,54.0,40.0,24.0,66.0,2285.997
2286007.0,54.0,40.0,22.0,64.0,2286.007
2286017.0,54.0,40.0,19.0,61.0,2286.017
2286027.0,53.0,41.0,28.0,59.0,2286.027
2286038.0,52.0,40.0,26.0,55.0,2286.038
2286048.0,52.0,40.0,27.0,61.0,2286.048
2286058.0,52.0,39.0,25.0,59.0,2286.058
2286068.0,51.0,38.0,22.0,62.0,2286.068
2286078.0,50.0,38.0,20.0,62.0,2286.078
2286088.0,51.0,41.0,35.0,69.0,2286.088
2286098.0,53.0,41.0,32.0,70.0,2286.098
2286108.0,54.0,40.0,28.0,68.0,2286.108
2286118.0,53.0,40.0,24.0,65.0,2286.118
2286128.0,52.0,40.0,23.0,64.0,2286.128
2286138.0,55.0,40.0,21.0,62.0,2286.138
2286148.0,53.0,41.0,19.0,64.0,2286.148
2286158.0,54.0,41.0,26.0,64.0,2286.158
2286168.0,54.0,44.0,34.0,71.0,2286.168
2286178.0,57.0,43.0,33.0,72.0,2286.178
2286188.0,57.0,42.0,28.0,68.0,2286.188
2286198.0,56.0,42.0,25.0,67.0,2286.198
2286208.0,56.0,41.0,24.0,68.0,2286.208
2286218.0,55.0,41.0,22.0,70.0,2286.218
2286228.0,55.0,43.0,21.0,69.0,2286.228
2286238.0,56.0,42.0,23.0,72.0,2286.238
2286248.0,56.0,43.0,31.0,67.0,2286.248
2286258.0,55.0,43.0,28.0,69.0,2286.258
2286268.0,54.0,42.0,25.0,66.0,2286.268
2286278.0,54.0,42.0,25.0,61.0,2286.278
2286288.0,54.0,42.0,25.0,63.0,2286.288
2286298.0,52.0,43.0,23.0,59.0,2286.298
2286308.0,53.0,44.0,36.0,59.0,2286.308
2286318.0,54.0,43.0,32.0,61.0,2286.318
2286328.0,54.0,42.0,29.0,63.0,2286.328
2286338.0,53.0,43.0,26.0,61.0,2286.338
2286348.0,53.0,43.0,24.0,59.0,2286.348
2286358.0,53.0,41.0,21.0,57.0,2286.358
2286368.0,52.0,44.0,18.0,58.0,2286.368
2286379.0,53.0,44.0,25.0,61.0,2286.379
2286389.0,54.0,45.0,23.0,61.0,2286.389
2286399.0,55.0,45.0,21.0,59.0,2286.399
2286409.0,52.0,46.0,17.0,60.0,2286.409
2286419.0,50.0,47.0,16.0,67.0,2286.419
2286429.0,50.0,49.0,19.0,65.0,2286.429
2286439.0,51.0,51.0,45.0,74.0,2286.439
2286449.0,51.0,51.0,43.0,73.0,2286.449
2286459.0,52.0,50.0,37.0,70.0,2286.459
2286469.0,53.0,51.0,35.0,73.0,2286.469
2286479.0,54.0,49.0,34.0,75.0,2286.479
2286489.0,54.0,50.0,34.0,71.0,2286.489
2286499.0,56.0,51.0,42.0,70.0,2286.499
2286509.0,56.0,50.0,38.0,72.0,2286.509
2286519.0,56.0,52.0,34.0,70.0,2286.519
2286529.0,57.0,54.0,32.0,72.0,2286.529
2286539.0,56.0,54.0,28.0,75.0,2286.539
2286550.0,55.0,55.0,25.0,74.0,2286.55
2286560.0,56.0,56.0,38.0,80.0,2286.56
2286570.0,58.0,54.0,36.0,73.0,2286.57
2286580.0,56.0,57.0,34.0,73.0,2286.58
2286590.0,57.0,55.0,30.0,73.0,2286.59
2286600.0,56.0,56.0,29.0,71.0,2286.6
2286610.0,56.0,57.0,40.0,74.0,2286.61
2286620.0,56.0,55.0,36.0,70.0,2286.62
2286630.0,55.0,54.0,32.0,69.0,2286.63
2286640.0,55.0,53.0,29.0,68.0,2286.64
2286650.0,55.0,54.0,35.0,66.0,2286.65
2286660.0,59.0,54.0,41.0,66.0,2286.66
2286670.0,60.0,63.0,38.0,67.0,2286.67
2286680.0,59.0,114.0,50.0,77.0,2286.68
2286690.0,65.0,152.0,53.0,77.0,2286.69
2286700.0,73.0,217.0,73.0,90.0,2286.7
2286710.0,92.0,307.0,94.0,97.0,2286.71
2286720.0,94.0,362.0,93.0,100.0,2286.72
2286730.0,102.0,343.0,88.0,97.0,2286.73
2286740.0,98.0,337.0,84.0,108.0,2286.74
2286750.0,101.0,358.0,93.0,121.0,2286.75
2286760.0,111.0,432.0,105.0,123.0,2286.76
2286770.0,124.0,419.0,92.0,117.0,2286.77
2286780.0,128.0,432.0,98.0,121.0,2286.78
2286790.0,158.0,570.0,133.0,127.0,2286.79
2286800.0,169.0,577.0,123.0,127.0,2286.8
2286810.0,161.0,542.0,119.0,116.0,2286.81
2286820.0,149.0,531.0,116.0,111.0,2286.82
2286830.0,143.0,500.0,108.0,102.0,2286.83
2286840.0,142.0,492.0,111.0,107.0,2286.84
2286850.0,137.0,483.0,104.0,99.0,2286.85
2286860.0,132.0,477.0,121.0,92.0,2286.86
2286870.0,137.0,476.0,109.0,88.0,2286.87
2286880.0,127.0,466.0,109.0,80.0,2286.88
2286891.0,128.0,482.0,109.0,78.0,2286.891
2286901.0,139.0,483.0,129.0,102.0,2286.901
2286911.0,128.0,452.0,128.0,102.0,2286.911
2286921.0,118.0,432.0,111.0,100.0,2286.921
2286931.0,118.0,427.0,112.0,103.0,2286.931
2286941.0,114.0,419.0,112.0,105.0,2286.941
2286951.0,106.0,412.0,115.0,104.0,2286.951
2286961.0,113.0,433.0,115.0,120.0,2286.961
2286971.0,106.0,405.0,108.0,136.0,2286.971
2286981.0,105.0,395.0,105.0,144.0,2286.981
2286991.0,100.0,382.0,105.0,162.0,2286.991
2287001.0,97.0,375.0,103.0,173.0,2287.001
2287011.0,100.0,373.0,90.0,169.0,2287.011
2287021.0,99.0,351.0,97.0,175.0,2287.021
2287031.0,99.0,347.0,93.0,168.0,2287.031
2287041.0,96.0,342.0,100.0,211.0,2287.041
2287051.0,92.0,325.0,99.0,203.0,2287.051
2287062.0,91.0,311.0,95.0,201.0,2287.062
2287072.0,87.0,306.0,94.0,191.0,2287.072
2287082.0,83.0,289.0,97.0,203.0,2287.082
2287092.0,89.0,290.0,89.0,200.0,2287.092
2287102.0,90.0,277.0,84.0,195.0,2287.102
2287112.0,87.0,272.0,92.0,180.0,2287.112
2287122.0,85.0,257.0,87.0,187.0,2287.122
2287132.0,84.0,261.0,97.0,210.0,2287.132
2287142.0,88.0,250.0,89.0,223.0,2287.142
2287152.0,87.0,233.0,83.0,215.0,2287.152
2287162.0,92.0,228.0,88.0,224.0,2287.162
2287172.0,91.0,215.0,82.0,217.0,2287.172
2287182.0,90.0,203.0,80.0,253.0,2287.182
2287192.0,87.0,200.0,72.0,253.0,2287.192
2287202.0,84.0,195.0,73.0,251.0,2287.202
2287212.0,82.0,184.0,63.0,242.0,2287.212
2287222.0,85.0,187.0,71.0,227.0,2287.222
2287232.0,84.0,173.0,67.0,220.0,2287.232
2287242.0,82.0,167.0,64.0,222.0,2287.242
2287252.0,86.0,169.0,60.0,210.0,2287.252
2287262.0,82.0,161.0,59.0,222.0,2287.262
2287272.0,78.0,157.0,58.0,211.0,2287.272
2287282.0,80.0,157.0,58.0,212.0,2287.282
2287292.0,82.0,154.0,60.0,211.0,2287.292
2287302.0,79.0,144.0,52.0,213.0,2287.302
2287312.0,79.0,147.0,55.0,212.0,2287.312
2287322.0,77.0,143.0,55.0,210.0,2287.322
2287332.0,78.0,137.0,53.0,215.0,2287.332
2287342.0,76.0,130.0,50.0,208.0,2287.342
2287352.0,76.0,126.0,46.0,201.0,2287.352
2287362.0,73.0,119.0,40.0,201.0,2287.362
2287372.0,75.0,120.0,40.0,186.0,2287.372
2287382.0,71.0,120.0,55.0,189.0,2287.382
2287392.0,68.0,118.0,58.0,193.0,2287.392
2287403.0,69.0,116.0,60.0,194.0,2287.403
2287413.0,67.0,108.0,55.0,191.0,2287.413
2287423.0,68.0,110.0,52.0,189.0,2287.423
2287433.0,68.0,112.0,54.0,186.0,2287.433
2287443.0,70.0,115.0,56.0,188.0,2287.443
2287453.0,75.0,123.0,73.0,199.0,2287.453
2287463.0,74.0,124.0,68.0,197.0,2287.463
2287473.0,72.0,118.0,59.0,194.0,2287.473
2287483.0,70.0,111.0,55.0,194.0,2287.483
2287493.0,69.0,108.0,52.0,193.0,2287.493
2287503.0,68.0,107.0,46.0,190.0,2287.503
2287513.0,68.0,105.0,45.0,184.0,2287.513
2287523.0,72.0,111.0,48.0,195.0,2287.523
2287533.0,70.0,124.0,46.0,189.0,2287.533
2287543.0,73.0,121.0,42.0,185.0,2287.543
2287553.0,75.0,128.0,37.0,185.0,2287.553
2287563.0,78.0,134.0,39.0,180.0,2287.563
2287574.0,76.0,134.0,46.0,181.0,2287.574
2287584.0,77.0,128.0,41.0,182.0,2287.584
2287594.0,80.0,134.0,45.0,183.0,2287.594
2287604.0,80.0,139.0,42.0,184.0,2287.604
2287614.0,81.0,134.0,38.0,181.0,2287.614
2287624.0,84.0,140.0,35.0,176.0,2287.624
2287634.0,83.0,135.0,37.0,165.0,2287.634
2287644.0,83.0,141.0,41.0,167.0,2287.644
2287654.0,84.0,141.0,43.0,176.0,2287.654
2287664.0,91.0,150.0,42.0,171.0,2287.664
2287674.0,89.0,142.0,38.0,168.0,2287.674
2287684.0,83.0,131.0,34.0,168.0,2287.684
2287694.0,78.0,124.0,30.0,158.0,2287.694
2287704.0,76.0,119.0,28.0,162.0,2287.704
2287714.0,74.0,113.0,24.0,159.0,2287.714
2287724.0,72.0,110.0,22.0,152.0,2287.724
2287734.0,77.0,115.0,31.0,149.0,2287.734
2287744.0,76.0,113.0,38.0,150.0,2287.744
2287754.0,80.0,117.0,40.0,148.0,2287.754
2287764.0,77.0,118.0,35.0,143.0,2287.764
2287774.0,76.0,114.0,35.0,140.0,2287.774
2287784.0,75.0,121.0,31.0,134.0,2287.784
2287794.0,73.0,115.0,29.0,125.0,2287.794
2287804.0,77.0,119.0,27.0,127.0,2287.804
2287814.0,77.0,112.0,39.0,131.0,2287.814
2287824.0,76.0,110.0,37.0,135.0,2287.824
2287834.0,79.0,120.0,35.0,132.0,2287.834
2287844.0,75.0,116.0,32.0,130.0,2287.844
2287854.0,75.0,114.0,35.0,128.0,2287.854
2287864.0,76.0,119.0,35.0,120.0,2287.864
2287874.0,76.0,120.0,41.0,123.0,2287.874
2287884.0,76.0,113.0,37.0,125.0,2287.884
2287894.0,78.0,114.0,40.0,121.0,2287.894
2287904.0,74.0,110.0,44.0,123.0,2287.904
2287915.0,77.0,121.0,38.0,124.0,2287.915
2287925.0,74.0,114.0,35.0,120.0,2287.925
2287935.0,74.0,113.0,31.0,119.0,2287.935
2287945.0,71.0,112.0,30.0,122.0,2287.945
2287955.0,72.0,111.0,43.0,125.0,2287.955
2287965.0,69.0,105.0,46.0,128.0,2287.965
2287975.0,70.0,109.0,49.0,136.0,2287.975
2287985.0,70.0,110.0,47.0,133.0,2287.985
2287995.0,69.0,118.0,50.0,133.0,2287.995
2288005.0,69.0,112.0,44.0,132.0,2288.005
2288015.0,68.0,110.0,46.0,131.0,2288.015
2288025.0,70.0,113.0,53.0,131.0,2288.025
2288035.0,68.0,108.0,48.0,126.0,2288.035
2288045.0,72.0,118.0,50.0,117.0,2288.045
2288055.0,71.0,111.0,45.0,126.0,2288.055
2288065.0,69.0,109.0,40.0,120.0,2288.065
2288075.0,67.0,107.0,41.0,117.0,2288.075
2288086.0,65.0,105.0,36.0,123.0,2288.086
2288096.0,63.0,105.0,46.0,119.0,2288.096
2288106.0,63.0,105.0,47.0,123.0,2288.106
2288116.0,67.0,106.0,45.0,121.0,2288.116
2288126.0,73.0,110.0,40.0,131.0,2288.126
2288136.0,75.0,109.0,40.0,130.0,2288.136
2288146.0,77.0,99.0,35.0,129.0,2288.146
2288156.0,76.0,109.0,40.0,130.0,2288.156
2288166.0,78.0,115.0,41.0,134.0,2288.166
2288176.0,78.0,109.0,42.0,130.0,2288.176
2288186.0,78.0,109.0,40.0,133.0,2288.186
2288196.0,77.0,109.0,38.0,130.0,2288.196
2288206.0,76.0,101.0,36.0,129.0,2288.206
2288216.0,74.0,98.0,33.0,133.0,2288.216
2288226.0,72.0,90.0,28.0,134.0,2288.226
2288236.0,78.0,101.0,43.0,128.0,2288.236
2288246.0,78.0,106.0,41.0,130.0,2288.246
2288256.0,78.0,105.0,36.0,138.0,2288.256
2288266.0,78.0,100.0,36.0,134.0,2288.266
2288276.0,74.0,99.0,33.0,133.0,2288.276
2288286.0,73.0,97.0,32.0,126.0,2288.286
2288296.0,69.0,95.0,38.0,126.0,2288.296
2288306.0,68.0,100.0,48.0,130.0,2288.306
2288316.0,72.0,101.0,42.0,131.0,2288.316
2288326.0,70.0,105.0,41.0,132.0,2288.326
2288336.0,70.0,101.0,36.0,131.0,2288.336
2288346.0,67.0,99.0,37.0,134.0,2288.346
2288356.0,65.0,98.0,35.0,127.0,2288.356
2288366.0,72.0,107.0,40.0,134.0,2288.366
2288376.0,72.0,111.0,47.0,125.0,2288.376
2288386.0,72.0,104.0,42.0,136.0,2288.386
2288396.0,69.0,103.0,35.0,132.0,2288.396
2288406.0,68.0,103.0,34.0,128.0,2288.406
2288416.0,68.0,106.0,31.0,138.0,2288.416
2288427.0,70.0,104.0,28.0,130.0,2288.427
2288437.0,72.0,109.0,26.0,125.0,2288.437
2288447.0,68.0,106.0,22.0,120.0,2288.447
2288457.0,66.0,105.0,22.0,117.0,2288.457
2288467.0,68.0,106.0,38.0,118.0,2288.467
2288477.0,66.0,100.0,34.0,125.0,2288.477
2288487.0,66.0,95.0,33.0,126.0,2288.487
2288497.0,66.0,100.0,34.0,121.0,2288.497
2288507.0,69.0,106.0,32.0,119.0,2288.507
2288517.0,68.0,100.0,33.0,118.0,2288.517
2288527.0,66.0,99.0,41.0,111.0,2288.527
2288537.0,67.0,93.0,42.0,113.0,2288.537
2288547.0,64.0,98.0,36.0,118.0,2288.547
2288557.0,66.0,94.0,33.0,118.0,2288.557
2288567.0,64.0,87.0,31.0,115.0,2288.567
2288577.0,64.0,88.0,32.0,115.0,2288.577
2288587.0,64.0,84.0,34.0,118.0,2288.587
2288598.0,68.0,97.0,45.0,111.0,2288.598
2288608.0,69.0,93.0,41.0,118.0,2288.608
2288618.0,67.0,96.0,39.0,126.0,2288.618
2288628.0,65.0,90.0,36.0,120.0,2288.628
2288638.0,63.0,87.0,33.0,117.0,2288.638
2288648.0,65.0,90.0,33.0,119.0,2288.648
2288658.0,67.0,91.0,32.0,119.0,2288.658
2288668.0,64.0,87.0,40.0,118.0,2288.668
2288678.0,64.0,93.0,42.0,121.0,2288.678
2288688.0,65.0,102.0,47.0,129.0,2288.688
2288698.0,64.0,94.0,41.0,126.0,2288.698
2288708.0,65.0,95.0,37.0,126.0,2288.708
2288718.0,65.0,92.0,33.0,115.0,2288.718
2288728.0,66.0,87.0,31.0,122.0,2288.728
2288738.0,65.0,91.0,28.0,120.0,2288.738
2288748.0,68.0,98.0,49.0,118.0,2288.748
2288758.0,69.0,99.0,45.0,121.0,2288.758
2288768.0,66.0,95.0,46.0,123.0,2288.768
2288778.0,67.0,96.0,40.0,128.0,2288.778
2288788.0,64.0,93.0,38.0,128.0,2288.788
2288798.0,65.0,87.0,34.0,131.0,2288.798
2288808.0,64.0,88.0,32.0,127.0,2288.808
2288818.0,63.0,87.0,30.0,131.0,2288.818
2288828.0,65.0,94.0,42.0,128.0,2288.828
2288838.0,70.0,96.0,38.0,136.0,2288.838
2288848.0,67.0,92.0,34.0,129.0,2288.848
2288858.0,65.0,88.0,33.0,134.0,2288.858
2288868.0,66.0,89.0,32.0,134.0,2288.868
2288878.0,66.0,87.0,28.0,127.0,2288.878
2288888.0,66.0,83.0,30.0,133.0,2288.888
2288898.0,66.0,79.0,37.0,140.0,2288.898
2288908.0,70.0,86.0,41.0,140.0,2288.908
2288918.0,69.0,89.0,39.0,140.0,2288.918
2288928.0,68.0,90.0,41.0,130.0,2288.928
2288939.0,68.0,88.0,37.0,132.0,2288.939
2288949.0,70.0,86.0,34.0,131.0,2288.949
2288959.0,70.0,81.0,30.0,132.0,2288.959
2288969.0,69.0,88.0,31.0,132.0,2288.969
2288979.0,68.0,89.0,35.0,131.0,2288.979
2288989.0,69.0,91.0,43.0,126.0,2288.989
2288999.0,67.0,86.0,39.0,133.0,2288.999
2289009.0,64.0,81.0,35.0,135.0,2289.009
2289019.0,64.0,81.0,34.0,133.0,2289.019
2289029.0,62.0,81.0,35.0,130.0,2289.029
2289039.0,61.0,79.0,31.0,132.0,2289.039
2289049.0,60.0,77.0,32.0,124.0,2289.049
2289059.0,58.0,74.0,36.0,123.0,2289.059
2289069.0,60.0,82.0,34.0,122.0,2289.069
2289079.0,61.0,79.0,42.0,122.0,2289.079
2289089.0,61.0,78.0,38.0,130.0,2289.089
2289099.0,60.0,81.0,36.0,128.0,2289.099
2289110.0,60.0,77.0,36.0,127.0,2289.11
2289120.0,59.0,75.0,35.0,131.0,2289.12
2289130.0,60.0,75.0,46.0,138.0,2289.13
2289140.0,62.0,71.0,40.0,135.0,2289.14
2289150.0,60.0,72.0,39.0,128.0,2289.15
2289160.0,61.0,73.0,37.0,131.0,2289.16
2289170.0,60.0,72.0,38.0,124.0,2289.17
2289180.0,62.0,71.0,37.0,117.0,2289.18
2289190.0,60.0,77.0,41.0,132.0,2289.19
2289200.0,62.0,76.0,41.0,126.0,2289.2
2289210.0,63.0,74.0,48.0,130.0,2289.21
2289220.0,61.0,77.0,41.0,128.0,2289.22
2289230.0,63.0,77.0,37.0,125.0,2289.23
2289240.0,64.0,78.0,34.0,128.0,2289.24
2289250.0,63.0,79.0,32.0,122.0,2289.25
2289260.0,64.0,76.0,29.0,121.0,2289.26
2289270.0,64.0,72.0,29.0,121.0,2289.27
2289280.0,63.0,72.0,29.0,126.0,2289.28
2289290.0,64.0,71.0,27.0,127.0,2289.29
2289300.0,61.0,69.0,43.0,135.0,2289.3
2289310.0,62.0,67.0,41.0,127.0,2289.31
2289320.0,63.0,65.0,38.0,126.0,2289.32
2289330.0,63.0,65.0,34.0,125.0,2289.33
2289340.0,62.0,68.0,30.0,130.0,2289.34
2289350.0,61.0,67.0,32.0,134.0,2289.35
2289360.0,62.0,71.0,28.0,128.0,2289.36
2289370.0,64.0,72.0,28.0,120.0,2289.37
2289380.0,66.0,74.0,29.0,119.0,2289.38
2289390.0,66.0,75.0,27.0,115.0,2289.39
2289400.0,68.0,76.0,48.0,125.0,2289.4
2289410.0,67.0,74.0,44.0,129.0,2289.41
2289420.0,66.0,72.0,41.0,127.0,2289.42
2289430.0,66.0,70.0,36.0,128.0,2289.43
2289440.0,64.0,68.0,33.0,121.0,2289.44
2289451.0,65.0,66.0,33.0,125.0,2289.451
2289461.0,62.0,67.0,29.0,125.0,2289.461
2289471.0,61.0,66.0,31.0,125.0,2289.471
2289481.0,62.0,68.0,31.0,128.0,2289.481
2289491.0,64.0,79.0,32.0,125.0,2289.491
2289501.0,64.0,76.0,30.0,126.0,2289.501
2289511.0,61.0,75.0,29.0,129.0,2289.511
2289521.0,63.0,71.0,27.0,126.0,2289.521
2289531.0,64.0,71.0,22.0,121.0,2289.531
2289541.0,62.0,68.0,20.0,114.0,2289.541
2289551.0,63.0,77.0,34.0,108.0,2289.551
2289561.0,64.0,76.0,31.0,110.0,2289.561
2289571.0,65.0,72.0,30.0,112.0,2289.571
2289581.0,66.0,69.0,25.0,103.0,2289.581
2289591.0,64.0,71.0,29.0,97.0,2289.591
2289601.0,64.0,74.0,29.0,101.0,2289.601
2289611.0,64.0,74.0,29.0,95.0,2289.611
2289622.0,65.0,69.0,26.0,96.0,2289.622
2289632.0,66.0,72.0,22.0,99.0,2289.632
2289642.0,68.0,73.0,36.0,98.0,2289.642
2289652.0,67.0,73.0,34.0,97.0,2289.652
2289662.0,65.0,76.0,33.0,96.0,2289.662
2289672.0,67.0,72.0,32.0,99.0,2289.672
2289682.0,65.0,74.0,27.0,105.0,2289.682
2289692.0,64.0,73.0,33.0,102.0,2289.692
2289702.0,64.0,72.0,37.0,111.0,2289.702
2289712.0,65.0,70.0,34.0,115.0,2289.712
2289722.0,64.0,69.0,30.0,108.0,2289.722
2289732.0,61.0,69.0,26.0,105.0,2289.732
2289742.0,61.0,67.0,31.0,108.0,2289.742
2289752.0,60.0,63.0,26.0,113.0,2289.752
2289762.0,61.0,65.0,23.0,106.0,2289.762
2289772.0,61.0,65.0,22.0,113.0,2289.772
2289782.0,59.0,66.0,20.0,109.0,2289.782
2289792.0,62.0,70.0,21.0,108.0,2289.792
2289802.0,61.0,68.0,37.0,106.0,2289.802
2289812.0,61.0,70.0,35.0,109.0,2289.812
2289822.0,61.0,71.0,34.0,106.0,2289.822
2289832.0,63.0,75.0,30.0,107.0,2289.832
2289842.0,62.0,73.0,26.0,106.0,2289.842
2289852.0,64.0,72.0,23.0,107.0,2289.852
2289862.0,62.0,71.0,35.0,103.0,2289.862
2289872.0,62.0,70.0,32.0,100.0,2289.872
2289882.0,61.0,71.0,31.0,95.0,2289.882
2289892.0,62.0,69.0,34.0,94.0,2289.892
2289902.0,62.0,76.0,36.0,100.0,2289.902
2289912.0,64.0,77.0,33.0,94.0,2289.912
2289922.0,64.0,74.0,30.0,98.0,2289.922
2289932.0,63.0,73.0,26.0,92.0,2289.932
2289942.0,63.0,75.0,37.0,91.0,2289.942
2289952.0,65.0,72.0,36.0,91.0,2289.952
2289963.0,66.0,77.0,34.0,93.0,2289.963
2289973.0,68.0,81.0,31.0,91.0,2289.973
2289983.0,68.0,76.0,29.0,96.0,2289.983
2289993.0,68.0,77.0,26.0,93.0,2289.993
2290003.0,68.0,73.0,23.0,90.0,2290.003
2290013.0,67.0,72.0,22.0,87.0,2290.013
2290023.0,66.0,72.0,33.0,86.0,2290.023
2290033.0,65.0,68.0,36.0,91.0,2290.033
2290043.0,64.0,67.0,31.0,90.0,2290.043
2290053.0,63.0,67.0,29.0,87.0,2290.053
2290063.0,61.0,64.0,34.0,86.0,2290.063
2290073.0,61.0,62.0,31.0,82.0,2290.073
2290083.0,59.0,60.0,38.0,80.0,2290.083
2290093.0,59.0,58.0,37.0,80.0,2290.093
2290103.0,59.0,59.0,38.0,78.0,2290.103
2290113.0,66.0,68.0,46.0,85.0,2290.113
2290123.0,64.0,66.0,51.0,96.0,2290.123
2290134.0,67.0,65.0,46.0,96.0,2290.134
2290144.0,68.0,62.0,42.0,98.0,2290.144
2290154.0,67.0,62.0,48.0,98.0,2290.154
2290164.0,67.0,61.0,43.0,97.0,2290.164
2290174.0,68.0,60.0,51.0,98.0,2290.174
2290184.0,67.0,61.0,58.0,95.0,2290.184
2290194.0,65.0,59.0,77.0,106.0,2290.194
2290204.0,68.0,57.0,80.0,102.0,2290.204
2290214.0,67.0,59.0,88.0,136.0,2290.214
2290224.0,78.0,63.0,94.0,183.0,2290.224
2290234.0,77.0,74.0,84.0,187.0,2290.234
2290244.0,77.0,88.0,90.0,182.0,2290.244
2290254.0,78.0,103.0,80.0,177.0,2290.254
2290264.0,76.0,124.0,78.0,197.0,2290.264
2290274.0,80.0,147.0,81.0,196.0,2290.274
2290284.0,79.0,166.0,82.0,208.0,2290.284
2290294.0,80.0,184.0,79.0,209.0,2290.294
2290304.0,83.0,201.0,78.0,237.0,2290.304
2290314.0,85.0,218.0,93.0,226.0,2290.314
2290324.0,86.0,229.0,85.0,222.0,2290.324
2290334.0,93.0,242.0,90.0,236.0,2290.334
2290344.0,92.0,254.0,96.0,252.0,2290.344
2290354.0,92.0,259.0,92.0,239.0,2290.354
2290364.0,93.0,267.0,90.0,237.0,2290.364
2290374.0,96.0,271.0,87.0,229.0,2290.374
2290384.0,96.0,274.0,85.0,236.0,2290.384
2290394.0,97.0,274.0,107.0,235.0,2290.394
2290404.0,98.0,277.0,98.0,227.0,2290.404
2290414.0,99.0,278.0,92.0,218.0,2290.414
2290424.0,99.0,280.0,93.0,210.0,2290.424
2290434.0,102.0,285.0,85.0,218.0,2290.434
2290444.0,102.0,284.0,82.0,212.0,2290.444
2290454.0,103.0,286.0,83.0,211.0,2290.454
2290464.0,103.0,286.0,76.0,208.0,2290.464
2290475.0,103.0,284.0,72.0,199.0,2290.475
2290485.0,104.0,283.0,70.0,188.0,2290.485
2290495.0,103.0,279.0,68.0,186.0,2290.495
2290505.0,103.0,277.0,70.0,176.0,2290.505
2290515.0,102.0,269.0,83.0,162.0,2290.515
2290525.0,104.0,266.0,85.0,166.0,2290.525
2290535.0,103.0,263.0,78.0,156.0,2290.535
2290545.0,104.0,258.0,72.0,147.0,2290.545
2290555.0,103.0,252.0,66.0,137.0,2290.555
2290565.0,105.0,248.0,61.0,135.0,2290.565
2290575.0,103.0,242.0,71.0,142.0,2290.575
2290585.0,103.0,239.0,82.0,147.0,2290.585
2290595.0,105.0,240.0,76.0,151.0,2290.595
2290605.0,104.0,238.0,68.0,143.0,2290.605
2290615.0,106.0,235.0,63.0,147.0,2290.615
2290625.0,103.0,231.0,55.0,136.0,2290.625
2290635.0,103.0,228.0,50.0,129.0,2290.635
2290646.0,103.0,225.0,51.0,129.0,2290.646
2290656.0,104.0,222.0,56.0,132.0,2290.656
2290666.0,105.0,220.0,62.0,122.0,2290.666
2290676.0,105.0,215.0,56.0,118.0,2290.676
2290686.0,108.0,213.0,52.0,119.0,2290.686
2290696.0,108.0,210.0,47.0,117.0,2290.696
2290706.0,109.0,205.0,43.0,107.0,2290.706
2290716.0,108.0,200.0,38.0,109.0,2290.716
2290726.0,107.0,195.0,44.0,104.0,2290.726
2290736.0,106.0,191.0,42.0,102.0,2290.736
2290746.0,107.0,188.0,57.0,104.0,2290.746
2290756.0,108.0,186.0,55.0,105.0,2290.756
2290766.0,108.0,184.0,49.0,101.0,2290.766
2290776.0,106.0,180.0,44.0,97.0,2290.776
2290786.0,109.0,177.0,42.0,92.0,2290.786
2290796.0,106.0,174.0,50.0,87.0,2290.796
2290806.0,106.0,169.0,63.0,81.0,2290.806
2290816.0,106.0,169.0,57.0,80.0,2290.816
2290826.0,104.0,163.0,51.0,79.0,2290.826
2290836.0,103.0,160.0,47.0,79.0,2290.836
2290846.0,106.0,159.0,42.0,78.0,2290.846
2290856.0,107.0,155.0,37.0,80.0,2290.856
2290866.0,104.0,152.0,44.0,88.0,2290.866
2290876.0,104.0,150.0,44.0,90.0,2290.876
2290886.0,105.0,150.0,54.0,88.0,2290.886
2290896.0,103.0,149.0,47.0,82.0,2290.896
2290906.0,106.0,149.0,43.0,82.0,2290.906
2290916.0,103.0,145.0,37.0,94.0,2290.916
2290926.0,104.0,144.0,33.0,100.0,2290.926
2290936.0,104.0,142.0,30.0,93.0,2290.936
2290946.0,103.0,139.0,31.0,87.0,2290.946
2290956.0,103.0,136.0,34.0,89.0,2290.956
2290966.0,103.0,134.0,45.0,85.0,2290.966
2290976.0,102.0,132.0,41.0,82.0,2290.976
2290987.0,102.0,129.0,36.0,85.0,2290.987
2290997.0,102.0,126.0,32.0,83.0,2290.997
2291007.0,102.0,124.0,28.0,85.0,2291.007
2291017.0,102.0,121.0,34.0,82.0,2291.017
2291027.0,101.0,118.0,32.0,77.0,2291.027
2291037.0,99.0,116.0,32.0,74.0,2291.037
2291047.0,99.0,115.0,43.0,75.0,2291.047
2291057.0,99.0,115.0,36.0,74.0,2291.057
2291067.0,99.0,114.0,34.0,75.0,2291.067
2291077.0,99.0,111.0,32.0,75.0,2291.077
2291087.0,99.0,111.0,27.0,70.0,2291.087
2291097.0,98.0,106.0,27.0,68.0,2291.097
2291107.0,97.0,105.0,24.0,70.0,2291.107
2291117.0,96.0,102.0,27.0,70.0,2291.117
2291127.0,97.0,100.0,26.0,69.0,2291.127
2291137.0,96.0,97.0,32.0,70.0,2291.137
2291147.0,100.0,97.0,29.0,68.0,2291.147
2291158.0,100.0,97.0,26.0,64.0,2291.158
2291168.0,101.0,95.0,23.0,61.0,2291.168
2291178.0,101.0,92.0,20.0,60.0,2291.178
2291188.0,100.0,92.0,19.0,57.0,2291.188
2291198.0,98.0,88.0,19.0,58.0,2291.198
2291208.0,97.0,87.0,30.0,71.0,2291.208
2291218.0,98.0,85.0,27.0,84.0,2291.218
2291228.0,96.0,84.0,25.0,92.0,2291.228
2291238.0,96.0,84.0,24.0,88.0,2291.238
2291248.0,95.0,82.0,21.0,82.0,2291.248
2291258.0,93.0,82.0,20.0,83.0,2291.258
2291268.0,96.0,82.0,21.0,82.0,2291.268
2291278.0,95.0,82.0,32.0,79.0,2291.278
2291288.0,95.0,83.0,31.0,77.0,2291.288
2291298.0,95.0,83.0,27.0,77.0,2291.298
2291308.0,94.0,83.0,30.0,77.0,2291.308
2291318.0,94.0,81.0,28.0,80.0,2291.318
2291328.0,93.0,79.0,25.0,84.0,2291.328
2291338.0,93.0,79.0,23.0,79.0,2291.338
2291348.0,91.0,78.0,32.0,73.0,2291.348
2291358.0,90.0,80.0,32.0,76.0,2291.358
2291368.0,89.0,77.0,41.0,91.0,2291.368
2291378.0,88.0,79.0,42.0,90.0,2291.378
2291388.0,88.0,78.0,37.0,84.0,2291.388
2291398.0,86.0,78.0,33.0,81.0,2291.398
2291408.0,84.0,73.0,43.0,93.0,2291.408
2291418.0,86.0,76.0,48.0,88.0,2291.418
2291428.0,84.0,76.0,43.0,81.0,2291.428
2291438.0,83.0,77.0,38.0,78.0,2291.438
2291448.0,82.0,78.0,36.0,74.0,2291.448
2291458.0,80.0,76.0,33.0,86.0,2291.458
2291468.0,81.0,76.0,30.0,90.0,2291.468
2291478.0,79.0,76.0,28.0,84.0,2291.478
2291488.0,80.0,75.0,27.0,79.0,2291.488
2291499.0,79.0,75.0,24.0,89.0,2291.499
2291509.0,78.0,73.0,28.0,90.0,2291.509
2291519.0,79.0,74.0,24.0,86.0,2291.519
2291529.0,78.0,74.0,25.0,86.0,2291.529
2291539.0,78.0,73.0,22.0,82.0,2291.539
2291549.0,77.0,74.0,19.0,78.0,2291.549
2291559.0,75.0,71.0,22.0,86.0,2291.559
2291569.0,73.0,71.0,28.0,86.0,2291.569
2291579.0,74.0,72.0,36.0,80.0,2291.579
2291589.0,74.0,72.0,36.0,79.0,2291.589
2291599.0,74.0,74.0,32.0,81.0,2291.599
2291609.0,74.0,73.0,30.0,81.0,2291.609
2291619.0,75.0,75.0,27.0,78.0,2291.619
2291629.0,73.0,71.0,25.0,86.0,2291.629
2291639.0,74.0,71.0,25.0,88.0,2291.639
2291649.0,73.0,71.0,23.0,88.0,2291.649
2291659.0,72.0,70.0,38.0,84.0,2291.659
2291670.0,72.0,70.0,35.0,81.0,2291.67
2291680.0,73.0,69.0,33.0,81.0,2291.68
2291690.0,74.0,71.0,30.0,81.0,2291.69
2291700.0,73.0,69.0,29.0,86.0,2291.7
2291710.0,72.0,68.0,29.0,80.0,2291.71
2291720.0,72.0,70.0,25.0,79.0,2291.72
2291730.0,72.0,69.0,42.0,79.0,2291.73
2291740.0,70.0,69.0,42.0,81.0,2291.74
2291750.0,71.0,70.0,38.0,82.0,2291.75
2291760.0,70.0,71.0,33.0,78.0,2291.76
2291770.0,69.0,72.0,31.0,80.0,2291.77
2291780.0,70.0,73.0,30.0,78.0,2291.78
2291790.0,69.0,73.0,31.0,75.0,2291.79
2291800.0,69.0,69.0,39.0,77.0,2291.8
2291810.0,69.0,71.0,43.0,78.0,2291.81
2291820.0,70.0,70.0,40.0,77.0,2291.82
2291830.0,73.0,69.0,35.0,84.0,2291.83
2291840.0,72.0,70.0,32.0,86.0,2291.84
2291850.0,73.0,68.0,29.0,96.0,2291.85
2291860.0,73.0,69.0,26.0,90.0,2291.86
2291870.0,75.0,69.0,35.0,87.0,2291.87
2291880.0,76.0,69.0,30.0,89.0,2291.88
2291890.0,77.0,68.0,29.0,84.0,2291.89
2291900.0,79.0,69.0,27.0,96.0,2291.9
2291910.0,79.0,67.0,25.0,99.0,2291.91
2291920.0,80.0,66.0,24.0,96.0,2291.92
2291930.0,80.0,64.0,25.0,91.0,2291.93
2291940.0,80.0,64.0,24.0,91.0,2291.94
2291950.0,79.0,62.0,28.0,90.0,2291.95
2291960.0,79.0,63.0,38.0,91.0,2291.96
2291970.0,80.0,64.0,34.0,87.0,2291.97
2291980.0,79.0,64.0,30.0,94.0,2291.98
2291990.0,79.0,64.0,28.0,90.0,2291.99
2292000.0,78.0,63.0,24.0,97.0,2292.0
2292011.0,76.0,63.0,22.0,92.0,2292.011
2292021.0,77.0,63.0,29.0,95.0,2292.021
2292031.0,75.0,64.0,27.0,90.0,2292.031
2292041.0,74.0,62.0,25.0,93.0,2292.041
2292051.0,73.0,62.0,23.0,88.0,2292.051
2292061.0,73.0,60.0,21.0,84.0,2292.061
2292071.0,72.0,59.0,31.0,86.0,2292.071
2292081.0,72.0,60.0,31.0,89.0,2292.081
2292091.0,72.0,59.0,31.0,91.0,2292.091
2292101.0,72.0,59.0,29.0,90.0,2292.101
2292111.0,73.0,59.0,28.0,96.0,2292.111
2292121.0,72.0,59.0,35.0,100.0,2292.121
2292131.0,71.0,58.0,37.0,93.0,2292.131
2292141.0,72.0,59.0,51.0,91.0,2292.141
2292151.0,72.0,60.0,45.0,95.0,2292.151
2292161.0,73.0,60.0,40.0,88.0,2292.161
2292171.0,73.0,60.0,37.0,92.0,2292.171
2292182.0,74.0,61.0,33.0,88.0,2292.182
2292192.0,71.0,59.0,32.0,86.0,2292.192
2292202.0,73.0,62.0,41.0,94.0,2292.202
2292212.0,72.0,60.0,43.0,94.0,2292.212
2292222.0,73.0,59.0,38.0,89.0,2292.222
2292232.0,73.0,58.0,35.0,83.0,2292.232
2292242.0,73.0,57.0,32.0,88.0,2292.242
2292252.0,73.0,56.0,28.0,84.0,2292.252
2292262.0,73.0,53.0,25.0,81.0,2292.262
2292272.0,74.0,54.0,24.0,83.0,2292.272
2292282.0,74.0,51.0,25.0,78.0,2292.282
2292292.0,74.0,53.0,43.0,78.0,2292.292
2292302.0,76.0,54.0,38.0,74.0,2292.302
2292312.0,76.0,53.0,34.0,73.0,2292.312
2292322.0,75.0,54.0,30.0,75.0,2292.322
2292332.0,75.0,52.0,27.0,74.0,2292.332
2292342.0,75.0,52.0,30.0,75.0,2292.342
2292352.0,75.0,52.0,29.0,74.0,2292.352
2292362.0,77.0,54.0,43.0,73.0,2292.362
2292372.0,77.0,52.0,38.0,77.0,2292.372
2292382.0,78.0,51.0,33.0,73.0,2292.382
2292392.0,78.0,51.0,31.0,86.0,2292.392
2292402.0,78.0,49.0,27.0,84.0,2292.402
2292412.0,78.0,48.0,24.0,80.0,2292.412
2292422.0,77.0,48.0,37.0,78.0,2292.422
2292432.0,76.0,48.0,35.0,82.0,2292.432
2292442.0,75.0,49.0,42.0,77.0,2292.442
2292452.0,77.0,51.0,39.0,71.0,2292.452
2292462.0,74.0,51.0,35.0,83.0,2292.462
2292472.0,74.0,51.0,31.0,76.0,2292.472
2292482.0,73.0,49.0,28.0,75.0,2292.482
2292492.0,70.0,49.0,30.0,75.0,2292.492
2292502.0,71.0,53.0,35.0,74.0,2292.502
2292512.0,71.0,55.0,30.0,68.0,2292.512
2292523.0,71.0,54.0,27.0,77.0,2292.523
2292533.0,70.0,54.0,23.0,83.0,2292.533
2292543.0,69.0,53.0,22.0,85.0,2292.543
2292553.0,69.0,52.0,20.0,78.0,2292.553
2292563.0,67.0,53.0,27.0,77.0,2292.563
2292573.0,67.0,53.0,34.0,82.0,2292.573
2292583.0,68.0,55.0,36.0,81.0,2292.583
2292593.0,67.0,54.0,33.0,83.0,2292.593
2292603.0,67.0,53.0,28.0,76.0,2292.603
2292613.0,66.0,52.0,25.0,75.0,2292.613
2292623.0,65.0,49.0,22.0,79.0,2292.623
2292633.0,67.0,49.0,21.0,78.0,2292.633
2292643.0,66.0,48.0,19.0,74.0,2292.643
2292653.0,66.0,47.0,20.0,86.0,2292.653
2292663.0,66.0,50.0,26.0,87.0,2292.663
2292673.0,68.0,49.0,24.0,82.0,2292.673
2292683.0,67.0,49.0,22.0,88.0,2292.683
2292694.0,67.0,45.0,19.0,100.0,2292.694
2292704.0,67.0,46.0,21.0,100.0,2292.704
2292714.0,67.0,43.0,20.0,93.0,2292.714
2292724.0,67.0,42.0,17.0,92.0,2292.724
2292734.0,65.0,44.0,32.0,93.0,2292.734
2292744.0,66.0,42.0,32.0,90.0,2292.744
2292754.0,64.0,42.0,32.0,87.0,2292.754
2292764.0,64.0,42.0,31.0,82.0,2292.764
2292774.0,64.0,41.0,29.0,97.0,2292.774
2292784.0,65.0,41.0,29.0,94.0,2292.784
2292794.0,66.0,42.0,42.0,86.0,2292.794
2292804.0,65.0,40.0,37.0,85.0,2292.804
2292814.0,66.0,41.0,34.0,78.0,2292.814
2292824.0,65.0,42.0,35.0,80.0,2292.824
2292834.0,66.0,42.0,33.0,77.0,2292.834
2292844.0,64.0,40.0,32.0,82.0,2292.844
2292854.0,63.0,41.0,29.0,84.0,2292.854
2292864.0,62.0,40.0,27.0,86.0,2292.864
2292874.0,62.0,41.0,38.0,86.0,2292.874
2292884.0,63.0,40.0,38.0,82.0,2292.884
2292894.0,62.0,39.0,34.0,76.0,2292.894
2292904.0,62.0,39.0,30.0,75.0,2292.904
2292914.0,63.0,37.0,27.0,79.0,2292.914
2292924.0,62.0,38.0,32.0,83.0,2292.924
2292934.0,64.0,41.0,32.0,86.0,2292.934
2292944.0,64.0,41.0,28.0,80.0,2292.944
2292954.0,62.0,43.0,30.0,85.0,2292.954
2292964.0,63.0,43.0,31.0,79.0,2292.964
2292974.0,62.0,44.0,27.0,77.0,2292.974
2292984.0,63.0,41.0,26.0,73.0,2292.984
2292994.0,62.0,42.0,23.0,77.0,2292.994
2293004.0,61.0,41.0,21.0,77.0,2293.004
2293014.0,62.0,41.0,21.0,77.0,2293.014
2293024.0,62.0,44.0,32.0,74.0,2293.024
2293035.0,63.0,43.0,35.0,79.0,2293.035
2293045.0,61.0,44.0,31.0,81.0,2293.045
2293055.0,61.0,41.0,28.0,81.0,2293.055
2293065.0,61.0,42.0,29.0,86.0,2293.065
2293075.0,59.0,41.0,26.0,82.0,2293.075
2293085.0,61.0,40.0,23.0,78.0,2293.085
2293095.0,63.0,44.0,32.0,77.0,2293.095
2293105.0,64.0,43.0,30.0,72.0,2293.105
2293115.0,63.0,45.0,27.0,72.0,2293.115
2293125.0,62.0,45.0,24.0,75.0,2293.125
2293135.0,65.0,45.0,30.0,81.0,2293.135
2293145.0,65.0,46.0,32.0,79.0,2293.145
2293155.0,66.0,45.0,31.0,76.0,2293.155
2293165.0,66.0,47.0,42.0,72.0,2293.165
2293175.0,66.0,45.0,38.0,73.0,2293.175
2293185.0,65.0,44.0,33.0,69.0,2293.185
2293195.0,67.0,43.0,29.0,68.0,2293.195
2293206.0,67.0,41.0,26.0,74.0,2293.206
2293216.0,68.0,41.0,23.0,70.0,2293.216
2293226.0,69.0,41.0,22.0,68.0,2293.226
2293236.0,70.0,40.0,20.0,66.0,2293.236
2293246.0,70.0,39.0,20.0,66.0,2293.246
2293256.0,72.0,40.0,30.0,68.0,2293.256
2293266.0,71.0,40.0,27.0,67.0,2293.266
2293276.0,72.0,39.0,28.0,72.0,2293.276
2293286.0,73.0,38.0,30.0,73.0,2293.286
2293296.0,74.0,37.0,28.0,68.0,2293.296
2293306.0,72.0,37.0,24.0,64.0,2293.306
2293316.0,70.0,37.0,20.0,66.0,2293.316
2293326.0,69.0,38.0,19.0,67.0,2293.326
2293336.0,68.0,37.0,17.0,62.0,2293.336
2293346.0,68.0,38.0,17.0,66.0,2293.346
2293356.0,68.0,40.0,23.0,79.0,2293.356
2293366.0,67.0,40.0,33.0,81.0,2293.366
2293376.0,66.0,40.0,30.0,80.0,2293.376
2293386.0,65.0,39.0,25.0,76.0,2293.386
2293396.0,65.0,39.0,23.0,76.0,2293.396
2293406.0,64.0,41.0,28.0,75.0,2293.406
2293416.0,65.0,40.0,27.0,70.0,2293.416
2293426.0,64.0,39.0,25.0,68.0,2293.426
2293436.0,64.0,41.0,27.0,69.0,2293.436
2293446.0,65.0,40.0,25.0,65.0,2293.446
2293456.0,63.0,39.0,23.0,64.0,2293.456
2293466.0,64.0,39.0,22.0,65.0,2293.466
2293476.0,62.0,41.0,23.0,69.0,2293.476
2293486.0,60.0,43.0,38.0,68.0,2293.486
2293496.0,62.0,42.0,36.0,66.0,2293.496
2293506.0,63.0,40.0,32.0,63.0,2293.506
2293516.0,64.0,40.0,29.0,64.0,2293.516
2293526.0,64.0,40.0,26.0,72.0,2293.526
2293536.0,63.0,39.0,29.0,70.0,2293.536
2293547.0,64.0,39.0,34.0,81.0,2293.547
2293557.0,64.0,40.0,42.0,80.0,2293.557
2293567.0,66.0,41.0,37.0,76.0,2293.567
2293577.0,65.0,41.0,35.0,87.0,2293.577
2293587.0,64.0,40.0,33.0,85.0,2293.587
2293597.0,64.0,40.0,29.0,82.0,2293.597
2293607.0,62.0,40.0,27.0,90.0,2293.607
2293617.0,60.0,40.0,31.0,94.0,2293.617
2293627.0,58.0,40.0,34.0,92.0,2293.627
2293637.0,60.0,40.0,33.0,92.0,2293.637
2293647.0,59.0,39.0,34.0,101.0,2293.647
2293657.0,60.0,39.0,31.0,99.0,2293.657
2293667.0,60.0,38.0,27.0,103.0,2293.667
2293677.0,58.0,39.0,27.0,107.0,2293.677
2293687.0,59.0,40.0,26.0,107.0,2293.687
2293697.0,60.0,43.0,35.0,105.0,2293.697
2293707.0,61.0,41.0,31.0,104.0,2293.707
2293718.0,62.0,42.0,34.0,102.0,2293.718
2293728.0,63.0,42.0,31.0,109.0,2293.728
2293738.0,64.0,42.0,28.0,103.0,2293.738
2293748.0,64.0,42.0,24.0,105.0,2293.748
2293758.0,63.0,43.0,44.0,104.0,2293.758
2293768.0,65.0,44.0,42.0,108.0,2293.768
2293778.0,64.0,43.0,39.0,101.0,2293.778
2293788.0,65.0,42.0,35.0,105.0,2293.788
2293798.0,64.0,40.0,30.0,104.0,2293.798
2293808.0,65.0,40.0,29.0,97.0,2293.808
2293818.0,64.0,40.0,24.0,100.0,2293.818
2293828.0,62.0,40.0,24.0,102.0,2293.828
2293838.0,61.0,41.0,35.0,106.0,2293.838
2293848.0,62.0,42.0,35.0,103.0,2293.848
2293858.0,62.0,40.0,30.0,98.0,2293.858
2293868.0,61.0,40.0,27.0,94.0,2293.868
2293878.0,62.0,39.0,25.0,94.0,2293.878
2293888.0,62.0,39.0,26.0,95.0,2293.888
2293898.0,62.0,42.0,45.0,96.0,2293.898
2293908.0,64.0,41.0,41.0,91.0,2293.908
2293918.0,64.0,42.0,35.0,91.0,2293.918
2293928.0,63.0,41.0,31.0,89.0,2293.928
2293938.0,63.0,42.0,28.0,94.0,2293.938
2293948.0,63.0,41.0,25.0,90.0,2293.948
2293958.0,63.0,43.0,36.0,94.0,2293.958
2293968.0,64.0,44.0,42.0,91.0,2293.968
2293978.0,65.0,45.0,41.0,89.0,2293.978
2293988.0,65.0,46.0,38.0,94.0,2293.988
2293998.0,65.0,44.0,35.0,84.0,2293.998
2294008.0,64.0,44.0,31.0,89.0,2294.008
2294018.0,65.0,44.0,36.0,84.0,2294.018
2294028.0,65.0,44.0,40.0,82.0,2294.028
2294038.0,64.0,43.0,36.0,81.0,2294.038
2294048.0,64.0,42.0,34.0,83.0,2294.048
2294059.0,62.0,42.0,31.0,87.0,2294.059
2294069.0,63.0,40.0,27.0,86.0,2294.069
2294079.0,63.0,41.0,28.0,87.0,2294.079
2294089.0,64.0,42.0,39.0,81.0,2294.089
2294099.0,67.0,42.0,41.0,79.0,2294.099
2294109.0,66.0,42.0,38.0,79.0,2294.109
2294119.0,66.0,41.0,35.0,78.0,2294.119
2294129.0,66.0,41.0,30.0,83.0,2294.129
2294139.0,66.0,40.0,27.0,86.0,2294.139
2294149.0,67.0,38.0,25.0,82.0,2294.149
2294159.0,66.0,41.0,36.0,79.0,2294.159
2294169.0,67.0,40.0,38.0,80.0,2294.169
2294179.0,67.0,40.0,34.0,75.0,2294.179
2294189.0,66.0,40.0,37.0,81.0,2294.189
2294199.0,67.0,39.0,33.0,86.0,2294.199
2294209.0,66.0,39.0,30.0,85.0,2294.209
2294219.0,65.0,38.0,38.0,82.0,2294.219
2294230.0,65.0,40.0,34.0,75.0,2294.23
2294240.0,64.0,39.0,32.0,78.0,2294.24
2294250.0,63.0,38.0,28.0,77.0,2294.25
2294260.0,62.0,39.0,23.0,74.0,2294.26
2294270.0,62.0,39.0,28.0,77.0,2294.27
2294280.0,60.0,40.0,30.0,78.0,2294.28
2294290.0,59.0,40.0,40.0,80.0,2294.29
2294300.0,59.0,40.0,37.0,75.0,2294.3
2294310.0,57.0,40.0,33.0,73.0,2294.31
2294320.0,58.0,39.0,29.0,71.0,2294.32
2294330.0,58.0,39.0,31.0,84.0,2294.33
2294340.0,58.0,39.0,31.0,81.0,2294.34
2294350.0,59.0,42.0,42.0,79.0,2294.35
2294360.0,58.0,41.0,48.0,79.0,2294.36
2294370.0,57.0,41.0,43.0,75.0,2294.37
2294380.0,57.0,40.0,39.0,78.0,2294.38
2294390.0,58.0,40.0,35.0,73.0,2294.39
2294400.0,57.0,40.0,33.0,69.0,2294.4
2294410.0,56.0,39.0,33.0,69.0,2294.41
2294420.0,54.0,42.0,48.0,67.0,2294.42
2294430.0,56.0,42.0,51.0,63.0,2294.43
2294440.0,55.0,42.0,46.0,79.0,2294.44
2294450.0,54.0,42.0,43.0,78.0,2294.45
2294460.0,57.0,41.0,39.0,75.0,2294.46
2294470.0,54.0,42.0,34.0,71.0,2294.47
2294480.0,54.0,41.0,30.0,65.0,2294.48
2294490.0,53.0,42.0,45.0,67.0,2294.49
2294500.0,54.0,42.0,41.0,78.0,2294.5
2294510.0,54.0,40.0,36.0,72.0,2294.51
2294520.0,55.0,39.0,33.0,68.0,2294.52
2294530.0,56.0,39.0,33.0,71.0,2294.53
2294540.0,55.0,39.0,32.0,72.0,2294.54
2294550.0,54.0,40.0,34.0,80.0,2294.55
2294560.0,55.0,41.0,40.0,81.0,2294.56
2294571.0,58.0,42.0,42.0,74.0,2294.571
2294581.0,57.0,42.0,46.0,70.0,2294.581
2294591.0,59.0,41.0,40.0,65.0,2294.591
2294601.0,61.0,41.0,36.0,66.0,2294.601
2294611.0,61.0,40.0,32.0,62.0,2294.611
2294621.0,60.0,40.0,30.0,70.0,2294.621
2294631.0,61.0,40.0,33.0,72.0,2294.631
2294641.0,60.0,40.0,30.0,68.0,2294.641
2294651.0,60.0,42.0,41.0,66.0,2294.651
2294661.0,61.0,40.0,37.0,66.0,2294.661
2294671.0,60.0,40.0,37.0,72.0,2294.671
2294681.0,60.0,39.0,40.0,73.0,2294.681
2294691.0,58.0,40.0,34.0,73.0,2294.691
2294701.0,58.0,41.0,32.0,69.0,2294.701
2294711.0,58.0,41.0,30.0,75.0,2294.711
2294721.0,58.0,44.0,31.0,85.0,2294.721
2294731.0,58.0,44.0,28.0,88.0,2294.731
2294742.0,57.0,45.0,26.0,84.0,2294.742
2294752.0,58.0,46.0,28.0,79.0,2294.752
