time (ms),signal 0,signal 1,signal 2,signal3,time (sec)
2270986.0,128.0,167.0,64.0,92.0,2270.986
2270996.0,127.0,165.0,68.0,90.0,2270.996
2271006.0,127.0,162.0,60.0,93.0,2271.006
2271016.0,128.0,161.0,58.0,93.0,2271.016
2271026.0,128.0,158.0,59.0,91.0,2271.026
2271036.0,127.0,154.0,60.0,92.0,2271.036
2271046.0,127.0,153.0,56.0,92.0,2271.046
2271056.0,125.0,149.0,64.0,88.0,2271.056
2271066.0,127.0,149.0,56.0,86.0,2271.066
2271076.0,127.0,145.0,57.0,85.0,2271.076
2271086.0,124.0,142.0,61.0,88.0,2271.086
2271096.0,126.0,142.0,74.0,94.0,2271.096
2271106.0,127.0,141.0,68.0,94.0,2271.106
2271116.0,128.0,142.0,66.0,93.0,2271.116
2271126.0,128.0,140.0,59.0,96.0,2271.126
2271136.0,128.0,141.0,56.0,93.0,2271.136
2271147.0,127.0,139.0,57.0,94.0,2271.147
2271157.0,127.0,138.0,64.0,97.0,2271.157
2271167.0,128.0,139.0,60.0,96.0,2271.167
2271177.0,127.0,136.0,63.0,95.0,2271.177
2271187.0,127.0,135.0,65.0,90.0,2271.187
2271197.0,130.0,135.0,59.0,92.0,2271.197
2271207.0,130.0,134.0,56.0,90.0,2271.207
2271217.0,132.0,133.0,64.0,94.0,2271.217
2271227.0,133.0,133.0,62.0,87.0,2271.227
2271237.0,131.0,131.0,65.0,86.0,2271.237
2271247.0,133.0,132.0,58.0,89.0,2271.247
2271257.0,134.0,131.0,56.0,86.0,2271.257
2271267.0,133.0,128.0,56.0,81.0,2271.267
2271277.0,134.0,130.0,65.0,80.0,2271.277
2271287.0,135.0,131.0,66.0,78.0,2271.287
2271297.0,136.0,130.0,62.0,75.0,2271.297
2271307.0,134.0,130.0,53.0,73.0,2271.307
2271318.0,134.0,129.0,53.0,69.0,2271.318
2271328.0,134.0,129.0,51.0,66.0,2271.328
2271338.0,133.0,127.0,57.0,65.0,2271.338
2271348.0,136.0,129.0,62.0,67.0,2271.348
2271358.0,135.0,130.0,63.0,64.0,2271.358
2271368.0,137.0,131.0,61.0,64.0,2271.368
2271378.0,137.0,131.0,53.0,64.0,2271.378
2271388.0,135.0,130.0,48.0,62.0,2271.388
2271398.0,138.0,131.0,42.0,60.0,2271.398
2271408.0,138.0,131.0,38.0,58.0,2271.408
2271418.0,139.0,132.0,34.0,57.0,2271.418
2271428.0,140.0,133.0,51.0,57.0,2271.428
2271438.0,141.0,131.0,49.0,55.0,2271.438
2271448.0,143.0,133.0,42.0,55.0,2271.448
2271458.0,143.0,132.0,38.0,51.0,2271.458
2271468.0,144.0,132.0,34.0,49.0,2271.468
2271478.0,144.0,132.0,32.0,48.0,2271.478
2271488.0,145.0,129.0,34.0,47.0,2271.488
2271498.0,145.0,130.0,35.0,53.0,2271.498
2271508.0,146.0,132.0,43.0,54.0,2271.508
2271518.0,147.0,134.0,38.0,54.0,2271.518
2271528.0,145.0,134.0,35.0,54.0,2271.528
2271538.0,147.0,135.0,33.0,58.0,2271.538
2271548.0,147.0,137.0,30.0,61.0,2271.548
2271558.0,147.0,136.0,28.0,60.0,2271.558
2271568.0,149.0,140.0,33.0,62.0,2271.568
2271578.0,149.0,141.0,33.0,65.0,2271.578
2271588.0,147.0,142.0,29.0,66.0,2271.588
2271598.0,148.0,144.0,28.0,63.0,2271.598
2271608.0,149.0,143.0,28.0,62.0,2271.608
2271618.0,150.0,144.0,40.0,66.0,2271.618
2271628.0,151.0,145.0,38.0,70.0,2271.628
2271638.0,151.0,145.0,33.0,73.0,2271.638
2271648.0,153.0,148.0,36.0,74.0,2271.648
2271659.0,154.0,148.0,36.0,72.0,2271.659
2271669.0,155.0,148.0,34.0,69.0,2271.669
2271679.0,158.0,151.0,32.0,70.0,2271.679
2271689.0,159.0,151.0,43.0,69.0,2271.689
2271699.0,159.0,149.0,50.0,67.0,2271.699
2271709.0,161.0,151.0,45.0,69.0,2271.709
2271719.0,161.0,148.0,45.0,69.0,2271.719
2271729.0,164.0,150.0,50.0,72.0,2271.729
2271739.0,163.0,146.0,52.0,71.0,2271.739
2271749.0,166.0,151.0,54.0,72.0,2271.749
2271759.0,165.0,149.0,52.0,67.0,2271.759
2271769.0,165.0,150.0,48.0,66.0,2271.769
2271779.0,165.0,148.0,44.0,60.0,2271.779
2271789.0,167.0,149.0,39.0,62.0,2271.789
2271799.0,169.0,149.0,37.0,58.0,2271.799
2271809.0,168.0,148.0,46.0,64.0,2271.809
2271819.0,166.0,147.0,62.0,67.0,2271.819
2271830.0,169.0,147.0,76.0,63.0,2271.83
2271840.0,169.0,150.0,88.0,71.0,2271.84
2271850.0,171.0,151.0,80.0,67.0,2271.85
2271860.0,170.0,151.0,75.0,73.0,2271.86
2271870.0,169.0,150.0,73.0,68.0,2271.87
2271880.0,169.0,150.0,67.0,67.0,2271.88
2271890.0,167.0,149.0,64.0,67.0,2271.89
2271900.0,168.0,150.0,64.0,67.0,2271.9
2271910.0,168.0,151.0,60.0,64.0,2271.91
2271920.0,167.0,149.0,53.0,60.0,2271.92
2271930.0,166.0,147.0,52.0,58.0,2271.93
2271940.0,164.0,144.0,53.0,63.0,2271.94
2271950.0,164.0,144.0,52.0,66.0,2271.95
2271960.0,162.0,142.0,64.0,73.0,2271.96
2271970.0,162.0,142.0,60.0,69.0,2271.97
2271980.0,161.0,140.0,67.0,68.0,2271.98
2271990.0,160.0,138.0,80.0,71.0,2271.99
2272000.0,161.0,138.0,85.0,66.0,2272.0
2272010.0,161.0,138.0,77.0,63.0,2272.01
2272020.0,161.0,137.0,73.0,59.0,2272.02
2272030.0,160.0,136.0,70.0,59.0,2272.03
2272040.0,157.0,133.0,64.0,57.0,2272.04
2272050.0,160.0,134.0,57.0,54.0,2272.05
2272060.0,155.0,131.0,61.0,58.0,2272.06
2272070.0,157.0,133.0,58.0,57.0,2272.07
2272080.0,158.0,135.0,58.0,60.0,2272.08
2272090.0,157.0,134.0,60.0,61.0,2272.09
2272100.0,159.0,135.0,53.0,58.0,2272.1
2272110.0,156.0,133.0,62.0,60.0,2272.11
2272120.0,158.0,135.0,57.0,59.0,2272.12
2272130.0,156.0,136.0,51.0,56.0,2272.13
2272140.0,155.0,136.0,47.0,58.0,2272.14
2272150.0,156.0,136.0,49.0,60.0,2272.15
2272160.0,154.0,133.0,52.0,60.0,2272.16
2272171.0,156.0,136.0,62.0,63.0,2272.171
2272181.0,157.0,138.0,57.0,62.0,2272.181
2272191.0,156.0,138.0,51.0,60.0,2272.191
2272201.0,154.0,138.0,53.0,61.0,2272.201
2272211.0,153.0,139.0,53.0,57.0,2272.211
2272221.0,151.0,136.0,62.0,56.0,2272.221
2272231.0,151.0,136.0,64.0,55.0,2272.231
2272241.0,150.0,132.0,57.0,54.0,2272.241
2272251.0,148.0,129.0,52.0,51.0,2272.251
2272261.0,147.0,123.0,48.0,49.0,2272.261
2272271.0,146.0,113.0,54.0,53.0,2272.271
2272281.0,146.0,104.0,54.0,56.0,2272.281
2272291.0,143.0,100.0,52.0,53.0,2272.291
2272301.0,142.0,97.0,57.0,52.0,2272.301
2272311.0,143.0,98.0,63.0,56.0,2272.311
2272321.0,142.0,99.0,58.0,56.0,2272.321
2272331.0,145.0,99.0,63.0,57.0,2272.331
2272342.0,147.0,100.0,58.0,56.0,2272.342
2272352.0,148.0,100.0,52.0,60.0,2272.352
2272362.0,150.0,102.0,47.0,58.0,2272.362
2272372.0,147.0,104.0,66.0,83.0,2272.372
2272382.0,144.0,103.0,71.0,96.0,2272.382
2272392.0,146.0,99.0,65.0,95.0,2272.392
2272402.0,142.0,98.0,60.0,93.0,2272.402
2272412.0,140.0,97.0,56.0,89.0,2272.412
2272422.0,136.0,100.0,65.0,89.0,2272.422
2272432.0,139.0,92.0,62.0,85.0,2272.432
2272442.0,138.0,91.0,64.0,82.0,2272.442
2272452.0,137.0,87.0,56.0,83.0,2272.452
2272462.0,136.0,89.0,68.0,99.0,2272.462
2272472.0,135.0,85.0,66.0,107.0,2272.472
2272482.0,135.0,82.0,68.0,111.0,2272.482
2272492.0,133.0,81.0,69.0,112.0,2272.492
2272502.0,133.0,76.0,67.0,109.0,2272.502
2272512.0,132.0,73.0,67.0,105.0,2272.512
2272522.0,129.0,75.0,82.0,101.0,2272.522
2272532.0,131.0,72.0,80.0,102.0,2272.532
2272542.0,128.0,70.0,71.0,99.0,2272.542
2272552.0,127.0,68.0,68.0,93.0,2272.552
2272562.0,131.0,65.0,64.0,90.0,2272.562
2272572.0,127.0,75.0,65.0,89.0,2272.572
2272582.0,123.0,70.0,65.0,82.0,2272.582
2272592.0,116.0,82.0,61.0,78.0,2272.592
2272602.0,112.0,143.0,68.0,87.0,2272.602
2272612.0,117.0,153.0,66.0,94.0,2272.612
2272622.0,112.0,169.0,63.0,98.0,2272.622
2272632.0,110.0,185.0,66.0,93.0,2272.632
2272642.0,106.0,195.0,60.0,95.0,2272.642
2272652.0,119.0,196.0,57.0,91.0,2272.652
2272662.0,115.0,226.0,54.0,99.0,2272.662
2272672.0,113.0,240.0,54.0,107.0,2272.672
2272683.0,125.0,337.0,73.0,114.0,2272.683
2272693.0,148.0,439.0,107.0,139.0,2272.693
2272703.0,154.0,450.0,110.0,143.0,2272.703
2272713.0,152.0,462.0,98.0,143.0,2272.713
2272723.0,152.0,480.0,102.0,148.0,2272.723
2272733.0,148.0,455.0,99.0,143.0,2272.733
2272743.0,141.0,444.0,88.0,138.0,2272.743
2272753.0,151.0,487.0,111.0,147.0,2272.753
2272763.0,148.0,478.0,99.0,175.0,2272.763
2272773.0,145.0,473.0,112.0,201.0,2272.773
2272783.0,138.0,472.0,115.0,189.0,2272.783
2272793.0,136.0,490.0,123.0,198.0,2272.793
2272803.0,146.0,502.0,118.0,198.0,2272.803
2272813.0,141.0,496.0,103.0,200.0,2272.813
2272823.0,136.0,492.0,94.0,200.0,2272.823
2272833.0,124.0,487.0,82.0,197.0,2272.833
2272843.0,115.0,480.0,83.0,189.0,2272.843
2272854.0,114.0,483.0,85.0,200.0,2272.854
2272864.0,107.0,477.0,87.0,240.0,2272.864
2272874.0,105.0,477.0,102.0,291.0,2272.874
2272884.0,102.0,465.0,107.0,286.0,2272.884
2272894.0,99.0,444.0,96.0,260.0,2272.894
2272904.0,95.0,440.0,84.0,249.0,2272.904
2272914.0,92.0,429.0,78.0,241.0,2272.914
2272924.0,95.0,430.0,71.0,218.0,2272.924
2272934.0,95.0,407.0,63.0,200.0,2272.934
2272944.0,90.0,389.0,68.0,201.0,2272.944
2272954.0,88.0,379.0,63.0,187.0,2272.954
2272964.0,84.0,368.0,58.0,176.0,2272.964
2272974.0,85.0,368.0,55.0,167.0,2272.974
2272984.0,92.0,353.0,53.0,175.0,2272.984
2272994.0,93.0,336.0,48.0,168.0,2272.994
2273004.0,89.0,348.0,54.0,163.0,2273.004
2273014.0,86.0,319.0,62.0,154.0,2273.014
2273024.0,81.0,311.0,54.0,148.0,2273.024
2273034.0,77.0,302.0,49.0,141.0,2273.034
2273044.0,82.0,298.0,47.0,137.0,2273.044
2273054.0,82.0,297.0,48.0,138.0,2273.054
2273064.0,83.0,289.0,49.0,128.0,2273.064
2273074.0,78.0,282.0,48.0,125.0,2273.074
2273084.0,75.0,274.0,45.0,121.0,2273.084
2273094.0,76.0,265.0,52.0,123.0,2273.094
2273104.0,80.0,260.0,55.0,138.0,2273.104
2273114.0,78.0,249.0,50.0,133.0,2273.114
2273124.0,78.0,267.0,43.0,122.0,2273.124
2273134.0,77.0,255.0,46.0,119.0,2273.134
2273144.0,77.0,244.0,42.0,114.0,2273.144
2273154.0,74.0,242.0,39.0,110.0,2273.154
2273164.0,76.0,231.0,38.0,107.0,2273.164
2273174.0,74.0,229.0,49.0,114.0,2273.174
2273184.0,74.0,222.0,45.0,114.0,2273.184
2273195.0,73.0,219.0,43.0,113.0,2273.195
2273205.0,74.0,221.0,37.0,107.0,2273.205
2273215.0,75.0,217.0,34.0,114.0,2273.215
2273225.0,76.0,215.0,33.0,110.0,2273.225
2273235.0,76.0,211.0,36.0,117.0,2273.235
2273245.0,77.0,209.0,35.0,116.0,2273.245
2273255.0,73.0,198.0,45.0,112.0,2273.255
2273265.0,69.0,190.0,39.0,112.0,2273.265
2273275.0,65.0,181.0,34.0,107.0,2273.275
2273285.0,65.0,185.0,38.0,106.0,2273.285
2273295.0,64.0,180.0,38.0,105.0,2273.295
2273305.0,63.0,173.0,36.0,100.0,2273.305
2273315.0,64.0,171.0,35.0,101.0,2273.315
2273325.0,65.0,167.0,32.0,104.0,2273.325
2273335.0,65.0,160.0,29.0,106.0,2273.335
2273345.0,62.0,155.0,24.0,104.0,2273.345
2273355.0,60.0,153.0,23.0,104.0,2273.355
2273366.0,58.0,150.0,31.0,105.0,2273.366
2273376.0,56.0,147.0,28.0,101.0,2273.376
2273386.0,55.0,144.0,25.0,100.0,2273.386
2273396.0,54.0,145.0,26.0,98.0,2273.396
2273406.0,61.0,155.0,28.0,99.0,2273.406
2273416.0,60.0,153.0,36.0,96.0,2273.416
2273426.0,60.0,153.0,34.0,95.0,2273.426
2273436.0,62.0,153.0,32.0,100.0,2273.436
2273446.0,62.0,144.0,29.0,99.0,2273.446
2273456.0,59.0,136.0,26.0,96.0,2273.456
2273466.0,58.0,129.0,21.0,93.0,2273.466
2273476.0,55.0,127.0,21.0,94.0,2273.476
2273486.0,56.0,124.0,18.0,93.0,2273.486
2273496.0,55.0,122.0,28.0,92.0,2273.496
2273506.0,58.0,129.0,29.0,93.0,2273.506
2273516.0,59.0,135.0,25.0,98.0,2273.516
2273526.0,65.0,140.0,25.0,91.0,2273.526
2273536.0,69.0,136.0,21.0,88.0,2273.536
2273546.0,67.0,134.0,20.0,93.0,2273.546
2273556.0,67.0,131.0,21.0,97.0,2273.556
2273566.0,64.0,124.0,20.0,105.0,2273.566
2273576.0,62.0,120.0,20.0,109.0,2273.576
2273586.0,60.0,115.0,18.0,109.0,2273.586
2273596.0,62.0,124.0,28.0,100.0,2273.596
2273606.0,62.0,121.0,33.0,96.0,2273.606
2273616.0,61.0,134.0,29.0,96.0,2273.616
2273626.0,62.0,126.0,28.0,93.0,2273.626
2273636.0,62.0,126.0,26.0,95.0,2273.636
2273646.0,60.0,119.0,24.0,95.0,2273.646
2273656.0,59.0,117.0,22.0,94.0,2273.656
2273666.0,58.0,112.0,20.0,96.0,2273.666
2273676.0,62.0,119.0,19.0,92.0,2273.676
2273686.0,59.0,112.0,17.0,96.0,2273.686
2273696.0,60.0,110.0,16.0,93.0,2273.696
2273707.0,56.0,104.0,15.0,92.0,2273.707
2273717.0,58.0,107.0,16.0,91.0,2273.717
2273727.0,59.0,112.0,30.0,93.0,2273.727
2273737.0,59.0,111.0,27.0,96.0,2273.737
2273747.0,61.0,115.0,24.0,96.0,2273.747
2273757.0,61.0,112.0,21.0,91.0,2273.757
2273767.0,64.0,113.0,21.0,95.0,2273.767
2273777.0,61.0,106.0,18.0,97.0,2273.777
2273787.0,60.0,104.0,18.0,91.0,2273.787
2273797.0,59.0,103.0,18.0,94.0,2273.797
2273807.0,59.0,103.0,19.0,94.0,2273.807
2273817.0,60.0,101.0,21.0,98.0,2273.817
2273827.0,59.0,103.0,36.0,104.0,2273.827
2273837.0,60.0,101.0,35.0,106.0,2273.837
2273847.0,59.0,99.0,31.0,103.0,2273.847
2273857.0,60.0,99.0,33.0,109.0,2273.857
2273867.0,62.0,102.0,30.0,115.0,2273.867
2273878.0,59.0,99.0,27.0,113.0,2273.878
2273888.0,61.0,96.0,25.0,118.0,2273.888
2273898.0,60.0,95.0,22.0,112.0,2273.898
2273908.0,59.0,93.0,21.0,110.0,2273.908
2273918.0,60.0,97.0,18.0,109.0,2273.918
2273928.0,58.0,97.0,16.0,111.0,2273.928
2273938.0,60.0,101.0,28.0,113.0,2273.938
2273948.0,59.0,99.0,34.0,118.0,2273.948
2273958.0,60.0,100.0,33.0,115.0,2273.958
2273968.0,60.0,102.0,33.0,114.0,2273.968
2273978.0,59.0,100.0,29.0,114.0,2273.978
2273988.0,61.0,107.0,27.0,112.0,2273.988
2273998.0,59.0,101.0,25.0,117.0,2273.998
2274008.0,57.0,98.0,24.0,115.0,2274.008
2274018.0,56.0,99.0,22.0,107.0,2274.018
2274028.0,55.0,94.0,36.0,104.0,2274.028
2274038.0,55.0,97.0,38.0,100.0,2274.038
2274048.0,54.0,95.0,40.0,101.0,2274.048
2274058.0,53.0,94.0,37.0,105.0,2274.058
2274068.0,51.0,95.0,32.0,106.0,2274.068
2274078.0,53.0,102.0,28.0,107.0,2274.078
2274088.0,54.0,101.0,24.0,107.0,2274.088
2274098.0,54.0,103.0,28.0,107.0,2274.098
2274108.0,52.0,98.0,26.0,111.0,2274.108
2274118.0,52.0,98.0,25.0,116.0,2274.118
2274128.0,56.0,98.0,33.0,117.0,2274.128
2274138.0,54.0,95.0,30.0,117.0,2274.138
2274148.0,54.0,97.0,29.0,115.0,2274.148
2274158.0,55.0,97.0,28.0,113.0,2274.158
2274168.0,55.0,100.0,26.0,114.0,2274.168
2274178.0,62.0,106.0,28.0,112.0,2274.178
2274188.0,63.0,111.0,27.0,108.0,2274.188
2274198.0,62.0,112.0,25.0,107.0,2274.198
2274208.0,66.0,115.0,35.0,102.0,2274.208
2274219.0,65.0,113.0,32.0,104.0,2274.219
2274229.0,64.0,115.0,30.0,107.0,2274.229
2274239.0,61.0,109.0,27.0,111.0,2274.239
2274249.0,58.0,108.0,25.0,109.0,2274.249
2274259.0,58.0,102.0,25.0,110.0,2274.259
2274269.0,60.0,112.0,25.0,109.0,2274.269
2274279.0,61.0,107.0,23.0,112.0,2274.279
2274289.0,60.0,108.0,21.0,110.0,2274.289
2274299.0,61.0,111.0,22.0,109.0,2274.299
2274309.0,59.0,107.0,20.0,105.0,2274.309
2274319.0,59.0,117.0,41.0,105.0,2274.319
2274329.0,62.0,112.0,40.0,105.0,2274.329
2274339.0,60.0,109.0,35.0,108.0,2274.339
2274349.0,61.0,106.0,35.0,104.0,2274.349
2274359.0,61.0,103.0,33.0,104.0,2274.359
2274369.0,59.0,107.0,30.0,104.0,2274.369
2274379.0,60.0,102.0,27.0,104.0,2274.379
2274390.0,59.0,108.0,24.0,105.0,2274.39
2274400.0,63.0,109.0,25.0,102.0,2274.4
2274410.0,66.0,107.0,33.0,104.0,2274.41
2274420.0,67.0,102.0,32.0,105.0,2274.42
2274430.0,65.0,98.0,29.0,108.0,2274.43
2274440.0,65.0,99.0,26.0,105.0,2274.44
2274450.0,67.0,97.0,25.0,106.0,2274.45
2274460.0,66.0,98.0,33.0,105.0,2274.46
2274470.0,65.0,95.0,34.0,101.0,2274.47
2274480.0,66.0,92.0,30.0,99.0,2274.48
2274490.0,65.0,94.0,27.0,96.0,2274.49
2274500.0,65.0,93.0,24.0,93.0,2274.5
2274510.0,67.0,87.0,24.0,91.0,2274.51
2274520.0,69.0,89.0,27.0,88.0,2274.52
2274530.0,69.0,88.0,38.0,93.0,2274.53
2274540.0,71.0,86.0,33.0,100.0,2274.54
2274550.0,71.0,83.0,29.0,96.0,2274.55
2274560.0,74.0,78.0,26.0,97.0,2274.56
2274570.0,75.0,75.0,24.0,95.0,2274.57
2274580.0,73.0,75.0,31.0,96.0,2274.58
2274590.0,75.0,83.0,40.0,97.0,2274.59
2274600.0,77.0,82.0,44.0,107.0,2274.6
2274610.0,79.0,78.0,39.0,105.0,2274.61
2274620.0,78.0,78.0,34.0,106.0,2274.62
2274630.0,81.0,76.0,33.0,104.0,2274.63
2274640.0,80.0,73.0,34.0,101.0,2274.64
2274650.0,80.0,73.0,32.0,110.0,2274.65
2274660.0,81.0,73.0,29.0,109.0,2274.66
2274670.0,84.0,77.0,26.0,108.0,2274.67
2274680.0,87.0,74.0,23.0,114.0,2274.68
2274690.0,87.0,76.0,21.0,116.0,2274.69
2274700.0,89.0,73.0,23.0,111.0,2274.7
2274710.0,88.0,79.0,47.0,109.0,2274.71
2274720.0,90.0,80.0,44.0,118.0,2274.72
2274731.0,94.0,80.0,39.0,117.0,2274.731
2274741.0,98.0,78.0,36.0,118.0,2274.741
2274751.0,99.0,83.0,33.0,123.0,2274.751
2274761.0,104.0,79.0,28.0,118.0,2274.761
2274771.0,105.0,78.0,27.0,118.0,2274.771
2274781.0,107.0,79.0,40.0,115.0,2274.781
2274791.0,111.0,75.0,35.0,112.0,2274.791
2274801.0,112.0,69.0,32.0,112.0,2274.801
2274811.0,111.0,69.0,28.0,109.0,2274.811
2274821.0,114.0,73.0,33.0,113.0,2274.821
2274831.0,116.0,77.0,41.0,113.0,2274.831
2274841.0,118.0,76.0,39.0,119.0,2274.841
2274851.0,121.0,76.0,53.0,128.0,2274.851
2274861.0,124.0,72.0,48.0,135.0,2274.861
2274871.0,128.0,75.0,41.0,131.0,2274.871
2274881.0,130.0,73.0,38.0,127.0,2274.881
2274891.0,130.0,70.0,32.0,130.0,2274.891
2274902.0,131.0,67.0,31.0,127.0,2274.902
2274912.0,131.0,69.0,30.0,121.0,2274.912
2274922.0,134.0,73.0,36.0,130.0,2274.922
2274932.0,132.0,77.0,42.0,164.0,2274.932
2274942.0,137.0,80.0,69.0,190.0,2274.942
2274952.0,140.0,84.0,71.0,212.0,2274.952
2274962.0,148.0,89.0,68.0,221.0,2274.962
2274972.0,150.0,89.0,60.0,214.0,2274.972
2274982.0,151.0,90.0,55.0,204.0,2274.982
2274992.0,149.0,89.0,49.0,203.0,2274.992
2275002.0,150.0,92.0,59.0,222.0,2275.002
2275012.0,153.0,93.0,62.0,226.0,2275.012
2275022.0,152.0,92.0,60.0,227.0,2275.022
2275032.0,154.0,99.0,72.0,234.0,2275.032
2275042.0,152.0,95.0,78.0,255.0,2275.042
2275052.0,154.0,96.0,73.0,258.0,2275.052
2275062.0,154.0,96.0,68.0,252.0,2275.062
2275072.0,155.0,97.0,69.0,262.0,2275.072
2275082.0,157.0,95.0,73.0,269.0,2275.082
2275092.0,159.0,98.0,63.0,261.0,2275.092
2275102.0,160.0,97.0,56.0,243.0,2275.102
2275112.0,155.0,93.0,53.0,245.0,2275.112
2275122.0,154.0,92.0,58.0,252.0,2275.122
2275132.0,157.0,96.0,65.0,262.0,2275.132
2275142.0,156.0,93.0,68.0,253.0,2275.142
2275152.0,156.0,92.0,89.0,242.0,2275.152
2275162.0,155.0,94.0,93.0,265.0,2275.162
2275172.0,158.0,99.0,92.0,265.0,2275.172
2275182.0,158.0,103.0,92.0,287.0,2275.182
2275192.0,155.0,100.0,92.0,280.0,2275.192
2275202.0,158.0,108.0,109.0,301.0,2275.202
2275212.0,159.0,115.0,125.0,330.0,2275.212
2275222.0,163.0,119.0,123.0,317.0,2275.222
2275232.0,157.0,122.0,118.0,330.0,2275.232
2275243.0,161.0,127.0,125.0,328.0,2275.243
2275253.0,159.0,124.0,126.0,324.0,2275.253
2275263.0,161.0,125.0,119.0,313.0,2275.263
2275273.0,158.0,127.0,126.0,338.0,2275.273
2275283.0,159.0,127.0,111.0,317.0,2275.283
2275293.0,156.0,126.0,104.0,305.0,2275.293
2275303.0,155.0,124.0,97.0,297.0,2275.303
2275313.0,150.0,122.0,92.0,300.0,2275.313
2275323.0,148.0,127.0,90.0,323.0,2275.323
2275333.0,153.0,139.0,99.0,329.0,2275.333
2275343.0,149.0,136.0,95.0,349.0,2275.343
2275353.0,147.0,132.0,92.0,344.0,2275.353
2275363.0,147.0,131.0,88.0,323.0,2275.363
2275373.0,143.0,125.0,80.0,306.0,2275.373
2275383.0,140.0,123.0,73.0,301.0,2275.383
2275393.0,139.0,123.0,69.0,300.0,2275.393
2275403.0,138.0,126.0,64.0,289.0,2275.403
2275414.0,142.0,130.0,58.0,274.0,2275.414
2275424.0,140.0,126.0,57.0,278.0,2275.424
2275434.0,139.0,125.0,55.0,280.0,2275.434
2275444.0,138.0,121.0,49.0,270.0,2275.444
2275454.0,135.0,118.0,48.0,261.0,2275.454
2275464.0,135.0,120.0,54.0,256.0,2275.464
2275474.0,133.0,119.0,59.0,250.0,2275.474
2275484.0,136.0,120.0,57.0,247.0,2275.484
2275494.0,135.0,122.0,60.0,230.0,2275.494
2275504.0,131.0,118.0,55.0,225.0,2275.504
2275514.0,134.0,113.0,55.0,222.0,2275.514
2275524.0,131.0,115.0,52.0,232.0,2275.524
2275534.0,130.0,112.0,46.0,225.0,2275.534
2275544.0,130.0,111.0,43.0,228.0,2275.544
2275554.0,130.0,113.0,41.0,226.0,2275.554
2275564.0,129.0,112.0,40.0,228.0,2275.564
2275574.0,124.0,108.0,60.0,209.0,2275.574
2275584.0,122.0,108.0,63.0,209.0,2275.584
2275594.0,125.0,114.0,57.0,209.0,2275.594
2275604.0,122.0,113.0,51.0,213.0,2275.604
2275614.0,122.0,119.0,50.0,208.0,2275.614
2275624.0,120.0,119.0,44.0,215.0,2275.624
2275634.0,119.0,117.0,41.0,210.0,2275.634
2275644.0,117.0,115.0,39.0,211.0,2275.644
2275654.0,117.0,112.0,43.0,216.0,2275.654
2275664.0,116.0,109.0,42.0,208.0,2275.664
2275674.0,116.0,111.0,44.0,200.0,2275.674
2275684.0,114.0,109.0,43.0,197.0,2275.684
2275694.0,113.0,111.0,41.0,200.0,2275.694
2275704.0,111.0,113.0,56.0,199.0,2275.704
2275714.0,111.0,111.0,54.0,200.0,2275.714
2275724.0,110.0,115.0,51.0,197.0,2275.724
2275734.0,112.0,113.0,46.0,192.0,2275.734
2275744.0,110.0,109.0,44.0,199.0,2275.744
2275755.0,111.0,105.0,42.0,200.0,2275.755
2275765.0,109.0,100.0,38.0,205.0,2275.765
2275775.0,106.0,97.0,33.0,199.0,2275.775
2275785.0,104.0,93.0,29.0,195.0,2275.785
2275795.0,103.0,101.0,50.0,197.0,2275.795
2275805.0,105.0,104.0,48.0,198.0,2275.805
2275815.0,103.0,100.0,42.0,203.0,2275.815
2275825.0,98.0,97.0,44.0,209.0,2275.825
2275835.0,101.0,95.0,42.0,204.0,2275.835
2275845.0,99.0,96.0,41.0,215.0,2275.845
2275855.0,100.0,94.0,38.0,217.0,2275.855
2275865.0,99.0,88.0,33.0,216.0,2275.865
2275875.0,99.0,82.0,31.0,219.0,2275.875
2275885.0,96.0,79.0,30.0,218.0,2275.885
2275895.0,96.0,80.0,30.0,221.0,2275.895
2275905.0,94.0,76.0,28.0,215.0,2275.905
2275915.0,92.0,84.0,47.0,214.0,2275.915
2275926.0,91.0,84.0,46.0,218.0,2275.926
2275936.0,90.0,84.0,49.0,230.0,2275.936
2275946.0,91.0,82.0,44.0,224.0,2275.946
2275956.0,90.0,79.0,38.0,231.0,2275.956
2275966.0,86.0,81.0,34.0,226.0,2275.966
2275976.0,88.0,79.0,31.0,229.0,2275.976
2275986.0,87.0,86.0,27.0,224.0,2275.986
2275996.0,85.0,81.0,27.0,220.0,2275.996
2276006.0,83.0,78.0,24.0,217.0,2276.006
2276016.0,81.0,76.0,24.0,211.0,2276.016
2276026.0,79.0,77.0,23.0,210.0,2276.026
2276036.0,76.0,73.0,20.0,211.0,2276.036
2276046.0,76.0,77.0,31.0,204.0,2276.046
2276056.0,75.0,78.0,34.0,206.0,2276.056
2276066.0,75.0,81.0,31.0,200.0,2276.066
2276076.0,76.0,78.0,33.0,202.0,2276.076
2276086.0,73.0,76.0,30.0,193.0,2276.086
2276096.0,74.0,75.0,28.0,198.0,2276.096
2276106.0,73.0,73.0,24.0,196.0,2276.106
2276116.0,71.0,73.0,22.0,187.0,2276.116
2276126.0,70.0,73.0,21.0,195.0,2276.126
2276136.0,67.0,73.0,21.0,190.0,2276.136
2276146.0,66.0,70.0,38.0,184.0,2276.146
2276156.0,66.0,72.0,54.0,177.0,2276.156
2276166.0,79.0,76.0,60.0,169.0,2276.166
2276176.0,88.0,77.0,76.0,167.0,2276.176
2276186.0,92.0,79.0,71.0,183.0,2276.186
2276196.0,96.0,84.0,84.0,200.0,2276.196
2276206.0,105.0,91.0,83.0,234.0,2276.206
2276216.0,106.0,94.0,113.0,232.0,2276.216
2276226.0,102.0,92.0,119.0,249.0,2276.226
2276236.0,109.0,91.0,127.0,271.0,2276.236
2276246.0,104.0,103.0,121.0,317.0,2276.246
2276256.0,97.0,117.0,121.0,334.0,2276.256
2276267.0,95.0,128.0,108.0,327.0,2276.267
2276277.0,88.0,150.0,98.0,357.0,2276.277
2276287.0,87.0,175.0,94.0,348.0,2276.287
2276297.0,88.0,203.0,113.0,370.0,2276.297
2276307.0,85.0,224.0,117.0,374.0,2276.307
2276317.0,86.0,244.0,109.0,359.0,2276.317
2276327.0,85.0,266.0,114.0,372.0,2276.327
2276337.0,87.0,282.0,115.0,359.0,2276.337
2276347.0,86.0,299.0,114.0,354.0,2276.347
2276357.0,87.0,312.0,122.0,372.0,2276.357
2276367.0,91.0,325.0,123.0,400.0,2276.367
2276377.0,92.0,341.0,120.0,382.0,2276.377
2276387.0,94.0,348.0,119.0,378.0,2276.387
2276397.0,93.0,355.0,110.0,371.0,2276.397
2276407.0,91.0,359.0,104.0,353.0,2276.407
2276417.0,90.0,365.0,102.0,344.0,2276.417
2276427.0,91.0,366.0,96.0,323.0,2276.427
2276438.0,94.0,371.0,100.0,328.0,2276.438
2276448.0,93.0,374.0,108.0,320.0,2276.448
2276458.0,94.0,376.0,101.0,306.0,2276.458
2276468.0,94.0,376.0,93.0,298.0,2276.468
2276478.0,92.0,373.0,94.0,293.0,2276.478
2276488.0,91.0,371.0,86.0,294.0,2276.488
2276498.0,89.0,366.0,101.0,283.0,2276.498
2276508.0,87.0,362.0,98.0,276.0,2276.508
2276518.0,85.0,355.0,97.0,257.0,2276.518
2276528.0,87.0,350.0,96.0,273.0,2276.528
2276538.0,89.0,344.0,97.0,276.0,2276.538
2276548.0,88.0,336.0,101.0,272.0,2276.548
2276558.0,88.0,329.0,97.0,258.0,2276.558
2276568.0,88.0,323.0,95.0,258.0,2276.568
2276578.0,90.0,317.0,94.0,265.0,2276.578
2276588.0,89.0,309.0,95.0,268.0,2276.588
2276598.0,89.0,303.0,86.0,258.0,2276.598
2276608.0,89.0,295.0,80.0,249.0,2276.608
2276618.0,90.0,288.0,78.0,241.0,2276.618
2276628.0,91.0,278.0,87.0,231.0,2276.628
2276638.0,92.0,271.0,78.0,227.0,2276.638
2276648.0,95.0,267.0,74.0,206.0,2276.648
2276658.0,96.0,261.0,76.0,211.0,2276.658
2276668.0,96.0,255.0,69.0,208.0,2276.668
2276678.0,97.0,252.0,63.0,208.0,2276.678
2276688.0,94.0,244.0,66.0,193.0,2276.688
2276698.0,95.0,237.0,66.0,179.0,2276.698
2276708.0,96.0,234.0,86.0,185.0,2276.708
2276718.0,96.0,230.0,80.0,194.0,2276.718
2276728.0,98.0,225.0,72.0,195.0,2276.728
2276738.0,98.0,222.0,66.0,192.0,2276.738
2276748.0,99.0,215.0,60.0,179.0,2276.748
2276758.0,96.0,208.0,66.0,175.0,2276.758
2276768.0,96.0,205.0,68.0,169.0,2276.768
2276779.0,98.0,202.0,71.0,186.0,2276.779
2276789.0,97.0,198.0,64.0,194.0,2276.789
2276799.0,96.0,195.0,59.0,195.0,2276.799
2276809.0,96.0,191.0,53.0,186.0,2276.809
2276819.0,93.0,186.0,58.0,170.0,2276.819
2276829.0,96.0,184.0,53.0,168.0,2276.829
2276839.0,93.0,177.0,53.0,173.0,2276.839
2276849.0,94.0,172.0,62.0,179.0,2276.849
2276859.0,94.0,168.0,62.0,179.0,2276.859
2276869.0,94.0,164.0,59.0,169.0,2276.869
2276879.0,94.0,161.0,55.0,164.0,2276.879
2276889.0,93.0,159.0,49.0,162.0,2276.889
2276899.0,92.0,155.0,43.0,158.0,2276.899
2276909.0,89.0,152.0,44.0,150.0,2276.909
2276919.0,88.0,150.0,57.0,153.0,2276.919
2276929.0,87.0,147.0,54.0,155.0,2276.929
2276939.0,86.0,145.0,50.0,150.0,2276.939
2276950.0,85.0,143.0,47.0,143.0,2276.95
2276960.0,83.0,141.0,47.0,138.0,2276.96
2276970.0,84.0,138.0,44.0,144.0,2276.97
2276980.0,82.0,136.0,60.0,147.0,2276.98
2276990.0,84.0,135.0,53.0,152.0,2276.99
2277000.0,84.0,133.0,46.0,147.0,2277.0
2277010.0,83.0,131.0,42.0,134.0,2277.01
2277020.0,81.0,127.0,39.0,123.0,2277.02
2277030.0,80.0,126.0,36.0,124.0,2277.03
2277040.0,79.0,123.0,34.0,123.0,2277.04
2277050.0,78.0,119.0,29.0,123.0,2277.05
2277060.0,79.0,121.0,38.0,173.0,2277.06
2277070.0,80.0,121.0,35.0,173.0,2277.07
2277080.0,79.0,119.0,30.0,170.0,2277.08
2277090.0,78.0,116.0,27.0,156.0,2277.09
2277100.0,76.0,111.0,39.0,153.0,2277.1
2277110.0,77.0,111.0,36.0,154.0,2277.11
2277120.0,78.0,108.0,32.0,151.0,2277.12
2277130.0,76.0,107.0,28.0,142.0,2277.13
2277140.0,73.0,104.0,39.0,133.0,2277.14
2277150.0,72.0,102.0,38.0,133.0,2277.15
2277160.0,74.0,102.0,36.0,132.0,2277.16
2277170.0,73.0,98.0,32.0,127.0,2277.17
2277180.0,72.0,96.0,29.0,122.0,2277.18
2277190.0,72.0,93.0,29.0,114.0,2277.19
2277200.0,68.0,87.0,30.0,124.0,2277.2
2277210.0,69.0,88.0,41.0,121.0,2277.21
2277220.0,67.0,88.0,36.0,121.0,2277.22
2277230.0,66.0,86.0,34.0,116.0,2277.23
2277240.0,65.0,82.0,32.0,109.0,2277.24
2277250.0,65.0,82.0,32.0,106.0,2277.25
2277260.0,65.0,80.0,29.0,101.0,2277.26
2277270.0,62.0,77.0,26.0,93.0,2277.27
2277280.0,63.0,77.0,25.0,90.0,2277.28
2277291.0,63.0,73.0,38.0,94.0,2277.291
2277301.0,63.0,74.0,36.0,91.0,2277.301
2277311.0,63.0,71.0,32.0,96.0,2277.311
2277321.0,63.0,73.0,29.0,90.0,2277.321
2277331.0,64.0,73.0,28.0,88.0,2277.331
2277341.0,64.0,73.0,24.0,94.0,2277.341
2277351.0,63.0,71.0,23.0,93.0,2277.351
2277361.0,62.0,69.0,22.0,92.0,2277.361
2277371.0,62.0,69.0,18.0,93.0,2277.371
2277381.0,65.0,70.0,19.0,90.0,2277.381
2277391.0,66.0,70.0,17.0,97.0,2277.391
2277401.0,64.0,70.0,15.0,100.0,2277.401
2277411.0,67.0,72.0,14.0,112.0,2277.411
2277421.0,66.0,73.0,12.0,112.0,2277.421
2277431.0,65.0,75.0,40.0,119.0,2277.431
2277441.0,66.0,78.0,39.0,123.0,2277.441
2277451.0,67.0,78.0,33.0,126.0,2277.451
2277462.0,68.0,79.0,31.0,118.0,2277.462
2277472.0,67.0,78.0,30.0,114.0,2277.472
2277482.0,68.0,78.0,39.0,114.0,2277.482
2277492.0,68.0,78.0,39.0,107.0,2277.492
2277502.0,67.0,78.0,36.0,103.0,2277.502
2277512.0,69.0,81.0,32.0,104.0,2277.512
2277522.0,67.0,79.0,30.0,102.0,2277.522
2277532.0,68.0,80.0,28.0,96.0,2277.532
2277542.0,66.0,78.0,31.0,94.0,2277.542
2277552.0,66.0,76.0,47.0,93.0,2277.552
2277562.0,66.0,78.0,40.0,91.0,2277.562
2277572.0,65.0,76.0,39.0,87.0,2277.572
2277582.0,66.0,77.0,36.0,101.0,2277.582
2277592.0,65.0,78.0,32.0,99.0,2277.592
2277602.0,65.0,77.0,29.0,99.0,2277.602
2277612.0,64.0,78.0,26.0,94.0,2277.612
2277622.0,65.0,78.0,23.0,91.0,2277.622
2277632.0,65.0,78.0,39.0,96.0,2277.632
2277642.0,64.0,80.0,36.0,103.0,2277.642
2277652.0,65.0,81.0,31.0,101.0,2277.652
2277662.0,64.0,82.0,27.0,97.0,2277.662
2277672.0,63.0,83.0,26.0,92.0,2277.672
2277682.0,64.0,84.0,25.0,101.0,2277.682
2277692.0,64.0,84.0,34.0,113.0,2277.692
2277702.0,65.0,87.0,30.0,114.0,2277.702
2277712.0,62.0,86.0,34.0,110.0,2277.712
2277722.0,63.0,88.0,33.0,109.0,2277.722
2277732.0,64.0,89.0,33.0,109.0,2277.732
2277742.0,65.0,89.0,31.0,106.0,2277.742
2277752.0,65.0,91.0,28.0,107.0,2277.752
2277762.0,65.0,91.0,25.0,103.0,2277.762
2277772.0,67.0,91.0,24.0,102.0,2277.772
2277782.0,64.0,89.0,36.0,100.0,2277.782
2277792.0,66.0,91.0,35.0,100.0,2277.792
2277803.0,67.0,92.0,31.0,96.0,2277.803
2277813.0,65.0,91.0,28.0,89.0,2277.813
2277823.0,67.0,90.0,30.0,109.0,2277.823
2277833.0,68.0,92.0,27.0,108.0,2277.833
2277843.0,69.0,90.0,28.0,102.0,2277.843
2277853.0,67.0,89.0,35.0,99.0,2277.853
2277863.0,67.0,90.0,35.0,94.0,2277.863
2277873.0,66.0,89.0,34.0,89.0,2277.873
2277883.0,64.0,87.0,34.0,86.0,2277.883
2277893.0,63.0,87.0,32.0,85.0,2277.893
2277903.0,63.0,88.0,31.0,88.0,2277.903
2277913.0,64.0,88.0,27.0,83.0,2277.913
2277923.0,64.0,87.0,40.0,89.0,2277.923
2277933.0,64.0,88.0,43.0,89.0,2277.933
2277943.0,68.0,91.0,42.0,89.0,2277.943
2277953.0,67.0,90.0,38.0,85.0,2277.953
2277963.0,66.0,89.0,34.0,83.0,2277.963
2277974.0,66.0,92.0,32.0,82.0,2277.974
2277984.0,65.0,92.0,29.0,80.0,2277.984
2277994.0,65.0,91.0,34.0,80.0,2277.994
2278004.0,64.0,94.0,34.0,74.0,2278.004
2278014.0,63.0,94.0,30.0,81.0,2278.014
2278024.0,62.0,95.0,26.0,78.0,2278.024
2278034.0,61.0,92.0,25.0,78.0,2278.034
2278044.0,61.0,92.0,22.0,85.0,2278.044
2278054.0,61.0,92.0,23.0,82.0,2278.054
2278064.0,61.0,90.0,20.0,87.0,2278.064
2278074.0,60.0,89.0,35.0,84.0,2278.074
2278084.0,60.0,87.0,32.0,85.0,2278.084
2278094.0,62.0,89.0,27.0,93.0,2278.094
2278104.0,59.0,86.0,29.0,87.0,2278.104
2278114.0,61.0,85.0,28.0,82.0,2278.114
2278124.0,61.0,84.0,28.0,76.0,2278.124
2278134.0,61.0,82.0,24.0,71.0,2278.134
2278144.0,61.0,80.0,32.0,68.0,2278.144
2278154.0,62.0,81.0,30.0,67.0,2278.154
2278164.0,61.0,79.0,26.0,64.0,2278.164
2278174.0,61.0,81.0,24.0,66.0,2278.174
2278184.0,61.0,79.0,25.0,65.0,2278.184
2278194.0,62.0,81.0,23.0,75.0,2278.194
2278204.0,63.0,80.0,21.0,72.0,2278.204
2278214.0,63.0,81.0,35.0,74.0,2278.214
2278224.0,62.0,81.0,46.0,85.0,2278.224
2278234.0,63.0,79.0,43.0,81.0,2278.234
2278244.0,64.0,80.0,38.0,85.0,2278.244
2278254.0,63.0,80.0,34.0,87.0,2278.254
2278264.0,64.0,81.0,31.0,83.0,2278.264
2278274.0,64.0,82.0,27.0,78.0,2278.274
2278284.0,65.0,80.0,27.0,77.0,2278.284
2278294.0,68.0,80.0,38.0,79.0,2278.294
2278304.0,66.0,76.0,36.0,89.0,2278.304
2278315.0,68.0,77.0,33.0,87.0,2278.315
2278325.0,68.0,76.0,33.0,95.0,2278.325
2278335.0,67.0,76.0,30.0,94.0,2278.335
2278345.0,68.0,74.0,26.0,91.0,2278.345
2278355.0,69.0,74.0,24.0,88.0,2278.355
2278365.0,69.0,71.0,31.0,86.0,2278.365
2278375.0,70.0,72.0,31.0,96.0,2278.375
2278385.0,70.0,71.0,28.0,92.0,2278.385
2278395.0,71.0,70.0,28.0,98.0,2278.395
2278405.0,71.0,69.0,27.0,97.0,2278.405
2278415.0,71.0,67.0,25.0,101.0,2278.415
2278425.0,71.0,67.0,23.0,99.0,2278.425
2278435.0,69.0,66.0,22.0,106.0,2278.435
2278445.0,69.0,68.0,34.0,101.0,2278.445
2278455.0,69.0,68.0,32.0,99.0,2278.455
2278465.0,67.0,69.0,29.0,98.0,2278.465
2278475.0,68.0,68.0,27.0,100.0,2278.475
2278486.0,67.0,66.0,24.0,93.0,2278.486
2278496.0,67.0,65.0,23.0,89.0,2278.496
2278506.0,65.0,64.0,19.0,89.0,2278.506
2278516.0,63.0,61.0,18.0,95.0,2278.516
2278526.0,63.0,61.0,33.0,93.0,2278.526
2278536.0,62.0,61.0,30.0,91.0,2278.536
2278546.0,63.0,59.0,29.0,104.0,2278.546
2278556.0,64.0,59.0,26.0,98.0,2278.556
2278566.0,64.0,58.0,24.0,92.0,2278.566
2278576.0,64.0,58.0,21.0,88.0,2278.576
2278586.0,63.0,58.0,20.0,92.0,2278.586
2278596.0,63.0,56.0,27.0,96.0,2278.596
2278606.0,65.0,60.0,38.0,91.0,2278.606
2278616.0,64.0,60.0,35.0,88.0,2278.616
2278626.0,63.0,60.0,35.0,92.0,2278.626
2278636.0,62.0,58.0,33.0,83.0,2278.636
2278646.0,63.0,60.0,30.0,77.0,2278.646
2278656.0,61.0,60.0,26.0,78.0,2278.656
2278666.0,62.0,60.0,30.0,79.0,2278.666
2278676.0,62.0,61.0,28.0,76.0,2278.676
2278686.0,64.0,62.0,26.0,76.0,2278.686
2278696.0,64.0,61.0,25.0,73.0,2278.696
2278706.0,65.0,62.0,23.0,68.0,2278.706
2278716.0,65.0,60.0,22.0,70.0,2278.716
2278726.0,63.0,60.0,19.0,71.0,2278.726
2278736.0,63.0,60.0,18.0,86.0,2278.736
2278746.0,60.0,57.0,24.0,88.0,2278.746
2278756.0,61.0,60.0,30.0,83.0,2278.756
2278766.0,61.0,59.0,30.0,81.0,2278.766
2278776.0,61.0,60.0,26.0,90.0,2278.776
2278786.0,61.0,59.0,29.0,88.0,2278.786
2278796.0,60.0,59.0,27.0,90.0,2278.796
2278806.0,58.0,58.0,23.0,86.0,2278.806
2278816.0,57.0,56.0,21.0,82.0,2278.816
2278827.0,58.0,57.0,41.0,90.0,2278.827
2278837.0,57.0,58.0,37.0,84.0,2278.837
2278847.0,57.0,56.0,37.0,78.0,2278.847
2278857.0,58.0,55.0,34.0,76.0,2278.857
2278867.0,59.0,57.0,31.0,84.0,2278.867
2278877.0,58.0,56.0,30.0,80.0,2278.877
2278887.0,60.0,56.0,30.0,75.0,2278.887
2278897.0,59.0,57.0,41.0,76.0,2278.897
2278907.0,60.0,56.0,38.0,90.0,2278.907
2278917.0,59.0,57.0,34.0,90.0,2278.917
2278927.0,59.0,58.0,31.0,96.0,2278.927
2278937.0,59.0,56.0,29.0,90.0,2278.937
2278947.0,57.0,54.0,33.0,97.0,2278.947
2278957.0,60.0,57.0,32.0,103.0,2278.957
2278967.0,58.0,56.0,28.0,95.0,2278.967
2278977.0,59.0,57.0,37.0,87.0,2278.977
2278987.0,58.0,56.0,35.0,94.0,2278.987
2278998.0,58.0,57.0,32.0,93.0,2278.998
2279008.0,58.0,54.0,30.0,89.0,2279.008
2279018.0,58.0,54.0,28.0,94.0,2279.018
2279028.0,61.0,54.0,26.0,94.0,2279.028
2279038.0,60.0,54.0,22.0,91.0,2279.038
2279048.0,63.0,55.0,23.0,91.0,2279.048
2279058.0,63.0,55.0,22.0,90.0,2279.058
2279068.0,63.0,55.0,31.0,88.0,2279.068
2279078.0,63.0,55.0,35.0,84.0,2279.078
2279088.0,63.0,55.0,31.0,90.0,2279.088
2279098.0,63.0,55.0,27.0,85.0,2279.098
2279108.0,65.0,53.0,26.0,80.0,2279.108
2279118.0,64.0,53.0,27.0,104.0,2279.118
2279128.0,63.0,50.0,27.0,102.0,2279.128
2279138.0,63.0,49.0,24.0,100.0,2279.138
2279148.0,63.0,49.0,37.0,97.0,2279.148
2279158.0,63.0,48.0,33.0,90.0,2279.158
2279168.0,61.0,47.0,29.0,88.0,2279.168
2279178.0,60.0,45.0,26.0,84.0,2279.178
2279188.0,58.0,45.0,26.0,83.0,2279.188
2279198.0,56.0,44.0,23.0,82.0,2279.198
2279208.0,56.0,44.0,21.0,78.0,2279.208
2279218.0,55.0,45.0,35.0,80.0,2279.218
2279228.0,56.0,45.0,34.0,81.0,2279.228
2279238.0,54.0,45.0,30.0,85.0,2279.238
2279248.0,54.0,45.0,28.0,93.0,2279.248
2279258.0,53.0,45.0,25.0,87.0,2279.258
2279268.0,51.0,42.0,25.0,79.0,2279.268
2279278.0,53.0,42.0,23.0,75.0,2279.278
2279288.0,53.0,45.0,31.0,78.0,2279.288
2279298.0,54.0,45.0,31.0,78.0,2279.298
2279308.0,53.0,47.0,26.0,96.0,2279.308
2279318.0,51.0,46.0,25.0,89.0,2279.318
2279328.0,51.0,46.0,22.0,83.0,2279.328
2279339.0,52.0,45.0,20.0,80.0,2279.339
2279349.0,51.0,44.0,25.0,78.0,2279.349
2279359.0,51.0,46.0,24.0,83.0,2279.359
2279369.0,52.0,45.0,33.0,86.0,2279.369
2279379.0,54.0,46.0,30.0,82.0,2279.379
2279389.0,53.0,46.0,27.0,80.0,2279.389
2279399.0,54.0,47.0,25.0,78.0,2279.399
2279409.0,55.0,48.0,22.0,85.0,2279.409
2279419.0,54.0,48.0,21.0,80.0,2279.419
2279429.0,53.0,48.0,23.0,77.0,2279.429
2279439.0,55.0,50.0,26.0,78.0,2279.439
2279449.0,57.0,53.0,36.0,88.0,2279.449
2279459.0,56.0,53.0,32.0,86.0,2279.459
2279469.0,56.0,54.0,30.0,80.0,2279.469
2279479.0,56.0,57.0,25.0,81.0,2279.479
2279489.0,54.0,53.0,27.0,77.0,2279.489
2279499.0,55.0,55.0,23.0,77.0,2279.499
2279510.0,53.0,54.0,21.0,74.0,2279.51
2279520.0,54.0,54.0,33.0,74.0,2279.52
2279530.0,55.0,57.0,29.0,72.0,2279.53
2279540.0,55.0,55.0,26.0,77.0,2279.54
2279550.0,54.0,54.0,23.0,81.0,2279.55
2279560.0,55.0,54.0,22.0,80.0,2279.56
2279570.0,54.0,52.0,19.0,80.0,2279.57
2279580.0,55.0,51.0,21.0,76.0,2279.58
2279590.0,56.0,51.0,34.0,77.0,2279.59
2279600.0,54.0,52.0,30.0,73.0,2279.6
2279610.0,57.0,51.0,27.0,69.0,2279.61
2279620.0,55.0,51.0,23.0,78.0,2279.62
2279630.0,58.0,52.0,20.0,70.0,2279.63
2279640.0,56.0,50.0,19.0,73.0,2279.64
2279650.0,56.0,49.0,18.0,80.0,2279.65
2279660.0,56.0,48.0,16.0,78.0,2279.66
2279670.0,54.0,48.0,14.0,76.0,2279.67
2279680.0,54.0,48.0,31.0,82.0,2279.68
2279690.0,57.0,49.0,32.0,79.0,2279.69
2279700.0,56.0,48.0,27.0,76.0,2279.7
2279710.0,56.0,48.0,26.0,73.0,2279.71
2279720.0,56.0,48.0,22.0,70.0,2279.72
2279730.0,55.0,48.0,21.0,72.0,2279.73
2279740.0,56.0,49.0,24.0,75.0,2279.74
2279750.0,57.0,51.0,37.0,72.0,2279.75
2279760.0,56.0,49.0,35.0,73.0,2279.76
2279770.0,54.0,50.0,35.0,77.0,2279.77
2279780.0,55.0,48.0,34.0,72.0,2279.78
2279790.0,55.0,47.0,31.0,74.0,2279.79
2279800.0,53.0,45.0,27.0,72.0,2279.8
2279810.0,53.0,44.0,25.0,71.0,2279.81
2279820.0,50.0,44.0,22.0,68.0,2279.82
2279830.0,52.0,43.0,34.0,78.0,2279.83
2279840.0,50.0,44.0,33.0,80.0,2279.84
2279851.0,49.0,43.0,31.0,76.0,2279.851
2279861.0,49.0,44.0,28.0,72.0,2279.861
2279871.0,47.0,43.0,24.0,68.0,2279.871
2279881.0,48.0,41.0,22.0,67.0,2279.881
2279891.0,47.0,44.0,31.0,70.0,2279.891
2279901.0,49.0,43.0,29.0,67.0,2279.901
2279911.0,48.0,44.0,30.0,74.0,2279.911
2279921.0,48.0,44.0,30.0,70.0,2279.921
2279931.0,48.0,43.0,26.0,65.0,2279.931
2279941.0,49.0,43.0,25.0,65.0,2279.941
2279951.0,49.0,42.0,22.0,71.0,2279.951
2279961.0,50.0,43.0,33.0,72.0,2279.961
2279971.0,51.0,42.0,34.0,71.0,2279.971
2279981.0,53.0,42.0,30.0,68.0,2279.981
2279991.0,53.0,43.0,27.0,69.0,2279.991
2280001.0,54.0,43.0,27.0,68.0,2280.001
2280011.0,54.0,43.0,26.0,66.0,2280.011
2280022.0,54.0,42.0,24.0,71.0,2280.022
2280032.0,54.0,42.0,28.0,76.0,2280.032
2280042.0,54.0,44.0,39.0,73.0,2280.042
2280052.0,53.0,43.0,36.0,70.0,2280.052
2280062.0,55.0,46.0,31.0,70.0,2280.062
2280072.0,55.0,45.0,29.0,66.0,2280.072
2280082.0,55.0,45.0,28.0,66.0,2280.082
2280092.0,55.0,46.0,28.0,64.0,2280.092
2280102.0,53.0,45.0,31.0,74.0,2280.102
2280112.0,52.0,47.0,46.0,78.0,2280.112
2280122.0,53.0,48.0,41.0,76.0,2280.122
2280132.0,51.0,48.0,36.0,72.0,2280.132
2280142.0,51.0,47.0,32.0,66.0,2280.142
2280152.0,50.0,48.0,29.0,66.0,2280.152
2280162.0,49.0,47.0,36.0,68.0,2280.162
2280172.0,51.0,47.0,49.0,71.0,2280.172
2280182.0,48.0,46.0,44.0,72.0,2280.182
2280192.0,49.0,45.0,41.0,68.0,2280.192
2280202.0,49.0,46.0,38.0,67.0,2280.202
2280212.0,48.0,45.0,35.0,67.0,2280.212
2280222.0,48.0,44.0,33.0,64.0,2280.222
2280232.0,47.0,44.0,30.0,68.0,2280.232
2280242.0,47.0,43.0,30.0,65.0,2280.242
2280252.0,47.0,46.0,51.0,63.0,2280.252
2280262.0,47.0,46.0,47.0,61.0,2280.262
2280272.0,47.0,46.0,42.0,61.0,2280.272
2280282.0,47.0,46.0,38.0,59.0,2280.282
2280292.0,47.0,44.0,42.0,60.0,2280.292
2280302.0,47.0,46.0,40.0,72.0,2280.302
2280312.0,47.0,45.0,38.0,70.0,2280.312
2280322.0,48.0,47.0,38.0,68.0,2280.322
2280332.0,48.0,47.0,34.0,65.0,2280.332
2280342.0,47.0,45.0,31.0,64.0,2280.342
2280352.0,48.0,47.0,27.0,67.0,2280.352
2280363.0,48.0,45.0,31.0,65.0,2280.363
2280373.0,52.0,48.0,31.0,64.0,2280.373
2280383.0,52.0,50.0,34.0,61.0,2280.383
2280393.0,55.0,53.0,29.0,59.0,2280.393
2280403.0,54.0,51.0,26.0,58.0,2280.403
2280413.0,54.0,51.0,24.0,56.0,2280.413
2280423.0,54.0,50.0,22.0,58.0,2280.423
2280433.0,54.0,48.0,20.0,57.0,2280.433
2280443.0,55.0,49.0,19.0,59.0,2280.443
2280453.0,54.0,48.0,19.0,60.0,2280.453
2280463.0,54.0,50.0,31.0,58.0,2280.463
2280473.0,54.0,51.0,28.0,56.0,2280.473
2280483.0,53.0,49.0,28.0,58.0,2280.483
2280493.0,53.0,50.0,24.0,58.0,2280.493
2280503.0,52.0,49.0,22.0,55.0,2280.503
2280513.0,52.0,49.0,23.0,54.0,2280.513
2280523.0,51.0,51.0,21.0,52.0,2280.523
2280534.0,52.0,51.0,19.0,51.0,2280.534
2280544.0,51.0,52.0,39.0,55.0,2280.544
2280554.0,51.0,52.0,34.0,53.0,2280.554
2280564.0,52.0,52.0,31.0,52.0,2280.564
2280574.0,52.0,52.0,29.0,51.0,2280.574
2280584.0,53.0,50.0,26.0,49.0,2280.584
2280594.0,53.0,52.0,29.0,50.0,2280.594
2280604.0,55.0,51.0,34.0,52.0,2280.604
2280614.0,53.0,50.0,31.0,52.0,2280.614
2280624.0,53.0,48.0,28.0,51.0,2280.624
2280634.0,52.0,47.0,24.0,51.0,2280.634
2280644.0,52.0,46.0,21.0,54.0,2280.644
2280654.0,52.0,44.0,19.0,55.0,2280.654
2280664.0,53.0,44.0,23.0,57.0,2280.664
2280674.0,54.0,46.0,38.0,59.0,2280.674
2280684.0,54.0,44.0,33.0,57.0,2280.684
2280694.0,53.0,43.0,28.0,55.0,2280.694
2280704.0,54.0,44.0,34.0,57.0,2280.704
2280714.0,53.0,43.0,30.0,57.0,2280.714
2280724.0,53.0,42.0,29.0,56.0,2280.724
2280734.0,52.0,42.0,25.0,56.0,2280.734
2280744.0,51.0,40.0,25.0,55.0,2280.744
2280754.0,52.0,42.0,40.0,55.0,2280.754
2280764.0,50.0,41.0,38.0,54.0,2280.764
2280774.0,50.0,40.0,34.0,56.0,2280.774
2280784.0,49.0,40.0,30.0,55.0,2280.784
2280794.0,51.0,41.0,28.0,53.0,2280.794
2280804.0,50.0,39.0,25.0,51.0,2280.804
2280814.0,51.0,40.0,24.0,48.0,2280.814
2280824.0,51.0,40.0,22.0,50.0,2280.824
2280834.0,50.0,40.0,20.0,48.0,2280.834
2280844.0,50.0,41.0,34.0,57.0,2280.844
2280854.0,50.0,42.0,34.0,59.0,2280.854
2280864.0,50.0,41.0,30.0,55.0,2280.864
2280875.0,51.0,40.0,28.0,55.0,2280.875
2280885.0,51.0,39.0,25.0,53.0,2280.885
2280895.0,51.0,39.0,32.0,54.0,2280.895
2280905.0,52.0,39.0,30.0,55.0,2280.905
2280915.0,52.0,39.0,30.0,57.0,2280.915
2280925.0,53.0,42.0,41.0,56.0,2280.925
2280935.0,54.0,43.0,38.0,62.0,2280.935
2280945.0,53.0,41.0,33.0,61.0,2280.945
2280955.0,53.0,41.0,29.0,57.0,2280.955
2280965.0,53.0,40.0,28.0,54.0,2280.965
2280975.0,52.0,40.0,28.0,60.0,2280.975
2280985.0,52.0,41.0,24.0,58.0,2280.985
2280995.0,53.0,41.0,23.0,59.0,2280.995
2281005.0,54.0,42.0,23.0,59.0,2281.005
2281015.0,52.0,42.0,31.0,56.0,2281.015
