time (ms),signal 0,signal 1,signal 2,signal3,time (sec)
2297931.0,60.0,39.0,32.0,54.0,2297.931
2297942.0,58.0,40.0,38.0,54.0,2297.942
2297952.0,59.0,39.0,35.0,54.0,2297.952
2297962.0,58.0,39.0,30.0,57.0,2297.962
2297972.0,58.0,39.0,26.0,59.0,2297.972
2297982.0,59.0,38.0,24.0,55.0,2297.982
2297992.0,57.0,38.0,21.0,57.0,2297.992
2298002.0,58.0,38.0,22.0,58.0,2298.002
2298012.0,59.0,38.0,20.0,57.0,2298.012
2298022.0,59.0,38.0,22.0,57.0,2298.022
2298032.0,60.0,40.0,28.0,61.0,2298.032
2298042.0,59.0,42.0,35.0,61.0,2298.042
2298052.0,58.0,39.0,31.0,61.0,2298.052
2298062.0,58.0,40.0,27.0,61.0,2298.062
2298072.0,58.0,39.0,24.0,60.0,2298.072
2298082.0,59.0,38.0,24.0,61.0,2298.082
2298092.0,60.0,38.0,27.0,60.0,2298.092
2298102.0,60.0,37.0,25.0,60.0,2298.102
2298112.0,59.0,40.0,38.0,57.0,2298.112
2298122.0,59.0,41.0,40.0,68.0,2298.122
2298132.0,59.0,39.0,36.0,67.0,2298.132
2298142.0,57.0,40.0,31.0,66.0,2298.142
2298152.0,58.0,41.0,30.0,64.0,2298.152
2298162.0,56.0,40.0,28.0,60.0,2298.162
2298172.0,57.0,43.0,39.0,56.0,2298.172
2298182.0,57.0,44.0,35.0,57.0,2298.182
2298192.0,56.0,42.0,33.0,55.0,2298.192
2298202.0,56.0,42.0,31.0,57.0,2298.202
2298212.0,56.0,41.0,29.0,60.0,2298.212
2298222.0,56.0,40.0,28.0,57.0,2298.222
2298232.0,56.0,40.0,28.0,59.0,2298.232
2298242.0,56.0,41.0,29.0,59.0,2298.242
2298252.0,57.0,43.0,32.0,59.0,2298.252
2298262.0,56.0,44.0,47.0,59.0,2298.262
2298272.0,56.0,43.0,42.0,59.0,2298.272
2298283.0,57.0,42.0,40.0,57.0,2298.283
2298293.0,59.0,41.0,35.0,56.0,2298.293
2298303.0,59.0,39.0,31.0,54.0,2298.303
2298313.0,60.0,41.0,32.0,56.0,2298.313
2298323.0,59.0,41.0,28.0,57.0,2298.323
2298333.0,58.0,43.0,27.0,59.0,2298.333
2298343.0,60.0,42.0,37.0,61.0,2298.343
2298353.0,58.0,41.0,33.0,60.0,2298.353
2298363.0,58.0,42.0,33.0,58.0,2298.363
2298373.0,57.0,41.0,31.0,59.0,2298.373
2298383.0,58.0,41.0,36.0,57.0,2298.383
2298393.0,58.0,41.0,33.0,56.0,2298.393
2298403.0,57.0,40.0,28.0,59.0,2298.403
2298413.0,58.0,38.0,25.0,60.0,2298.413
2298423.0,58.0,43.0,33.0,63.0,2298.423
2298433.0,59.0,41.0,31.0,60.0,2298.433
2298443.0,59.0,39.0,28.0,59.0,2298.443
2298454.0,60.0,40.0,24.0,60.0,2298.454
2298464.0,59.0,41.0,24.0,66.0,2298.464
2298474.0,60.0,41.0,23.0,66.0,2298.474
2298484.0,60.0,40.0,21.0,66.0,2298.484
2298494.0,61.0,39.0,20.0,69.0,2298.494
2298504.0,60.0,41.0,33.0,64.0,2298.504
2298514.0,60.0,39.0,34.0,60.0,2298.514
2298524.0,61.0,41.0,30.0,64.0,2298.524
2298534.0,60.0,42.0,28.0,64.0,2298.534
2298544.0,60.0,41.0,26.0,69.0,2298.544
2298554.0,62.0,42.0,26.0,66.0,2298.554
2298564.0,62.0,41.0,23.0,69.0,2298.564
2298574.0,63.0,41.0,21.0,66.0,2298.574
2298584.0,63.0,43.0,25.0,65.0,2298.584
2298594.0,64.0,43.0,25.0,64.0,2298.594
2298604.0,62.0,44.0,23.0,63.0,2298.604
2298614.0,62.0,44.0,31.0,63.0,2298.614
2298624.0,63.0,43.0,29.0,65.0,2298.624
2298634.0,62.0,42.0,25.0,70.0,2298.634
2298644.0,61.0,41.0,21.0,72.0,2298.644
2298654.0,61.0,40.0,21.0,68.0,2298.654
2298664.0,61.0,42.0,33.0,66.0,2298.664
2298674.0,60.0,43.0,32.0,66.0,2298.674
2298684.0,61.0,41.0,31.0,66.0,2298.684
2298694.0,61.0,43.0,29.0,66.0,2298.694
2298704.0,61.0,40.0,26.0,63.0,2298.704
2298714.0,61.0,41.0,23.0,64.0,2298.714
2298724.0,61.0,39.0,23.0,62.0,2298.724
2298734.0,60.0,40.0,35.0,62.0,2298.734
2298744.0,60.0,42.0,44.0,64.0,2298.744
2298754.0,61.0,40.0,39.0,61.0,2298.754
2298764.0,62.0,39.0,36.0,61.0,2298.764
2298774.0,61.0,38.0,31.0,58.0,2298.774
2298784.0,59.0,40.0,28.0,60.0,2298.784
2298795.0,59.0,39.0,25.0,58.0,2298.795
2298805.0,59.0,40.0,25.0,59.0,2298.805
2298815.0,58.0,41.0,26.0,59.0,2298.815
2298825.0,58.0,43.0,39.0,60.0,2298.825
2298835.0,58.0,42.0,38.0,59.0,2298.835
2298845.0,59.0,42.0,33.0,58.0,2298.845
2298855.0,58.0,40.0,29.0,61.0,2298.855
2298865.0,57.0,40.0,25.0,62.0,2298.865
2298875.0,55.0,39.0,28.0,60.0,2298.875
2298885.0,55.0,40.0,25.0,64.0,2298.885
2298895.0,54.0,41.0,40.0,64.0,2298.895
2298905.0,53.0,41.0,43.0,63.0,2298.905
2298915.0,54.0,41.0,40.0,60.0,2298.915
2298925.0,54.0,40.0,35.0,58.0,2298.925
2298935.0,54.0,42.0,32.0,58.0,2298.935
2298945.0,55.0,42.0,29.0,58.0,2298.945
2298955.0,54.0,43.0,26.0,56.0,2298.955
2298966.0,53.0,42.0,24.0,58.0,2298.966
2298976.0,54.0,45.0,31.0,57.0,2298.976
2298986.0,54.0,45.0,33.0,58.0,2298.986
2298996.0,54.0,42.0,31.0,60.0,2298.996
2299006.0,53.0,43.0,27.0,63.0,2299.006
2299016.0,53.0,41.0,24.0,66.0,2299.016
2299026.0,54.0,40.0,22.0,63.0,2299.026
2299036.0,52.0,42.0,20.0,62.0,2299.036
2299046.0,53.0,43.0,26.0,60.0,2299.046
2299056.0,53.0,43.0,27.0,59.0,2299.056
2299066.0,53.0,42.0,27.0,58.0,2299.066
2299076.0,53.0,42.0,28.0,56.0,2299.076
2299086.0,53.0,40.0,26.0,54.0,2299.086
2299096.0,56.0,39.0,23.0,51.0,2299.096
2299106.0,57.0,40.0,20.0,50.0,2299.106
2299116.0,58.0,40.0,28.0,53.0,2299.116
2299126.0,58.0,41.0,36.0,53.0,2299.126
2299136.0,58.0,41.0,45.0,58.0,2299.136
2299146.0,60.0,42.0,43.0,60.0,2299.146
2299156.0,59.0,42.0,37.0,62.0,2299.156
2299166.0,59.0,40.0,34.0,60.0,2299.166
2299176.0,57.0,42.0,52.0,63.0,2299.176
2299186.0,57.0,42.0,56.0,59.0,2299.186
2299196.0,57.0,41.0,50.0,60.0,2299.196
2299206.0,56.0,41.0,48.0,57.0,2299.206
2299216.0,56.0,40.0,42.0,58.0,2299.216
2299226.0,56.0,40.0,36.0,56.0,2299.226
2299236.0,56.0,41.0,33.0,60.0,2299.236
2299246.0,56.0,41.0,29.0,59.0,2299.246
2299256.0,56.0,43.0,40.0,57.0,2299.256
2299266.0,56.0,43.0,39.0,57.0,2299.266
2299276.0,58.0,41.0,34.0,55.0,2299.276
2299286.0,59.0,40.0,36.0,50.0,2299.286
2299296.0,60.0,40.0,33.0,51.0,2299.296
2299307.0,59.0,40.0,33.0,52.0,2299.307
2299317.0,59.0,39.0,29.0,49.0,2299.317
2299327.0,56.0,40.0,28.0,50.0,2299.327
2299337.0,58.0,43.0,37.0,55.0,2299.337
2299347.0,58.0,41.0,32.0,54.0,2299.347
2299357.0,59.0,40.0,29.0,53.0,2299.357
2299367.0,59.0,39.0,29.0,50.0,2299.367
2299377.0,61.0,40.0,28.0,49.0,2299.377
2299387.0,61.0,39.0,25.0,46.0,2299.387
2299397.0,60.0,40.0,22.0,47.0,2299.397
2299407.0,62.0,43.0,30.0,71.0,2299.407
2299417.0,61.0,43.0,26.0,71.0,2299.417
2299427.0,62.0,41.0,22.0,69.0,2299.427
2299437.0,62.0,41.0,21.0,68.0,2299.437
2299447.0,61.0,41.0,18.0,64.0,2299.447
2299457.0,61.0,40.0,20.0,60.0,2299.457
2299467.0,60.0,43.0,36.0,67.0,2299.467
2299478.0,62.0,43.0,35.0,66.0,2299.478
2299488.0,62.0,42.0,31.0,64.0,2299.488
2299498.0,60.0,41.0,29.0,61.0,2299.498
2299508.0,61.0,41.0,25.0,62.0,2299.508
2299518.0,61.0,41.0,23.0,64.0,2299.518
2299528.0,61.0,40.0,21.0,60.0,2299.528
2299538.0,58.0,42.0,20.0,59.0,2299.538
2299548.0,59.0,43.0,29.0,57.0,2299.548
2299558.0,59.0,43.0,40.0,55.0,2299.558
2299568.0,58.0,43.0,37.0,54.0,2299.568
2299578.0,59.0,41.0,33.0,50.0,2299.578
2299588.0,57.0,42.0,28.0,50.0,2299.588
2299598.0,57.0,43.0,26.0,49.0,2299.598
2299608.0,57.0,43.0,28.0,49.0,2299.608
2299618.0,56.0,43.0,25.0,53.0,2299.618
2299628.0,55.0,43.0,22.0,56.0,2299.628
2299638.0,56.0,47.0,29.0,59.0,2299.638
2299648.0,57.0,44.0,29.0,55.0,2299.648
2299658.0,55.0,45.0,24.0,58.0,2299.658
2299668.0,57.0,45.0,23.0,59.0,2299.668
2299678.0,58.0,46.0,19.0,58.0,2299.678
2299688.0,59.0,47.0,19.0,60.0,2299.688
2299698.0,59.0,45.0,17.0,60.0,2299.698
2299708.0,58.0,44.0,16.0,58.0,2299.708
2299718.0,59.0,44.0,18.0,61.0,2299.718
2299728.0,58.0,45.0,29.0,63.0,2299.728
2299738.0,59.0,43.0,26.0,64.0,2299.738
2299748.0,58.0,42.0,25.0,61.0,2299.748
2299758.0,56.0,42.0,21.0,58.0,2299.758
2299768.0,55.0,41.0,26.0,57.0,2299.768
2299778.0,54.0,42.0,23.0,58.0,2299.778
2299788.0,54.0,42.0,23.0,62.0,2299.788
2299798.0,55.0,43.0,45.0,63.0,2299.798
2299808.0,56.0,44.0,41.0,66.0,2299.808
2299819.0,56.0,43.0,37.0,66.0,2299.819
2299829.0,57.0,43.0,31.0,62.0,2299.829
2299839.0,57.0,43.0,27.0,59.0,2299.839
2299849.0,58.0,45.0,26.0,57.0,2299.849
2299859.0,56.0,47.0,27.0,58.0,2299.859
2299869.0,57.0,48.0,45.0,58.0,2299.869
2299879.0,57.0,47.0,40.0,63.0,2299.879
2299889.0,56.0,47.0,36.0,62.0,2299.889
2299899.0,53.0,47.0,33.0,61.0,2299.899
2299909.0,54.0,48.0,31.0,59.0,2299.909
2299919.0,53.0,47.0,26.0,58.0,2299.919
2299929.0,51.0,48.0,24.0,57.0,2299.929
2299939.0,51.0,50.0,25.0,54.0,2299.939
2299949.0,52.0,50.0,29.0,55.0,2299.949
2299959.0,51.0,48.0,27.0,59.0,2299.959
2299969.0,50.0,47.0,27.0,57.0,2299.969
2299979.0,48.0,47.0,24.0,57.0,2299.979
2299990.0,48.0,47.0,21.0,53.0,2299.99
2300000.0,46.0,47.0,20.0,52.0,2300.0
2300010.0,47.0,46.0,21.0,50.0,2300.01
2300020.0,46.0,49.0,24.0,52.0,2300.02
2300030.0,47.0,47.0,29.0,55.0,2300.03
2300040.0,48.0,46.0,28.0,56.0,2300.04
2300050.0,46.0,45.0,26.0,55.0,2300.05
2300060.0,47.0,43.0,24.0,53.0,2300.06
2300070.0,46.0,43.0,22.0,53.0,2300.07
2300080.0,46.0,43.0,22.0,52.0,2300.08
2300090.0,46.0,43.0,22.0,51.0,2300.09
2300100.0,45.0,42.0,23.0,50.0,2300.1
2300110.0,46.0,41.0,24.0,52.0,2300.11
2300120.0,45.0,43.0,28.0,54.0,2300.12
2300130.0,45.0,42.0,28.0,51.0,2300.13
2300140.0,44.0,42.0,27.0,55.0,2300.14
2300150.0,44.0,41.0,24.0,55.0,2300.15
2300160.0,45.0,41.0,26.0,55.0,2300.16
2300170.0,44.0,40.0,24.0,53.0,2300.17
2300180.0,45.0,39.0,22.0,53.0,2300.18
2300190.0,44.0,39.0,20.0,56.0,2300.19
2300200.0,45.0,40.0,18.0,54.0,2300.2
2300210.0,45.0,40.0,20.0,55.0,2300.21
2300220.0,46.0,42.0,35.0,55.0,2300.22
2300230.0,46.0,40.0,42.0,58.0,2300.23
2300240.0,45.0,39.0,37.0,58.0,2300.24
2300250.0,47.0,39.0,35.0,58.0,2300.25
2300260.0,47.0,39.0,32.0,62.0,2300.26
2300270.0,46.0,39.0,27.0,61.0,2300.27
2300280.0,48.0,38.0,24.0,59.0,2300.28
2300290.0,46.0,40.0,34.0,59.0,2300.29
2300300.0,47.0,39.0,30.0,60.0,2300.3
2300310.0,46.0,40.0,27.0,57.0,2300.31
2300320.0,47.0,39.0,28.0,54.0,2300.32
2300331.0,47.0,40.0,36.0,57.0,2300.331
2300341.0,48.0,41.0,36.0,58.0,2300.341
2300351.0,48.0,42.0,41.0,58.0,2300.351
2300361.0,50.0,45.0,38.0,62.0,2300.361
2300371.0,50.0,42.0,34.0,63.0,2300.371
2300381.0,49.0,42.0,31.0,62.0,2300.381
2300391.0,49.0,41.0,27.0,57.0,2300.391
2300401.0,48.0,39.0,24.0,57.0,2300.401
2300411.0,48.0,41.0,30.0,64.0,2300.411
2300421.0,47.0,40.0,28.0,60.0,2300.421
2300431.0,48.0,42.0,32.0,61.0,2300.431
2300441.0,48.0,42.0,40.0,60.0,2300.441
2300451.0,47.0,42.0,39.0,57.0,2300.451
2300461.0,47.0,41.0,35.0,58.0,2300.461
2300471.0,48.0,42.0,31.0,59.0,2300.471
2300481.0,47.0,44.0,28.0,61.0,2300.481
2300491.0,48.0,45.0,26.0,57.0,2300.491
2300502.0,50.0,45.0,32.0,61.0,2300.502
2300512.0,50.0,44.0,27.0,58.0,2300.512
2300522.0,50.0,45.0,42.0,56.0,2300.522
2300532.0,49.0,44.0,37.0,55.0,2300.532
2300542.0,50.0,42.0,34.0,54.0,2300.542
2300552.0,50.0,43.0,33.0,51.0,2300.552
2300562.0,51.0,43.0,28.0,55.0,2300.562
2300572.0,51.0,43.0,26.0,56.0,2300.572
2300582.0,51.0,46.0,38.0,57.0,2300.582
2300592.0,51.0,44.0,38.0,55.0,2300.592
2300602.0,52.0,45.0,32.0,59.0,2300.602
2300612.0,53.0,42.0,34.0,57.0,2300.612
2300622.0,53.0,42.0,31.0,58.0,2300.622
2300632.0,53.0,42.0,28.0,57.0,2300.632
2300642.0,53.0,43.0,37.0,53.0,2300.642
2300652.0,54.0,44.0,45.0,54.0,2300.652
2300662.0,55.0,42.0,43.0,56.0,2300.662
2300672.0,55.0,42.0,39.0,54.0,2300.672
2300682.0,56.0,41.0,35.0,54.0,2300.682
2300692.0,58.0,41.0,32.0,52.0,2300.692
2300702.0,57.0,41.0,29.0,49.0,2300.702
2300712.0,59.0,43.0,26.0,53.0,2300.712
2300722.0,59.0,45.0,28.0,54.0,2300.722
2300732.0,60.0,46.0,42.0,57.0,2300.732
2300742.0,61.0,45.0,38.0,60.0,2300.742
2300752.0,60.0,46.0,35.0,61.0,2300.752
2300762.0,60.0,44.0,31.0,63.0,2300.762
2300772.0,59.0,45.0,28.0,61.0,2300.772
2300782.0,61.0,44.0,26.0,61.0,2300.782
2300792.0,59.0,44.0,24.0,63.0,2300.792
2300802.0,58.0,47.0,35.0,62.0,2300.802
2300812.0,57.0,44.0,32.0,60.0,2300.812
2300822.0,55.0,44.0,29.0,62.0,2300.822
2300832.0,55.0,42.0,26.0,59.0,2300.832
2300843.0,53.0,42.0,29.0,60.0,2300.843
2300853.0,55.0,45.0,31.0,68.0,2300.853
2300863.0,57.0,44.0,28.0,66.0,2300.863
2300873.0,56.0,43.0,24.0,64.0,2300.873
2300883.0,55.0,42.0,23.0,62.0,2300.883
2300893.0,54.0,42.0,20.0,61.0,2300.893
2300903.0,55.0,42.0,20.0,59.0,2300.903
2300913.0,54.0,40.0,19.0,66.0,2300.913
2300923.0,55.0,45.0,21.0,71.0,2300.923
2300933.0,55.0,44.0,20.0,69.0,2300.933
2300943.0,54.0,42.0,21.0,68.0,2300.943
2300953.0,54.0,40.0,25.0,70.0,2300.953
2300963.0,55.0,42.0,22.0,66.0,2300.963
2300973.0,55.0,40.0,19.0,68.0,2300.973
2300983.0,56.0,39.0,18.0,65.0,2300.983
2300993.0,55.0,40.0,30.0,63.0,2300.993
2301003.0,55.0,41.0,29.0,60.0,2301.003
2301014.0,52.0,42.0,30.0,60.0,2301.014
2301024.0,56.0,86.0,38.0,64.0,2301.024
2301034.0,61.0,120.0,47.0,74.0,2301.034
2301044.0,61.0,150.0,47.0,82.0,2301.044
2301054.0,94.0,276.0,80.0,105.0,2301.054
2301064.0,99.0,366.0,82.0,107.0,2301.064
2301074.0,116.0,419.0,89.0,118.0,2301.074
2301084.0,113.0,399.0,93.0,111.0,2301.084
2301094.0,107.0,390.0,94.0,112.0,2301.094
2301104.0,102.0,375.0,86.0,103.0,2301.104
2301114.0,120.0,391.0,108.0,119.0,2301.114
2301124.0,132.0,484.0,130.0,126.0,2301.124
2301134.0,140.0,505.0,124.0,128.0,2301.134
2301144.0,134.0,527.0,121.0,126.0,2301.144
2301154.0,137.0,489.0,115.0,122.0,2301.154
2301164.0,133.0,447.0,113.0,130.0,2301.164
2301174.0,124.0,425.0,101.0,121.0,2301.174
2301184.0,117.0,419.0,92.0,127.0,2301.184
2301194.0,109.0,393.0,91.0,125.0,2301.194
2301204.0,119.0,419.0,91.0,126.0,2301.204
2301214.0,114.0,400.0,87.0,135.0,2301.214
2301224.0,112.0,403.0,88.0,148.0,2301.224
2301234.0,118.0,391.0,98.0,146.0,2301.234
2301244.0,112.0,394.0,90.0,142.0,2301.244
2301254.0,105.0,384.0,91.0,150.0,2301.254
2301264.0,109.0,400.0,87.0,141.0,2301.264
2301274.0,107.0,381.0,80.0,150.0,2301.274
2301284.0,96.0,376.0,76.0,139.0,2301.284
2301294.0,93.0,362.0,76.0,133.0,2301.294
2301304.0,90.0,370.0,74.0,125.0,2301.304
2301314.0,87.0,357.0,66.0,116.0,2301.314
2301324.0,87.0,356.0,62.0,121.0,2301.324
2301334.0,85.0,346.0,60.0,117.0,2301.334
2301344.0,90.0,332.0,56.0,117.0,2301.344
2301355.0,84.0,332.0,50.0,111.0,2301.355
2301365.0,82.0,318.0,50.0,107.0,2301.365
2301375.0,78.0,310.0,58.0,106.0,2301.375
2301385.0,75.0,303.0,62.0,105.0,2301.385
2301395.0,73.0,290.0,54.0,110.0,2301.395
2301405.0,71.0,299.0,50.0,112.0,2301.405
2301415.0,72.0,284.0,43.0,112.0,2301.415
2301425.0,70.0,278.0,46.0,108.0,2301.425
2301435.0,69.0,268.0,46.0,102.0,2301.435
2301445.0,68.0,272.0,45.0,115.0,2301.445
2301455.0,71.0,264.0,58.0,114.0,2301.455
2301465.0,69.0,248.0,52.0,117.0,2301.465
2301475.0,67.0,240.0,45.0,119.0,2301.475
2301485.0,67.0,240.0,43.0,118.0,2301.485
2301495.0,65.0,232.0,39.0,115.0,2301.495
2301505.0,63.0,225.0,36.0,112.0,2301.505
2301515.0,65.0,233.0,34.0,108.0,2301.515
2301526.0,64.0,220.0,31.0,101.0,2301.526
2301536.0,63.0,216.0,34.0,97.0,2301.536
2301546.0,65.0,222.0,33.0,99.0,2301.546
2301556.0,71.0,226.0,41.0,111.0,2301.556
2301566.0,67.0,214.0,49.0,109.0,2301.566
2301576.0,66.0,206.0,50.0,102.0,2301.576
2301586.0,64.0,199.0,46.0,111.0,2301.586
2301596.0,62.0,192.0,42.0,124.0,2301.596
2301606.0,61.0,182.0,44.0,119.0,2301.606
2301616.0,63.0,192.0,49.0,117.0,2301.616
2301626.0,64.0,185.0,59.0,118.0,2301.626
2301636.0,63.0,175.0,56.0,112.0,2301.636
2301646.0,64.0,180.0,55.0,116.0,2301.646
2301656.0,66.0,174.0,63.0,119.0,2301.656
2301666.0,66.0,167.0,60.0,132.0,2301.666
2301676.0,70.0,170.0,56.0,131.0,2301.676
2301686.0,68.0,162.0,51.0,130.0,2301.686
2301696.0,64.0,156.0,52.0,125.0,2301.696
2301706.0,63.0,151.0,50.0,119.0,2301.706
2301716.0,61.0,147.0,44.0,115.0,2301.716
2301726.0,62.0,145.0,44.0,112.0,2301.726
2301736.0,60.0,149.0,38.0,109.0,2301.736
2301746.0,64.0,150.0,36.0,117.0,2301.746
2301756.0,66.0,142.0,41.0,117.0,2301.756
2301766.0,65.0,137.0,36.0,122.0,2301.766
2301776.0,64.0,140.0,32.0,119.0,2301.776
2301786.0,61.0,134.0,31.0,113.0,2301.786
2301796.0,61.0,129.0,30.0,120.0,2301.796
2301806.0,66.0,133.0,28.0,119.0,2301.806
2301816.0,64.0,129.0,27.0,115.0,2301.816
2301826.0,64.0,124.0,30.0,119.0,2301.826
2301836.0,63.0,124.0,27.0,119.0,2301.836
2301846.0,61.0,121.0,25.0,115.0,2301.846
2301856.0,61.0,114.0,32.0,115.0,2301.856
2301867.0,62.0,124.0,28.0,131.0,2301.867
2301877.0,63.0,117.0,38.0,125.0,2301.877
2301887.0,62.0,108.0,43.0,119.0,2301.887
2301897.0,62.0,106.0,38.0,115.0,2301.897
2301907.0,62.0,103.0,33.0,118.0,2301.907
2301917.0,61.0,100.0,32.0,115.0,2301.917
2301927.0,59.0,96.0,28.0,109.0,2301.927
2301937.0,58.0,103.0,34.0,104.0,2301.937
2301947.0,57.0,103.0,42.0,105.0,2301.947
2301957.0,58.0,103.0,45.0,117.0,2301.957
2301967.0,59.0,105.0,46.0,113.0,2301.967
2301977.0,61.0,106.0,45.0,121.0,2301.977
2301987.0,60.0,100.0,56.0,116.0,2301.987
2301997.0,60.0,104.0,52.0,127.0,2301.997
2302007.0,60.0,102.0,48.0,139.0,2302.007
2302017.0,61.0,103.0,45.0,139.0,2302.017
2302027.0,59.0,100.0,42.0,132.0,2302.027
2302038.0,61.0,105.0,43.0,132.0,2302.038
2302048.0,61.0,104.0,38.0,125.0,2302.048
2302058.0,60.0,103.0,33.0,119.0,2302.058
2302068.0,61.0,97.0,46.0,120.0,2302.068
2302078.0,58.0,90.0,39.0,131.0,2302.078
2302088.0,59.0,92.0,41.0,144.0,2302.088
2302098.0,58.0,90.0,41.0,137.0,2302.098
2302108.0,58.0,88.0,37.0,124.0,2302.108
2302118.0,58.0,87.0,36.0,123.0,2302.118
2302128.0,57.0,84.0,33.0,117.0,2302.128
2302138.0,58.0,87.0,31.0,119.0,2302.138
2302148.0,58.0,85.0,26.0,111.0,2302.148
2302158.0,60.0,85.0,38.0,117.0,2302.158
2302168.0,58.0,85.0,39.0,120.0,2302.168
2302178.0,58.0,89.0,40.0,119.0,2302.178
2302188.0,60.0,89.0,42.0,124.0,2302.188
2302198.0,61.0,108.0,43.0,119.0,2302.198
2302208.0,61.0,100.0,39.0,115.0,2302.208
2302218.0,60.0,97.0,53.0,130.0,2302.218
2302228.0,60.0,95.0,52.0,132.0,2302.228
2302238.0,58.0,89.0,46.0,127.0,2302.238
2302248.0,56.0,85.0,44.0,127.0,2302.248
2302258.0,57.0,86.0,43.0,128.0,2302.258
2302268.0,57.0,95.0,43.0,124.0,2302.268
2302278.0,56.0,92.0,40.0,120.0,2302.278
2302288.0,55.0,88.0,48.0,116.0,2302.288
2302298.0,56.0,89.0,48.0,116.0,2302.298
2302308.0,55.0,87.0,43.0,119.0,2302.308
2302318.0,55.0,86.0,37.0,116.0,2302.318
2302328.0,57.0,81.0,38.0,110.0,2302.328
2302338.0,58.0,82.0,35.0,109.0,2302.338
2302348.0,56.0,77.0,33.0,104.0,2302.348
2302358.0,58.0,75.0,37.0,110.0,2302.358
2302368.0,56.0,75.0,38.0,116.0,2302.368
2302379.0,55.0,71.0,46.0,108.0,2302.379
2302389.0,53.0,67.0,40.0,111.0,2302.389
2302399.0,51.0,64.0,35.0,106.0,2302.399
2302409.0,50.0,62.0,35.0,105.0,2302.409
2302419.0,50.0,62.0,39.0,117.0,2302.419
2302429.0,50.0,64.0,36.0,114.0,2302.429
2302439.0,53.0,65.0,37.0,111.0,2302.439
2302449.0,54.0,70.0,37.0,113.0,2302.449
2302459.0,53.0,74.0,32.0,117.0,2302.459
2302469.0,56.0,79.0,31.0,122.0,2302.469
2302479.0,60.0,88.0,29.0,119.0,2302.479
2302489.0,60.0,93.0,25.0,118.0,2302.489
2302499.0,59.0,87.0,24.0,117.0,2302.499
2302509.0,56.0,81.0,22.0,114.0,2302.509
2302519.0,54.0,77.0,32.0,111.0,2302.519
2302529.0,54.0,73.0,42.0,113.0,2302.529
2302539.0,56.0,86.0,38.0,106.0,2302.539
2302550.0,60.0,90.0,37.0,104.0,2302.55
2302560.0,59.0,91.0,33.0,107.0,2302.56
2302570.0,59.0,89.0,32.0,109.0,2302.57
2302580.0,58.0,83.0,30.0,105.0,2302.58
2302590.0,59.0,84.0,48.0,111.0,2302.59
2302600.0,59.0,78.0,45.0,117.0,2302.6
2302610.0,56.0,78.0,40.0,111.0,2302.61
2302620.0,56.0,74.0,38.0,112.0,2302.62
2302630.0,56.0,75.0,36.0,107.0,2302.63
2302640.0,56.0,74.0,32.0,101.0,2302.64
2302650.0,55.0,70.0,30.0,97.0,2302.65
2302660.0,53.0,69.0,37.0,98.0,2302.66
2302670.0,53.0,66.0,46.0,100.0,2302.67
2302680.0,52.0,69.0,42.0,97.0,2302.68
2302690.0,54.0,76.0,37.0,89.0,2302.69
2302700.0,53.0,77.0,35.0,88.0,2302.7
2302710.0,53.0,77.0,31.0,91.0,2302.71
2302720.0,52.0,71.0,29.0,90.0,2302.72
2302730.0,50.0,69.0,26.0,94.0,2302.73
2302740.0,55.0,67.0,26.0,93.0,2302.74
2302750.0,60.0,76.0,30.0,89.0,2302.75
2302760.0,61.0,76.0,40.0,93.0,2302.76
2302770.0,59.0,73.0,40.0,89.0,2302.77
2302780.0,57.0,71.0,36.0,92.0,2302.78
2302790.0,57.0,66.0,39.0,93.0,2302.79
2302800.0,56.0,64.0,34.0,93.0,2302.8
2302810.0,55.0,64.0,33.0,90.0,2302.81
2302820.0,61.0,75.0,30.0,92.0,2302.82
2302830.0,61.0,74.0,27.0,92.0,2302.83
2302840.0,64.0,88.0,44.0,105.0,2302.84
2302850.0,62.0,83.0,43.0,105.0,2302.85
2302860.0,60.0,82.0,39.0,103.0,2302.86
2302870.0,58.0,83.0,34.0,102.0,2302.87
2302880.0,57.0,79.0,30.0,95.0,2302.88
2302891.0,57.0,77.0,27.0,92.0,2302.891
2302901.0,61.0,85.0,25.0,95.0,2302.901
2302911.0,60.0,79.0,24.0,87.0,2302.911
2302921.0,60.0,82.0,24.0,87.0,2302.921
2302931.0,61.0,82.0,34.0,84.0,2302.931
2302941.0,60.0,79.0,33.0,87.0,2302.941
2302951.0,59.0,80.0,33.0,90.0,2302.951
2302961.0,61.0,80.0,30.0,91.0,2302.961
2302971.0,62.0,83.0,30.0,92.0,2302.971
2302981.0,60.0,82.0,33.0,94.0,2302.981
2302991.0,60.0,83.0,47.0,98.0,2302.991
2303001.0,59.0,81.0,44.0,95.0,2303.001
2303011.0,61.0,84.0,38.0,94.0,2303.011
2303021.0,61.0,82.0,35.0,100.0,2303.021
2303031.0,62.0,78.0,31.0,105.0,2303.031
2303041.0,61.0,83.0,27.0,124.0,2303.041
2303051.0,61.0,79.0,28.0,134.0,2303.051
2303062.0,64.0,84.0,34.0,129.0,2303.062
2303072.0,68.0,88.0,37.0,125.0,2303.072
2303082.0,66.0,83.0,35.0,127.0,2303.082
2303092.0,64.0,83.0,30.0,122.0,2303.092
2303102.0,61.0,82.0,27.0,117.0,2303.102
2303112.0,61.0,79.0,24.0,118.0,2303.112
2303122.0,59.0,76.0,23.0,113.0,2303.122
2303132.0,58.0,74.0,20.0,106.0,2303.132
2303142.0,57.0,72.0,18.0,101.0,2303.142
2303152.0,57.0,75.0,19.0,101.0,2303.152
2303162.0,56.0,78.0,18.0,98.0,2303.162
2303172.0,56.0,84.0,38.0,102.0,2303.172
2303182.0,56.0,81.0,34.0,101.0,2303.182
2303192.0,57.0,80.0,31.0,101.0,2303.192
2303202.0,55.0,74.0,27.0,96.0,2303.202
2303212.0,55.0,78.0,25.0,92.0,2303.212
2303222.0,55.0,75.0,23.0,99.0,2303.222
2303232.0,54.0,75.0,21.0,96.0,2303.232
2303242.0,54.0,80.0,22.0,110.0,2303.242
2303252.0,53.0,78.0,20.0,111.0,2303.252
2303262.0,54.0,80.0,32.0,115.0,2303.262
2303272.0,54.0,80.0,31.0,112.0,2303.272
2303282.0,54.0,84.0,27.0,104.0,2303.282
2303292.0,53.0,83.0,25.0,102.0,2303.292
2303302.0,54.0,79.0,24.0,109.0,2303.302
2303312.0,52.0,80.0,22.0,110.0,2303.312
2303322.0,55.0,80.0,27.0,109.0,2303.322
2303332.0,52.0,83.0,24.0,109.0,2303.332
2303342.0,53.0,81.0,27.0,101.0,2303.342
2303352.0,55.0,80.0,44.0,97.0,2303.352
2303362.0,57.0,84.0,45.0,98.0,2303.362
2303372.0,57.0,82.0,42.0,92.0,2303.372
2303382.0,57.0,81.0,40.0,98.0,2303.382
2303392.0,58.0,82.0,43.0,94.0,2303.392
2303403.0,57.0,81.0,39.0,102.0,2303.403
2303413.0,56.0,82.0,36.0,99.0,2303.413
2303423.0,56.0,77.0,33.0,97.0,2303.423
2303433.0,57.0,84.0,29.0,96.0,2303.433
2303443.0,59.0,84.0,26.0,90.0,2303.443
2303453.0,61.0,87.0,25.0,89.0,2303.453
2303463.0,62.0,87.0,31.0,105.0,2303.463
2303473.0,61.0,96.0,36.0,108.0,2303.473
2303483.0,61.0,100.0,35.0,109.0,2303.483
2303493.0,65.0,97.0,46.0,106.0,2303.493
2303503.0,65.0,94.0,43.0,102.0,2303.503
2303513.0,64.0,98.0,39.0,110.0,2303.513
2303523.0,67.0,97.0,37.0,102.0,2303.523
2303533.0,66.0,91.0,40.0,96.0,2303.533
2303543.0,68.0,90.0,36.0,103.0,2303.543
2303553.0,67.0,98.0,32.0,101.0,2303.553
2303563.0,70.0,92.0,47.0,98.0,2303.563
2303574.0,69.0,97.0,50.0,111.0,2303.574
2303584.0,69.0,91.0,45.0,107.0,2303.584
2303594.0,68.0,94.0,43.0,107.0,2303.594
2303604.0,64.0,95.0,41.0,108.0,2303.604
2303614.0,65.0,99.0,37.0,106.0,2303.614
2303624.0,62.0,101.0,35.0,106.0,2303.624
2303634.0,65.0,98.0,46.0,100.0,2303.634
2303644.0,64.0,94.0,41.0,99.0,2303.644
2303654.0,63.0,94.0,36.0,96.0,2303.654
2303664.0,63.0,98.0,32.0,91.0,2303.664
2303674.0,61.0,101.0,29.0,95.0,2303.674
2303684.0,61.0,104.0,31.0,93.0,2303.684
2303694.0,63.0,97.0,30.0,89.0,2303.694
2303704.0,63.0,98.0,27.0,86.0,2303.704
2303714.0,63.0,98.0,24.0,83.0,2303.714
2303724.0,61.0,108.0,29.0,86.0,2303.724
2303734.0,67.0,109.0,38.0,89.0,2303.734
2303744.0,66.0,104.0,38.0,90.0,2303.744
2303754.0,65.0,111.0,34.0,93.0,2303.754
2303764.0,63.0,105.0,34.0,89.0,2303.764
2303774.0,63.0,104.0,33.0,86.0,2303.774
2303784.0,61.0,103.0,32.0,80.0,2303.784
2303794.0,64.0,114.0,49.0,89.0,2303.794
2303804.0,67.0,109.0,52.0,89.0,2303.804
2303814.0,63.0,109.0,46.0,91.0,2303.814
2303824.0,65.0,112.0,40.0,90.0,2303.824
2303834.0,65.0,105.0,42.0,87.0,2303.834
2303844.0,64.0,111.0,40.0,86.0,2303.844
2303854.0,62.0,108.0,42.0,90.0,2303.854
2303864.0,64.0,110.0,44.0,90.0,2303.864
2303874.0,63.0,107.0,40.0,92.0,2303.874
2303884.0,64.0,114.0,35.0,91.0,2303.884
2303894.0,62.0,112.0,41.0,89.0,2303.894
2303904.0,64.0,121.0,50.0,91.0,2303.904
2303915.0,63.0,116.0,47.0,92.0,2303.915
2303925.0,63.0,118.0,49.0,92.0,2303.925
2303935.0,62.0,120.0,43.0,93.0,2303.935
2303945.0,61.0,115.0,40.0,91.0,2303.945
2303955.0,60.0,114.0,38.0,90.0,2303.955
2303965.0,59.0,111.0,35.0,89.0,2303.965
2303975.0,57.0,112.0,32.0,89.0,2303.975
2303985.0,57.0,115.0,35.0,91.0,2303.985
2303995.0,56.0,116.0,31.0,91.0,2303.995
2304005.0,56.0,124.0,28.0,86.0,2304.005
2304015.0,58.0,121.0,24.0,79.0,2304.015
2304025.0,60.0,122.0,29.0,83.0,2304.025
2304035.0,57.0,117.0,26.0,92.0,2304.035
2304045.0,59.0,116.0,24.0,89.0,2304.045
2304055.0,59.0,115.0,21.0,93.0,2304.055
2304065.0,64.0,125.0,20.0,85.0,2304.065
2304075.0,67.0,128.0,19.0,78.0,2304.075
2304086.0,69.0,128.0,17.0,78.0,2304.086
2304096.0,69.0,121.0,35.0,74.0,2304.096
2304106.0,64.0,125.0,36.0,85.0,2304.106
2304116.0,64.0,118.0,32.0,87.0,2304.116
2304126.0,64.0,113.0,31.0,93.0,2304.126
2304136.0,62.0,113.0,27.0,89.0,2304.136
2304146.0,61.0,111.0,30.0,82.0,2304.146
2304156.0,60.0,110.0,47.0,77.0,2304.156
2304166.0,58.0,110.0,45.0,74.0,2304.166
2304176.0,72.0,114.0,46.0,93.0,2304.176
2304186.0,71.0,111.0,42.0,90.0,2304.186
2304196.0,68.0,103.0,39.0,89.0,2304.196
2304206.0,67.0,99.0,48.0,95.0,2304.206
2304216.0,66.0,103.0,64.0,103.0,2304.216
2304226.0,71.0,101.0,62.0,109.0,2304.226
2304236.0,72.0,106.0,81.0,136.0,2304.236
2304246.0,71.0,99.0,86.0,152.0,2304.246
2304256.0,74.0,101.0,91.0,154.0,2304.256
2304266.0,75.0,106.0,90.0,190.0,2304.266
2304276.0,75.0,116.0,79.0,191.0,2304.276
2304286.0,81.0,141.0,76.0,211.0,2304.286
2304296.0,79.0,160.0,72.0,224.0,2304.296
2304306.0,75.0,180.0,73.0,234.0,2304.306
2304316.0,78.0,200.0,70.0,243.0,2304.316
2304326.0,77.0,221.0,89.0,272.0,2304.326
2304336.0,79.0,241.0,95.0,269.0,2304.336
2304346.0,79.0,258.0,111.0,279.0,2304.346
2304356.0,83.0,274.0,104.0,275.0,2304.356
2304366.0,83.0,287.0,111.0,277.0,2304.366
2304376.0,85.0,304.0,109.0,262.0,2304.376
2304386.0,86.0,314.0,115.0,275.0,2304.386
2304396.0,86.0,327.0,116.0,268.0,2304.396
2304406.0,86.0,337.0,122.0,241.0,2304.406
2304416.0,89.0,344.0,125.0,242.0,2304.416
2304427.0,88.0,354.0,127.0,230.0,2304.427
2304437.0,88.0,360.0,128.0,229.0,2304.437
2304447.0,89.0,366.0,121.0,224.0,2304.447
2304457.0,91.0,369.0,122.0,221.0,2304.457
2304467.0,92.0,370.0,118.0,206.0,2304.467
2304477.0,90.0,372.0,119.0,204.0,2304.477
2304487.0,92.0,371.0,124.0,185.0,2304.487
2304497.0,92.0,368.0,118.0,178.0,2304.497
2304507.0,96.0,367.0,113.0,167.0,2304.507
2304517.0,95.0,362.0,109.0,155.0,2304.517
2304527.0,96.0,358.0,110.0,155.0,2304.527
2304537.0,96.0,353.0,110.0,144.0,2304.537
2304547.0,96.0,347.0,98.0,151.0,2304.547
2304557.0,97.0,344.0,103.0,157.0,2304.557
2304567.0,96.0,338.0,101.0,146.0,2304.567
2304577.0,97.0,335.0,115.0,137.0,2304.577
2304587.0,99.0,330.0,108.0,130.0,2304.587
2304598.0,99.0,326.0,105.0,125.0,2304.598
2304608.0,101.0,321.0,96.0,114.0,2304.608
2304618.0,100.0,316.0,92.0,124.0,2304.618
2304628.0,100.0,310.0,85.0,117.0,2304.628
2304638.0,101.0,307.0,82.0,109.0,2304.638
2304648.0,101.0,303.0,79.0,104.0,2304.648
2304658.0,102.0,298.0,84.0,101.0,2304.658
2304668.0,103.0,296.0,82.0,94.0,2304.668
2304678.0,104.0,292.0,79.0,91.0,2304.678
2304688.0,102.0,289.0,78.0,93.0,2304.688
2304698.0,102.0,285.0,72.0,100.0,2304.698
2304708.0,103.0,281.0,65.0,95.0,2304.708
2304718.0,101.0,276.0,61.0,90.0,2304.718
2304728.0,102.0,270.0,56.0,85.0,2304.728
2304738.0,101.0,264.0,49.0,91.0,2304.738
2304748.0,103.0,259.0,59.0,85.0,2304.748
2304758.0,103.0,255.0,56.0,83.0,2304.758
2304768.0,102.0,248.0,60.0,97.0,2304.768
2304778.0,104.0,245.0,55.0,100.0,2304.778
2304788.0,104.0,242.0,54.0,101.0,2304.788
2304798.0,106.0,238.0,50.0,98.0,2304.798
2304808.0,106.0,234.0,61.0,97.0,2304.808
2304818.0,105.0,229.0,57.0,88.0,2304.818
2304828.0,105.0,225.0,54.0,85.0,2304.828
2304838.0,104.0,220.0,47.0,85.0,2304.838
2304848.0,102.0,215.0,43.0,85.0,2304.848
2304858.0,101.0,213.0,40.0,86.0,2304.858
2304868.0,100.0,206.0,42.0,84.0,2304.868
2304878.0,98.0,201.0,47.0,89.0,2304.878
2304888.0,97.0,194.0,49.0,107.0,2304.888
2304898.0,100.0,193.0,54.0,107.0,2304.898
2304908.0,99.0,190.0,53.0,97.0,2304.908
2304918.0,98.0,185.0,46.0,96.0,2304.918
2304928.0,96.0,181.0,49.0,98.0,2304.928
2304939.0,95.0,175.0,54.0,110.0,2304.939
2304949.0,94.0,172.0,50.0,108.0,2304.949
2304959.0,94.0,168.0,44.0,103.0,2304.959
2304969.0,94.0,164.0,39.0,98.0,2304.969
2304979.0,90.0,158.0,42.0,104.0,2304.979
2304989.0,91.0,157.0,40.0,105.0,2304.989
2304999.0,87.0,153.0,41.0,100.0,2304.999
2305009.0,87.0,150.0,38.0,90.0,2305.009
2305019.0,86.0,148.0,34.0,86.0,2305.019
2305029.0,83.0,143.0,37.0,93.0,2305.029
2305039.0,85.0,142.0,35.0,94.0,2305.039
2305049.0,85.0,140.0,30.0,95.0,2305.049
2305059.0,84.0,137.0,27.0,91.0,2305.059
2305069.0,83.0,133.0,25.0,93.0,2305.069
2305079.0,82.0,130.0,31.0,94.0,2305.079
2305089.0,82.0,126.0,28.0,89.0,2305.089
2305099.0,83.0,124.0,25.0,86.0,2305.099
2305110.0,84.0,120.0,24.0,86.0,2305.11
2305120.0,83.0,117.0,22.0,87.0,2305.12
2305130.0,83.0,116.0,22.0,88.0,2305.13
2305140.0,84.0,116.0,25.0,81.0,2305.14
2305150.0,83.0,115.0,23.0,79.0,2305.15
2305160.0,82.0,110.0,33.0,84.0,2305.16
2305170.0,82.0,111.0,36.0,87.0,2305.17
2305180.0,81.0,110.0,35.0,87.0,2305.18
2305190.0,81.0,107.0,31.0,89.0,2305.19
2305200.0,79.0,105.0,34.0,92.0,2305.2
2305210.0,79.0,104.0,36.0,89.0,2305.21
2305220.0,77.0,103.0,33.0,87.0,2305.22
2305230.0,77.0,101.0,37.0,84.0,2305.23
2305240.0,77.0,101.0,33.0,80.0,2305.24
2305250.0,75.0,99.0,32.0,86.0,2305.25
2305260.0,74.0,98.0,30.0,87.0,2305.26
2305270.0,74.0,96.0,26.0,84.0,2305.27
2305280.0,73.0,93.0,23.0,80.0,2305.28
2305290.0,73.0,93.0,26.0,82.0,2305.29
2305300.0,72.0,91.0,24.0,82.0,2305.3
2305310.0,73.0,91.0,22.0,80.0,2305.31
2305320.0,71.0,87.0,41.0,88.0,2305.32
2305330.0,73.0,90.0,40.0,83.0,2305.33
2305340.0,72.0,89.0,35.0,82.0,2305.34
2305350.0,70.0,87.0,34.0,89.0,2305.35
2305360.0,69.0,85.0,30.0,86.0,2305.36
2305370.0,67.0,85.0,27.0,80.0,2305.37
2305380.0,66.0,80.0,36.0,82.0,2305.38
2305390.0,65.0,81.0,36.0,76.0,2305.39
2305400.0,65.0,80.0,31.0,82.0,2305.4
2305410.0,65.0,78.0,30.0,80.0,2305.41
2305420.0,64.0,77.0,27.0,75.0,2305.42
2305430.0,64.0,76.0,24.0,77.0,2305.43
2305440.0,62.0,74.0,22.0,81.0,2305.44
2305451.0,63.0,74.0,21.0,80.0,2305.451
2305461.0,62.0,73.0,18.0,87.0,2305.461
2305471.0,64.0,74.0,37.0,80.0,2305.471
2305481.0,64.0,72.0,36.0,80.0,2305.481
2305491.0,63.0,71.0,33.0,81.0,2305.491
2305501.0,63.0,69.0,30.0,88.0,2305.501
2305511.0,63.0,70.0,27.0,88.0,2305.511
2305521.0,63.0,68.0,25.0,88.0,2305.521
2305531.0,62.0,64.0,26.0,95.0,2305.531
2305541.0,63.0,64.0,38.0,90.0,2305.541
2305551.0,64.0,62.0,41.0,93.0,2305.551
2305561.0,64.0,60.0,36.0,92.0,2305.561
2305571.0,65.0,58.0,33.0,95.0,2305.571
2305581.0,65.0,57.0,28.0,99.0,2305.581
2305591.0,66.0,55.0,26.0,107.0,2305.591
2305601.0,67.0,54.0,25.0,107.0,2305.601
2305611.0,64.0,53.0,26.0,108.0,2305.611
2305622.0,67.0,56.0,37.0,113.0,2305.622
2305632.0,64.0,54.0,34.0,109.0,2305.632
2305642.0,66.0,55.0,33.0,102.0,2305.642
2305652.0,65.0,54.0,34.0,100.0,2305.652
2305662.0,65.0,55.0,31.0,105.0,2305.662
2305672.0,66.0,55.0,28.0,112.0,2305.672
2305682.0,65.0,56.0,24.0,109.0,2305.682
2305692.0,67.0,55.0,30.0,104.0,2305.692
2305702.0,67.0,58.0,42.0,99.0,2305.702
2305712.0,66.0,58.0,40.0,107.0,2305.712
2305722.0,68.0,60.0,36.0,107.0,2305.722
2305732.0,67.0,59.0,31.0,102.0,2305.732
2305742.0,65.0,56.0,32.0,100.0,2305.742
2305752.0,64.0,56.0,33.0,98.0,2305.752
2305762.0,64.0,56.0,29.0,90.0,2305.762
2305772.0,62.0,56.0,31.0,91.0,2305.772
2305782.0,62.0,57.0,34.0,99.0,2305.782
2305792.0,62.0,56.0,35.0,104.0,2305.792
2305802.0,61.0,55.0,31.0,102.0,2305.802
2305812.0,61.0,52.0,28.0,104.0,2305.812
2305822.0,60.0,51.0,28.0,96.0,2305.822
2305832.0,60.0,50.0,25.0,101.0,2305.832
2305842.0,61.0,51.0,23.0,97.0,2305.842
2305852.0,59.0,50.0,23.0,98.0,2305.852
2305862.0,60.0,49.0,32.0,105.0,2305.862
2305872.0,61.0,50.0,35.0,100.0,2305.872
2305882.0,61.0,49.0,37.0,98.0,2305.882
2305892.0,62.0,49.0,35.0,96.0,2305.892
2305902.0,61.0,48.0,32.0,97.0,2305.902
2305912.0,61.0,46.0,27.0,88.0,2305.912
2305922.0,58.0,45.0,29.0,98.0,2305.922
2305932.0,59.0,44.0,30.0,93.0,2305.932
2305942.0,57.0,44.0,39.0,90.0,2305.942
2305952.0,58.0,44.0,45.0,89.0,2305.952
2305963.0,57.0,43.0,51.0,87.0,2305.963
2305973.0,57.0,43.0,44.0,86.0,2305.973
2305983.0,57.0,42.0,42.0,88.0,2305.983
2305993.0,58.0,41.0,36.0,90.0,2305.993
2306003.0,58.0,41.0,38.0,96.0,2306.003
2306013.0,59.0,44.0,54.0,93.0,2306.013
2306023.0,59.0,43.0,49.0,88.0,2306.023
2306033.0,59.0,42.0,45.0,94.0,2306.033
2306043.0,61.0,42.0,39.0,89.0,2306.043
2306053.0,60.0,41.0,35.0,87.0,2306.053
2306063.0,64.0,40.0,39.0,81.0,2306.063
2306073.0,63.0,39.0,34.0,95.0,2306.073
2306083.0,64.0,43.0,44.0,91.0,2306.083
2306093.0,63.0,44.0,42.0,89.0,2306.093
2306103.0,65.0,42.0,38.0,89.0,2306.103
2306113.0,64.0,42.0,38.0,88.0,2306.113
2306123.0,65.0,42.0,39.0,82.0,2306.123
2306134.0,64.0,40.0,36.0,78.0,2306.134
2306144.0,62.0,40.0,32.0,83.0,2306.144
2306154.0,62.0,40.0,44.0,82.0,2306.154
2306164.0,61.0,43.0,46.0,83.0,2306.164
2306174.0,60.0,46.0,42.0,80.0,2306.174
2306184.0,59.0,47.0,40.0,85.0,2306.184
2306194.0,60.0,48.0,50.0,83.0,2306.194
2306204.0,58.0,47.0,48.0,80.0,2306.204
2306214.0,58.0,46.0,42.0,79.0,2306.214
2306224.0,59.0,43.0,37.0,83.0,2306.224
2306234.0,57.0,42.0,32.0,99.0,2306.234
2306244.0,57.0,42.0,29.0,93.0,2306.244
2306254.0,56.0,41.0,26.0,100.0,2306.254
2306264.0,57.0,40.0,25.0,96.0,2306.264
2306274.0,58.0,41.0,32.0,99.0,2306.274
2306284.0,58.0,42.0,42.0,103.0,2306.284
2306294.0,60.0,41.0,38.0,119.0,2306.294
2306304.0,61.0,42.0,39.0,124.0,2306.304
2306314.0,63.0,43.0,34.0,117.0,2306.314
2306324.0,64.0,42.0,30.0,114.0,2306.324
2306334.0,65.0,41.0,29.0,125.0,2306.334
2306344.0,68.0,41.0,31.0,115.0,2306.344
2306354.0,68.0,41.0,30.0,117.0,2306.354
2306364.0,68.0,43.0,40.0,133.0,2306.364
2306374.0,70.0,45.0,37.0,126.0,2306.374
2306384.0,68.0,44.0,33.0,138.0,2306.384
2306394.0,69.0,44.0,31.0,137.0,2306.394
2306404.0,67.0,42.0,33.0,132.0,2306.404
2306414.0,69.0,43.0,35.0,121.0,2306.414
2306424.0,68.0,43.0,31.0,114.0,2306.424
2306434.0,68.0,42.0,28.0,104.0,2306.434
2306444.0,67.0,41.0,41.0,104.0,2306.444
2306454.0,67.0,41.0,38.0,103.0,2306.454
2306464.0,68.0,40.0,38.0,98.0,2306.464
2306475.0,68.0,41.0,37.0,92.0,2306.475
2306485.0,68.0,40.0,33.0,86.0,2306.485
2306495.0,67.0,39.0,29.0,78.0,2306.495
2306505.0,66.0,38.0,24.0,85.0,2306.505
2306515.0,65.0,37.0,23.0,87.0,2306.515
2306525.0,64.0,42.0,29.0,85.0,2306.525
2306535.0,64.0,41.0,27.0,80.0,2306.535
2306545.0,62.0,40.0,29.0,82.0,2306.545
2306555.0,60.0,39.0,28.0,79.0,2306.555
2306565.0,60.0,39.0,26.0,87.0,2306.565
2306575.0,60.0,39.0,24.0,87.0,2306.575
2306585.0,59.0,39.0,25.0,86.0,2306.585
2306595.0,60.0,41.0,36.0,89.0,2306.595
2306605.0,59.0,41.0,39.0,84.0,2306.605
2306615.0,60.0,39.0,36.0,84.0,2306.615
2306625.0,59.0,40.0,34.0,82.0,2306.625
2306635.0,59.0,39.0,35.0,78.0,2306.635
2306646.0,59.0,39.0,31.0,79.0,2306.646
2306656.0,58.0,41.0,39.0,83.0,2306.656
2306666.0,58.0,40.0,37.0,82.0,2306.666
2306676.0,59.0,40.0,32.0,81.0,2306.676
2306686.0,59.0,39.0,31.0,81.0,2306.686
2306696.0,58.0,40.0,28.0,80.0,2306.696
2306706.0,59.0,39.0,27.0,77.0,2306.706
2306716.0,59.0,42.0,27.0,79.0,2306.716
2306726.0,60.0,41.0,26.0,85.0,2306.726
2306736.0,61.0,41.0,38.0,85.0,2306.736
2306746.0,61.0,43.0,38.0,87.0,2306.746
2306756.0,64.0,41.0,44.0,88.0,2306.756
2306766.0,65.0,42.0,51.0,90.0,2306.766
2306776.0,66.0,43.0,45.0,85.0,2306.776
2306786.0,67.0,43.0,40.0,83.0,2306.786
2306796.0,67.0,43.0,36.0,79.0,2306.796
2306806.0,67.0,45.0,49.0,76.0,2306.806
2306816.0,67.0,45.0,51.0,74.0,2306.816
2306826.0,69.0,44.0,45.0,74.0,2306.826
2306836.0,68.0,42.0,38.0,72.0,2306.836
2306846.0,69.0,42.0,36.0,77.0,2306.846
2306856.0,70.0,41.0,36.0,86.0,2306.856
2306866.0,69.0,41.0,32.0,84.0,2306.866
2306876.0,68.0,40.0,29.0,77.0,2306.876
2306886.0,68.0,40.0,26.0,79.0,2306.886
2306896.0,67.0,42.0,34.0,78.0,2306.896
2306906.0,68.0,42.0,35.0,74.0,2306.906
2306916.0,67.0,41.0,31.0,77.0,2306.916
2306926.0,69.0,39.0,33.0,77.0,2306.926
2306936.0,68.0,39.0,28.0,76.0,2306.936
2306946.0,68.0,38.0,26.0,69.0,2306.946
2306956.0,69.0,38.0,22.0,68.0,2306.956
2306966.0,69.0,39.0,19.0,66.0,2306.966
2306976.0,69.0,38.0,25.0,82.0,2306.976
2306987.0,70.0,41.0,41.0,81.0,2306.987
2306997.0,71.0,40.0,41.0,79.0,2306.997
2307007.0,71.0,41.0,35.0,75.0,2307.007
2307017.0,70.0,40.0,32.0,72.0,2307.017
2307027.0,69.0,40.0,29.0,67.0,2307.027
2307037.0,70.0,40.0,26.0,68.0,2307.037
2307047.0,69.0,42.0,46.0,71.0,2307.047
2307057.0,69.0,43.0,41.0,72.0,2307.057
2307067.0,68.0,40.0,37.0,67.0,2307.067
2307077.0,67.0,40.0,35.0,67.0,2307.077
2307087.0,67.0,39.0,33.0,67.0,2307.087
2307097.0,65.0,39.0,29.0,71.0,2307.097
2307107.0,66.0,39.0,26.0,72.0,2307.107
2307117.0,65.0,40.0,26.0,69.0,2307.117
2307127.0,65.0,41.0,35.0,68.0,2307.127
2307137.0,65.0,40.0,39.0,65.0,2307.137
2307147.0,65.0,39.0,38.0,64.0,2307.147
2307158.0,65.0,39.0,32.0,61.0,2307.158
2307168.0,63.0,41.0,29.0,68.0,2307.168
2307178.0,63.0,43.0,29.0,68.0,2307.178
2307188.0,62.0,44.0,38.0,68.0,2307.188
2307198.0,62.0,43.0,43.0,69.0,2307.198
2307208.0,63.0,42.0,41.0,66.0,2307.208
2307218.0,62.0,43.0,42.0,63.0,2307.218
2307228.0,60.0,43.0,42.0,64.0,2307.228
2307238.0,61.0,42.0,37.0,60.0,2307.238
2307248.0,61.0,45.0,41.0,60.0,2307.248
2307258.0,61.0,44.0,40.0,62.0,2307.258
2307268.0,60.0,44.0,37.0,62.0,2307.268
2307278.0,59.0,43.0,36.0,71.0,2307.278
2307288.0,61.0,43.0,36.0,75.0,2307.288
2307298.0,60.0,45.0,46.0,73.0,2307.298
2307308.0,60.0,44.0,46.0,72.0,2307.308
2307318.0,60.0,45.0,42.0,77.0,2307.318
2307328.0,60.0,44.0,40.0,75.0,2307.328
2307338.0,62.0,42.0,42.0,71.0,2307.338
2307348.0,62.0,42.0,37.0,71.0,2307.348
2307358.0,63.0,40.0,34.0,67.0,2307.358
2307368.0,61.0,40.0,32.0,66.0,2307.368
2307378.0,61.0,42.0,51.0,70.0,2307.378
2307388.0,61.0,41.0,48.0,69.0,2307.388
2307398.0,61.0,41.0,45.0,83.0,2307.398
2307408.0,62.0,40.0,42.0,76.0,2307.408
2307418.0,61.0,41.0,37.0,73.0,2307.418
2307428.0,62.0,41.0,34.0,76.0,2307.428
2307438.0,62.0,43.0,47.0,73.0,2307.438
2307448.0,60.0,43.0,51.0,78.0,2307.448
2307458.0,62.0,42.0,47.0,79.0,2307.458
2307468.0,63.0,44.0,42.0,81.0,2307.468
2307478.0,62.0,42.0,37.0,74.0,2307.478
2307488.0,63.0,44.0,33.0,80.0,2307.488
2307499.0,60.0,44.0,30.0,77.0,2307.499
2307509.0,63.0,43.0,27.0,73.0,2307.509
2307519.0,60.0,45.0,39.0,81.0,2307.519
2307529.0,61.0,43.0,43.0,80.0,2307.529
2307539.0,61.0,44.0,39.0,80.0,2307.539
2307549.0,62.0,44.0,34.0,76.0,2307.549
2307559.0,62.0,43.0,31.0,73.0,2307.559
2307569.0,61.0,45.0,42.0,72.0,2307.569
2307579.0,62.0,44.0,44.0,77.0,2307.579
2307589.0,62.0,44.0,38.0,74.0,2307.589
2307599.0,62.0,45.0,35.0,69.0,2307.599
2307609.0,64.0,45.0,33.0,67.0,2307.609
2307619.0,62.0,45.0,31.0,63.0,2307.619
2307629.0,64.0,44.0,28.0,60.0,2307.629
2307639.0,61.0,48.0,40.0,64.0,2307.639
2307649.0,62.0,47.0,41.0,64.0,2307.649
2307659.0,62.0,46.0,36.0,77.0,2307.659
2307670.0,61.0,47.0,34.0,75.0,2307.67
2307680.0,62.0,45.0,29.0,74.0,2307.68
2307690.0,62.0,48.0,42.0,76.0,2307.69
2307700.0,61.0,46.0,40.0,80.0,2307.7
2307710.0,60.0,49.0,41.0,92.0,2307.71
2307720.0,63.0,48.0,40.0,101.0,2307.72
2307730.0,63.0,48.0,36.0,99.0,2307.73
2307740.0,64.0,49.0,45.0,91.0,2307.74
2307750.0,63.0,47.0,42.0,83.0,2307.75
2307760.0,62.0,48.0,37.0,81.0,2307.76
2307770.0,62.0,47.0,39.0,82.0,2307.77
2307780.0,61.0,48.0,35.0,80.0,2307.78
2307790.0,61.0,48.0,35.0,79.0,2307.79
2307800.0,61.0,47.0,36.0,79.0,2307.8
2307810.0,59.0,48.0,49.0,84.0,2307.81
2307820.0,60.0,47.0,49.0,82.0,2307.82
2307830.0,61.0,46.0,42.0,76.0,2307.83
2307840.0,61.0,44.0,40.0,75.0,2307.84
2307850.0,60.0,44.0,40.0,73.0,2307.85
2307860.0,59.0,45.0,36.0,74.0,2307.86
2307870.0,60.0,45.0,46.0,71.0,2307.87
2307880.0,62.0,44.0,43.0,68.0,2307.88
2307890.0,62.0,43.0,41.0,65.0,2307.89
2307900.0,61.0,42.0,36.0,67.0,2307.9
2307910.0,61.0,42.0,33.0,68.0,2307.91
2307920.0,63.0,41.0,30.0,69.0,2307.92
2307930.0,62.0,43.0,37.0,72.0,2307.93
2307940.0,62.0,42.0,41.0,67.0,2307.94
2307950.0,61.0,42.0,38.0,70.0,2307.95
2307960.0,63.0,41.0,35.0,66.0,2307.96
