time (ms),signal 0,signal 1,signal 2,signal3,time (sec)
2349252.0,53.0,37.0,7.0,104.0,2349.252
2349262.0,52.0,37.0,7.0,104.0,2349.262
2349272.0,52.0,37.0,6.0,97.0,2349.272
2349282.0,50.0,38.0,7.0,93.0,2349.282
2349292.0,49.0,37.0,6.0,92.0,2349.292
2349302.0,49.0,38.0,6.0,92.0,2349.302
2349312.0,48.0,37.0,6.0,93.0,2349.312
2349322.0,49.0,39.0,6.0,92.0,2349.322
2349332.0,48.0,39.0,6.0,88.0,2349.332
2349342.0,48.0,39.0,4.0,101.0,2349.342
2349352.0,46.0,40.0,5.0,103.0,2349.352
2349362.0,47.0,40.0,5.0,116.0,2349.362
2349372.0,48.0,42.0,5.0,106.0,2349.372
2349382.0,48.0,41.0,5.0,96.0,2349.382
2349392.0,48.0,42.0,4.0,88.0,2349.392
2349402.0,48.0,42.0,5.0,95.0,2349.402
2349412.0,49.0,41.0,4.0,112.0,2349.412
2349422.0,48.0,42.0,4.0,120.0,2349.422
2349432.0,47.0,41.0,4.0,112.0,2349.432
2349442.0,47.0,43.0,5.0,117.0,2349.442
2349452.0,47.0,43.0,8.0,106.0,2349.452
2349462.0,46.0,44.0,9.0,108.0,2349.462
2349472.0,46.0,43.0,8.0,110.0,2349.472
2349483.0,46.0,45.0,7.0,103.0,2349.483
2349493.0,46.0,45.0,6.0,95.0,2349.493
2349503.0,44.0,47.0,7.0,87.0,2349.503
2349513.0,44.0,48.0,7.0,84.0,2349.513
2349523.0,43.0,50.0,6.0,90.0,2349.523
2349533.0,44.0,52.0,6.0,89.0,2349.533
2349543.0,44.0,50.0,5.0,84.0,2349.543
2349553.0,43.0,50.0,6.0,89.0,2349.553
2349563.0,42.0,51.0,6.0,86.0,2349.563
2349573.0,44.0,51.0,10.0,99.0,2349.573
2349583.0,44.0,51.0,12.0,140.0,2349.583
2349593.0,46.0,49.0,11.0,161.0,2349.593
2349603.0,46.0,48.0,10.0,159.0,2349.603
2349613.0,45.0,47.0,9.0,167.0,2349.613
2349623.0,47.0,47.0,10.0,158.0,2349.623
2349633.0,46.0,46.0,8.0,164.0,2349.633
2349643.0,45.0,45.0,8.0,153.0,2349.643
2349654.0,45.0,45.0,7.0,154.0,2349.654
2349664.0,45.0,44.0,10.0,144.0,2349.664
2349674.0,44.0,42.0,10.0,147.0,2349.674
2349684.0,44.0,44.0,9.0,147.0,2349.684
2349694.0,45.0,45.0,9.0,134.0,2349.694
2349704.0,43.0,46.0,7.0,125.0,2349.704
2349714.0,42.0,47.0,6.0,124.0,2349.714
2349724.0,42.0,47.0,7.0,120.0,2349.724
2349734.0,42.0,48.0,6.0,114.0,2349.734
2349744.0,41.0,47.0,6.0,103.0,2349.744
2349754.0,41.0,48.0,5.0,108.0,2349.754
2349764.0,42.0,49.0,7.0,107.0,2349.764
2349774.0,42.0,50.0,6.0,111.0,2349.774
2349784.0,42.0,52.0,6.0,107.0,2349.784
2349794.0,42.0,52.0,6.0,97.0,2349.794
2349804.0,41.0,56.0,6.0,89.0,2349.804
2349814.0,42.0,55.0,5.0,83.0,2349.814
2349824.0,41.0,58.0,5.0,80.0,2349.824
2349834.0,45.0,65.0,5.0,83.0,2349.834
2349844.0,57.0,87.0,6.0,88.0,2349.844
2349854.0,58.0,85.0,4.0,87.0,2349.854
2349864.0,76.0,120.0,7.0,94.0,2349.864
2349874.0,86.0,119.0,7.0,95.0,2349.874
2349884.0,90.0,122.0,6.0,92.0,2349.884
2349894.0,90.0,121.0,6.0,84.0,2349.894
2349904.0,87.0,120.0,5.0,89.0,2349.904
2349914.0,91.0,117.0,5.0,97.0,2349.914
2349924.0,88.0,114.0,4.0,109.0,2349.924
2349934.0,96.0,136.0,6.0,103.0,2349.934
2349944.0,98.0,133.0,7.0,107.0,2349.944
2349954.0,97.0,126.0,6.0,100.0,2349.954
2349964.0,100.0,136.0,12.0,120.0,2349.964
2349974.0,96.0,144.0,11.0,116.0,2349.974
2349984.0,99.0,170.0,15.0,125.0,2349.984
2349995.0,100.0,185.0,16.0,127.0,2349.995
2350005.0,97.0,171.0,15.0,129.0,2350.005
2350015.0,96.0,185.0,14.0,140.0,2350.015
2350025.0,92.0,186.0,12.0,134.0,2350.025
2350035.0,92.0,181.0,12.0,139.0,2350.035
2350045.0,86.0,188.0,14.0,132.0,2350.045
2350055.0,84.0,199.0,20.0,130.0,2350.055
2350065.0,79.0,217.0,25.0,121.0,2350.065
2350075.0,78.0,239.0,39.0,120.0,2350.075
2350085.0,76.0,253.0,50.0,132.0,2350.085
2350095.0,76.0,295.0,54.0,144.0,2350.095
2350105.0,80.0,304.0,64.0,144.0,2350.105
2350115.0,81.0,314.0,75.0,181.0,2350.115
2350125.0,94.0,324.0,71.0,196.0,2350.125
2350135.0,92.0,351.0,78.0,242.0,2350.135
2350145.0,92.0,365.0,85.0,252.0,2350.145
2350155.0,98.0,379.0,78.0,266.0,2350.155
2350166.0,94.0,418.0,76.0,269.0,2350.166
2350176.0,91.0,456.0,81.0,298.0,2350.176
2350186.0,91.0,495.0,83.0,316.0,2350.186
2350196.0,95.0,536.0,75.0,323.0,2350.196
2350206.0,102.0,574.0,65.0,309.0,2350.206
2350216.0,419.0,607.0,62.0,312.0,2350.216
2350226.0,289.0,640.0,58.0,321.0,2350.226
2350236.0,222.0,664.0,50.0,351.0,2350.236
2350246.0,175.0,663.0,49.0,352.0,2350.246
2350256.0,42.0,663.0,57.0,348.0,2350.256
2350266.0,0.0,663.0,71.0,327.0,2350.266
2350276.0,0.0,663.0,80.0,319.0,2350.276
2350286.0,0.0,663.0,92.0,313.0,2350.286
2350296.0,0.0,663.0,101.0,304.0,2350.296
2350306.0,0.0,664.0,115.0,285.0,2350.306
2350316.0,1.0,662.0,130.0,278.0,2350.316
2350326.0,1.0,663.0,141.0,264.0,2350.326
2350336.0,0.0,663.0,148.0,270.0,2350.336
2350346.0,1.0,663.0,163.0,251.0,2350.346
2350356.0,0.0,663.0,170.0,233.0,2350.356
2350366.0,0.0,663.0,175.0,225.0,2350.366
2350376.0,0.0,663.0,179.0,217.0,2350.376
2350386.0,0.0,663.0,183.0,208.0,2350.386
2350396.0,1.0,663.0,181.0,223.0,2350.396
2350406.0,0.0,663.0,163.0,227.0,2350.406
2350416.0,0.0,663.0,155.0,217.0,2350.416
2350426.0,0.0,662.0,148.0,211.0,2350.426
2350436.0,0.0,663.0,147.0,204.0,2350.436
2350446.0,0.0,663.0,143.0,203.0,2350.446
2350456.0,0.0,662.0,138.0,206.0,2350.456
2350466.0,0.0,663.0,132.0,214.0,2350.466
2350476.0,0.0,662.0,129.0,216.0,2350.476
2350486.0,1.0,663.0,128.0,199.0,2350.486
2350496.0,0.0,662.0,124.0,188.0,2350.496
2350507.0,0.0,662.0,122.0,179.0,2350.507
2350517.0,0.0,664.0,119.0,177.0,2350.517
2350527.0,0.0,663.0,117.0,170.0,2350.527
2350537.0,0.0,663.0,122.0,184.0,2350.537
2350547.0,0.0,662.0,123.0,188.0,2350.547
2350557.0,0.0,663.0,121.0,196.0,2350.557
2350567.0,0.0,662.0,119.0,198.0,2350.567
2350577.0,0.0,662.0,118.0,204.0,2350.577
2350587.0,1.0,663.0,111.0,271.0,2350.587
2350597.0,0.0,663.0,105.0,265.0,2350.597
2350607.0,1.0,663.0,107.0,288.0,2350.607
2350617.0,0.0,662.0,93.0,298.0,2350.617
2350627.0,1.0,662.0,90.0,295.0,2350.627
2350637.0,0.0,663.0,84.0,316.0,2350.637
2350647.0,0.0,663.0,95.0,383.0,2350.647
2350657.0,669.0,655.0,107.0,440.0,2350.657
2350667.0,666.0,617.0,114.0,442.0,2350.667
2350678.0,655.0,576.0,123.0,505.0,2350.678
2350688.0,661.0,545.0,127.0,524.0,2350.688
2350698.0,646.0,505.0,123.0,497.0,2350.698
2350708.0,636.0,474.0,118.0,521.0,2350.708
2350718.0,667.0,441.0,122.0,556.0,2350.718
2350728.0,653.0,418.0,119.0,541.0,2350.728
2350738.0,667.0,400.0,109.0,504.0,2350.738
2350748.0,210.0,384.0,106.0,584.0,2350.748
2350758.0,662.0,372.0,106.0,588.0,2350.758
2350768.0,662.0,358.0,101.0,581.0,2350.768
2350778.0,635.0,347.0,91.0,561.0,2350.778
2350788.0,650.0,340.0,80.0,534.0,2350.788
2350798.0,636.0,330.0,73.0,512.0,2350.798
2350808.0,612.0,324.0,65.0,488.0,2350.808
2350818.0,646.0,308.0,59.0,471.0,2350.818
2350828.0,650.0,301.0,59.0,488.0,2350.828
2350838.0,652.0,290.0,60.0,473.0,2350.838
2350848.0,647.0,280.0,59.0,458.0,2350.848
2350858.0,637.0,295.0,53.0,439.0,2350.858
2350868.0,634.0,278.0,60.0,423.0,2350.868
2350878.0,633.0,285.0,58.0,406.0,2350.878
2350888.0,610.0,289.0,60.0,388.0,2350.888
2350898.0,613.0,270.0,69.0,383.0,2350.898
2350908.0,618.0,268.0,78.0,370.0,2350.908
2350918.0,194.0,255.0,79.0,350.0,2350.918
2350928.0,667.0,256.0,90.0,340.0,2350.928
2350938.0,668.0,254.0,104.0,333.0,2350.938
2350948.0,668.0,255.0,126.0,323.0,2350.948
2350958.0,668.0,240.0,149.0,316.0,2350.958
2350968.0,669.0,227.0,171.0,306.0,2350.968
2350978.0,668.0,218.0,189.0,297.0,2350.978
2350988.0,669.0,217.0,229.0,287.0,2350.988
2350998.0,667.0,226.0,281.0,287.0,2350.998
2351008.0,667.0,209.0,323.0,288.0,2351.008
2351019.0,667.0,208.0,339.0,289.0,2351.019
2351029.0,660.0,201.0,327.0,288.0,2351.029
2351039.0,667.0,191.0,303.0,278.0,2351.039
2351049.0,201.0,181.0,272.0,281.0,2351.049
2351059.0,91.0,186.0,238.0,267.0,2351.059
2351069.0,2.0,191.0,222.0,253.0,2351.069
2351079.0,0.0,204.0,224.0,240.0,2351.079
2351089.0,0.0,217.0,234.0,240.0,2351.089
2351099.0,667.0,214.0,230.0,262.0,2351.099
2351109.0,667.0,202.0,226.0,271.0,2351.109
2351119.0,668.0,193.0,231.0,269.0,2351.119
2351129.0,668.0,176.0,239.0,264.0,2351.129
2351139.0,668.0,170.0,249.0,271.0,2351.139
2351149.0,668.0,166.0,260.0,265.0,2351.149
2351159.0,667.0,153.0,270.0,255.0,2351.159
2351169.0,667.0,145.0,286.0,245.0,2351.169
2351179.0,667.0,139.0,287.0,305.0,2351.179
2351190.0,667.0,150.0,293.0,282.0,2351.19
2351200.0,667.0,144.0,308.0,299.0,2351.2
2351210.0,667.0,141.0,295.0,360.0,2351.21
2351220.0,667.0,131.0,290.0,388.0,2351.22
2351230.0,652.0,127.0,297.0,375.0,2351.23
2351240.0,661.0,122.0,298.0,361.0,2351.24
2351250.0,628.0,126.0,299.0,350.0,2351.25
2351260.0,598.0,131.0,308.0,384.0,2351.26
2351270.0,648.0,121.0,307.0,443.0,2351.27
2351280.0,276.0,115.0,297.0,419.0,2351.28
2351290.0,664.0,116.0,302.0,400.0,2351.29
2351300.0,655.0,116.0,297.0,384.0,2351.3
2351310.0,659.0,127.0,299.0,382.0,2351.31
2351320.0,665.0,125.0,289.0,396.0,2351.32
2351330.0,666.0,121.0,286.0,367.0,2351.33
2351340.0,665.0,115.0,281.0,337.0,2351.34
2351350.0,667.0,115.0,277.0,319.0,2351.35
2351360.0,667.0,110.0,269.0,301.0,2351.36
2351370.0,666.0,104.0,263.0,279.0,2351.37
2351380.0,667.0,102.0,258.0,258.0,2351.38
2351390.0,667.0,106.0,244.0,252.0,2351.39
2351400.0,665.0,102.0,238.0,244.0,2351.4
2351410.0,655.0,97.0,227.0,251.0,2351.41
2351420.0,658.0,109.0,223.0,232.0,2351.42
2351430.0,662.0,105.0,211.0,223.0,2351.43
2351440.0,656.0,95.0,199.0,209.0,2351.44
2351450.0,663.0,91.0,192.0,198.0,2351.45
2351460.0,650.0,86.0,186.0,187.0,2351.46
2351470.0,636.0,84.0,190.0,167.0,2351.47
2351480.0,238.0,85.0,201.0,154.0,2351.48
2351490.0,188.0,83.0,185.0,149.0,2351.49
2351500.0,53.0,92.0,188.0,147.0,2351.5
2351510.0,1.0,115.0,261.0,168.0,2351.51
2351520.0,0.0,125.0,262.0,163.0,2351.52
2351531.0,0.0,128.0,241.0,160.0,2351.531
2351541.0,0.0,123.0,210.0,156.0,2351.541
2351551.0,0.0,122.0,241.0,164.0,2351.551
2351561.0,5.0,116.0,231.0,176.0,2351.561
2351571.0,1.0,112.0,250.0,190.0,2351.571
2351581.0,0.0,108.0,256.0,189.0,2351.581
2351591.0,0.0,101.0,244.0,180.0,2351.591
2351601.0,666.0,119.0,240.0,179.0,2351.601
2351611.0,667.0,134.0,213.0,175.0,2351.611
2351621.0,666.0,155.0,199.0,178.0,2351.621
2351631.0,668.0,178.0,198.0,176.0,2351.631
2351641.0,667.0,208.0,195.0,197.0,2351.641
2351651.0,667.0,228.0,200.0,195.0,2351.651
2351661.0,667.0,245.0,183.0,205.0,2351.661
2351671.0,668.0,271.0,202.0,224.0,2351.671
2351681.0,668.0,292.0,196.0,214.0,2351.681
2351691.0,667.0,307.0,197.0,201.0,2351.691
2351702.0,668.0,316.0,218.0,190.0,2351.702
2351712.0,668.0,322.0,263.0,172.0,2351.712
2351722.0,668.0,322.0,304.0,184.0,2351.722
2351732.0,669.0,316.0,349.0,176.0,2351.732
2351742.0,668.0,307.0,366.0,203.0,2351.742
2351752.0,668.0,299.0,385.0,213.0,2351.752
2351762.0,669.0,291.0,412.0,203.0,2351.762
2351772.0,669.0,282.0,448.0,206.0,2351.772
2351782.0,669.0,273.0,489.0,208.0,2351.782
2351792.0,668.0,265.0,500.0,189.0,2351.792
2351802.0,669.0,253.0,492.0,185.0,2351.802
2351812.0,669.0,241.0,477.0,200.0,2351.812
2351822.0,668.0,229.0,471.0,225.0,2351.822
2351832.0,668.0,218.0,462.0,242.0,2351.832
2351842.0,669.0,212.0,466.0,235.0,2351.842
2351852.0,669.0,206.0,488.0,223.0,2351.852
2351862.0,668.0,201.0,505.0,241.0,2351.862
2351872.0,668.0,195.0,512.0,245.0,2351.872
2351882.0,668.0,191.0,501.0,249.0,2351.882
2351892.0,669.0,189.0,509.0,254.0,2351.892
2351902.0,669.0,188.0,519.0,271.0,2351.902
2351912.0,668.0,189.0,521.0,271.0,2351.912
2351922.0,669.0,184.0,517.0,275.0,2351.922
2351932.0,669.0,186.0,524.0,271.0,2351.932
2351942.0,668.0,188.0,527.0,268.0,2351.942
2351952.0,670.0,191.0,539.0,269.0,2351.952
2351962.0,668.0,194.0,543.0,267.0,2351.962
2351972.0,669.0,193.0,547.0,263.0,2351.972
2351982.0,668.0,195.0,544.0,270.0,2351.982
2351992.0,669.0,197.0,542.0,274.0,2351.992
2352002.0,669.0,196.0,537.0,270.0,2352.002
2352012.0,668.0,196.0,532.0,273.0,2352.012
2352022.0,669.0,195.0,531.0,272.0,2352.022
2352032.0,669.0,196.0,534.0,274.0,2352.032
2352043.0,668.0,197.0,533.0,267.0,2352.043
2352053.0,668.0,197.0,532.0,264.0,2352.053
2352063.0,668.0,198.0,526.0,261.0,2352.063
2352073.0,669.0,198.0,527.0,258.0,2352.073
2352083.0,669.0,198.0,522.0,260.0,2352.083
2352093.0,669.0,197.0,522.0,260.0,2352.093
2352103.0,669.0,195.0,521.0,263.0,2352.103
2352113.0,669.0,196.0,521.0,262.0,2352.113
2352123.0,668.0,196.0,517.0,255.0,2352.123
2352133.0,668.0,196.0,516.0,247.0,2352.133
2352143.0,669.0,195.0,518.0,243.0,2352.143
2352153.0,668.0,194.0,514.0,244.0,2352.153
2352163.0,669.0,193.0,511.0,241.0,2352.163
2352173.0,668.0,195.0,505.0,233.0,2352.173
2352183.0,669.0,192.0,506.0,236.0,2352.183
2352193.0,669.0,192.0,490.0,234.0,2352.193
2352203.0,668.0,193.0,476.0,225.0,2352.203
2352214.0,669.0,193.0,472.0,218.0,2352.214
2352224.0,668.0,192.0,464.0,212.0,2352.224
2352234.0,668.0,191.0,453.0,212.0,2352.234
2352244.0,668.0,190.0,443.0,215.0,2352.244
2352254.0,668.0,189.0,437.0,210.0,2352.254
2352264.0,668.0,189.0,429.0,203.0,2352.264
2352274.0,668.0,187.0,416.0,201.0,2352.274
2352284.0,668.0,187.0,408.0,199.0,2352.284
2352294.0,668.0,186.0,392.0,202.0,2352.294
2352304.0,668.0,186.0,381.0,193.0,2352.304
2352314.0,668.0,187.0,373.0,189.0,2352.314
2352324.0,668.0,187.0,366.0,182.0,2352.324
2352334.0,668.0,186.0,357.0,182.0,2352.334
2352344.0,668.0,186.0,349.0,170.0,2352.344
2352354.0,668.0,186.0,339.0,171.0,2352.354
2352364.0,669.0,184.0,328.0,163.0,2352.364
2352374.0,668.0,183.0,314.0,162.0,2352.374
2352384.0,668.0,182.0,308.0,152.0,2352.384
2352394.0,668.0,184.0,302.0,150.0,2352.394
2352404.0,668.0,182.0,292.0,146.0,2352.404
2352414.0,668.0,180.0,286.0,145.0,2352.414
2352424.0,668.0,179.0,269.0,144.0,2352.424
2352434.0,668.0,176.0,264.0,143.0,2352.434
2352444.0,668.0,176.0,258.0,137.0,2352.444
2352454.0,668.0,175.0,251.0,134.0,2352.454
2352464.0,668.0,175.0,243.0,131.0,2352.464
2352474.0,668.0,175.0,234.0,128.0,2352.474
2352484.0,668.0,173.0,223.0,126.0,2352.484
2352494.0,668.0,173.0,214.0,122.0,2352.494
2352504.0,668.0,172.0,201.0,122.0,2352.504
2352514.0,668.0,171.0,195.0,119.0,2352.514
2352524.0,668.0,170.0,183.0,120.0,2352.524
2352534.0,668.0,170.0,175.0,118.0,2352.534
2352544.0,668.0,172.0,167.0,116.0,2352.544
2352555.0,668.0,169.0,161.0,111.0,2352.555
2352565.0,668.0,166.0,150.0,120.0,2352.565
2352575.0,668.0,165.0,146.0,114.0,2352.575
2352585.0,668.0,164.0,140.0,111.0,2352.585
2352595.0,668.0,162.0,134.0,104.0,2352.595
2352605.0,668.0,160.0,128.0,102.0,2352.605
2352615.0,668.0,160.0,124.0,95.0,2352.615
2352625.0,668.0,161.0,117.0,94.0,2352.625
2352635.0,667.0,160.0,111.0,89.0,2352.635
2352645.0,668.0,161.0,108.0,88.0,2352.645
2352655.0,669.0,159.0,104.0,94.0,2352.655
2352665.0,668.0,157.0,94.0,89.0,2352.665
2352675.0,668.0,158.0,93.0,84.0,2352.675
2352685.0,668.0,156.0,88.0,87.0,2352.685
2352695.0,668.0,156.0,84.0,81.0,2352.695
2352705.0,668.0,156.0,78.0,79.0,2352.705
2352715.0,667.0,154.0,73.0,75.0,2352.715
2352726.0,668.0,153.0,70.0,75.0,2352.726
2352736.0,667.0,151.0,64.0,70.0,2352.736
2352746.0,668.0,151.0,62.0,67.0,2352.746
2352756.0,667.0,149.0,59.0,67.0,2352.756
2352766.0,667.0,147.0,56.0,64.0,2352.766
2352776.0,668.0,146.0,55.0,64.0,2352.776
2352786.0,668.0,145.0,49.0,62.0,2352.786
2352796.0,667.0,144.0,48.0,59.0,2352.796
2352806.0,668.0,145.0,48.0,57.0,2352.806
2352816.0,668.0,144.0,42.0,59.0,2352.816
2352826.0,667.0,144.0,38.0,56.0,2352.826
2352836.0,668.0,145.0,34.0,56.0,2352.836
2352846.0,667.0,143.0,30.0,57.0,2352.846
2352856.0,667.0,143.0,28.0,59.0,2352.856
2352866.0,668.0,142.0,27.0,56.0,2352.866
2352876.0,667.0,142.0,24.0,56.0,2352.876
2352886.0,667.0,142.0,23.0,54.0,2352.886
2352896.0,667.0,141.0,22.0,54.0,2352.896
2352906.0,667.0,141.0,20.0,56.0,2352.906
2352916.0,668.0,140.0,19.0,54.0,2352.916
2352926.0,667.0,141.0,17.0,55.0,2352.926
2352936.0,668.0,140.0,17.0,55.0,2352.936
2352946.0,668.0,139.0,16.0,51.0,2352.946
2352956.0,667.0,140.0,14.0,53.0,2352.956
2352966.0,660.0,137.0,13.0,53.0,2352.966
2352976.0,653.0,137.0,11.0,52.0,2352.976
2352986.0,647.0,135.0,11.0,53.0,2352.986
2352996.0,640.0,132.0,14.0,54.0,2352.996
2353006.0,633.0,132.0,13.0,56.0,2353.006
2353016.0,627.0,131.0,16.0,62.0,2353.016
2353026.0,620.0,131.0,13.0,60.0,2353.026
2353036.0,614.0,130.0,13.0,55.0,2353.036
2353046.0,608.0,130.0,11.0,54.0,2353.046
2353056.0,601.0,128.0,10.0,53.0,2353.056
2353067.0,594.0,124.0,10.0,55.0,2353.067
2353077.0,588.0,125.0,10.0,58.0,2353.077
2353087.0,583.0,123.0,10.0,61.0,2353.087
2353097.0,576.0,120.0,8.0,58.0,2353.097
2353107.0,571.0,119.0,7.0,59.0,2353.107
2353117.0,564.0,117.0,8.0,61.0,2353.117
2353127.0,558.0,116.0,7.0,60.0,2353.127
2353137.0,552.0,113.0,7.0,62.0,2353.137
2353147.0,546.0,112.0,7.0,63.0,2353.147
2353157.0,542.0,112.0,7.0,63.0,2353.157
2353167.0,535.0,111.0,6.0,60.0,2353.167
2353177.0,531.0,111.0,6.0,60.0,2353.177
2353187.0,525.0,109.0,6.0,59.0,2353.187
2353197.0,519.0,108.0,6.0,65.0,2353.197
2353207.0,514.0,108.0,6.0,59.0,2353.207
2353217.0,507.0,107.0,5.0,57.0,2353.217
2353227.0,502.0,105.0,7.0,66.0,2353.227
2353238.0,499.0,104.0,6.0,64.0,2353.238
2353248.0,494.0,102.0,6.0,60.0,2353.248
2353258.0,490.0,101.0,5.0,57.0,2353.258
2353268.0,484.0,99.0,6.0,65.0,2353.268
2353278.0,479.0,96.0,5.0,62.0,2353.278
2353288.0,476.0,94.0,5.0,60.0,2353.288
2353298.0,471.0,92.0,5.0,63.0,2353.298
2353308.0,468.0,90.0,7.0,72.0,2353.308
2353318.0,463.0,88.0,6.0,72.0,2353.318
2353328.0,460.0,86.0,7.0,68.0,2353.328
2353338.0,458.0,87.0,7.0,67.0,2353.338
2353348.0,455.0,85.0,11.0,68.0,2353.348
2353358.0,452.0,85.0,9.0,68.0,2353.358
2353368.0,448.0,85.0,9.0,70.0,2353.368
2353378.0,446.0,83.0,8.0,67.0,2353.378
2353388.0,440.0,83.0,7.0,66.0,2353.388
2353398.0,437.0,83.0,7.0,68.0,2353.398
2353408.0,433.0,84.0,7.0,74.0,2353.408
2353418.0,429.0,84.0,7.0,77.0,2353.418
2353428.0,424.0,82.0,6.0,73.0,2353.428
2353438.0,419.0,82.0,6.0,69.0,2353.438
2353448.0,415.0,79.0,7.0,65.0,2353.448
2353458.0,410.0,78.0,5.0,76.0,2353.458
2353468.0,406.0,79.0,9.0,72.0,2353.468
2353478.0,403.0,77.0,8.0,68.0,2353.478
2353488.0,399.0,77.0,7.0,68.0,2353.488
2353498.0,394.0,74.0,7.0,66.0,2353.498
2353508.0,390.0,75.0,7.0,65.0,2353.508
2353518.0,387.0,75.0,7.0,65.0,2353.518
2353528.0,383.0,75.0,8.0,71.0,2353.528
2353538.0,382.0,76.0,7.0,67.0,2353.538
2353548.0,377.0,76.0,7.0,66.0,2353.548
2353558.0,374.0,77.0,7.0,64.0,2353.558
2353568.0,370.0,76.0,8.0,58.0,2353.568
2353579.0,367.0,77.0,9.0,63.0,2353.579
2353589.0,363.0,78.0,11.0,64.0,2353.589
2353599.0,360.0,79.0,9.0,67.0,2353.599
2353609.0,355.0,79.0,7.0,66.0,2353.609
2353619.0,350.0,79.0,8.0,69.0,2353.619
2353629.0,348.0,81.0,8.0,68.0,2353.629
2353639.0,345.0,81.0,7.0,68.0,2353.639
2353649.0,341.0,82.0,7.0,68.0,2353.649
2353659.0,339.0,82.0,8.0,67.0,2353.659
2353669.0,337.0,83.0,8.0,71.0,2353.669
2353679.0,334.0,83.0,6.0,70.0,2353.679
2353689.0,330.0,81.0,8.0,68.0,2353.689
2353699.0,327.0,84.0,8.0,66.0,2353.699
2353709.0,325.0,84.0,8.0,64.0,2353.709
2353719.0,323.0,86.0,7.0,63.0,2353.719
2353729.0,320.0,89.0,10.0,61.0,2353.729
2353739.0,318.0,91.0,9.0,59.0,2353.739
2353750.0,314.0,94.0,10.0,62.0,2353.75
2353760.0,311.0,93.0,13.0,57.0,2353.76
2353770.0,309.0,93.0,13.0,55.0,2353.77
2353780.0,305.0,93.0,11.0,50.0,2353.78
2353790.0,303.0,92.0,11.0,50.0,2353.79
2353800.0,301.0,91.0,9.0,51.0,2353.8
2353810.0,300.0,88.0,11.0,51.0,2353.81
2353820.0,298.0,86.0,11.0,52.0,2353.82
2353830.0,296.0,85.0,10.0,54.0,2353.83
2353840.0,294.0,83.0,11.0,52.0,2353.84
2353850.0,290.0,82.0,13.0,52.0,2353.85
2353860.0,289.0,80.0,14.0,52.0,2353.86
2353870.0,286.0,79.0,15.0,51.0,2353.87
2353880.0,285.0,78.0,14.0,50.0,2353.88
2353890.0,284.0,79.0,14.0,52.0,2353.89
2353900.0,281.0,77.0,12.0,49.0,2353.9
2353910.0,279.0,76.0,15.0,60.0,2353.91
2353920.0,278.0,76.0,14.0,58.0,2353.92
2353930.0,275.0,74.0,14.0,56.0,2353.93
2353940.0,273.0,71.0,13.0,58.0,2353.94
2353950.0,271.0,72.0,14.0,57.0,2353.95
2353960.0,269.0,71.0,12.0,57.0,2353.96
2353970.0,266.0,71.0,12.0,54.0,2353.97
2353980.0,264.0,69.0,15.0,64.0,2353.98
2353990.0,262.0,68.0,14.0,58.0,2353.99
2354000.0,259.0,68.0,12.0,63.0,2354.0
2354010.0,257.0,67.0,11.0,61.0,2354.01
2354020.0,254.0,66.0,11.0,58.0,2354.02
2354030.0,251.0,64.0,9.0,62.0,2354.03
2354040.0,250.0,65.0,8.0,64.0,2354.04
2354050.0,247.0,64.0,14.0,61.0,2354.05
2354060.0,246.0,65.0,14.0,62.0,2354.06
2354070.0,244.0,64.0,13.0,60.0,2354.07
2354080.0,242.0,63.0,15.0,62.0,2354.08
2354091.0,241.0,66.0,15.0,62.0,2354.091
2354101.0,243.0,64.0,14.0,61.0,2354.101
2354111.0,241.0,64.0,12.0,60.0,2354.111
2354121.0,240.0,64.0,12.0,63.0,2354.121
2354131.0,238.0,65.0,17.0,65.0,2354.131
2354141.0,238.0,65.0,16.0,60.0,2354.141
2354151.0,237.0,64.0,15.0,62.0,2354.151
2354161.0,235.0,63.0,15.0,62.0,2354.161
2354171.0,237.0,65.0,15.0,59.0,2354.171
2354181.0,234.0,63.0,13.0,62.0,2354.181
2354191.0,233.0,63.0,12.0,58.0,2354.191
2354201.0,231.0,60.0,13.0,63.0,2354.201
2354211.0,230.0,58.0,11.0,58.0,2354.211
2354221.0,231.0,56.0,14.0,60.0,2354.221
2354231.0,229.0,53.0,13.0,59.0,2354.231
2354241.0,230.0,53.0,14.0,61.0,2354.241
2354251.0,228.0,51.0,12.0,57.0,2354.251
2354262.0,227.0,49.0,11.0,53.0,2354.262
2354272.0,225.0,48.0,11.0,58.0,2354.272
2354282.0,224.0,47.0,10.0,56.0,2354.282
2354292.0,222.0,44.0,12.0,58.0,2354.292
2354302.0,220.0,45.0,11.0,63.0,2354.302
2354312.0,218.0,44.0,11.0,61.0,2354.312
2354322.0,214.0,42.0,10.0,60.0,2354.322
2354332.0,211.0,42.0,11.0,59.0,2354.332
2354342.0,209.0,40.0,10.0,64.0,2354.342
2354352.0,208.0,40.0,9.0,62.0,2354.352
2354362.0,205.0,38.0,9.0,60.0,2354.362
2354372.0,204.0,38.0,8.0,65.0,2354.372
2354382.0,201.0,38.0,9.0,66.0,2354.382
2354392.0,202.0,38.0,8.0,61.0,2354.392
2354402.0,201.0,37.0,7.0,64.0,2354.402
2354412.0,200.0,36.0,8.0,66.0,2354.412
2354422.0,199.0,37.0,10.0,67.0,2354.422
2354432.0,198.0,36.0,9.0,66.0,2354.432
2354442.0,199.0,36.0,8.0,65.0,2354.442
2354452.0,197.0,36.0,9.0,64.0,2354.452
2354462.0,196.0,35.0,9.0,65.0,2354.462
2354472.0,194.0,35.0,9.0,67.0,2354.472
2354482.0,192.0,35.0,10.0,64.0,2354.482
2354492.0,192.0,36.0,9.0,65.0,2354.492
2354502.0,188.0,34.0,8.0,70.0,2354.502
2354512.0,187.0,34.0,8.0,72.0,2354.512
2354522.0,186.0,34.0,7.0,72.0,2354.522
2354532.0,186.0,35.0,8.0,71.0,2354.532
2354542.0,184.0,34.0,10.0,72.0,2354.542
2354552.0,182.0,33.0,9.0,71.0,2354.552
2354562.0,181.0,33.0,9.0,71.0,2354.562
2354572.0,181.0,35.0,9.0,75.0,2354.572
2354582.0,180.0,34.0,9.0,79.0,2354.582
2354592.0,180.0,35.0,7.0,73.0,2354.592
2354603.0,180.0,35.0,8.0,73.0,2354.603
2354613.0,178.0,36.0,8.0,74.0,2354.613
2354623.0,177.0,36.0,10.0,75.0,2354.623
2354633.0,174.0,37.0,10.0,75.0,2354.633
2354643.0,174.0,37.0,11.0,74.0,2354.643
2354653.0,174.0,36.0,11.0,72.0,2354.653
2354663.0,173.0,36.0,10.0,74.0,2354.663
2354673.0,174.0,35.0,11.0,71.0,2354.673
2354683.0,173.0,35.0,11.0,71.0,2354.683
2354693.0,173.0,35.0,11.0,75.0,2354.693
2354703.0,173.0,35.0,11.0,73.0,2354.703
2354713.0,172.0,37.0,12.0,68.0,2354.713
2354723.0,174.0,35.0,11.0,68.0,2354.723
2354733.0,172.0,36.0,13.0,78.0,2354.733
2354743.0,171.0,35.0,12.0,73.0,2354.743
2354753.0,170.0,35.0,12.0,75.0,2354.753
2354763.0,168.0,35.0,13.0,74.0,2354.763
2354774.0,167.0,34.0,12.0,73.0,2354.774
2354784.0,165.0,35.0,11.0,74.0,2354.784
2354794.0,165.0,34.0,13.0,70.0,2354.794
2354804.0,164.0,34.0,15.0,76.0,2354.804
2354814.0,162.0,34.0,15.0,77.0,2354.814
2354824.0,162.0,34.0,15.0,70.0,2354.824
2354834.0,159.0,34.0,14.0,73.0,2354.834
2354844.0,157.0,33.0,14.0,69.0,2354.844
2354854.0,157.0,34.0,13.0,74.0,2354.854
2354864.0,155.0,33.0,13.0,71.0,2354.864
2354874.0,155.0,34.0,14.0,72.0,2354.874
2354884.0,153.0,34.0,13.0,73.0,2354.884
2354894.0,154.0,34.0,16.0,72.0,2354.894
2354904.0,152.0,35.0,14.0,70.0,2354.904
2354914.0,152.0,35.0,14.0,68.0,2354.914
2354924.0,152.0,36.0,15.0,71.0,2354.924
2354934.0,151.0,36.0,14.0,66.0,2354.934
2354944.0,152.0,34.0,14.0,65.0,2354.944
2354954.0,153.0,35.0,13.0,69.0,2354.954
2354964.0,155.0,35.0,16.0,67.0,2354.964
2354974.0,154.0,35.0,14.0,66.0,2354.974
2354984.0,154.0,36.0,14.0,65.0,2354.984
2354994.0,153.0,35.0,13.0,64.0,2354.994
2355004.0,153.0,36.0,13.0,64.0,2355.004
2355014.0,152.0,36.0,12.0,67.0,2355.014
2355024.0,152.0,35.0,12.0,64.0,2355.024
2355034.0,152.0,34.0,15.0,64.0,2355.034
2355044.0,152.0,35.0,14.0,66.0,2355.044
2355054.0,151.0,35.0,12.0,64.0,2355.054
2355064.0,150.0,36.0,15.0,64.0,2355.064
2355074.0,148.0,37.0,12.0,61.0,2355.074
2355084.0,148.0,38.0,13.0,60.0,2355.084
2355094.0,145.0,38.0,11.0,69.0,2355.094
2355104.0,145.0,39.0,14.0,67.0,2355.104
2355115.0,142.0,39.0,12.0,67.0,2355.115
2355125.0,140.0,39.0,12.0,65.0,2355.125
2355135.0,140.0,38.0,11.0,63.0,2355.135
2355145.0,139.0,40.0,10.0,63.0,2355.145
2355155.0,138.0,39.0,9.0,60.0,2355.155
2355165.0,137.0,40.0,8.0,62.0,2355.165
2355175.0,136.0,40.0,9.0,61.0,2355.175
2355185.0,136.0,39.0,8.0,61.0,2355.185
2355195.0,134.0,39.0,7.0,69.0,2355.195
2355205.0,133.0,39.0,7.0,64.0,2355.205
2355215.0,132.0,38.0,6.0,61.0,2355.215
2355225.0,134.0,38.0,6.0,68.0,2355.225
2355235.0,134.0,37.0,5.0,66.0,2355.235
2355245.0,135.0,39.0,8.0,64.0,2355.245
2355255.0,134.0,38.0,7.0,60.0,2355.255
2355265.0,132.0,38.0,7.0,60.0,2355.265
2355275.0,132.0,37.0,6.0,59.0,2355.275
2355286.0,130.0,37.0,6.0,59.0,2355.286
2355296.0,129.0,36.0,6.0,58.0,2355.296
2355306.0,130.0,36.0,6.0,60.0,2355.306
2355316.0,128.0,38.0,7.0,57.0,2355.316
2355326.0,129.0,38.0,7.0,55.0,2355.326
2355336.0,128.0,39.0,6.0,54.0,2355.336
2355346.0,126.0,39.0,6.0,52.0,2355.346
2355356.0,125.0,39.0,6.0,53.0,2355.356
2355366.0,124.0,40.0,6.0,53.0,2355.366
2355376.0,123.0,38.0,7.0,51.0,2355.376
2355386.0,123.0,38.0,7.0,51.0,2355.386
2355396.0,123.0,37.0,7.0,51.0,2355.396
2355406.0,124.0,38.0,6.0,50.0,2355.406
2355416.0,123.0,36.0,5.0,48.0,2355.416
2355426.0,122.0,36.0,6.0,54.0,2355.426
2355436.0,122.0,37.0,5.0,56.0,2355.436
2355446.0,120.0,34.0,6.0,54.0,2355.446
2355456.0,121.0,36.0,6.0,57.0,2355.456
2355466.0,121.0,37.0,7.0,56.0,2355.466
2355476.0,121.0,37.0,6.0,56.0,2355.476
2355486.0,120.0,39.0,6.0,55.0,2355.486
2355496.0,120.0,40.0,5.0,61.0,2355.496
2355506.0,120.0,41.0,5.0,61.0,2355.506
2355516.0,119.0,40.0,6.0,64.0,2355.516
2355526.0,119.0,42.0,7.0,61.0,2355.526
2355536.0,120.0,43.0,8.0,62.0,2355.536
2355546.0,120.0,44.0,6.0,63.0,2355.546
2355556.0,118.0,46.0,6.0,60.0,2355.556
2355566.0,118.0,47.0,8.0,61.0,2355.566
2355576.0,116.0,51.0,9.0,65.0,2355.576
2355586.0,117.0,51.0,11.0,65.0,2355.586
2355596.0,117.0,54.0,9.0,70.0,2355.596
2355606.0,116.0,55.0,8.0,65.0,2355.606
2355616.0,117.0,55.0,8.0,64.0,2355.616
2355627.0,116.0,55.0,8.0,64.0,2355.627
2355637.0,116.0,55.0,8.0,63.0,2355.637
2355647.0,116.0,54.0,8.0,63.0,2355.647
2355657.0,118.0,55.0,7.0,69.0,2355.657
2355667.0,117.0,54.0,8.0,66.0,2355.667
2355677.0,117.0,55.0,7.0,61.0,2355.677
2355687.0,119.0,55.0,7.0,60.0,2355.687
2355697.0,118.0,57.0,6.0,62.0,2355.697
2355707.0,117.0,57.0,6.0,61.0,2355.707
2355717.0,116.0,57.0,6.0,70.0,2355.717
2355727.0,117.0,58.0,7.0,65.0,2355.727
2355737.0,115.0,58.0,7.0,64.0,2355.737
2355747.0,115.0,60.0,7.0,62.0,2355.747
2355757.0,116.0,61.0,7.0,62.0,2355.757
2355767.0,115.0,62.0,6.0,66.0,2355.767
2355777.0,114.0,62.0,6.0,65.0,2355.777
2355787.0,114.0,61.0,5.0,68.0,2355.787
2355798.0,112.0,61.0,6.0,71.0,2355.798
2355808.0,112.0,62.0,6.0,66.0,2355.808
2355818.0,109.0,61.0,5.0,66.0,2355.818
2355828.0,111.0,63.0,7.0,75.0,2355.828
2355838.0,110.0,64.0,6.0,73.0,2355.838
2355848.0,108.0,64.0,6.0,71.0,2355.848
2355858.0,108.0,65.0,5.0,70.0,2355.858
2355868.0,106.0,64.0,8.0,71.0,2355.868
2355878.0,106.0,64.0,10.0,66.0,2355.878
2355888.0,105.0,63.0,8.0,63.0,2355.888
2355898.0,106.0,63.0,9.0,67.0,2355.898
2355908.0,106.0,63.0,7.0,67.0,2355.908
2355918.0,103.0,62.0,7.0,67.0,2355.918
2355928.0,105.0,63.0,8.0,66.0,2355.928
2355938.0,105.0,62.0,9.0,69.0,2355.938
2355948.0,105.0,60.0,8.0,66.0,2355.948
2355958.0,105.0,60.0,8.0,71.0,2355.958
2355968.0,105.0,61.0,9.0,74.0,2355.968
2355978.0,105.0,61.0,9.0,75.0,2355.978
2355988.0,103.0,62.0,7.0,75.0,2355.988
2355998.0,103.0,62.0,7.0,71.0,2355.998
2356008.0,102.0,65.0,7.0,77.0,2356.008
2356018.0,102.0,65.0,6.0,83.0,2356.018
2356028.0,102.0,67.0,6.0,83.0,2356.028
2356038.0,102.0,68.0,5.0,77.0,2356.038
2356048.0,105.0,67.0,6.0,75.0,2356.048
2356058.0,106.0,69.0,6.0,75.0,2356.058
2356068.0,106.0,67.0,5.0,75.0,2356.068
2356078.0,106.0,67.0,6.0,78.0,2356.078
2356088.0,107.0,66.0,6.0,78.0,2356.088
2356098.0,107.0,64.0,6.0,78.0,2356.098
2356108.0,108.0,63.0,5.0,80.0,2356.108
2356118.0,109.0,62.0,7.0,83.0,2356.118
2356128.0,107.0,62.0,6.0,80.0,2356.128
2356139.0,107.0,61.0,5.0,75.0,2356.139
2356149.0,107.0,60.0,5.0,75.0,2356.149
2356159.0,107.0,59.0,6.0,74.0,2356.159
2356169.0,108.0,56.0,6.0,73.0,2356.169
2356179.0,107.0,54.0,5.0,69.0,2356.179
2356189.0,109.0,54.0,6.0,66.0,2356.189
2356199.0,108.0,52.0,5.0,70.0,2356.199
2356209.0,108.0,51.0,4.0,66.0,2356.209
2356219.0,108.0,51.0,5.0,65.0,2356.219
2356229.0,105.0,48.0,6.0,67.0,2356.229
2356239.0,106.0,48.0,6.0,62.0,2356.239
2356249.0,106.0,48.0,5.0,61.0,2356.249
2356259.0,106.0,48.0,6.0,60.0,2356.259
2356269.0,106.0,48.0,5.0,71.0,2356.269
2356279.0,103.0,48.0,8.0,69.0,2356.279
2356289.0,104.0,47.0,7.0,71.0,2356.289
2356299.0,104.0,47.0,7.0,67.0,2356.299
2356310.0,104.0,45.0,7.0,62.0,2356.31
2356320.0,103.0,45.0,7.0,65.0,2356.32
2356330.0,103.0,44.0,7.0,60.0,2356.33
2356340.0,103.0,43.0,6.0,59.0,2356.34
2356350.0,100.0,43.0,6.0,58.0,2356.35
2356360.0,100.0,43.0,5.0,55.0,2356.36
2356370.0,98.0,44.0,5.0,58.0,2356.37
2356380.0,97.0,42.0,5.0,62.0,2356.38
2356390.0,96.0,43.0,6.0,61.0,2356.39
2356400.0,95.0,42.0,7.0,58.0,2356.4
2356410.0,97.0,41.0,6.0,58.0,2356.41
2356420.0,96.0,42.0,6.0,56.0,2356.42
2356430.0,98.0,41.0,5.0,63.0,2356.43
2356440.0,98.0,43.0,4.0,60.0,2356.44
2356450.0,97.0,44.0,5.0,58.0,2356.45
2356460.0,98.0,46.0,5.0,59.0,2356.46
2356470.0,97.0,49.0,4.0,65.0,2356.47
2356480.0,97.0,49.0,5.0,63.0,2356.48
2356490.0,99.0,50.0,4.0,63.0,2356.49
2356500.0,98.0,49.0,5.0,65.0,2356.5
2356510.0,98.0,49.0,3.0,66.0,2356.51
2356520.0,99.0,51.0,3.0,62.0,2356.52
2356530.0,98.0,51.0,4.0,61.0,2356.53
2356540.0,99.0,52.0,4.0,60.0,2356.54
2356550.0,100.0,51.0,5.0,67.0,2356.55
2356560.0,100.0,52.0,4.0,68.0,2356.56
2356570.0,101.0,52.0,4.0,68.0,2356.57
2356580.0,100.0,52.0,4.0,70.0,2356.58
2356590.0,102.0,54.0,3.0,69.0,2356.59
2356600.0,102.0,53.0,4.0,66.0,2356.6
2356610.0,101.0,53.0,4.0,71.0,2356.61
2356620.0,103.0,54.0,5.0,67.0,2356.62
2356630.0,102.0,53.0,4.0,66.0,2356.63
2356640.0,101.0,54.0,4.0,64.0,2356.64
2356651.0,99.0,51.0,5.0,65.0,2356.651
2356661.0,100.0,51.0,4.0,71.0,2356.661
2356671.0,100.0,48.0,4.0,71.0,2356.671
2356681.0,99.0,48.0,4.0,70.0,2356.681
2356691.0,99.0,47.0,5.0,67.0,2356.691
2356701.0,98.0,46.0,5.0,64.0,2356.701
2356711.0,96.0,44.0,4.0,68.0,2356.711
2356721.0,97.0,44.0,5.0,69.0,2356.721
2356731.0,97.0,45.0,4.0,74.0,2356.731
2356741.0,96.0,44.0,6.0,72.0,2356.741
2356751.0,95.0,43.0,5.0,71.0,2356.751
2356761.0,95.0,43.0,5.0,69.0,2356.761
2356771.0,96.0,43.0,6.0,67.0,2356.771
2356781.0,95.0,42.0,5.0,64.0,2356.781
2356791.0,95.0,41.0,6.0,72.0,2356.791
2356801.0,94.0,41.0,5.0,73.0,2356.801
2356811.0,93.0,40.0,5.0,68.0,2356.811
2356822.0,91.0,39.0,5.0,65.0,2356.822
2356832.0,91.0,39.0,5.0,68.0,2356.832
2356842.0,92.0,37.0,5.0,66.0,2356.842
2356852.0,91.0,38.0,4.0,63.0,2356.852
2356862.0,90.0,36.0,4.0,61.0,2356.862
2356872.0,90.0,37.0,4.0,65.0,2356.872
2356882.0,89.0,37.0,5.0,67.0,2356.882
2356892.0,89.0,36.0,4.0,68.0,2356.892
2356902.0,89.0,36.0,4.0,64.0,2356.902
2356912.0,89.0,36.0,4.0,60.0,2356.912
2356922.0,88.0,35.0,4.0,60.0,2356.922
2356932.0,87.0,35.0,3.0,64.0,2356.932
2356942.0,87.0,35.0,4.0,61.0,2356.942
2356952.0,86.0,36.0,4.0,61.0,2356.952
2356962.0,86.0,35.0,5.0,62.0,2356.962
2356972.0,87.0,35.0,4.0,61.0,2356.972
2356982.0,86.0,34.0,5.0,59.0,2356.982
2356992.0,85.0,34.0,4.0,61.0,2356.992
2357002.0,85.0,35.0,4.0,65.0,2357.002
2357012.0,87.0,35.0,4.0,65.0,2357.012
2357022.0,87.0,36.0,3.0,63.0,2357.022
2357032.0,87.0,36.0,5.0,58.0,2357.032
2357042.0,88.0,35.0,4.0,58.0,2357.042
2357052.0,88.0,35.0,8.0,59.0,2357.052
2357062.0,89.0,34.0,6.0,55.0,2357.062
2357072.0,88.0,34.0,6.0,61.0,2357.072
2357082.0,89.0,34.0,6.0,59.0,2357.082
2357092.0,89.0,35.0,5.0,56.0,2357.092
2357102.0,88.0,34.0,6.0,58.0,2357.102
2357112.0,88.0,34.0,5.0,57.0,2357.112
2357122.0,89.0,35.0,8.0,58.0,2357.122
2357132.0,90.0,35.0,7.0,61.0,2357.132
2357142.0,88.0,36.0,8.0,62.0,2357.142
2357152.0,90.0,36.0,7.0,56.0,2357.152
2357163.0,89.0,37.0,7.0,56.0,2357.163
2357173.0,87.0,37.0,7.0,53.0,2357.173
2357183.0,84.0,38.0,8.0,54.0,2357.183
2357193.0,82.0,39.0,9.0,53.0,2357.193
2357203.0,83.0,38.0,9.0,49.0,2357.203
2357213.0,81.0,39.0,8.0,48.0,2357.213
2357223.0,80.0,39.0,7.0,45.0,2357.223
2357233.0,79.0,39.0,7.0,49.0,2357.233
2357243.0,78.0,39.0,8.0,50.0,2357.243
2357253.0,77.0,38.0,7.0,55.0,2357.253
2357263.0,76.0,38.0,7.0,52.0,2357.263
2357273.0,77.0,38.0,7.0,51.0,2357.273
2357283.0,76.0,37.0,6.0,52.0,2357.283
2357293.0,77.0,37.0,7.0,49.0,2357.293
2357303.0,77.0,37.0,5.0,52.0,2357.303
2357313.0,76.0,37.0,5.0,50.0,2357.313
2357323.0,76.0,36.0,6.0,53.0,2357.323
2357334.0,74.0,37.0,5.0,56.0,2357.334
2357344.0,73.0,35.0,7.0,54.0,2357.344
2357354.0,72.0,36.0,6.0,51.0,2357.354
2357364.0,71.0,36.0,6.0,49.0,2357.364
2357374.0,71.0,36.0,5.0,48.0,2357.374
2357384.0,68.0,36.0,5.0,47.0,2357.384
2357394.0,68.0,36.0,5.0,47.0,2357.394
2357404.0,68.0,36.0,4.0,48.0,2357.404
2357414.0,68.0,36.0,6.0,47.0,2357.414
2357424.0,69.0,35.0,5.0,47.0,2357.424
2357434.0,70.0,35.0,4.0,48.0,2357.434
2357444.0,70.0,36.0,5.0,48.0,2357.444
2357454.0,71.0,35.0,3.0,46.0,2357.454
2357464.0,71.0,34.0,4.0,45.0,2357.464
2357474.0,72.0,34.0,5.0,46.0,2357.474
2357484.0,73.0,35.0,6.0,48.0,2357.484
2357494.0,74.0,35.0,6.0,48.0,2357.494
2357504.0,75.0,35.0,5.0,45.0,2357.504
2357514.0,76.0,37.0,5.0,42.0,2357.514
2357524.0,76.0,37.0,4.0,44.0,2357.524
2357534.0,77.0,37.0,5.0,46.0,2357.534
2357544.0,78.0,36.0,4.0,46.0,2357.544
2357554.0,79.0,38.0,5.0,50.0,2357.554
2357564.0,79.0,38.0,5.0,51.0,2357.564
2357574.0,77.0,39.0,4.0,48.0,2357.574
2357584.0,76.0,39.0,4.0,47.0,2357.584
2357594.0,76.0,40.0,5.0,53.0,2357.594
2357604.0,75.0,39.0,4.0,51.0,2357.604
2357614.0,76.0,39.0,4.0,50.0,2357.614
2357624.0,77.0,41.0,4.0,49.0,2357.624
2357634.0,79.0,42.0,5.0,46.0,2357.634
2357644.0,78.0,43.0,4.0,48.0,2357.644
2357654.0,79.0,44.0,5.0,49.0,2357.654
2357664.0,80.0,46.0,5.0,52.0,2357.664
2357675.0,82.0,46.0,4.0,50.0,2357.675
2357685.0,82.0,46.0,5.0,50.0,2357.685
2357695.0,82.0,46.0,4.0,50.0,2357.695
2357705.0,84.0,45.0,5.0,48.0,2357.705
2357715.0,84.0,45.0,4.0,49.0,2357.715
2357725.0,86.0,44.0,6.0,49.0,2357.725
2357735.0,86.0,43.0,5.0,49.0,2357.735
2357745.0,86.0,43.0,5.0,48.0,2357.745
2357755.0,86.0,43.0,5.0,47.0,2357.755
2357765.0,85.0,43.0,5.0,50.0,2357.765
2357775.0,85.0,42.0,5.0,49.0,2357.775
2357785.0,84.0,41.0,4.0,52.0,2357.785
2357795.0,83.0,41.0,5.0,49.0,2357.795
2357805.0,85.0,41.0,5.0,50.0,2357.805
2357815.0,83.0,42.0,5.0,57.0,2357.815
2357825.0,82.0,42.0,5.0,60.0,2357.825
2357835.0,80.0,44.0,5.0,62.0,2357.835
2357846.0,79.0,45.0,5.0,63.0,2357.846
2357856.0,79.0,46.0,5.0,62.0,2357.856
2357866.0,78.0,46.0,4.0,58.0,2357.866
2357876.0,77.0,47.0,4.0,64.0,2357.876
2357886.0,76.0,50.0,4.0,66.0,2357.886
2357896.0,75.0,51.0,4.0,62.0,2357.896
2357906.0,76.0,53.0,4.0,64.0,2357.906
2357916.0,75.0,55.0,5.0,62.0,2357.916
2357926.0,76.0,55.0,4.0,61.0,2357.926
2357936.0,76.0,56.0,4.0,60.0,2357.936
2357946.0,76.0,56.0,4.0,57.0,2357.946
2357956.0,74.0,58.0,4.0,52.0,2357.956
2357966.0,75.0,58.0,3.0,54.0,2357.966
2357976.0,75.0,59.0,3.0,57.0,2357.976
2357986.0,75.0,60.0,4.0,54.0,2357.986
2357996.0,77.0,59.0,5.0,56.0,2357.996
2358006.0,75.0,59.0,4.0,59.0,2358.006
2358016.0,77.0,59.0,4.0,56.0,2358.016
2358026.0,75.0,62.0,5.0,55.0,2358.026
2358036.0,75.0,62.0,4.0,52.0,2358.036
2358046.0,76.0,62.0,5.0,53.0,2358.046
2358056.0,75.0,61.0,4.0,55.0,2358.056
2358066.0,77.0,60.0,5.0,58.0,2358.066
2358076.0,77.0,60.0,4.0,59.0,2358.076
2358086.0,78.0,60.0,4.0,60.0,2358.086
2358096.0,78.0,60.0,4.0,63.0,2358.096
2358106.0,78.0,60.0,4.0,60.0,2358.106
2358116.0,79.0,59.0,4.0,62.0,2358.116
2358126.0,77.0,58.0,4.0,64.0,2358.126
2358136.0,78.0,57.0,4.0,64.0,2358.136
2358146.0,76.0,56.0,4.0,61.0,2358.146
2358156.0,76.0,55.0,4.0,63.0,2358.156
2358166.0,76.0,54.0,4.0,64.0,2358.166
2358176.0,76.0,55.0,3.0,66.0,2358.176
2358187.0,78.0,52.0,4.0,62.0,2358.187
2358197.0,76.0,53.0,3.0,62.0,2358.197
2358207.0,76.0,53.0,5.0,61.0,2358.207
2358217.0,76.0,51.0,4.0,63.0,2358.217
2358227.0,76.0,51.0,4.0,65.0,2358.227
2358237.0,74.0,51.0,4.0,65.0,2358.237
2358247.0,73.0,50.0,3.0,62.0,2358.247
2358257.0,73.0,48.0,4.0,61.0,2358.257
2358267.0,73.0,48.0,4.0,64.0,2358.267
2358277.0,73.0,47.0,4.0,64.0,2358.277
2358287.0,74.0,46.0,4.0,62.0,2358.287
2358297.0,71.0,48.0,3.0,64.0,2358.297
2358307.0,70.0,47.0,3.0,60.0,2358.307
2358317.0,70.0,48.0,3.0,58.0,2358.317
2358327.0,69.0,48.0,3.0,60.0,2358.327
2358337.0,68.0,50.0,4.0,65.0,2358.337
2358347.0,69.0,49.0,4.0,65.0,2358.347
2358358.0,70.0,49.0,4.0,62.0,2358.358
2358368.0,68.0,50.0,4.0,58.0,2358.368
2358378.0,69.0,52.0,4.0,58.0,2358.378
2358388.0,69.0,54.0,3.0,63.0,2358.388
2358398.0,69.0,54.0,4.0,64.0,2358.398
2358408.0,69.0,55.0,5.0,61.0,2358.408
2358418.0,69.0,56.0,4.0,66.0,2358.418
2358428.0,70.0,57.0,5.0,63.0,2358.428
2358438.0,70.0,57.0,4.0,64.0,2358.438
2358448.0,70.0,57.0,5.0,59.0,2358.448
2358458.0,70.0,58.0,5.0,67.0,2358.458
2358468.0,72.0,58.0,5.0,62.0,2358.468
2358478.0,71.0,59.0,4.0,63.0,2358.478
2358488.0,73.0,61.0,3.0,64.0,2358.488
2358498.0,73.0,61.0,5.0,66.0,2358.498
2358508.0,70.0,64.0,4.0,70.0,2358.508
2358518.0,71.0,64.0,3.0,71.0,2358.518
2358528.0,70.0,66.0,5.0,71.0,2358.528
2358538.0,69.0,66.0,5.0,70.0,2358.538
2358548.0,69.0,66.0,5.0,74.0,2358.548
2358558.0,69.0,66.0,4.0,78.0,2358.558
2358568.0,70.0,66.0,5.0,77.0,2358.568
2358578.0,69.0,64.0,4.0,80.0,2358.578
2358588.0,69.0,64.0,4.0,85.0,2358.588
2358598.0,69.0,64.0,4.0,87.0,2358.598
2358608.0,70.0,64.0,3.0,88.0,2358.608
2358618.0,71.0,63.0,4.0,87.0,2358.618
2358628.0,73.0,63.0,5.0,90.0,2358.628
2358638.0,73.0,63.0,4.0,94.0,2358.638
2358648.0,74.0,63.0,4.0,93.0,2358.648
2358658.0,74.0,62.0,3.0,96.0,2358.658
2358668.0,74.0,60.0,4.0,94.0,2358.668
2358678.0,74.0,60.0,3.0,95.0,2358.678
2358688.0,74.0,59.0,4.0,102.0,2358.688
2358699.0,74.0,59.0,5.0,101.0,2358.699
2358709.0,75.0,57.0,5.0,102.0,2358.709
2358719.0,78.0,56.0,5.0,95.0,2358.719
2358729.0,76.0,55.0,4.0,91.0,2358.729
2358739.0,77.0,53.0,5.0,93.0,2358.739
2358749.0,77.0,53.0,3.0,99.0,2358.749
2358759.0,77.0,51.0,4.0,94.0,2358.759
2358769.0,77.0,50.0,5.0,99.0,2358.769
2358779.0,77.0,48.0,4.0,102.0,2358.779
2358789.0,79.0,47.0,5.0,101.0,2358.789
2358799.0,78.0,46.0,4.0,97.0,2358.799
2358809.0,78.0,45.0,5.0,96.0,2358.809
2358819.0,79.0,46.0,6.0,94.0,2358.819
2358829.0,78.0,45.0,5.0,89.0,2358.829
2358839.0,78.0,44.0,6.0,89.0,2358.839
2358849.0,76.0,45.0,6.0,91.0,2358.849
2358859.0,75.0,45.0,7.0,96.0,2358.859
2358870.0,74.0,45.0,6.0,87.0,2358.87
2358880.0,73.0,45.0,5.0,87.0,2358.88
2358890.0,73.0,45.0,5.0,85.0,2358.89
2358900.0,74.0,47.0,5.0,84.0,2358.9
2358910.0,74.0,48.0,5.0,82.0,2358.91
2358920.0,73.0,51.0,5.0,82.0,2358.92
2358930.0,72.0,53.0,10.0,86.0,2358.93
2358940.0,72.0,54.0,8.0,85.0,2358.94
2358950.0,71.0,55.0,7.0,81.0,2358.95
2358960.0,72.0,55.0,7.0,83.0,2358.96
2358970.0,71.0,58.0,7.0,82.0,2358.97
2358980.0,71.0,58.0,6.0,80.0,2358.98
2358990.0,69.0,59.0,5.0,87.0,2358.99
2359000.0,71.0,58.0,7.0,82.0,2359.0
2359010.0,69.0,58.0,6.0,80.0,2359.01
2359020.0,68.0,58.0,6.0,82.0,2359.02
2359030.0,68.0,59.0,6.0,79.0,2359.03
2359040.0,66.0,59.0,6.0,78.0,2359.04
2359050.0,68.0,57.0,6.0,74.0,2359.05
2359060.0,67.0,58.0,5.0,72.0,2359.06
2359070.0,67.0,56.0,5.0,71.0,2359.07
2359080.0,66.0,58.0,4.0,73.0,2359.08
2359090.0,65.0,58.0,5.0,73.0,2359.09
2359100.0,65.0,57.0,6.0,67.0,2359.1
2359110.0,65.0,60.0,5.0,64.0,2359.11
2359120.0,65.0,58.0,5.0,61.0,2359.12
2359130.0,64.0,59.0,5.0,69.0,2359.13
2359140.0,64.0,56.0,5.0,71.0,2359.14
2359150.0,65.0,54.0,6.0,68.0,2359.15
2359160.0,64.0,54.0,4.0,65.0,2359.16
2359170.0,65.0,53.0,5.0,67.0,2359.17
2359180.0,65.0,52.0,5.0,68.0,2359.18
2359190.0,65.0,51.0,4.0,68.0,2359.19
2359200.0,66.0,48.0,4.0,68.0,2359.2
2359211.0,65.0,51.0,8.0,65.0,2359.211
2359221.0,65.0,49.0,8.0,59.0,2359.221
2359231.0,64.0,50.0,6.0,63.0,2359.231
2359241.0,63.0,49.0,6.0,60.0,2359.241
2359251.0,64.0,49.0,6.0,60.0,2359.251
2359261.0,62.0,49.0,6.0,60.0,2359.261
2359271.0,62.0,47.0,5.0,65.0,2359.271
2359281.0,61.0,48.0,5.0,61.0,2359.281
