time (ms),signal 0,signal 1,signal 2,signal3,time (sec)
2334853.0,231.0,232.0,278.0,115.0,2334.853
2334863.0,232.0,231.0,276.0,123.0,2334.863
2334873.0,229.0,228.0,285.0,119.0,2334.873
2334883.0,228.0,227.0,285.0,126.0,2334.883
2334893.0,225.0,224.0,270.0,117.0,2334.893
2334903.0,224.0,225.0,274.0,116.0,2334.903
2334913.0,224.0,225.0,277.0,125.0,2334.913
2334923.0,220.0,225.0,280.0,122.0,2334.923
2334934.0,218.0,222.0,276.0,115.0,2334.934
2334944.0,216.0,221.0,271.0,108.0,2334.944
2334954.0,212.0,220.0,273.0,104.0,2334.954
2334964.0,211.0,221.0,268.0,101.0,2334.964
2334974.0,207.0,220.0,270.0,98.0,2334.974
2334984.0,206.0,217.0,267.0,96.0,2334.984
2334994.0,203.0,218.0,266.0,91.0,2334.994
2335004.0,203.0,216.0,264.0,91.0,2335.004
2335014.0,202.0,214.0,262.0,94.0,2335.014
2335024.0,201.0,213.0,271.0,91.0,2335.024
2335034.0,200.0,210.0,270.0,97.0,2335.034
2335044.0,199.0,210.0,270.0,92.0,2335.044
2335054.0,199.0,210.0,271.0,89.0,2335.054
2335064.0,199.0,211.0,271.0,95.0,2335.064
2335074.0,198.0,209.0,274.0,93.0,2335.074
2335084.0,198.0,206.0,270.0,93.0,2335.084
2335094.0,197.0,204.0,267.0,93.0,2335.094
2335104.0,197.0,203.0,277.0,85.0,2335.104
2335114.0,194.0,199.0,271.0,91.0,2335.114
2335124.0,193.0,197.0,269.0,85.0,2335.124
2335134.0,191.0,196.0,269.0,86.0,2335.134
2335144.0,189.0,193.0,266.0,83.0,2335.144
2335154.0,188.0,191.0,265.0,89.0,2335.154
2335164.0,188.0,189.0,259.0,91.0,2335.164
2335174.0,187.0,185.0,265.0,87.0,2335.174
2335184.0,184.0,180.0,264.0,92.0,2335.184
2335194.0,184.0,182.0,267.0,86.0,2335.194
2335204.0,182.0,179.0,277.0,89.0,2335.204
2335214.0,182.0,180.0,260.0,81.0,2335.214
2335224.0,180.0,178.0,259.0,80.0,2335.224
2335234.0,179.0,178.0,253.0,77.0,2335.234
2335244.0,179.0,179.0,245.0,91.0,2335.244
2335254.0,178.0,177.0,246.0,97.0,2335.254
2335264.0,178.0,177.0,244.0,95.0,2335.264
2335275.0,178.0,175.0,239.0,97.0,2335.275
2335285.0,177.0,176.0,245.0,103.0,2335.285
2335295.0,175.0,174.0,245.0,110.0,2335.295
2335305.0,176.0,174.0,250.0,122.0,2335.305
2335315.0,174.0,172.0,254.0,121.0,2335.315
2335325.0,173.0,171.0,244.0,112.0,2335.325
2335335.0,169.0,172.0,236.0,108.0,2335.335
2335345.0,168.0,169.0,235.0,117.0,2335.345
2335355.0,167.0,171.0,233.0,125.0,2335.355
2335365.0,167.0,173.0,237.0,135.0,2335.365
2335375.0,165.0,172.0,249.0,127.0,2335.375
2335385.0,165.0,171.0,233.0,126.0,2335.385
2335395.0,164.0,169.0,232.0,121.0,2335.395
2335405.0,162.0,167.0,226.0,119.0,2335.405
2335415.0,160.0,164.0,222.0,117.0,2335.415
2335425.0,160.0,164.0,219.0,109.0,2335.425
2335435.0,157.0,159.0,210.0,106.0,2335.435
2335446.0,157.0,158.0,222.0,105.0,2335.446
2335456.0,155.0,156.0,221.0,128.0,2335.456
2335466.0,154.0,154.0,223.0,124.0,2335.466
2335476.0,153.0,155.0,214.0,115.0,2335.476
2335486.0,154.0,156.0,215.0,115.0,2335.486
2335496.0,152.0,156.0,211.0,131.0,2335.496
2335506.0,150.0,156.0,216.0,126.0,2335.506
2335516.0,149.0,153.0,214.0,123.0,2335.516
2335526.0,147.0,152.0,213.0,118.0,2335.526
2335536.0,147.0,150.0,228.0,123.0,2335.536
2335546.0,148.0,150.0,223.0,115.0,2335.546
2335556.0,148.0,150.0,225.0,108.0,2335.556
2335566.0,149.0,150.0,222.0,107.0,2335.566
2335576.0,148.0,150.0,218.0,99.0,2335.576
2335586.0,147.0,148.0,216.0,112.0,2335.586
2335596.0,145.0,147.0,217.0,115.0,2335.596
2335606.0,145.0,145.0,215.0,109.0,2335.606
2335616.0,144.0,144.0,214.0,102.0,2335.616
2335626.0,139.0,135.0,213.0,102.0,2335.626
2335636.0,138.0,134.0,211.0,100.0,2335.636
2335646.0,135.0,134.0,206.0,100.0,2335.646
2335656.0,132.0,142.0,199.0,100.0,2335.656
2335666.0,129.0,136.0,194.0,101.0,2335.666
2335676.0,127.0,138.0,186.0,100.0,2335.676
2335686.0,126.0,161.0,180.0,107.0,2335.686
2335696.0,122.0,162.0,178.0,101.0,2335.696
2335706.0,122.0,181.0,178.0,102.0,2335.706
2335716.0,126.0,184.0,167.0,99.0,2335.716
2335726.0,136.0,210.0,169.0,98.0,2335.726
2335736.0,142.0,215.0,167.0,123.0,2335.736
2335746.0,141.0,211.0,163.0,122.0,2335.746
2335756.0,140.0,206.0,152.0,121.0,2335.756
2335766.0,134.0,204.0,142.0,110.0,2335.766
2335776.0,138.0,196.0,132.0,107.0,2335.776
2335787.0,130.0,196.0,129.0,126.0,2335.787
2335797.0,128.0,180.0,124.0,119.0,2335.797
2335807.0,130.0,178.0,124.0,114.0,2335.807
2335817.0,128.0,180.0,133.0,115.0,2335.817
2335827.0,127.0,199.0,131.0,105.0,2335.827
2335837.0,124.0,197.0,137.0,104.0,2335.837
2335847.0,118.0,195.0,144.0,103.0,2335.847
2335857.0,117.0,185.0,153.0,105.0,2335.857
2335867.0,112.0,211.0,153.0,109.0,2335.867
2335877.0,110.0,203.0,160.0,109.0,2335.877
2335887.0,106.0,215.0,164.0,114.0,2335.887
2335897.0,103.0,227.0,167.0,109.0,2335.897
2335907.0,100.0,254.0,170.0,119.0,2335.907
2335917.0,94.0,257.0,175.0,157.0,2335.917
2335927.0,101.0,282.0,180.0,175.0,2335.927
2335937.0,98.0,286.0,175.0,177.0,2335.937
2335947.0,86.0,296.0,163.0,194.0,2335.947
2335958.0,65.0,327.0,159.0,209.0,2335.958
2335968.0,37.0,362.0,141.0,211.0,2335.968
2335978.0,5.0,408.0,121.0,200.0,2335.978
2335988.0,0.0,456.0,105.0,185.0,2335.988
2335998.0,0.0,503.0,91.0,176.0,2335.998
2336008.0,0.0,547.0,83.0,165.0,2336.008
2336018.0,666.0,581.0,87.0,190.0,2336.018
2336028.0,665.0,599.0,88.0,223.0,2336.028
2336038.0,275.0,606.0,85.0,230.0,2336.038
2336048.0,195.0,619.0,82.0,249.0,2336.048
2336058.0,82.0,632.0,74.0,252.0,2336.058
2336068.0,2.0,648.0,65.0,251.0,2336.068
2336078.0,0.0,660.0,58.0,252.0,2336.078
2336088.0,0.0,663.0,58.0,278.0,2336.088
2336098.0,0.0,662.0,54.0,256.0,2336.098
2336108.0,0.0,662.0,53.0,244.0,2336.108
2336118.0,0.0,663.0,54.0,227.0,2336.118
2336128.0,0.0,662.0,58.0,216.0,2336.128
2336138.0,0.0,663.0,62.0,211.0,2336.138
2336148.0,0.0,664.0,66.0,196.0,2336.148
2336158.0,0.0,663.0,70.0,182.0,2336.158
2336168.0,0.0,662.0,77.0,170.0,2336.168
2336178.0,0.0,663.0,79.0,198.0,2336.178
2336188.0,0.0,663.0,82.0,183.0,2336.188
2336198.0,0.0,662.0,92.0,198.0,2336.198
2336208.0,0.0,662.0,97.0,224.0,2336.208
2336218.0,0.0,663.0,100.0,269.0,2336.218
2336228.0,0.0,663.0,98.0,289.0,2336.228
2336238.0,0.0,663.0,103.0,327.0,2336.238
2336248.0,1.0,662.0,109.0,332.0,2336.248
2336258.0,0.0,662.0,109.0,327.0,2336.258
2336268.0,0.0,663.0,112.0,325.0,2336.268
2336278.0,0.0,663.0,122.0,360.0,2336.278
2336288.0,0.0,663.0,124.0,349.0,2336.288
2336299.0,1.0,663.0,142.0,367.0,2336.299
2336309.0,1.0,663.0,145.0,377.0,2336.309
2336319.0,1.0,662.0,161.0,388.0,2336.319
2336329.0,664.0,649.0,167.0,417.0,2336.329
2336339.0,656.0,620.0,148.0,426.0,2336.339
2336349.0,667.0,589.0,133.0,470.0,2336.349
2336359.0,669.0,558.0,118.0,488.0,2336.359
2336369.0,668.0,543.0,103.0,484.0,2336.369
2336379.0,668.0,515.0,88.0,468.0,2336.379
2336389.0,668.0,498.0,77.0,451.0,2336.389
2336399.0,669.0,488.0,69.0,436.0,2336.399
2336409.0,668.0,474.0,60.0,419.0,2336.409
2336419.0,668.0,466.0,52.0,436.0,2336.419
2336429.0,668.0,458.0,46.0,430.0,2336.429
2336439.0,668.0,448.0,41.0,406.0,2336.439
2336449.0,668.0,434.0,35.0,398.0,2336.449
2336459.0,668.0,421.0,35.0,467.0,2336.459
2336470.0,668.0,415.0,32.0,463.0,2336.47
2336480.0,669.0,403.0,28.0,442.0,2336.48
2336490.0,667.0,391.0,23.0,424.0,2336.49
2336500.0,668.0,379.0,21.0,407.0,2336.5
2336510.0,667.0,384.0,19.0,385.0,2336.51
2336520.0,668.0,382.0,18.0,365.0,2336.52
2336530.0,668.0,363.0,16.0,348.0,2336.53
2336540.0,668.0,346.0,16.0,334.0,2336.54
2336550.0,668.0,336.0,14.0,320.0,2336.55
2336560.0,667.0,336.0,12.0,307.0,2336.56
2336570.0,668.0,326.0,12.0,295.0,2336.57
2336580.0,668.0,321.0,11.0,281.0,2336.58
2336590.0,667.0,312.0,12.0,263.0,2336.59
2336600.0,667.0,297.0,11.0,256.0,2336.6
2336610.0,668.0,290.0,11.0,256.0,2336.61
2336620.0,669.0,300.0,13.0,242.0,2336.62
2336630.0,668.0,277.0,19.0,238.0,2336.63
2336640.0,668.0,256.0,29.0,231.0,2336.64
2336650.0,668.0,261.0,41.0,219.0,2336.65
2336660.0,668.0,248.0,59.0,209.0,2336.66
2336670.0,668.0,246.0,84.0,203.0,2336.67
2336680.0,668.0,241.0,101.0,198.0,2336.68
2336690.0,659.0,219.0,98.0,188.0,2336.69
2336700.0,189.0,201.0,92.0,186.0,2336.7
2336710.0,43.0,204.0,108.0,171.0,2336.71
2336720.0,0.0,204.0,144.0,175.0,2336.72
2336730.0,0.0,206.0,176.0,169.0,2336.73
2336740.0,0.0,206.0,207.0,161.0,2336.74
2336750.0,0.0,221.0,242.0,168.0,2336.75
2336760.0,0.0,211.0,288.0,216.0,2336.76
2336770.0,668.0,234.0,319.0,233.0,2336.77
2336780.0,666.0,218.0,347.0,243.0,2336.78
2336790.0,667.0,197.0,385.0,249.0,2336.79
2336800.0,659.0,191.0,428.0,259.0,2336.8
2336811.0,643.0,178.0,471.0,260.0,2336.811
2336821.0,667.0,174.0,492.0,278.0,2336.821
2336831.0,667.0,158.0,523.0,265.0,2336.831
2336841.0,652.0,151.0,551.0,273.0,2336.841
2336851.0,597.0,153.0,581.0,276.0,2336.851
2336861.0,636.0,160.0,596.0,295.0,2336.861
2336871.0,627.0,160.0,607.0,279.0,2336.871
2336881.0,645.0,164.0,631.0,305.0,2336.881
2336891.0,666.0,160.0,641.0,308.0,2336.891
2336901.0,668.0,170.0,640.0,302.0,2336.901
2336911.0,668.0,169.0,641.0,331.0,2336.911
2336921.0,669.0,167.0,631.0,374.0,2336.921
2336931.0,669.0,171.0,631.0,353.0,2336.931
2336941.0,668.0,181.0,628.0,328.0,2336.941
2336951.0,668.0,187.0,622.0,303.0,2336.951
2336961.0,668.0,205.0,627.0,286.0,2336.961
2336971.0,668.0,220.0,624.0,266.0,2336.971
2336982.0,668.0,230.0,623.0,239.0,2336.982
2336992.0,667.0,234.0,631.0,222.0,2336.992
2337002.0,669.0,243.0,634.0,207.0,2337.002
2337012.0,668.0,242.0,635.0,206.0,2337.012
2337022.0,668.0,248.0,640.0,190.0,2337.022
2337032.0,668.0,251.0,639.0,192.0,2337.032
2337042.0,668.0,247.0,633.0,217.0,2337.042
2337052.0,668.0,249.0,626.0,199.0,2337.052
2337062.0,667.0,247.0,619.0,196.0,2337.062
2337072.0,668.0,242.0,611.0,193.0,2337.072
2337082.0,668.0,249.0,608.0,191.0,2337.082
2337092.0,668.0,241.0,599.0,199.0,2337.092
2337102.0,668.0,228.0,592.0,210.0,2337.102
2337112.0,668.0,226.0,583.0,207.0,2337.112
2337122.0,668.0,221.0,573.0,203.0,2337.122
2337132.0,668.0,211.0,568.0,205.0,2337.132
2337142.0,668.0,215.0,555.0,207.0,2337.142
2337152.0,668.0,213.0,563.0,235.0,2337.152
2337162.0,668.0,212.0,591.0,257.0,2337.162
2337172.0,667.0,196.0,529.0,240.0,2337.172
2337182.0,668.0,193.0,520.0,262.0,2337.182
2337192.0,668.0,194.0,562.0,276.0,2337.192
2337202.0,667.0,179.0,507.0,266.0,2337.202
2337212.0,667.0,169.0,502.0,319.0,2337.212
2337222.0,668.0,165.0,549.0,369.0,2337.222
2337232.0,668.0,153.0,554.0,382.0,2337.232
2337242.0,668.0,144.0,567.0,423.0,2337.242
2337252.0,668.0,153.0,542.0,396.0,2337.252
2337262.0,668.0,157.0,479.0,375.0,2337.262
2337272.0,666.0,163.0,436.0,347.0,2337.272
2337282.0,664.0,171.0,389.0,342.0,2337.282
2337292.0,666.0,180.0,366.0,379.0,2337.292
2337302.0,666.0,200.0,348.0,408.0,2337.302
2337312.0,667.0,226.0,324.0,396.0,2337.312
2337323.0,665.0,248.0,337.0,382.0,2337.323
2337333.0,661.0,257.0,323.0,432.0,2337.333
2337343.0,647.0,282.0,341.0,401.0,2337.343
2337353.0,666.0,303.0,328.0,397.0,2337.353
2337363.0,271.0,319.0,322.0,395.0,2337.363
2337373.0,630.0,337.0,328.0,411.0,2337.373
2337383.0,664.0,357.0,297.0,426.0,2337.383
2337393.0,667.0,372.0,287.0,421.0,2337.393
2337403.0,665.0,385.0,276.0,431.0,2337.403
2337413.0,667.0,392.0,261.0,445.0,2337.413
2337423.0,667.0,401.0,241.0,466.0,2337.423
2337433.0,667.0,407.0,242.0,486.0,2337.433
2337443.0,668.0,414.0,221.0,531.0,2337.443
2337453.0,665.0,422.0,217.0,502.0,2337.453
2337463.0,667.0,427.0,217.0,499.0,2337.463
2337473.0,667.0,429.0,204.0,516.0,2337.473
2337483.0,668.0,430.0,183.0,554.0,2337.483
2337494.0,668.0,432.0,175.0,568.0,2337.494
2337504.0,668.0,427.0,169.0,579.0,2337.504
2337514.0,668.0,429.0,192.0,587.0,2337.514
2337524.0,668.0,431.0,193.0,575.0,2337.524
2337534.0,666.0,431.0,186.0,574.0,2337.534
2337544.0,668.0,428.0,169.0,594.0,2337.544
2337554.0,668.0,427.0,155.0,592.0,2337.554
2337564.0,669.0,424.0,144.0,587.0,2337.564
2337574.0,668.0,416.0,128.0,595.0,2337.574
2337584.0,669.0,411.0,120.0,603.0,2337.584
2337594.0,668.0,405.0,115.0,615.0,2337.594
2337604.0,668.0,399.0,121.0,616.0,2337.604
2337614.0,668.0,393.0,111.0,617.0,2337.614
2337624.0,668.0,386.0,99.0,602.0,2337.624
2337634.0,669.0,378.0,91.0,608.0,2337.634
2337644.0,668.0,368.0,82.0,608.0,2337.644
2337654.0,668.0,359.0,78.0,616.0,2337.654
2337664.0,668.0,352.0,79.0,611.0,2337.664
2337674.0,668.0,343.0,79.0,615.0,2337.674
2337684.0,668.0,335.0,78.0,619.0,2337.684
2337694.0,668.0,329.0,73.0,613.0,2337.694
2337704.0,669.0,322.0,69.0,616.0,2337.704
2337714.0,668.0,317.0,63.0,612.0,2337.714
2337724.0,669.0,310.0,77.0,617.0,2337.724
2337734.0,668.0,305.0,77.0,620.0,2337.734
2337744.0,668.0,300.0,75.0,625.0,2337.744
2337754.0,668.0,298.0,68.0,600.0,2337.754
2337764.0,667.0,296.0,65.0,619.0,2337.764
2337774.0,668.0,294.0,59.0,594.0,2337.774
2337784.0,668.0,291.0,54.0,587.0,2337.784
2337794.0,668.0,289.0,52.0,599.0,2337.794
2337804.0,668.0,287.0,53.0,591.0,2337.804
2337814.0,668.0,287.0,48.0,579.0,2337.814
2337824.0,668.0,284.0,46.0,580.0,2337.824
2337835.0,668.0,284.0,39.0,569.0,2337.835
2337845.0,668.0,281.0,38.0,575.0,2337.845
2337855.0,669.0,280.0,34.0,566.0,2337.855
2337865.0,668.0,279.0,30.0,570.0,2337.865
2337875.0,668.0,277.0,28.0,566.0,2337.875
2337885.0,668.0,276.0,28.0,570.0,2337.885
2337895.0,668.0,273.0,37.0,558.0,2337.895
2337905.0,668.0,268.0,42.0,563.0,2337.905
2337915.0,668.0,272.0,54.0,534.0,2337.915
2337925.0,669.0,271.0,55.0,517.0,2337.925
2337935.0,668.0,268.0,48.0,505.0,2337.935
2337945.0,668.0,265.0,43.0,502.0,2337.945
2337955.0,668.0,262.0,38.0,506.0,2337.955
2337965.0,668.0,257.0,35.0,503.0,2337.965
2337975.0,668.0,250.0,38.0,498.0,2337.975
2337985.0,668.0,244.0,53.0,495.0,2337.985
2337995.0,668.0,240.0,63.0,483.0,2337.995
2338006.0,668.0,238.0,67.0,477.0,2338.006
2338016.0,668.0,237.0,70.0,468.0,2338.016
2338026.0,668.0,233.0,64.0,464.0,2338.026
2338036.0,668.0,231.0,65.0,441.0,2338.036
2338046.0,668.0,228.0,70.0,443.0,2338.046
2338056.0,668.0,226.0,73.0,458.0,2338.056
2338066.0,669.0,224.0,100.0,452.0,2338.066
2338076.0,668.0,225.0,138.0,424.0,2338.076
2338086.0,668.0,224.0,169.0,418.0,2338.086
2338096.0,669.0,223.0,196.0,428.0,2338.096
2338106.0,668.0,223.0,220.0,407.0,2338.106
2338116.0,668.0,218.0,231.0,420.0,2338.116
2338126.0,668.0,212.0,253.0,416.0,2338.126
2338136.0,668.0,212.0,264.0,407.0,2338.136
2338146.0,669.0,209.0,281.0,386.0,2338.146
2338156.0,668.0,206.0,289.0,392.0,2338.156
2338166.0,668.0,204.0,300.0,385.0,2338.166
2338176.0,668.0,201.0,306.0,373.0,2338.176
2338186.0,664.0,196.0,316.0,372.0,2338.186
2338196.0,655.0,192.0,326.0,373.0,2338.196
2338206.0,649.0,190.0,325.0,367.0,2338.206
2338216.0,643.0,186.0,327.0,371.0,2338.216
2338226.0,636.0,185.0,334.0,347.0,2338.226
2338236.0,631.0,185.0,346.0,334.0,2338.236
2338246.0,622.0,183.0,354.0,347.0,2338.246
2338256.0,616.0,184.0,357.0,327.0,2338.256
2338266.0,607.0,181.0,357.0,332.0,2338.266
2338276.0,601.0,181.0,371.0,322.0,2338.276
2338286.0,594.0,181.0,356.0,319.0,2338.286
2338296.0,587.0,182.0,361.0,320.0,2338.296
2338306.0,579.0,180.0,358.0,339.0,2338.306
2338316.0,574.0,184.0,359.0,320.0,2338.316
2338326.0,567.0,189.0,357.0,294.0,2338.326
2338336.0,561.0,191.0,358.0,285.0,2338.336
2338347.0,553.0,193.0,354.0,280.0,2338.347
2338357.0,547.0,194.0,355.0,288.0,2338.357
2338367.0,540.0,197.0,352.0,266.0,2338.367
2338377.0,533.0,198.0,352.0,262.0,2338.377
2338387.0,521.0,199.0,350.0,261.0,2338.387
2338397.0,513.0,201.0,345.0,260.0,2338.397
2338407.0,509.0,201.0,344.0,271.0,2338.407
2338417.0,504.0,203.0,331.0,276.0,2338.417
2338427.0,497.0,208.0,336.0,256.0,2338.427
2338437.0,492.0,214.0,351.0,247.0,2338.437
2338447.0,483.0,217.0,350.0,226.0,2338.447
2338457.0,476.0,221.0,337.0,227.0,2338.457
2338467.0,469.0,225.0,334.0,210.0,2338.467
2338477.0,463.0,226.0,331.0,202.0,2338.477
2338487.0,455.0,227.0,327.0,193.0,2338.487
2338497.0,448.0,229.0,325.0,197.0,2338.497
2338507.0,441.0,228.0,327.0,189.0,2338.507
2338518.0,434.0,229.0,315.0,199.0,2338.518
2338528.0,428.0,228.0,327.0,190.0,2338.528
2338538.0,422.0,229.0,319.0,177.0,2338.538
2338548.0,419.0,229.0,320.0,185.0,2338.548
2338558.0,412.0,228.0,319.0,170.0,2338.558
2338568.0,407.0,229.0,307.0,192.0,2338.568
2338578.0,400.0,228.0,313.0,187.0,2338.578
2338588.0,396.0,230.0,310.0,179.0,2338.588
2338598.0,391.0,228.0,310.0,162.0,2338.598
2338608.0,385.0,228.0,305.0,151.0,2338.608
2338618.0,380.0,227.0,303.0,157.0,2338.618
2338628.0,376.0,225.0,294.0,168.0,2338.628
2338638.0,369.0,225.0,292.0,149.0,2338.638
2338648.0,366.0,225.0,289.0,146.0,2338.648
2338658.0,361.0,223.0,291.0,145.0,2338.658
2338668.0,358.0,223.0,285.0,140.0,2338.668
2338678.0,353.0,221.0,283.0,136.0,2338.678
2338688.0,349.0,220.0,280.0,131.0,2338.688
2338698.0,346.0,218.0,277.0,122.0,2338.698
2338708.0,341.0,215.0,274.0,134.0,2338.708
2338718.0,339.0,215.0,278.0,131.0,2338.718
2338728.0,333.0,211.0,277.0,126.0,2338.728
2338738.0,330.0,210.0,280.0,121.0,2338.738
2338748.0,324.0,207.0,270.0,119.0,2338.748
2338758.0,320.0,207.0,263.0,117.0,2338.758
2338768.0,317.0,206.0,262.0,106.0,2338.768
2338778.0,313.0,204.0,263.0,115.0,2338.778
2338788.0,310.0,202.0,254.0,126.0,2338.788
2338798.0,308.0,201.0,256.0,115.0,2338.798
2338808.0,305.0,200.0,252.0,107.0,2338.808
2338818.0,303.0,197.0,249.0,99.0,2338.818
2338828.0,300.0,195.0,247.0,107.0,2338.828
2338838.0,297.0,192.0,243.0,98.0,2338.838
2338848.0,294.0,190.0,240.0,94.0,2338.848
2338859.0,292.0,190.0,239.0,90.0,2338.859
2338869.0,289.0,187.0,237.0,85.0,2338.869
2338879.0,287.0,187.0,236.0,86.0,2338.879
2338889.0,285.0,184.0,233.0,80.0,2338.889
2338899.0,283.0,184.0,229.0,82.0,2338.899
2338909.0,281.0,181.0,231.0,79.0,2338.909
2338919.0,280.0,179.0,233.0,76.0,2338.919
2338929.0,276.0,177.0,232.0,73.0,2338.929
2338939.0,275.0,175.0,237.0,74.0,2338.939
2338949.0,272.0,172.0,245.0,77.0,2338.949
2338959.0,270.0,171.0,247.0,96.0,2338.959
2338969.0,268.0,170.0,251.0,93.0,2338.969
2338979.0,265.0,169.0,249.0,95.0,2338.979
2338989.0,263.0,169.0,250.0,96.0,2338.989
2338999.0,262.0,170.0,252.0,96.0,2338.999
2339009.0,261.0,170.0,257.0,99.0,2339.009
2339019.0,260.0,169.0,258.0,96.0,2339.019
2339030.0,259.0,168.0,262.0,97.0,2339.03
2339040.0,256.0,165.0,266.0,91.0,2339.04
2339050.0,256.0,165.0,259.0,92.0,2339.05
2339060.0,254.0,162.0,254.0,104.0,2339.06
2339070.0,254.0,165.0,257.0,106.0,2339.07
2339080.0,253.0,164.0,252.0,105.0,2339.08
2339090.0,252.0,163.0,251.0,112.0,2339.09
2339100.0,249.0,162.0,251.0,114.0,2339.1
2339110.0,247.0,160.0,250.0,116.0,2339.11
2339120.0,246.0,156.0,250.0,108.0,2339.12
2339130.0,246.0,156.0,245.0,105.0,2339.13
2339140.0,247.0,156.0,241.0,98.0,2339.14
2339150.0,246.0,157.0,239.0,95.0,2339.15
2339160.0,245.0,156.0,236.0,88.0,2339.16
2339170.0,244.0,157.0,238.0,111.0,2339.17
2339180.0,243.0,158.0,233.0,112.0,2339.18
2339190.0,241.0,159.0,228.0,118.0,2339.19
2339200.0,239.0,159.0,227.0,119.0,2339.2
2339210.0,237.0,159.0,226.0,117.0,2339.21
2339220.0,237.0,159.0,222.0,116.0,2339.22
2339230.0,236.0,159.0,221.0,112.0,2339.23
2339240.0,234.0,160.0,222.0,110.0,2339.24
2339250.0,232.0,159.0,226.0,109.0,2339.25
2339260.0,229.0,159.0,222.0,119.0,2339.26
2339270.0,226.0,158.0,217.0,112.0,2339.27
2339280.0,224.0,156.0,215.0,114.0,2339.28
2339290.0,222.0,157.0,215.0,107.0,2339.29
2339300.0,219.0,153.0,209.0,103.0,2339.3
2339310.0,216.0,151.0,207.0,107.0,2339.31
2339320.0,215.0,151.0,206.0,129.0,2339.32
2339330.0,214.0,149.0,202.0,124.0,2339.33
2339340.0,212.0,148.0,199.0,117.0,2339.34
2339350.0,212.0,146.0,199.0,133.0,2339.35
2339360.0,210.0,146.0,191.0,149.0,2339.36
2339371.0,210.0,146.0,191.0,150.0,2339.371
2339381.0,208.0,144.0,192.0,137.0,2339.381
2339391.0,206.0,142.0,189.0,128.0,2339.391
2339401.0,206.0,141.0,180.0,143.0,2339.401
2339411.0,206.0,142.0,178.0,138.0,2339.411
2339421.0,205.0,140.0,178.0,130.0,2339.421
2339431.0,203.0,138.0,190.0,127.0,2339.431
2339441.0,202.0,138.0,179.0,139.0,2339.441
2339451.0,203.0,139.0,175.0,140.0,2339.451
2339461.0,199.0,139.0,174.0,137.0,2339.461
2339471.0,200.0,139.0,172.0,134.0,2339.471
2339481.0,198.0,140.0,173.0,137.0,2339.481
2339491.0,196.0,140.0,166.0,133.0,2339.491
2339501.0,196.0,140.0,165.0,128.0,2339.501
2339511.0,194.0,139.0,165.0,123.0,2339.511
2339521.0,193.0,138.0,164.0,130.0,2339.521
2339531.0,190.0,136.0,157.0,136.0,2339.531
2339542.0,192.0,136.0,159.0,145.0,2339.542
2339552.0,192.0,136.0,153.0,137.0,2339.552
2339562.0,190.0,134.0,147.0,125.0,2339.562
2339572.0,190.0,132.0,143.0,122.0,2339.572
2339582.0,191.0,132.0,142.0,124.0,2339.582
2339592.0,191.0,132.0,138.0,120.0,2339.592
2339602.0,191.0,131.0,134.0,116.0,2339.602
2339612.0,191.0,130.0,132.0,113.0,2339.612
2339622.0,191.0,129.0,130.0,116.0,2339.622
2339632.0,191.0,128.0,123.0,119.0,2339.632
2339642.0,191.0,127.0,120.0,123.0,2339.642
2339652.0,191.0,129.0,120.0,123.0,2339.652
2339662.0,192.0,128.0,114.0,122.0,2339.662
2339672.0,192.0,128.0,112.0,130.0,2339.672
2339682.0,191.0,128.0,107.0,134.0,2339.682
2339692.0,191.0,126.0,107.0,134.0,2339.692
2339702.0,190.0,127.0,98.0,128.0,2339.702
2339712.0,190.0,124.0,96.0,124.0,2339.712
2339722.0,191.0,124.0,94.0,131.0,2339.722
2339732.0,190.0,122.0,95.0,137.0,2339.732
2339742.0,191.0,121.0,90.0,133.0,2339.742
2339752.0,189.0,120.0,87.0,128.0,2339.752
2339762.0,187.0,118.0,83.0,118.0,2339.762
2339772.0,186.0,118.0,79.0,115.0,2339.772
2339782.0,184.0,116.0,79.0,114.0,2339.782
2339792.0,183.0,113.0,71.0,107.0,2339.792
2339802.0,183.0,113.0,73.0,111.0,2339.802
2339812.0,182.0,113.0,70.0,116.0,2339.812
2339822.0,180.0,114.0,75.0,117.0,2339.822
2339832.0,180.0,114.0,70.0,115.0,2339.832
2339842.0,177.0,111.0,62.0,114.0,2339.842
2339852.0,178.0,114.0,68.0,125.0,2339.852
2339862.0,177.0,112.0,67.0,130.0,2339.862
2339872.0,175.0,113.0,64.0,124.0,2339.872
2339883.0,176.0,114.0,64.0,127.0,2339.883
2339893.0,173.0,113.0,59.0,122.0,2339.893
2339903.0,173.0,112.0,55.0,127.0,2339.903
2339913.0,172.0,111.0,53.0,125.0,2339.913
2339923.0,173.0,110.0,54.0,126.0,2339.923
2339933.0,173.0,108.0,51.0,122.0,2339.933
2339943.0,174.0,110.0,49.0,119.0,2339.943
2339953.0,175.0,109.0,46.0,125.0,2339.953
2339963.0,174.0,109.0,44.0,141.0,2339.963
2339973.0,173.0,107.0,43.0,133.0,2339.973
2339983.0,172.0,105.0,40.0,127.0,2339.983
2339993.0,171.0,105.0,40.0,134.0,2339.993
2340003.0,169.0,102.0,41.0,129.0,2340.003
2340013.0,167.0,103.0,37.0,122.0,2340.013
2340023.0,165.0,103.0,37.0,125.0,2340.023
2340033.0,167.0,104.0,33.0,142.0,2340.033
2340043.0,164.0,103.0,30.0,136.0,2340.043
2340054.0,162.0,103.0,27.0,130.0,2340.054
2340064.0,160.0,103.0,24.0,125.0,2340.064
2340074.0,158.0,101.0,25.0,121.0,2340.074
2340084.0,157.0,101.0,24.0,118.0,2340.084
2340094.0,156.0,101.0,26.0,133.0,2340.094
2340104.0,156.0,101.0,24.0,138.0,2340.104
2340114.0,154.0,102.0,26.0,133.0,2340.114
2340124.0,153.0,101.0,24.0,133.0,2340.124
2340134.0,154.0,104.0,22.0,130.0,2340.134
2340144.0,153.0,102.0,19.0,124.0,2340.144
2340154.0,152.0,102.0,19.0,122.0,2340.154
2340164.0,152.0,102.0,17.0,124.0,2340.164
2340174.0,153.0,99.0,16.0,118.0,2340.174
2340184.0,152.0,100.0,14.0,125.0,2340.184
2340194.0,152.0,98.0,13.0,121.0,2340.194
2340204.0,152.0,97.0,13.0,117.0,2340.204
2340214.0,150.0,95.0,11.0,118.0,2340.214
2340224.0,152.0,96.0,10.0,117.0,2340.224
2340234.0,151.0,99.0,11.0,113.0,2340.234
2340244.0,150.0,97.0,12.0,107.0,2340.244
2340254.0,150.0,98.0,15.0,120.0,2340.254
2340264.0,149.0,98.0,15.0,119.0,2340.264
2340274.0,149.0,98.0,14.0,121.0,2340.274
2340284.0,149.0,99.0,13.0,122.0,2340.284
2340294.0,149.0,99.0,11.0,117.0,2340.294
2340304.0,148.0,97.0,9.0,110.0,2340.304
2340314.0,147.0,96.0,9.0,108.0,2340.314
2340324.0,146.0,96.0,9.0,109.0,2340.324
2340334.0,144.0,96.0,7.0,115.0,2340.334
2340344.0,144.0,95.0,8.0,115.0,2340.344
2340354.0,144.0,96.0,7.0,111.0,2340.354
2340364.0,145.0,95.0,7.0,109.0,2340.364
2340374.0,145.0,93.0,6.0,112.0,2340.374
2340384.0,145.0,93.0,7.0,117.0,2340.384
2340395.0,145.0,92.0,6.0,128.0,2340.395
2340405.0,144.0,92.0,6.0,123.0,2340.405
2340415.0,143.0,90.0,6.0,116.0,2340.415
2340425.0,143.0,90.0,10.0,127.0,2340.425
2340435.0,143.0,90.0,10.0,133.0,2340.435
2340445.0,143.0,89.0,8.0,131.0,2340.445
2340455.0,143.0,89.0,9.0,128.0,2340.455
2340465.0,143.0,88.0,8.0,128.0,2340.465
2340475.0,142.0,89.0,8.0,117.0,2340.475
2340485.0,141.0,87.0,8.0,123.0,2340.485
2340495.0,139.0,86.0,8.0,139.0,2340.495
2340505.0,138.0,84.0,8.0,137.0,2340.505
2340515.0,138.0,83.0,10.0,126.0,2340.515
2340525.0,138.0,83.0,9.0,128.0,2340.525
2340535.0,139.0,83.0,11.0,123.0,2340.535
2340545.0,137.0,82.0,8.0,114.0,2340.545
2340555.0,137.0,79.0,7.0,119.0,2340.555
2340566.0,136.0,76.0,12.0,123.0,2340.566
2340576.0,134.0,74.0,12.0,127.0,2340.576
2340586.0,135.0,72.0,13.0,122.0,2340.586
2340596.0,134.0,73.0,12.0,116.0,2340.596
2340606.0,134.0,71.0,14.0,119.0,2340.606
2340616.0,134.0,71.0,13.0,117.0,2340.616
2340626.0,134.0,68.0,13.0,122.0,2340.626
2340636.0,137.0,67.0,12.0,115.0,2340.636
2340646.0,137.0,68.0,11.0,110.0,2340.646
2340656.0,137.0,66.0,13.0,114.0,2340.656
2340666.0,137.0,68.0,12.0,116.0,2340.666
2340676.0,137.0,69.0,14.0,119.0,2340.676
2340686.0,137.0,68.0,17.0,111.0,2340.686
2340696.0,135.0,69.0,17.0,111.0,2340.696
2340706.0,135.0,69.0,16.0,119.0,2340.706
2340716.0,134.0,69.0,14.0,114.0,2340.716
2340726.0,132.0,68.0,16.0,115.0,2340.726
2340736.0,132.0,67.0,14.0,116.0,2340.736
2340746.0,131.0,65.0,15.0,120.0,2340.746
2340756.0,133.0,64.0,15.0,119.0,2340.756
2340766.0,132.0,63.0,14.0,118.0,2340.766
2340776.0,131.0,61.0,14.0,116.0,2340.776
2340786.0,131.0,61.0,13.0,121.0,2340.786
2340796.0,130.0,59.0,15.0,109.0,2340.796
2340806.0,129.0,60.0,15.0,113.0,2340.806
2340816.0,129.0,60.0,15.0,113.0,2340.816
2340826.0,128.0,58.0,19.0,112.0,2340.826
2340836.0,128.0,59.0,19.0,108.0,2340.836
2340846.0,128.0,57.0,18.0,109.0,2340.846
2340856.0,127.0,57.0,16.0,108.0,2340.856
2340866.0,128.0,58.0,16.0,107.0,2340.866
2340876.0,127.0,56.0,16.0,107.0,2340.876
2340886.0,126.0,56.0,26.0,110.0,2340.886
2340896.0,126.0,55.0,25.0,110.0,2340.896
2340907.0,124.0,55.0,23.0,113.0,2340.907
2340917.0,126.0,55.0,20.0,109.0,2340.917
2340927.0,125.0,55.0,23.0,110.0,2340.927
2340937.0,124.0,56.0,22.0,109.0,2340.937
2340947.0,125.0,55.0,23.0,105.0,2340.947
2340957.0,123.0,55.0,24.0,104.0,2340.957
2340967.0,124.0,53.0,24.0,105.0,2340.967
2340977.0,123.0,52.0,26.0,100.0,2340.977
2340987.0,124.0,54.0,25.0,106.0,2340.987
2340997.0,122.0,54.0,24.0,111.0,2340.997
2341007.0,120.0,53.0,28.0,112.0,2341.007
2341017.0,119.0,53.0,26.0,139.0,2341.017
2341027.0,117.0,52.0,27.0,138.0,2341.027
2341037.0,117.0,51.0,27.0,129.0,2341.037
2341047.0,115.0,50.0,25.0,120.0,2341.047
2341057.0,112.0,49.0,28.0,125.0,2341.057
2341067.0,113.0,49.0,28.0,118.0,2341.067
2341078.0,111.0,49.0,26.0,114.0,2341.078
2341088.0,112.0,47.0,28.0,105.0,2341.088
2341098.0,112.0,46.0,26.0,107.0,2341.098
2341108.0,113.0,46.0,24.0,100.0,2341.108
2341118.0,113.0,45.0,24.0,104.0,2341.118
2341128.0,112.0,45.0,21.0,108.0,2341.128
2341138.0,113.0,45.0,20.0,121.0,2341.138
2341148.0,113.0,46.0,20.0,124.0,2341.148
2341158.0,112.0,46.0,21.0,129.0,2341.158
2341168.0,114.0,48.0,22.0,128.0,2341.168
2341178.0,113.0,48.0,24.0,120.0,2341.178
2341188.0,114.0,48.0,23.0,121.0,2341.188
2341198.0,115.0,49.0,23.0,122.0,2341.198
2341208.0,116.0,48.0,24.0,117.0,2341.208
2341218.0,115.0,47.0,22.0,118.0,2341.218
2341228.0,115.0,47.0,22.0,110.0,2341.228
2341238.0,116.0,45.0,21.0,109.0,2341.238
2341248.0,115.0,44.0,21.0,106.0,2341.248
2341258.0,115.0,42.0,26.0,105.0,2341.258
2341268.0,113.0,41.0,23.0,110.0,2341.268
2341278.0,112.0,40.0,25.0,116.0,2341.278
2341288.0,110.0,39.0,28.0,114.0,2341.288
2341298.0,110.0,38.0,26.0,121.0,2341.298
2341308.0,110.0,38.0,27.0,121.0,2341.308
2341318.0,109.0,38.0,24.0,113.0,2341.318
2341328.0,109.0,37.0,33.0,127.0,2341.328
2341338.0,108.0,37.0,30.0,121.0,2341.338
2341348.0,105.0,36.0,29.0,115.0,2341.348
2341358.0,105.0,36.0,30.0,118.0,2341.358
2341368.0,104.0,36.0,30.0,114.0,2341.368
2341378.0,103.0,36.0,28.0,109.0,2341.378
2341388.0,103.0,37.0,28.0,107.0,2341.388
2341398.0,101.0,36.0,29.0,113.0,2341.398
2341408.0,101.0,37.0,27.0,106.0,2341.408
2341419.0,101.0,37.0,29.0,111.0,2341.419
2341429.0,100.0,37.0,33.0,109.0,2341.429
2341439.0,99.0,36.0,28.0,112.0,2341.439
2341449.0,100.0,36.0,31.0,110.0,2341.449
2341459.0,99.0,36.0,31.0,116.0,2341.459
2341469.0,101.0,36.0,30.0,124.0,2341.469
2341479.0,101.0,36.0,31.0,128.0,2341.479
2341489.0,100.0,36.0,28.0,125.0,2341.489
2341499.0,101.0,35.0,34.0,119.0,2341.499
2341509.0,97.0,36.0,31.0,116.0,2341.509
2341519.0,96.0,36.0,33.0,107.0,2341.519
2341529.0,95.0,35.0,32.0,108.0,2341.529
2341539.0,93.0,35.0,37.0,107.0,2341.539
2341549.0,96.0,35.0,40.0,117.0,2341.549
2341559.0,94.0,35.0,38.0,126.0,2341.559
2341569.0,95.0,36.0,40.0,117.0,2341.569
2341579.0,97.0,37.0,39.0,121.0,2341.579
2341590.0,97.0,36.0,41.0,123.0,2341.59
2341600.0,99.0,35.0,41.0,121.0,2341.6
2341610.0,97.0,36.0,41.0,120.0,2341.61
2341620.0,99.0,37.0,47.0,113.0,2341.62
2341630.0,100.0,38.0,50.0,111.0,2341.63
2341640.0,100.0,37.0,47.0,117.0,2341.64
2341650.0,103.0,37.0,45.0,120.0,2341.65
2341660.0,103.0,36.0,43.0,113.0,2341.66
2341670.0,103.0,35.0,39.0,108.0,2341.67
2341680.0,103.0,37.0,38.0,100.0,2341.68
2341690.0,104.0,37.0,45.0,99.0,2341.69
2341700.0,104.0,36.0,45.0,97.0,2341.7
2341710.0,104.0,37.0,42.0,103.0,2341.71
2341720.0,105.0,36.0,42.0,108.0,2341.72
2341730.0,103.0,35.0,39.0,114.0,2341.73
2341740.0,103.0,36.0,43.0,112.0,2341.74
2341750.0,103.0,35.0,40.0,115.0,2341.75
2341760.0,103.0,35.0,39.0,129.0,2341.76
2341770.0,103.0,35.0,40.0,124.0,2341.77
2341780.0,100.0,36.0,39.0,123.0,2341.78
2341790.0,100.0,37.0,37.0,132.0,2341.79
2341800.0,100.0,38.0,34.0,142.0,2341.8
2341810.0,99.0,37.0,36.0,133.0,2341.81
2341820.0,98.0,39.0,37.0,134.0,2341.82
2341830.0,98.0,39.0,38.0,136.0,2341.83
2341840.0,99.0,40.0,38.0,137.0,2341.84
2341850.0,101.0,40.0,36.0,137.0,2341.85
2341860.0,100.0,41.0,38.0,139.0,2341.86
2341870.0,100.0,40.0,34.0,135.0,2341.87
2341880.0,98.0,41.0,37.0,123.0,2341.88
2341890.0,100.0,42.0,39.0,119.0,2341.89
2341900.0,102.0,42.0,37.0,128.0,2341.9
2341910.0,105.0,41.0,40.0,120.0,2341.91
2341920.0,103.0,42.0,37.0,120.0,2341.92
2341931.0,104.0,41.0,38.0,116.0,2341.931
2341941.0,104.0,41.0,38.0,117.0,2341.941
2341951.0,105.0,40.0,37.0,128.0,2341.951
2341961.0,105.0,39.0,39.0,127.0,2341.961
2341971.0,103.0,40.0,38.0,121.0,2341.971
2341981.0,104.0,40.0,37.0,114.0,2341.981
2341991.0,102.0,39.0,36.0,115.0,2341.991
2342001.0,104.0,39.0,37.0,117.0,2342.001
2342011.0,103.0,39.0,37.0,114.0,2342.011
2342021.0,103.0,38.0,37.0,107.0,2342.021
2342031.0,103.0,38.0,36.0,108.0,2342.031
2342041.0,103.0,38.0,37.0,114.0,2342.041
2342051.0,103.0,37.0,37.0,113.0,2342.051
2342061.0,101.0,36.0,34.0,111.0,2342.061
2342071.0,100.0,36.0,38.0,109.0,2342.071
2342081.0,99.0,36.0,38.0,108.0,2342.081
2342091.0,97.0,36.0,34.0,102.0,2342.091
2342102.0,95.0,34.0,37.0,100.0,2342.102
2342112.0,92.0,36.0,33.0,102.0,2342.112
2342122.0,92.0,35.0,34.0,95.0,2342.122
2342132.0,92.0,35.0,32.0,95.0,2342.132
2342142.0,91.0,35.0,34.0,90.0,2342.142
2342152.0,91.0,35.0,37.0,93.0,2342.152
2342162.0,90.0,36.0,32.0,93.0,2342.162
2342172.0,91.0,36.0,35.0,96.0,2342.172
2342182.0,91.0,37.0,31.0,101.0,2342.182
2342192.0,91.0,37.0,31.0,97.0,2342.192
2342202.0,91.0,36.0,29.0,92.0,2342.202
2342212.0,90.0,36.0,32.0,89.0,2342.212
2342222.0,88.0,35.0,33.0,90.0,2342.222
2342232.0,90.0,36.0,32.0,86.0,2342.232
2342242.0,89.0,36.0,30.0,82.0,2342.242
2342252.0,90.0,37.0,36.0,77.0,2342.252
2342262.0,89.0,36.0,36.0,77.0,2342.262
2342272.0,92.0,37.0,34.0,83.0,2342.272
2342282.0,92.0,36.0,36.0,83.0,2342.282
2342292.0,92.0,37.0,35.0,92.0,2342.292
2342302.0,92.0,36.0,31.0,98.0,2342.302
2342312.0,93.0,38.0,37.0,100.0,2342.312
2342322.0,94.0,37.0,34.0,109.0,2342.322
2342332.0,93.0,36.0,31.0,114.0,2342.332
2342342.0,92.0,37.0,33.0,112.0,2342.342
2342352.0,91.0,38.0,36.0,111.0,2342.352
2342362.0,92.0,37.0,37.0,123.0,2342.362
2342372.0,91.0,37.0,34.0,130.0,2342.372
2342382.0,92.0,37.0,35.0,124.0,2342.382
2342392.0,92.0,36.0,33.0,120.0,2342.392
2342402.0,91.0,36.0,29.0,122.0,2342.402
2342412.0,91.0,35.0,31.0,119.0,2342.412
2342422.0,90.0,35.0,26.0,126.0,2342.422
2342432.0,89.0,36.0,28.0,126.0,2342.432
2342443.0,89.0,36.0,25.0,133.0,2342.443
2342453.0,88.0,36.0,25.0,132.0,2342.453
2342463.0,88.0,36.0,26.0,128.0,2342.463
2342473.0,87.0,37.0,23.0,136.0,2342.473
2342483.0,88.0,37.0,27.0,123.0,2342.483
2342493.0,86.0,35.0,26.0,116.0,2342.493
2342503.0,86.0,37.0,24.0,111.0,2342.503
2342513.0,87.0,37.0,21.0,106.0,2342.513
2342523.0,85.0,37.0,22.0,109.0,2342.523
2342533.0,86.0,38.0,22.0,117.0,2342.533
2342543.0,84.0,37.0,21.0,113.0,2342.543
2342553.0,83.0,38.0,24.0,107.0,2342.553
2342563.0,84.0,39.0,21.0,101.0,2342.563
2342573.0,82.0,38.0,24.0,103.0,2342.573
2342583.0,83.0,37.0,25.0,124.0,2342.583
2342593.0,81.0,39.0,23.0,127.0,2342.593
2342603.0,80.0,37.0,24.0,115.0,2342.603
2342614.0,79.0,37.0,23.0,116.0,2342.614
2342624.0,79.0,36.0,24.0,113.0,2342.624
2342634.0,79.0,35.0,22.0,111.0,2342.634
2342644.0,76.0,35.0,20.0,114.0,2342.644
2342654.0,74.0,35.0,17.0,115.0,2342.654
2342664.0,75.0,37.0,22.0,109.0,2342.664
2342674.0,73.0,37.0,22.0,104.0,2342.674
2342684.0,75.0,38.0,19.0,103.0,2342.684
2342694.0,75.0,39.0,17.0,107.0,2342.694
2342704.0,76.0,39.0,18.0,120.0,2342.704
2342714.0,76.0,41.0,15.0,110.0,2342.714
2342724.0,76.0,40.0,17.0,108.0,2342.724
2342734.0,78.0,41.0,16.0,117.0,2342.734
2342744.0,77.0,40.0,17.0,129.0,2342.744
2342754.0,77.0,39.0,15.0,118.0,2342.754
2342764.0,77.0,39.0,13.0,110.0,2342.764
2342774.0,78.0,39.0,14.0,106.0,2342.774
2342784.0,77.0,38.0,10.0,107.0,2342.784
2342794.0,78.0,40.0,14.0,100.0,2342.794
2342804.0,77.0,40.0,12.0,101.0,2342.804
2342814.0,77.0,42.0,14.0,95.0,2342.814
2342824.0,78.0,42.0,12.0,112.0,2342.824
2342834.0,78.0,43.0,9.0,108.0,2342.834
2342844.0,76.0,42.0,12.0,99.0,2342.844
2342854.0,75.0,43.0,10.0,93.0,2342.854
2342864.0,73.0,43.0,10.0,88.0,2342.864
2342874.0,74.0,43.0,10.0,87.0,2342.874
2342884.0,72.0,43.0,12.0,87.0,2342.884
2342894.0,73.0,42.0,14.0,106.0,2342.894
2342904.0,73.0,40.0,12.0,117.0,2342.904
2342914.0,73.0,40.0,12.0,109.0,2342.914
2342924.0,73.0,39.0,10.0,99.0,2342.924
2342934.0,71.0,38.0,13.0,98.0,2342.934
2342944.0,71.0,37.0,13.0,102.0,2342.944
2342955.0,71.0,38.0,11.0,113.0,2342.955
2342965.0,70.0,36.0,12.0,106.0,2342.965
2342975.0,71.0,36.0,12.0,99.0,2342.975
2342985.0,72.0,37.0,11.0,94.0,2342.985
2342995.0,74.0,37.0,13.0,89.0,2342.995
2343005.0,74.0,37.0,12.0,101.0,2343.005
2343015.0,76.0,37.0,14.0,104.0,2343.015
2343025.0,77.0,37.0,15.0,107.0,2343.025
2343035.0,79.0,38.0,14.0,109.0,2343.035
2343045.0,79.0,36.0,13.0,105.0,2343.045
2343055.0,77.0,36.0,11.0,98.0,2343.055
2343065.0,77.0,36.0,11.0,100.0,2343.065
2343075.0,77.0,37.0,13.0,104.0,2343.075
2343085.0,77.0,36.0,13.0,102.0,2343.085
2343095.0,78.0,36.0,12.0,101.0,2343.095
2343105.0,78.0,36.0,11.0,97.0,2343.105
2343115.0,79.0,36.0,12.0,99.0,2343.115
2343126.0,77.0,36.0,11.0,92.0,2343.126
2343136.0,78.0,36.0,10.0,100.0,2343.136
2343146.0,76.0,36.0,12.0,98.0,2343.146
2343156.0,77.0,36.0,13.0,94.0,2343.156
2343166.0,77.0,36.0,11.0,101.0,2343.166
2343176.0,77.0,37.0,11.0,104.0,2343.176
2343186.0,77.0,36.0,10.0,103.0,2343.186
2343196.0,76.0,37.0,9.0,97.0,2343.196
2343206.0,75.0,36.0,9.0,91.0,2343.206
2343216.0,74.0,36.0,8.0,87.0,2343.216
2343226.0,73.0,35.0,8.0,105.0,2343.226
2343236.0,71.0,35.0,17.0,124.0,2343.236
2343246.0,72.0,36.0,15.0,114.0,2343.246
2343256.0,72.0,35.0,14.0,112.0,2343.256
2343266.0,71.0,35.0,12.0,104.0,2343.266
2343276.0,69.0,35.0,13.0,97.0,2343.276
2343286.0,70.0,35.0,11.0,90.0,2343.286
2343296.0,70.0,35.0,11.0,86.0,2343.296
2343306.0,70.0,35.0,10.0,81.0,2343.306
2343316.0,70.0,34.0,12.0,111.0,2343.316
2343326.0,70.0,35.0,16.0,108.0,2343.326
2343336.0,70.0,35.0,15.0,104.0,2343.336
2343346.0,69.0,35.0,13.0,101.0,2343.346
2343356.0,70.0,35.0,14.0,93.0,2343.356
2343366.0,68.0,35.0,15.0,95.0,2343.366
2343376.0,69.0,36.0,14.0,105.0,2343.376
2343386.0,69.0,37.0,12.0,104.0,2343.386
2343396.0,68.0,36.0,11.0,94.0,2343.396
2343406.0,68.0,37.0,13.0,98.0,2343.406
2343416.0,66.0,37.0,13.0,98.0,2343.416
2343426.0,67.0,37.0,14.0,105.0,2343.426
2343436.0,64.0,37.0,14.0,108.0,2343.436
2343446.0,63.0,36.0,13.0,101.0,2343.446
2343456.0,64.0,36.0,13.0,98.0,2343.456
2343467.0,62.0,35.0,12.0,96.0,2343.467
2343477.0,63.0,34.0,13.0,98.0,2343.477
2343487.0,63.0,36.0,15.0,103.0,2343.487
2343497.0,64.0,35.0,15.0,98.0,2343.497
2343507.0,64.0,39.0,14.0,96.0,2343.507
2343517.0,64.0,40.0,16.0,96.0,2343.517
2343527.0,64.0,40.0,16.0,100.0,2343.527
2343537.0,65.0,43.0,15.0,98.0,2343.537
2343547.0,64.0,41.0,14.0,97.0,2343.547
2343557.0,62.0,40.0,14.0,95.0,2343.557
2343567.0,62.0,40.0,13.0,90.0,2343.567
2343577.0,62.0,38.0,11.0,86.0,2343.577
2343587.0,62.0,38.0,10.0,95.0,2343.587
2343597.0,62.0,37.0,10.0,102.0,2343.597
2343607.0,62.0,38.0,10.0,103.0,2343.607
2343617.0,63.0,36.0,9.0,98.0,2343.617
2343627.0,63.0,36.0,8.0,89.0,2343.627
2343638.0,63.0,36.0,9.0,85.0,2343.638
2343648.0,63.0,35.0,9.0,93.0,2343.648
2343658.0,62.0,36.0,13.0,94.0,2343.658
2343668.0,63.0,35.0,13.0,92.0,2343.668
2343678.0,62.0,36.0,11.0,89.0,2343.678
2343688.0,62.0,36.0,11.0,91.0,2343.688
2343698.0,63.0,35.0,11.0,84.0,2343.698
2343708.0,63.0,35.0,11.0,78.0,2343.708
2343718.0,63.0,35.0,9.0,71.0,2343.718
2343728.0,65.0,35.0,9.0,68.0,2343.728
2343738.0,66.0,35.0,9.0,63.0,2343.738
2343748.0,67.0,36.0,8.0,62.0,2343.748
2343758.0,69.0,34.0,8.0,61.0,2343.758
2343768.0,69.0,35.0,7.0,59.0,2343.768
2343778.0,67.0,35.0,7.0,64.0,2343.778
2343788.0,68.0,35.0,8.0,63.0,2343.788
2343798.0,68.0,36.0,7.0,63.0,2343.798
2343808.0,69.0,36.0,7.0,68.0,2343.808
2343818.0,68.0,36.0,6.0,87.0,2343.818
2343828.0,70.0,37.0,5.0,118.0,2343.828
2343838.0,71.0,36.0,8.0,118.0,2343.838
2343848.0,72.0,38.0,7.0,120.0,2343.848
2343858.0,74.0,38.0,8.0,114.0,2343.858
2343868.0,73.0,38.0,11.0,115.0,2343.868
2343878.0,74.0,37.0,11.0,115.0,2343.878
2343888.0,73.0,37.0,10.0,105.0,2343.888
2343898.0,72.0,38.0,9.0,98.0,2343.898
2343908.0,70.0,38.0,11.0,92.0,2343.908
2343918.0,69.0,39.0,10.0,90.0,2343.918
2343928.0,70.0,38.0,10.0,87.0,2343.928
2343938.0,72.0,39.0,10.0,88.0,2343.938
2343948.0,70.0,39.0,9.0,80.0,2343.948
2343958.0,72.0,41.0,9.0,75.0,2343.958
2343968.0,73.0,41.0,9.0,78.0,2343.968
2343979.0,72.0,40.0,8.0,71.0,2343.979
2343989.0,72.0,40.0,7.0,74.0,2343.989
2343999.0,73.0,41.0,8.0,73.0,2343.999
2344009.0,73.0,39.0,6.0,72.0,2344.009
2344019.0,72.0,38.0,8.0,83.0,2344.019
2344029.0,75.0,39.0,9.0,88.0,2344.029
2344039.0,74.0,39.0,7.0,86.0,2344.039
2344049.0,75.0,39.0,10.0,87.0,2344.049
2344059.0,74.0,39.0,9.0,87.0,2344.059
2344069.0,75.0,39.0,8.0,84.0,2344.069
2344079.0,78.0,39.0,10.0,79.0,2344.079
2344089.0,77.0,38.0,9.0,88.0,2344.089
2344099.0,77.0,37.0,7.0,89.0,2344.099
2344109.0,77.0,37.0,7.0,97.0,2344.109
2344119.0,77.0,38.0,8.0,102.0,2344.119
2344129.0,77.0,37.0,7.0,99.0,2344.129
2344139.0,76.0,37.0,7.0,98.0,2344.139
2344150.0,78.0,37.0,8.0,98.0,2344.15
2344160.0,76.0,36.0,6.0,95.0,2344.16
2344170.0,76.0,37.0,7.0,105.0,2344.17
2344180.0,77.0,36.0,9.0,103.0,2344.18
2344190.0,75.0,36.0,8.0,98.0,2344.19
2344200.0,76.0,35.0,8.0,97.0,2344.2
2344210.0,73.0,36.0,9.0,97.0,2344.21
2344220.0,76.0,36.0,10.0,110.0,2344.22
2344230.0,74.0,36.0,8.0,106.0,2344.23
2344240.0,74.0,37.0,7.0,112.0,2344.24
2344250.0,73.0,37.0,8.0,107.0,2344.25
2344260.0,73.0,37.0,9.0,104.0,2344.26
2344270.0,72.0,36.0,8.0,98.0,2344.27
2344280.0,71.0,36.0,9.0,104.0,2344.28
2344290.0,73.0,37.0,11.0,100.0,2344.29
2344300.0,74.0,38.0,9.0,98.0,2344.3
2344310.0,72.0,39.0,8.0,95.0,2344.31
2344320.0,73.0,39.0,8.0,100.0,2344.32
2344330.0,73.0,40.0,7.0,98.0,2344.33
2344340.0,73.0,38.0,6.0,94.0,2344.34
2344350.0,74.0,38.0,5.0,93.0,2344.35
2344360.0,75.0,37.0,7.0,89.0,2344.36
2344370.0,75.0,38.0,8.0,87.0,2344.37
2344380.0,75.0,38.0,6.0,85.0,2344.38
2344390.0,76.0,37.0,6.0,85.0,2344.39
2344400.0,76.0,39.0,6.0,85.0,2344.4
2344410.0,75.0,37.0,5.0,79.0,2344.41
2344420.0,74.0,38.0,5.0,78.0,2344.42
2344430.0,74.0,38.0,5.0,75.0,2344.43
2344440.0,73.0,38.0,5.0,73.0,2344.44
2344450.0,72.0,37.0,5.0,69.0,2344.45
2344460.0,71.0,37.0,5.0,81.0,2344.46
2344470.0,71.0,37.0,5.0,80.0,2344.47
2344480.0,71.0,37.0,5.0,74.0,2344.48
2344491.0,69.0,36.0,4.0,74.0,2344.491
2344501.0,69.0,35.0,4.0,75.0,2344.501
2344511.0,69.0,35.0,5.0,74.0,2344.511
2344521.0,68.0,35.0,4.0,84.0,2344.521
2344531.0,68.0,35.0,5.0,89.0,2344.531
2344541.0,70.0,35.0,4.0,82.0,2344.541
2344551.0,70.0,35.0,4.0,89.0,2344.551
2344561.0,70.0,34.0,5.0,90.0,2344.561
2344571.0,69.0,35.0,4.0,96.0,2344.571
2344581.0,72.0,34.0,5.0,89.0,2344.581
2344591.0,71.0,35.0,4.0,86.0,2344.591
2344601.0,72.0,36.0,18.0,95.0,2344.601
2344611.0,75.0,35.0,16.0,96.0,2344.611
2344621.0,74.0,36.0,14.0,94.0,2344.621
2344631.0,74.0,34.0,13.0,90.0,2344.631
2344641.0,74.0,36.0,11.0,86.0,2344.641
2344651.0,76.0,35.0,11.0,87.0,2344.651
2344662.0,75.0,35.0,9.0,85.0,2344.662
2344672.0,74.0,35.0,8.0,81.0,2344.672
2344682.0,74.0,35.0,8.0,80.0,2344.682
2344692.0,72.0,37.0,7.0,74.0,2344.692
2344702.0,71.0,36.0,7.0,71.0,2344.702
2344712.0,70.0,36.0,6.0,72.0,2344.712
2344722.0,70.0,37.0,7.0,77.0,2344.722
2344732.0,71.0,37.0,6.0,82.0,2344.732
2344742.0,70.0,37.0,5.0,78.0,2344.742
2344752.0,72.0,36.0,5.0,85.0,2344.752
2344762.0,73.0,36.0,5.0,83.0,2344.762
2344772.0,73.0,34.0,6.0,87.0,2344.772
2344782.0,74.0,35.0,5.0,100.0,2344.782
2344792.0,74.0,36.0,7.0,100.0,2344.792
2344802.0,76.0,35.0,7.0,99.0,2344.802
2344812.0,77.0,35.0,5.0,100.0,2344.812
2344822.0,77.0,34.0,9.0,96.0,2344.822
2344832.0,78.0,35.0,8.0,90.0,2344.832
2344842.0,77.0,36.0,7.0,82.0,2344.842
2344852.0,75.0,36.0,8.0,82.0,2344.852
2344862.0,75.0,37.0,7.0,80.0,2344.862
2344872.0,76.0,38.0,8.0,85.0,2344.872
2344882.0,76.0,37.0,7.0,81.0,2344.882
