time (ms),signal 0,signal 1,signal 2,signal3,time (sec)
2366895.0,95.0,37.0,10.0,49.0,2366.895
2366905.0,96.0,36.0,10.0,51.0,2366.905
2366915.0,96.0,36.0,8.0,54.0,2366.915
2366925.0,96.0,36.0,7.0,51.0,2366.925
2366935.0,96.0,35.0,8.0,49.0,2366.935
2366945.0,94.0,37.0,8.0,51.0,2366.945
2366955.0,93.0,35.0,8.0,54.0,2366.955
2366965.0,92.0,36.0,7.0,51.0,2366.965
2366976.0,93.0,35.0,7.0,62.0,2366.976
2366986.0,92.0,35.0,6.0,58.0,2366.986
2366996.0,90.0,35.0,6.0,59.0,2366.996
2367006.0,90.0,34.0,6.0,54.0,2367.006
2367016.0,90.0,35.0,7.0,52.0,2367.016
2367026.0,91.0,34.0,7.0,50.0,2367.026
2367036.0,92.0,34.0,6.0,47.0,2367.036
2367046.0,92.0,34.0,7.0,56.0,2367.046
2367056.0,91.0,34.0,7.0,59.0,2367.056
2367066.0,88.0,35.0,6.0,55.0,2367.066
2367076.0,87.0,35.0,6.0,52.0,2367.076
2367086.0,87.0,36.0,6.0,51.0,2367.086
2367096.0,87.0,35.0,6.0,48.0,2367.096
2367106.0,85.0,37.0,7.0,50.0,2367.106
2367116.0,83.0,36.0,8.0,49.0,2367.116
2367126.0,83.0,37.0,7.0,49.0,2367.126
2367136.0,79.0,36.0,6.0,49.0,2367.136
2367147.0,79.0,37.0,6.0,52.0,2367.147
2367157.0,78.0,37.0,8.0,51.0,2367.157
2367167.0,79.0,36.0,7.0,46.0,2367.167
2367177.0,79.0,36.0,7.0,46.0,2367.177
2367187.0,79.0,36.0,7.0,47.0,2367.187
2367197.0,79.0,35.0,8.0,46.0,2367.197
2367207.0,78.0,35.0,7.0,48.0,2367.207
2367217.0,79.0,35.0,6.0,49.0,2367.217
2367227.0,80.0,36.0,6.0,48.0,2367.227
2367237.0,79.0,35.0,5.0,44.0,2367.237
2367247.0,80.0,36.0,6.0,45.0,2367.247
2367257.0,79.0,35.0,5.0,42.0,2367.257
2367267.0,79.0,35.0,7.0,40.0,2367.267
2367277.0,78.0,35.0,10.0,38.0,2367.277
2367287.0,78.0,36.0,13.0,41.0,2367.287
2367297.0,78.0,39.0,14.0,43.0,2367.297
2367307.0,78.0,39.0,14.0,40.0,2367.307
2367318.0,80.0,38.0,12.0,39.0,2367.318
2367328.0,81.0,40.0,13.0,40.0,2367.328
2367338.0,82.0,39.0,14.0,38.0,2367.338
2367348.0,82.0,38.0,12.0,41.0,2367.348
2367358.0,83.0,37.0,12.0,40.0,2367.358
2367368.0,83.0,37.0,12.0,45.0,2367.368
2367378.0,82.0,37.0,10.0,47.0,2367.378
2367388.0,82.0,36.0,11.0,48.0,2367.388
2367398.0,82.0,37.0,10.0,50.0,2367.398
2367408.0,81.0,36.0,12.0,48.0,2367.408
2367418.0,83.0,37.0,12.0,46.0,2367.418
2367428.0,83.0,36.0,14.0,46.0,2367.428
2367438.0,83.0,36.0,12.0,47.0,2367.438
2367448.0,83.0,37.0,11.0,48.0,2367.448
2367458.0,83.0,36.0,10.0,47.0,2367.458
2367468.0,83.0,36.0,10.0,52.0,2367.468
2367478.0,82.0,35.0,15.0,51.0,2367.478
2367488.0,84.0,34.0,13.0,50.0,2367.488
2367498.0,84.0,35.0,12.0,49.0,2367.498
2367508.0,85.0,37.0,12.0,48.0,2367.508
2367518.0,83.0,36.0,11.0,48.0,2367.518
2367528.0,83.0,36.0,9.0,45.0,2367.528
2367538.0,82.0,36.0,9.0,42.0,2367.538
2367548.0,81.0,37.0,9.0,42.0,2367.548
2367558.0,82.0,37.0,8.0,40.0,2367.558
2367568.0,80.0,37.0,6.0,40.0,2367.568
2367578.0,81.0,37.0,7.0,42.0,2367.578
2367588.0,82.0,39.0,7.0,42.0,2367.588
2367598.0,81.0,38.0,8.0,40.0,2367.598
2367608.0,80.0,38.0,8.0,43.0,2367.608
2367618.0,80.0,41.0,8.0,44.0,2367.618
2367628.0,81.0,41.0,8.0,48.0,2367.628
2367638.0,79.0,42.0,8.0,47.0,2367.638
2367648.0,80.0,41.0,9.0,49.0,2367.648
2367659.0,80.0,41.0,8.0,51.0,2367.659
2367669.0,80.0,41.0,7.0,48.0,2367.669
2367679.0,81.0,38.0,7.0,47.0,2367.679
2367689.0,80.0,39.0,12.0,47.0,2367.689
2367699.0,81.0,38.0,11.0,48.0,2367.699
2367709.0,80.0,39.0,9.0,48.0,2367.709
2367719.0,80.0,38.0,10.0,49.0,2367.719
2367729.0,80.0,38.0,11.0,55.0,2367.729
2367739.0,79.0,37.0,10.0,55.0,2367.739
2367749.0,80.0,36.0,11.0,56.0,2367.749
2367759.0,79.0,37.0,11.0,56.0,2367.759
2367769.0,78.0,36.0,11.0,53.0,2367.769
2367779.0,78.0,36.0,8.0,52.0,2367.779
2367789.0,78.0,37.0,8.0,52.0,2367.789
2367799.0,79.0,37.0,11.0,48.0,2367.799
2367809.0,78.0,37.0,9.0,47.0,2367.809
2367819.0,78.0,36.0,11.0,45.0,2367.819
2367830.0,77.0,37.0,10.0,47.0,2367.83
2367840.0,77.0,35.0,10.0,49.0,2367.84
2367850.0,78.0,34.0,8.0,48.0,2367.85
2367860.0,78.0,35.0,12.0,50.0,2367.86
2367870.0,78.0,35.0,13.0,52.0,2367.87
2367880.0,78.0,35.0,12.0,53.0,2367.88
2367890.0,80.0,35.0,11.0,50.0,2367.89
2367900.0,81.0,36.0,10.0,51.0,2367.9
2367910.0,81.0,35.0,10.0,53.0,2367.91
2367920.0,81.0,37.0,9.0,54.0,2367.92
2367930.0,80.0,37.0,10.0,54.0,2367.93
2367940.0,82.0,37.0,12.0,51.0,2367.94
2367950.0,81.0,39.0,11.0,50.0,2367.95
2367960.0,82.0,38.0,11.0,49.0,2367.96
2367970.0,80.0,38.0,10.0,49.0,2367.97
2367980.0,79.0,37.0,10.0,48.0,2367.98
2367990.0,78.0,38.0,9.0,49.0,2367.99
2368000.0,78.0,38.0,8.0,50.0,2368.0
2368010.0,76.0,39.0,10.0,45.0,2368.01
2368020.0,76.0,39.0,9.0,47.0,2368.02
2368030.0,74.0,37.0,9.0,51.0,2368.03
2368040.0,71.0,38.0,8.0,48.0,2368.04
2368050.0,70.0,39.0,8.0,50.0,2368.05
2368060.0,69.0,39.0,9.0,49.0,2368.06
2368070.0,66.0,39.0,10.0,47.0,2368.07
2368080.0,67.0,38.0,10.0,47.0,2368.08
2368090.0,66.0,37.0,9.0,51.0,2368.09
2368100.0,65.0,38.0,9.0,47.0,2368.1
2368110.0,63.0,38.0,8.0,44.0,2368.11
2368120.0,63.0,39.0,8.0,45.0,2368.12
2368130.0,64.0,38.0,8.0,46.0,2368.13
2368140.0,64.0,39.0,8.0,48.0,2368.14
2368150.0,63.0,38.0,7.0,46.0,2368.15
2368160.0,63.0,39.0,9.0,59.0,2368.16
2368171.0,63.0,40.0,8.0,58.0,2368.171
2368181.0,64.0,39.0,7.0,56.0,2368.181
2368191.0,64.0,38.0,6.0,53.0,2368.191
2368201.0,63.0,39.0,7.0,54.0,2368.201
2368211.0,64.0,40.0,7.0,58.0,2368.211
2368221.0,62.0,41.0,7.0,57.0,2368.221
2368231.0,63.0,41.0,6.0,56.0,2368.231
2368241.0,62.0,44.0,9.0,58.0,2368.241
2368251.0,63.0,43.0,11.0,54.0,2368.251
2368261.0,62.0,44.0,10.0,55.0,2368.261
2368271.0,61.0,46.0,10.0,57.0,2368.271
2368281.0,61.0,46.0,8.0,54.0,2368.281
2368291.0,60.0,47.0,7.0,53.0,2368.291
2368301.0,61.0,47.0,8.0,51.0,2368.301
2368311.0,59.0,48.0,7.0,51.0,2368.311
2368321.0,60.0,48.0,7.0,49.0,2368.321
2368331.0,61.0,47.0,7.0,54.0,2368.331
2368342.0,61.0,46.0,7.0,52.0,2368.342
2368352.0,63.0,47.0,8.0,50.0,2368.352
2368362.0,64.0,47.0,7.0,50.0,2368.362
2368372.0,67.0,46.0,6.0,49.0,2368.372
2368382.0,71.0,47.0,6.0,49.0,2368.382
2368392.0,73.0,46.0,7.0,61.0,2368.392
2368402.0,74.0,46.0,8.0,59.0,2368.402
2368412.0,76.0,45.0,7.0,58.0,2368.412
2368422.0,78.0,45.0,7.0,56.0,2368.422
2368432.0,77.0,44.0,5.0,54.0,2368.432
2368442.0,78.0,45.0,6.0,54.0,2368.442
2368452.0,78.0,45.0,5.0,53.0,2368.452
2368462.0,78.0,44.0,5.0,54.0,2368.462
2368472.0,77.0,43.0,5.0,56.0,2368.472
2368482.0,76.0,44.0,5.0,55.0,2368.482
2368492.0,75.0,43.0,5.0,59.0,2368.492
2368502.0,74.0,43.0,4.0,59.0,2368.502
2368512.0,72.0,49.0,5.0,57.0,2368.512
2368522.0,72.0,50.0,4.0,56.0,2368.522
2368532.0,72.0,51.0,5.0,55.0,2368.532
2368542.0,71.0,48.0,4.0,55.0,2368.542
2368552.0,70.0,86.0,7.0,64.0,2368.552
2368562.0,75.0,98.0,8.0,65.0,2368.562
2368572.0,79.0,97.0,7.0,62.0,2368.572
2368582.0,82.0,98.0,6.0,57.0,2368.582
2368592.0,79.0,89.0,6.0,61.0,2368.592
2368602.0,76.0,93.0,6.0,67.0,2368.602
2368612.0,80.0,98.0,14.0,84.0,2368.612
2368622.0,87.0,145.0,35.0,111.0,2368.622
2368632.0,102.0,151.0,44.0,115.0,2368.632
2368642.0,109.0,155.0,45.0,147.0,2368.642
2368652.0,121.0,153.0,48.0,191.0,2368.652
2368662.0,145.0,167.0,48.0,233.0,2368.662
2368672.0,167.0,196.0,46.0,226.0,2368.672
2368683.0,173.0,217.0,40.0,229.0,2368.683
2368693.0,163.0,201.0,35.0,225.0,2368.693
2368703.0,149.0,195.0,33.0,211.0,2368.703
2368713.0,141.0,179.0,30.0,206.0,2368.713
2368723.0,131.0,186.0,28.0,198.0,2368.723
2368733.0,122.0,186.0,27.0,209.0,2368.733
2368743.0,112.0,181.0,22.0,206.0,2368.743
2368753.0,243.0,180.0,25.0,215.0,2368.753
2368763.0,567.0,186.0,33.0,234.0,2368.763
2368773.0,663.0,190.0,28.0,225.0,2368.773
2368783.0,293.0,203.0,31.0,223.0,2368.783
2368793.0,228.0,225.0,32.0,282.0,2368.793
2368803.0,183.0,260.0,30.0,296.0,2368.803
2368813.0,69.0,298.0,41.0,298.0,2368.813
2368823.0,668.0,335.0,50.0,322.0,2368.823
2368833.0,667.0,363.0,45.0,325.0,2368.833
2368843.0,667.0,378.0,44.0,321.0,2368.843
2368854.0,668.0,401.0,43.0,356.0,2368.854
2368864.0,668.0,426.0,40.0,377.0,2368.864
2368874.0,668.0,445.0,41.0,387.0,2368.874
2368884.0,668.0,466.0,40.0,386.0,2368.884
2368894.0,668.0,487.0,43.0,387.0,2368.894
2368904.0,668.0,505.0,43.0,398.0,2368.904
2368914.0,588.0,520.0,33.0,419.0,2368.914
2368924.0,236.0,524.0,44.0,438.0,2368.924
2368934.0,187.0,536.0,48.0,452.0,2368.934
2368944.0,76.0,558.0,65.0,459.0,2368.944
2368954.0,1.0,581.0,89.0,457.0,2368.954
2368964.0,0.0,603.0,109.0,456.0,2368.964
2368974.0,1.0,616.0,127.0,451.0,2368.974
2368984.0,0.0,629.0,140.0,459.0,2368.984
2368994.0,1.0,643.0,158.0,433.0,2368.994
2369004.0,1.0,652.0,171.0,415.0,2369.004
2369014.0,0.0,655.0,176.0,429.0,2369.014
2369024.0,0.0,663.0,190.0,437.0,2369.024
2369034.0,1.0,664.0,197.0,410.0,2369.034
2369044.0,1.0,663.0,207.0,391.0,2369.044
2369054.0,1.0,662.0,218.0,389.0,2369.054
2369064.0,1.0,663.0,229.0,405.0,2369.064
2369074.0,0.0,663.0,230.0,390.0,2369.074
2369084.0,0.0,663.0,238.0,450.0,2369.084
2369094.0,1.0,663.0,244.0,448.0,2369.094
2369104.0,2.0,658.0,241.0,465.0,2369.104
2369114.0,0.0,663.0,245.0,446.0,2369.114
2369124.0,664.0,669.0,245.0,452.0,2369.124
2369134.0,658.0,646.0,212.0,442.0,2369.134
2369144.0,667.0,629.0,199.0,544.0,2369.144
2369154.0,248.0,609.0,174.0,548.0,2369.154
2369164.0,205.0,600.0,161.0,551.0,2369.164
2369174.0,133.0,599.0,150.0,545.0,2369.174
2369184.0,668.0,597.0,138.0,527.0,2369.184
2369195.0,668.0,584.0,120.0,535.0,2369.195
2369205.0,668.0,576.0,107.0,583.0,2369.205
2369215.0,669.0,563.0,94.0,589.0,2369.215
2369225.0,669.0,550.0,80.0,586.0,2369.225
2369235.0,669.0,540.0,70.0,564.0,2369.235
2369245.0,669.0,530.0,62.0,556.0,2369.245
2369255.0,668.0,519.0,54.0,556.0,2369.255
2369265.0,668.0,508.0,47.0,550.0,2369.265
2369275.0,668.0,500.0,41.0,539.0,2369.275
2369285.0,669.0,484.0,38.0,532.0,2369.285
2369295.0,668.0,473.0,32.0,519.0,2369.295
2369305.0,669.0,462.0,28.0,514.0,2369.305
2369315.0,669.0,451.0,25.0,506.0,2369.315
2369325.0,668.0,440.0,22.0,496.0,2369.325
2369335.0,668.0,427.0,20.0,485.0,2369.335
2369345.0,668.0,424.0,17.0,475.0,2369.345
2369355.0,669.0,409.0,15.0,465.0,2369.355
2369366.0,669.0,401.0,15.0,456.0,2369.366
2369376.0,668.0,390.0,16.0,449.0,2369.376
2369386.0,668.0,370.0,18.0,442.0,2369.386
2369396.0,669.0,350.0,26.0,437.0,2369.396
2369406.0,668.0,335.0,39.0,430.0,2369.406
2369416.0,668.0,323.0,51.0,422.0,2369.416
2369426.0,669.0,301.0,70.0,413.0,2369.426
2369436.0,668.0,287.0,85.0,403.0,2369.436
2369446.0,668.0,271.0,99.0,395.0,2369.446
2369456.0,668.0,259.0,119.0,388.0,2369.456
2369466.0,667.0,244.0,132.0,382.0,2369.466
2369476.0,667.0,232.0,153.0,376.0,2369.476
2369486.0,665.0,226.0,168.0,370.0,2369.486
2369496.0,664.0,213.0,185.0,364.0,2369.496
2369506.0,664.0,199.0,195.0,359.0,2369.506
2369516.0,581.0,191.0,205.0,343.0,2369.516
2369526.0,186.0,185.0,199.0,341.0,2369.526
2369536.0,54.0,191.0,189.0,331.0,2369.536
2369546.0,1.0,199.0,173.0,310.0,2369.546
2369556.0,1.0,213.0,159.0,295.0,2369.556
2369566.0,0.0,227.0,145.0,279.0,2369.566
2369576.0,1.0,245.0,132.0,255.0,2369.576
2369586.0,0.0,254.0,119.0,245.0,2369.586
2369596.0,0.0,266.0,104.0,226.0,2369.596
2369606.0,0.0,281.0,95.0,215.0,2369.606
2369616.0,0.0,290.0,84.0,200.0,2369.616
2369626.0,0.0,299.0,77.0,188.0,2369.626
2369636.0,0.0,312.0,71.0,175.0,2369.636
2369646.0,0.0,318.0,62.0,166.0,2369.646
2369656.0,0.0,328.0,61.0,162.0,2369.656
2369666.0,0.0,333.0,58.0,153.0,2369.666
2369676.0,0.0,345.0,52.0,149.0,2369.676
2369686.0,0.0,347.0,53.0,142.0,2369.686
2369696.0,670.0,359.0,70.0,146.0,2369.696
2369707.0,667.0,327.0,117.0,166.0,2369.707
2369717.0,669.0,303.0,161.0,201.0,2369.717
2369727.0,668.0,276.0,192.0,220.0,2369.727
2369737.0,668.0,255.0,216.0,239.0,2369.737
2369747.0,668.0,237.0,227.0,242.0,2369.747
2369757.0,668.0,228.0,232.0,241.0,2369.757
2369767.0,668.0,217.0,223.0,225.0,2369.767
2369777.0,668.0,216.0,219.0,246.0,2369.777
2369787.0,669.0,216.0,222.0,253.0,2369.787
2369797.0,668.0,216.0,218.0,255.0,2369.797
2369807.0,668.0,215.0,215.0,282.0,2369.807
2369817.0,668.0,221.0,202.0,273.0,2369.817
2369827.0,668.0,226.0,193.0,283.0,2369.827
2369837.0,668.0,232.0,180.0,284.0,2369.837
2369847.0,668.0,238.0,164.0,269.0,2369.847
2369857.0,668.0,242.0,149.0,268.0,2369.857
2369867.0,668.0,246.0,134.0,250.0,2369.867
2369878.0,668.0,246.0,127.0,241.0,2369.878
2369888.0,668.0,249.0,118.0,236.0,2369.888
2369898.0,668.0,248.0,108.0,221.0,2369.898
2369908.0,668.0,243.0,105.0,220.0,2369.908
2369918.0,668.0,245.0,102.0,214.0,2369.918
2369928.0,668.0,244.0,101.0,212.0,2369.928
2369938.0,669.0,238.0,101.0,211.0,2369.938
2369948.0,669.0,234.0,100.0,204.0,2369.948
2369958.0,668.0,230.0,97.0,200.0,2369.958
2369968.0,668.0,228.0,96.0,197.0,2369.968
2369978.0,668.0,223.0,94.0,184.0,2369.978
2369988.0,668.0,221.0,93.0,186.0,2369.988
2369998.0,668.0,221.0,96.0,184.0,2369.998
2370008.0,669.0,214.0,94.0,178.0,2370.008
2370018.0,668.0,211.0,92.0,180.0,2370.018
2370028.0,668.0,206.0,92.0,175.0,2370.028
2370038.0,667.0,206.0,89.0,171.0,2370.038
2370048.0,668.0,204.0,88.0,176.0,2370.048
2370058.0,667.0,205.0,80.0,167.0,2370.058
2370068.0,667.0,202.0,83.0,173.0,2370.068
2370078.0,668.0,209.0,96.0,168.0,2370.078
2370088.0,668.0,210.0,98.0,167.0,2370.088
2370098.0,667.0,201.0,107.0,173.0,2370.098
2370108.0,667.0,187.0,159.0,186.0,2370.108
2370118.0,667.0,175.0,188.0,205.0,2370.118
2370128.0,668.0,164.0,220.0,206.0,2370.128
2370138.0,668.0,148.0,213.0,216.0,2370.138
2370148.0,665.0,136.0,206.0,214.0,2370.148
2370158.0,665.0,129.0,227.0,216.0,2370.158
2370168.0,655.0,125.0,230.0,213.0,2370.168
2370178.0,226.0,129.0,262.0,246.0,2370.178
2370188.0,163.0,134.0,289.0,254.0,2370.188
2370198.0,7.0,125.0,300.0,257.0,2370.198
2370208.0,667.0,149.0,349.0,280.0,2370.208
2370219.0,655.0,164.0,361.0,308.0,2370.219
2370229.0,662.0,193.0,388.0,296.0,2370.229
2370239.0,666.0,221.0,430.0,302.0,2370.239
2370249.0,667.0,250.0,429.0,332.0,2370.249
2370259.0,668.0,271.0,404.0,335.0,2370.259
2370269.0,662.0,279.0,377.0,329.0,2370.269
2370279.0,523.0,287.0,364.0,307.0,2370.279
2370289.0,662.0,277.0,338.0,308.0,2370.289
2370299.0,667.0,269.0,322.0,300.0,2370.299
2370309.0,668.0,268.0,298.0,321.0,2370.309
2370319.0,668.0,254.0,275.0,310.0,2370.319
2370329.0,668.0,245.0,262.0,314.0,2370.329
2370339.0,668.0,225.0,235.0,307.0,2370.339
2370349.0,668.0,210.0,209.0,300.0,2370.349
2370359.0,668.0,197.0,199.0,305.0,2370.359
2370369.0,668.0,176.0,186.0,276.0,2370.369
2370379.0,667.0,158.0,176.0,253.0,2370.379
2370390.0,668.0,145.0,176.0,268.0,2370.39
2370400.0,668.0,137.0,174.0,259.0,2370.4
2370410.0,668.0,127.0,171.0,246.0,2370.41
2370420.0,668.0,126.0,175.0,234.0,2370.42
2370430.0,668.0,122.0,175.0,219.0,2370.43
2370440.0,668.0,123.0,178.0,215.0,2370.44
2370450.0,667.0,124.0,180.0,202.0,2370.45
2370460.0,667.0,124.0,191.0,211.0,2370.46
2370470.0,668.0,124.0,195.0,216.0,2370.47
2370480.0,668.0,124.0,199.0,199.0,2370.48
2370490.0,668.0,123.0,196.0,198.0,2370.49
2370500.0,668.0,119.0,203.0,189.0,2370.5
2370510.0,668.0,116.0,211.0,179.0,2370.51
2370520.0,668.0,115.0,205.0,166.0,2370.52
2370530.0,668.0,112.0,204.0,150.0,2370.53
2370540.0,668.0,110.0,209.0,137.0,2370.54
2370550.0,668.0,109.0,216.0,126.0,2370.55
2370560.0,667.0,107.0,225.0,116.0,2370.56
2370570.0,668.0,106.0,216.0,107.0,2370.57
2370580.0,668.0,104.0,207.0,99.0,2370.58
2370590.0,668.0,102.0,202.0,95.0,2370.59
2370600.0,668.0,102.0,212.0,92.0,2370.6
2370610.0,667.0,101.0,211.0,90.0,2370.61
2370620.0,667.0,100.0,202.0,92.0,2370.62
2370630.0,668.0,98.0,201.0,90.0,2370.63
2370640.0,667.0,96.0,187.0,96.0,2370.64
2370650.0,668.0,93.0,191.0,108.0,2370.65
2370660.0,668.0,89.0,192.0,106.0,2370.66
2370670.0,667.0,87.0,191.0,105.0,2370.67
2370680.0,668.0,85.0,190.0,103.0,2370.68
2370690.0,668.0,79.0,187.0,99.0,2370.69
2370700.0,667.0,73.0,188.0,107.0,2370.7
2370710.0,667.0,69.0,191.0,110.0,2370.71
2370720.0,668.0,68.0,190.0,112.0,2370.72
2370731.0,668.0,65.0,198.0,108.0,2370.731
2370741.0,667.0,65.0,200.0,107.0,2370.741
2370751.0,667.0,63.0,194.0,100.0,2370.751
2370761.0,667.0,64.0,196.0,105.0,2370.761
2370771.0,667.0,64.0,187.0,108.0,2370.771
2370781.0,667.0,62.0,193.0,103.0,2370.781
2370791.0,667.0,59.0,188.0,101.0,2370.791
2370801.0,668.0,59.0,195.0,101.0,2370.801
2370811.0,668.0,58.0,190.0,99.0,2370.811
2370821.0,668.0,60.0,190.0,101.0,2370.821
2370831.0,667.0,57.0,179.0,96.0,2370.831
2370841.0,667.0,56.0,185.0,112.0,2370.841
2370851.0,667.0,54.0,188.0,107.0,2370.851
2370861.0,667.0,52.0,176.0,103.0,2370.861
2370871.0,668.0,50.0,174.0,111.0,2370.871
2370881.0,668.0,48.0,172.0,106.0,2370.881
2370891.0,667.0,48.0,161.0,128.0,2370.891
2370902.0,668.0,49.0,174.0,123.0,2370.902
2370912.0,668.0,49.0,168.0,125.0,2370.912
2370922.0,668.0,48.0,170.0,130.0,2370.922
2370932.0,668.0,51.0,160.0,129.0,2370.932
2370942.0,668.0,53.0,159.0,119.0,2370.942
2370952.0,668.0,54.0,157.0,120.0,2370.952
2370962.0,667.0,56.0,161.0,110.0,2370.962
2370972.0,668.0,56.0,150.0,115.0,2370.972
2370982.0,667.0,58.0,155.0,112.0,2370.982
2370992.0,668.0,58.0,153.0,120.0,2370.992
2371002.0,668.0,61.0,142.0,112.0,2371.002
2371012.0,668.0,64.0,134.0,130.0,2371.012
2371022.0,668.0,67.0,133.0,123.0,2371.022
2371032.0,667.0,69.0,148.0,129.0,2371.032
2371042.0,668.0,73.0,144.0,132.0,2371.042
2371052.0,668.0,77.0,136.0,137.0,2371.052
2371062.0,668.0,81.0,137.0,126.0,2371.062
2371072.0,668.0,84.0,132.0,119.0,2371.072
2371082.0,668.0,85.0,131.0,125.0,2371.082
2371092.0,669.0,89.0,136.0,113.0,2371.092
2371102.0,668.0,90.0,130.0,112.0,2371.102
2371112.0,668.0,93.0,128.0,112.0,2371.112
2371122.0,668.0,95.0,132.0,114.0,2371.122
2371132.0,668.0,96.0,121.0,122.0,2371.132
2371142.0,668.0,96.0,113.0,124.0,2371.142
2371152.0,667.0,99.0,124.0,112.0,2371.152
2371162.0,669.0,101.0,125.0,111.0,2371.162
2371172.0,668.0,103.0,125.0,102.0,2371.172
2371182.0,668.0,102.0,124.0,99.0,2371.182
2371192.0,667.0,101.0,117.0,102.0,2371.192
2371202.0,668.0,105.0,122.0,99.0,2371.202
2371212.0,668.0,104.0,120.0,91.0,2371.212
2371222.0,667.0,104.0,114.0,113.0,2371.222
2371232.0,667.0,101.0,117.0,113.0,2371.232
2371243.0,667.0,103.0,113.0,119.0,2371.243
2371253.0,668.0,105.0,108.0,112.0,2371.253
2371263.0,667.0,108.0,103.0,111.0,2371.263
2371273.0,667.0,109.0,103.0,106.0,2371.273
2371283.0,667.0,110.0,104.0,106.0,2371.283
2371293.0,668.0,114.0,107.0,111.0,2371.293
2371303.0,668.0,116.0,101.0,120.0,2371.303
2371313.0,668.0,117.0,99.0,115.0,2371.313
2371323.0,668.0,120.0,108.0,108.0,2371.323
2371333.0,668.0,123.0,110.0,101.0,2371.333
2371343.0,667.0,125.0,102.0,117.0,2371.343
2371353.0,668.0,126.0,105.0,112.0,2371.353
2371363.0,667.0,129.0,104.0,108.0,2371.363
2371373.0,668.0,129.0,106.0,110.0,2371.373
2371383.0,668.0,130.0,105.0,115.0,2371.383
2371393.0,667.0,131.0,104.0,110.0,2371.393
2371403.0,668.0,132.0,101.0,108.0,2371.403
2371414.0,668.0,132.0,120.0,117.0,2371.414
2371424.0,664.0,133.0,112.0,129.0,2371.424
2371434.0,655.0,136.0,109.0,124.0,2371.434
2371444.0,648.0,138.0,106.0,121.0,2371.444
2371454.0,638.0,138.0,111.0,112.0,2371.454
2371464.0,631.0,138.0,107.0,122.0,2371.464
2371474.0,624.0,139.0,115.0,124.0,2371.474
2371484.0,618.0,139.0,120.0,117.0,2371.484
2371494.0,611.0,140.0,115.0,116.0,2371.494
2371504.0,603.0,136.0,118.0,135.0,2371.504
2371514.0,595.0,138.0,112.0,134.0,2371.514
2371524.0,588.0,137.0,112.0,124.0,2371.524
2371534.0,580.0,138.0,128.0,119.0,2371.534
2371544.0,575.0,140.0,125.0,120.0,2371.544
2371554.0,569.0,140.0,120.0,121.0,2371.554
2371564.0,563.0,141.0,118.0,114.0,2371.564
2371574.0,557.0,141.0,118.0,114.0,2371.574
2371584.0,550.0,142.0,123.0,106.0,2371.584
2371594.0,544.0,141.0,116.0,106.0,2371.594
2371604.0,538.0,140.0,116.0,117.0,2371.604
2371614.0,533.0,141.0,112.0,111.0,2371.614
2371624.0,528.0,141.0,103.0,122.0,2371.624
2371634.0,521.0,139.0,101.0,121.0,2371.634
2371644.0,517.0,141.0,110.0,117.0,2371.644
2371654.0,510.0,140.0,111.0,127.0,2371.654
2371664.0,506.0,141.0,107.0,114.0,2371.664
2371674.0,502.0,142.0,101.0,118.0,2371.674
2371684.0,497.0,142.0,92.0,121.0,2371.684
2371694.0,492.0,137.0,87.0,120.0,2371.694
2371704.0,487.0,139.0,102.0,121.0,2371.704
2371714.0,484.0,138.0,107.0,117.0,2371.714
2371724.0,479.0,138.0,106.0,122.0,2371.724
2371734.0,473.0,136.0,103.0,122.0,2371.734
2371744.0,467.0,134.0,102.0,126.0,2371.744
2371755.0,462.0,133.0,106.0,122.0,2371.755
2371765.0,458.0,131.0,116.0,129.0,2371.765
2371775.0,451.0,131.0,105.0,132.0,2371.775
2371785.0,446.0,131.0,97.0,127.0,2371.785
2371795.0,442.0,132.0,99.0,122.0,2371.795
2371805.0,435.0,130.0,95.0,129.0,2371.805
2371815.0,431.0,131.0,104.0,130.0,2371.815
2371825.0,428.0,132.0,96.0,125.0,2371.825
2371835.0,423.0,132.0,94.0,132.0,2371.835
2371845.0,418.0,131.0,95.0,131.0,2371.845
2371855.0,416.0,133.0,93.0,127.0,2371.855
2371865.0,410.0,131.0,94.0,127.0,2371.865
2371875.0,405.0,129.0,96.0,130.0,2371.875
2371885.0,402.0,130.0,101.0,122.0,2371.885
2371895.0,400.0,131.0,89.0,119.0,2371.895
2371905.0,396.0,131.0,84.0,132.0,2371.905
2371915.0,392.0,131.0,89.0,136.0,2371.915
2371926.0,390.0,134.0,83.0,134.0,2371.926
2371936.0,385.0,134.0,78.0,137.0,2371.936
2371946.0,380.0,134.0,81.0,137.0,2371.946
2371956.0,377.0,135.0,77.0,135.0,2371.956
2371966.0,373.0,136.0,71.0,152.0,2371.966
2371976.0,368.0,136.0,86.0,152.0,2371.976
2371986.0,364.0,138.0,89.0,149.0,2371.986
2371996.0,361.0,143.0,83.0,145.0,2371.996
2372006.0,359.0,144.0,73.0,136.0,2372.006
2372016.0,356.0,145.0,65.0,133.0,2372.016
2372026.0,353.0,146.0,64.0,135.0,2372.026
2372036.0,350.0,146.0,67.0,140.0,2372.036
2372046.0,346.0,146.0,76.0,142.0,2372.046
2372056.0,342.0,145.0,74.0,136.0,2372.056
2372066.0,339.0,146.0,75.0,156.0,2372.066
2372076.0,337.0,146.0,68.0,148.0,2372.076
2372086.0,336.0,148.0,68.0,141.0,2372.086
2372096.0,334.0,149.0,68.0,132.0,2372.096
2372106.0,332.0,149.0,71.0,138.0,2372.106
2372116.0,329.0,150.0,68.0,146.0,2372.116
2372126.0,327.0,152.0,66.0,144.0,2372.126
2372136.0,324.0,154.0,63.0,135.0,2372.136
2372146.0,322.0,153.0,60.0,131.0,2372.146
2372156.0,320.0,152.0,54.0,146.0,2372.156
2372166.0,315.0,150.0,69.0,142.0,2372.166
2372176.0,312.0,150.0,78.0,137.0,2372.176
2372186.0,308.0,150.0,72.0,134.0,2372.186
2372196.0,306.0,150.0,63.0,141.0,2372.196
2372206.0,302.0,148.0,65.0,152.0,2372.206
2372216.0,299.0,149.0,67.0,141.0,2372.216
2372226.0,298.0,148.0,74.0,136.0,2372.226
2372236.0,293.0,147.0,87.0,143.0,2372.236
2372246.0,293.0,149.0,76.0,134.0,2372.246
2372256.0,289.0,147.0,70.0,140.0,2372.256
2372267.0,288.0,148.0,64.0,143.0,2372.267
2372277.0,285.0,145.0,61.0,174.0,2372.277
2372287.0,283.0,147.0,67.0,165.0,2372.287
2372297.0,279.0,144.0,69.0,157.0,2372.297
2372307.0,276.0,142.0,69.0,156.0,2372.307
2372317.0,274.0,140.0,65.0,163.0,2372.317
2372327.0,274.0,142.0,70.0,161.0,2372.327
2372337.0,270.0,142.0,63.0,164.0,2372.337
2372347.0,269.0,140.0,63.0,148.0,2372.347
2372357.0,266.0,138.0,71.0,148.0,2372.357
2372367.0,263.0,134.0,67.0,151.0,2372.367
2372377.0,262.0,132.0,60.0,153.0,2372.377
2372387.0,259.0,129.0,52.0,145.0,2372.387
2372397.0,258.0,127.0,48.0,145.0,2372.397
2372407.0,254.0,122.0,54.0,151.0,2372.407
2372417.0,252.0,121.0,56.0,137.0,2372.417
2372427.0,252.0,122.0,56.0,145.0,2372.427
2372438.0,251.0,120.0,49.0,138.0,2372.438
2372448.0,249.0,116.0,46.0,131.0,2372.448
2372458.0,245.0,116.0,53.0,133.0,2372.458
2372468.0,246.0,115.0,50.0,127.0,2372.468
2372478.0,243.0,115.0,52.0,130.0,2372.478
2372488.0,242.0,114.0,56.0,133.0,2372.488
2372498.0,241.0,115.0,58.0,140.0,2372.498
2372508.0,240.0,114.0,55.0,132.0,2372.508
2372518.0,237.0,110.0,56.0,141.0,2372.518
2372528.0,237.0,114.0,60.0,131.0,2372.528
2372538.0,236.0,112.0,59.0,128.0,2372.538
2372548.0,234.0,112.0,54.0,131.0,2372.548
2372558.0,234.0,112.0,50.0,128.0,2372.558
2372568.0,231.0,109.0,58.0,128.0,2372.568
2372578.0,231.0,109.0,50.0,134.0,2372.578
2372588.0,231.0,106.0,48.0,126.0,2372.588
2372598.0,229.0,106.0,53.0,126.0,2372.598
2372608.0,229.0,104.0,55.0,128.0,2372.608
2372618.0,228.0,103.0,54.0,145.0,2372.618
2372628.0,227.0,103.0,50.0,133.0,2372.628
2372638.0,226.0,102.0,48.0,131.0,2372.638
2372648.0,225.0,101.0,48.0,140.0,2372.648
2372658.0,225.0,100.0,46.0,135.0,2372.658
2372668.0,221.0,97.0,53.0,140.0,2372.668
2372678.0,222.0,98.0,51.0,132.0,2372.678
2372688.0,221.0,98.0,46.0,122.0,2372.688
2372698.0,220.0,97.0,40.0,121.0,2372.698
2372708.0,219.0,96.0,37.0,119.0,2372.708
2372718.0,218.0,97.0,34.0,117.0,2372.718
2372728.0,216.0,95.0,36.0,121.0,2372.728
2372738.0,215.0,95.0,34.0,132.0,2372.738
2372748.0,211.0,91.0,32.0,126.0,2372.748
2372758.0,211.0,91.0,33.0,120.0,2372.758
2372768.0,210.0,91.0,28.0,125.0,2372.768
2372779.0,210.0,90.0,34.0,128.0,2372.779
2372789.0,208.0,90.0,34.0,127.0,2372.789
2372799.0,206.0,88.0,37.0,120.0,2372.799
2372809.0,205.0,86.0,39.0,122.0,2372.809
2372819.0,203.0,87.0,45.0,119.0,2372.819
2372829.0,203.0,86.0,41.0,131.0,2372.829
2372839.0,201.0,86.0,41.0,122.0,2372.839
2372849.0,200.0,85.0,36.0,112.0,2372.849
2372859.0,198.0,87.0,33.0,112.0,2372.859
2372869.0,195.0,84.0,35.0,111.0,2372.869
2372879.0,195.0,84.0,33.0,133.0,2372.879
2372889.0,194.0,85.0,39.0,131.0,2372.889
2372899.0,192.0,85.0,35.0,127.0,2372.899
2372909.0,192.0,86.0,33.0,119.0,2372.909
2372919.0,189.0,85.0,33.0,113.0,2372.919
2372929.0,188.0,84.0,32.0,120.0,2372.929
2372939.0,187.0,84.0,30.0,115.0,2372.939
2372950.0,186.0,81.0,36.0,116.0,2372.95
2372960.0,185.0,83.0,31.0,110.0,2372.96
2372970.0,182.0,82.0,28.0,104.0,2372.97
2372980.0,180.0,82.0,28.0,119.0,2372.98
2372990.0,178.0,82.0,29.0,125.0,2372.99
2373000.0,179.0,83.0,26.0,123.0,2373.0
2373010.0,178.0,83.0,27.0,122.0,2373.01
2373020.0,178.0,81.0,26.0,118.0,2373.02
2373030.0,176.0,81.0,28.0,135.0,2373.03
2373040.0,175.0,82.0,26.0,137.0,2373.04
2373050.0,175.0,82.0,23.0,131.0,2373.05
2373060.0,174.0,84.0,20.0,125.0,2373.06
2373070.0,175.0,83.0,19.0,150.0,2373.07
2373080.0,174.0,85.0,24.0,139.0,2373.08
2373090.0,174.0,86.0,24.0,134.0,2373.09
2373100.0,173.0,85.0,23.0,145.0,2373.1
2373110.0,172.0,84.0,24.0,137.0,2373.11
2373120.0,172.0,83.0,23.0,139.0,2373.12
2373130.0,170.0,82.0,32.0,152.0,2373.13
2373140.0,170.0,82.0,31.0,150.0,2373.14
2373150.0,168.0,81.0,33.0,152.0,2373.15
2373160.0,167.0,83.0,31.0,139.0,2373.16
2373170.0,167.0,84.0,28.0,143.0,2373.17
2373180.0,165.0,84.0,25.0,137.0,2373.18
2373190.0,165.0,82.0,28.0,145.0,2373.19
2373200.0,163.0,80.0,26.0,137.0,2373.2
2373210.0,162.0,78.0,28.0,129.0,2373.21
2373220.0,161.0,78.0,34.0,132.0,2373.22
2373230.0,159.0,76.0,35.0,137.0,2373.23
2373240.0,160.0,75.0,31.0,136.0,2373.24
2373250.0,157.0,74.0,31.0,133.0,2373.25
2373260.0,158.0,71.0,38.0,137.0,2373.26
2373270.0,156.0,71.0,37.0,128.0,2373.27
2373280.0,154.0,70.0,33.0,119.0,2373.28
2373291.0,154.0,70.0,30.0,130.0,2373.291
2373301.0,153.0,69.0,33.0,126.0,2373.301
2373311.0,154.0,69.0,30.0,117.0,2373.311
2373321.0,152.0,69.0,27.0,114.0,2373.321
2373331.0,150.0,66.0,34.0,130.0,2373.331
2373341.0,151.0,67.0,31.0,121.0,2373.341
2373351.0,150.0,67.0,28.0,126.0,2373.351
2373361.0,151.0,67.0,26.0,114.0,2373.361
2373371.0,150.0,67.0,22.0,112.0,2373.371
2373381.0,150.0,66.0,28.0,112.0,2373.381
2373391.0,148.0,68.0,27.0,122.0,2373.391
2373401.0,148.0,69.0,26.0,115.0,2373.401
2373411.0,146.0,70.0,23.0,128.0,2373.411
2373421.0,145.0,70.0,23.0,130.0,2373.421
2373431.0,144.0,69.0,20.0,120.0,2373.431
2373441.0,142.0,69.0,18.0,116.0,2373.441
2373451.0,139.0,67.0,24.0,132.0,2373.451
2373462.0,139.0,70.0,24.0,140.0,2373.462
2373472.0,138.0,68.0,22.0,139.0,2373.472
2373482.0,137.0,67.0,20.0,136.0,2373.482
2373492.0,134.0,68.0,18.0,123.0,2373.492
2373502.0,135.0,66.0,17.0,137.0,2373.502
2373512.0,132.0,66.0,18.0,127.0,2373.512
2373522.0,131.0,65.0,18.0,124.0,2373.522
2373532.0,130.0,64.0,17.0,123.0,2373.532
2373542.0,131.0,62.0,17.0,121.0,2373.542
2373552.0,132.0,61.0,15.0,114.0,2373.552
2373562.0,130.0,59.0,16.0,123.0,2373.562
2373572.0,130.0,58.0,23.0,114.0,2373.572
2373582.0,130.0,57.0,30.0,108.0,2373.582
2373592.0,130.0,55.0,28.0,128.0,2373.592
2373602.0,132.0,54.0,25.0,122.0,2373.602
2373612.0,133.0,56.0,22.0,118.0,2373.612
2373622.0,133.0,53.0,20.0,109.0,2373.622
2373632.0,132.0,51.0,18.0,108.0,2373.632
2373642.0,132.0,53.0,30.0,133.0,2373.642
2373652.0,130.0,52.0,30.0,127.0,2373.652
2373662.0,130.0,52.0,28.0,131.0,2373.662
2373672.0,131.0,52.0,26.0,120.0,2373.672
2373682.0,130.0,52.0,28.0,119.0,2373.682
2373692.0,129.0,52.0,24.0,114.0,2373.692
2373702.0,128.0,51.0,22.0,116.0,2373.702
2373712.0,129.0,53.0,30.0,138.0,2373.712
2373722.0,127.0,53.0,35.0,133.0,2373.722
2373732.0,126.0,53.0,31.0,124.0,2373.732
2373742.0,125.0,51.0,28.0,123.0,2373.742
2373752.0,125.0,50.0,24.0,121.0,2373.752
2373762.0,124.0,49.0,27.0,128.0,2373.762
2373772.0,123.0,47.0,30.0,132.0,2373.772
2373782.0,121.0,46.0,33.0,120.0,2373.782
2373792.0,122.0,47.0,31.0,110.0,2373.792
2373803.0,120.0,47.0,28.0,112.0,2373.803
2373813.0,121.0,46.0,25.0,114.0,2373.813
2373823.0,121.0,48.0,27.0,114.0,2373.823
2373833.0,120.0,50.0,33.0,121.0,2373.833
2373843.0,119.0,48.0,29.0,119.0,2373.843
2373853.0,117.0,48.0,27.0,113.0,2373.853
2373863.0,117.0,48.0,25.0,109.0,2373.863
2373873.0,115.0,49.0,24.0,119.0,2373.873
2373883.0,114.0,47.0,26.0,112.0,2373.883
2373893.0,113.0,48.0,29.0,120.0,2373.893
2373903.0,111.0,48.0,35.0,127.0,2373.903
2373913.0,113.0,50.0,34.0,127.0,2373.913
2373923.0,110.0,50.0,32.0,120.0,2373.923
2373933.0,110.0,50.0,29.0,119.0,2373.933
2373943.0,108.0,50.0,29.0,118.0,2373.943
2373953.0,108.0,48.0,26.0,114.0,2373.953
2373963.0,109.0,47.0,26.0,108.0,2373.963
2373974.0,108.0,49.0,36.0,110.0,2373.974
2373984.0,107.0,47.0,34.0,117.0,2373.984
2373994.0,105.0,48.0,31.0,119.0,2373.994
2374004.0,103.0,47.0,28.0,126.0,2374.004
2374014.0,103.0,47.0,27.0,123.0,2374.014
2374024.0,102.0,46.0,25.0,127.0,2374.024
2374034.0,101.0,44.0,24.0,118.0,2374.034
2374044.0,103.0,45.0,21.0,120.0,2374.044
2374054.0,102.0,45.0,30.0,119.0,2374.054
2374064.0,101.0,43.0,30.0,119.0,2374.064
2374074.0,100.0,42.0,26.0,118.0,2374.074
2374084.0,98.0,41.0,30.0,116.0,2374.084
2374094.0,99.0,43.0,29.0,120.0,2374.094
2374104.0,99.0,41.0,27.0,114.0,2374.104
2374114.0,99.0,40.0,24.0,112.0,2374.114
2374124.0,100.0,43.0,32.0,109.0,2374.124
2374134.0,98.0,42.0,29.0,105.0,2374.134
2374144.0,99.0,43.0,29.0,103.0,2374.144
2374154.0,98.0,41.0,35.0,108.0,2374.154
2374164.0,98.0,45.0,36.0,110.0,2374.164
2374174.0,96.0,43.0,41.0,102.0,2374.174
2374184.0,96.0,43.0,37.0,99.0,2374.184
2374194.0,95.0,43.0,40.0,92.0,2374.194
2374204.0,96.0,42.0,41.0,116.0,2374.204
2374214.0,94.0,42.0,36.0,114.0,2374.214
2374224.0,93.0,40.0,33.0,109.0,2374.224
2374234.0,93.0,39.0,32.0,108.0,2374.234
2374244.0,92.0,42.0,36.0,108.0,2374.244
2374254.0,91.0,41.0,32.0,102.0,2374.254
2374264.0,90.0,42.0,33.0,110.0,2374.264
2374274.0,92.0,43.0,37.0,105.0,2374.274
2374284.0,92.0,46.0,39.0,97.0,2374.284
2374294.0,92.0,47.0,38.0,93.0,2374.294
2374304.0,91.0,47.0,35.0,94.0,2374.304
2374315.0,90.0,48.0,35.0,90.0,2374.315
2374325.0,91.0,50.0,33.0,95.0,2374.325
2374335.0,91.0,49.0,29.0,92.0,2374.335
2374345.0,91.0,49.0,31.0,93.0,2374.345
2374355.0,91.0,49.0,35.0,91.0,2374.355
2374365.0,92.0,48.0,35.0,92.0,2374.365
2374375.0,91.0,49.0,31.0,96.0,2374.375
2374385.0,90.0,50.0,36.0,89.0,2374.385
2374395.0,90.0,52.0,37.0,83.0,2374.395
2374405.0,89.0,52.0,36.0,81.0,2374.405
2374415.0,90.0,51.0,40.0,84.0,2374.415
2374425.0,89.0,50.0,40.0,101.0,2374.425
2374435.0,89.0,49.0,37.0,104.0,2374.435
2374445.0,87.0,47.0,41.0,102.0,2374.445
2374455.0,87.0,49.0,46.0,96.0,2374.455
2374465.0,88.0,49.0,42.0,99.0,2374.465
2374475.0,88.0,49.0,37.0,98.0,2374.475
2374486.0,89.0,50.0,41.0,102.0,2374.486
2374496.0,88.0,49.0,39.0,100.0,2374.496
2374506.0,87.0,48.0,35.0,97.0,2374.506
2374516.0,85.0,49.0,40.0,105.0,2374.516
2374526.0,87.0,52.0,37.0,100.0,2374.526
2374536.0,86.0,50.0,34.0,105.0,2374.536
2374546.0,85.0,51.0,32.0,100.0,2374.546
2374556.0,87.0,50.0,36.0,103.0,2374.556
2374566.0,86.0,49.0,32.0,99.0,2374.566
2374576.0,86.0,49.0,45.0,117.0,2374.576
2374586.0,87.0,50.0,41.0,113.0,2374.586
2374596.0,90.0,52.0,41.0,113.0,2374.596
2374606.0,88.0,50.0,42.0,108.0,2374.606
2374616.0,88.0,48.0,38.0,103.0,2374.616
2374626.0,87.0,48.0,40.0,106.0,2374.626
2374636.0,86.0,48.0,47.0,107.0,2374.636
2374646.0,86.0,48.0,50.0,101.0,2374.646
2374656.0,85.0,47.0,46.0,101.0,2374.656
2374666.0,86.0,49.0,47.0,103.0,2374.666
2374676.0,86.0,48.0,45.0,94.0,2374.676
2374686.0,83.0,47.0,44.0,100.0,2374.686
2374696.0,83.0,50.0,49.0,112.0,2374.696
2374706.0,83.0,50.0,44.0,105.0,2374.706
2374716.0,81.0,51.0,50.0,101.0,2374.716
2374726.0,82.0,50.0,50.0,94.0,2374.726
2374736.0,81.0,50.0,46.0,97.0,2374.736
2374746.0,81.0,49.0,43.0,99.0,2374.746
2374756.0,82.0,51.0,57.0,114.0,2374.756
2374766.0,81.0,51.0,51.0,110.0,2374.766
2374776.0,84.0,53.0,55.0,106.0,2374.776
2374786.0,85.0,53.0,53.0,107.0,2374.786
2374796.0,84.0,52.0,50.0,121.0,2374.796
2374806.0,84.0,51.0,57.0,119.0,2374.806
2374816.0,83.0,51.0,54.0,109.0,2374.816
2374827.0,86.0,52.0,53.0,106.0,2374.827
2374837.0,85.0,52.0,50.0,104.0,2374.837
2374847.0,88.0,53.0,53.0,124.0,2374.847
2374857.0,88.0,53.0,47.0,114.0,2374.857
2374867.0,86.0,52.0,52.0,112.0,2374.867
2374877.0,88.0,53.0,57.0,109.0,2374.877
2374887.0,87.0,54.0,57.0,104.0,2374.887
2374897.0,87.0,52.0,54.0,116.0,2374.897
2374907.0,88.0,52.0,49.0,110.0,2374.907
2374917.0,88.0,51.0,50.0,105.0,2374.917
2374927.0,86.0,50.0,46.0,104.0,2374.927
2374937.0,83.0,51.0,57.0,114.0,2374.937
2374947.0,84.0,51.0,58.0,116.0,2374.947
2374957.0,83.0,51.0,55.0,110.0,2374.957
2374967.0,83.0,48.0,52.0,106.0,2374.967
2374977.0,83.0,48.0,48.0,102.0,2374.977
2374987.0,83.0,49.0,56.0,102.0,2374.987
2374998.0,84.0,49.0,54.0,102.0,2374.998
2375008.0,82.0,49.0,48.0,99.0,2375.008
2375018.0,82.0,48.0,45.0,95.0,2375.018
2375028.0,82.0,48.0,42.0,91.0,2375.028
2375038.0,81.0,45.0,41.0,87.0,2375.038
2375048.0,82.0,47.0,45.0,89.0,2375.048
2375058.0,81.0,46.0,42.0,86.0,2375.058
2375068.0,80.0,46.0,40.0,85.0,2375.068
2375078.0,78.0,46.0,38.0,89.0,2375.078
2375088.0,78.0,46.0,36.0,88.0,2375.088
2375098.0,76.0,45.0,38.0,100.0,2375.098
2375108.0,77.0,46.0,49.0,100.0,2375.108
2375118.0,76.0,45.0,45.0,100.0,2375.118
2375128.0,76.0,44.0,42.0,100.0,2375.128
2375138.0,77.0,45.0,42.0,96.0,2375.138
2375148.0,75.0,46.0,43.0,105.0,2375.148
2375158.0,75.0,47.0,46.0,95.0,2375.158
2375168.0,74.0,47.0,51.0,97.0,2375.168
2375178.0,76.0,50.0,49.0,97.0,2375.178
2375188.0,76.0,50.0,44.0,100.0,2375.188
2375198.0,75.0,50.0,45.0,91.0,2375.198
2375208.0,73.0,48.0,41.0,98.0,2375.208
2375218.0,72.0,48.0,48.0,96.0,2375.218
2375228.0,72.0,49.0,52.0,98.0,2375.228
2375238.0,73.0,48.0,48.0,93.0,2375.238
2375248.0,72.0,46.0,43.0,100.0,2375.248
2375258.0,72.0,45.0,41.0,98.0,2375.258
2375268.0,72.0,45.0,42.0,93.0,2375.268
2375278.0,73.0,43.0,43.0,91.0,2375.278
2375288.0,74.0,46.0,50.0,95.0,2375.288
2375298.0,76.0,44.0,47.0,106.0,2375.298
2375308.0,76.0,44.0,44.0,122.0,2375.308
2375318.0,75.0,44.0,39.0,112.0,2375.318
2375328.0,76.0,42.0,39.0,108.0,2375.328
2375339.0,76.0,41.0,37.0,105.0,2375.339
2375349.0,76.0,43.0,46.0,114.0,2375.349
2375359.0,77.0,43.0,45.0,115.0,2375.359
2375369.0,76.0,42.0,39.0,107.0,2375.369
2375379.0,76.0,41.0,39.0,109.0,2375.379
2375389.0,75.0,41.0,34.0,107.0,2375.389
2375399.0,74.0,42.0,48.0,108.0,2375.399
2375409.0,74.0,42.0,48.0,107.0,2375.409
2375419.0,73.0,41.0,46.0,108.0,2375.419
2375429.0,74.0,40.0,45.0,102.0,2375.429
2375439.0,72.0,41.0,42.0,104.0,2375.439
2375449.0,72.0,42.0,40.0,96.0,2375.449
2375459.0,72.0,41.0,37.0,102.0,2375.459
2375469.0,72.0,40.0,37.0,96.0,2375.469
2375479.0,71.0,41.0,45.0,100.0,2375.479
2375489.0,73.0,41.0,41.0,98.0,2375.489
2375499.0,72.0,39.0,40.0,96.0,2375.499
2375510.0,71.0,40.0,36.0,95.0,2375.51
2375520.0,72.0,40.0,44.0,99.0,2375.52
2375530.0,72.0,39.0,40.0,99.0,2375.53
2375540.0,71.0,37.0,35.0,99.0,2375.54
2375550.0,73.0,38.0,43.0,94.0,2375.55
2375560.0,73.0,39.0,43.0,91.0,2375.56
2375570.0,75.0,38.0,40.0,94.0,2375.57
2375580.0,76.0,39.0,36.0,94.0,2375.58
2375590.0,77.0,38.0,34.0,90.0,2375.59
2375600.0,76.0,38.0,34.0,87.0,2375.6
2375610.0,75.0,40.0,39.0,84.0,2375.61
2375620.0,74.0,40.0,36.0,85.0,2375.62
2375630.0,73.0,41.0,32.0,93.0,2375.63
2375640.0,75.0,42.0,31.0,95.0,2375.64
2375650.0,74.0,42.0,29.0,86.0,2375.65
2375660.0,73.0,41.0,26.0,81.0,2375.66
2375670.0,73.0,43.0,30.0,81.0,2375.67
2375680.0,72.0,43.0,28.0,120.0,2375.68
2375690.0,74.0,44.0,25.0,113.0,2375.69
2375700.0,74.0,45.0,23.0,111.0,2375.7
2375710.0,74.0,43.0,21.0,102.0,2375.71
2375720.0,73.0,42.0,21.0,100.0,2375.72
2375730.0,71.0,43.0,28.0,121.0,2375.73
2375740.0,72.0,43.0,26.0,109.0,2375.74
2375750.0,71.0,43.0,26.0,101.0,2375.75
2375760.0,71.0,42.0,25.0,98.0,2375.76
2375770.0,70.0,39.0,22.0,108.0,2375.77
2375780.0,69.0,39.0,25.0,104.0,2375.78
2375790.0,71.0,40.0,28.0,96.0,2375.79
2375800.0,68.0,43.0,31.0,90.0,2375.8
2375810.0,69.0,43.0,28.0,90.0,2375.81
2375820.0,67.0,43.0,29.0,99.0,2375.82
2375830.0,67.0,41.0,26.0,96.0,2375.83
2375840.0,66.0,39.0,24.0,93.0,2375.84
2375851.0,64.0,42.0,33.0,90.0,2375.851
2375861.0,67.0,43.0,31.0,86.0,2375.861
2375871.0,66.0,42.0,26.0,90.0,2375.871
2375881.0,67.0,42.0,25.0,91.0,2375.881
2375891.0,66.0,41.0,23.0,97.0,2375.891
2375901.0,66.0,41.0,21.0,90.0,2375.901
2375911.0,66.0,41.0,18.0,90.0,2375.911
2375921.0,64.0,41.0,23.0,96.0,2375.921
2375931.0,64.0,40.0,30.0,89.0,2375.931
2375941.0,65.0,41.0,25.0,95.0,2375.941
2375951.0,63.0,40.0,23.0,91.0,2375.951
2375961.0,63.0,40.0,27.0,84.0,2375.961
2375971.0,62.0,40.0,23.0,92.0,2375.971
2375981.0,62.0,39.0,27.0,91.0,2375.981
2375991.0,63.0,44.0,35.0,91.0,2375.991
2376001.0,61.0,42.0,32.0,88.0,2376.001
2376011.0,61.0,41.0,34.0,86.0,2376.011
2376022.0,61.0,41.0,33.0,89.0,2376.022
2376032.0,59.0,40.0,29.0,95.0,2376.032
2376042.0,58.0,40.0,30.0,93.0,2376.042
2376052.0,57.0,38.0,30.0,94.0,2376.052
2376062.0,56.0,41.0,37.0,92.0,2376.062
2376072.0,56.0,40.0,38.0,101.0,2376.072
2376082.0,56.0,40.0,34.0,107.0,2376.082
2376092.0,56.0,41.0,32.0,104.0,2376.092
2376102.0,54.0,40.0,31.0,105.0,2376.102
2376112.0,53.0,42.0,36.0,109.0,2376.112
2376122.0,54.0,42.0,38.0,102.0,2376.122
2376132.0,53.0,42.0,34.0,107.0,2376.132
2376142.0,54.0,42.0,32.0,104.0,2376.142
2376152.0,52.0,41.0,28.0,101.0,2376.152
2376162.0,52.0,42.0,26.0,96.0,2376.162
2376172.0,51.0,40.0,26.0,96.0,2376.172
2376182.0,50.0,43.0,40.0,94.0,2376.182
2376192.0,53.0,42.0,38.0,94.0,2376.192
2376202.0,52.0,41.0,35.0,103.0,2376.202
2376212.0,51.0,40.0,34.0,94.0,2376.212
2376222.0,53.0,40.0,33.0,93.0,2376.222
2376232.0,52.0,39.0,31.0,94.0,2376.232
2376242.0,53.0,39.0,38.0,84.0,2376.242
2376252.0,53.0,40.0,44.0,85.0,2376.252
2376262.0,54.0,39.0,40.0,87.0,2376.262
2376272.0,54.0,38.0,38.0,88.0,2376.272
2376282.0,53.0,38.0,36.0,91.0,2376.282
2376292.0,54.0,38.0,34.0,86.0,2376.292
2376302.0,53.0,38.0,42.0,83.0,2376.302
2376312.0,54.0,39.0,46.0,82.0,2376.312
2376322.0,56.0,40.0,47.0,85.0,2376.322
2376332.0,56.0,39.0,42.0,83.0,2376.332
2376342.0,55.0,39.0,38.0,81.0,2376.342
2376352.0,55.0,40.0,37.0,80.0,2376.352
2376363.0,55.0,38.0,34.0,80.0,2376.363
2376373.0,58.0,42.0,45.0,89.0,2376.373
2376383.0,58.0,41.0,41.0,89.0,2376.383
2376393.0,59.0,40.0,36.0,87.0,2376.393
2376403.0,59.0,40.0,35.0,84.0,2376.403
2376413.0,60.0,38.0,38.0,79.0,2376.413
2376423.0,61.0,38.0,37.0,82.0,2376.423
2376433.0,61.0,40.0,37.0,77.0,2376.433
2376443.0,61.0,42.0,37.0,83.0,2376.443
2376453.0,61.0,41.0,36.0,81.0,2376.453
2376463.0,60.0,41.0,34.0,79.0,2376.463
2376473.0,60.0,40.0,31.0,77.0,2376.473
2376483.0,61.0,39.0,31.0,82.0,2376.483
2376493.0,60.0,40.0,35.0,80.0,2376.493
2376503.0,59.0,42.0,35.0,78.0,2376.503
2376513.0,59.0,41.0,34.0,76.0,2376.513
2376523.0,60.0,43.0,35.0,80.0,2376.523
2376534.0,60.0,42.0,32.0,81.0,2376.534
2376544.0,59.0,44.0,36.0,87.0,2376.544
2376554.0,62.0,45.0,33.0,82.0,2376.554
2376564.0,61.0,46.0,31.0,76.0,2376.564
2376574.0,61.0,46.0,29.0,82.0,2376.574
2376584.0,63.0,46.0,28.0,83.0,2376.584
2376594.0,62.0,46.0,24.0,87.0,2376.594
2376604.0,63.0,45.0,23.0,92.0,2376.604
2376614.0,64.0,46.0,32.0,87.0,2376.614
2376624.0,65.0,45.0,32.0,88.0,2376.624
2376634.0,67.0,45.0,29.0,105.0,2376.634
2376644.0,68.0,45.0,27.0,110.0,2376.644
2376654.0,69.0,45.0,28.0,104.0,2376.654
2376664.0,68.0,45.0,24.0,97.0,2376.664
2376674.0,67.0,45.0,28.0,93.0,2376.674
2376684.0,67.0,49.0,28.0,107.0,2376.684
2376694.0,67.0,51.0,29.0,107.0,2376.694
2376704.0,68.0,50.0,26.0,102.0,2376.704
2376714.0,67.0,50.0,23.0,94.0,2376.714
2376724.0,69.0,50.0,28.0,98.0,2376.724
2376734.0,68.0,47.0,24.0,93.0,2376.734
2376744.0,70.0,49.0,26.0,106.0,2376.744
2376754.0,71.0,48.0,24.0,112.0,2376.754
2376764.0,70.0,48.0,21.0,111.0,2376.764
2376774.0,72.0,48.0,20.0,103.0,2376.774
2376784.0,69.0,47.0,18.0,97.0,2376.784
2376794.0,71.0,47.0,19.0,97.0,2376.794
2376804.0,68.0,47.0,21.0,95.0,2376.804
2376814.0,70.0,49.0,25.0,103.0,2376.814
2376824.0,69.0,47.0,23.0,99.0,2376.824
2376834.0,69.0,46.0,21.0,95.0,2376.834
2376844.0,69.0,44.0,18.0,93.0,2376.844
2376854.0,67.0,43.0,17.0,99.0,2376.854
2376864.0,67.0,43.0,20.0,96.0,2376.864
2376875.0,66.0,44.0,26.0,90.0,2376.875
2376885.0,67.0,43.0,25.0,83.0,2376.885
2376895.0,68.0,42.0,23.0,82.0,2376.895
2376905.0,68.0,41.0,20.0,89.0,2376.905
2376915.0,68.0,40.0,18.0,84.0,2376.915
2376925.0,66.0,41.0,21.0,85.0,2376.925
