399.0,403.0,403.0,404.0,406.0,405.0,405.0,405.0,404.0,403.0,401.0,401.0,400.0,399.0,398.0,396.0,396.0,392.0,391.0,388.0,387.0,384.0,385.0,381.0,379.0,375.0,374.0,372.0,369.0,367.0,365.0,365.0,363.0,361.0,359.0,355.0,354.0,351.0,352.0,349.0,345.0,343.0,341.0,339.0,336.0,334.0,331.0,326.0,324.0,322.0,320.0,317.0,313.0,310.0,307.0,303.0,301.0,296.0,294.0,293.0,289.0,284.0,282.0,281.0,278.0,276.0,276.0,276.0,274.0,272.0,270.0,268.0,266.0,266.0,266.0,264.0,264.0,264.0,262.0,262.0,264.0,265.0,266.0,267.0,268.0,269.0,270.0,273.0,275.0,276.0,278.0,279.0,279.0,278.0,279.0,281.0,282.0,282.0,282.0,282.0,282.0,279.0,277.0,274.0,270.0,266.0,263.0,259.0,255.0,252.0,246.0,241.0,236.0,233.0,228.0,223.0,218.0,213.0,208.0,203.0,197.0,192.0,189.0,185.0,179.0,174.0,168.0,164.0,160.0,155.0,148.0,140.0,132.0,124.0,118.0,111.0,105.0,100.0,95.0,92.0,86.0,81.0,77.0,73.0,70.0,66.0,64.0,62.0,59.0,57.0,55.0,56.0,52.0,53.0,52.0,51.0,50.0,51.0,52.0,50.0,54.0,53.0,55.0,57.0,58.0,63.0,64.0,67.0,68.0,70.0,72.0,72.0,75.0,76.0,78.0,78.0,80.0,81.0,84.0,86.0,87.0,89.0,91.0,93.0,94.0,96.0,100.0,101.0,103.0,105.0,107.0,109.0,112.0,114.0,114.0,116.0,118.0,118.0,120.0,121.0,123.0,122.0,123.0,126.0,125.0,126.0,128.0,129.0,132.0,133.0,136.0,137.0,140.0,142.0,144.0,144.0,145.0,146.0,146.0,144.0,142.0,142.0,142.0,142.0,142.0,142.0,143.0,143.0,143.0,144.0,142.0,142.0,142.0,141.0,140.0,139.0,137.0,136.0,137.0,134.0,135.0,134.0,135.0,133.0,132.0,132.0,129.0,129.0,128.0,128.0,128.0,128.0,126.0,125.0,124.0,123.0,123.0,124.0,123.0,123.0,122.0,121.0,119.0,121.0,120.0,122.0,123.0,122.0,123.0,125.0,126.0,125.0,124.0,124.0,124.0,123.0,123.0,124.0,124.0,124.0,123.0,122.0,122.0,121.0,120.0,119.0,118.0,119.0,119.0,120.0,118.0,119.0,117.0,117.0,117.0,115.0,115.0,115.0,114.0,114.0,114.0,113.0,113.0,112.0,111.0,110.0,108.0,107.0,108.0,107.0,107.0,105.0,105.0,104.0,101.0,99.0,98.0,95.0,96.0,95.0,96.0,94.0,94.0,92.0,92.0,93.0,92.0,91.0,90.0,90.0,91.0,91.0,91.0,91.0,90.0,90.0,90.0,90.0,89.0,88.0,88.0,87.0,87.0,88.0,87.0,87.0,85.0,84.0,83.0,80.0,79.0,78.0,78.0,75.0,75.0,75.0,72.0,72.0,72.0,71.0,70.0,71.0,73.0,71.0,73.0,73.0,74.0,75.0,76.0,76.0,75.0,76.0,75.0,73.0,71.0,71.0,70.0,68.0,69.0,69.0,69.0,69.0,71.0,71.0,71.0,70.0,70.0,69.0,66.0,65.0,64.0,64.0,63.0,62.0,62.0,60.0,60.0,58.0,57.0,57.0,57.0,58.0,57.0,57.0,57.0,55.0,55.0,54.0,54.0,53.0,55.0,55.0,54.0,52.0,52.0,52.0,52.0,51.0,51.0,49.0,52.0,51.0,52.0,52.0,53.0,54.0,54.0,56.0,56.0,56.0,57.0,56.0,57.0,58.0,58.0,57.0,57.0,57.0,57.0,56.0,55.0,54.0,55.0,54.0,54.0,56.0,54.0,52.0,52.0,50.0,51.0,52.0,51.0,50.0,48.0,48.0,49.0,50.0,50.0,51.0,53.0,51.0,51.0,50.0,50.0,49.0,49.0,49.0,50.0,51.0,50.0,50.0,49.0,49.0,50.0,48.0,48.0,47.0,48.0,47.0,47.0,49.0,47.0,48.0,46.0,47.0,46.0,47.0,47.0,46.0,46.0,46.0,45.0,44.0,43.0,43.0,44.0,45.0,44.0,45.0,44.0,43.0,44.0,44.0,46.0,46.0,46.0,46.0,45.0,46.0,46.0,47.0,45.0,45.0,46.0,45.0,47.0,45.0,44.0,44.0,44.0,45.0,45.0,45.0,44.0,44.0,44.0,43.0,44.0,44.0,43.0,42.0,44.0,42.0,42.0,42.0,42.0,43.0,42.0,42.0,43.0,42.0,44.0,44.0,44.0,42.0,43.0,43.0,44.0,43.0,43.0,44.0,44.0,44.0,44.0,43.0,44.0,44.0,45.0,43.0,42.0,42.0,42.0,42.0,42.0,44.0,42.0,43.0,42.0,42.0,42.0,41.0,43.0,42.0,41.0,41.0,42.0,42.0,41.0,42.0,41.0,43.0,44.0,45.0,44.0,44.0,45.0,45.0,44.0,44.0,43.0,44.0,45.0,46.0,46.0,45.0,44.0,45.0,46.0,45.0,45.0,44.0,44.0,45.0,43.0,44.0,43.0,44.0,43.0,44.0,43.0,43.0,42.0,43.0,43.0,41.0,41.0,41.0,40.0,43.0,45.0,47.0,47.0,47.0,47.0,46.0,46.0,45.0,45.0,44.0,46.0,46.0,45.0,44.0,44.0,44.0,44.0,44.0,45.0,45.0,44.0,45.0,45.0,44.0,44.0,44.0,43.0,42.0,43.0,44.0,44.0,44.0,45.0,45.0,46.0,45.0,47.0,45.0,44.0,44.0,44.0,46.0,46.0,47.0,45.0,45.0,44.0,43.0,44.0,43.0,43.0,45.0,49.0,55.0,59.0,73.0,88.0,93.0,99.0,91.0,89.0,86.0,82.0,79.0,75.0,72.0,70.0,75.0,81.0,85.0,85.0,102.0,100.0,96.0,97.0,93.0,97.0,101.0,101.0,103.0,128.0,140.0,143.0,140.0,135.0,125.0,120.0,111.0,124.0,120.0,119.0,132.0,123.0,112.0,102.0,96.0,91.0,87.0,87.0,85.0,91.0,96.0,90.0,86.0,81.0,80.0,78.0,76.0,76.0,76.0,74.0,71.0,71.0,68.0,68.0,63.0,65.0,63.0,63.0,66.0,65.0,62.0,60.0,57.0,59.0,58.0,57.0,57.0,56.0,56.0,57.0,56.0,57.0,57.0,57.0,57.0,65.0,76.0,88.0,89.0,95.0,95.0,94.0,92.0,90.0,99.0,97.0,95.0,104.0,102.0,109.0,113.0,109.0,107.0,103.0,101.0,99.0,98.0,93.0,91.0,88.0,86.0,83.0,81.0,78.0,76.0,71.0,69.0,67.0,65.0,63.0,60.0,59.0,59.0,59.0,59.0,59.0,59.0,59.0,58.0,60.0,62.0,61.0,63.0,67.0,63.0,63.0,65.0,64.0,64.0,65.0,66.0,64.0,62.0,63.0,63.0,63.0,65.0,67.0,66.0,66.0,66.0,66.0,67.0,69.0,71.0,70.0,70.0,69.0,67.0,69.0,68.0,69.0,66.0,65.0,68.0,67.0,68.0,65.0,65.0,64.0,66.0,68.0,69.0,69.0,70.0,71.0,68.0,70.0,72.0,73.0,73.0,73.0,74.0,73.0,74.0,73.0,70.0,68.0,67.0,67.0,66.0,65.0,65.0,65.0,63.0,63.0,63.0,62.0,60.0,59.0,62.0,61.0,60.0,59.0,58.0,58.0,59.0,59.0,59.0,59.0,59.0,60.0,61.0,60.0,62.0,62.0,62.0,64.0,64.0,65.0,65.0,65.0,66.0,63.0,63.0,61.0,62.0,61.0,59.0,59.0,60.0,61.0,60.0,60.0,62.0,62.0,62.0,63.0,64.0,66.0,66.0,66.0,67.0,66.0,66.0,66.0,64.0,63.0,61.0,61.0,62.0,59.0,60.0,59.0,58.0,59.0,56.0,57.0,57.0,59.0,56.0,55.0,54.0,53.0,53.0,52.0,52.0,52.0,50.0,51.0,52.0,51.0,51.0,53.0,54.0,54.0,55.0,57.0,56.0,57.0,59.0,58.0,57.0,57.0,55.0,56.0,55.0,56.0,55.0,54.0,55.0,54.0,55.0,54.0,55.0,54.0,54.0,54.0,53.0,52.0,51.0,51.0,50.0,50.0,51.0,50.0,50.0,50.0,51.0,51.0,52.0,53.0,53.0,53.0,53.0,54.0,54.0,52.0,54.0,51.0,53.0,53.0,52.0,52.0,52.0,51.0,51.0,49.0,49.0
312.0,317.0,319.0,321.0,324.0,326.0,330.0,334.0,336.0,340.0,342.0,345.0,348.0,350.0,351.0,354.0,356.0,356.0,358.0,357.0,358.0,355.0,356.0,354.0,352.0,350.0,349.0,346.0,344.0,339.0,336.0,333.0,329.0,325.0,320.0,317.0,311.0,306.0,302.0,297.0,292.0,287.0,282.0,276.0,271.0,267.0,261.0,257.0,253.0,249.0,243.0,238.0,233.0,230.0,225.0,221.0,217.0,212.0,208.0,205.0,201.0,197.0,193.0,191.0,186.0,182.0,180.0,177.0,173.0,169.0,168.0,165.0,161.0,159.0,156.0,153.0,149.0,148.0,145.0,143.0,140.0,138.0,136.0,133.0,131.0,128.0,126.0,125.0,123.0,121.0,119.0,118.0,115.0,114.0,112.0,110.0,109.0,107.0,107.0,104.0,102.0,102.0,99.0,99.0,97.0,97.0,95.0,93.0,93.0,91.0,90.0,89.0,89.0,88.0,86.0,85.0,83.0,83.0,81.0,82.0,80.0,79.0,79.0,77.0,77.0,76.0,75.0,74.0,74.0,72.0,71.0,71.0,70.0,70.0,69.0,67.0,67.0,67.0,66.0,65.0,65.0,64.0,65.0,64.0,63.0,63.0,62.0,63.0,62.0,60.0,62.0,61.0,60.0,60.0,60.0,60.0,59.0,58.0,58.0,58.0,57.0,57.0,57.0,56.0,56.0,55.0,55.0,55.0,55.0,54.0,53.0,53.0,53.0,52.0,52.0,52.0,52.0,51.0,50.0,49.0,49.0,48.0,49.0,48.0,46.0,47.0,47.0,46.0,45.0,43.0,44.0,40.0,39.0,40.0,43.0,44.0,46.0,47.0,48.0,52.0,53.0,55.0,57.0,60.0,62.0,62.0,64.0,64.0,65.0,65.0,66.0,68.0,68.0,69.0,70.0,70.0,71.0,72.0,74.0,73.0,71.0,72.0,72.0,72.0,73.0,73.0,72.0,75.0,75.0,77.0,77.0,77.0,77.0,76.0,76.0,75.0,75.0,75.0,75.0,73.0,72.0,72.0,72.0,71.0,70.0,71.0,69.0,67.0,66.0,64.0,65.0,65.0,64.0,63.0,62.0,61.0,61.0,61.0,60.0,59.0,62.0,58.0,58.0,58.0,58.0,57.0,57.0,57.0,58.0,60.0,59.0,58.0,57.0,57.0,59.0,57.0,58.0,58.0,57.0,58.0,55.0,55.0,52.0,51.0,50.0,49.0,49.0,49.0,50.0,50.0,49.0,49.0,49.0,48.0,49.0,51.0,50.0,51.0,50.0,50.0,50.0,49.0,51.0,50.0,52.0,51.0,51.0,51.0,51.0,52.0,52.0,51.0,50.0,50.0,49.0,47.0,47.0,44.0,46.0,44.0,43.0,44.0,45.0,45.0,45.0,46.0,46.0,47.0,48.0,49.0,51.0,50.0,53.0,51.0,51.0,51.0,52.0,53.0,52.0,54.0,55.0,53.0,52.0,52.0,53.0,51.0,50.0,49.0,47.0,45.0,44.0,45.0,44.0,43.0,44.0,45.0,44.0,44.0,44.0,44.0,42.0,41.0,43.0,42.0,42.0,44.0,44.0,45.0,46.0,46.0,46.0,45.0,48.0,44.0,44.0,43.0,43.0,42.0,41.0,45.0,44.0,42.0,43.0,43.0,45.0,45.0,48.0,48.0,49.0,49.0,51.0,53.0,53.0,55.0,56.0,54.0,55.0,54.0,54.0,55.0,55.0,54.0,53.0,52.0,51.0,52.0,49.0,51.0,48.0,50.0,52.0,52.0,53.0,51.0,50.0,52.0,52.0,53.0,51.0,50.0,49.0,49.0,47.0,47.0,47.0,46.0,46.0,45.0,47.0,44.0,45.0,45.0,43.0,45.0,44.0,46.0,44.0,44.0,44.0,43.0,43.0,41.0,41.0,39.0,39.0,39.0,38.0,38.0,37.0,38.0,36.0,35.0,35.0,35.0,34.0,33.0,35.0,35.0,34.0,34.0,35.0,36.0,35.0,36.0,34.0,35.0,35.0,35.0,36.0,35.0,35.0,34.0,33.0,34.0,33.0,33.0,33.0,34.0,33.0,32.0,33.0,35.0,34.0,35.0,35.0,36.0,35.0,35.0,35.0,37.0,36.0,37.0,37.0,38.0,39.0,39.0,39.0,39.0,38.0,37.0,37.0,36.0,35.0,37.0,37.0,36.0,35.0,35.0,34.0,33.0,33.0,33.0,33.0,34.0,33.0,34.0,34.0,33.0,33.0,33.0,32.0,32.0,33.0,32.0,31.0,32.0,33.0,32.0,32.0,32.0,32.0,33.0,33.0,33.0,33.0,32.0,35.0,35.0,37.0,38.0,39.0,38.0,38.0,39.0,37.0,37.0,36.0,38.0,37.0,36.0,37.0,38.0,40.0,39.0,40.0,38.0,40.0,39.0,40.0,41.0,42.0,44.0,43.0,43.0,43.0,41.0,42.0,40.0,40.0,41.0,40.0,42.0,42.0,42.0,44.0,45.0,45.0,46.0,47.0,47.0,47.0,47.0,47.0,48.0,48.0,49.0,48.0,45.0,46.0,46.0,47.0,47.0,47.0,48.0,49.0,50.0,52.0,51.0,51.0,53.0,53.0,55.0,55.0,54.0,51.0,48.0,47.0,46.0,45.0,44.0,43.0,44.0,43.0,43.0,41.0,41.0,41.0,41.0,41.0,39.0,39.0,38.0,38.0,40.0,40.0,41.0,41.0,44.0,43.0,45.0,43.0,43.0,43.0,41.0,43.0,43.0,45.0,44.0,45.0,44.0,45.0,45.0,44.0,44.0,44.0,44.0,45.0,44.0,44.0,43.0,45.0,45.0,46.0,48.0,45.0,46.0,47.0,48.0,49.0,49.0,50.0,48.0,47.0,48.0,47.0,47.0,48.0,48.0,48.0,51.0,48.0,55.0,96.0,96.0,153.0,160.0,170.0,172.0,171.0,169.0,169.0,167.0,152.0,142.0,135.0,130.0,131.0,132.0,129.0,118.0,107.0,105.0,98.0,101.0,96.0,99.0,93.0,102.0,107.0,101.0,106.0,124.0,131.0,126.0,122.0,125.0,130.0,138.0,152.0,151.0,156.0,159.0,160.0,161.0,162.0,164.0,161.0,159.0,160.0,159.0,158.0,156.0,151.0,148.0,147.0,144.0,140.0,137.0,133.0,129.0,128.0,124.0,122.0,118.0,115.0,114.0,117.0,111.0,106.0,105.0,102.0,99.0,99.0,97.0,100.0,98.0,99.0,97.0,98.0,101.0,100.0,99.0,99.0,98.0,99.0,103.0,114.0,125.0,135.0,143.0,136.0,125.0,126.0,117.0,125.0,125.0,116.0,115.0,113.0,107.0,112.0,110.0,107.0,102.0,96.0,94.0,93.0,92.0,87.0,88.0,85.0,83.0,82.0,83.0,81.0,79.0,76.0,75.0,73.0,71.0,69.0,66.0,64.0,64.0,60.0,58.0,56.0,57.0,53.0,53.0,54.0,54.0,55.0,54.0,53.0,55.0,57.0,55.0,55.0,54.0,53.0,51.0,50.0,49.0,50.0,46.0,45.0,44.0,43.0,43.0,42.0,43.0,44.0,44.0,45.0,48.0,49.0,49.0,51.0,49.0,48.0,48.0,48.0,49.0,49.0,49.0,46.0,46.0,47.0,47.0,45.0,44.0,44.0,43.0,43.0,41.0,41.0,41.0,39.0,39.0,39.0,38.0,38.0,37.0,37.0,37.0,37.0,36.0,35.0,35.0,35.0,36.0,35.0,35.0,36.0,36.0,37.0,36.0,38.0,38.0,38.0,42.0,42.0,41.0,41.0,40.0,39.0,39.0,40.0,39.0,39.0,39.0,40.0,39.0,38.0,39.0,38.0,40.0,41.0,41.0,40.0,40.0,41.0,42.0,41.0,40.0,38.0,39.0,39.0,39.0,39.0,42.0,42.0,42.0,42.0,43.0,41.0,39.0,39.0,39.0,40.0,39.0,38.0,38.0,38.0,37.0,37.0,36.0,37.0,36.0,37.0,36.0,37.0,37.0,37.0,36.0,37.0,36.0,35.0,36.0,35.0,35.0,35.0,35.0,37.0,37.0,37.0,37.0,38.0,37.0,37.0,39.0,38.0,38.0,39.0,39.0,40.0,39.0,42.0,40.0,41.0,41.0,39.0,38.0,37.0,38.0,38.0,38.0,38.0,38.0,40.0,40.0,41.0,39.0,39.0,39.0,38.0,39.0,37.0,39.0,38.0,39.0,38.0,37.0,37.0,37.0,39.0,39.0,39.0,39.0,39.0,39.0,40.0,40.0,41.0,42.0,43.0,43.0,41.0,41.0,42.0,40.0,40.0,39.0,38.0,39.0,37.0,39.0,38.0,37.0
34.0,34.0,40.0,39.0,37.0,35.0,44.0,43.0,41.0,44.0,45.0,42.0,39.0,37.0,36.0,38.0,37.0,38.0,36.0,36.0,33.0,32.0,34.0,33.0,36.0,31.0,33.0,32.0,35.0,35.0,33.0,37.0,35.0,32.0,31.0,27.0,29.0,29.0,28.0,25.0,22.0,26.0,23.0,24.0,21.0,21.0,20.0,22.0,20.0,21.0,23.0,20.0,21.0,19.0,20.0,22.0,23.0,28.0,28.0,25.0,24.0,21.0,25.0,27.0,31.0,29.0,29.0,26.0,22.0,22.0,25.0,25.0,22.0,23.0,24.0,26.0,23.0,21.0,22.0,23.0,23.0,22.0,20.0,19.0,21.0,21.0,21.0,20.0,20.0,18.0,17.0,16.0,15.0,18.0,18.0,17.0,18.0,18.0,16.0,16.0,15.0,15.0,18.0,16.0,17.0,17.0,17.0,16.0,14.0,14.0,12.0,12.0,10.0,10.0,9.0,9.0,8.0,8.0,11.0,10.0,9.0,10.0,10.0,9.0,7.0,8.0,7.0,7.0,7.0,7.0,7.0,6.0,6.0,8.0,8.0,7.0,7.0,10.0,7.0,10.0,8.0,7.0,7.0,7.0,9.0,8.0,9.0,9.0,9.0,8.0,8.0,9.0,7.0,7.0,6.0,6.0,6.0,5.0,6.0,6.0,6.0,5.0,5.0,5.0,4.0,5.0,4.0,5.0,4.0,4.0,4.0,4.0,6.0,5.0,6.0,5.0,6.0,6.0,5.0,7.0,5.0,6.0,6.0,10.0,9.0,9.0,10.0,8.0,8.0,8.0,8.0,7.0,7.0,9.0,8.0,7.0,7.0,6.0,8.0,8.0,9.0,7.0,7.0,8.0,7.0,8.0,8.0,9.0,7.0,7.0,8.0,7.0,8.0,7.0,7.0,8.0,9.0,8.0,8.0,9.0,9.0,9.0,8.0,10.0,9.0,9.0,8.0,9.0,8.0,8.0,7.0,7.0,7.0,8.0,7.0,8.0,6.0,6.0,6.0,6.0,7.0,5.0,8.0,12.0,12.0,11.0,10.0,9.0,9.0,8.0,10.0,10.0,8.0,8.0,10.0,9.0,11.0,14.0,16.0,15.0,15.0,15.0,13.0,13.0,12.0,11.0,10.0,10.0,9.0,8.0,12.0,11.0,10.0,9.0,9.0,10.0,11.0,11.0,9.0,10.0,8.0,8.0,7.0,7.0,7.0,8.0,9.0,9.0,8.0,11.0,12.0,12.0,10.0,9.0,9.0,11.0,11.0,10.0,9.0,8.0,8.0,7.0,6.0,8.0,10.0,10.0,8.0,8.0,8.0,9.0,9.0,8.0,8.0,8.0,8.0,9.0,11.0,10.0,9.0,8.0,8.0,7.0,7.0,8.0,7.0,6.0,10.0,8.0,7.0,6.0,8.0,7.0,8.0,8.0,7.0,7.0,7.0,8.0,10.0,9.0,9.0,7.0,6.0,6.0,7.0,9.0,10.0,9.0,10.0,9.0,9.0,8.0,8.0,7.0,8.0,7.0,7.0,6.0,7.0,8.0,7.0,8.0,7.0,6.0,6.0,7.0,6.0,5.0,6.0,8.0,7.0,7.0,8.0,7.0,8.0,8.0,6.0,6.0,6.0,6.0,7.0,5.0,7.0,6.0,6.0,5.0,5.0,6.0,5.0,6.0,5.0,4.0,5.0,4.0,6.0,7.0,9.0,7.0,6.0,7.0,6.0,10.0,9.0,10.0,8.0,7.0,7.0,7.0,6.0,5.0,6.0,6.0,6.0,6.0,6.0,8.0,7.0,7.0,6.0,7.0,6.0,7.0,7.0,7.0,8.0,8.0,6.0,6.0,6.0,6.0,5.0,5.0,5.0,4.0,7.0,6.0,6.0,5.0,5.0,10.0,10.0,10.0,10.0,10.0,9.0,9.0,10.0,7.0,8.0,6.0,7.0,11.0,11.0,11.0,10.0,9.0,8.0,8.0,8.0,8.0,9.0,8.0,7.0,7.0,6.0,6.0,5.0,6.0,6.0,6.0,6.0,6.0,5.0,6.0,7.0,6.0,6.0,6.0,6.0,5.0,5.0,8.0,7.0,10.0,9.0,9.0,8.0,9.0,9.0,14.0,13.0,12.0,11.0,10.0,9.0,9.0,7.0,15.0,12.0,12.0,11.0,9.0,12.0,14.0,14.0,12.0,11.0,10.0,10.0,10.0,9.0,12.0,13.0,14.0,12.0,12.0,12.0,10.0,8.0,8.0,8.0,10.0,9.0,9.0,7.0,8.0,7.0,7.0,6.0,7.0,6.0,6.0,6.0,5.0,6.0,5.0,6.0,7.0,7.0,7.0,6.0,6.0,6.0,5.0,6.0,6.0,5.0,7.0,7.0,6.0,6.0,8.0,8.0,9.0,8.0,8.0,7.0,7.0,7.0,6.0,10.0,11.0,10.0,9.0,9.0,10.0,9.0,10.0,9.0,9.0,9.0,8.0,8.0,7.0,7.0,7.0,6.0,9.0,8.0,9.0,7.0,7.0,7.0,7.0,6.0,6.0,7.0,6.0,6.0,6.0,6.0,6.0,5.0,7.0,8.0,7.0,11.0,10.0,10.0,8.0,9.0,7.0,10.0,11.0,10.0,9.0,9.0,8.0,6.0,8.0,6.0,7.0,7.0,7.0,8.0,5.0,6.0,8.0,7.0,8.0,8.0,8.0,8.0,7.0,7.0,6.0,6.0,6.0,8.0,7.0,7.0,6.0,7.0,6.0,5.0,6.0,6.0,6.0,5.0,5.0,6.0,5.0,7.0,6.0,7.0,6.0,6.0,6.0,5.0,8.0,8.0,7.0,7.0,8.0,7.0,6.0,6.0,6.0,6.0,6.0,12.0,12.0,9.0,12.0,10.0,9.0,8.0,8.0,8.0,11.0,11.0,10.0,18.0,17.0,31.0,32.0,33.0,36.0,34.0,38.0,41.0,35.0,31.0,28.0,28.0,28.0,36.0,43.0,37.0,33.0,28.0,26.0,22.0,26.0,26.0,23.0,21.0,23.0,22.0,22.0,23.0,29.0,25.0,22.0,20.0,20.0,17.0,15.0,18.0,17.0,16.0,19.0,18.0,16.0,16.0,18.0,19.0,21.0,22.0,23.0,21.0,22.0,20.0,19.0,19.0,18.0,18.0,19.0,18.0,18.0,16.0,16.0,15.0,14.0,12.0,12.0,12.0,11.0,10.0,9.0,9.0,8.0,8.0,7.0,7.0,6.0,6.0,7.0,5.0,4.0,5.0,4.0,5.0,4.0,5.0,5.0,16.0,45.0,71.0,93.0,93.0,108.0,130.0,135.0,203.0,218.0,205.0,227.0,263.0,265.0,272.0,279.0,260.0,238.0,212.0,228.0,246.0,224.0,208.0,210.0,193.0,205.0,196.0,186.0,169.0,160.0,142.0,125.0,113.0,109.0,106.0,111.0,102.0,93.0,87.0,77.0,71.0,68.0,61.0,57.0,61.0,81.0,73.0,68.0,65.0,62.0,58.0,53.0,48.0,49.0,48.0,46.0,56.0,56.0,53.0,50.0,45.0,42.0,44.0,38.0,38.0,35.0,35.0,32.0,57.0,55.0,52.0,47.0,44.0,39.0,37.0,33.0,36.0,30.0,30.0,29.0,26.0,33.0,31.0,31.0,26.0,27.0,25.0,25.0,27.0,25.0,23.0,22.0,20.0,17.0,16.0,15.0,13.0,13.0,12.0,12.0,12.0,10.0,10.0,9.0,10.0,7.0,8.0,7.0,10.0,10.0,13.0,12.0,16.0,16.0,14.0,22.0,26.0,25.0,32.0,28.0,28.0,26.0,26.0,24.0,22.0,22.0,20.0,21.0,21.0,19.0,17.0,15.0,15.0,12.0,12.0,11.0,10.0,9.0,8.0,9.0,7.0,8.0,9.0,9.0,9.0,8.0,9.0,9.0,8.0,8.0,8.0,8.0,7.0,8.0,10.0,13.0,12.0,12.0,13.0,12.0,13.0,12.0,11.0,9.0,9.0,11.0,9.0,10.0,8.0,10.0,10.0,9.0,9.0,9.0,11.0,10.0,10.0,9.0,13.0,14.0,13.0,14.0,14.0,16.0,16.0,25.0,22.0,19.0,21.0,18.0,16.0,14.0,15.0,14.0,12.0,13.0,11.0,12.0,12.0,10.0,10.0,10.0,15.0,12.0,11.0,10.0,11.0,10.0,9.0,9.0,7.0,8.0,8.0,8.0,7.0,7.0,7.0,6.0,6.0,7.0,7.0,7.0,6.0,8.0,7.0,6.0,6.0,5.0,6.0,5.0,6.0,6.0,5.0,6.0,6.0,5.0,8.0,8.0,8.0,7.0,8.0,8.0,8.0,8.0
109.0,137.0,126.0,127.0,126.0,132.0,127.0,126.0,118.0,130.0,126.0,125.0,116.0,112.0,126.0,120.0,119.0,124.0,113.0,110.0,117.0,115.0,111.0,119.0,115.0,106.0,104.0,100.0,98.0,98.0,96.0,99.0,97.0,109.0,106.0,104.0,102.0,101.0,110.0,105.0,105.0,97.0,96.0,114.0,108.0,101.0,102.0,102.0,114.0,117.0,108.0,106.0,103.0,106.0,109.0,104.0,100.0,110.0,115.0,119.0,107.0,107.0,105.0,99.0,102.0,95.0,99.0,94.0,108.0,104.0,101.0,100.0,99.0,124.0,122.0,119.0,115.0,117.0,118.0,115.0,115.0,113.0,120.0,127.0,119.0,116.0,116.0,117.0,118.0,111.0,103.0,104.0,101.0,96.0,95.0,95.0,114.0,116.0,117.0,110.0,102.0,103.0,97.0,92.0,96.0,108.0,120.0,114.0,107.0,104.0,103.0,105.0,113.0,106.0,102.0,127.0,120.0,118.0,110.0,107.0,110.0,111.0,113.0,109.0,102.0,98.0,96.0,94.0,117.0,111.0,112.0,108.0,111.0,107.0,105.0,109.0,107.0,113.0,117.0,119.0,114.0,111.0,104.0,113.0,108.0,110.0,110.0,113.0,110.0,106.0,104.0,101.0,112.0,108.0,107.0,104.0,109.0,106.0,104.0,101.0,109.0,110.0,112.0,105.0,98.0,103.0,97.0,100.0,104.0,103.0,121.0,117.0,120.0,118.0,117.0,117.0,115.0,111.0,114.0,125.0,135.0,124.0,126.0,145.0,141.0,143.0,131.0,128.0,125.0,121.0,121.0,118.0,112.0,107.0,102.0,95.0,91.0,102.0,99.0,102.0,101.0,98.0,99.0,102.0,100.0,101.0,99.0,97.0,105.0,101.0,95.0,98.0,104.0,107.0,106.0,107.0,103.0,99.0,101.0,98.0,93.0,94.0,91.0,108.0,115.0,109.0,100.0,95.0,94.0,111.0,109.0,103.0,110.0,111.0,111.0,109.0,102.0,104.0,109.0,106.0,108.0,111.0,118.0,117.0,112.0,109.0,110.0,108.0,112.0,110.0,114.0,114.0,111.0,105.0,100.0,92.0,126.0,128.0,125.0,121.0,130.0,119.0,116.0,113.0,109.0,110.0,110.0,107.0,102.0,99.0,102.0,106.0,100.0,93.0,98.0,100.0,101.0,99.0,99.0,100.0,103.0,99.0,93.0,101.0,95.0,115.0,118.0,115.0,110.0,102.0,105.0,129.0,124.0,123.0,119.0,119.0,126.0,124.0,117.0,115.0,115.0,140.0,128.0,131.0,138.0,133.0,126.0,125.0,117.0,116.0,134.0,143.0,146.0,136.0,129.0,129.0,127.0,135.0,125.0,142.0,157.0,145.0,143.0,134.0,129.0,142.0,138.0,131.0,122.0,118.0,117.0,112.0,109.0,99.0,107.0,104.0,102.0,99.0,107.0,109.0,105.0,111.0,109.0,101.0,94.0,104.0,113.0,106.0,110.0,112.0,110.0,113.0,113.0,112.0,128.0,129.0,124.0,119.0,112.0,112.0,115.0,110.0,107.0,101.0,93.0,122.0,116.0,108.0,103.0,99.0,106.0,115.0,120.0,118.0,123.0,126.0,122.0,120.0,111.0,120.0,114.0,113.0,109.0,104.0,99.0,104.0,113.0,115.0,112.0,106.0,99.0,95.0,93.0,100.0,96.0,94.0,103.0,106.0,114.0,121.0,113.0,126.0,118.0,115.0,111.0,112.0,107.0,105.0,102.0,94.0,90.0,88.0,85.0,91.0,88.0,104.0,98.0,99.0,91.0,97.0,96.0,96.0,104.0,103.0,111.0,110.0,102.0,101.0,108.0,107.0,109.0,104.0,95.0,108.0,116.0,124.0,116.0,112.0,107.0,111.0,117.0,121.0,115.0,108.0,108.0,113.0,115.0,115.0,109.0,108.0,114.0,108.0,103.0,103.0,102.0,96.0,97.0,91.0,95.0,89.0,91.0,86.0,87.0,94.0,90.0,89.0,85.0,84.0,81.0,81.0,93.0,102.0,97.0,95.0,98.0,97.0,95.0,93.0,94.0,87.0,99.0,101.0,102.0,109.0,114.0,128.0,124.0,114.0,108.0,106.0,112.0,115.0,112.0,103.0,99.0,98.0,104.0,101.0,103.0,103.0,96.0,91.0,99.0,97.0,98.0,93.0,90.0,94.0,90.0,94.0,106.0,107.0,119.0,118.0,114.0,112.0,114.0,109.0,109.0,111.0,104.0,105.0,111.0,116.0,121.0,110.0,108.0,106.0,106.0,128.0,115.0,113.0,108.0,103.0,104.0,101.0,105.0,95.0,91.0,99.0,98.0,94.0,89.0,91.0,98.0,100.0,94.0,105.0,101.0,102.0,104.0,95.0,87.0,81.0,100.0,108.0,109.0,99.0,95.0,99.0,101.0,105.0,106.0,105.0,105.0,103.0,102.0,99.0,97.0,100.0,96.0,100.0,95.0,92.0,84.0,81.0,80.0,84.0,85.0,85.0,97.0,91.0,94.0,91.0,84.0,96.0,99.0,103.0,102.0,100.0,100.0,101.0,97.0,98.0,95.0,97.0,109.0,106.0,114.0,111.0,105.0,112.0,107.0,100.0,111.0,106.0,102.0,102.0,113.0,115.0,108.0,107.0,109.0,111.0,117.0,111.0,105.0,103.0,99.0,113.0,121.0,116.0,108.0,107.0,107.0,102.0,104.0,101.0,102.0,98.0,101.0,99.0,103.0,101.0,99.0,99.0,90.0,99.0,98.0,96.0,102.0,101.0,97.0,95.0,99.0,99.0,97.0,106.0,113.0,104.0,100.0,117.0,115.0,116.0,121.0,112.0,104.0,100.0,105.0,106.0,101.0,102.0,97.0,105.0,107.0,108.0,97.0,97.0,94.0,102.0,96.0,94.0,93.0,86.0,98.0,96.0,102.0,110.0,109.0,111.0,110.0,101.0,91.0,86.0,81.0,78.0,77.0,77.0,73.0,68.0,63.0,61.0,60.0,57.0,55.0,52.0,50.0,49.0,49.0,48.0,46.0,55.0,62.0,59.0,58.0,55.0,51.0,48.0,46.0,48.0,46.0,50.0,50.0,48.0,44.0,41.0,40.0,39.0,38.0,37.0,37.0,37.0,35.0,34.0,32.0,34.0,35.0,37.0,38.0,36.0,34.0,32.0,33.0,32.0,31.0,31.0,32.0,33.0,31.0,32.0,30.0,31.0,30.0,29.0,31.0,30.0,33.0,31.0,32.0,33.0,33.0,33.0,33.0,32.0,32.0,38.0,60.0,99.0,147.0,159.0,189.0,230.0,256.0,281.0,363.0,397.0,401.0,369.0,396.0,429.0,454.0,481.0,536.0,539.0,514.0,519.0,512.0,464.0,457.0,463.0,453.0,470.0,478.0,441.0,425.0,410.0,393.0,365.0,349.0,361.0,344.0,333.0,321.0,331.0,304.0,284.0,265.0,257.0,265.0,269.0,272.0,260.0,249.0,232.0,243.0,252.0,252.0,251.0,234.0,218.0,212.0,205.0,203.0,201.0,195.0,183.0,186.0,196.0,191.0,178.0,168.0,172.0,190.0,177.0,178.0,189.0,178.0,179.0,179.0,164.0,158.0,159.0,189.0,184.0,175.0,173.0,160.0,154.0,186.0,182.0,171.0,164.0,156.0,161.0,158.0,153.0,155.0,151.0,142.0,147.0,150.0,154.0,156.0,150.0,144.0,133.0,142.0,147.0,150.0,145.0,150.0,141.0,143.0,142.0,135.0,138.0,137.0,141.0,166.0,171.0,174.0,242.0,263.0,273.0,268.0,263.0,256.0,280.0,289.0,275.0,262.0,243.0,239.0,245.0,229.0,223.0,224.0,218.0,204.0,192.0,187.0,180.0,187.0,176.0,166.0,159.0,145.0,148.0,143.0,141.0,132.0,125.0,130.0,131.0,141.0,134.0,136.0,140.0,147.0,144.0,144.0,139.0,136.0,170.0,163.0,159.0,154.0,159.0,149.0,146.0,140.0,158.0,164.0,163.0,153.0,153.0,179.0,178.0,172.0,164.0,151.0,143.0,141.0,141.0,149.0,151.0,159.0,159.0,172.0,172.0,171.0,176.0,182.0,166.0,166.0,155.0,153.0,142.0,140.0,127.0,127.0,122.0,116.0,116.0,117.0,114.0,116.0,116.0,112.0,108.0,110.0,100.0,105.0,103.0,111.0,105.0,109.0,104.0,108.0,101.0,96.0,94.0,98.0,97.0,100.0,101.0,99.0,98.0,99.0,94.0,103.0,97.0,103.0,99.0,99.0,98.0,101.0,104.0,100.0,105.0,101.0,94.0,101.0,103.0,107.0,112.0,107.0,115.0,112.0,111.0
