time (ms),signal 0,signal 1,signal 2,signal3,time (sec)
2488317.0,51.0,39.0,9.0,83.0,2488.317
2488327.0,53.0,40.0,10.0,87.0,2488.327
2488337.0,54.0,38.0,12.0,85.0,2488.337
2488347.0,54.0,37.0,12.0,89.0,2488.347
2488357.0,53.0,39.0,13.0,83.0,2488.357
2488367.0,52.0,38.0,16.0,80.0,2488.367
2488377.0,52.0,38.0,15.0,88.0,2488.377
2488387.0,55.0,38.0,18.0,97.0,2488.387
2488397.0,55.0,37.0,15.0,95.0,2488.397
2488407.0,56.0,37.0,14.0,89.0,2488.407
2488417.0,56.0,37.0,13.0,85.0,2488.417
2488427.0,57.0,38.0,17.0,86.0,2488.427
2488437.0,57.0,36.0,16.0,84.0,2488.437
2488448.0,56.0,37.0,14.0,101.0,2488.448
2488458.0,56.0,36.0,14.0,110.0,2488.458
2488468.0,56.0,36.0,13.0,106.0,2488.468
2488478.0,55.0,36.0,12.0,102.0,2488.478
2488488.0,54.0,36.0,12.0,107.0,2488.488
2488498.0,53.0,36.0,16.0,116.0,2488.498
2488508.0,53.0,36.0,14.0,108.0,2488.508
2488518.0,55.0,36.0,14.0,109.0,2488.518
2488528.0,53.0,36.0,13.0,111.0,2488.528
2488538.0,55.0,35.0,12.0,107.0,2488.538
2488548.0,52.0,36.0,12.0,108.0,2488.548
2488558.0,52.0,37.0,17.0,115.0,2488.558
2488568.0,54.0,37.0,18.0,109.0,2488.568
2488578.0,53.0,38.0,16.0,100.0,2488.578
2488588.0,55.0,36.0,17.0,98.0,2488.588
2488598.0,53.0,36.0,14.0,95.0,2488.598
2488608.0,55.0,36.0,13.0,106.0,2488.608
2488619.0,54.0,37.0,12.0,104.0,2488.619
2488629.0,55.0,37.0,12.0,105.0,2488.629
2488639.0,53.0,36.0,10.0,102.0,2488.639
2488649.0,52.0,37.0,10.0,96.0,2488.649
2488659.0,53.0,36.0,12.0,99.0,2488.659
2488669.0,53.0,37.0,11.0,103.0,2488.669
2488679.0,55.0,37.0,11.0,101.0,2488.679
2488689.0,52.0,37.0,8.0,97.0,2488.689
2488699.0,53.0,37.0,9.0,94.0,2488.699
2488709.0,53.0,37.0,8.0,95.0,2488.709
2488719.0,53.0,37.0,8.0,104.0,2488.719
2488729.0,52.0,36.0,17.0,101.0,2488.729
2488739.0,52.0,36.0,17.0,98.0,2488.739
2488749.0,53.0,35.0,18.0,99.0,2488.749
2488759.0,54.0,36.0,14.0,99.0,2488.759
2488769.0,55.0,36.0,15.0,106.0,2488.769
2488779.0,55.0,36.0,12.0,105.0,2488.779
2488790.0,54.0,36.0,10.0,102.0,2488.79
2488800.0,53.0,37.0,11.0,97.0,2488.8
2488810.0,54.0,37.0,15.0,96.0,2488.81
2488820.0,56.0,38.0,13.0,93.0,2488.82
2488830.0,56.0,38.0,11.0,89.0,2488.83
2488840.0,56.0,38.0,11.0,87.0,2488.84
2488850.0,58.0,38.0,11.0,90.0,2488.85
2488860.0,57.0,38.0,10.0,88.0,2488.86
2488870.0,59.0,38.0,9.0,84.0,2488.87
2488880.0,58.0,39.0,9.0,105.0,2488.88
2488890.0,57.0,38.0,9.0,107.0,2488.89
2488900.0,57.0,39.0,9.0,99.0,2488.9
2488910.0,55.0,38.0,7.0,93.0,2488.91
2488920.0,55.0,38.0,9.0,88.0,2488.92
2488930.0,55.0,39.0,8.0,89.0,2488.93
2488940.0,57.0,36.0,8.0,94.0,2488.94
2488950.0,58.0,36.0,7.0,92.0,2488.95
2488960.0,58.0,36.0,7.0,86.0,2488.96
2488970.0,60.0,37.0,8.0,83.0,2488.97
2488980.0,58.0,36.0,7.0,85.0,2488.98
2488990.0,60.0,36.0,7.0,84.0,2488.99
2489000.0,61.0,37.0,7.0,79.0,2489.0
2489010.0,59.0,36.0,7.0,75.0,2489.01
2489020.0,60.0,36.0,9.0,74.0,2489.02
2489030.0,60.0,36.0,9.0,72.0,2489.03
2489040.0,61.0,35.0,10.0,88.0,2489.04
2489050.0,60.0,35.0,12.0,101.0,2489.05
2489060.0,62.0,35.0,10.0,98.0,2489.06
2489070.0,63.0,37.0,10.0,93.0,2489.07
2489080.0,63.0,36.0,8.0,87.0,2489.08
2489090.0,64.0,35.0,8.0,98.0,2489.09
2489100.0,64.0,35.0,8.0,89.0,2489.1
2489110.0,65.0,35.0,9.0,90.0,2489.11
2489120.0,64.0,35.0,10.0,88.0,2489.12
2489131.0,65.0,34.0,10.0,84.0,2489.131
2489141.0,64.0,35.0,9.0,89.0,2489.141
2489151.0,63.0,34.0,8.0,86.0,2489.151
2489161.0,61.0,34.0,7.0,86.0,2489.161
2489171.0,60.0,35.0,9.0,89.0,2489.171
2489181.0,58.0,34.0,9.0,91.0,2489.181
2489191.0,57.0,35.0,8.0,88.0,2489.191
2489201.0,56.0,35.0,8.0,87.0,2489.201
2489211.0,54.0,35.0,7.0,84.0,2489.211
2489221.0,53.0,35.0,6.0,89.0,2489.221
2489231.0,53.0,34.0,7.0,84.0,2489.231
2489241.0,52.0,35.0,6.0,81.0,2489.241
2489251.0,53.0,34.0,7.0,78.0,2489.251
2489261.0,53.0,34.0,6.0,82.0,2489.261
2489271.0,54.0,34.0,10.0,79.0,2489.271
2489281.0,55.0,35.0,10.0,79.0,2489.281
2489291.0,56.0,34.0,9.0,83.0,2489.291
2489302.0,56.0,34.0,10.0,80.0,2489.302
2489312.0,56.0,34.0,9.0,78.0,2489.312
2489322.0,58.0,34.0,11.0,81.0,2489.322
2489332.0,56.0,35.0,10.0,79.0,2489.332
2489342.0,57.0,35.0,11.0,79.0,2489.342
2489352.0,57.0,35.0,9.0,75.0,2489.352
2489362.0,56.0,35.0,13.0,74.0,2489.362
2489372.0,56.0,35.0,14.0,72.0,2489.372
2489382.0,57.0,36.0,12.0,73.0,2489.382
2489392.0,57.0,35.0,12.0,69.0,2489.392
2489402.0,55.0,35.0,12.0,68.0,2489.402
2489412.0,54.0,35.0,10.0,67.0,2489.412
2489422.0,56.0,35.0,10.0,72.0,2489.422
2489432.0,54.0,35.0,10.0,69.0,2489.432
2489442.0,53.0,36.0,12.0,64.0,2489.442
2489452.0,54.0,38.0,17.0,66.0,2489.452
2489462.0,56.0,37.0,16.0,66.0,2489.462
2489472.0,56.0,37.0,17.0,67.0,2489.472
2489482.0,56.0,36.0,15.0,65.0,2489.482
2489492.0,56.0,36.0,14.0,65.0,2489.492
2489502.0,58.0,37.0,12.0,68.0,2489.502
2489512.0,58.0,36.0,13.0,72.0,2489.512
2489522.0,60.0,35.0,13.0,70.0,2489.522
2489532.0,60.0,36.0,11.0,71.0,2489.532
2489542.0,62.0,35.0,10.0,69.0,2489.542
2489552.0,61.0,36.0,9.0,66.0,2489.552
2489562.0,63.0,36.0,9.0,68.0,2489.562
2489572.0,63.0,37.0,8.0,75.0,2489.572
2489582.0,64.0,37.0,7.0,68.0,2489.582
2489592.0,64.0,37.0,7.0,76.0,2489.592
2489602.0,63.0,36.0,8.0,74.0,2489.602
2489612.0,64.0,36.0,9.0,78.0,2489.612
2489622.0,62.0,36.0,12.0,76.0,2489.622
2489632.0,63.0,36.0,12.0,73.0,2489.632
2489643.0,60.0,38.0,17.0,71.0,2489.643
2489653.0,60.0,38.0,16.0,88.0,2489.653
2489663.0,60.0,38.0,15.0,84.0,2489.663
2489673.0,57.0,39.0,13.0,82.0,2489.673
2489683.0,59.0,39.0,13.0,88.0,2489.683
2489693.0,56.0,41.0,11.0,91.0,2489.693
2489703.0,56.0,41.0,10.0,93.0,2489.703
2489713.0,55.0,43.0,11.0,94.0,2489.713
2489723.0,56.0,44.0,10.0,92.0,2489.723
2489733.0,56.0,43.0,12.0,92.0,2489.733
2489743.0,55.0,43.0,12.0,101.0,2489.743
2489753.0,55.0,43.0,13.0,93.0,2489.753
2489763.0,54.0,43.0,10.0,86.0,2489.763
2489773.0,53.0,43.0,9.0,87.0,2489.773
2489783.0,51.0,43.0,13.0,85.0,2489.783
2489793.0,50.0,44.0,11.0,87.0,2489.793
2489803.0,50.0,42.0,12.0,87.0,2489.803
2489814.0,49.0,43.0,11.0,93.0,2489.814
2489824.0,50.0,41.0,13.0,86.0,2489.824
2489834.0,48.0,42.0,14.0,89.0,2489.834
2489844.0,48.0,43.0,13.0,105.0,2489.844
2489854.0,48.0,42.0,16.0,104.0,2489.854
2489864.0,48.0,42.0,13.0,106.0,2489.864
2489874.0,48.0,42.0,15.0,100.0,2489.874
2489884.0,47.0,40.0,13.0,96.0,2489.884
2489894.0,47.0,41.0,14.0,98.0,2489.894
2489904.0,46.0,41.0,16.0,98.0,2489.904
2489914.0,45.0,42.0,16.0,93.0,2489.914
2489924.0,48.0,41.0,16.0,93.0,2489.924
2489934.0,48.0,43.0,15.0,95.0,2489.934
2489944.0,47.0,43.0,16.0,92.0,2489.944
2489954.0,47.0,42.0,15.0,91.0,2489.954
2489964.0,47.0,43.0,16.0,90.0,2489.964
2489974.0,46.0,43.0,15.0,90.0,2489.974
2489984.0,46.0,45.0,14.0,92.0,2489.984
2489994.0,46.0,45.0,16.0,89.0,2489.994
2490004.0,45.0,45.0,16.0,95.0,2490.004
2490014.0,44.0,44.0,16.0,98.0,2490.014
2490024.0,45.0,44.0,15.0,94.0,2490.024
2490034.0,45.0,43.0,18.0,94.0,2490.034
2490044.0,45.0,40.0,18.0,88.0,2490.044
2490054.0,46.0,40.0,16.0,98.0,2490.054
2490064.0,45.0,40.0,16.0,93.0,2490.064
2490074.0,46.0,40.0,18.0,91.0,2490.074
2490084.0,46.0,39.0,18.0,84.0,2490.084
2490094.0,47.0,38.0,16.0,87.0,2490.094
2490104.0,47.0,39.0,19.0,88.0,2490.104
2490114.0,48.0,39.0,17.0,99.0,2490.114
2490124.0,47.0,38.0,15.0,91.0,2490.124
2490134.0,48.0,37.0,14.0,89.0,2490.134
2490144.0,48.0,40.0,13.0,91.0,2490.144
2490155.0,47.0,38.0,12.0,88.0,2490.155
2490165.0,47.0,38.0,10.0,89.0,2490.165
2490175.0,47.0,39.0,12.0,93.0,2490.175
2490185.0,47.0,39.0,15.0,94.0,2490.185
2490195.0,46.0,38.0,14.0,90.0,2490.195
2490205.0,47.0,38.0,13.0,84.0,2490.205
2490215.0,47.0,39.0,12.0,82.0,2490.215
2490225.0,48.0,41.0,11.0,87.0,2490.225
2490235.0,48.0,38.0,13.0,92.0,2490.235
2490245.0,48.0,39.0,12.0,94.0,2490.245
2490255.0,49.0,38.0,18.0,89.0,2490.255
2490265.0,48.0,37.0,18.0,80.0,2490.265
2490275.0,49.0,37.0,16.0,85.0,2490.275
2490285.0,48.0,37.0,14.0,103.0,2490.285
2490295.0,48.0,36.0,13.0,98.0,2490.295
2490305.0,49.0,36.0,14.0,94.0,2490.305
2490315.0,47.0,36.0,15.0,91.0,2490.315
2490326.0,49.0,36.0,16.0,84.0,2490.326
2490336.0,50.0,36.0,14.0,101.0,2490.336
2490346.0,51.0,35.0,14.0,100.0,2490.346
2490356.0,53.0,37.0,15.0,96.0,2490.356
2490366.0,52.0,36.0,23.0,88.0,2490.366
2490376.0,52.0,36.0,20.0,84.0,2490.376
2490386.0,52.0,36.0,23.0,97.0,2490.386
2490396.0,53.0,36.0,21.0,90.0,2490.396
2490406.0,54.0,35.0,18.0,92.0,2490.406
2490416.0,54.0,35.0,17.0,87.0,2490.416
2490426.0,53.0,37.0,15.0,86.0,2490.426
2490436.0,54.0,37.0,14.0,84.0,2490.436
2490446.0,54.0,38.0,20.0,82.0,2490.446
2490456.0,53.0,37.0,19.0,83.0,2490.456
2490466.0,53.0,38.0,19.0,84.0,2490.466
2490476.0,54.0,37.0,18.0,79.0,2490.476
2490486.0,53.0,37.0,18.0,87.0,2490.486
2490496.0,53.0,37.0,16.0,85.0,2490.496
2490506.0,51.0,38.0,15.0,81.0,2490.506
2490516.0,51.0,36.0,14.0,87.0,2490.516
2490526.0,49.0,36.0,13.0,90.0,2490.526
2490536.0,51.0,37.0,14.0,84.0,2490.536
2490546.0,50.0,36.0,12.0,94.0,2490.546
2490556.0,50.0,37.0,12.0,90.0,2490.556
2490566.0,51.0,36.0,13.0,89.0,2490.566
2490576.0,49.0,34.0,11.0,90.0,2490.576
2490586.0,49.0,35.0,10.0,82.0,2490.586
2490596.0,48.0,35.0,10.0,86.0,2490.596
2490606.0,48.0,35.0,8.0,85.0,2490.606
2490616.0,48.0,34.0,9.0,83.0,2490.616
2490626.0,49.0,36.0,9.0,83.0,2490.626
2490636.0,50.0,36.0,9.0,81.0,2490.636
2490646.0,50.0,37.0,8.0,86.0,2490.646
2490656.0,50.0,34.0,8.0,87.0,2490.656
2490667.0,49.0,34.0,8.0,81.0,2490.667
2490677.0,47.0,36.0,8.0,89.0,2490.677
2490687.0,48.0,35.0,8.0,91.0,2490.687
2490697.0,48.0,35.0,7.0,83.0,2490.697
2490707.0,49.0,34.0,7.0,75.0,2490.707
2490717.0,48.0,33.0,6.0,68.0,2490.717
2490727.0,47.0,34.0,6.0,62.0,2490.727
2490737.0,53.0,35.0,5.0,59.0,2490.737
2490747.0,55.0,38.0,5.0,55.0,2490.747
2490757.0,57.0,38.0,5.0,52.0,2490.757
2490767.0,70.0,41.0,4.0,54.0,2490.767
2490777.0,102.0,56.0,6.0,55.0,2490.777
2490787.0,122.0,62.0,6.0,57.0,2490.787
2490797.0,118.0,58.0,6.0,54.0,2490.797
2490807.0,141.0,63.0,5.0,51.0,2490.807
2490817.0,153.0,69.0,8.0,53.0,2490.817
2490827.0,150.0,67.0,8.0,50.0,2490.827
2490838.0,198.0,83.0,10.0,62.0,2490.838
2490848.0,240.0,85.0,10.0,66.0,2490.848
2490858.0,240.0,85.0,11.0,68.0,2490.858
2490868.0,231.0,81.0,13.0,71.0,2490.868
2490878.0,240.0,90.0,20.0,74.0,2490.878
2490888.0,261.0,92.0,17.0,74.0,2490.888
2490898.0,269.0,97.0,22.0,72.0,2490.898
2490908.0,274.0,101.0,18.0,79.0,2490.908
2490918.0,312.0,117.0,32.0,87.0,2490.918
2490928.0,315.0,118.0,28.0,97.0,2490.928
2490938.0,292.0,120.0,30.0,114.0,2490.938
2490948.0,263.0,120.0,27.0,116.0,2490.948
2490958.0,235.0,114.0,28.0,120.0,2490.958
2490968.0,221.0,120.0,31.0,117.0,2490.968
2490978.0,209.0,132.0,32.0,114.0,2490.978
2490988.0,192.0,131.0,33.0,141.0,2490.988
2490998.0,176.0,141.0,39.0,165.0,2490.998
2491008.0,169.0,149.0,43.0,153.0,2491.008
2491018.0,155.0,148.0,43.0,150.0,2491.018
2491028.0,150.0,152.0,44.0,153.0,2491.028
2491038.0,136.0,149.0,44.0,147.0,2491.038
2491048.0,128.0,151.0,44.0,167.0,2491.048
2491058.0,118.0,152.0,52.0,167.0,2491.058
2491068.0,113.0,153.0,48.0,153.0,2491.068
2491078.0,107.0,156.0,47.0,154.0,2491.078
2491088.0,105.0,153.0,47.0,166.0,2491.088
2491098.0,101.0,152.0,51.0,175.0,2491.098
2491108.0,96.0,157.0,52.0,175.0,2491.108
2491118.0,91.0,155.0,52.0,175.0,2491.118
2491128.0,92.0,158.0,52.0,179.0,2491.128
2491138.0,87.0,156.0,49.0,180.0,2491.138
2491148.0,84.0,156.0,48.0,166.0,2491.148
2491158.0,84.0,156.0,49.0,164.0,2491.158
2491168.0,83.0,157.0,45.0,153.0,2491.168
2491179.0,81.0,158.0,42.0,147.0,2491.179
2491189.0,78.0,159.0,43.0,151.0,2491.189
2491199.0,76.0,158.0,38.0,157.0,2491.199
2491209.0,75.0,159.0,39.0,166.0,2491.209
2491219.0,75.0,158.0,37.0,156.0,2491.219
2491229.0,75.0,155.0,34.0,152.0,2491.229
2491239.0,72.0,156.0,33.0,141.0,2491.239
2491249.0,71.0,157.0,33.0,139.0,2491.249
2491259.0,68.0,152.0,29.0,144.0,2491.259
2491269.0,69.0,154.0,27.0,140.0,2491.269
2491279.0,71.0,153.0,33.0,133.0,2491.279
2491289.0,70.0,154.0,29.0,128.0,2491.289
2491299.0,71.0,154.0,26.0,118.0,2491.299
2491309.0,75.0,171.0,27.0,110.0,2491.309
2491319.0,83.0,243.0,43.0,115.0,2491.319
2491329.0,89.0,314.0,61.0,118.0,2491.329
2491339.0,102.0,370.0,85.0,130.0,2491.339
2491350.0,117.0,411.0,81.0,121.0,2491.35
2491360.0,124.0,479.0,109.0,145.0,2491.36
2491370.0,119.0,439.0,107.0,141.0,2491.37
2491380.0,109.0,389.0,93.0,131.0,2491.38
2491390.0,107.0,359.0,84.0,121.0,2491.39
2491400.0,101.0,341.0,76.0,114.0,2491.4
2491410.0,94.0,330.0,66.0,114.0,2491.41
2491420.0,95.0,323.0,60.0,117.0,2491.42
2491430.0,89.0,316.0,52.0,115.0,2491.43
2491440.0,83.0,305.0,47.0,109.0,2491.44
2491450.0,87.0,295.0,42.0,100.0,2491.45
2491460.0,85.0,290.0,37.0,93.0,2491.46
2491470.0,84.0,281.0,37.0,98.0,2491.47
2491480.0,80.0,273.0,36.0,108.0,2491.48
2491490.0,75.0,266.0,37.0,127.0,2491.49
2491500.0,76.0,253.0,39.0,149.0,2491.5
2491510.0,76.0,243.0,42.0,178.0,2491.51
2491520.0,77.0,231.0,41.0,191.0,2491.52
2491530.0,82.0,214.0,39.0,224.0,2491.53
2491540.0,86.0,196.0,42.0,233.0,2491.54
2491550.0,88.0,179.0,40.0,230.0,2491.55
2491560.0,88.0,162.0,45.0,251.0,2491.56
2491570.0,84.0,151.0,48.0,259.0,2491.57
2491580.0,83.0,141.0,46.0,359.0,2491.58
2491590.0,80.0,132.0,55.0,389.0,2491.59
2491600.0,80.0,124.0,57.0,355.0,2491.6
2491610.0,78.0,118.0,56.0,327.0,2491.61
2491620.0,74.0,110.0,52.0,307.0,2491.62
2491630.0,74.0,105.0,48.0,301.0,2491.63
2491640.0,73.0,98.0,47.0,282.0,2491.64
2491650.0,73.0,95.0,44.0,266.0,2491.65
2491660.0,72.0,87.0,46.0,253.0,2491.66
2491670.0,69.0,84.0,45.0,238.0,2491.67
2491680.0,68.0,79.0,45.0,221.0,2491.68
2491691.0,68.0,77.0,44.0,223.0,2491.691
2491701.0,66.0,74.0,44.0,212.0,2491.701
2491711.0,66.0,69.0,47.0,196.0,2491.711
2491721.0,66.0,69.0,47.0,178.0,2491.721
2491731.0,67.0,90.0,44.0,158.0,2491.731
2491741.0,71.0,97.0,41.0,146.0,2491.741
2491751.0,79.0,123.0,41.0,136.0,2491.751
2491761.0,79.0,161.0,41.0,129.0,2491.761
2491771.0,90.0,210.0,53.0,131.0,2491.771
2491781.0,95.0,212.0,50.0,119.0,2491.781
2491791.0,96.0,226.0,60.0,110.0,2491.791
2491801.0,101.0,226.0,67.0,109.0,2491.801
2491811.0,93.0,211.0,67.0,113.0,2491.811
2491821.0,86.0,192.0,68.0,111.0,2491.821
2491831.0,80.0,172.0,67.0,103.0,2491.831
2491841.0,78.0,156.0,66.0,97.0,2491.841
2491851.0,73.0,143.0,66.0,101.0,2491.851
2491862.0,70.0,132.0,68.0,97.0,2491.862
2491872.0,69.0,124.0,67.0,150.0,2491.872
2491882.0,70.0,124.0,59.0,264.0,2491.882
2491892.0,77.0,125.0,74.0,299.0,2491.892
2491902.0,81.0,122.0,87.0,307.0,2491.902
2491912.0,84.0,125.0,112.0,341.0,2491.912
2491922.0,80.0,128.0,117.0,378.0,2491.922
2491932.0,77.0,132.0,113.0,384.0,2491.932
2491942.0,77.0,130.0,109.0,360.0,2491.942
2491952.0,73.0,128.0,99.0,350.0,2491.952
2491962.0,79.0,127.0,99.0,363.0,2491.962
2491972.0,79.0,120.0,90.0,325.0,2491.972
2491982.0,77.0,110.0,99.0,311.0,2491.982
2491992.0,76.0,105.0,127.0,311.0,2491.992
2492002.0,73.0,99.0,138.0,301.0,2492.002
2492012.0,76.0,96.0,173.0,326.0,2492.012
2492022.0,84.0,98.0,216.0,392.0,2492.022
2492032.0,89.0,111.0,219.0,370.0,2492.032
2492042.0,87.0,111.0,215.0,355.0,2492.042
2492052.0,90.0,110.0,190.0,365.0,2492.052
2492062.0,86.0,105.0,173.0,349.0,2492.062
2492072.0,84.0,101.0,156.0,356.0,2492.072
2492082.0,82.0,103.0,157.0,336.0,2492.082
2492092.0,83.0,108.0,144.0,330.0,2492.092
2492102.0,84.0,114.0,127.0,335.0,2492.102
2492112.0,85.0,122.0,117.0,352.0,2492.112
2492122.0,84.0,125.0,104.0,327.0,2492.122
2492132.0,86.0,133.0,118.0,310.0,2492.132
2492142.0,89.0,141.0,109.0,281.0,2492.142
2492152.0,90.0,148.0,98.0,263.0,2492.152
2492162.0,88.0,148.0,115.0,257.0,2492.162
2492172.0,90.0,154.0,114.0,241.0,2492.172
2492182.0,89.0,157.0,114.0,235.0,2492.182
2492192.0,92.0,159.0,109.0,214.0,2492.192
2492203.0,92.0,164.0,94.0,200.0,2492.203
2492213.0,92.0,165.0,92.0,208.0,2492.213
2492223.0,90.0,166.0,80.0,212.0,2492.223
2492233.0,93.0,167.0,70.0,198.0,2492.233
2492243.0,90.0,165.0,71.0,185.0,2492.243
2492253.0,90.0,166.0,67.0,190.0,2492.253
2492263.0,90.0,163.0,67.0,192.0,2492.263
2492273.0,87.0,163.0,58.0,181.0,2492.273
2492283.0,87.0,162.0,57.0,174.0,2492.283
2492293.0,84.0,160.0,64.0,162.0,2492.293
2492303.0,83.0,157.0,60.0,150.0,2492.303
2492313.0,82.0,155.0,59.0,153.0,2492.313
2492323.0,82.0,154.0,53.0,144.0,2492.323
2492333.0,83.0,151.0,49.0,138.0,2492.333
2492343.0,80.0,147.0,52.0,126.0,2492.343
2492353.0,79.0,144.0,50.0,127.0,2492.353
2492363.0,77.0,143.0,49.0,142.0,2492.363
2492374.0,76.0,142.0,44.0,136.0,2492.374
2492384.0,75.0,139.0,51.0,167.0,2492.384
2492394.0,74.0,137.0,46.0,170.0,2492.394
2492404.0,72.0,135.0,44.0,157.0,2492.404
2492414.0,71.0,133.0,40.0,143.0,2492.414
2492424.0,68.0,129.0,39.0,139.0,2492.424
2492434.0,69.0,129.0,45.0,151.0,2492.434
2492444.0,70.0,128.0,39.0,157.0,2492.444
2492454.0,70.0,126.0,35.0,151.0,2492.454
2492464.0,70.0,123.0,31.0,138.0,2492.464
2492474.0,67.0,120.0,28.0,134.0,2492.474
2492484.0,65.0,114.0,48.0,159.0,2492.484
2492494.0,69.0,117.0,45.0,163.0,2492.494
2492504.0,68.0,115.0,40.0,157.0,2492.504
2492514.0,67.0,115.0,35.0,142.0,2492.514
2492524.0,66.0,110.0,32.0,133.0,2492.524
2492534.0,65.0,107.0,32.0,144.0,2492.534
2492544.0,65.0,104.0,42.0,159.0,2492.544
2492554.0,67.0,104.0,36.0,152.0,2492.554
2492564.0,66.0,101.0,32.0,145.0,2492.564
2492574.0,66.0,98.0,30.0,129.0,2492.574
2492584.0,65.0,95.0,29.0,124.0,2492.584
2492594.0,65.0,92.0,36.0,146.0,2492.594
2492604.0,65.0,93.0,32.0,149.0,2492.604
2492614.0,65.0,93.0,31.0,139.0,2492.614
2492624.0,64.0,91.0,26.0,128.0,2492.624
2492634.0,62.0,92.0,23.0,120.0,2492.634
2492644.0,60.0,89.0,24.0,134.0,2492.644
2492654.0,59.0,91.0,34.0,137.0,2492.654
2492664.0,59.0,90.0,31.0,144.0,2492.664
2492674.0,58.0,89.0,27.0,133.0,2492.674
2492684.0,57.0,89.0,25.0,124.0,2492.684
2492694.0,57.0,87.0,30.0,138.0,2492.694
2492704.0,55.0,86.0,28.0,131.0,2492.704
2492715.0,55.0,85.0,25.0,121.0,2492.715
2492725.0,54.0,82.0,25.0,127.0,2492.725
2492735.0,54.0,82.0,25.0,116.0,2492.735
2492745.0,54.0,79.0,26.0,122.0,2492.745
2492755.0,56.0,80.0,24.0,120.0,2492.755
2492765.0,57.0,80.0,28.0,139.0,2492.765
2492775.0,56.0,79.0,28.0,144.0,2492.775
2492785.0,57.0,77.0,42.0,141.0,2492.785
2492795.0,58.0,80.0,45.0,140.0,2492.795
2492805.0,59.0,82.0,43.0,135.0,2492.805
2492815.0,60.0,82.0,40.0,137.0,2492.815
2492825.0,59.0,82.0,37.0,144.0,2492.825
2492835.0,61.0,80.0,34.0,139.0,2492.835
2492845.0,60.0,80.0,29.0,137.0,2492.845
2492855.0,58.0,80.0,26.0,132.0,2492.855
2492865.0,58.0,79.0,23.0,123.0,2492.865
2492875.0,57.0,79.0,22.0,120.0,2492.875
2492886.0,58.0,77.0,28.0,122.0,2492.886
2492896.0,56.0,77.0,25.0,115.0,2492.896
2492906.0,56.0,75.0,32.0,127.0,2492.906
2492916.0,54.0,76.0,30.0,123.0,2492.916
2492926.0,54.0,76.0,27.0,129.0,2492.926
2492936.0,54.0,76.0,25.0,120.0,2492.936
2492946.0,54.0,74.0,21.0,116.0,2492.946
2492956.0,55.0,72.0,19.0,118.0,2492.956
2492966.0,55.0,72.0,17.0,114.0,2492.966
2492976.0,54.0,71.0,17.0,107.0,2492.976
2492986.0,56.0,70.0,22.0,101.0,2492.986
2492996.0,55.0,69.0,18.0,103.0,2492.996
2493006.0,55.0,67.0,17.0,105.0,2493.006
2493016.0,56.0,67.0,16.0,117.0,2493.016
2493026.0,56.0,66.0,14.0,120.0,2493.026
2493036.0,57.0,64.0,17.0,126.0,2493.036
2493046.0,59.0,64.0,16.0,122.0,2493.046
2493056.0,59.0,65.0,16.0,116.0,2493.056
2493066.0,58.0,63.0,16.0,121.0,2493.066
2493076.0,59.0,64.0,15.0,137.0,2493.076
2493086.0,58.0,65.0,13.0,129.0,2493.086
2493096.0,59.0,63.0,12.0,120.0,2493.096
2493106.0,60.0,63.0,12.0,137.0,2493.106
2493116.0,61.0,63.0,12.0,139.0,2493.116
2493126.0,62.0,62.0,11.0,135.0,2493.126
2493136.0,60.0,61.0,10.0,124.0,2493.136
2493146.0,60.0,60.0,12.0,129.0,2493.146
2493156.0,61.0,61.0,12.0,122.0,2493.156
2493166.0,61.0,57.0,11.0,112.0,2493.166
2493176.0,60.0,56.0,10.0,114.0,2493.176
2493186.0,60.0,54.0,12.0,106.0,2493.186
2493196.0,61.0,53.0,11.0,102.0,2493.196
2493206.0,60.0,53.0,10.0,101.0,2493.206
2493216.0,58.0,52.0,14.0,93.0,2493.216
2493227.0,60.0,53.0,14.0,96.0,2493.227
2493237.0,59.0,52.0,13.0,108.0,2493.237
2493247.0,59.0,51.0,12.0,112.0,2493.247
2493257.0,57.0,49.0,12.0,117.0,2493.257
2493267.0,59.0,49.0,12.0,116.0,2493.267
2493277.0,59.0,48.0,10.0,106.0,2493.277
2493287.0,60.0,49.0,10.0,100.0,2493.287
2493297.0,61.0,50.0,11.0,95.0,2493.297
2493307.0,62.0,49.0,11.0,90.0,2493.307
2493317.0,61.0,49.0,10.0,102.0,2493.317
2493327.0,61.0,49.0,10.0,98.0,2493.327
2493337.0,60.0,48.0,8.0,108.0,2493.337
2493347.0,60.0,50.0,8.0,100.0,2493.347
2493357.0,57.0,47.0,10.0,97.0,2493.357
2493367.0,58.0,50.0,12.0,95.0,2493.367
2493377.0,58.0,48.0,13.0,90.0,2493.377
2493387.0,58.0,47.0,14.0,94.0,2493.387
2493398.0,59.0,47.0,15.0,102.0,2493.398
2493408.0,58.0,45.0,15.0,107.0,2493.408
2493418.0,56.0,46.0,14.0,101.0,2493.418
2493428.0,55.0,43.0,13.0,95.0,2493.428
2493438.0,55.0,43.0,12.0,121.0,2493.438
2493448.0,54.0,43.0,12.0,124.0,2493.448
2493458.0,52.0,42.0,11.0,118.0,2493.458
2493468.0,49.0,43.0,9.0,117.0,2493.468
2493478.0,50.0,42.0,11.0,122.0,2493.478
2493488.0,48.0,43.0,8.0,129.0,2493.488
2493498.0,47.0,43.0,9.0,132.0,2493.498
2493508.0,46.0,44.0,10.0,132.0,2493.508
2493518.0,46.0,46.0,9.0,127.0,2493.518
2493528.0,46.0,46.0,11.0,119.0,2493.528
2493538.0,47.0,46.0,12.0,149.0,2493.538
2493548.0,47.0,46.0,12.0,150.0,2493.548
2493558.0,46.0,45.0,10.0,141.0,2493.558
2493568.0,46.0,45.0,9.0,132.0,2493.568
2493578.0,46.0,45.0,8.0,120.0,2493.578
2493588.0,45.0,46.0,8.0,117.0,2493.588
2493598.0,46.0,44.0,7.0,112.0,2493.598
2493608.0,45.0,45.0,7.0,107.0,2493.608
2493618.0,47.0,45.0,12.0,109.0,2493.618
2493628.0,47.0,45.0,10.0,105.0,2493.628
2493638.0,46.0,44.0,10.0,99.0,2493.638
2493648.0,46.0,42.0,9.0,100.0,2493.648
2493658.0,45.0,42.0,8.0,115.0,2493.658
2493668.0,48.0,42.0,8.0,112.0,2493.668
2493678.0,48.0,43.0,7.0,107.0,2493.678
2493688.0,47.0,42.0,9.0,104.0,2493.688
2493698.0,49.0,43.0,14.0,102.0,2493.698
2493708.0,48.0,43.0,13.0,105.0,2493.708
2493718.0,48.0,43.0,14.0,105.0,2493.718
2493728.0,49.0,43.0,12.0,105.0,2493.728
2493739.0,48.0,42.0,11.0,100.0,2493.739
2493749.0,49.0,43.0,10.0,105.0,2493.749
2493759.0,49.0,43.0,10.0,97.0,2493.759
2493769.0,50.0,42.0,9.0,103.0,2493.769
2493779.0,50.0,43.0,7.0,103.0,2493.779
2493789.0,52.0,44.0,9.0,105.0,2493.789
2493799.0,52.0,45.0,8.0,96.0,2493.799
2493809.0,51.0,43.0,7.0,95.0,2493.809
2493819.0,52.0,41.0,8.0,93.0,2493.819
2493829.0,54.0,42.0,9.0,98.0,2493.829
2493839.0,55.0,42.0,9.0,107.0,2493.839
2493849.0,56.0,40.0,8.0,110.0,2493.849
2493859.0,56.0,39.0,9.0,99.0,2493.859
2493869.0,58.0,39.0,8.0,98.0,2493.869
2493879.0,58.0,38.0,9.0,100.0,2493.879
2493889.0,58.0,37.0,8.0,105.0,2493.889
2493899.0,59.0,36.0,9.0,108.0,2493.899
2493910.0,59.0,37.0,8.0,100.0,2493.91
2493920.0,58.0,37.0,6.0,91.0,2493.92
2493930.0,58.0,37.0,7.0,88.0,2493.93
2493940.0,57.0,38.0,8.0,109.0,2493.94
2493950.0,55.0,38.0,8.0,116.0,2493.95
2493960.0,54.0,38.0,8.0,112.0,2493.96
2493970.0,54.0,39.0,7.0,106.0,2493.97
2493980.0,55.0,39.0,8.0,99.0,2493.98
2493990.0,54.0,41.0,6.0,98.0,2493.99
2494000.0,54.0,40.0,7.0,100.0,2494.0
2494010.0,53.0,39.0,7.0,109.0,2494.01
2494020.0,54.0,40.0,8.0,102.0,2494.02
2494030.0,53.0,38.0,9.0,94.0,2494.03
2494040.0,53.0,39.0,7.0,89.0,2494.04
2494050.0,57.0,39.0,8.0,88.0,2494.05
2494060.0,57.0,39.0,6.0,108.0,2494.06
2494070.0,58.0,38.0,7.0,105.0,2494.07
2494080.0,59.0,39.0,10.0,103.0,2494.08
2494090.0,59.0,41.0,11.0,96.0,2494.09
2494100.0,62.0,41.0,10.0,101.0,2494.1
2494110.0,61.0,44.0,9.0,112.0,2494.11
2494120.0,62.0,44.0,9.0,114.0,2494.12
2494130.0,62.0,45.0,8.0,109.0,2494.13
2494140.0,60.0,47.0,7.0,99.0,2494.14
2494150.0,61.0,45.0,10.0,92.0,2494.15
2494160.0,62.0,47.0,12.0,89.0,2494.16
2494170.0,63.0,48.0,12.0,96.0,2494.17
2494180.0,64.0,49.0,9.0,98.0,2494.18
2494190.0,64.0,48.0,10.0,94.0,2494.19
2494200.0,64.0,47.0,11.0,91.0,2494.2
2494210.0,65.0,48.0,11.0,88.0,2494.21
2494220.0,67.0,47.0,14.0,84.0,2494.22
2494230.0,66.0,47.0,12.0,88.0,2494.23
2494240.0,66.0,46.0,12.0,94.0,2494.24
2494251.0,65.0,47.0,10.0,94.0,2494.251
2494261.0,63.0,45.0,10.0,86.0,2494.261
2494271.0,64.0,47.0,8.0,82.0,2494.271
2494281.0,62.0,45.0,8.0,89.0,2494.281
2494291.0,60.0,43.0,8.0,105.0,2494.291
2494301.0,59.0,43.0,7.0,101.0,2494.301
2494311.0,58.0,42.0,7.0,92.0,2494.311
2494321.0,57.0,41.0,7.0,89.0,2494.321
2494331.0,57.0,40.0,7.0,106.0,2494.331
2494341.0,58.0,40.0,7.0,107.0,2494.341
2494351.0,59.0,41.0,6.0,103.0,2494.351
2494361.0,57.0,41.0,6.0,104.0,2494.361
2494371.0,57.0,43.0,5.0,99.0,2494.371
2494381.0,57.0,44.0,5.0,113.0,2494.381
2494391.0,56.0,44.0,5.0,113.0,2494.391
2494401.0,55.0,44.0,5.0,107.0,2494.401
2494411.0,55.0,43.0,6.0,106.0,2494.411
2494422.0,54.0,42.0,6.0,105.0,2494.422
2494432.0,57.0,43.0,7.0,95.0,2494.432
2494442.0,54.0,42.0,7.0,102.0,2494.442
2494452.0,53.0,41.0,6.0,127.0,2494.452
2494462.0,54.0,41.0,8.0,119.0,2494.462
2494472.0,52.0,40.0,8.0,113.0,2494.472
2494482.0,55.0,41.0,9.0,104.0,2494.482
2494492.0,52.0,41.0,8.0,95.0,2494.492
2494502.0,53.0,41.0,10.0,111.0,2494.502
2494512.0,53.0,41.0,9.0,109.0,2494.512
2494522.0,51.0,40.0,9.0,106.0,2494.522
2494532.0,53.0,40.0,8.0,103.0,2494.532
2494542.0,52.0,40.0,8.0,98.0,2494.542
2494552.0,51.0,40.0,8.0,104.0,2494.552
2494562.0,52.0,41.0,5.0,110.0,2494.562
2494572.0,52.0,40.0,7.0,104.0,2494.572
2494582.0,52.0,40.0,7.0,98.0,2494.582
2494592.0,52.0,41.0,7.0,95.0,2494.592
2494602.0,54.0,39.0,6.0,89.0,2494.602
2494612.0,53.0,40.0,8.0,97.0,2494.612
2494622.0,54.0,39.0,10.0,94.0,2494.622
2494632.0,53.0,40.0,8.0,88.0,2494.632
2494642.0,54.0,40.0,7.0,100.0,2494.642
2494652.0,52.0,39.0,8.0,99.0,2494.652
2494662.0,54.0,39.0,7.0,100.0,2494.662
2494672.0,53.0,38.0,8.0,104.0,2494.672
2494682.0,53.0,38.0,11.0,112.0,2494.682
2494692.0,53.0,38.0,12.0,112.0,2494.692
2494702.0,51.0,37.0,10.0,107.0,2494.702
2494712.0,48.0,37.0,10.0,102.0,2494.712
2494722.0,48.0,36.0,9.0,117.0,2494.722
2494732.0,47.0,37.0,9.0,113.0,2494.732
2494742.0,46.0,35.0,9.0,103.0,2494.742
2494752.0,47.0,35.0,8.0,103.0,2494.752
2494763.0,47.0,35.0,8.0,102.0,2494.763
2494773.0,49.0,36.0,8.0,107.0,2494.773
2494783.0,48.0,37.0,7.0,115.0,2494.783
2494793.0,50.0,37.0,7.0,110.0,2494.793
2494803.0,50.0,39.0,10.0,104.0,2494.803
2494813.0,50.0,38.0,10.0,96.0,2494.813
2494823.0,49.0,39.0,11.0,95.0,2494.823
2494833.0,49.0,38.0,11.0,88.0,2494.833
2494843.0,50.0,37.0,9.0,94.0,2494.843
2494853.0,49.0,36.0,8.0,103.0,2494.853
2494863.0,50.0,36.0,10.0,103.0,2494.863
2494873.0,49.0,36.0,10.0,98.0,2494.873
2494883.0,49.0,35.0,10.0,89.0,2494.883
2494893.0,49.0,35.0,10.0,87.0,2494.893
2494903.0,49.0,35.0,13.0,96.0,2494.903
2494913.0,50.0,34.0,11.0,107.0,2494.913
2494923.0,48.0,34.0,10.0,104.0,2494.923
2494934.0,48.0,34.0,12.0,104.0,2494.934
2494944.0,47.0,35.0,11.0,133.0,2494.944
2494954.0,49.0,35.0,10.0,153.0,2494.954
2494964.0,50.0,35.0,10.0,151.0,2494.964
2494974.0,49.0,35.0,9.0,160.0,2494.974
2494984.0,50.0,35.0,11.0,174.0,2494.984
2494994.0,48.0,36.0,8.0,170.0,2494.994
2495004.0,49.0,36.0,8.0,164.0,2495.004
2495014.0,49.0,37.0,11.0,150.0,2495.014
2495024.0,48.0,36.0,11.0,146.0,2495.024
2495034.0,50.0,36.0,12.0,149.0,2495.034
2495044.0,51.0,38.0,9.0,138.0,2495.044
2495054.0,50.0,37.0,11.0,133.0,2495.054
2495064.0,50.0,37.0,8.0,132.0,2495.064
2495074.0,50.0,36.0,8.0,124.0,2495.074
2495084.0,50.0,36.0,7.0,126.0,2495.084
2495094.0,49.0,36.0,18.0,129.0,2495.094
2495104.0,50.0,36.0,19.0,124.0,2495.104
2495114.0,50.0,37.0,16.0,119.0,2495.114
2495124.0,52.0,37.0,16.0,128.0,2495.124
2495134.0,50.0,36.0,14.0,123.0,2495.134
2495144.0,51.0,37.0,13.0,114.0,2495.144
2495154.0,51.0,37.0,12.0,106.0,2495.154
2495164.0,50.0,37.0,13.0,98.0,2495.164
2495174.0,50.0,37.0,12.0,93.0,2495.174
2495184.0,51.0,38.0,11.0,88.0,2495.184
2495194.0,52.0,37.0,13.0,104.0,2495.194
2495204.0,54.0,38.0,11.0,119.0,2495.204
2495214.0,56.0,39.0,11.0,115.0,2495.214
2495224.0,54.0,38.0,10.0,109.0,2495.224
2495234.0,54.0,39.0,13.0,115.0,2495.234
2495244.0,56.0,38.0,11.0,128.0,2495.244
2495254.0,54.0,38.0,12.0,128.0,2495.254
2495264.0,55.0,38.0,13.0,121.0,2495.264
2495275.0,54.0,37.0,11.0,111.0,2495.275
2495285.0,52.0,36.0,12.0,102.0,2495.285
2495295.0,53.0,36.0,14.0,102.0,2495.295
2495305.0,53.0,36.0,12.0,116.0,2495.305
2495315.0,51.0,36.0,11.0,118.0,2495.315
2495325.0,51.0,36.0,11.0,112.0,2495.325
2495335.0,52.0,35.0,10.0,107.0,2495.335
2495345.0,52.0,35.0,10.0,102.0,2495.345
2495355.0,52.0,36.0,8.0,109.0,2495.355
2495365.0,52.0,36.0,10.0,109.0,2495.365
2495375.0,52.0,37.0,9.0,114.0,2495.375
2495385.0,53.0,38.0,9.0,106.0,2495.385
2495395.0,52.0,38.0,8.0,111.0,2495.395
2495405.0,52.0,38.0,8.0,112.0,2495.405
2495415.0,52.0,39.0,7.0,107.0,2495.415
2495425.0,49.0,39.0,6.0,102.0,2495.425
2495435.0,49.0,39.0,7.0,101.0,2495.435
2495446.0,48.0,40.0,6.0,105.0,2495.446
2495456.0,47.0,39.0,6.0,100.0,2495.456
2495466.0,48.0,39.0,6.0,95.0,2495.466
2495476.0,47.0,39.0,6.0,96.0,2495.476
2495486.0,48.0,39.0,6.0,105.0,2495.486
2495496.0,48.0,39.0,6.0,104.0,2495.496
2495506.0,47.0,37.0,5.0,105.0,2495.506
2495516.0,46.0,38.0,6.0,98.0,2495.516
2495526.0,46.0,37.0,6.0,98.0,2495.526
2495536.0,47.0,37.0,6.0,105.0,2495.536
2495546.0,46.0,37.0,5.0,96.0,2495.546
2495556.0,46.0,36.0,6.0,88.0,2495.556
2495566.0,47.0,37.0,4.0,103.0,2495.566
2495576.0,46.0,36.0,6.0,109.0,2495.576
2495586.0,48.0,36.0,4.0,110.0,2495.586
2495596.0,49.0,37.0,8.0,112.0,2495.596
2495606.0,49.0,36.0,7.0,106.0,2495.606
2495616.0,52.0,37.0,9.0,100.0,2495.616
2495626.0,55.0,37.0,11.0,105.0,2495.626
2495636.0,55.0,37.0,10.0,104.0,2495.636
2495646.0,55.0,37.0,10.0,104.0,2495.646
2495656.0,56.0,38.0,9.0,117.0,2495.656
2495666.0,57.0,38.0,8.0,113.0,2495.666
2495676.0,56.0,38.0,10.0,116.0,2495.676
2495686.0,55.0,36.0,9.0,110.0,2495.686
2495696.0,55.0,37.0,9.0,104.0,2495.696
2495706.0,54.0,37.0,8.0,102.0,2495.706
2495716.0,54.0,37.0,7.0,99.0,2495.716
2495726.0,55.0,37.0,8.0,101.0,2495.726
2495736.0,55.0,39.0,9.0,120.0,2495.736
2495746.0,56.0,39.0,14.0,114.0,2495.746
2495756.0,56.0,39.0,14.0,119.0,2495.756
2495766.0,57.0,40.0,14.0,120.0,2495.766
2495776.0,56.0,41.0,12.0,112.0,2495.776
2495787.0,54.0,42.0,14.0,105.0,2495.787
2495797.0,56.0,44.0,13.0,132.0,2495.797
2495807.0,57.0,46.0,13.0,124.0,2495.807
2495817.0,57.0,46.0,12.0,126.0,2495.817
2495827.0,57.0,45.0,11.0,116.0,2495.827
2495837.0,57.0,44.0,10.0,128.0,2495.837
2495847.0,58.0,43.0,10.0,127.0,2495.847
2495857.0,57.0,43.0,11.0,119.0,2495.857
2495867.0,59.0,43.0,10.0,117.0,2495.867
2495877.0,58.0,43.0,11.0,117.0,2495.877
2495887.0,59.0,41.0,11.0,112.0,2495.887
2495897.0,59.0,40.0,9.0,115.0,2495.897
2495907.0,57.0,39.0,9.0,112.0,2495.907
2495917.0,61.0,40.0,10.0,107.0,2495.917
2495927.0,60.0,40.0,7.0,106.0,2495.927
2495937.0,61.0,41.0,8.0,109.0,2495.937
2495947.0,61.0,43.0,9.0,108.0,2495.947
2495958.0,60.0,42.0,9.0,108.0,2495.958
2495968.0,60.0,42.0,8.0,108.0,2495.968
2495978.0,61.0,42.0,8.0,111.0,2495.978
2495988.0,60.0,41.0,8.0,112.0,2495.988
2495998.0,58.0,41.0,6.0,113.0,2495.998
2496008.0,56.0,40.0,7.0,111.0,2496.008
2496018.0,56.0,42.0,6.0,109.0,2496.018
2496028.0,55.0,41.0,6.0,110.0,2496.028
2496038.0,54.0,42.0,6.0,110.0,2496.038
2496048.0,52.0,41.0,7.0,103.0,2496.048
2496058.0,52.0,40.0,7.0,110.0,2496.058
2496068.0,50.0,40.0,6.0,106.0,2496.068
2496078.0,52.0,40.0,7.0,104.0,2496.078
2496088.0,50.0,40.0,7.0,98.0,2496.088
2496098.0,50.0,39.0,8.0,92.0,2496.098
2496108.0,49.0,38.0,9.0,87.0,2496.108
2496118.0,48.0,38.0,8.0,87.0,2496.118
2496128.0,48.0,36.0,7.0,96.0,2496.128
2496138.0,47.0,36.0,6.0,95.0,2496.138
2496148.0,48.0,36.0,6.0,87.0,2496.148
2496158.0,47.0,37.0,11.0,90.0,2496.158
2496168.0,48.0,36.0,10.0,89.0,2496.168
2496178.0,49.0,36.0,9.0,84.0,2496.178
2496188.0,48.0,36.0,9.0,77.0,2496.188
2496198.0,51.0,36.0,10.0,81.0,2496.198
2496208.0,49.0,35.0,8.0,80.0,2496.208
2496218.0,50.0,35.0,8.0,78.0,2496.218
2496228.0,50.0,35.0,8.0,73.0,2496.228
2496238.0,49.0,36.0,9.0,68.0,2496.238
2496248.0,49.0,34.0,8.0,71.0,2496.248
2496258.0,49.0,35.0,8.0,75.0,2496.258
2496268.0,50.0,35.0,8.0,73.0,2496.268
2496278.0,50.0,35.0,9.0,70.0,2496.278
2496288.0,52.0,35.0,9.0,82.0,2496.288
2496299.0,54.0,37.0,8.0,79.0,2496.299
2496309.0,53.0,38.0,10.0,94.0,2496.309
2496319.0,54.0,38.0,10.0,95.0,2496.319
2496329.0,55.0,40.0,8.0,96.0,2496.329
2496339.0,55.0,39.0,9.0,94.0,2496.339
2496349.0,56.0,40.0,12.0,96.0,2496.349
2496359.0,57.0,40.0,12.0,97.0,2496.359
2496369.0,58.0,40.0,11.0,95.0,2496.369
2496379.0,57.0,42.0,11.0,95.0,2496.379
2496389.0,57.0,40.0,10.0,86.0,2496.389
2496399.0,56.0,40.0,9.0,82.0,2496.399
2496409.0,55.0,40.0,9.0,79.0,2496.409
2496419.0,54.0,40.0,8.0,76.0,2496.419
2496429.0,53.0,41.0,7.0,73.0,2496.429
2496439.0,53.0,40.0,10.0,71.0,2496.439
2496449.0,52.0,40.0,14.0,67.0,2496.449
2496459.0,54.0,39.0,13.0,70.0,2496.459
2496470.0,53.0,40.0,11.0,77.0,2496.47
2496480.0,53.0,40.0,12.0,83.0,2496.48
2496490.0,53.0,41.0,10.0,85.0,2496.49
2496500.0,52.0,43.0,8.0,83.0,2496.5
2496510.0,52.0,44.0,8.0,77.0,2496.51
2496520.0,50.0,46.0,7.0,76.0,2496.52
2496530.0,51.0,48.0,11.0,98.0,2496.53
2496540.0,49.0,48.0,9.0,99.0,2496.54
2496550.0,49.0,51.0,8.0,95.0,2496.55
2496560.0,49.0,52.0,8.0,90.0,2496.56
2496570.0,48.0,53.0,7.0,88.0,2496.57
2496580.0,47.0,55.0,7.0,92.0,2496.58
2496590.0,47.0,57.0,7.0,112.0,2496.59
2496600.0,47.0,58.0,7.0,114.0,2496.6
2496610.0,46.0,57.0,6.0,113.0,2496.61
2496620.0,45.0,59.0,9.0,110.0,2496.62
2496630.0,46.0,60.0,11.0,103.0,2496.63
2496640.0,44.0,61.0,10.0,105.0,2496.64
2496650.0,45.0,61.0,9.0,100.0,2496.65
2496660.0,44.0,61.0,9.0,97.0,2496.66
2496670.0,43.0,59.0,8.0,90.0,2496.67
2496680.0,44.0,58.0,8.0,84.0,2496.68
2496690.0,43.0,60.0,9.0,97.0,2496.69
2496700.0,44.0,57.0,11.0,98.0,2496.7
2496710.0,44.0,57.0,11.0,94.0,2496.71
2496720.0,43.0,56.0,12.0,89.0,2496.72
2496730.0,44.0,56.0,17.0,92.0,2496.73
2496740.0,43.0,56.0,17.0,96.0,2496.74
2496750.0,46.0,55.0,15.0,95.0,2496.75
2496760.0,46.0,55.0,13.0,91.0,2496.76
2496770.0,47.0,54.0,12.0,82.0,2496.77
2496780.0,48.0,55.0,11.0,80.0,2496.78
2496790.0,47.0,53.0,10.0,75.0,2496.79
2496800.0,49.0,54.0,11.0,80.0,2496.8
2496811.0,50.0,55.0,11.0,92.0,2496.811
2496821.0,52.0,55.0,10.0,86.0,2496.821
2496831.0,54.0,56.0,11.0,85.0,2496.831
2496841.0,55.0,55.0,11.0,94.0,2496.841
2496851.0,57.0,55.0,9.0,94.0,2496.851
2496861.0,56.0,54.0,11.0,97.0,2496.861
2496871.0,56.0,53.0,12.0,91.0,2496.871
2496881.0,56.0,53.0,11.0,87.0,2496.881
2496891.0,55.0,50.0,11.0,80.0,2496.891
2496901.0,54.0,50.0,13.0,78.0,2496.901
2496911.0,53.0,48.0,13.0,82.0,2496.911
2496921.0,52.0,46.0,13.0,92.0,2496.921
2496931.0,52.0,46.0,13.0,102.0,2496.931
2496941.0,51.0,46.0,11.0,99.0,2496.941
2496951.0,50.0,45.0,12.0,93.0,2496.951
2496961.0,49.0,43.0,11.0,94.0,2496.961
2496971.0,48.0,42.0,10.0,91.0,2496.971
2496982.0,48.0,41.0,10.0,84.0,2496.982
2496992.0,48.0,40.0,12.0,89.0,2496.992
2497002.0,50.0,42.0,11.0,92.0,2497.002
2497012.0,50.0,41.0,11.0,94.0,2497.012
2497022.0,49.0,43.0,9.0,89.0,2497.022
2497032.0,48.0,43.0,9.0,91.0,2497.032
2497042.0,49.0,46.0,9.0,89.0,2497.042
2497052.0,49.0,48.0,9.0,86.0,2497.052
2497062.0,49.0,48.0,9.0,91.0,2497.062
2497072.0,48.0,48.0,8.0,87.0,2497.072
2497082.0,51.0,49.0,9.0,84.0,2497.082
2497092.0,51.0,50.0,8.0,80.0,2497.092
2497102.0,51.0,49.0,7.0,74.0,2497.102
2497112.0,50.0,47.0,7.0,71.0,2497.112
2497122.0,49.0,47.0,8.0,68.0,2497.122
2497132.0,53.0,47.0,8.0,70.0,2497.132
2497142.0,52.0,48.0,7.0,92.0,2497.142
2497152.0,53.0,47.0,8.0,94.0,2497.152
2497162.0,52.0,47.0,12.0,99.0,2497.162
2497172.0,54.0,47.0,10.0,93.0,2497.172
2497182.0,55.0,48.0,10.0,109.0,2497.182
2497192.0,56.0,48.0,9.0,113.0,2497.192
2497202.0,57.0,48.0,10.0,122.0,2497.202
2497212.0,58.0,48.0,8.0,146.0,2497.212
2497222.0,58.0,47.0,9.0,161.0,2497.222
2497232.0,58.0,47.0,12.0,155.0,2497.232
2497242.0,59.0,47.0,11.0,148.0,2497.242
2497252.0,59.0,46.0,11.0,147.0,2497.252
2497262.0,59.0,51.0,9.0,152.0,2497.262
2497272.0,59.0,61.0,10.0,139.0,2497.272
2497282.0,58.0,70.0,8.0,134.0,2497.282
2497292.0,55.0,82.0,7.0,125.0,2497.292
2497302.0,54.0,93.0,8.0,117.0,2497.302
2497312.0,55.0,102.0,8.0,111.0,2497.312
2497323.0,53.0,108.0,8.0,116.0,2497.323
2497333.0,51.0,116.0,7.0,116.0,2497.333
2497343.0,49.0,122.0,7.0,107.0,2497.343
2497353.0,48.0,126.0,6.0,108.0,2497.353
2497363.0,48.0,129.0,6.0,103.0,2497.363
2497373.0,49.0,132.0,7.0,111.0,2497.373
2497383.0,48.0,134.0,8.0,115.0,2497.383
2497393.0,48.0,134.0,6.0,112.0,2497.393
2497403.0,47.0,134.0,5.0,106.0,2497.403
2497413.0,47.0,134.0,8.0,109.0,2497.413
2497423.0,46.0,134.0,8.0,103.0,2497.423
2497433.0,44.0,135.0,7.0,103.0,2497.433
2497443.0,44.0,133.0,7.0,105.0,2497.443
2497453.0,44.0,131.0,6.0,99.0,2497.453
2497463.0,44.0,128.0,7.0,94.0,2497.463
2497473.0,44.0,125.0,5.0,91.0,2497.473
2497483.0,44.0,122.0,8.0,86.0,2497.483
2497494.0,44.0,119.0,8.0,91.0,2497.494
2497504.0,44.0,115.0,10.0,91.0,2497.504
2497514.0,44.0,109.0,9.0,93.0,2497.514
2497524.0,45.0,107.0,8.0,95.0,2497.524
2497534.0,45.0,98.0,8.0,98.0,2497.534
2497544.0,45.0,94.0,8.0,104.0,2497.544
2497554.0,45.0,86.0,8.0,113.0,2497.554
2497564.0,45.0,79.0,8.0,109.0,2497.564
2497574.0,44.0,74.0,6.0,101.0,2497.574
2497584.0,44.0,71.0,7.0,95.0,2497.584
2497594.0,46.0,72.0,6.0,95.0,2497.594
2497604.0,46.0,72.0,6.0,86.0,2497.604
2497614.0,46.0,74.0,6.0,79.0,2497.614
2497624.0,46.0,76.0,6.0,78.0,2497.624
2497634.0,47.0,78.0,7.0,74.0,2497.634
2497644.0,46.0,79.0,7.0,78.0,2497.644
2497654.0,46.0,80.0,7.0,86.0,2497.654
2497664.0,47.0,81.0,7.0,88.0,2497.664
2497674.0,49.0,83.0,7.0,85.0,2497.674
2497684.0,51.0,82.0,6.0,81.0,2497.684
2497694.0,52.0,82.0,5.0,78.0,2497.694
2497704.0,54.0,82.0,7.0,75.0,2497.704
2497714.0,53.0,81.0,5.0,72.0,2497.714
2497724.0,55.0,79.0,5.0,68.0,2497.724
2497734.0,55.0,79.0,5.0,64.0,2497.734
2497744.0,56.0,78.0,5.0,60.0,2497.744
2497754.0,58.0,77.0,5.0,54.0,2497.754
2497764.0,59.0,76.0,5.0,53.0,2497.764
2497774.0,60.0,74.0,7.0,49.0,2497.774
2497784.0,60.0,74.0,6.0,48.0,2497.784
2497794.0,61.0,74.0,5.0,51.0,2497.794
2497804.0,60.0,74.0,5.0,63.0,2497.804
2497814.0,59.0,74.0,6.0,72.0,2497.814
2497824.0,60.0,73.0,6.0,68.0,2497.824
2497835.0,59.0,73.0,12.0,74.0,2497.835
2497845.0,58.0,72.0,12.0,80.0,2497.845
2497855.0,58.0,72.0,10.0,86.0,2497.855
2497865.0,56.0,71.0,11.0,93.0,2497.865
2497875.0,54.0,71.0,10.0,84.0,2497.875
2497885.0,53.0,71.0,10.0,98.0,2497.885
2497895.0,51.0,71.0,9.0,97.0,2497.895
2497905.0,49.0,70.0,9.0,105.0,2497.905
2497915.0,49.0,69.0,9.0,107.0,2497.915
2497925.0,47.0,69.0,7.0,119.0,2497.925
2497935.0,46.0,70.0,9.0,127.0,2497.935
2497945.0,47.0,71.0,8.0,120.0,2497.945
2497955.0,46.0,72.0,7.0,109.0,2497.955
2497965.0,45.0,70.0,9.0,103.0,2497.965
2497975.0,45.0,71.0,11.0,105.0,2497.975
2497985.0,47.0,73.0,13.0,99.0,2497.985
2497995.0,48.0,74.0,10.0,96.0,2497.995
2498006.0,46.0,71.0,9.0,89.0,2498.006
2498016.0,49.0,71.0,8.0,100.0,2498.016
2498026.0,48.0,69.0,8.0,100.0,2498.026
2498036.0,49.0,68.0,8.0,100.0,2498.036
2498046.0,48.0,66.0,6.0,96.0,2498.046
2498056.0,47.0,64.0,8.0,92.0,2498.056
2498066.0,50.0,63.0,8.0,93.0,2498.066
2498076.0,50.0,61.0,7.0,97.0,2498.076
2498086.0,51.0,60.0,7.0,94.0,2498.086
2498096.0,51.0,57.0,6.0,114.0,2498.096
2498106.0,51.0,54.0,6.0,114.0,2498.106
2498116.0,51.0,53.0,6.0,108.0,2498.116
2498126.0,51.0,49.0,5.0,114.0,2498.126
2498136.0,51.0,47.0,5.0,107.0,2498.136
2498146.0,52.0,46.0,6.0,112.0,2498.146
2498156.0,52.0,46.0,8.0,111.0,2498.156
2498166.0,53.0,44.0,8.0,106.0,2498.166
2498176.0,53.0,43.0,7.0,102.0,2498.176
2498186.0,54.0,42.0,7.0,95.0,2498.186
2498196.0,54.0,42.0,7.0,102.0,2498.196
2498206.0,55.0,41.0,7.0,102.0,2498.206
2498216.0,53.0,42.0,6.0,97.0,2498.216
2498226.0,51.0,41.0,9.0,93.0,2498.226
2498236.0,52.0,41.0,8.0,97.0,2498.236
2498246.0,51.0,41.0,13.0,93.0,2498.246
2498256.0,51.0,41.0,15.0,100.0,2498.256
2498266.0,52.0,41.0,13.0,97.0,2498.266
2498276.0,54.0,41.0,13.0,104.0,2498.276
2498286.0,52.0,40.0,16.0,110.0,2498.286
2498296.0,54.0,41.0,14.0,111.0,2498.296
2498306.0,53.0,41.0,13.0,108.0,2498.306
2498316.0,53.0,42.0,13.0,108.0,2498.316
2498326.0,53.0,42.0,13.0,100.0,2498.326
2498336.0,52.0,43.0,12.0,100.0,2498.336
2498347.0,53.0,45.0,12.0,102.0,2498.347
