time (ms),signal 0,signal 1,signal 2,signal3,time (sec)
2502401.0,69.0,39.0,10.0,86.0,2502.401
2502411.0,71.0,40.0,9.0,79.0,2502.411
2502421.0,70.0,41.0,8.0,81.0,2502.421
2502431.0,69.0,42.0,7.0,92.0,2502.431
2502441.0,69.0,42.0,7.0,95.0,2502.441
2502451.0,68.0,43.0,6.0,105.0,2502.451
2502461.0,68.0,43.0,7.0,96.0,2502.461
2502471.0,67.0,44.0,9.0,89.0,2502.471
2502481.0,69.0,44.0,10.0,85.0,2502.481
2502491.0,69.0,44.0,8.0,83.0,2502.491
2502501.0,68.0,44.0,11.0,108.0,2502.501
2502511.0,70.0,44.0,10.0,111.0,2502.511
2502521.0,67.0,44.0,10.0,108.0,2502.521
2502531.0,69.0,44.0,8.0,102.0,2502.531
2502541.0,70.0,44.0,9.0,97.0,2502.541
2502551.0,70.0,44.0,10.0,101.0,2502.551
2502561.0,70.0,43.0,9.0,96.0,2502.561
2502571.0,67.0,43.0,13.0,95.0,2502.571
2502581.0,67.0,41.0,11.0,89.0,2502.581
2502591.0,66.0,42.0,11.0,95.0,2502.591
2502601.0,65.0,41.0,9.0,106.0,2502.601
2502611.0,66.0,41.0,10.0,101.0,2502.611
2502621.0,65.0,41.0,9.0,94.0,2502.621
2502631.0,67.0,40.0,9.0,97.0,2502.631
2502641.0,66.0,40.0,7.0,97.0,2502.641
2502651.0,67.0,39.0,8.0,104.0,2502.651
2502661.0,70.0,41.0,9.0,109.0,2502.661
2502671.0,70.0,39.0,8.0,102.0,2502.671
2502681.0,71.0,39.0,8.0,100.0,2502.681
2502691.0,72.0,41.0,9.0,115.0,2502.691
2502701.0,73.0,41.0,9.0,123.0,2502.701
2502711.0,72.0,41.0,7.0,121.0,2502.711
2502721.0,76.0,41.0,8.0,117.0,2502.721
2502731.0,75.0,41.0,8.0,114.0,2502.731
2502742.0,75.0,41.0,10.0,105.0,2502.742
2502752.0,76.0,43.0,9.0,106.0,2502.752
2502762.0,76.0,43.0,8.0,107.0,2502.762
2502772.0,77.0,44.0,10.0,105.0,2502.772
2502782.0,76.0,46.0,8.0,104.0,2502.782
2502792.0,76.0,45.0,8.0,102.0,2502.792
2502802.0,77.0,46.0,9.0,108.0,2502.802
2502812.0,77.0,48.0,9.0,104.0,2502.812
2502822.0,78.0,49.0,8.0,108.0,2502.822
2502832.0,79.0,50.0,9.0,101.0,2502.832
2502842.0,79.0,49.0,10.0,106.0,2502.842
2502852.0,79.0,49.0,10.0,110.0,2502.852
2502862.0,81.0,50.0,10.0,112.0,2502.862
2502872.0,81.0,51.0,12.0,117.0,2502.872
2502882.0,81.0,52.0,11.0,120.0,2502.882
2502892.0,83.0,52.0,10.0,110.0,2502.892
2502902.0,82.0,53.0,9.0,106.0,2502.902
2502912.0,83.0,52.0,11.0,107.0,2502.912
2502922.0,82.0,52.0,8.0,102.0,2502.922
2502932.0,82.0,53.0,7.0,104.0,2502.932
2502942.0,82.0,53.0,8.0,109.0,2502.942
2502952.0,81.0,52.0,8.0,106.0,2502.952
2502962.0,81.0,52.0,8.0,110.0,2502.962
2502972.0,80.0,54.0,8.0,114.0,2502.972
2502982.0,80.0,56.0,9.0,110.0,2502.982
2502992.0,80.0,58.0,6.0,104.0,2502.992
2503002.0,78.0,56.0,6.0,104.0,2503.002
2503012.0,79.0,57.0,8.0,105.0,2503.012
2503022.0,79.0,58.0,7.0,102.0,2503.022
2503032.0,80.0,55.0,7.0,99.0,2503.032
2503042.0,80.0,55.0,7.0,100.0,2503.042
2503052.0,79.0,55.0,8.0,101.0,2503.052
2503062.0,81.0,55.0,6.0,97.0,2503.062
2503072.0,80.0,53.0,6.0,108.0,2503.072
2503083.0,80.0,53.0,6.0,103.0,2503.083
2503093.0,79.0,53.0,6.0,105.0,2503.093
2503103.0,80.0,53.0,10.0,108.0,2503.103
2503113.0,81.0,53.0,10.0,103.0,2503.113
2503123.0,81.0,54.0,9.0,107.0,2503.123
2503133.0,83.0,53.0,8.0,116.0,2503.133
2503143.0,82.0,52.0,10.0,116.0,2503.143
2503153.0,84.0,51.0,11.0,107.0,2503.153
2503163.0,85.0,53.0,10.0,101.0,2503.163
2503173.0,85.0,50.0,10.0,122.0,2503.173
2503183.0,86.0,48.0,12.0,124.0,2503.183
2503193.0,85.0,47.0,11.0,117.0,2503.193
2503203.0,87.0,47.0,12.0,109.0,2503.203
2503213.0,88.0,48.0,10.0,118.0,2503.213
2503223.0,88.0,48.0,10.0,121.0,2503.223
2503233.0,87.0,49.0,9.0,121.0,2503.233
2503243.0,89.0,50.0,9.0,115.0,2503.243
2503254.0,89.0,49.0,10.0,111.0,2503.254
2503264.0,89.0,50.0,13.0,109.0,2503.264
2503274.0,89.0,50.0,13.0,113.0,2503.274
2503284.0,88.0,50.0,12.0,113.0,2503.284
2503294.0,88.0,49.0,12.0,108.0,2503.294
2503304.0,87.0,47.0,13.0,105.0,2503.304
2503314.0,86.0,46.0,12.0,97.0,2503.314
2503324.0,86.0,46.0,12.0,97.0,2503.324
2503334.0,85.0,46.0,11.0,104.0,2503.334
2503344.0,86.0,44.0,11.0,99.0,2503.344
2503354.0,85.0,46.0,11.0,100.0,2503.354
2503364.0,85.0,44.0,10.0,101.0,2503.364
2503374.0,85.0,46.0,11.0,101.0,2503.374
2503384.0,83.0,45.0,9.0,100.0,2503.384
2503394.0,85.0,46.0,9.0,102.0,2503.394
2503404.0,85.0,48.0,8.0,99.0,2503.404
2503414.0,86.0,49.0,9.0,121.0,2503.414
2503424.0,86.0,49.0,10.0,118.0,2503.424
2503434.0,85.0,49.0,11.0,120.0,2503.434
2503444.0,86.0,51.0,11.0,115.0,2503.444
2503454.0,86.0,53.0,10.0,118.0,2503.454
2503464.0,85.0,52.0,12.0,129.0,2503.464
2503474.0,85.0,52.0,12.0,120.0,2503.474
2503484.0,87.0,52.0,13.0,118.0,2503.484
2503494.0,85.0,51.0,13.0,111.0,2503.494
2503504.0,84.0,50.0,12.0,123.0,2503.504
2503514.0,84.0,51.0,12.0,127.0,2503.514
2503524.0,81.0,50.0,11.0,122.0,2503.524
2503534.0,82.0,49.0,17.0,126.0,2503.534
2503544.0,81.0,50.0,15.0,122.0,2503.544
2503554.0,81.0,50.0,14.0,125.0,2503.554
2503564.0,81.0,50.0,12.0,128.0,2503.564
2503574.0,80.0,52.0,10.0,127.0,2503.574
2503584.0,78.0,52.0,10.0,120.0,2503.584
2503595.0,76.0,54.0,9.0,116.0,2503.595
2503605.0,75.0,53.0,10.0,118.0,2503.605
2503615.0,74.0,53.0,9.0,113.0,2503.615
2503625.0,76.0,53.0,10.0,118.0,2503.625
2503635.0,76.0,53.0,9.0,129.0,2503.635
2503645.0,76.0,53.0,8.0,120.0,2503.645
2503655.0,78.0,51.0,8.0,109.0,2503.655
2503665.0,77.0,49.0,7.0,102.0,2503.665
2503675.0,79.0,46.0,8.0,102.0,2503.675
2503685.0,78.0,45.0,11.0,99.0,2503.685
2503695.0,78.0,44.0,11.0,99.0,2503.695
2503705.0,79.0,42.0,10.0,93.0,2503.705
2503715.0,76.0,41.0,17.0,90.0,2503.715
2503725.0,77.0,41.0,17.0,89.0,2503.725
2503735.0,76.0,41.0,15.0,91.0,2503.735
2503745.0,76.0,41.0,14.0,94.0,2503.745
2503755.0,77.0,40.0,14.0,91.0,2503.755
2503766.0,78.0,40.0,13.0,98.0,2503.766
2503776.0,79.0,40.0,13.0,102.0,2503.776
2503786.0,76.0,40.0,16.0,113.0,2503.786
2503796.0,76.0,40.0,15.0,106.0,2503.796
2503806.0,75.0,40.0,15.0,101.0,2503.806
2503816.0,74.0,40.0,15.0,97.0,2503.816
2503826.0,74.0,40.0,14.0,101.0,2503.826
2503836.0,72.0,41.0,15.0,96.0,2503.836
2503846.0,71.0,39.0,14.0,95.0,2503.846
2503856.0,68.0,39.0,12.0,96.0,2503.856
2503866.0,69.0,39.0,13.0,92.0,2503.866
2503876.0,68.0,39.0,12.0,94.0,2503.876
2503886.0,67.0,39.0,13.0,88.0,2503.886
2503896.0,68.0,40.0,12.0,97.0,2503.896
2503906.0,67.0,40.0,12.0,104.0,2503.906
2503916.0,69.0,41.0,11.0,98.0,2503.916
2503926.0,68.0,41.0,9.0,97.0,2503.926
2503936.0,66.0,40.0,10.0,89.0,2503.936
2503946.0,66.0,39.0,9.0,90.0,2503.946
2503956.0,66.0,38.0,9.0,97.0,2503.956
2503966.0,66.0,38.0,13.0,117.0,2503.966
2503976.0,66.0,38.0,12.0,118.0,2503.976
2503986.0,65.0,37.0,12.0,111.0,2503.986
2503996.0,64.0,37.0,9.0,106.0,2503.996
2504006.0,62.0,36.0,8.0,107.0,2504.006
2504016.0,62.0,35.0,8.0,107.0,2504.016
2504026.0,64.0,36.0,8.0,110.0,2504.026
2504036.0,63.0,35.0,11.0,102.0,2504.036
2504046.0,63.0,35.0,9.0,98.0,2504.046
2504056.0,64.0,35.0,10.0,92.0,2504.056
2504066.0,63.0,35.0,12.0,109.0,2504.066
2504076.0,64.0,35.0,10.0,109.0,2504.076
2504086.0,64.0,33.0,9.0,111.0,2504.086
2504096.0,65.0,36.0,9.0,102.0,2504.096
2504107.0,64.0,34.0,9.0,94.0,2504.107
2504117.0,64.0,36.0,13.0,100.0,2504.117
2504127.0,65.0,36.0,12.0,99.0,2504.127
2504137.0,64.0,35.0,10.0,97.0,2504.137
2504147.0,64.0,35.0,11.0,102.0,2504.147
2504157.0,63.0,36.0,12.0,95.0,2504.157
2504167.0,62.0,36.0,10.0,96.0,2504.167
2504177.0,61.0,36.0,12.0,98.0,2504.177
2504187.0,59.0,37.0,11.0,101.0,2504.187
2504197.0,59.0,36.0,17.0,97.0,2504.197
2504207.0,58.0,36.0,16.0,93.0,2504.207
2504217.0,58.0,36.0,16.0,99.0,2504.217
2504227.0,58.0,36.0,14.0,108.0,2504.227
2504237.0,59.0,37.0,14.0,108.0,2504.237
2504247.0,59.0,34.0,12.0,108.0,2504.247
2504257.0,59.0,35.0,13.0,100.0,2504.257
2504267.0,57.0,34.0,15.0,91.0,2504.267
2504278.0,58.0,34.0,15.0,86.0,2504.278
2504288.0,58.0,36.0,14.0,89.0,2504.288
2504298.0,59.0,35.0,13.0,97.0,2504.298
2504308.0,60.0,36.0,16.0,96.0,2504.308
2504318.0,61.0,36.0,14.0,88.0,2504.318
2504328.0,62.0,37.0,14.0,91.0,2504.328
2504338.0,62.0,36.0,11.0,94.0,2504.338
2504348.0,62.0,35.0,11.0,97.0,2504.348
2504358.0,63.0,37.0,10.0,99.0,2504.358
2504368.0,64.0,36.0,11.0,94.0,2504.368
2504378.0,65.0,37.0,9.0,114.0,2504.378
2504388.0,66.0,37.0,9.0,120.0,2504.388
2504398.0,66.0,36.0,9.0,117.0,2504.398
2504408.0,67.0,36.0,9.0,112.0,2504.408
2504418.0,68.0,37.0,19.0,117.0,2504.418
2504428.0,68.0,38.0,16.0,125.0,2504.428
2504438.0,68.0,37.0,14.0,127.0,2504.438
2504448.0,68.0,36.0,13.0,130.0,2504.448
2504458.0,69.0,36.0,13.0,125.0,2504.458
2504468.0,68.0,36.0,13.0,122.0,2504.468
2504478.0,68.0,36.0,11.0,117.0,2504.478
2504488.0,68.0,37.0,13.0,123.0,2504.488
2504498.0,68.0,37.0,10.0,117.0,2504.498
2504508.0,68.0,37.0,14.0,122.0,2504.508
2504518.0,69.0,36.0,15.0,123.0,2504.518
2504528.0,69.0,38.0,15.0,124.0,2504.528
2504538.0,69.0,36.0,13.0,118.0,2504.538
2504548.0,69.0,35.0,11.0,134.0,2504.548
2504558.0,69.0,36.0,11.0,127.0,2504.558
2504568.0,68.0,35.0,11.0,142.0,2504.568
2504578.0,67.0,36.0,10.0,133.0,2504.578
2504588.0,65.0,36.0,11.0,120.0,2504.588
2504598.0,64.0,37.0,11.0,114.0,2504.598
2504608.0,64.0,36.0,11.0,121.0,2504.608
2504619.0,63.0,37.0,9.0,115.0,2504.619
2504629.0,63.0,37.0,10.0,111.0,2504.629
2504639.0,63.0,36.0,8.0,111.0,2504.639
2504649.0,62.0,37.0,9.0,106.0,2504.649
2504659.0,62.0,37.0,9.0,109.0,2504.659
2504669.0,61.0,39.0,9.0,108.0,2504.669
2504679.0,62.0,38.0,8.0,108.0,2504.679
2504689.0,61.0,38.0,7.0,108.0,2504.689
2504699.0,62.0,39.0,10.0,106.0,2504.699
2504709.0,61.0,40.0,8.0,109.0,2504.709
2504719.0,68.0,43.0,9.0,103.0,2504.719
2504729.0,76.0,44.0,10.0,96.0,2504.729
2504739.0,78.0,44.0,12.0,100.0,2504.739
2504749.0,83.0,44.0,11.0,97.0,2504.749
2504759.0,85.0,43.0,11.0,112.0,2504.759
2504769.0,83.0,41.0,10.0,106.0,2504.769
2504779.0,80.0,42.0,9.0,110.0,2504.779
2504790.0,77.0,41.0,9.0,110.0,2504.79
2504800.0,74.0,41.0,8.0,101.0,2504.8
2504810.0,73.0,41.0,7.0,98.0,2504.81
2504820.0,69.0,39.0,7.0,90.0,2504.82
2504830.0,67.0,38.0,7.0,87.0,2504.83
2504840.0,66.0,37.0,5.0,86.0,2504.84
2504850.0,66.0,38.0,6.0,86.0,2504.85
2504860.0,64.0,37.0,4.0,86.0,2504.86
2504870.0,71.0,37.0,5.0,79.0,2504.87
2504880.0,69.0,39.0,5.0,81.0,2504.88
2504890.0,67.0,40.0,4.0,72.0,2504.89
2504900.0,69.0,41.0,5.0,77.0,2504.9
2504910.0,72.0,42.0,5.0,77.0,2504.91
2504920.0,73.0,42.0,5.0,79.0,2504.92
2504930.0,76.0,42.0,4.0,75.0,2504.93
2504940.0,79.0,46.0,5.0,71.0,2504.94
2504950.0,77.0,48.0,3.0,75.0,2504.95
2504960.0,80.0,46.0,4.0,69.0,2504.96
2504970.0,98.0,48.0,4.0,68.0,2504.97
2504980.0,112.0,53.0,5.0,91.0,2504.98
2504990.0,114.0,51.0,5.0,93.0,2504.99
2505000.0,111.0,50.0,4.0,92.0,2505.0
2505010.0,151.0,64.0,7.0,93.0,2505.01
2505020.0,165.0,69.0,8.0,93.0,2505.02
2505030.0,161.0,64.0,7.0,91.0,2505.03
2505040.0,152.0,60.0,7.0,90.0,2505.04
2505050.0,145.0,58.0,5.0,99.0,2505.05
2505060.0,139.0,58.0,7.0,95.0,2505.06
2505070.0,132.0,60.0,6.0,91.0,2505.07
2505080.0,125.0,59.0,7.0,116.0,2505.08
2505090.0,124.0,59.0,7.0,117.0,2505.09
2505100.0,117.0,60.0,7.0,114.0,2505.1
2505110.0,113.0,62.0,7.0,111.0,2505.11
2505120.0,107.0,66.0,8.0,103.0,2505.12
2505131.0,110.0,67.0,9.0,109.0,2505.131
2505141.0,110.0,68.0,7.0,107.0,2505.141
2505151.0,107.0,73.0,7.0,104.0,2505.151
2505161.0,101.0,75.0,6.0,100.0,2505.161
2505171.0,98.0,77.0,6.0,98.0,2505.171
2505181.0,99.0,78.0,6.0,92.0,2505.181
2505191.0,99.0,79.0,5.0,99.0,2505.191
2505201.0,93.0,82.0,7.0,96.0,2505.201
2505211.0,89.0,84.0,6.0,95.0,2505.211
2505221.0,85.0,88.0,6.0,91.0,2505.221
2505231.0,89.0,91.0,7.0,123.0,2505.231
2505241.0,92.0,90.0,7.0,145.0,2505.241
2505251.0,86.0,92.0,7.0,139.0,2505.251
2505261.0,83.0,92.0,6.0,128.0,2505.261
2505271.0,84.0,95.0,7.0,126.0,2505.271
2505281.0,87.0,99.0,6.0,133.0,2505.281
2505291.0,93.0,98.0,6.0,132.0,2505.291
2505302.0,89.0,99.0,6.0,123.0,2505.302
2505312.0,85.0,102.0,5.0,115.0,2505.312
2505322.0,81.0,103.0,6.0,111.0,2505.322
2505332.0,79.0,105.0,5.0,116.0,2505.332
2505342.0,82.0,105.0,6.0,112.0,2505.342
2505352.0,79.0,108.0,10.0,101.0,2505.352
2505362.0,81.0,107.0,13.0,96.0,2505.362
2505372.0,79.0,108.0,12.0,96.0,2505.372
2505382.0,81.0,109.0,11.0,86.0,2505.382
2505392.0,79.0,108.0,10.0,79.0,2505.392
2505402.0,74.0,109.0,9.0,77.0,2505.402
2505412.0,77.0,114.0,9.0,71.0,2505.412
2505422.0,81.0,133.0,9.0,74.0,2505.422
2505432.0,78.0,149.0,10.0,71.0,2505.432
2505442.0,84.0,164.0,12.0,68.0,2505.442
2505452.0,87.0,186.0,16.0,73.0,2505.452
2505462.0,86.0,185.0,19.0,74.0,2505.462
2505472.0,86.0,178.0,20.0,69.0,2505.472
2505482.0,87.0,178.0,22.0,71.0,2505.482
2505492.0,90.0,165.0,20.0,70.0,2505.492
2505502.0,86.0,158.0,20.0,71.0,2505.502
2505512.0,82.0,147.0,19.0,81.0,2505.512
2505522.0,85.0,149.0,19.0,98.0,2505.522
2505532.0,79.0,138.0,19.0,103.0,2505.532
2505542.0,78.0,133.0,22.0,107.0,2505.542
2505552.0,73.0,133.0,24.0,106.0,2505.552
2505562.0,73.0,129.0,28.0,102.0,2505.562
2505572.0,73.0,128.0,24.0,103.0,2505.572
2505582.0,71.0,123.0,27.0,97.0,2505.582
2505592.0,72.0,123.0,28.0,122.0,2505.592
2505602.0,77.0,117.0,31.0,122.0,2505.602
2505612.0,73.0,114.0,36.0,118.0,2505.612
2505622.0,70.0,112.0,40.0,173.0,2505.622
2505632.0,69.0,110.0,48.0,211.0,2505.632
2505643.0,68.0,106.0,62.0,282.0,2505.643
2505653.0,68.0,103.0,63.0,317.0,2505.653
2505663.0,70.0,97.0,70.0,377.0,2505.663
2505673.0,74.0,92.0,77.0,375.0,2505.673
2505683.0,74.0,88.0,73.0,340.0,2505.683
2505693.0,76.0,87.0,74.0,344.0,2505.693
2505703.0,72.0,88.0,73.0,367.0,2505.703
2505713.0,72.0,86.0,75.0,404.0,2505.713
2505723.0,71.0,82.0,85.0,408.0,2505.723
2505733.0,69.0,81.0,89.0,383.0,2505.733
2505743.0,69.0,82.0,91.0,344.0,2505.743
2505753.0,67.0,82.0,90.0,321.0,2505.753
2505763.0,66.0,84.0,89.0,316.0,2505.763
2505773.0,69.0,84.0,91.0,328.0,2505.773
2505783.0,67.0,82.0,92.0,310.0,2505.783
2505793.0,66.0,81.0,87.0,275.0,2505.793
2505803.0,66.0,81.0,84.0,249.0,2505.803
2505814.0,70.0,94.0,83.0,221.0,2505.814
2505824.0,75.0,116.0,74.0,197.0,2505.824
2505834.0,85.0,171.0,72.0,190.0,2505.834
2505844.0,92.0,191.0,67.0,176.0,2505.844
2505854.0,95.0,263.0,76.0,170.0,2505.854
2505864.0,94.0,256.0,85.0,159.0,2505.864
2505874.0,103.0,257.0,97.0,149.0,2505.874
2505884.0,96.0,236.0,101.0,136.0,2505.884
2505894.0,92.0,210.0,100.0,128.0,2505.894
2505904.0,87.0,195.0,95.0,124.0,2505.904
2505914.0,82.0,178.0,91.0,126.0,2505.914
2505924.0,77.0,165.0,90.0,135.0,2505.924
2505934.0,73.0,153.0,88.0,186.0,2505.934
2505944.0,70.0,147.0,93.0,207.0,2505.944
2505954.0,66.0,143.0,93.0,220.0,2505.954
2505964.0,68.0,133.0,96.0,220.0,2505.964
2505974.0,68.0,130.0,99.0,227.0,2505.974
2505984.0,73.0,119.0,101.0,247.0,2505.984
2505994.0,72.0,107.0,102.0,235.0,2505.994
2506004.0,71.0,98.0,96.0,221.0,2506.004
2506014.0,69.0,92.0,87.0,248.0,2506.014
2506024.0,67.0,88.0,83.0,291.0,2506.024
2506034.0,66.0,81.0,77.0,308.0,2506.034
2506044.0,64.0,78.0,67.0,299.0,2506.044
2506054.0,64.0,73.0,60.0,300.0,2506.054
2506064.0,65.0,67.0,54.0,302.0,2506.064
2506074.0,63.0,64.0,48.0,288.0,2506.074
2506084.0,61.0,60.0,44.0,276.0,2506.084
2506094.0,61.0,58.0,51.0,260.0,2506.094
2506104.0,63.0,54.0,45.0,234.0,2506.104
2506114.0,64.0,54.0,45.0,231.0,2506.114
2506124.0,62.0,62.0,69.0,218.0,2506.124
2506134.0,65.0,64.0,90.0,221.0,2506.134
2506144.0,62.0,63.0,98.0,220.0,2506.144
2506155.0,62.0,59.0,105.0,260.0,2506.155
2506165.0,65.0,59.0,108.0,254.0,2506.165
2506175.0,67.0,56.0,113.0,245.0,2506.175
2506185.0,66.0,55.0,106.0,225.0,2506.185
2506195.0,66.0,56.0,107.0,219.0,2506.195
2506205.0,67.0,57.0,107.0,238.0,2506.205
2506215.0,68.0,59.0,110.0,234.0,2506.215
2506225.0,69.0,65.0,100.0,233.0,2506.225
2506235.0,70.0,70.0,91.0,218.0,2506.235
2506245.0,70.0,74.0,89.0,212.0,2506.245
2506255.0,71.0,80.0,83.0,213.0,2506.255
2506265.0,71.0,85.0,83.0,200.0,2506.265
2506275.0,70.0,88.0,75.0,187.0,2506.275
2506285.0,72.0,91.0,73.0,177.0,2506.285
2506295.0,71.0,93.0,80.0,171.0,2506.295
2506305.0,76.0,91.0,84.0,164.0,2506.305
2506315.0,82.0,94.0,78.0,167.0,2506.315
2506326.0,86.0,98.0,70.0,176.0,2506.326
2506336.0,85.0,101.0,61.0,167.0,2506.336
2506346.0,85.0,103.0,60.0,167.0,2506.346
2506356.0,82.0,103.0,52.0,169.0,2506.356
2506366.0,80.0,103.0,50.0,164.0,2506.366
2506376.0,78.0,104.0,56.0,174.0,2506.376
2506386.0,78.0,105.0,48.0,187.0,2506.386
2506396.0,75.0,103.0,46.0,190.0,2506.396
2506406.0,76.0,106.0,43.0,178.0,2506.406
2506416.0,74.0,104.0,49.0,169.0,2506.416
2506426.0,74.0,104.0,45.0,155.0,2506.426
2506436.0,72.0,105.0,41.0,148.0,2506.436
2506446.0,70.0,105.0,35.0,141.0,2506.446
2506456.0,67.0,105.0,32.0,147.0,2506.456
2506466.0,65.0,101.0,30.0,163.0,2506.466
2506476.0,67.0,104.0,27.0,179.0,2506.476
2506486.0,66.0,106.0,29.0,172.0,2506.486
2506496.0,66.0,105.0,29.0,170.0,2506.496
2506506.0,64.0,106.0,26.0,162.0,2506.506
2506516.0,63.0,104.0,27.0,157.0,2506.516
2506526.0,63.0,105.0,40.0,153.0,2506.526
2506536.0,62.0,105.0,37.0,151.0,2506.536
2506546.0,61.0,104.0,35.0,141.0,2506.546
2506556.0,60.0,103.0,41.0,131.0,2506.556
2506566.0,62.0,102.0,37.0,123.0,2506.566
2506576.0,60.0,101.0,35.0,125.0,2506.576
2506586.0,61.0,100.0,32.0,123.0,2506.586
2506596.0,60.0,99.0,28.0,123.0,2506.596
2506606.0,58.0,97.0,27.0,117.0,2506.606
2506616.0,57.0,94.0,30.0,119.0,2506.616
2506626.0,57.0,94.0,25.0,123.0,2506.626
2506636.0,56.0,93.0,26.0,127.0,2506.636
2506646.0,54.0,92.0,22.0,125.0,2506.646
2506656.0,53.0,89.0,33.0,128.0,2506.656
2506667.0,52.0,91.0,33.0,137.0,2506.667
2506677.0,51.0,91.0,29.0,145.0,2506.677
2506687.0,54.0,90.0,26.0,144.0,2506.687
2506697.0,55.0,88.0,25.0,136.0,2506.697
2506707.0,56.0,89.0,24.0,131.0,2506.707
2506717.0,55.0,87.0,20.0,155.0,2506.717
2506727.0,56.0,88.0,20.0,153.0,2506.727
2506737.0,55.0,84.0,19.0,152.0,2506.737
2506747.0,55.0,82.0,24.0,145.0,2506.747
2506757.0,57.0,82.0,23.0,138.0,2506.757
2506767.0,55.0,80.0,21.0,136.0,2506.767
2506777.0,57.0,79.0,20.0,134.0,2506.777
2506787.0,54.0,78.0,20.0,133.0,2506.787
2506797.0,55.0,78.0,19.0,133.0,2506.797
2506807.0,55.0,79.0,17.0,143.0,2506.807
2506817.0,55.0,78.0,15.0,129.0,2506.817
2506827.0,54.0,78.0,17.0,142.0,2506.827
2506838.0,54.0,79.0,17.0,131.0,2506.838
2506848.0,56.0,78.0,18.0,136.0,2506.848
2506858.0,56.0,79.0,18.0,127.0,2506.858
2506868.0,58.0,79.0,19.0,170.0,2506.868
2506878.0,59.0,79.0,18.0,166.0,2506.878
2506888.0,59.0,82.0,15.0,156.0,2506.888
2506898.0,60.0,80.0,14.0,159.0,2506.898
2506908.0,61.0,79.0,12.0,158.0,2506.908
2506918.0,62.0,77.0,12.0,155.0,2506.918
2506928.0,64.0,77.0,12.0,148.0,2506.928
2506938.0,64.0,77.0,10.0,143.0,2506.938
2506948.0,63.0,75.0,10.0,137.0,2506.948
2506958.0,65.0,77.0,13.0,132.0,2506.958
2506968.0,68.0,77.0,12.0,146.0,2506.968
2506978.0,69.0,79.0,11.0,137.0,2506.978
2506988.0,69.0,79.0,11.0,131.0,2506.988
2506998.0,69.0,78.0,11.0,135.0,2506.998
2507008.0,70.0,80.0,10.0,128.0,2507.008
2507018.0,71.0,79.0,10.0,127.0,2507.018
2507028.0,72.0,80.0,10.0,127.0,2507.028
2507038.0,72.0,78.0,10.0,120.0,2507.038
2507048.0,72.0,77.0,9.0,126.0,2507.048
2507058.0,72.0,77.0,11.0,121.0,2507.058
2507068.0,72.0,77.0,10.0,121.0,2507.068
2507078.0,73.0,77.0,9.0,121.0,2507.078
2507088.0,72.0,75.0,10.0,121.0,2507.088
2507098.0,71.0,75.0,9.0,127.0,2507.098
2507108.0,71.0,72.0,8.0,124.0,2507.108
2507118.0,71.0,71.0,11.0,116.0,2507.118
2507128.0,71.0,71.0,12.0,119.0,2507.128
2507138.0,73.0,70.0,15.0,112.0,2507.138
2507148.0,73.0,70.0,12.0,118.0,2507.148
2507158.0,75.0,69.0,15.0,119.0,2507.158
2507168.0,76.0,69.0,15.0,125.0,2507.168
2507179.0,77.0,68.0,13.0,119.0,2507.179
2507189.0,77.0,69.0,13.0,122.0,2507.189
2507199.0,79.0,69.0,15.0,120.0,2507.199
2507209.0,81.0,70.0,15.0,120.0,2507.209
2507219.0,80.0,67.0,14.0,125.0,2507.219
2507229.0,80.0,67.0,14.0,136.0,2507.229
2507239.0,82.0,68.0,13.0,127.0,2507.239
2507249.0,81.0,68.0,12.0,122.0,2507.249
2507259.0,81.0,67.0,12.0,121.0,2507.259
2507269.0,81.0,67.0,12.0,127.0,2507.269
2507279.0,82.0,67.0,12.0,130.0,2507.279
2507289.0,82.0,66.0,12.0,120.0,2507.289
2507299.0,82.0,65.0,21.0,128.0,2507.299
2507309.0,83.0,65.0,19.0,119.0,2507.309
2507319.0,83.0,64.0,17.0,120.0,2507.319
2507329.0,85.0,62.0,16.0,112.0,2507.329
2507339.0,85.0,61.0,15.0,117.0,2507.339
2507350.0,85.0,59.0,15.0,114.0,2507.35
2507360.0,85.0,59.0,13.0,105.0,2507.36
2507370.0,84.0,58.0,14.0,101.0,2507.37
2507380.0,83.0,57.0,23.0,143.0,2507.38
2507390.0,82.0,56.0,19.0,133.0,2507.39
2507400.0,83.0,56.0,18.0,132.0,2507.4
2507410.0,81.0,56.0,15.0,125.0,2507.41
2507420.0,79.0,55.0,18.0,133.0,2507.42
2507430.0,80.0,55.0,15.0,131.0,2507.43
2507440.0,78.0,55.0,14.0,149.0,2507.44
2507450.0,77.0,53.0,13.0,135.0,2507.45
2507460.0,76.0,54.0,11.0,130.0,2507.46
2507470.0,76.0,52.0,12.0,146.0,2507.47
2507480.0,76.0,53.0,11.0,145.0,2507.48
2507490.0,76.0,51.0,11.0,133.0,2507.49
2507500.0,76.0,51.0,11.0,133.0,2507.5
2507510.0,76.0,52.0,10.0,125.0,2507.51
2507520.0,73.0,49.0,9.0,121.0,2507.52
2507530.0,74.0,52.0,9.0,129.0,2507.53
2507540.0,74.0,52.0,8.0,118.0,2507.54
2507550.0,72.0,50.0,8.0,112.0,2507.55
2507560.0,72.0,51.0,7.0,107.0,2507.56
2507570.0,71.0,50.0,9.0,111.0,2507.57
2507580.0,70.0,50.0,6.0,118.0,2507.58
2507590.0,71.0,51.0,7.0,118.0,2507.59
2507600.0,70.0,51.0,7.0,111.0,2507.6
2507610.0,70.0,50.0,9.0,114.0,2507.61
2507620.0,69.0,50.0,9.0,120.0,2507.62
2507630.0,69.0,49.0,12.0,118.0,2507.63
2507640.0,71.0,50.0,11.0,113.0,2507.64
2507650.0,71.0,50.0,10.0,110.0,2507.65
2507660.0,72.0,51.0,8.0,109.0,2507.66
2507670.0,72.0,53.0,8.0,99.0,2507.67
2507680.0,71.0,52.0,7.0,100.0,2507.68
2507691.0,71.0,52.0,6.0,105.0,2507.691
2507701.0,69.0,52.0,8.0,97.0,2507.701
2507711.0,72.0,53.0,8.0,88.0,2507.711
2507721.0,72.0,54.0,6.0,84.0,2507.721
2507731.0,71.0,53.0,6.0,81.0,2507.731
2507741.0,71.0,53.0,6.0,78.0,2507.741
2507751.0,72.0,52.0,13.0,87.0,2507.751
2507761.0,72.0,52.0,13.0,101.0,2507.761
2507771.0,73.0,53.0,11.0,110.0,2507.771
2507781.0,75.0,51.0,13.0,133.0,2507.781
2507791.0,74.0,54.0,10.0,144.0,2507.791
2507801.0,74.0,56.0,11.0,137.0,2507.801
2507811.0,72.0,55.0,9.0,128.0,2507.811
2507821.0,73.0,56.0,9.0,124.0,2507.821
2507831.0,75.0,55.0,9.0,126.0,2507.831
2507841.0,73.0,54.0,15.0,121.0,2507.841
2507851.0,76.0,53.0,20.0,147.0,2507.851
2507862.0,76.0,53.0,16.0,133.0,2507.862
2507872.0,76.0,53.0,16.0,121.0,2507.872
2507882.0,75.0,52.0,14.0,111.0,2507.882
2507892.0,74.0,53.0,12.0,119.0,2507.892
2507902.0,73.0,50.0,11.0,114.0,2507.902
2507912.0,72.0,50.0,11.0,118.0,2507.912
2507922.0,73.0,49.0,15.0,111.0,2507.922
2507932.0,74.0,51.0,15.0,127.0,2507.932
2507942.0,74.0,49.0,13.0,136.0,2507.942
2507952.0,73.0,49.0,12.0,141.0,2507.952
2507962.0,73.0,50.0,11.0,136.0,2507.962
2507972.0,74.0,50.0,11.0,131.0,2507.972
2507982.0,74.0,50.0,9.0,135.0,2507.982
2507992.0,74.0,52.0,10.0,131.0,2507.992
2508002.0,73.0,53.0,8.0,125.0,2508.002
2508012.0,71.0,53.0,7.0,129.0,2508.012
2508022.0,73.0,55.0,8.0,120.0,2508.022
2508032.0,72.0,55.0,9.0,117.0,2508.032
2508042.0,71.0,53.0,9.0,118.0,2508.042
2508052.0,71.0,52.0,8.0,122.0,2508.052
2508062.0,71.0,51.0,8.0,123.0,2508.062
2508072.0,71.0,49.0,11.0,120.0,2508.072
2508082.0,72.0,51.0,11.0,122.0,2508.082
2508092.0,73.0,51.0,11.0,115.0,2508.092
2508102.0,74.0,51.0,11.0,117.0,2508.102
2508112.0,72.0,50.0,11.0,128.0,2508.112
2508122.0,73.0,50.0,12.0,134.0,2508.122
2508132.0,73.0,50.0,11.0,129.0,2508.132
2508142.0,75.0,51.0,10.0,122.0,2508.142
2508152.0,74.0,50.0,10.0,134.0,2508.152
2508162.0,73.0,50.0,10.0,140.0,2508.162
2508172.0,74.0,51.0,9.0,135.0,2508.172
2508182.0,73.0,48.0,12.0,124.0,2508.182
2508192.0,74.0,48.0,12.0,131.0,2508.192
2508203.0,73.0,48.0,12.0,129.0,2508.203
2508213.0,75.0,49.0,11.0,128.0,2508.213
2508223.0,76.0,49.0,9.0,124.0,2508.223
2508233.0,75.0,49.0,9.0,119.0,2508.233
2508243.0,74.0,51.0,9.0,111.0,2508.243
2508253.0,75.0,50.0,8.0,104.0,2508.253
2508263.0,74.0,48.0,9.0,114.0,2508.263
2508273.0,73.0,48.0,15.0,114.0,2508.273
2508283.0,74.0,48.0,15.0,112.0,2508.283
2508293.0,74.0,49.0,12.0,109.0,2508.293
2508303.0,73.0,48.0,11.0,105.0,2508.303
2508313.0,74.0,50.0,11.0,113.0,2508.313
2508323.0,71.0,48.0,16.0,118.0,2508.323
2508333.0,73.0,50.0,15.0,118.0,2508.333
2508343.0,72.0,49.0,13.0,107.0,2508.343
2508353.0,74.0,49.0,19.0,97.0,2508.353
2508363.0,72.0,47.0,16.0,92.0,2508.363
2508374.0,70.0,46.0,16.0,84.0,2508.374
2508384.0,70.0,45.0,18.0,77.0,2508.384
2508394.0,69.0,44.0,15.0,74.0,2508.394
2508404.0,68.0,43.0,14.0,70.0,2508.404
2508414.0,69.0,43.0,13.0,85.0,2508.414
2508424.0,70.0,43.0,18.0,91.0,2508.424
2508434.0,69.0,42.0,18.0,101.0,2508.434
2508444.0,71.0,43.0,18.0,102.0,2508.444
2508454.0,72.0,45.0,17.0,111.0,2508.454
2508464.0,71.0,45.0,15.0,110.0,2508.464
2508474.0,73.0,44.0,15.0,106.0,2508.474
2508484.0,71.0,44.0,13.0,99.0,2508.484
2508494.0,71.0,44.0,16.0,89.0,2508.494
2508504.0,69.0,43.0,16.0,98.0,2508.504
2508514.0,69.0,44.0,19.0,101.0,2508.514
2508524.0,70.0,44.0,17.0,102.0,2508.524
2508534.0,70.0,46.0,15.0,100.0,2508.534
2508544.0,70.0,44.0,15.0,96.0,2508.544
2508554.0,69.0,44.0,17.0,95.0,2508.554
2508564.0,70.0,43.0,16.0,94.0,2508.564
2508574.0,70.0,42.0,14.0,92.0,2508.574
2508584.0,68.0,42.0,14.0,86.0,2508.584
2508594.0,70.0,41.0,13.0,81.0,2508.594
2508604.0,70.0,42.0,12.0,85.0,2508.604
2508614.0,71.0,42.0,11.0,92.0,2508.614
2508624.0,71.0,43.0,10.0,90.0,2508.624
2508634.0,71.0,42.0,10.0,93.0,2508.634
2508644.0,72.0,42.0,9.0,91.0,2508.644
2508654.0,71.0,42.0,12.0,85.0,2508.654
2508664.0,73.0,41.0,15.0,91.0,2508.664
2508674.0,71.0,41.0,12.0,98.0,2508.674
2508684.0,71.0,42.0,11.0,112.0,2508.684
2508694.0,71.0,40.0,10.0,106.0,2508.694
2508704.0,71.0,40.0,14.0,103.0,2508.704
2508715.0,72.0,39.0,13.0,102.0,2508.715
2508725.0,72.0,39.0,12.0,106.0,2508.725
2508735.0,72.0,37.0,12.0,108.0,2508.735
2508745.0,73.0,39.0,11.0,103.0,2508.745
2508755.0,74.0,39.0,10.0,102.0,2508.755
2508765.0,74.0,39.0,9.0,110.0,2508.765
2508775.0,74.0,39.0,9.0,122.0,2508.775
2508785.0,76.0,39.0,9.0,124.0,2508.785
2508795.0,75.0,38.0,8.0,126.0,2508.795
2508805.0,73.0,38.0,9.0,120.0,2508.805
2508815.0,73.0,39.0,8.0,131.0,2508.815
2508825.0,73.0,38.0,8.0,127.0,2508.825
2508835.0,72.0,38.0,9.0,126.0,2508.835
2508845.0,72.0,36.0,9.0,129.0,2508.845
2508855.0,72.0,36.0,11.0,129.0,2508.855
2508865.0,70.0,37.0,8.0,122.0,2508.865
2508875.0,71.0,36.0,9.0,116.0,2508.875
2508886.0,72.0,37.0,8.0,115.0,2508.886
2508896.0,71.0,37.0,9.0,111.0,2508.896
2508906.0,73.0,38.0,12.0,103.0,2508.906
2508916.0,72.0,36.0,11.0,96.0,2508.916
2508926.0,72.0,36.0,12.0,88.0,2508.926
2508936.0,72.0,36.0,11.0,97.0,2508.936
2508946.0,71.0,36.0,12.0,100.0,2508.946
2508956.0,72.0,35.0,11.0,97.0,2508.956
2508966.0,71.0,36.0,10.0,95.0,2508.966
2508976.0,72.0,35.0,10.0,93.0,2508.976
2508986.0,73.0,35.0,9.0,96.0,2508.986
2508996.0,74.0,35.0,11.0,104.0,2508.996
2509006.0,72.0,35.0,12.0,104.0,2509.006
2509016.0,74.0,36.0,14.0,100.0,2509.016
2509026.0,72.0,35.0,11.0,97.0,2509.026
2509036.0,71.0,36.0,12.0,91.0,2509.036
2509046.0,72.0,36.0,12.0,108.0,2509.046
2509056.0,72.0,37.0,11.0,117.0,2509.056
2509066.0,72.0,37.0,10.0,115.0,2509.066
2509076.0,73.0,37.0,9.0,105.0,2509.076
2509086.0,71.0,36.0,8.0,102.0,2509.086
2509096.0,72.0,36.0,9.0,107.0,2509.096
2509106.0,72.0,36.0,8.0,101.0,2509.106
2509116.0,70.0,34.0,8.0,96.0,2509.116
2509126.0,68.0,35.0,7.0,89.0,2509.126
2509136.0,66.0,35.0,8.0,111.0,2509.136
2509146.0,64.0,34.0,7.0,104.0,2509.146
2509156.0,63.0,35.0,6.0,123.0,2509.156
2509166.0,61.0,33.0,6.0,125.0,2509.166
2509176.0,60.0,36.0,8.0,116.0,2509.176
2509186.0,59.0,34.0,12.0,114.0,2509.186
2509196.0,57.0,34.0,9.0,110.0,2509.196
2509206.0,57.0,35.0,13.0,115.0,2509.206
2509216.0,57.0,35.0,12.0,126.0,2509.216
2509227.0,56.0,36.0,14.0,123.0,2509.227
2509237.0,56.0,35.0,13.0,136.0,2509.237
2509247.0,56.0,36.0,11.0,140.0,2509.247
2509257.0,56.0,34.0,13.0,150.0,2509.257
2509267.0,56.0,34.0,12.0,152.0,2509.267
2509277.0,57.0,34.0,13.0,159.0,2509.277
2509287.0,58.0,34.0,11.0,147.0,2509.287
2509297.0,58.0,34.0,10.0,144.0,2509.297
2509307.0,59.0,34.0,10.0,145.0,2509.307
2509317.0,60.0,34.0,10.0,138.0,2509.317
2509327.0,62.0,34.0,10.0,126.0,2509.327
2509337.0,62.0,34.0,10.0,122.0,2509.337
2509347.0,61.0,35.0,9.0,129.0,2509.347
2509357.0,62.0,35.0,9.0,125.0,2509.357
2509367.0,62.0,35.0,7.0,123.0,2509.367
2509377.0,60.0,35.0,15.0,120.0,2509.377
2509387.0,62.0,37.0,16.0,117.0,2509.387
2509398.0,61.0,36.0,17.0,114.0,2509.398
2509408.0,61.0,36.0,15.0,123.0,2509.408
2509418.0,60.0,36.0,14.0,134.0,2509.418
2509428.0,60.0,37.0,13.0,129.0,2509.428
2509438.0,60.0,37.0,12.0,126.0,2509.438
2509448.0,60.0,37.0,13.0,115.0,2509.448
2509458.0,61.0,39.0,11.0,117.0,2509.458
2509468.0,62.0,38.0,11.0,116.0,2509.468
2509478.0,62.0,39.0,10.0,112.0,2509.478
2509488.0,63.0,39.0,9.0,116.0,2509.488
2509498.0,65.0,40.0,9.0,128.0,2509.498
2509508.0,66.0,39.0,8.0,134.0,2509.508
2509518.0,67.0,39.0,8.0,137.0,2509.518
2509528.0,66.0,40.0,8.0,135.0,2509.528
2509538.0,65.0,40.0,11.0,130.0,2509.538
2509548.0,65.0,38.0,11.0,131.0,2509.548
2509558.0,65.0,38.0,9.0,129.0,2509.558
2509568.0,65.0,38.0,9.0,119.0,2509.568
2509578.0,64.0,38.0,8.0,138.0,2509.578
2509588.0,62.0,37.0,7.0,133.0,2509.588
2509598.0,62.0,36.0,7.0,126.0,2509.598
2509608.0,61.0,36.0,6.0,123.0,2509.608
2509618.0,61.0,36.0,7.0,122.0,2509.618
2509628.0,60.0,36.0,5.0,117.0,2509.628
2509638.0,60.0,36.0,7.0,126.0,2509.638
2509648.0,59.0,35.0,6.0,118.0,2509.648
2509658.0,60.0,35.0,6.0,108.0,2509.658
2509668.0,59.0,34.0,6.0,109.0,2509.668
2509678.0,58.0,35.0,6.0,109.0,2509.678
2509688.0,56.0,34.0,6.0,112.0,2509.688
2509698.0,55.0,35.0,6.0,117.0,2509.698
2509708.0,57.0,35.0,6.0,121.0,2509.708
2509718.0,57.0,35.0,6.0,115.0,2509.718
2509728.0,57.0,37.0,6.0,108.0,2509.728
2509739.0,57.0,36.0,5.0,97.0,2509.739
2509749.0,57.0,36.0,5.0,117.0,2509.749
2509759.0,57.0,34.0,4.0,119.0,2509.759
2509769.0,58.0,34.0,5.0,111.0,2509.769
2509779.0,57.0,34.0,5.0,107.0,2509.779
2509789.0,60.0,36.0,4.0,102.0,2509.789
2509799.0,58.0,36.0,6.0,99.0,2509.799
2509809.0,61.0,36.0,5.0,97.0,2509.809
2509819.0,61.0,37.0,6.0,99.0,2509.819
2509829.0,61.0,36.0,6.0,101.0,2509.829
2509839.0,63.0,36.0,8.0,95.0,2509.839
2509849.0,61.0,35.0,7.0,90.0,2509.849
2509859.0,62.0,35.0,8.0,86.0,2509.859
2509869.0,60.0,36.0,7.0,96.0,2509.869
2509879.0,59.0,34.0,10.0,104.0,2509.879
2509889.0,60.0,36.0,9.0,109.0,2509.889
2509899.0,59.0,36.0,10.0,106.0,2509.899
2509910.0,58.0,35.0,9.0,102.0,2509.91
2509920.0,57.0,36.0,8.0,97.0,2509.92
2509930.0,60.0,35.0,7.0,102.0,2509.93
2509940.0,58.0,36.0,6.0,100.0,2509.94
2509950.0,57.0,36.0,7.0,93.0,2509.95
2509960.0,56.0,36.0,6.0,90.0,2509.96
2509970.0,56.0,36.0,8.0,108.0,2509.97
2509980.0,55.0,36.0,9.0,114.0,2509.98
2509990.0,55.0,38.0,9.0,109.0,2509.99
2510000.0,56.0,39.0,9.0,104.0,2510.0
2510010.0,56.0,40.0,7.0,101.0,2510.01
2510020.0,55.0,40.0,7.0,108.0,2510.02
2510030.0,56.0,40.0,7.0,106.0,2510.03
2510040.0,57.0,39.0,6.0,102.0,2510.04
2510050.0,57.0,38.0,6.0,108.0,2510.05
2510060.0,58.0,38.0,5.0,104.0,2510.06
2510070.0,61.0,37.0,6.0,111.0,2510.07
2510080.0,60.0,37.0,5.0,109.0,2510.08
2510090.0,62.0,37.0,5.0,107.0,2510.09
2510100.0,62.0,37.0,4.0,105.0,2510.1
2510110.0,64.0,38.0,6.0,106.0,2510.11
2510120.0,66.0,36.0,6.0,100.0,2510.12
2510130.0,67.0,36.0,5.0,106.0,2510.13
2510140.0,67.0,37.0,11.0,103.0,2510.14
2510150.0,67.0,36.0,8.0,97.0,2510.15
2510160.0,66.0,35.0,8.0,94.0,2510.16
2510170.0,67.0,35.0,7.0,103.0,2510.17
2510180.0,65.0,37.0,7.0,107.0,2510.18
2510190.0,65.0,36.0,9.0,111.0,2510.19
2510200.0,63.0,35.0,8.0,115.0,2510.2
2510210.0,65.0,35.0,8.0,113.0,2510.21
2510220.0,66.0,35.0,8.0,117.0,2510.22
2510230.0,66.0,34.0,7.0,132.0,2510.23
2510240.0,68.0,34.0,7.0,119.0,2510.24
2510251.0,68.0,36.0,8.0,119.0,2510.251
2510261.0,68.0,34.0,7.0,109.0,2510.261
2510271.0,68.0,35.0,7.0,111.0,2510.271
2510281.0,69.0,35.0,7.0,113.0,2510.281
2510291.0,68.0,35.0,6.0,111.0,2510.291
2510301.0,68.0,36.0,6.0,104.0,2510.301
2510311.0,68.0,35.0,8.0,105.0,2510.311
2510321.0,67.0,36.0,16.0,100.0,2510.321
2510331.0,69.0,36.0,18.0,102.0,2510.331
2510341.0,70.0,36.0,17.0,108.0,2510.341
2510351.0,70.0,36.0,15.0,109.0,2510.351
2510361.0,67.0,35.0,12.0,112.0,2510.361
2510371.0,66.0,37.0,12.0,116.0,2510.371
2510381.0,66.0,37.0,12.0,110.0,2510.381
2510391.0,67.0,39.0,11.0,115.0,2510.391
2510401.0,66.0,38.0,12.0,110.0,2510.401
2510411.0,67.0,38.0,11.0,105.0,2510.411
2510422.0,69.0,39.0,10.0,104.0,2510.422
2510432.0,69.0,39.0,9.0,106.0,2510.432
2510442.0,69.0,39.0,10.0,108.0,2510.442
2510452.0,70.0,40.0,9.0,100.0,2510.452
2510462.0,70.0,41.0,10.0,96.0,2510.462
2510472.0,71.0,40.0,13.0,92.0,2510.472
2510482.0,71.0,39.0,12.0,109.0,2510.482
2510492.0,70.0,38.0,13.0,113.0,2510.492
2510502.0,71.0,38.0,13.0,115.0,2510.502
2510512.0,70.0,39.0,12.0,108.0,2510.512
2510522.0,70.0,38.0,11.0,110.0,2510.522
2510532.0,68.0,38.0,11.0,104.0,2510.532
2510542.0,67.0,37.0,11.0,110.0,2510.542
2510552.0,68.0,36.0,11.0,122.0,2510.552
2510562.0,69.0,37.0,13.0,114.0,2510.562
2510572.0,71.0,37.0,15.0,115.0,2510.572
2510582.0,69.0,37.0,12.0,108.0,2510.582
2510592.0,68.0,37.0,12.0,101.0,2510.592
2510602.0,67.0,38.0,13.0,109.0,2510.602
2510612.0,66.0,37.0,13.0,102.0,2510.612
2510622.0,65.0,38.0,12.0,100.0,2510.622
2510632.0,64.0,38.0,10.0,96.0,2510.632
2510642.0,63.0,37.0,10.0,99.0,2510.642
2510652.0,61.0,38.0,9.0,95.0,2510.652
2510662.0,62.0,39.0,8.0,107.0,2510.662
2510672.0,62.0,40.0,8.0,106.0,2510.672
2510682.0,61.0,38.0,14.0,100.0,2510.682
2510692.0,61.0,39.0,13.0,93.0,2510.692
2510702.0,61.0,39.0,11.0,89.0,2510.702
2510712.0,61.0,37.0,13.0,85.0,2510.712
2510722.0,58.0,36.0,10.0,82.0,2510.722
2510732.0,58.0,37.0,10.0,91.0,2510.732
2510742.0,59.0,37.0,10.0,95.0,2510.742
2510752.0,59.0,37.0,10.0,98.0,2510.752
2510763.0,62.0,36.0,9.0,91.0,2510.763
2510773.0,61.0,37.0,8.0,92.0,2510.773
2510783.0,61.0,37.0,9.0,104.0,2510.783
2510793.0,62.0,37.0,7.0,121.0,2510.793
2510803.0,62.0,37.0,8.0,116.0,2510.803
2510813.0,61.0,37.0,8.0,108.0,2510.813
2510823.0,62.0,39.0,9.0,97.0,2510.823
2510833.0,62.0,38.0,10.0,99.0,2510.833
2510843.0,64.0,39.0,9.0,92.0,2510.843
2510853.0,64.0,37.0,9.0,109.0,2510.853
2510863.0,65.0,37.0,9.0,105.0,2510.863
2510873.0,66.0,38.0,7.0,105.0,2510.873
2510883.0,67.0,37.0,7.0,106.0,2510.883
2510893.0,69.0,38.0,6.0,104.0,2510.893
2510903.0,68.0,38.0,11.0,110.0,2510.903
2510913.0,68.0,38.0,17.0,111.0,2510.913
2510923.0,68.0,38.0,18.0,106.0,2510.923
2510934.0,69.0,37.0,16.0,111.0,2510.934
2510944.0,68.0,37.0,14.0,110.0,2510.944
2510954.0,68.0,37.0,14.0,112.0,2510.954
2510964.0,69.0,37.0,13.0,111.0,2510.964
2510974.0,71.0,37.0,12.0,102.0,2510.974
2510984.0,69.0,36.0,11.0,98.0,2510.984
2510994.0,70.0,36.0,11.0,110.0,2510.994
2511004.0,71.0,38.0,11.0,104.0,2511.004
2511014.0,70.0,37.0,10.0,99.0,2511.014
2511024.0,71.0,39.0,10.0,100.0,2511.024
2511034.0,69.0,39.0,9.0,101.0,2511.034
2511044.0,68.0,38.0,9.0,97.0,2511.044
2511054.0,68.0,36.0,10.0,91.0,2511.054
2511064.0,67.0,36.0,12.0,92.0,2511.064
2511074.0,69.0,36.0,11.0,91.0,2511.074
2511084.0,68.0,35.0,10.0,101.0,2511.084
2511094.0,67.0,35.0,9.0,103.0,2511.094
2511104.0,66.0,35.0,8.0,105.0,2511.104
2511114.0,65.0,35.0,7.0,107.0,2511.114
2511124.0,64.0,36.0,8.0,102.0,2511.124
2511134.0,63.0,36.0,6.0,109.0,2511.134
2511144.0,61.0,37.0,13.0,107.0,2511.144
2511154.0,60.0,36.0,12.0,102.0,2511.154
2511164.0,59.0,35.0,11.0,103.0,2511.164
2511174.0,59.0,36.0,10.0,99.0,2511.174
2511184.0,57.0,36.0,9.0,90.0,2511.184
2511194.0,58.0,36.0,9.0,102.0,2511.194
2511204.0,58.0,36.0,10.0,118.0,2511.204
2511214.0,57.0,35.0,10.0,117.0,2511.214
2511224.0,58.0,36.0,8.0,115.0,2511.224
2511234.0,56.0,35.0,7.0,113.0,2511.234
2511244.0,57.0,36.0,7.0,126.0,2511.244
2511254.0,57.0,36.0,8.0,119.0,2511.254
2511264.0,56.0,34.0,12.0,122.0,2511.264
2511275.0,57.0,35.0,11.0,114.0,2511.275
2511285.0,58.0,35.0,12.0,113.0,2511.285
2511295.0,56.0,35.0,12.0,115.0,2511.295
2511305.0,58.0,37.0,14.0,122.0,2511.305
2511315.0,59.0,36.0,13.0,120.0,2511.315
2511325.0,59.0,37.0,11.0,116.0,2511.325
2511335.0,60.0,37.0,11.0,107.0,2511.335
2511345.0,60.0,37.0,10.0,110.0,2511.345
2511355.0,61.0,37.0,11.0,109.0,2511.355
2511365.0,60.0,35.0,10.0,105.0,2511.365
2511375.0,58.0,36.0,8.0,109.0,2511.375
2511385.0,57.0,36.0,8.0,105.0,2511.385
2511395.0,58.0,36.0,10.0,103.0,2511.395
2511405.0,59.0,36.0,9.0,98.0,2511.405
2511415.0,58.0,38.0,9.0,107.0,2511.415
2511425.0,59.0,39.0,10.0,119.0,2511.425
2511435.0,59.0,37.0,8.0,111.0,2511.435
2511446.0,60.0,37.0,10.0,103.0,2511.446
2511456.0,61.0,37.0,11.0,109.0,2511.456
2511466.0,61.0,38.0,10.0,117.0,2511.466
2511476.0,59.0,36.0,9.0,106.0,2511.476
2511486.0,58.0,36.0,8.0,108.0,2511.486
2511496.0,57.0,35.0,9.0,102.0,2511.496
2511506.0,57.0,35.0,8.0,95.0,2511.506
2511516.0,57.0,36.0,8.0,105.0,2511.516
2511526.0,56.0,35.0,8.0,101.0,2511.526
2511536.0,56.0,36.0,8.0,97.0,2511.536
2511546.0,55.0,34.0,7.0,91.0,2511.546
2511556.0,55.0,34.0,9.0,98.0,2511.556
2511566.0,53.0,35.0,9.0,93.0,2511.566
2511576.0,54.0,34.0,11.0,90.0,2511.576
2511586.0,53.0,35.0,11.0,113.0,2511.586
2511596.0,53.0,35.0,12.0,117.0,2511.596
2511606.0,53.0,35.0,11.0,121.0,2511.606
2511616.0,53.0,34.0,10.0,110.0,2511.616
2511626.0,54.0,35.0,10.0,104.0,2511.626
2511636.0,53.0,35.0,12.0,103.0,2511.636
2511646.0,53.0,35.0,19.0,101.0,2511.646
2511656.0,52.0,36.0,16.0,100.0,2511.656
2511666.0,52.0,36.0,16.0,99.0,2511.666
2511676.0,50.0,35.0,14.0,90.0,2511.676
2511686.0,50.0,36.0,16.0,102.0,2511.686
2511696.0,51.0,35.0,18.0,105.0,2511.696
2511706.0,52.0,36.0,16.0,109.0,2511.706
2511716.0,50.0,37.0,14.0,107.0,2511.716
2511726.0,50.0,36.0,12.0,105.0,2511.726
2511736.0,48.0,37.0,13.0,103.0,2511.736
2511746.0,47.0,37.0,12.0,113.0,2511.746
2511756.0,48.0,37.0,12.0,112.0,2511.756
2511766.0,49.0,36.0,11.0,100.0,2511.766
2511776.0,48.0,36.0,12.0,100.0,2511.776
2511787.0,51.0,37.0,14.0,102.0,2511.787
2511797.0,48.0,36.0,11.0,118.0,2511.797
2511807.0,48.0,37.0,11.0,124.0,2511.807
2511817.0,49.0,37.0,11.0,114.0,2511.817
2511827.0,48.0,37.0,11.0,108.0,2511.827
2511837.0,49.0,36.0,12.0,105.0,2511.837
2511847.0,47.0,36.0,11.0,107.0,2511.847
2511857.0,49.0,35.0,13.0,101.0,2511.857
2511867.0,47.0,35.0,10.0,99.0,2511.867
2511877.0,47.0,36.0,9.0,96.0,2511.877
2511887.0,48.0,36.0,8.0,92.0,2511.887
2511897.0,48.0,38.0,9.0,85.0,2511.897
2511907.0,49.0,37.0,8.0,83.0,2511.907
2511917.0,50.0,38.0,8.0,90.0,2511.917
2511927.0,50.0,38.0,9.0,93.0,2511.927
2511937.0,51.0,38.0,8.0,97.0,2511.937
2511947.0,52.0,38.0,7.0,101.0,2511.947
2511958.0,54.0,37.0,7.0,98.0,2511.958
2511968.0,53.0,38.0,6.0,95.0,2511.968
2511978.0,53.0,36.0,6.0,96.0,2511.978
2511988.0,53.0,36.0,5.0,105.0,2511.988
2511998.0,53.0,36.0,7.0,102.0,2511.998
2512008.0,54.0,37.0,6.0,107.0,2512.008
2512018.0,54.0,36.0,7.0,109.0,2512.018
2512028.0,53.0,38.0,7.0,108.0,2512.028
2512038.0,54.0,39.0,8.0,106.0,2512.038
2512048.0,56.0,38.0,9.0,116.0,2512.048
2512058.0,57.0,37.0,7.0,113.0,2512.058
2512068.0,57.0,38.0,8.0,105.0,2512.068
2512078.0,59.0,38.0,7.0,103.0,2512.078
2512088.0,60.0,37.0,7.0,101.0,2512.088
2512098.0,62.0,36.0,6.0,101.0,2512.098
2512108.0,61.0,38.0,7.0,114.0,2512.108
2512118.0,62.0,38.0,7.0,110.0,2512.118
2512128.0,62.0,37.0,9.0,111.0,2512.128
2512138.0,61.0,39.0,11.0,111.0,2512.138
2512148.0,60.0,38.0,12.0,106.0,2512.148
2512158.0,58.0,37.0,10.0,108.0,2512.158
2512168.0,59.0,37.0,11.0,107.0,2512.168
2512178.0,57.0,37.0,11.0,104.0,2512.178
2512188.0,56.0,37.0,11.0,99.0,2512.188
2512198.0,56.0,37.0,10.0,96.0,2512.198
2512208.0,55.0,36.0,9.0,108.0,2512.208
2512218.0,55.0,36.0,10.0,112.0,2512.218
2512228.0,52.0,36.0,8.0,103.0,2512.228
2512238.0,52.0,35.0,8.0,105.0,2512.238
2512248.0,53.0,37.0,7.0,114.0,2512.248
2512258.0,52.0,36.0,7.0,112.0,2512.258
2512268.0,52.0,35.0,8.0,117.0,2512.268
2512278.0,51.0,36.0,9.0,116.0,2512.278
2512288.0,52.0,35.0,12.0,111.0,2512.288
2512299.0,50.0,35.0,12.0,103.0,2512.299
2512309.0,52.0,34.0,11.0,100.0,2512.309
2512319.0,51.0,35.0,10.0,97.0,2512.319
2512329.0,54.0,36.0,10.0,98.0,2512.329
2512339.0,53.0,36.0,14.0,109.0,2512.339
2512349.0,52.0,36.0,13.0,112.0,2512.349
2512359.0,53.0,35.0,13.0,109.0,2512.359
2512369.0,54.0,35.0,10.0,104.0,2512.369
2512379.0,55.0,35.0,12.0,103.0,2512.379
2512389.0,55.0,35.0,10.0,104.0,2512.389
2512399.0,54.0,35.0,10.0,104.0,2512.399
2512409.0,54.0,34.0,11.0,99.0,2512.409
2512419.0,54.0,34.0,10.0,95.0,2512.419
2512429.0,54.0,34.0,10.0,94.0,2512.429
