time (ms),signal 0,signal 1,signal 2,signal3,time (sec)
2404775.0,61.0,37.0,20.0,59.0,2404.775
2404785.0,61.0,37.0,20.0,66.0,2404.785
2404795.0,62.0,40.0,31.0,69.0,2404.795
2404805.0,62.0,40.0,27.0,67.0,2404.805
2404815.0,62.0,38.0,24.0,64.0,2404.815
2404825.0,62.0,39.0,21.0,62.0,2404.825
2404835.0,61.0,39.0,19.0,64.0,2404.835
2404845.0,62.0,39.0,20.0,61.0,2404.845
2404855.0,62.0,38.0,16.0,60.0,2404.855
2404865.0,63.0,37.0,16.0,63.0,2404.865
2404875.0,64.0,40.0,30.0,71.0,2404.875
2404885.0,64.0,40.0,27.0,68.0,2404.885
2404895.0,64.0,39.0,24.0,66.0,2404.895
2404905.0,65.0,39.0,21.0,66.0,2404.905
2404915.0,65.0,40.0,24.0,65.0,2404.915
2404925.0,65.0,40.0,28.0,64.0,2404.925
2404935.0,66.0,40.0,24.0,60.0,2404.935
2404945.0,66.0,39.0,22.0,58.0,2404.945
2404955.0,66.0,42.0,34.0,55.0,2404.955
2404965.0,66.0,41.0,30.0,52.0,2404.965
2404975.0,67.0,42.0,27.0,50.0,2404.975
2404985.0,65.0,42.0,31.0,63.0,2404.985
2404995.0,66.0,41.0,27.0,64.0,2404.995
2405005.0,65.0,40.0,24.0,66.0,2405.005
2405015.0,65.0,40.0,23.0,63.0,2405.015
2405025.0,64.0,43.0,34.0,64.0,2405.025
2405035.0,63.0,41.0,31.0,65.0,2405.035
2405045.0,64.0,39.0,27.0,72.0,2405.045
2405055.0,63.0,38.0,24.0,68.0,2405.055
2405065.0,62.0,37.0,22.0,64.0,2405.065
2405075.0,63.0,37.0,24.0,61.0,2405.075
2405085.0,63.0,37.0,22.0,58.0,2405.085
2405095.0,63.0,39.0,22.0,57.0,2405.095
2405105.0,62.0,39.0,36.0,57.0,2405.105
2405115.0,64.0,39.0,31.0,65.0,2405.115
2405125.0,63.0,38.0,29.0,70.0,2405.125
2405135.0,62.0,38.0,25.0,64.0,2405.135
2405145.0,60.0,37.0,21.0,59.0,2405.145
2405155.0,60.0,37.0,19.0,58.0,2405.155
2405165.0,58.0,38.0,22.0,56.0,2405.165
2405175.0,58.0,38.0,24.0,60.0,2405.175
2405185.0,58.0,38.0,22.0,59.0,2405.185
2405195.0,55.0,39.0,38.0,64.0,2405.195
2405206.0,56.0,38.0,32.0,69.0,2405.206
2405216.0,56.0,40.0,30.0,66.0,2405.216
2405226.0,57.0,40.0,29.0,62.0,2405.226
2405236.0,55.0,40.0,25.0,62.0,2405.236
2405246.0,55.0,41.0,24.0,72.0,2405.246
2405256.0,54.0,42.0,36.0,71.0,2405.256
2405266.0,53.0,41.0,33.0,73.0,2405.266
2405276.0,55.0,40.0,32.0,69.0,2405.276
2405286.0,57.0,41.0,34.0,68.0,2405.286
2405296.0,58.0,41.0,30.0,65.0,2405.296
2405306.0,59.0,41.0,26.0,83.0,2405.306
2405316.0,58.0,40.0,24.0,79.0,2405.316
2405326.0,58.0,39.0,22.0,75.0,2405.326
2405336.0,57.0,41.0,35.0,73.0,2405.336
2405346.0,57.0,40.0,35.0,72.0,2405.346
2405356.0,57.0,39.0,29.0,68.0,2405.356
2405366.0,58.0,40.0,28.0,73.0,2405.366
2405376.0,58.0,41.0,24.0,75.0,2405.376
2405386.0,56.0,43.0,36.0,70.0,2405.386
2405396.0,57.0,40.0,36.0,68.0,2405.396
2405406.0,56.0,42.0,31.0,67.0,2405.406
2405416.0,58.0,40.0,30.0,67.0,2405.416
2405426.0,58.0,41.0,27.0,82.0,2405.426
2405436.0,60.0,41.0,25.0,75.0,2405.436
2405446.0,61.0,40.0,22.0,70.0,2405.446
2405456.0,62.0,40.0,20.0,67.0,2405.456
2405466.0,62.0,41.0,31.0,72.0,2405.466
2405476.0,64.0,41.0,29.0,69.0,2405.476
2405486.0,63.0,41.0,26.0,74.0,2405.486
2405496.0,64.0,40.0,24.0,70.0,2405.496
2405506.0,62.0,39.0,23.0,68.0,2405.506
2405516.0,62.0,38.0,22.0,67.0,2405.516
2405526.0,59.0,40.0,21.0,73.0,2405.526
2405536.0,58.0,41.0,38.0,72.0,2405.536
2405547.0,58.0,41.0,35.0,83.0,2405.547
2405557.0,58.0,40.0,31.0,78.0,2405.557
2405567.0,58.0,42.0,30.0,72.0,2405.567
2405577.0,57.0,41.0,29.0,73.0,2405.577
2405587.0,58.0,42.0,27.0,73.0,2405.587
2405597.0,57.0,47.0,41.0,75.0,2405.597
2405607.0,57.0,44.0,36.0,74.0,2405.607
2405617.0,57.0,44.0,37.0,69.0,2405.617
2405627.0,56.0,44.0,33.0,68.0,2405.627
2405637.0,57.0,43.0,30.0,66.0,2405.637
2405647.0,56.0,42.0,28.0,62.0,2405.647
2405657.0,57.0,42.0,26.0,71.0,2405.657
2405667.0,57.0,42.0,23.0,70.0,2405.667
2405677.0,57.0,41.0,22.0,68.0,2405.677
2405687.0,57.0,41.0,40.0,72.0,2405.687
2405697.0,57.0,42.0,37.0,69.0,2405.697
2405707.0,58.0,40.0,32.0,64.0,2405.707
2405718.0,56.0,40.0,28.0,81.0,2405.718
2405728.0,57.0,39.0,32.0,77.0,2405.728
2405738.0,55.0,40.0,29.0,74.0,2405.738
2405748.0,54.0,40.0,42.0,71.0,2405.748
2405758.0,56.0,39.0,38.0,71.0,2405.758
2405768.0,53.0,40.0,35.0,71.0,2405.768
2405778.0,53.0,39.0,34.0,71.0,2405.778
2405788.0,52.0,40.0,30.0,72.0,2405.788
2405798.0,53.0,39.0,28.0,67.0,2405.798
2405808.0,53.0,39.0,24.0,62.0,2405.808
2405818.0,51.0,41.0,29.0,60.0,2405.818
2405828.0,53.0,40.0,35.0,59.0,2405.828
2405838.0,52.0,40.0,34.0,67.0,2405.838
2405848.0,53.0,40.0,33.0,67.0,2405.848
2405858.0,55.0,39.0,29.0,69.0,2405.858
2405868.0,56.0,38.0,25.0,65.0,2405.868
2405878.0,58.0,38.0,22.0,67.0,2405.878
2405888.0,62.0,38.0,20.0,64.0,2405.888
2405898.0,66.0,38.0,17.0,58.0,2405.898
2405908.0,66.0,38.0,15.0,59.0,2405.908
2405918.0,70.0,38.0,15.0,53.0,2405.918
2405928.0,79.0,40.0,13.0,55.0,2405.928
2405938.0,97.0,43.0,12.0,56.0,2405.938
2405948.0,94.0,44.0,11.0,54.0,2405.948
2405958.0,97.0,44.0,10.0,54.0,2405.958
2405968.0,93.0,52.0,10.0,56.0,2405.968
2405978.0,95.0,53.0,9.0,55.0,2405.978
2405988.0,92.0,62.0,8.0,54.0,2405.988
2405998.0,104.0,102.0,25.0,75.0,2405.998
2406008.0,111.0,128.0,23.0,84.0,2406.008
2406018.0,170.0,142.0,27.0,99.0,2406.018
2406028.0,188.0,167.0,40.0,109.0,2406.028
2406038.0,209.0,226.0,40.0,114.0,2406.038
2406048.0,216.0,244.0,41.0,119.0,2406.048
2406059.0,216.0,343.0,90.0,150.0,2406.059
2406069.0,273.0,415.0,130.0,207.0,2406.069
2406079.0,300.0,435.0,128.0,200.0,2406.079
2406089.0,322.0,451.0,124.0,209.0,2406.089
2406099.0,301.0,450.0,114.0,214.0,2406.099
2406109.0,270.0,432.0,109.0,209.0,2406.109
2406119.0,246.0,480.0,115.0,190.0,2406.119
2406129.0,232.0,466.0,109.0,180.0,2406.129
2406139.0,236.0,489.0,109.0,175.0,2406.139
2406149.0,218.0,480.0,106.0,163.0,2406.149
2406159.0,206.0,453.0,101.0,163.0,2406.159
2406169.0,191.0,434.0,92.0,152.0,2406.169
2406179.0,182.0,406.0,81.0,151.0,2406.179
2406189.0,169.0,392.0,74.0,149.0,2406.189
2406199.0,164.0,379.0,64.0,145.0,2406.199
2406209.0,166.0,373.0,57.0,150.0,2406.209
2406219.0,152.0,369.0,50.0,144.0,2406.219
2406230.0,141.0,349.0,46.0,137.0,2406.23
2406240.0,136.0,342.0,40.0,131.0,2406.24
2406250.0,129.0,337.0,35.0,122.0,2406.25
2406260.0,124.0,338.0,34.0,116.0,2406.26
2406270.0,128.0,328.0,39.0,121.0,2406.27
2406280.0,122.0,325.0,36.0,120.0,2406.28
2406290.0,115.0,313.0,32.0,117.0,2406.29
2406300.0,107.0,318.0,28.0,109.0,2406.3
2406310.0,100.0,307.0,25.0,107.0,2406.31
2406320.0,99.0,302.0,22.0,102.0,2406.32
2406330.0,101.0,297.0,21.0,96.0,2406.33
2406340.0,96.0,284.0,19.0,96.0,2406.34
2406350.0,99.0,286.0,20.0,91.0,2406.35
2406360.0,95.0,275.0,18.0,95.0,2406.36
2406370.0,90.0,264.0,15.0,90.0,2406.37
2406380.0,87.0,256.0,18.0,95.0,2406.38
2406390.0,87.0,264.0,16.0,94.0,2406.39
2406400.0,85.0,251.0,15.0,92.0,2406.4
2406410.0,82.0,245.0,14.0,88.0,2406.41
2406420.0,79.0,242.0,13.0,83.0,2406.42
2406430.0,85.0,241.0,12.0,82.0,2406.43
2406440.0,80.0,231.0,11.0,81.0,2406.44
2406450.0,78.0,225.0,12.0,77.0,2406.45
2406460.0,79.0,226.0,11.0,79.0,2406.46
2406470.0,75.0,214.0,10.0,80.0,2406.47
2406480.0,77.0,216.0,9.0,79.0,2406.48
2406490.0,75.0,206.0,9.0,79.0,2406.49
2406500.0,75.0,200.0,10.0,79.0,2406.5
2406510.0,72.0,197.0,8.0,80.0,2406.51
2406520.0,69.0,188.0,10.0,81.0,2406.52
2406530.0,67.0,185.0,9.0,81.0,2406.53
2406540.0,63.0,192.0,12.0,73.0,2406.54
2406550.0,64.0,193.0,14.0,70.0,2406.55
2406560.0,66.0,186.0,13.0,72.0,2406.56
2406571.0,65.0,183.0,12.0,74.0,2406.571
2406581.0,63.0,174.0,11.0,75.0,2406.581
2406591.0,63.0,179.0,16.0,77.0,2406.591
2406601.0,60.0,171.0,16.0,74.0,2406.601
2406611.0,60.0,172.0,14.0,72.0,2406.611
2406621.0,59.0,166.0,14.0,71.0,2406.621
2406631.0,60.0,161.0,12.0,73.0,2406.631
2406641.0,66.0,163.0,13.0,75.0,2406.641
2406651.0,66.0,165.0,10.0,75.0,2406.651
2406661.0,66.0,162.0,11.0,74.0,2406.661
2406671.0,64.0,157.0,10.0,69.0,2406.671
2406681.0,62.0,157.0,9.0,64.0,2406.681
2406691.0,60.0,156.0,8.0,58.0,2406.691
2406701.0,57.0,155.0,8.0,58.0,2406.701
2406711.0,60.0,159.0,11.0,72.0,2406.711
2406721.0,62.0,159.0,11.0,77.0,2406.721
2406731.0,60.0,156.0,10.0,73.0,2406.731
2406742.0,60.0,152.0,10.0,73.0,2406.742
2406752.0,63.0,158.0,9.0,69.0,2406.752
2406762.0,63.0,153.0,12.0,71.0,2406.762
2406772.0,62.0,151.0,12.0,72.0,2406.772
2406782.0,64.0,155.0,13.0,67.0,2406.782
2406792.0,62.0,149.0,11.0,65.0,2406.792
2406802.0,62.0,144.0,14.0,67.0,2406.802
2406812.0,62.0,141.0,13.0,65.0,2406.812
2406822.0,61.0,137.0,11.0,62.0,2406.822
2406832.0,59.0,138.0,11.0,60.0,2406.832
2406842.0,57.0,133.0,9.0,60.0,2406.842
2406852.0,59.0,131.0,10.0,62.0,2406.852
2406862.0,63.0,130.0,9.0,60.0,2406.862
2406872.0,61.0,128.0,8.0,61.0,2406.872
2406882.0,59.0,130.0,10.0,63.0,2406.882
2406892.0,57.0,125.0,9.0,73.0,2406.892
2406902.0,56.0,124.0,10.0,74.0,2406.902
2406912.0,57.0,118.0,11.0,73.0,2406.912
2406922.0,56.0,118.0,15.0,82.0,2406.922
2406932.0,59.0,115.0,16.0,79.0,2406.932
2406942.0,56.0,111.0,14.0,85.0,2406.942
2406952.0,58.0,115.0,13.0,85.0,2406.952
2406962.0,57.0,112.0,11.0,84.0,2406.962
2406972.0,57.0,110.0,11.0,79.0,2406.972
2406982.0,59.0,109.0,10.0,74.0,2406.982
2406992.0,59.0,107.0,9.0,72.0,2406.992
2407002.0,60.0,110.0,8.0,73.0,2407.002
2407012.0,61.0,108.0,8.0,80.0,2407.012
2407022.0,60.0,103.0,10.0,83.0,2407.022
2407032.0,59.0,99.0,11.0,89.0,2407.032
2407042.0,58.0,97.0,10.0,83.0,2407.042
2407052.0,58.0,96.0,9.0,80.0,2407.052
2407062.0,57.0,98.0,9.0,83.0,2407.062
2407072.0,58.0,95.0,10.0,75.0,2407.072
2407083.0,60.0,98.0,8.0,77.0,2407.083
2407093.0,60.0,102.0,8.0,81.0,2407.093
2407103.0,59.0,99.0,10.0,78.0,2407.103
2407113.0,58.0,96.0,9.0,77.0,2407.113
2407123.0,60.0,96.0,8.0,74.0,2407.123
2407133.0,58.0,94.0,7.0,72.0,2407.133
2407143.0,57.0,93.0,8.0,75.0,2407.143
2407153.0,56.0,94.0,6.0,74.0,2407.153
2407163.0,55.0,95.0,6.0,73.0,2407.163
2407173.0,55.0,96.0,7.0,73.0,2407.173
2407183.0,55.0,93.0,7.0,73.0,2407.183
2407193.0,57.0,93.0,7.0,68.0,2407.193
2407203.0,56.0,90.0,5.0,73.0,2407.203
2407213.0,57.0,90.0,6.0,71.0,2407.213
2407223.0,59.0,91.0,6.0,79.0,2407.223
2407233.0,55.0,88.0,6.0,81.0,2407.233
2407243.0,55.0,81.0,8.0,76.0,2407.243
2407254.0,55.0,80.0,8.0,77.0,2407.254
2407264.0,57.0,84.0,8.0,88.0,2407.264
2407274.0,55.0,84.0,7.0,87.0,2407.274
2407284.0,59.0,93.0,8.0,84.0,2407.284
2407294.0,59.0,91.0,8.0,82.0,2407.294
2407304.0,55.0,88.0,8.0,83.0,2407.304
2407314.0,54.0,82.0,7.0,76.0,2407.314
2407324.0,54.0,83.0,8.0,82.0,2407.324
2407334.0,52.0,82.0,8.0,76.0,2407.334
2407344.0,53.0,84.0,9.0,81.0,2407.344
2407354.0,53.0,79.0,8.0,79.0,2407.354
2407364.0,54.0,78.0,8.0,77.0,2407.364
2407374.0,56.0,81.0,10.0,87.0,2407.374
2407384.0,59.0,81.0,9.0,87.0,2407.384
2407394.0,63.0,84.0,9.0,81.0,2407.394
2407404.0,62.0,83.0,8.0,78.0,2407.404
2407414.0,60.0,81.0,8.0,75.0,2407.414
2407424.0,58.0,77.0,7.0,78.0,2407.424
2407434.0,57.0,81.0,8.0,81.0,2407.434
2407444.0,56.0,76.0,6.0,83.0,2407.444
2407454.0,59.0,79.0,7.0,79.0,2407.454
2407464.0,63.0,79.0,6.0,74.0,2407.464
2407474.0,62.0,75.0,6.0,77.0,2407.474
2407484.0,65.0,77.0,7.0,79.0,2407.484
2407494.0,64.0,75.0,6.0,76.0,2407.494
2407504.0,67.0,78.0,7.0,74.0,2407.504
2407514.0,63.0,73.0,5.0,73.0,2407.514
2407524.0,61.0,69.0,12.0,79.0,2407.524
2407534.0,61.0,66.0,10.0,75.0,2407.534
2407544.0,59.0,63.0,10.0,71.0,2407.544
2407554.0,62.0,62.0,9.0,70.0,2407.554
2407564.0,61.0,60.0,8.0,76.0,2407.564
2407574.0,63.0,57.0,9.0,72.0,2407.574
2407584.0,62.0,56.0,6.0,73.0,2407.584
2407595.0,62.0,55.0,13.0,77.0,2407.595
2407605.0,62.0,56.0,13.0,80.0,2407.605
2407615.0,63.0,58.0,21.0,79.0,2407.615
2407625.0,70.0,55.0,25.0,75.0,2407.625
2407635.0,78.0,56.0,43.0,85.0,2407.635
2407645.0,81.0,57.0,43.0,82.0,2407.645
2407655.0,84.0,55.0,37.0,92.0,2407.655
2407665.0,86.0,54.0,32.0,107.0,2407.665
2407675.0,82.0,56.0,34.0,169.0,2407.675
2407685.0,79.0,58.0,50.0,160.0,2407.685
2407695.0,76.0,61.0,52.0,190.0,2407.695
2407705.0,77.0,65.0,55.0,207.0,2407.705
2407715.0,79.0,73.0,63.0,229.0,2407.715
2407725.0,86.0,83.0,71.0,239.0,2407.725
2407735.0,90.0,99.0,68.0,262.0,2407.735
2407745.0,100.0,119.0,63.0,312.0,2407.745
2407755.0,105.0,138.0,59.0,282.0,2407.755
2407766.0,109.0,150.0,65.0,345.0,2407.766
2407776.0,119.0,166.0,68.0,339.0,2407.776
2407786.0,128.0,192.0,66.0,329.0,2407.786
2407796.0,134.0,210.0,79.0,353.0,2407.796
2407806.0,140.0,231.0,128.0,438.0,2407.806
2407816.0,148.0,253.0,121.0,422.0,2407.816
2407826.0,154.0,267.0,110.0,392.0,2407.826
2407836.0,154.0,280.0,95.0,361.0,2407.836
2407846.0,153.0,290.0,87.0,379.0,2407.846
2407856.0,158.0,302.0,93.0,378.0,2407.856
2407866.0,160.0,311.0,91.0,363.0,2407.866
2407876.0,158.0,314.0,96.0,352.0,2407.876
2407886.0,151.0,313.0,95.0,344.0,2407.886
2407896.0,160.0,320.0,97.0,338.0,2407.896
2407906.0,157.0,319.0,106.0,316.0,2407.906
2407916.0,159.0,322.0,98.0,298.0,2407.916
2407926.0,159.0,322.0,87.0,321.0,2407.926
2407936.0,157.0,318.0,88.0,301.0,2407.936
2407946.0,158.0,319.0,93.0,300.0,2407.946
2407956.0,153.0,315.0,91.0,284.0,2407.956
2407966.0,154.0,318.0,106.0,279.0,2407.966
2407976.0,151.0,317.0,102.0,270.0,2407.976
2407986.0,150.0,315.0,92.0,271.0,2407.986
2407996.0,149.0,314.0,91.0,304.0,2407.996
2408006.0,147.0,314.0,92.0,281.0,2408.006
2408016.0,146.0,311.0,82.0,277.0,2408.016
2408026.0,144.0,308.0,79.0,260.0,2408.026
2408036.0,144.0,306.0,92.0,248.0,2408.036
2408046.0,143.0,308.0,86.0,265.0,2408.046
2408056.0,140.0,307.0,87.0,241.0,2408.056
2408066.0,139.0,307.0,80.0,218.0,2408.066
2408076.0,136.0,307.0,82.0,203.0,2408.076
2408086.0,134.0,306.0,92.0,195.0,2408.086
2408096.0,132.0,309.0,83.0,203.0,2408.096
2408107.0,132.0,311.0,81.0,202.0,2408.107
2408117.0,128.0,312.0,74.0,198.0,2408.117
2408127.0,125.0,310.0,75.0,191.0,2408.127
2408137.0,124.0,311.0,65.0,207.0,2408.137
2408147.0,124.0,312.0,77.0,205.0,2408.147
2408157.0,125.0,312.0,82.0,190.0,2408.157
2408167.0,123.0,313.0,76.0,198.0,2408.167
2408177.0,124.0,312.0,68.0,184.0,2408.177
2408187.0,120.0,309.0,63.0,180.0,2408.187
2408197.0,119.0,308.0,57.0,167.0,2408.197
2408207.0,118.0,306.0,60.0,158.0,2408.207
2408217.0,115.0,303.0,61.0,152.0,2408.217
2408227.0,118.0,304.0,60.0,139.0,2408.227
2408237.0,114.0,299.0,54.0,139.0,2408.237
2408247.0,114.0,296.0,52.0,136.0,2408.247
2408257.0,115.0,295.0,49.0,137.0,2408.257
2408267.0,115.0,292.0,45.0,130.0,2408.267
2408278.0,114.0,286.0,43.0,129.0,2408.278
2408288.0,113.0,278.0,55.0,134.0,2408.288
2408298.0,114.0,278.0,62.0,146.0,2408.298
2408308.0,114.0,274.0,56.0,149.0,2408.308
2408318.0,113.0,271.0,52.0,137.0,2408.318
2408328.0,113.0,268.0,57.0,153.0,2408.328
2408338.0,111.0,264.0,50.0,147.0,2408.338
2408348.0,111.0,259.0,46.0,150.0,2408.348
2408358.0,111.0,256.0,53.0,148.0,2408.358
2408368.0,109.0,254.0,50.0,141.0,2408.368
2408378.0,108.0,250.0,43.0,140.0,2408.378
2408388.0,106.0,246.0,39.0,130.0,2408.388
2408398.0,104.0,241.0,38.0,122.0,2408.398
2408408.0,101.0,236.0,47.0,118.0,2408.408
2408418.0,102.0,233.0,43.0,112.0,2408.418
2408428.0,100.0,227.0,44.0,113.0,2408.428
2408438.0,99.0,226.0,51.0,117.0,2408.438
2408448.0,97.0,221.0,46.0,113.0,2408.448
2408458.0,96.0,219.0,40.0,118.0,2408.458
2408468.0,97.0,213.0,35.0,109.0,2408.468
2408478.0,98.0,211.0,33.0,106.0,2408.478
2408488.0,99.0,207.0,30.0,104.0,2408.488
2408498.0,99.0,203.0,27.0,121.0,2408.498
2408508.0,99.0,197.0,30.0,114.0,2408.508
2408518.0,100.0,192.0,40.0,116.0,2408.518
2408528.0,102.0,190.0,42.0,126.0,2408.528
2408538.0,101.0,187.0,37.0,127.0,2408.538
2408548.0,102.0,183.0,34.0,126.0,2408.548
2408558.0,102.0,180.0,31.0,124.0,2408.558
2408568.0,102.0,177.0,28.0,118.0,2408.568
2408578.0,101.0,173.0,25.0,115.0,2408.578
2408588.0,101.0,169.0,23.0,123.0,2408.588
2408598.0,98.0,164.0,28.0,121.0,2408.598
2408608.0,98.0,162.0,38.0,117.0,2408.608
2408619.0,98.0,163.0,35.0,118.0,2408.619
2408629.0,99.0,162.0,31.0,112.0,2408.629
2408639.0,100.0,161.0,29.0,112.0,2408.639
2408649.0,99.0,158.0,27.0,107.0,2408.649
2408659.0,99.0,155.0,27.0,115.0,2408.659
2408669.0,97.0,153.0,23.0,105.0,2408.669
2408679.0,96.0,150.0,22.0,103.0,2408.679
2408689.0,93.0,145.0,26.0,109.0,2408.689
2408699.0,93.0,145.0,23.0,111.0,2408.699
2408709.0,93.0,143.0,21.0,115.0,2408.709
2408719.0,93.0,141.0,23.0,115.0,2408.719
2408729.0,93.0,138.0,22.0,114.0,2408.729
2408739.0,92.0,137.0,20.0,110.0,2408.739
2408749.0,92.0,136.0,18.0,116.0,2408.749
2408759.0,89.0,132.0,15.0,115.0,2408.759
2408769.0,87.0,130.0,31.0,105.0,2408.769
2408779.0,88.0,131.0,28.0,97.0,2408.779
2408790.0,88.0,130.0,25.0,90.0,2408.79
2408800.0,87.0,129.0,25.0,88.0,2408.8
2408810.0,84.0,127.0,22.0,88.0,2408.81
2408820.0,81.0,126.0,21.0,94.0,2408.82
2408830.0,80.0,125.0,25.0,93.0,2408.83
2408840.0,79.0,126.0,23.0,90.0,2408.84
2408850.0,77.0,124.0,23.0,90.0,2408.85
2408860.0,77.0,125.0,20.0,86.0,2408.86
2408870.0,77.0,124.0,22.0,82.0,2408.87
2408880.0,78.0,126.0,20.0,82.0,2408.88
2408890.0,76.0,127.0,22.0,98.0,2408.89
2408900.0,74.0,123.0,26.0,108.0,2408.9
2408910.0,76.0,124.0,24.0,114.0,2408.91
2408920.0,75.0,121.0,22.0,108.0,2408.92
2408930.0,75.0,121.0,40.0,116.0,2408.93
2408940.0,75.0,120.0,35.0,120.0,2408.94
2408950.0,77.0,119.0,32.0,134.0,2408.95
2408960.0,76.0,117.0,28.0,131.0,2408.96
2408970.0,75.0,116.0,29.0,123.0,2408.97
2408980.0,76.0,116.0,25.0,126.0,2408.98
2408990.0,77.0,114.0,26.0,130.0,2408.99
2409000.0,76.0,113.0,25.0,127.0,2409.0
2409010.0,75.0,113.0,28.0,122.0,2409.01
2409020.0,77.0,111.0,48.0,113.0,2409.02
2409030.0,74.0,110.0,40.0,103.0,2409.03
2409040.0,75.0,108.0,38.0,110.0,2409.04
2409050.0,74.0,107.0,34.0,110.0,2409.05
2409060.0,74.0,107.0,33.0,106.0,2409.06
2409070.0,74.0,105.0,33.0,101.0,2409.07
2409080.0,75.0,105.0,32.0,100.0,2409.08
2409090.0,74.0,102.0,45.0,101.0,2409.09
2409100.0,74.0,100.0,41.0,127.0,2409.1
2409110.0,74.0,98.0,40.0,119.0,2409.11
2409120.0,74.0,98.0,36.0,116.0,2409.12
2409131.0,75.0,97.0,31.0,106.0,2409.131
2409141.0,75.0,94.0,32.0,106.0,2409.141
2409151.0,77.0,93.0,29.0,102.0,2409.151
2409161.0,79.0,91.0,27.0,101.0,2409.161
2409171.0,77.0,86.0,23.0,116.0,2409.171
2409181.0,76.0,83.0,27.0,125.0,2409.181
2409191.0,76.0,81.0,33.0,120.0,2409.191
2409201.0,77.0,81.0,30.0,113.0,2409.201
2409211.0,78.0,78.0,29.0,110.0,2409.211
2409221.0,77.0,76.0,27.0,107.0,2409.221
2409231.0,76.0,74.0,27.0,105.0,2409.231
2409241.0,76.0,73.0,25.0,98.0,2409.241
2409251.0,73.0,70.0,24.0,96.0,2409.251
2409261.0,74.0,69.0,24.0,94.0,2409.261
2409271.0,71.0,68.0,39.0,106.0,2409.271
2409281.0,74.0,67.0,35.0,100.0,2409.281
2409291.0,74.0,66.0,32.0,103.0,2409.291
2409302.0,72.0,62.0,33.0,101.0,2409.302
2409312.0,74.0,61.0,30.0,121.0,2409.312
2409322.0,73.0,60.0,27.0,117.0,2409.322
2409332.0,74.0,57.0,26.0,115.0,2409.332
2409342.0,74.0,57.0,30.0,109.0,2409.342
2409352.0,75.0,57.0,29.0,111.0,2409.352
2409362.0,76.0,56.0,26.0,100.0,2409.362
2409372.0,77.0,56.0,26.0,98.0,2409.372
2409382.0,76.0,54.0,23.0,99.0,2409.382
2409392.0,76.0,53.0,21.0,98.0,2409.392
2409402.0,76.0,53.0,21.0,102.0,2409.402
2409412.0,76.0,51.0,19.0,106.0,2409.412
2409422.0,75.0,50.0,22.0,105.0,2409.422
2409432.0,76.0,50.0,33.0,105.0,2409.432
2409442.0,77.0,50.0,29.0,103.0,2409.442
2409452.0,77.0,48.0,27.0,102.0,2409.452
2409462.0,76.0,47.0,24.0,96.0,2409.462
2409472.0,75.0,45.0,23.0,93.0,2409.472
2409482.0,74.0,45.0,30.0,95.0,2409.482
2409492.0,74.0,46.0,30.0,93.0,2409.492
2409502.0,75.0,45.0,31.0,109.0,2409.502
2409512.0,75.0,46.0,27.0,102.0,2409.512
2409522.0,76.0,45.0,26.0,95.0,2409.522
2409532.0,75.0,44.0,26.0,89.0,2409.532
2409542.0,76.0,44.0,26.0,90.0,2409.542
2409552.0,77.0,44.0,36.0,93.0,2409.552
2409562.0,76.0,45.0,32.0,94.0,2409.562
2409572.0,77.0,45.0,30.0,90.0,2409.572
2409582.0,77.0,45.0,27.0,90.0,2409.582
2409592.0,79.0,43.0,27.0,97.0,2409.592
2409602.0,78.0,45.0,26.0,104.0,2409.602
2409612.0,80.0,47.0,32.0,105.0,2409.612
2409622.0,80.0,45.0,28.0,97.0,2409.622
2409632.0,80.0,47.0,25.0,93.0,2409.632
2409643.0,77.0,45.0,30.0,93.0,2409.643
2409653.0,78.0,44.0,32.0,103.0,2409.653
2409663.0,79.0,42.0,30.0,99.0,2409.663
2409673.0,76.0,41.0,25.0,100.0,2409.673
2409683.0,74.0,42.0,36.0,110.0,2409.683
2409693.0,76.0,44.0,37.0,109.0,2409.693
2409703.0,75.0,45.0,35.0,112.0,2409.703
2409713.0,75.0,42.0,31.0,104.0,2409.713
2409723.0,74.0,43.0,31.0,96.0,2409.723
2409733.0,74.0,43.0,33.0,96.0,2409.733
2409743.0,74.0,42.0,31.0,97.0,2409.743
2409753.0,72.0,42.0,26.0,94.0,2409.753
2409763.0,71.0,41.0,23.0,96.0,2409.763
2409773.0,71.0,41.0,20.0,96.0,2409.773
2409783.0,70.0,41.0,22.0,95.0,2409.783
2409793.0,70.0,43.0,33.0,106.0,2409.793
2409803.0,69.0,42.0,31.0,112.0,2409.803
2409814.0,69.0,42.0,27.0,106.0,2409.814
2409824.0,68.0,41.0,25.0,104.0,2409.824
2409834.0,67.0,40.0,27.0,103.0,2409.834
2409844.0,66.0,39.0,22.0,112.0,2409.844
2409854.0,65.0,41.0,33.0,105.0,2409.854
2409864.0,65.0,40.0,33.0,102.0,2409.864
2409874.0,62.0,42.0,29.0,104.0,2409.874
2409884.0,63.0,41.0,30.0,101.0,2409.884
2409894.0,64.0,41.0,26.0,95.0,2409.894
2409904.0,63.0,40.0,26.0,92.0,2409.904
2409914.0,62.0,40.0,22.0,89.0,2409.914
2409924.0,61.0,39.0,19.0,90.0,2409.924
2409934.0,60.0,40.0,19.0,85.0,2409.934
2409944.0,59.0,41.0,27.0,81.0,2409.944
2409954.0,62.0,40.0,26.0,74.0,2409.954
2409964.0,60.0,40.0,22.0,74.0,2409.964
2409974.0,59.0,41.0,30.0,76.0,2409.974
2409984.0,60.0,41.0,26.0,86.0,2409.984
2409994.0,59.0,40.0,23.0,96.0,2409.994
2410004.0,60.0,38.0,22.0,89.0,2410.004
2410014.0,57.0,41.0,27.0,84.0,2410.014
2410024.0,59.0,40.0,28.0,91.0,2410.024
2410034.0,58.0,40.0,25.0,90.0,2410.034
2410044.0,58.0,40.0,22.0,88.0,2410.044
2410054.0,58.0,41.0,20.0,85.0,2410.054
2410064.0,58.0,41.0,19.0,83.0,2410.064
2410074.0,59.0,41.0,18.0,86.0,2410.074
2410084.0,57.0,44.0,33.0,83.0,2410.084
2410094.0,58.0,45.0,32.0,79.0,2410.094
2410104.0,58.0,45.0,28.0,78.0,2410.104
2410114.0,59.0,45.0,25.0,75.0,2410.114
2410124.0,61.0,45.0,22.0,79.0,2410.124
2410134.0,60.0,45.0,18.0,79.0,2410.134
2410144.0,60.0,46.0,22.0,92.0,2410.144
2410155.0,58.0,45.0,21.0,93.0,2410.155
2410165.0,59.0,43.0,20.0,92.0,2410.165
2410175.0,58.0,45.0,37.0,92.0,2410.175
2410185.0,56.0,45.0,34.0,87.0,2410.185
2410195.0,60.0,43.0,34.0,82.0,2410.195
2410205.0,59.0,44.0,30.0,94.0,2410.205
2410215.0,59.0,44.0,28.0,90.0,2410.215
2410225.0,59.0,45.0,28.0,92.0,2410.225
2410235.0,57.0,44.0,29.0,94.0,2410.235
2410245.0,59.0,45.0,39.0,91.0,2410.245
2410255.0,56.0,46.0,33.0,90.0,2410.255
2410265.0,56.0,44.0,33.0,83.0,2410.265
2410275.0,57.0,44.0,29.0,90.0,2410.275
2410285.0,56.0,43.0,26.0,94.0,2410.285
2410295.0,55.0,42.0,25.0,98.0,2410.295
2410305.0,55.0,44.0,28.0,101.0,2410.305
2410315.0,55.0,47.0,39.0,102.0,2410.315
2410326.0,54.0,45.0,36.0,95.0,2410.326
2410336.0,54.0,43.0,33.0,92.0,2410.336
2410346.0,54.0,44.0,27.0,97.0,2410.346
2410356.0,51.0,42.0,25.0,92.0,2410.356
2410366.0,51.0,41.0,23.0,90.0,2410.366
2410376.0,51.0,43.0,29.0,101.0,2410.376
2410386.0,51.0,43.0,33.0,106.0,2410.386
2410396.0,51.0,43.0,28.0,109.0,2410.396
2410406.0,50.0,43.0,26.0,107.0,2410.406
2410416.0,49.0,42.0,24.0,98.0,2410.416
2410426.0,48.0,42.0,24.0,100.0,2410.426
2410436.0,49.0,42.0,23.0,95.0,2410.436
2410446.0,48.0,42.0,24.0,112.0,2410.446
2410456.0,50.0,43.0,35.0,113.0,2410.456
2410466.0,50.0,42.0,30.0,107.0,2410.466
2410476.0,50.0,41.0,28.0,97.0,2410.476
2410486.0,50.0,40.0,29.0,94.0,2410.486
2410496.0,51.0,39.0,28.0,88.0,2410.496
2410506.0,51.0,39.0,27.0,82.0,2410.506
2410516.0,50.0,39.0,23.0,85.0,2410.516
2410526.0,51.0,42.0,39.0,100.0,2410.526
2410536.0,54.0,43.0,36.0,106.0,2410.536
2410546.0,54.0,42.0,36.0,101.0,2410.546
2410556.0,54.0,40.0,31.0,94.0,2410.556
2410566.0,54.0,41.0,26.0,90.0,2410.566
2410576.0,56.0,40.0,25.0,110.0,2410.576
2410586.0,54.0,39.0,22.0,112.0,2410.586
2410596.0,54.0,39.0,23.0,107.0,2410.596
2410606.0,55.0,42.0,28.0,102.0,2410.606
2410616.0,54.0,43.0,25.0,100.0,2410.616
2410626.0,56.0,41.0,23.0,96.0,2410.626
2410636.0,55.0,41.0,23.0,103.0,2410.636
2410646.0,56.0,39.0,23.0,94.0,2410.646
2410656.0,55.0,40.0,23.0,93.0,2410.656
2410667.0,55.0,38.0,24.0,88.0,2410.667
2410677.0,56.0,39.0,44.0,84.0,2410.677
2410687.0,56.0,40.0,40.0,83.0,2410.687
2410697.0,58.0,39.0,37.0,85.0,2410.697
2410707.0,56.0,40.0,33.0,100.0,2410.707
2410717.0,57.0,38.0,32.0,99.0,2410.717
2410727.0,57.0,39.0,28.0,95.0,2410.727
2410737.0,56.0,37.0,25.0,111.0,2410.737
2410747.0,56.0,36.0,22.0,103.0,2410.747
2410757.0,54.0,38.0,22.0,109.0,2410.757
2410767.0,55.0,40.0,32.0,128.0,2410.767
2410777.0,56.0,42.0,34.0,139.0,2410.777
2410787.0,56.0,42.0,30.0,137.0,2410.787
2410797.0,55.0,42.0,28.0,134.0,2410.797
2410807.0,53.0,41.0,24.0,142.0,2410.807
2410817.0,53.0,41.0,23.0,147.0,2410.817
2410827.0,52.0,41.0,18.0,135.0,2410.827
2410838.0,50.0,41.0,30.0,125.0,2410.838
2410848.0,51.0,43.0,28.0,128.0,2410.848
2410858.0,51.0,43.0,31.0,118.0,2410.858
2410868.0,52.0,42.0,29.0,109.0,2410.868
2410878.0,53.0,43.0,27.0,117.0,2410.878
2410888.0,53.0,42.0,30.0,113.0,2410.888
2410898.0,53.0,43.0,25.0,109.0,2410.898
2410908.0,50.0,41.0,22.0,113.0,2410.908
2410918.0,50.0,41.0,31.0,109.0,2410.918
2410928.0,53.0,43.0,34.0,112.0,2410.928
2410938.0,54.0,42.0,32.0,106.0,2410.938
2410948.0,54.0,42.0,29.0,104.0,2410.948
2410958.0,55.0,41.0,27.0,95.0,2410.958
2410968.0,56.0,40.0,23.0,97.0,2410.968
2410978.0,56.0,40.0,22.0,94.0,2410.978
2410988.0,58.0,40.0,19.0,109.0,2410.988
2410998.0,58.0,41.0,23.0,108.0,2410.998
2411008.0,59.0,42.0,34.0,98.0,2411.008
2411018.0,60.0,45.0,30.0,93.0,2411.018
2411028.0,61.0,44.0,27.0,95.0,2411.028
2411038.0,62.0,44.0,25.0,99.0,2411.038
2411048.0,64.0,44.0,22.0,99.0,2411.048
2411058.0,65.0,41.0,21.0,100.0,2411.058
2411068.0,64.0,44.0,19.0,94.0,2411.068
2411078.0,65.0,41.0,20.0,88.0,2411.078
2411088.0,66.0,44.0,34.0,87.0,2411.088
2411098.0,68.0,44.0,33.0,84.0,2411.098
2411108.0,69.0,42.0,30.0,88.0,2411.108
2411118.0,68.0,43.0,30.0,87.0,2411.118
2411128.0,70.0,43.0,30.0,100.0,2411.128
2411138.0,70.0,44.0,26.0,99.0,2411.138
2411148.0,71.0,44.0,23.0,101.0,2411.148
2411158.0,72.0,46.0,25.0,112.0,2411.158
2411168.0,71.0,46.0,21.0,103.0,2411.168
2411179.0,71.0,46.0,21.0,102.0,2411.179
2411189.0,70.0,47.0,32.0,102.0,2411.189
2411199.0,70.0,47.0,28.0,93.0,2411.199
2411209.0,71.0,47.0,26.0,93.0,2411.209
2411219.0,70.0,46.0,25.0,95.0,2411.219
2411229.0,69.0,46.0,25.0,90.0,2411.229
2411239.0,66.0,45.0,22.0,106.0,2411.239
2411249.0,65.0,43.0,22.0,111.0,2411.249
2411259.0,62.0,46.0,30.0,103.0,2411.259
2411269.0,60.0,44.0,28.0,101.0,2411.269
2411279.0,59.0,43.0,26.0,96.0,2411.279
2411289.0,56.0,42.0,22.0,104.0,2411.289
2411299.0,58.0,43.0,21.0,109.0,2411.299
2411309.0,57.0,43.0,21.0,107.0,2411.309
2411319.0,56.0,43.0,22.0,103.0,2411.319
2411329.0,55.0,43.0,18.0,103.0,2411.329
2411339.0,55.0,43.0,16.0,98.0,2411.339
2411350.0,55.0,42.0,16.0,101.0,2411.35
2411360.0,55.0,44.0,29.0,99.0,2411.36
2411370.0,54.0,43.0,26.0,96.0,2411.37
2411380.0,53.0,44.0,22.0,90.0,2411.38
2411390.0,53.0,42.0,19.0,90.0,2411.39
2411400.0,52.0,42.0,18.0,84.0,2411.4
2411410.0,53.0,42.0,18.0,81.0,2411.41
2411420.0,54.0,41.0,17.0,75.0,2411.42
2411430.0,53.0,40.0,15.0,90.0,2411.43
2411440.0,54.0,40.0,14.0,86.0,2411.44
2411450.0,53.0,39.0,11.0,89.0,2411.45
2411460.0,55.0,40.0,11.0,83.0,2411.46
2411470.0,54.0,40.0,16.0,77.0,2411.47
2411480.0,53.0,41.0,27.0,80.0,2411.48
2411490.0,55.0,42.0,23.0,79.0,2411.49
2411500.0,56.0,42.0,20.0,77.0,2411.5
2411510.0,57.0,42.0,19.0,82.0,2411.51
2411520.0,57.0,41.0,16.0,84.0,2411.52
2411530.0,58.0,42.0,17.0,84.0,2411.53
2411540.0,59.0,42.0,16.0,83.0,2411.54
2411550.0,56.0,42.0,14.0,88.0,2411.55
2411560.0,55.0,41.0,27.0,87.0,2411.56
2411570.0,55.0,44.0,28.0,87.0,2411.57
2411580.0,55.0,45.0,25.0,83.0,2411.58
2411590.0,57.0,48.0,22.0,77.0,2411.59
2411600.0,56.0,49.0,19.0,83.0,2411.6
2411610.0,58.0,51.0,18.0,78.0,2411.61
2411620.0,58.0,51.0,16.0,73.0,2411.62
2411630.0,59.0,51.0,16.0,75.0,2411.63
2411640.0,59.0,50.0,16.0,79.0,2411.64
2411650.0,57.0,50.0,23.0,83.0,2411.65
2411660.0,60.0,53.0,26.0,96.0,2411.66
2411670.0,59.0,52.0,25.0,93.0,2411.67
2411680.0,61.0,51.0,23.0,93.0,2411.68
2411691.0,59.0,51.0,22.0,88.0,2411.691
2411701.0,59.0,49.0,20.0,96.0,2411.701
2411711.0,58.0,49.0,21.0,90.0,2411.711
2411721.0,57.0,47.0,20.0,84.0,2411.721
2411731.0,56.0,46.0,29.0,88.0,2411.731
2411741.0,58.0,48.0,29.0,91.0,2411.741
2411751.0,58.0,47.0,27.0,87.0,2411.751
2411761.0,60.0,45.0,25.0,83.0,2411.761
2411771.0,60.0,44.0,22.0,78.0,2411.771
2411781.0,61.0,42.0,22.0,79.0,2411.781
2411791.0,62.0,41.0,20.0,77.0,2411.791
2411801.0,62.0,40.0,18.0,83.0,2411.801
2411811.0,62.0,41.0,17.0,84.0,2411.811
2411821.0,62.0,39.0,17.0,80.0,2411.821
2411831.0,64.0,40.0,30.0,73.0,2411.831
2411841.0,65.0,41.0,33.0,72.0,2411.841
2411851.0,66.0,40.0,36.0,68.0,2411.851
2411862.0,66.0,39.0,32.0,68.0,2411.862
2411872.0,64.0,38.0,33.0,78.0,2411.872
2411882.0,65.0,40.0,33.0,90.0,2411.882
2411892.0,65.0,41.0,41.0,98.0,2411.892
2411902.0,66.0,39.0,35.0,91.0,2411.902
2411912.0,64.0,40.0,33.0,92.0,2411.912
2411922.0,63.0,41.0,34.0,90.0,2411.922
2411932.0,63.0,42.0,42.0,86.0,2411.932
2411942.0,64.0,40.0,38.0,88.0,2411.942
2411952.0,64.0,40.0,33.0,86.0,2411.952
2411962.0,65.0,40.0,29.0,90.0,2411.962
2411972.0,65.0,38.0,27.0,88.0,2411.972
2411982.0,66.0,39.0,24.0,83.0,2411.982
2411992.0,68.0,38.0,24.0,91.0,2411.992
2412002.0,67.0,38.0,25.0,86.0,2412.002
2412012.0,69.0,38.0,24.0,86.0,2412.012
2412022.0,70.0,35.0,21.0,84.0,2412.022
2412032.0,69.0,38.0,31.0,79.0,2412.032
2412042.0,69.0,38.0,34.0,80.0,2412.042
2412052.0,70.0,37.0,30.0,73.0,2412.052
2412062.0,70.0,37.0,28.0,81.0,2412.062
2412072.0,68.0,38.0,27.0,81.0,2412.072
2412082.0,67.0,37.0,24.0,82.0,2412.082
2412092.0,67.0,36.0,24.0,79.0,2412.092
2412102.0,67.0,38.0,32.0,74.0,2412.102
2412112.0,67.0,37.0,29.0,71.0,2412.112
2412122.0,68.0,37.0,25.0,81.0,2412.122
2412132.0,68.0,36.0,23.0,78.0,2412.132
2412142.0,67.0,36.0,22.0,78.0,2412.142
2412152.0,67.0,38.0,19.0,74.0,2412.152
2412162.0,69.0,36.0,17.0,76.0,2412.162
2412172.0,70.0,38.0,18.0,77.0,2412.172
2412182.0,71.0,37.0,18.0,75.0,2412.182
2412192.0,69.0,39.0,27.0,73.0,2412.192
2412203.0,68.0,39.0,28.0,73.0,2412.203
2412213.0,70.0,38.0,26.0,73.0,2412.213
2412223.0,69.0,39.0,22.0,70.0,2412.223
2412233.0,68.0,39.0,21.0,70.0,2412.233
2412243.0,67.0,38.0,21.0,83.0,2412.243
2412253.0,68.0,39.0,21.0,86.0,2412.253
2412263.0,67.0,38.0,21.0,86.0,2412.263
2412273.0,66.0,38.0,22.0,80.0,2412.273
2412283.0,67.0,39.0,29.0,79.0,2412.283
2412293.0,66.0,40.0,30.0,76.0,2412.293
2412303.0,65.0,39.0,30.0,78.0,2412.303
2412313.0,64.0,40.0,29.0,79.0,2412.313
2412323.0,65.0,39.0,26.0,79.0,2412.323
2412333.0,65.0,39.0,24.0,75.0,2412.333
2412343.0,63.0,39.0,20.0,72.0,2412.343
2412353.0,62.0,38.0,21.0,76.0,2412.353
2412363.0,61.0,40.0,26.0,78.0,2412.363
2412374.0,63.0,42.0,33.0,78.0,2412.374
2412384.0,64.0,43.0,30.0,77.0,2412.384
2412394.0,63.0,42.0,28.0,80.0,2412.394
2412404.0,63.0,42.0,26.0,78.0,2412.404
2412414.0,62.0,43.0,26.0,82.0,2412.414
2412424.0,63.0,42.0,23.0,87.0,2412.424
2412434.0,64.0,42.0,22.0,89.0,2412.434
2412444.0,64.0,42.0,19.0,82.0,2412.444
2412454.0,64.0,41.0,18.0,79.0,2412.454
2412464.0,64.0,40.0,22.0,78.0,2412.464
2412474.0,63.0,40.0,35.0,79.0,2412.474
2412484.0,61.0,39.0,32.0,77.0,2412.484
2412494.0,61.0,39.0,28.0,76.0,2412.494
2412504.0,60.0,38.0,25.0,74.0,2412.504
2412514.0,60.0,39.0,23.0,70.0,2412.514
2412524.0,60.0,36.0,21.0,63.0,2412.524
2412534.0,59.0,37.0,19.0,64.0,2412.534
2412544.0,59.0,38.0,23.0,63.0,2412.544
2412554.0,60.0,39.0,22.0,67.0,2412.554
2412564.0,60.0,38.0,20.0,71.0,2412.564
2412574.0,59.0,37.0,18.0,69.0,2412.574
2412584.0,58.0,37.0,16.0,66.0,2412.584
2412594.0,60.0,37.0,16.0,65.0,2412.594
2412604.0,59.0,37.0,15.0,76.0,2412.604
2412614.0,61.0,38.0,14.0,72.0,2412.614
2412624.0,59.0,37.0,12.0,73.0,2412.624
2412634.0,60.0,37.0,11.0,67.0,2412.634
2412644.0,60.0,38.0,16.0,69.0,2412.644
2412654.0,62.0,41.0,25.0,75.0,2412.654
2412664.0,62.0,38.0,23.0,69.0,2412.664
2412674.0,63.0,39.0,21.0,70.0,2412.674
2412684.0,62.0,39.0,20.0,67.0,2412.684
2412694.0,61.0,39.0,16.0,66.0,2412.694
2412704.0,60.0,39.0,14.0,72.0,2412.704
2412715.0,62.0,40.0,15.0,83.0,2412.715
2412725.0,62.0,41.0,13.0,75.0,2412.725
2412735.0,63.0,41.0,29.0,76.0,2412.735
2412745.0,65.0,42.0,29.0,72.0,2412.745
2412755.0,65.0,43.0,26.0,69.0,2412.755
2412765.0,66.0,44.0,25.0,70.0,2412.765
2412775.0,64.0,45.0,22.0,69.0,2412.775
2412785.0,66.0,45.0,23.0,70.0,2412.785
2412795.0,67.0,46.0,20.0,68.0,2412.795
2412805.0,66.0,46.0,18.0,64.0,2412.805
2412815.0,67.0,46.0,18.0,60.0,2412.815
2412825.0,65.0,44.0,17.0,66.0,2412.825
2412835.0,66.0,44.0,17.0,74.0,2412.835
2412845.0,64.0,44.0,24.0,74.0,2412.845
2412855.0,63.0,44.0,23.0,72.0,2412.855
2412865.0,63.0,44.0,21.0,71.0,2412.865
2412875.0,63.0,44.0,18.0,68.0,2412.875
2412886.0,64.0,43.0,16.0,64.0,2412.886
2412896.0,63.0,42.0,13.0,80.0,2412.896
2412906.0,65.0,41.0,14.0,80.0,2412.906
2412916.0,63.0,41.0,14.0,74.0,2412.916
2412926.0,61.0,40.0,15.0,73.0,2412.926
2412936.0,62.0,39.0,13.0,73.0,2412.936
2412946.0,62.0,40.0,17.0,83.0,2412.946
2412956.0,62.0,40.0,18.0,82.0,2412.956
2412966.0,65.0,43.0,21.0,82.0,2412.966
2412976.0,66.0,41.0,19.0,76.0,2412.976
2412986.0,67.0,42.0,17.0,70.0,2412.986
2412996.0,68.0,43.0,15.0,87.0,2412.996
2413006.0,69.0,42.0,14.0,83.0,2413.006
2413016.0,68.0,42.0,17.0,80.0,2413.016
2413026.0,69.0,41.0,16.0,78.0,2413.026
2413036.0,69.0,41.0,15.0,75.0,2413.036
2413046.0,71.0,39.0,15.0,82.0,2413.046
2413056.0,71.0,38.0,14.0,80.0,2413.056
2413066.0,69.0,38.0,13.0,84.0,2413.066
2413076.0,70.0,37.0,12.0,83.0,2413.076
2413086.0,68.0,38.0,12.0,76.0,2413.086
2413096.0,70.0,38.0,14.0,70.0,2413.096
2413106.0,69.0,39.0,25.0,68.0,2413.106
2413116.0,70.0,40.0,25.0,66.0,2413.116
2413126.0,70.0,41.0,24.0,71.0,2413.126
2413136.0,68.0,40.0,21.0,69.0,2413.136
2413146.0,70.0,41.0,23.0,67.0,2413.146
2413156.0,68.0,41.0,19.0,68.0,2413.156
2413166.0,68.0,38.0,18.0,64.0,2413.166
2413176.0,68.0,38.0,16.0,68.0,2413.176
2413186.0,69.0,38.0,14.0,67.0,2413.186
2413196.0,70.0,36.0,13.0,66.0,2413.196
2413206.0,70.0,37.0,12.0,63.0,2413.206
2413216.0,71.0,41.0,27.0,66.0,2413.216
2413227.0,72.0,42.0,27.0,64.0,2413.227
2413237.0,73.0,41.0,24.0,59.0,2413.237
2413247.0,74.0,41.0,21.0,68.0,2413.247
2413257.0,74.0,43.0,19.0,64.0,2413.257
2413267.0,75.0,41.0,18.0,59.0,2413.267
2413277.0,76.0,41.0,16.0,59.0,2413.277
2413287.0,75.0,40.0,17.0,57.0,2413.287
2413297.0,76.0,40.0,15.0,62.0,2413.297
2413307.0,76.0,41.0,17.0,76.0,2413.307
2413317.0,75.0,40.0,21.0,78.0,2413.317
2413327.0,75.0,41.0,32.0,81.0,2413.327
2413337.0,74.0,39.0,31.0,80.0,2413.337
2413347.0,74.0,39.0,28.0,81.0,2413.347
2413357.0,73.0,39.0,24.0,77.0,2413.357
2413367.0,73.0,38.0,22.0,72.0,2413.367
2413377.0,73.0,38.0,20.0,81.0,2413.377
2413387.0,72.0,37.0,17.0,92.0,2413.387
2413398.0,72.0,37.0,15.0,87.0,2413.398
2413408.0,72.0,38.0,14.0,82.0,2413.408
2413418.0,70.0,37.0,14.0,86.0,2413.418
2413428.0,71.0,38.0,24.0,85.0,2413.428
2413438.0,71.0,40.0,34.0,79.0,2413.438
2413448.0,72.0,40.0,29.0,78.0,2413.448
2413458.0,73.0,39.0,26.0,75.0,2413.458
2413468.0,72.0,38.0,27.0,78.0,2413.468
2413478.0,73.0,38.0,24.0,74.0,2413.478
2413488.0,73.0,38.0,21.0,70.0,2413.488
2413498.0,72.0,38.0,19.0,72.0,2413.498
2413508.0,76.0,38.0,20.0,78.0,2413.508
2413518.0,75.0,39.0,16.0,76.0,2413.518
2413528.0,75.0,38.0,24.0,80.0,2413.528
2413538.0,75.0,40.0,23.0,78.0,2413.538
2413548.0,75.0,39.0,26.0,82.0,2413.548
2413558.0,77.0,40.0,24.0,80.0,2413.558
2413568.0,77.0,39.0,21.0,74.0,2413.568
2413578.0,78.0,38.0,19.0,70.0,2413.578
2413588.0,76.0,38.0,18.0,69.0,2413.588
2413598.0,76.0,38.0,16.0,70.0,2413.598
2413608.0,76.0,38.0,14.0,91.0,2413.608
2413618.0,76.0,39.0,13.0,88.0,2413.618
2413628.0,76.0,37.0,12.0,91.0,2413.628
2413638.0,75.0,37.0,10.0,102.0,2413.638
2413648.0,75.0,36.0,10.0,105.0,2413.648
2413658.0,75.0,37.0,9.0,107.0,2413.658
2413668.0,73.0,36.0,9.0,98.0,2413.668
2413678.0,72.0,35.0,8.0,99.0,2413.678
2413688.0,72.0,36.0,8.0,117.0,2413.688
2413698.0,74.0,38.0,13.0,120.0,2413.698
2413708.0,74.0,39.0,20.0,126.0,2413.708
2413718.0,76.0,39.0,18.0,135.0,2413.718
2413728.0,76.0,40.0,16.0,122.0,2413.728
2413739.0,75.0,39.0,18.0,111.0,2413.739
2413749.0,74.0,38.0,15.0,99.0,2413.749
2413759.0,70.0,38.0,15.0,106.0,2413.759
2413769.0,70.0,39.0,25.0,115.0,2413.769
2413779.0,73.0,42.0,25.0,110.0,2413.779
2413789.0,71.0,43.0,23.0,104.0,2413.789
2413799.0,71.0,44.0,21.0,98.0,2413.799
2413809.0,70.0,43.0,20.0,99.0,2413.809
2413819.0,70.0,42.0,18.0,119.0,2413.819
2413829.0,69.0,42.0,17.0,113.0,2413.829
2413839.0,69.0,42.0,19.0,105.0,2413.839
2413849.0,68.0,42.0,21.0,107.0,2413.849
2413859.0,68.0,43.0,32.0,99.0,2413.859
2413869.0,67.0,41.0,31.0,97.0,2413.869
2413879.0,66.0,42.0,26.0,98.0,2413.879
2413889.0,65.0,41.0,24.0,98.0,2413.889
2413899.0,65.0,40.0,21.0,92.0,2413.899
2413910.0,64.0,39.0,26.0,94.0,2413.91
2413920.0,64.0,41.0,31.0,101.0,2413.92
2413930.0,64.0,41.0,29.0,97.0,2413.93
2413940.0,65.0,40.0,26.0,95.0,2413.94
2413950.0,65.0,41.0,22.0,97.0,2413.95
2413960.0,67.0,38.0,20.0,89.0,2413.96
2413970.0,67.0,41.0,19.0,91.0,2413.97
2413980.0,66.0,38.0,17.0,89.0,2413.98
2413990.0,66.0,38.0,17.0,87.0,2413.99
2414000.0,65.0,38.0,16.0,89.0,2414.0
2414010.0,68.0,39.0,15.0,93.0,2414.01
2414020.0,67.0,40.0,29.0,89.0,2414.02
2414030.0,69.0,40.0,30.0,86.0,2414.03
2414040.0,70.0,39.0,26.0,85.0,2414.04
2414050.0,69.0,40.0,24.0,79.0,2414.05
2414060.0,72.0,38.0,21.0,78.0,2414.06
2414070.0,71.0,38.0,18.0,75.0,2414.07
2414080.0,72.0,38.0,23.0,72.0,2414.08
2414090.0,71.0,38.0,22.0,75.0,2414.09
2414100.0,71.0,37.0,21.0,77.0,2414.1
2414110.0,72.0,36.0,19.0,76.0,2414.11
2414120.0,69.0,37.0,19.0,71.0,2414.12
2414130.0,70.0,38.0,31.0,79.0,2414.13
2414140.0,69.0,38.0,28.0,75.0,2414.14
2414150.0,69.0,38.0,27.0,78.0,2414.15
2414160.0,68.0,38.0,23.0,76.0,2414.16
2414170.0,67.0,39.0,22.0,83.0,2414.17
2414180.0,66.0,37.0,21.0,78.0,2414.18
2414190.0,64.0,37.0,19.0,81.0,2414.19
2414200.0,63.0,38.0,19.0,80.0,2414.2
2414210.0,63.0,40.0,30.0,82.0,2414.21
2414220.0,60.0,41.0,40.0,80.0,2414.22
2414230.0,63.0,41.0,37.0,81.0,2414.23
2414240.0,61.0,39.0,33.0,79.0,2414.24
2414251.0,61.0,40.0,29.0,85.0,2414.251
2414261.0,60.0,39.0,25.0,79.0,2414.261
2414271.0,60.0,38.0,23.0,80.0,2414.271
2414281.0,59.0,37.0,20.0,75.0,2414.281
2414291.0,57.0,37.0,19.0,77.0,2414.291
2414301.0,57.0,37.0,20.0,75.0,2414.301
2414311.0,57.0,39.0,17.0,91.0,2414.311
2414321.0,57.0,37.0,15.0,92.0,2414.321
2414331.0,56.0,39.0,23.0,86.0,2414.331
2414341.0,57.0,41.0,21.0,85.0,2414.341
2414351.0,56.0,42.0,22.0,87.0,2414.351
2414361.0,54.0,43.0,20.0,91.0,2414.361
2414371.0,55.0,43.0,18.0,93.0,2414.371
2414381.0,56.0,44.0,14.0,88.0,2414.381
2414391.0,57.0,44.0,18.0,92.0,2414.391
2414401.0,57.0,43.0,15.0,86.0,2414.401
2414411.0,57.0,43.0,25.0,87.0,2414.411
2414422.0,57.0,43.0,27.0,100.0,2414.422
2414432.0,57.0,43.0,23.0,102.0,2414.432
2414442.0,58.0,42.0,22.0,97.0,2414.442
2414452.0,56.0,41.0,18.0,91.0,2414.452
2414462.0,55.0,39.0,16.0,86.0,2414.462
2414472.0,56.0,39.0,14.0,85.0,2414.472
2414482.0,57.0,40.0,14.0,84.0,2414.482
2414492.0,59.0,39.0,14.0,88.0,2414.492
2414502.0,56.0,40.0,23.0,82.0,2414.502
2414512.0,59.0,41.0,33.0,77.0,2414.512
2414522.0,60.0,41.0,29.0,83.0,2414.522
2414532.0,60.0,40.0,26.0,78.0,2414.532
2414542.0,62.0,39.0,23.0,77.0,2414.542
2414552.0,61.0,39.0,21.0,80.0,2414.552
2414562.0,63.0,38.0,19.0,80.0,2414.562
2414572.0,64.0,37.0,17.0,80.0,2414.572
2414582.0,63.0,37.0,16.0,76.0,2414.582
2414592.0,62.0,37.0,14.0,80.0,2414.592
2414602.0,59.0,39.0,24.0,85.0,2414.602
2414612.0,59.0,39.0,24.0,81.0,2414.612
2414622.0,58.0,39.0,23.0,86.0,2414.622
2414632.0,57.0,38.0,20.0,80.0,2414.632
2414642.0,57.0,37.0,21.0,78.0,2414.642
2414652.0,57.0,37.0,18.0,73.0,2414.652
2414662.0,55.0,37.0,18.0,78.0,2414.662
2414672.0,55.0,37.0,17.0,79.0,2414.672
2414682.0,56.0,36.0,16.0,72.0,2414.682
2414692.0,57.0,36.0,14.0,76.0,2414.692
2414702.0,57.0,38.0,20.0,78.0,2414.702
2414712.0,55.0,39.0,21.0,78.0,2414.712
2414722.0,56.0,39.0,19.0,85.0,2414.722
2414732.0,55.0,37.0,22.0,81.0,2414.732
2414742.0,54.0,38.0,19.0,83.0,2414.742
2414752.0,54.0,40.0,25.0,79.0,2414.752
2414763.0,55.0,42.0,24.0,73.0,2414.763
2414773.0,54.0,40.0,23.0,72.0,2414.773
2414783.0,55.0,39.0,20.0,74.0,2414.783
2414793.0,54.0,38.0,18.0,71.0,2414.793
2414803.0,54.0,38.0,16.0,68.0,2414.803
