time (ms),signal 0,signal 1,signal 2,signal3,time (sec)
2433161.0,61.0,42.0,12.0,80.0,2433.161
2433171.0,63.0,41.0,10.0,85.0,2433.171
2433181.0,63.0,42.0,12.0,81.0,2433.181
2433191.0,65.0,40.0,11.0,78.0,2433.191
2433201.0,65.0,40.0,13.0,73.0,2433.201
2433211.0,65.0,39.0,13.0,81.0,2433.211
2433221.0,67.0,39.0,12.0,90.0,2433.221
2433231.0,66.0,37.0,12.0,84.0,2433.231
2433241.0,68.0,37.0,12.0,79.0,2433.241
2433251.0,67.0,38.0,12.0,82.0,2433.251
2433261.0,69.0,37.0,12.0,85.0,2433.261
2433271.0,69.0,37.0,13.0,84.0,2433.271
2433281.0,70.0,37.0,12.0,86.0,2433.281
2433291.0,72.0,37.0,13.0,89.0,2433.291
2433301.0,71.0,37.0,16.0,90.0,2433.301
2433311.0,71.0,39.0,15.0,86.0,2433.311
2433321.0,70.0,41.0,17.0,84.0,2433.321
2433331.0,69.0,42.0,17.0,82.0,2433.331
2433341.0,68.0,43.0,15.0,85.0,2433.341
2433351.0,66.0,44.0,15.0,80.0,2433.351
2433361.0,69.0,43.0,15.0,78.0,2433.361
2433371.0,66.0,45.0,14.0,73.0,2433.371
2433381.0,66.0,45.0,13.0,67.0,2433.381
2433391.0,65.0,45.0,11.0,74.0,2433.391
2433401.0,62.0,45.0,10.0,70.0,2433.401
2433411.0,63.0,44.0,10.0,71.0,2433.411
2433421.0,61.0,45.0,13.0,74.0,2433.421
2433431.0,62.0,44.0,15.0,69.0,2433.431
2433441.0,62.0,42.0,14.0,69.0,2433.441
2433451.0,62.0,41.0,13.0,68.0,2433.451
2433461.0,62.0,40.0,13.0,72.0,2433.461
2433471.0,64.0,40.0,11.0,70.0,2433.471
2433481.0,64.0,39.0,11.0,72.0,2433.481
2433491.0,63.0,39.0,9.0,78.0,2433.491
2433501.0,64.0,38.0,13.0,79.0,2433.501
2433511.0,64.0,39.0,12.0,87.0,2433.511
2433521.0,65.0,40.0,14.0,91.0,2433.521
2433531.0,64.0,41.0,12.0,84.0,2433.531
2433541.0,65.0,42.0,12.0,82.0,2433.541
2433551.0,66.0,40.0,12.0,79.0,2433.551
2433561.0,65.0,41.0,11.0,79.0,2433.561
2433571.0,65.0,40.0,10.0,80.0,2433.571
2433581.0,64.0,40.0,9.0,88.0,2433.581
2433591.0,63.0,41.0,12.0,88.0,2433.591
2433601.0,65.0,41.0,11.0,83.0,2433.601
2433611.0,63.0,42.0,10.0,86.0,2433.611
2433622.0,63.0,41.0,10.0,102.0,2433.622
2433632.0,62.0,41.0,9.0,97.0,2433.632
2433642.0,63.0,39.0,13.0,91.0,2433.642
2433652.0,61.0,41.0,20.0,86.0,2433.652
2433662.0,62.0,40.0,27.0,85.0,2433.662
2433672.0,63.0,39.0,24.0,91.0,2433.672
2433682.0,63.0,40.0,21.0,95.0,2433.682
2433692.0,62.0,38.0,19.0,97.0,2433.692
2433702.0,61.0,38.0,17.0,89.0,2433.702
2433712.0,59.0,37.0,15.0,81.0,2433.712
2433722.0,59.0,37.0,15.0,77.0,2433.722
2433732.0,57.0,36.0,13.0,77.0,2433.732
2433742.0,58.0,36.0,14.0,83.0,2433.742
2433752.0,57.0,37.0,13.0,89.0,2433.752
2433762.0,55.0,36.0,14.0,85.0,2433.762
2433772.0,56.0,37.0,13.0,83.0,2433.772
2433782.0,56.0,37.0,12.0,81.0,2433.782
2433792.0,56.0,36.0,12.0,84.0,2433.792
2433802.0,56.0,37.0,10.0,86.0,2433.802
2433812.0,57.0,38.0,11.0,90.0,2433.812
2433822.0,58.0,36.0,10.0,92.0,2433.822
2433832.0,57.0,36.0,10.0,82.0,2433.832
2433842.0,56.0,36.0,11.0,77.0,2433.842
2433852.0,56.0,37.0,13.0,78.0,2433.852
2433862.0,57.0,37.0,13.0,79.0,2433.862
2433872.0,56.0,37.0,13.0,81.0,2433.872
2433882.0,57.0,37.0,17.0,80.0,2433.882
2433892.0,57.0,37.0,16.0,80.0,2433.892
2433902.0,57.0,38.0,15.0,76.0,2433.902
2433912.0,59.0,36.0,14.0,78.0,2433.912
2433922.0,59.0,37.0,13.0,73.0,2433.922
2433932.0,58.0,36.0,13.0,70.0,2433.932
2433942.0,58.0,37.0,16.0,72.0,2433.942
2433952.0,58.0,37.0,15.0,67.0,2433.952
2433963.0,56.0,36.0,14.0,73.0,2433.963
2433973.0,57.0,38.0,12.0,75.0,2433.973
2433983.0,56.0,36.0,11.0,77.0,2433.983
2433993.0,55.0,38.0,11.0,73.0,2433.993
2434003.0,55.0,37.0,11.0,69.0,2434.003
2434013.0,53.0,36.0,8.0,68.0,2434.013
2434023.0,52.0,36.0,10.0,67.0,2434.023
2434033.0,52.0,35.0,10.0,68.0,2434.033
2434043.0,51.0,36.0,9.0,67.0,2434.043
2434053.0,50.0,35.0,9.0,65.0,2434.053
2434063.0,50.0,35.0,11.0,66.0,2434.063
2434073.0,50.0,35.0,10.0,67.0,2434.073
2434083.0,50.0,35.0,10.0,66.0,2434.083
2434093.0,48.0,36.0,8.0,65.0,2434.093
2434103.0,48.0,36.0,13.0,63.0,2434.103
2434113.0,48.0,36.0,11.0,67.0,2434.113
2434123.0,50.0,36.0,11.0,68.0,2434.123
2434134.0,50.0,37.0,11.0,68.0,2434.134
2434144.0,52.0,37.0,12.0,66.0,2434.144
2434154.0,52.0,35.0,11.0,65.0,2434.154
2434164.0,52.0,35.0,10.0,67.0,2434.164
2434174.0,52.0,35.0,10.0,77.0,2434.174
2434184.0,52.0,35.0,10.0,75.0,2434.184
2434194.0,53.0,35.0,17.0,72.0,2434.194
2434204.0,51.0,35.0,16.0,73.0,2434.204
2434214.0,50.0,35.0,15.0,70.0,2434.214
2434224.0,50.0,35.0,14.0,85.0,2434.224
2434234.0,48.0,36.0,13.0,86.0,2434.234
2434244.0,49.0,36.0,12.0,85.0,2434.244
2434254.0,51.0,38.0,11.0,84.0,2434.254
2434264.0,50.0,38.0,12.0,84.0,2434.264
2434274.0,51.0,39.0,13.0,79.0,2434.274
2434284.0,51.0,40.0,13.0,76.0,2434.284
2434294.0,50.0,40.0,12.0,83.0,2434.294
2434304.0,50.0,41.0,12.0,88.0,2434.304
2434314.0,49.0,40.0,17.0,88.0,2434.314
2434324.0,49.0,39.0,15.0,88.0,2434.324
2434334.0,48.0,40.0,18.0,85.0,2434.334
2434344.0,48.0,40.0,17.0,88.0,2434.344
2434354.0,49.0,41.0,17.0,93.0,2434.354
2434364.0,49.0,39.0,16.0,90.0,2434.364
2434374.0,50.0,40.0,14.0,87.0,2434.374
2434384.0,51.0,40.0,13.0,83.0,2434.384
2434394.0,50.0,42.0,12.0,79.0,2434.394
2434404.0,49.0,45.0,11.0,81.0,2434.404
2434414.0,49.0,43.0,10.0,80.0,2434.414
2434424.0,50.0,43.0,9.0,77.0,2434.424
2434434.0,50.0,42.0,8.0,80.0,2434.434
2434444.0,51.0,43.0,8.0,81.0,2434.444
2434454.0,52.0,43.0,9.0,80.0,2434.454
2434464.0,53.0,43.0,10.0,83.0,2434.464
2434475.0,52.0,43.0,14.0,81.0,2434.475
2434485.0,54.0,44.0,13.0,81.0,2434.485
2434495.0,53.0,44.0,12.0,76.0,2434.495
2434505.0,55.0,43.0,13.0,77.0,2434.505
2434515.0,54.0,43.0,11.0,73.0,2434.515
2434525.0,54.0,43.0,10.0,74.0,2434.525
2434535.0,55.0,43.0,13.0,72.0,2434.535
2434545.0,55.0,41.0,13.0,70.0,2434.545
2434555.0,56.0,42.0,14.0,84.0,2434.555
2434565.0,56.0,42.0,12.0,81.0,2434.565
2434575.0,57.0,43.0,12.0,77.0,2434.575
2434585.0,57.0,44.0,11.0,82.0,2434.585
2434595.0,57.0,45.0,10.0,81.0,2434.595
2434605.0,59.0,44.0,8.0,77.0,2434.605
2434615.0,59.0,46.0,9.0,76.0,2434.615
2434625.0,61.0,44.0,8.0,73.0,2434.625
2434635.0,60.0,48.0,10.0,83.0,2434.635
2434646.0,62.0,47.0,10.0,86.0,2434.646
2434656.0,63.0,46.0,11.0,80.0,2434.656
2434666.0,62.0,47.0,12.0,75.0,2434.666
2434676.0,61.0,48.0,13.0,73.0,2434.676
2434686.0,60.0,47.0,10.0,68.0,2434.686
2434696.0,60.0,46.0,10.0,83.0,2434.696
2434706.0,61.0,47.0,11.0,86.0,2434.706
2434716.0,61.0,46.0,11.0,84.0,2434.716
2434726.0,62.0,46.0,10.0,83.0,2434.726
2434736.0,60.0,46.0,12.0,88.0,2434.736
2434746.0,61.0,46.0,16.0,87.0,2434.746
2434756.0,61.0,46.0,14.0,89.0,2434.756
2434766.0,61.0,45.0,14.0,95.0,2434.766
2434776.0,61.0,45.0,13.0,94.0,2434.776
2434786.0,59.0,47.0,18.0,88.0,2434.786
2434796.0,58.0,48.0,20.0,83.0,2434.796
2434806.0,59.0,47.0,20.0,81.0,2434.806
2434816.0,57.0,47.0,18.0,75.0,2434.816
2434826.0,56.0,48.0,17.0,87.0,2434.826
2434836.0,57.0,48.0,16.0,82.0,2434.836
2434846.0,58.0,50.0,15.0,82.0,2434.846
2434856.0,57.0,49.0,15.0,79.0,2434.856
2434866.0,57.0,51.0,15.0,77.0,2434.866
2434876.0,57.0,51.0,13.0,82.0,2434.876
2434886.0,56.0,52.0,12.0,87.0,2434.886
2434896.0,56.0,52.0,11.0,85.0,2434.896
2434906.0,56.0,52.0,13.0,80.0,2434.906
2434916.0,57.0,53.0,12.0,78.0,2434.916
2434926.0,58.0,52.0,11.0,73.0,2434.926
2434936.0,59.0,52.0,13.0,78.0,2434.936
2434946.0,59.0,54.0,12.0,84.0,2434.946
2434956.0,59.0,55.0,10.0,79.0,2434.956
2434966.0,60.0,55.0,12.0,74.0,2434.966
2434976.0,59.0,57.0,11.0,72.0,2434.976
2434987.0,59.0,55.0,9.0,65.0,2434.987
2434997.0,59.0,57.0,9.0,66.0,2434.997
2435007.0,60.0,57.0,11.0,84.0,2435.007
2435017.0,61.0,57.0,12.0,90.0,2435.017
2435027.0,61.0,57.0,11.0,88.0,2435.027
2435037.0,61.0,56.0,13.0,80.0,2435.037
2435047.0,62.0,55.0,12.0,76.0,2435.047
2435057.0,63.0,54.0,12.0,76.0,2435.057
2435067.0,63.0,54.0,11.0,85.0,2435.067
2435077.0,64.0,52.0,10.0,85.0,2435.077
2435087.0,64.0,51.0,9.0,80.0,2435.087
2435097.0,64.0,51.0,7.0,76.0,2435.097
2435107.0,65.0,49.0,9.0,69.0,2435.107
2435117.0,65.0,51.0,9.0,66.0,2435.117
2435127.0,66.0,50.0,9.0,74.0,2435.127
2435137.0,65.0,50.0,9.0,83.0,2435.137
2435147.0,64.0,49.0,9.0,81.0,2435.147
2435158.0,63.0,49.0,9.0,77.0,2435.158
2435168.0,60.0,48.0,7.0,86.0,2435.168
2435178.0,60.0,47.0,9.0,84.0,2435.178
2435188.0,59.0,46.0,9.0,78.0,2435.188
2435198.0,58.0,44.0,8.0,86.0,2435.198
2435208.0,56.0,45.0,8.0,85.0,2435.208
2435218.0,56.0,44.0,7.0,81.0,2435.218
2435228.0,57.0,44.0,10.0,80.0,2435.228
2435238.0,54.0,45.0,10.0,82.0,2435.238
2435248.0,54.0,45.0,10.0,84.0,2435.248
2435258.0,54.0,46.0,9.0,85.0,2435.258
2435268.0,53.0,46.0,9.0,87.0,2435.268
2435278.0,53.0,46.0,9.0,82.0,2435.278
2435288.0,54.0,47.0,15.0,78.0,2435.288
2435298.0,56.0,45.0,13.0,74.0,2435.298
2435308.0,55.0,45.0,11.0,73.0,2435.308
2435318.0,55.0,44.0,10.0,77.0,2435.318
2435328.0,56.0,45.0,10.0,77.0,2435.328
2435338.0,54.0,44.0,9.0,75.0,2435.338
2435348.0,55.0,43.0,10.0,72.0,2435.348
2435358.0,54.0,43.0,13.0,69.0,2435.358
2435368.0,56.0,43.0,14.0,66.0,2435.368
2435378.0,56.0,43.0,12.0,66.0,2435.378
2435388.0,54.0,43.0,12.0,78.0,2435.388
2435398.0,56.0,42.0,12.0,82.0,2435.398
2435408.0,56.0,41.0,11.0,81.0,2435.408
2435418.0,55.0,39.0,10.0,77.0,2435.418
2435428.0,55.0,40.0,9.0,76.0,2435.428
2435438.0,56.0,39.0,9.0,87.0,2435.438
2435448.0,54.0,38.0,8.0,91.0,2435.448
2435458.0,57.0,38.0,9.0,87.0,2435.458
2435468.0,57.0,39.0,10.0,88.0,2435.468
2435478.0,56.0,38.0,10.0,80.0,2435.478
2435488.0,56.0,38.0,9.0,76.0,2435.488
2435499.0,57.0,39.0,9.0,74.0,2435.499
2435509.0,58.0,39.0,10.0,75.0,2435.509
2435519.0,57.0,39.0,9.0,89.0,2435.519
2435529.0,57.0,38.0,7.0,87.0,2435.529
2435539.0,57.0,40.0,8.0,82.0,2435.539
2435549.0,55.0,39.0,8.0,79.0,2435.549
2435559.0,58.0,38.0,9.0,74.0,2435.559
2435569.0,57.0,37.0,8.0,73.0,2435.569
2435579.0,57.0,37.0,8.0,66.0,2435.579
2435589.0,58.0,37.0,7.0,78.0,2435.589
2435599.0,55.0,38.0,8.0,78.0,2435.599
2435609.0,57.0,39.0,8.0,74.0,2435.609
2435619.0,57.0,40.0,7.0,80.0,2435.619
2435629.0,57.0,39.0,7.0,76.0,2435.629
2435639.0,57.0,39.0,9.0,81.0,2435.639
2435649.0,56.0,39.0,12.0,78.0,2435.649
2435659.0,57.0,38.0,12.0,71.0,2435.659
2435670.0,58.0,39.0,11.0,71.0,2435.67
2435680.0,58.0,39.0,11.0,71.0,2435.68
2435690.0,59.0,40.0,10.0,74.0,2435.69
2435700.0,59.0,39.0,9.0,82.0,2435.7
2435710.0,61.0,39.0,9.0,83.0,2435.71
2435720.0,62.0,41.0,11.0,77.0,2435.72
2435730.0,61.0,42.0,11.0,77.0,2435.73
2435740.0,62.0,42.0,16.0,76.0,2435.74
2435750.0,63.0,43.0,15.0,71.0,2435.75
2435760.0,63.0,44.0,14.0,79.0,2435.76
2435770.0,63.0,44.0,13.0,86.0,2435.77
2435780.0,64.0,45.0,11.0,89.0,2435.78
2435790.0,64.0,47.0,13.0,88.0,2435.79
2435800.0,64.0,47.0,13.0,86.0,2435.8
2435810.0,63.0,46.0,12.0,79.0,2435.81
2435820.0,62.0,47.0,13.0,79.0,2435.82
2435830.0,62.0,47.0,12.0,86.0,2435.83
2435840.0,62.0,46.0,11.0,88.0,2435.84
2435850.0,59.0,46.0,11.0,80.0,2435.85
2435860.0,57.0,47.0,9.0,77.0,2435.86
2435870.0,56.0,48.0,10.0,70.0,2435.87
2435880.0,55.0,47.0,9.0,70.0,2435.88
2435890.0,54.0,47.0,10.0,76.0,2435.89
2435900.0,53.0,48.0,11.0,74.0,2435.9
2435910.0,51.0,49.0,10.0,71.0,2435.91
2435920.0,53.0,47.0,9.0,65.0,2435.92
2435930.0,52.0,49.0,8.0,62.0,2435.93
2435940.0,51.0,50.0,10.0,62.0,2435.94
2435950.0,49.0,50.0,9.0,63.0,2435.95
2435960.0,49.0,51.0,8.0,71.0,2435.96
2435970.0,49.0,52.0,9.0,72.0,2435.97
2435980.0,48.0,53.0,8.0,77.0,2435.98
2435990.0,52.0,52.0,11.0,78.0,2435.99
2436000.0,50.0,54.0,10.0,75.0,2436.0
2436011.0,52.0,51.0,12.0,82.0,2436.011
2436021.0,52.0,51.0,9.0,77.0,2436.021
2436031.0,50.0,52.0,14.0,73.0,2436.031
2436041.0,52.0,51.0,18.0,73.0,2436.041
2436051.0,53.0,51.0,17.0,73.0,2436.051
2436061.0,54.0,48.0,17.0,76.0,2436.061
2436071.0,53.0,50.0,17.0,79.0,2436.071
2436081.0,53.0,51.0,16.0,81.0,2436.081
2436091.0,53.0,52.0,15.0,79.0,2436.091
2436101.0,54.0,51.0,15.0,85.0,2436.101
2436111.0,54.0,51.0,14.0,85.0,2436.111
2436121.0,54.0,51.0,14.0,87.0,2436.121
2436131.0,54.0,52.0,13.0,84.0,2436.131
2436141.0,54.0,50.0,12.0,80.0,2436.141
2436151.0,53.0,50.0,11.0,80.0,2436.151
2436161.0,54.0,49.0,12.0,75.0,2436.161
2436171.0,53.0,47.0,10.0,80.0,2436.171
2436182.0,52.0,45.0,12.0,77.0,2436.182
2436192.0,52.0,44.0,12.0,78.0,2436.192
2436202.0,51.0,44.0,13.0,74.0,2436.202
2436212.0,50.0,45.0,14.0,73.0,2436.212
2436222.0,49.0,44.0,12.0,68.0,2436.222
2436232.0,49.0,43.0,11.0,64.0,2436.232
2436242.0,49.0,42.0,9.0,61.0,2436.242
2436252.0,49.0,41.0,9.0,76.0,2436.252
2436262.0,50.0,41.0,8.0,72.0,2436.262
2436272.0,50.0,40.0,8.0,66.0,2436.272
2436282.0,51.0,39.0,8.0,60.0,2436.282
2436292.0,51.0,39.0,7.0,57.0,2436.292
2436302.0,54.0,40.0,7.0,57.0,2436.302
2436312.0,55.0,40.0,5.0,54.0,2436.312
2436322.0,58.0,41.0,6.0,52.0,2436.322
2436332.0,69.0,47.0,5.0,51.0,2436.332
2436342.0,85.0,50.0,5.0,48.0,2436.342
2436352.0,86.0,47.0,5.0,48.0,2436.352
2436362.0,85.0,45.0,5.0,46.0,2436.362
2436372.0,84.0,45.0,6.0,43.0,2436.372
2436382.0,81.0,46.0,4.0,43.0,2436.382
2436392.0,78.0,57.0,4.0,47.0,2436.392
2436402.0,85.0,56.0,4.0,57.0,2436.402
2436412.0,85.0,91.0,7.0,64.0,2436.412
2436422.0,95.0,118.0,14.0,82.0,2436.422
2436432.0,100.0,119.0,13.0,85.0,2436.432
2436442.0,107.0,174.0,30.0,102.0,2436.442
2436452.0,122.0,170.0,26.0,99.0,2436.452
2436462.0,140.0,171.0,29.0,104.0,2436.462
2436472.0,156.0,211.0,28.0,107.0,2436.472
2436482.0,178.0,212.0,25.0,106.0,2436.482
2436492.0,177.0,200.0,23.0,100.0,2436.492
2436502.0,174.0,241.0,27.0,100.0,2436.502
2436512.0,173.0,248.0,39.0,106.0,2436.512
2436523.0,159.0,223.0,41.0,111.0,2436.523
2436533.0,150.0,237.0,38.0,105.0,2436.533
2436543.0,141.0,240.0,35.0,101.0,2436.543
2436553.0,139.0,255.0,35.0,108.0,2436.553
2436563.0,146.0,283.0,32.0,106.0,2436.563
2436573.0,142.0,294.0,31.0,108.0,2436.573
2436583.0,133.0,308.0,29.0,107.0,2436.583
2436593.0,125.0,304.0,32.0,111.0,2436.593
2436603.0,126.0,318.0,32.0,116.0,2436.603
2436613.0,122.0,324.0,32.0,120.0,2436.613
2436623.0,115.0,325.0,33.0,126.0,2436.623
2436633.0,113.0,345.0,29.0,124.0,2436.633
2436643.0,117.0,345.0,31.0,126.0,2436.643
2436653.0,109.0,338.0,30.0,129.0,2436.653
2436663.0,108.0,332.0,30.0,128.0,2436.663
2436673.0,102.0,330.0,27.0,128.0,2436.673
2436683.0,96.0,326.0,27.0,135.0,2436.683
2436694.0,94.0,328.0,24.0,134.0,2436.694
2436704.0,90.0,318.0,24.0,132.0,2436.704
2436714.0,86.0,310.0,22.0,141.0,2436.714
2436724.0,93.0,318.0,24.0,139.0,2436.724
2436734.0,90.0,303.0,22.0,138.0,2436.734
2436744.0,85.0,299.0,23.0,141.0,2436.744
2436754.0,87.0,291.0,21.0,139.0,2436.754
2436764.0,85.0,283.0,21.0,137.0,2436.764
2436774.0,85.0,278.0,19.0,128.0,2436.774
2436784.0,84.0,272.0,17.0,122.0,2436.784
2436794.0,80.0,269.0,22.0,134.0,2436.794
2436804.0,82.0,278.0,21.0,130.0,2436.804
2436814.0,80.0,259.0,18.0,127.0,2436.814
2436824.0,77.0,250.0,18.0,125.0,2436.824
2436834.0,77.0,246.0,16.0,121.0,2436.834
2436844.0,78.0,249.0,14.0,116.0,2436.844
2436854.0,78.0,244.0,13.0,115.0,2436.854
2436864.0,75.0,233.0,12.0,116.0,2436.864
2436874.0,74.0,224.0,13.0,108.0,2436.874
2436884.0,75.0,225.0,12.0,105.0,2436.884
2436894.0,73.0,218.0,11.0,107.0,2436.894
2436904.0,70.0,211.0,10.0,103.0,2436.904
2436914.0,71.0,210.0,9.0,102.0,2436.914
2436924.0,68.0,200.0,9.0,102.0,2436.924
2436934.0,71.0,207.0,8.0,98.0,2436.934
2436944.0,70.0,199.0,8.0,97.0,2436.944
2436954.0,68.0,191.0,6.0,96.0,2436.954
2436964.0,68.0,189.0,6.0,89.0,2436.964
2436974.0,68.0,187.0,6.0,84.0,2436.974
2436984.0,67.0,174.0,8.0,84.0,2436.984
2436994.0,70.0,168.0,11.0,86.0,2436.994
2437004.0,67.0,166.0,9.0,84.0,2437.004
2437014.0,67.0,158.0,9.0,78.0,2437.014
2437024.0,69.0,154.0,8.0,75.0,2437.024
2437035.0,68.0,154.0,6.0,69.0,2437.035
2437045.0,66.0,144.0,7.0,65.0,2437.045
2437055.0,66.0,142.0,6.0,64.0,2437.055
2437065.0,65.0,142.0,9.0,60.0,2437.065
2437075.0,66.0,143.0,8.0,59.0,2437.075
2437085.0,65.0,136.0,8.0,56.0,2437.085
2437095.0,66.0,135.0,8.0,52.0,2437.095
2437105.0,64.0,129.0,6.0,54.0,2437.105
2437115.0,63.0,125.0,6.0,51.0,2437.115
2437125.0,62.0,125.0,6.0,51.0,2437.125
2437135.0,62.0,122.0,8.0,52.0,2437.135
2437145.0,60.0,119.0,8.0,55.0,2437.145
2437155.0,61.0,123.0,8.0,51.0,2437.155
2437165.0,62.0,117.0,7.0,49.0,2437.165
2437175.0,58.0,114.0,6.0,54.0,2437.175
2437185.0,58.0,113.0,6.0,52.0,2437.185
2437195.0,59.0,113.0,7.0,53.0,2437.195
2437206.0,58.0,110.0,6.0,52.0,2437.206
2437216.0,57.0,106.0,5.0,49.0,2437.216
2437226.0,60.0,106.0,5.0,47.0,2437.226
2437236.0,60.0,103.0,6.0,47.0,2437.236
2437246.0,60.0,103.0,5.0,45.0,2437.246
2437256.0,58.0,97.0,5.0,43.0,2437.256
2437266.0,57.0,96.0,4.0,42.0,2437.266
2437276.0,56.0,95.0,4.0,50.0,2437.276
2437286.0,56.0,99.0,4.0,48.0,2437.286
2437296.0,56.0,94.0,5.0,48.0,2437.296
2437306.0,58.0,91.0,6.0,47.0,2437.306
2437316.0,58.0,97.0,4.0,45.0,2437.316
2437326.0,56.0,93.0,5.0,43.0,2437.326
2437336.0,57.0,90.0,5.0,43.0,2437.336
2437346.0,56.0,89.0,3.0,41.0,2437.346
2437356.0,58.0,91.0,5.0,42.0,2437.356
2437366.0,56.0,88.0,4.0,39.0,2437.366
2437376.0,58.0,89.0,4.0,38.0,2437.376
2437386.0,56.0,91.0,4.0,42.0,2437.386
2437396.0,54.0,87.0,4.0,41.0,2437.396
2437406.0,56.0,84.0,4.0,40.0,2437.406
2437416.0,54.0,82.0,3.0,38.0,2437.416
2437426.0,53.0,80.0,4.0,39.0,2437.426
2437436.0,52.0,85.0,4.0,39.0,2437.436
2437446.0,55.0,86.0,5.0,40.0,2437.446
2437456.0,55.0,83.0,6.0,40.0,2437.456
2437466.0,53.0,79.0,5.0,38.0,2437.466
2437476.0,52.0,77.0,5.0,40.0,2437.476
2437486.0,53.0,79.0,5.0,40.0,2437.486
2437496.0,55.0,85.0,5.0,38.0,2437.496
2437506.0,54.0,84.0,5.0,41.0,2437.506
2437516.0,54.0,80.0,6.0,43.0,2437.516
2437526.0,54.0,79.0,5.0,40.0,2437.526
2437536.0,52.0,77.0,6.0,42.0,2437.536
2437547.0,51.0,73.0,6.0,39.0,2437.547
2437557.0,51.0,73.0,6.0,38.0,2437.557
2437567.0,51.0,70.0,6.0,38.0,2437.567
2437577.0,50.0,67.0,5.0,39.0,2437.577
2437587.0,51.0,69.0,6.0,50.0,2437.587
2437597.0,52.0,67.0,6.0,47.0,2437.597
2437607.0,51.0,66.0,6.0,47.0,2437.607
2437617.0,52.0,64.0,6.0,46.0,2437.617
2437627.0,52.0,70.0,5.0,45.0,2437.627
2437637.0,52.0,67.0,4.0,44.0,2437.637
2437647.0,52.0,68.0,4.0,47.0,2437.647
2437657.0,52.0,67.0,4.0,45.0,2437.657
2437667.0,52.0,67.0,5.0,43.0,2437.667
2437677.0,52.0,65.0,4.0,43.0,2437.677
2437687.0,51.0,62.0,4.0,45.0,2437.687
2437697.0,51.0,61.0,3.0,45.0,2437.697
2437707.0,49.0,57.0,3.0,43.0,2437.707
2437718.0,49.0,55.0,4.0,42.0,2437.718
2437728.0,52.0,62.0,4.0,42.0,2437.728
2437738.0,53.0,59.0,5.0,41.0,2437.738
2437748.0,51.0,58.0,4.0,43.0,2437.748
2437758.0,52.0,56.0,4.0,41.0,2437.758
2437768.0,51.0,54.0,4.0,43.0,2437.768
2437778.0,52.0,59.0,4.0,42.0,2437.778
2437788.0,51.0,56.0,4.0,48.0,2437.788
2437798.0,50.0,54.0,4.0,46.0,2437.798
2437808.0,50.0,52.0,4.0,46.0,2437.808
2437818.0,50.0,52.0,4.0,45.0,2437.818
2437828.0,50.0,49.0,4.0,45.0,2437.828
2437838.0,50.0,48.0,4.0,44.0,2437.838
2437848.0,50.0,48.0,4.0,42.0,2437.848
2437858.0,53.0,49.0,4.0,44.0,2437.858
2437868.0,52.0,50.0,6.0,46.0,2437.868
2437878.0,52.0,48.0,7.0,49.0,2437.878
2437888.0,50.0,47.0,5.0,47.0,2437.888
2437898.0,51.0,50.0,5.0,47.0,2437.898
2437908.0,51.0,52.0,6.0,45.0,2437.908
2437918.0,50.0,52.0,6.0,49.0,2437.918
2437928.0,53.0,58.0,9.0,49.0,2437.928
2437938.0,53.0,58.0,9.0,46.0,2437.938
2437948.0,53.0,57.0,8.0,47.0,2437.948
2437958.0,51.0,55.0,6.0,45.0,2437.958
2437968.0,50.0,56.0,6.0,46.0,2437.968
2437978.0,51.0,55.0,6.0,46.0,2437.978
2437988.0,51.0,55.0,8.0,48.0,2437.988
2437998.0,50.0,52.0,8.0,44.0,2437.998
2438008.0,49.0,52.0,8.0,43.0,2438.008
2438018.0,49.0,52.0,7.0,45.0,2438.018
2438028.0,49.0,50.0,7.0,43.0,2438.028
2438038.0,48.0,49.0,6.0,44.0,2438.038
2438048.0,49.0,49.0,6.0,43.0,2438.048
2438059.0,49.0,53.0,5.0,52.0,2438.059
2438069.0,49.0,50.0,5.0,48.0,2438.069
2438079.0,48.0,49.0,4.0,46.0,2438.079
2438089.0,49.0,53.0,5.0,48.0,2438.089
2438099.0,49.0,53.0,5.0,45.0,2438.099
2438109.0,47.0,51.0,5.0,43.0,2438.109
2438119.0,48.0,51.0,5.0,44.0,2438.119
2438129.0,48.0,52.0,5.0,46.0,2438.129
2438139.0,48.0,50.0,6.0,48.0,2438.139
2438149.0,48.0,50.0,6.0,56.0,2438.149
2438159.0,48.0,49.0,7.0,51.0,2438.159
2438169.0,49.0,47.0,6.0,48.0,2438.169
2438179.0,48.0,49.0,6.0,50.0,2438.179
2438189.0,50.0,47.0,7.0,51.0,2438.189
2438199.0,50.0,49.0,6.0,52.0,2438.199
2438209.0,49.0,49.0,6.0,47.0,2438.209
2438219.0,48.0,47.0,6.0,53.0,2438.219
2438230.0,47.0,46.0,6.0,54.0,2438.23
2438240.0,47.0,45.0,6.0,52.0,2438.24
2438250.0,46.0,46.0,4.0,52.0,2438.25
2438260.0,47.0,45.0,5.0,49.0,2438.26
2438270.0,47.0,47.0,6.0,54.0,2438.27
2438280.0,46.0,49.0,5.0,52.0,2438.28
2438290.0,47.0,50.0,6.0,50.0,2438.29
2438300.0,47.0,49.0,5.0,49.0,2438.3
2438310.0,48.0,49.0,6.0,48.0,2438.31
2438320.0,48.0,49.0,5.0,52.0,2438.32
2438330.0,48.0,48.0,5.0,49.0,2438.33
2438340.0,47.0,47.0,5.0,48.0,2438.34
2438350.0,47.0,46.0,4.0,44.0,2438.35
2438360.0,46.0,44.0,4.0,43.0,2438.36
2438370.0,44.0,44.0,5.0,43.0,2438.37
2438380.0,52.0,47.0,5.0,41.0,2438.38
2438390.0,51.0,49.0,4.0,46.0,2438.39
2438400.0,53.0,51.0,11.0,51.0,2438.4
2438410.0,52.0,51.0,13.0,49.0,2438.41
2438420.0,50.0,50.0,11.0,53.0,2438.42
2438430.0,51.0,49.0,11.0,51.0,2438.43
2438440.0,50.0,49.0,9.0,47.0,2438.44
2438450.0,51.0,49.0,9.0,50.0,2438.45
2438460.0,52.0,53.0,8.0,49.0,2438.46
2438470.0,50.0,50.0,7.0,47.0,2438.47
2438480.0,52.0,49.0,10.0,52.0,2438.48
2438490.0,50.0,50.0,9.0,50.0,2438.49
2438500.0,49.0,47.0,9.0,46.0,2438.5
2438510.0,50.0,47.0,8.0,46.0,2438.51
2438520.0,50.0,48.0,8.0,56.0,2438.52
2438530.0,50.0,50.0,8.0,53.0,2438.53
2438540.0,52.0,50.0,8.0,52.0,2438.54
2438550.0,53.0,49.0,8.0,51.0,2438.55
2438560.0,53.0,49.0,7.0,50.0,2438.56
2438571.0,52.0,47.0,7.0,48.0,2438.571
2438581.0,52.0,46.0,6.0,48.0,2438.581
2438591.0,53.0,47.0,8.0,49.0,2438.591
2438601.0,53.0,49.0,7.0,48.0,2438.601
2438611.0,52.0,49.0,6.0,50.0,2438.611
2438621.0,53.0,47.0,10.0,53.0,2438.621
2438631.0,54.0,51.0,9.0,50.0,2438.631
2438641.0,52.0,48.0,8.0,47.0,2438.641
2438651.0,52.0,48.0,7.0,45.0,2438.651
2438661.0,51.0,46.0,7.0,44.0,2438.661
2438671.0,53.0,46.0,7.0,43.0,2438.671
2438681.0,52.0,46.0,6.0,43.0,2438.681
2438691.0,53.0,45.0,6.0,40.0,2438.691
2438701.0,54.0,46.0,6.0,45.0,2438.701
2438711.0,53.0,45.0,6.0,44.0,2438.711
2438721.0,52.0,46.0,6.0,48.0,2438.721
2438731.0,53.0,45.0,5.0,47.0,2438.731
2438742.0,55.0,47.0,5.0,43.0,2438.742
2438752.0,54.0,47.0,5.0,43.0,2438.752
2438762.0,54.0,48.0,4.0,44.0,2438.762
2438772.0,55.0,51.0,7.0,47.0,2438.772
2438782.0,57.0,51.0,7.0,46.0,2438.782
2438792.0,60.0,52.0,6.0,45.0,2438.792
2438802.0,60.0,52.0,6.0,45.0,2438.802
2438812.0,62.0,50.0,7.0,45.0,2438.812
2438822.0,62.0,50.0,5.0,49.0,2438.822
2438832.0,61.0,48.0,6.0,45.0,2438.832
2438842.0,59.0,48.0,5.0,46.0,2438.842
2438852.0,59.0,49.0,5.0,46.0,2438.852
2438862.0,60.0,48.0,8.0,52.0,2438.862
2438872.0,59.0,48.0,8.0,50.0,2438.872
2438882.0,59.0,46.0,8.0,46.0,2438.882
2438892.0,58.0,48.0,6.0,47.0,2438.892
2438902.0,60.0,47.0,6.0,47.0,2438.902
2438912.0,61.0,48.0,6.0,46.0,2438.912
2438922.0,59.0,47.0,6.0,46.0,2438.922
2438932.0,59.0,45.0,5.0,46.0,2438.932
2438942.0,61.0,47.0,5.0,43.0,2438.942
2438952.0,61.0,45.0,6.0,45.0,2438.952
2438962.0,62.0,46.0,5.0,45.0,2438.962
2438972.0,60.0,48.0,4.0,43.0,2438.972
2438982.0,62.0,49.0,4.0,42.0,2438.982
2438992.0,62.0,51.0,5.0,44.0,2438.992
2439002.0,61.0,49.0,4.0,41.0,2439.002
2439012.0,59.0,49.0,4.0,44.0,2439.012
2439022.0,60.0,47.0,4.0,43.0,2439.022
2439032.0,58.0,48.0,5.0,43.0,2439.032
2439042.0,56.0,49.0,4.0,42.0,2439.042
2439052.0,57.0,49.0,5.0,49.0,2439.052
2439062.0,58.0,52.0,3.0,47.0,2439.062
2439072.0,58.0,50.0,4.0,47.0,2439.072
2439083.0,59.0,48.0,5.0,45.0,2439.083
2439093.0,58.0,48.0,5.0,46.0,2439.093
2439103.0,59.0,47.0,4.0,46.0,2439.103
2439113.0,57.0,48.0,4.0,44.0,2439.113
2439123.0,57.0,48.0,4.0,41.0,2439.123
2439133.0,56.0,49.0,4.0,44.0,2439.133
2439143.0,59.0,52.0,4.0,47.0,2439.143
2439153.0,59.0,50.0,5.0,46.0,2439.153
2439163.0,56.0,50.0,5.0,45.0,2439.163
2439173.0,58.0,49.0,6.0,43.0,2439.173
2439183.0,55.0,48.0,4.0,41.0,2439.183
2439193.0,54.0,46.0,4.0,42.0,2439.193
2439203.0,54.0,46.0,4.0,43.0,2439.203
2439213.0,52.0,46.0,5.0,43.0,2439.213
2439223.0,54.0,44.0,5.0,44.0,2439.223
2439233.0,53.0,45.0,5.0,41.0,2439.233
2439243.0,55.0,43.0,6.0,42.0,2439.243
2439254.0,52.0,49.0,4.0,43.0,2439.254
2439264.0,54.0,51.0,5.0,43.0,2439.264
2439274.0,58.0,56.0,4.0,43.0,2439.274
2439284.0,56.0,59.0,4.0,41.0,2439.284
2439294.0,56.0,70.0,5.0,44.0,2439.294
2439304.0,57.0,74.0,3.0,48.0,2439.304
2439314.0,57.0,83.0,5.0,47.0,2439.314
2439324.0,55.0,81.0,5.0,45.0,2439.324
2439334.0,55.0,79.0,4.0,44.0,2439.334
2439344.0,56.0,75.0,4.0,43.0,2439.344
2439354.0,55.0,73.0,5.0,45.0,2439.354
2439364.0,56.0,68.0,6.0,46.0,2439.364
2439374.0,57.0,63.0,5.0,50.0,2439.374
2439384.0,57.0,68.0,6.0,48.0,2439.384
2439394.0,58.0,66.0,6.0,49.0,2439.394
2439404.0,58.0,65.0,6.0,50.0,2439.404
2439414.0,60.0,65.0,5.0,47.0,2439.414
2439424.0,60.0,64.0,6.0,48.0,2439.424
2439434.0,61.0,60.0,6.0,46.0,2439.434
2439444.0,61.0,66.0,5.0,44.0,2439.444
2439454.0,61.0,71.0,7.0,44.0,2439.454
2439464.0,60.0,67.0,6.0,41.0,2439.464
2439474.0,60.0,64.0,6.0,40.0,2439.474
2439484.0,59.0,60.0,5.0,37.0,2439.484
2439494.0,59.0,58.0,6.0,40.0,2439.494
2439504.0,57.0,58.0,9.0,43.0,2439.504
2439514.0,57.0,56.0,9.0,43.0,2439.514
2439524.0,59.0,55.0,12.0,44.0,2439.524
2439534.0,60.0,54.0,13.0,46.0,2439.534
2439544.0,64.0,55.0,13.0,46.0,2439.544
2439554.0,64.0,57.0,18.0,47.0,2439.554
2439564.0,68.0,56.0,18.0,53.0,2439.564
2439574.0,67.0,55.0,17.0,57.0,2439.574
2439584.0,67.0,54.0,21.0,65.0,2439.584
2439595.0,65.0,51.0,20.0,72.0,2439.595
2439605.0,69.0,50.0,25.0,90.0,2439.605
2439615.0,70.0,50.0,23.0,98.0,2439.615
2439625.0,73.0,51.0,21.0,95.0,2439.625
2439635.0,72.0,49.0,19.0,96.0,2439.635
2439645.0,73.0,47.0,19.0,106.0,2439.645
2439655.0,75.0,48.0,22.0,110.0,2439.655
2439665.0,77.0,49.0,32.0,124.0,2439.665
2439675.0,78.0,50.0,47.0,156.0,2439.675
2439685.0,80.0,57.0,53.0,181.0,2439.685
2439695.0,86.0,63.0,48.0,186.0,2439.695
2439705.0,102.0,71.0,58.0,206.0,2439.705
2439715.0,93.0,82.0,59.0,223.0,2439.715
2439725.0,101.0,92.0,55.0,231.0,2439.725
2439735.0,107.0,113.0,53.0,246.0,2439.735
2439745.0,112.0,127.0,65.0,259.0,2439.745
2439755.0,114.0,145.0,65.0,247.0,2439.755
2439766.0,116.0,160.0,80.0,243.0,2439.766
2439776.0,120.0,179.0,101.0,264.0,2439.776
2439786.0,126.0,203.0,102.0,306.0,2439.786
2439796.0,130.0,222.0,119.0,314.0,2439.796
2439806.0,127.0,229.0,149.0,315.0,2439.806
2439816.0,132.0,241.0,156.0,312.0,2439.816
2439826.0,127.0,245.0,149.0,357.0,2439.826
2439836.0,125.0,252.0,139.0,371.0,2439.836
2439846.0,126.0,257.0,147.0,388.0,2439.846
2439856.0,125.0,259.0,147.0,361.0,2439.856
2439866.0,123.0,257.0,136.0,354.0,2439.866
2439876.0,121.0,260.0,149.0,346.0,2439.876
2439886.0,122.0,262.0,134.0,336.0,2439.886
2439896.0,120.0,260.0,126.0,318.0,2439.896
2439906.0,118.0,257.0,132.0,298.0,2439.906
2439916.0,117.0,253.0,136.0,310.0,2439.916
2439926.0,115.0,249.0,123.0,305.0,2439.926
2439936.0,114.0,243.0,111.0,279.0,2439.936
2439946.0,112.0,239.0,103.0,255.0,2439.946
2439956.0,109.0,232.0,112.0,278.0,2439.956
2439966.0,110.0,231.0,105.0,265.0,2439.966
2439976.0,111.0,227.0,94.0,252.0,2439.976
2439986.0,111.0,225.0,92.0,244.0,2439.986
2439996.0,111.0,224.0,81.0,253.0,2439.996
2440006.0,110.0,220.0,72.0,248.0,2440.006
2440016.0,110.0,218.0,68.0,243.0,2440.016
2440026.0,109.0,217.0,68.0,233.0,2440.026
2440036.0,108.0,215.0,66.0,217.0,2440.036
2440046.0,107.0,215.0,62.0,199.0,2440.046
2440056.0,106.0,213.0,75.0,204.0,2440.056
2440066.0,105.0,212.0,74.0,198.0,2440.066
2440076.0,104.0,210.0,69.0,190.0,2440.076
2440086.0,103.0,206.0,72.0,179.0,2440.086
2440096.0,103.0,205.0,69.0,170.0,2440.096
2440107.0,104.0,202.0,68.0,177.0,2440.107
2440117.0,103.0,201.0,60.0,172.0,2440.117
2440127.0,102.0,197.0,65.0,175.0,2440.127
2440137.0,102.0,195.0,65.0,167.0,2440.137
2440147.0,102.0,191.0,75.0,166.0,2440.147
2440157.0,103.0,187.0,85.0,165.0,2440.157
2440167.0,103.0,183.0,79.0,165.0,2440.167
2440177.0,105.0,181.0,73.0,155.0,2440.177
2440187.0,102.0,177.0,64.0,146.0,2440.187
2440197.0,103.0,174.0,58.0,138.0,2440.197
2440207.0,103.0,172.0,52.0,139.0,2440.207
2440217.0,102.0,169.0,51.0,136.0,2440.217
2440227.0,101.0,167.0,60.0,135.0,2440.227
2440237.0,98.0,165.0,64.0,129.0,2440.237
2440247.0,98.0,162.0,63.0,127.0,2440.247
2440257.0,96.0,160.0,55.0,126.0,2440.257
2440267.0,94.0,154.0,54.0,125.0,2440.267
2440278.0,95.0,152.0,50.0,135.0,2440.278
2440288.0,94.0,149.0,57.0,127.0,2440.288
2440298.0,92.0,145.0,53.0,119.0,2440.298
2440308.0,92.0,143.0,47.0,111.0,2440.308
2440318.0,94.0,142.0,41.0,114.0,2440.318
2440328.0,94.0,139.0,39.0,109.0,2440.328
2440338.0,92.0,135.0,36.0,106.0,2440.338
2440348.0,94.0,131.0,32.0,106.0,2440.348
2440358.0,94.0,127.0,29.0,113.0,2440.358
2440368.0,94.0,122.0,27.0,112.0,2440.368
2440378.0,93.0,119.0,33.0,112.0,2440.378
2440388.0,92.0,114.0,34.0,112.0,2440.388
2440398.0,93.0,109.0,34.0,116.0,2440.398
2440408.0,93.0,106.0,30.0,110.0,2440.408
2440418.0,93.0,102.0,27.0,102.0,2440.418
2440428.0,91.0,99.0,22.0,120.0,2440.428
2440438.0,90.0,96.0,22.0,111.0,2440.438
2440448.0,87.0,91.0,23.0,106.0,2440.448
2440458.0,87.0,89.0,23.0,101.0,2440.458
2440468.0,86.0,86.0,22.0,93.0,2440.468
2440478.0,84.0,82.0,30.0,100.0,2440.478
2440488.0,85.0,81.0,36.0,93.0,2440.488
2440498.0,85.0,81.0,33.0,100.0,2440.498
2440508.0,85.0,78.0,29.0,96.0,2440.508
2440518.0,83.0,74.0,27.0,93.0,2440.518
2440528.0,85.0,73.0,26.0,109.0,2440.528
2440538.0,86.0,73.0,26.0,107.0,2440.538
2440548.0,84.0,71.0,22.0,100.0,2440.548
2440558.0,84.0,69.0,27.0,100.0,2440.558
2440568.0,84.0,71.0,25.0,98.0,2440.568
2440578.0,82.0,69.0,23.0,108.0,2440.578
2440588.0,82.0,68.0,20.0,102.0,2440.588
2440598.0,81.0,68.0,20.0,96.0,2440.598
2440608.0,78.0,66.0,23.0,98.0,2440.608
2440619.0,79.0,67.0,24.0,98.0,2440.619
2440629.0,79.0,67.0,23.0,99.0,2440.629
2440639.0,76.0,65.0,26.0,101.0,2440.639
2440649.0,75.0,65.0,24.0,96.0,2440.649
2440659.0,74.0,62.0,21.0,109.0,2440.659
2440669.0,72.0,62.0,24.0,110.0,2440.669
2440679.0,71.0,60.0,23.0,109.0,2440.679
2440689.0,70.0,60.0,23.0,118.0,2440.689
2440699.0,69.0,59.0,23.0,116.0,2440.699
2440709.0,68.0,59.0,22.0,117.0,2440.709
2440719.0,67.0,59.0,34.0,112.0,2440.719
2440729.0,66.0,56.0,32.0,104.0,2440.729
2440739.0,66.0,58.0,29.0,112.0,2440.739
2440749.0,67.0,57.0,29.0,110.0,2440.749
2440759.0,68.0,58.0,25.0,104.0,2440.759
2440769.0,68.0,57.0,24.0,104.0,2440.769
2440779.0,67.0,55.0,25.0,101.0,2440.779
2440790.0,67.0,55.0,26.0,106.0,2440.79
2440800.0,65.0,52.0,34.0,103.0,2440.8
2440810.0,65.0,55.0,32.0,100.0,2440.81
2440820.0,66.0,55.0,31.0,99.0,2440.82
2440830.0,63.0,52.0,28.0,93.0,2440.83
2440840.0,64.0,53.0,25.0,100.0,2440.84
2440850.0,64.0,51.0,25.0,99.0,2440.85
2440860.0,63.0,53.0,22.0,97.0,2440.86
2440870.0,63.0,53.0,21.0,93.0,2440.87
2440880.0,64.0,52.0,21.0,94.0,2440.88
2440890.0,64.0,51.0,22.0,101.0,2440.89
2440900.0,63.0,50.0,25.0,109.0,2440.9
2440910.0,62.0,49.0,21.0,109.0,2440.91
2440920.0,63.0,48.0,20.0,103.0,2440.92
2440930.0,62.0,48.0,18.0,97.0,2440.93
2440940.0,61.0,46.0,16.0,126.0,2440.94
2440950.0,61.0,46.0,14.0,140.0,2440.95
2440960.0,61.0,45.0,13.0,132.0,2440.96
2440970.0,63.0,43.0,13.0,139.0,2440.97
2440980.0,62.0,45.0,26.0,127.0,2440.98
2440990.0,65.0,44.0,25.0,122.0,2440.99
2441000.0,64.0,43.0,24.0,129.0,2441.0
2441010.0,63.0,41.0,26.0,124.0,2441.01
2441020.0,63.0,39.0,24.0,131.0,2441.02
2441030.0,62.0,40.0,21.0,119.0,2441.03
2441040.0,60.0,40.0,22.0,119.0,2441.04
2441050.0,59.0,42.0,39.0,118.0,2441.05
2441060.0,60.0,41.0,40.0,111.0,2441.06
2441070.0,60.0,41.0,35.0,111.0,2441.07
2441080.0,59.0,41.0,31.0,112.0,2441.08
2441090.0,59.0,39.0,33.0,112.0,2441.09
2441100.0,60.0,41.0,33.0,107.0,2441.1
2441110.0,62.0,40.0,30.0,110.0,2441.11
2441120.0,62.0,40.0,26.0,103.0,2441.12
2441131.0,61.0,40.0,27.0,109.0,2441.131
2441141.0,63.0,40.0,27.0,118.0,2441.141
2441151.0,63.0,38.0,24.0,107.0,2441.151
2441161.0,63.0,42.0,27.0,127.0,2441.161
2441171.0,65.0,43.0,26.0,125.0,2441.171
2441181.0,67.0,41.0,24.0,122.0,2441.181
2441191.0,67.0,40.0,20.0,118.0,2441.191
2441201.0,67.0,40.0,20.0,113.0,2441.201
2441211.0,67.0,39.0,21.0,124.0,2441.211
2441221.0,67.0,40.0,19.0,126.0,2441.221
2441231.0,66.0,38.0,18.0,113.0,2441.231
2441241.0,64.0,38.0,16.0,109.0,2441.241
2441251.0,64.0,38.0,18.0,101.0,2441.251
2441261.0,64.0,38.0,16.0,107.0,2441.261
2441271.0,63.0,37.0,14.0,103.0,2441.271
2441281.0,63.0,41.0,34.0,111.0,2441.281
2441291.0,63.0,42.0,34.0,109.0,2441.291
2441302.0,64.0,39.0,29.0,106.0,2441.302
2441312.0,64.0,41.0,25.0,100.0,2441.312
2441322.0,64.0,41.0,23.0,96.0,2441.322
2441332.0,65.0,40.0,20.0,102.0,2441.332
2441342.0,65.0,40.0,19.0,101.0,2441.342
2441352.0,63.0,41.0,20.0,95.0,2441.352
2441362.0,60.0,41.0,18.0,90.0,2441.362
2441372.0,61.0,40.0,16.0,84.0,2441.372
2441382.0,59.0,44.0,19.0,106.0,2441.382
2441392.0,60.0,43.0,18.0,103.0,2441.392
2441402.0,61.0,42.0,19.0,98.0,2441.402
2441412.0,59.0,41.0,15.0,99.0,2441.412
2441422.0,60.0,40.0,14.0,101.0,2441.422
2441432.0,58.0,41.0,18.0,96.0,2441.432
2441442.0,59.0,40.0,16.0,91.0,2441.442
2441452.0,57.0,41.0,15.0,90.0,2441.452
2441462.0,57.0,42.0,20.0,99.0,2441.462
2441472.0,58.0,42.0,21.0,102.0,2441.472
2441482.0,57.0,39.0,17.0,92.0,2441.482
2441492.0,59.0,39.0,17.0,89.0,2441.492
2441502.0,57.0,39.0,17.0,95.0,2441.502
2441512.0,59.0,39.0,16.0,90.0,2441.512
2441522.0,60.0,38.0,15.0,86.0,2441.522
2441532.0,59.0,41.0,23.0,107.0,2441.532
2441542.0,62.0,41.0,22.0,107.0,2441.542
2441552.0,62.0,42.0,26.0,100.0,2441.552
2441562.0,63.0,42.0,23.0,105.0,2441.562
2441572.0,64.0,44.0,26.0,103.0,2441.572
2441582.0,65.0,44.0,25.0,102.0,2441.582
2441592.0,65.0,46.0,23.0,103.0,2441.592
2441602.0,65.0,47.0,20.0,98.0,2441.602
2441612.0,65.0,47.0,20.0,112.0,2441.612
2441622.0,65.0,47.0,20.0,105.0,2441.622
2441632.0,65.0,48.0,19.0,101.0,2441.632
2441643.0,64.0,49.0,17.0,100.0,2441.643
2441653.0,65.0,50.0,28.0,103.0,2441.653
2441663.0,66.0,50.0,25.0,98.0,2441.663
2441673.0,64.0,51.0,22.0,107.0,2441.673
2441683.0,63.0,48.0,22.0,108.0,2441.683
2441693.0,64.0,51.0,22.0,102.0,2441.693
2441703.0,62.0,51.0,20.0,102.0,2441.703
2441713.0,62.0,51.0,18.0,105.0,2441.713
2441723.0,61.0,52.0,17.0,99.0,2441.723
2441733.0,59.0,48.0,24.0,92.0,2441.733
2441743.0,59.0,50.0,28.0,90.0,2441.743
2441753.0,58.0,49.0,26.0,91.0,2441.753
2441763.0,56.0,48.0,23.0,88.0,2441.763
2441773.0,57.0,48.0,25.0,87.0,2441.773
2441783.0,56.0,48.0,24.0,88.0,2441.783
2441793.0,55.0,49.0,21.0,88.0,2441.793
2441803.0,57.0,50.0,21.0,81.0,2441.803
2441814.0,56.0,50.0,25.0,89.0,2441.814
2441824.0,57.0,50.0,23.0,85.0,2441.824
2441834.0,57.0,49.0,20.0,87.0,2441.834
2441844.0,56.0,49.0,26.0,81.0,2441.844
2441854.0,59.0,49.0,41.0,78.0,2441.854
2441864.0,57.0,47.0,36.0,78.0,2441.864
2441874.0,56.0,46.0,31.0,82.0,2441.874
2441884.0,55.0,45.0,33.0,93.0,2441.884
2441894.0,56.0,45.0,32.0,87.0,2441.894
2441904.0,55.0,44.0,37.0,86.0,2441.904
2441914.0,57.0,46.0,46.0,91.0,2441.914
2441924.0,56.0,45.0,40.0,96.0,2441.924
2441934.0,56.0,46.0,35.0,103.0,2441.934
2441944.0,56.0,45.0,32.0,108.0,2441.944
2441954.0,56.0,44.0,28.0,104.0,2441.954
2441964.0,56.0,44.0,30.0,96.0,2441.964
2441974.0,57.0,42.0,32.0,98.0,2441.974
2441984.0,57.0,46.0,37.0,116.0,2441.984
2441994.0,58.0,45.0,32.0,117.0,2441.994
2442004.0,57.0,43.0,28.0,109.0,2442.004
2442014.0,59.0,42.0,25.0,97.0,2442.014
2442024.0,59.0,41.0,24.0,96.0,2442.024
2442034.0,61.0,41.0,24.0,101.0,2442.034
2442044.0,62.0,41.0,22.0,97.0,2442.044
2442054.0,62.0,41.0,19.0,94.0,2442.054
2442064.0,59.0,41.0,25.0,93.0,2442.064
2442074.0,60.0,41.0,33.0,92.0,2442.074
2442084.0,60.0,41.0,28.0,105.0,2442.084
2442094.0,60.0,39.0,26.0,103.0,2442.094
2442104.0,59.0,38.0,24.0,97.0,2442.104
2442114.0,60.0,39.0,23.0,93.0,2442.114
2442124.0,60.0,38.0,21.0,88.0,2442.124
2442134.0,59.0,37.0,25.0,86.0,2442.134
2442144.0,60.0,40.0,36.0,89.0,2442.144
2442155.0,60.0,40.0,31.0,91.0,2442.155
2442165.0,61.0,39.0,28.0,99.0,2442.165
2442175.0,59.0,40.0,27.0,103.0,2442.175
2442185.0,59.0,41.0,31.0,105.0,2442.185
2442195.0,57.0,40.0,27.0,106.0,2442.195
2442205.0,56.0,39.0,23.0,102.0,2442.205
2442215.0,55.0,38.0,21.0,93.0,2442.215
2442225.0,54.0,40.0,22.0,93.0,2442.225
2442235.0,55.0,38.0,22.0,92.0,2442.235
2442245.0,53.0,38.0,20.0,94.0,2442.245
2442255.0,53.0,38.0,18.0,89.0,2442.255
2442265.0,52.0,39.0,33.0,89.0,2442.265
2442275.0,52.0,39.0,33.0,96.0,2442.275
2442285.0,52.0,38.0,30.0,93.0,2442.285
2442295.0,52.0,38.0,26.0,112.0,2442.295
2442305.0,51.0,36.0,23.0,112.0,2442.305
2442315.0,51.0,37.0,21.0,124.0,2442.315
2442326.0,53.0,38.0,21.0,117.0,2442.326
2442336.0,51.0,37.0,22.0,111.0,2442.336
2442346.0,50.0,38.0,28.0,119.0,2442.346
2442356.0,50.0,38.0,40.0,116.0,2442.356
2442366.0,50.0,38.0,35.0,115.0,2442.366
2442376.0,51.0,36.0,31.0,112.0,2442.376
2442386.0,51.0,37.0,29.0,115.0,2442.386
2442396.0,50.0,36.0,28.0,107.0,2442.396
2442406.0,51.0,35.0,27.0,112.0,2442.406
2442416.0,50.0,36.0,23.0,106.0,2442.416
2442426.0,50.0,37.0,28.0,127.0,2442.426
2442436.0,50.0,38.0,25.0,119.0,2442.436
2442446.0,50.0,37.0,21.0,115.0,2442.446
2442456.0,51.0,36.0,21.0,107.0,2442.456
2442466.0,49.0,38.0,28.0,112.0,2442.466
2442476.0,53.0,38.0,29.0,119.0,2442.476
2442486.0,52.0,40.0,28.0,115.0,2442.486
2442496.0,55.0,39.0,31.0,111.0,2442.496
2442506.0,57.0,39.0,29.0,111.0,2442.506
2442516.0,59.0,39.0,27.0,106.0,2442.516
2442526.0,60.0,38.0,24.0,99.0,2442.526
2442536.0,61.0,38.0,21.0,92.0,2442.536
2442546.0,62.0,38.0,20.0,90.0,2442.546
2442556.0,62.0,39.0,18.0,90.0,2442.556
2442566.0,61.0,40.0,34.0,96.0,2442.566
2442576.0,60.0,40.0,32.0,115.0,2442.576
2442586.0,61.0,39.0,30.0,113.0,2442.586
2442596.0,63.0,38.0,28.0,103.0,2442.596
2442606.0,63.0,38.0,24.0,98.0,2442.606
2442616.0,63.0,36.0,22.0,94.0,2442.616
2442626.0,62.0,38.0,21.0,98.0,2442.626
2442636.0,61.0,40.0,30.0,97.0,2442.636
2442646.0,61.0,40.0,36.0,94.0,2442.646
2442656.0,59.0,41.0,42.0,99.0,2442.656
2442667.0,61.0,42.0,36.0,105.0,2442.667
2442677.0,59.0,44.0,34.0,114.0,2442.677
2442687.0,61.0,43.0,41.0,119.0,2442.687
2442697.0,60.0,43.0,39.0,111.0,2442.697
2442707.0,61.0,42.0,35.0,119.0,2442.707
2442717.0,60.0,43.0,35.0,119.0,2442.717
2442727.0,61.0,43.0,30.0,117.0,2442.727
2442737.0,61.0,42.0,27.0,106.0,2442.737
2442747.0,62.0,42.0,23.0,101.0,2442.747
2442757.0,63.0,41.0,21.0,99.0,2442.757
2442767.0,61.0,42.0,21.0,106.0,2442.767
2442777.0,60.0,41.0,19.0,107.0,2442.777
2442787.0,60.0,41.0,22.0,103.0,2442.787
2442797.0,59.0,43.0,23.0,107.0,2442.797
2442807.0,58.0,42.0,26.0,103.0,2442.807
2442817.0,59.0,42.0,33.0,101.0,2442.817
2442827.0,60.0,41.0,29.0,98.0,2442.827
2442838.0,62.0,39.0,26.0,96.0,2442.838
2442848.0,61.0,41.0,23.0,101.0,2442.848
2442858.0,63.0,41.0,22.0,101.0,2442.858
2442868.0,64.0,41.0,22.0,109.0,2442.868
2442878.0,61.0,44.0,31.0,108.0,2442.878
2442888.0,61.0,43.0,33.0,103.0,2442.888
2442898.0,60.0,44.0,31.0,98.0,2442.898
2442908.0,61.0,42.0,27.0,102.0,2442.908
2442918.0,60.0,41.0,24.0,101.0,2442.918
2442928.0,61.0,41.0,31.0,108.0,2442.928
2442938.0,61.0,42.0,29.0,108.0,2442.938
2442948.0,61.0,41.0,25.0,110.0,2442.948
2442958.0,61.0,41.0,28.0,109.0,2442.958
2442968.0,60.0,41.0,28.0,108.0,2442.968
2442978.0,60.0,41.0,32.0,105.0,2442.978
2442988.0,57.0,42.0,32.0,104.0,2442.988
2442998.0,57.0,41.0,29.0,107.0,2442.998
2443008.0,58.0,41.0,26.0,101.0,2443.008
2443018.0,58.0,42.0,25.0,112.0,2443.018
2443028.0,56.0,42.0,24.0,118.0,2443.028
2443038.0,57.0,46.0,42.0,116.0,2443.038
2443048.0,56.0,45.0,39.0,112.0,2443.048
2443058.0,54.0,43.0,34.0,105.0,2443.058
2443068.0,55.0,43.0,37.0,115.0,2443.068
2443078.0,57.0,44.0,34.0,110.0,2443.078
2443088.0,56.0,42.0,30.0,106.0,2443.088
2443098.0,56.0,41.0,31.0,110.0,2443.098
2443108.0,55.0,42.0,44.0,112.0,2443.108
2443118.0,56.0,42.0,42.0,116.0,2443.118
2443128.0,55.0,40.0,36.0,116.0,2443.128
2443138.0,54.0,40.0,38.0,130.0,2443.138
2443148.0,54.0,39.0,35.0,143.0,2443.148
2443158.0,55.0,39.0,30.0,130.0,2443.158
2443168.0,55.0,38.0,30.0,126.0,2443.168
2443179.0,54.0,39.0,41.0,126.0,2443.179
2443189.0,55.0,39.0,37.0,133.0,2443.189
