time (ms),signal 0,signal 1,signal 2,signal 3,time (sec)
3380110.0,206.0,32.0,3.0,228.0,3380.11
3380120.0,216.0,33.0,4.0,241.0,3380.12
3380130.0,218.0,32.0,4.0,241.0,3380.13
3380140.0,213.0,33.0,3.0,236.0,3380.14
3380150.0,213.0,33.0,5.0,235.0,3380.15
3380160.0,208.0,32.0,4.0,232.0,3380.16
3380170.0,217.0,33.0,4.0,243.0,3380.17
3380180.0,219.0,33.0,3.0,243.0,3380.18
3380190.0,214.0,33.0,3.0,237.0,3380.19
3380200.0,214.0,32.0,4.0,238.0,3380.2
3380210.0,209.0,33.0,4.0,234.0,3380.21
3380220.0,218.0,33.0,4.0,242.0,3380.22
3380230.0,218.0,33.0,4.0,242.0,3380.23
3380240.0,213.0,32.0,4.0,235.0,3380.24
3380250.0,214.0,34.0,3.0,237.0,3380.25
3380260.0,210.0,32.0,4.0,234.0,3380.26
3380270.0,215.0,33.0,3.0,240.0,3380.27
3380280.0,219.0,33.0,4.0,241.0,3380.28
3380290.0,212.0,33.0,3.0,235.0,3380.29
3380300.0,213.0,33.0,3.0,235.0,3380.3
3380310.0,207.0,33.0,3.0,230.0,3380.31
3380320.0,215.0,32.0,3.0,240.0,3380.32
3380330.0,218.0,32.0,4.0,240.0,3380.33
3380340.0,212.0,32.0,4.0,233.0,3380.34
3380350.0,215.0,32.0,4.0,236.0,3380.35
3380360.0,209.0,33.0,4.0,232.0,3380.36
3380370.0,216.0,32.0,4.0,242.0,3380.37
3380380.0,219.0,33.0,3.0,241.0,3380.38
3380390.0,212.0,32.0,4.0,232.0,3380.39
3380400.0,214.0,33.0,3.0,237.0,3380.4
3380410.0,211.0,32.0,5.0,233.0,3380.41
3380420.0,218.0,33.0,4.0,243.0,3380.42
3380430.0,219.0,33.0,4.0,242.0,3380.43
3380440.0,214.0,31.0,4.0,239.0,3380.44
3380450.0,215.0,32.0,3.0,240.0,3380.45
3380460.0,211.0,32.0,4.0,237.0,3380.46
3380470.0,219.0,32.0,5.0,244.0,3380.47
3380480.0,221.0,32.0,4.0,246.0,3380.48
3380490.0,213.0,32.0,4.0,239.0,3380.49
3380500.0,214.0,32.0,4.0,241.0,3380.5
3380510.0,211.0,33.0,3.0,240.0,3380.51
3380520.0,218.0,32.0,3.0,245.0,3380.52
3380530.0,219.0,33.0,3.0,246.0,3380.53
3380540.0,214.0,31.0,4.0,239.0,3380.54
3380550.0,214.0,32.0,4.0,240.0,3380.55
3380560.0,214.0,32.0,4.0,241.0,3380.56
3380570.0,217.0,33.0,3.0,245.0,3380.57
3380580.0,220.0,32.0,4.0,244.0,3380.58
3380590.0,212.0,32.0,3.0,238.0,3380.59
3380600.0,215.0,32.0,5.0,240.0,3380.6
3380610.0,209.0,32.0,4.0,237.0,3380.61
3380620.0,218.0,32.0,4.0,245.0,3380.62
3380630.0,220.0,33.0,3.0,246.0,3380.63
3380640.0,212.0,32.0,3.0,237.0,3380.64
3380651.0,214.0,32.0,4.0,239.0,3380.651
3380661.0,216.0,32.0,4.0,243.0,3380.661
3380671.0,219.0,32.0,4.0,245.0,3380.671
3380681.0,216.0,32.0,4.0,242.0,3380.681
3380691.0,209.0,33.0,4.0,234.0,3380.691
3380701.0,214.0,33.0,4.0,240.0,3380.701
3380711.0,218.0,32.0,4.0,245.0,3380.711
3380721.0,219.0,32.0,4.0,245.0,3380.721
3380731.0,219.0,33.0,5.0,242.0,3380.731
3380741.0,212.0,32.0,4.0,237.0,3380.741
3380751.0,214.0,33.0,4.0,238.0,3380.751
3380761.0,218.0,33.0,3.0,245.0,3380.761
3380771.0,217.0,32.0,4.0,244.0,3380.771
3380781.0,218.0,32.0,4.0,243.0,3380.781
3380791.0,211.0,33.0,4.0,237.0,3380.791
3380801.0,214.0,33.0,4.0,241.0,3380.801
3380811.0,218.0,33.0,4.0,247.0,3380.811
3380822.0,217.0,33.0,3.0,246.0,3380.822
3380832.0,217.0,33.0,3.0,244.0,3380.832
3380842.0,208.0,32.0,3.0,237.0,3380.842
3380852.0,215.0,32.0,4.0,246.0,3380.852
3380862.0,222.0,33.0,5.0,247.0,3380.862
3380872.0,216.0,33.0,3.0,245.0,3380.872
3380882.0,216.0,32.0,4.0,243.0,3380.882
3380892.0,209.0,33.0,3.0,236.0,3380.892
3380902.0,217.0,32.0,4.0,245.0,3380.902
3380912.0,220.0,33.0,3.0,249.0,3380.912
3380922.0,217.0,33.0,4.0,243.0,3380.922
3380932.0,216.0,33.0,4.0,241.0,3380.932
3380942.0,209.0,32.0,4.0,235.0,3380.942
3380952.0,215.0,32.0,4.0,242.0,3380.952
3380962.0,221.0,33.0,3.0,246.0,3380.962
3380972.0,217.0,32.0,3.0,242.0,3380.972
3380982.0,217.0,33.0,4.0,242.0,3380.982
3380992.0,211.0,32.0,4.0,234.0,3380.992
3381002.0,216.0,33.0,3.0,242.0,3381.002
3381012.0,222.0,33.0,4.0,248.0,3381.012
3381022.0,217.0,33.0,3.0,242.0,3381.022
3381032.0,216.0,32.0,4.0,240.0,3381.032
3381042.0,210.0,33.0,3.0,236.0,3381.042
3381052.0,218.0,32.0,5.0,246.0,3381.052
3381062.0,222.0,33.0,4.0,249.0,3381.062
3381072.0,216.0,32.0,4.0,241.0,3381.072
3381082.0,218.0,33.0,2.0,244.0,3381.082
3381092.0,210.0,32.0,4.0,235.0,3381.092
3381102.0,217.0,32.0,3.0,246.0,3381.102
3381112.0,222.0,32.0,4.0,249.0,3381.112
3381122.0,218.0,32.0,4.0,244.0,3381.122
3381132.0,216.0,33.0,4.0,241.0,3381.132
3381142.0,210.0,33.0,3.0,235.0,3381.142
3381152.0,218.0,33.0,3.0,244.0,3381.152
3381163.0,223.0,32.0,4.0,246.0,3381.163
3381173.0,215.0,32.0,4.0,238.0,3381.173
3381183.0,217.0,33.0,5.0,238.0,3381.183
3381193.0,215.0,33.0,4.0,240.0,3381.193
3381203.0,221.0,32.0,4.0,244.0,3381.203
3381213.0,222.0,33.0,2.0,245.0,3381.213
3381223.0,215.0,32.0,4.0,236.0,3381.223
3381233.0,215.0,32.0,4.0,238.0,3381.233
3381243.0,216.0,33.0,4.0,241.0,3381.243
3381253.0,219.0,33.0,3.0,244.0,3381.253
3381263.0,220.0,33.0,4.0,243.0,3381.263
3381273.0,213.0,33.0,3.0,236.0,3381.273
3381283.0,215.0,32.0,3.0,238.0,3381.283
3381293.0,211.0,32.0,3.0,236.0,3381.293
3381303.0,219.0,33.0,4.0,245.0,3381.303
3381313.0,221.0,33.0,4.0,244.0,3381.313
3381323.0,212.0,32.0,3.0,236.0,3381.323
3381334.0,214.0,32.0,4.0,239.0,3381.334
3381344.0,217.0,33.0,3.0,244.0,3381.344
3381354.0,218.0,32.0,4.0,243.0,3381.354
3381364.0,217.0,33.0,4.0,242.0,3381.364
3381374.0,210.0,32.0,4.0,233.0,3381.374
3381384.0,213.0,32.0,3.0,239.0,3381.384
3381394.0,218.0,32.0,4.0,245.0,3381.394
3381404.0,218.0,34.0,3.0,244.0,3381.404
3381414.0,217.0,32.0,4.0,241.0,3381.414
3381424.0,211.0,33.0,3.0,235.0,3381.424
3381434.0,215.0,33.0,4.0,238.0,3381.434
3381444.0,219.0,33.0,4.0,244.0,3381.444
3381454.0,218.0,33.0,4.0,241.0,3381.454
3381464.0,219.0,32.0,4.0,241.0,3381.464
3381474.0,211.0,32.0,3.0,232.0,3381.474
3381484.0,214.0,33.0,4.0,237.0,3381.484
3381494.0,219.0,33.0,4.0,243.0,3381.494
3381504.0,217.0,32.0,4.0,242.0,3381.504
3381514.0,216.0,33.0,2.0,240.0,3381.514
3381524.0,209.0,32.0,3.0,231.0,3381.524
3381534.0,213.0,34.0,3.0,239.0,3381.534
3381544.0,219.0,33.0,3.0,244.0,3381.544
3381554.0,218.0,33.0,4.0,243.0,3381.554
3381564.0,216.0,33.0,4.0,241.0,3381.564
3381574.0,208.0,33.0,2.0,232.0,3381.574
3381584.0,214.0,33.0,4.0,240.0,3381.584
3381594.0,216.0,33.0,4.0,243.0,3381.594
3381604.0,216.0,32.0,3.0,242.0,3381.604
3381614.0,216.0,33.0,4.0,240.0,3381.614
3381624.0,209.0,33.0,4.0,231.0,3381.624
3381634.0,212.0,33.0,4.0,237.0,3381.634
3381644.0,217.0,33.0,4.0,243.0,3381.644
3381654.0,216.0,32.0,4.0,240.0,3381.654
3381664.0,216.0,34.0,3.0,239.0,3381.664
3381675.0,208.0,32.0,4.0,231.0,3381.675
3381685.0,214.0,33.0,4.0,243.0,3381.685
3381695.0,221.0,33.0,5.0,247.0,3381.695
3381705.0,212.0,32.0,3.0,240.0,3381.705
3381715.0,214.0,32.0,4.0,240.0,3381.715
3381725.0,206.0,33.0,4.0,233.0,3381.725
3381735.0,215.0,33.0,3.0,244.0,3381.735
3381745.0,219.0,33.0,3.0,245.0,3381.745
3381755.0,213.0,32.0,5.0,239.0,3381.755
3381765.0,215.0,33.0,4.0,240.0,3381.765
3381775.0,208.0,32.0,4.0,233.0,3381.775
3381785.0,217.0,33.0,4.0,245.0,3381.785
3381795.0,221.0,34.0,3.0,246.0,3381.795
3381805.0,215.0,32.0,4.0,242.0,3381.805
3381815.0,216.0,33.0,4.0,241.0,3381.815
3381825.0,209.0,32.0,5.0,235.0,3381.825
3381835.0,217.0,33.0,3.0,246.0,3381.835
3381846.0,221.0,33.0,4.0,247.0,3381.846
3381856.0,214.0,33.0,3.0,241.0,3381.856
3381866.0,215.0,32.0,3.0,240.0,3381.866
3381876.0,215.0,33.0,4.0,247.0,3381.876
3381886.0,217.0,33.0,4.0,248.0,3381.886
3381896.0,218.0,33.0,3.0,243.0,3381.896
3381906.0,211.0,33.0,3.0,238.0,3381.906
3381916.0,212.0,33.0,4.0,244.0,3381.916
3381926.0,215.0,33.0,3.0,249.0,3381.926
3381936.0,219.0,32.0,3.0,254.0,3381.936
3381946.0,221.0,33.0,4.0,256.0,3381.946
3381956.0,210.0,32.0,4.0,251.0,3381.956
3381966.0,210.0,33.0,4.0,254.0,3381.966
3381976.0,214.0,32.0,4.0,262.0,3381.976
3381986.0,213.0,33.0,3.0,267.0,3381.986
3381996.0,211.0,33.0,4.0,257.0,3381.996
3382006.0,206.0,32.0,4.0,246.0,3382.006
3382016.0,213.0,33.0,3.0,251.0,3382.016
3382026.0,208.0,33.0,4.0,254.0,3382.026
3382036.0,213.0,32.0,3.0,257.0,3382.036
3382046.0,213.0,34.0,3.0,254.0,3382.046
3382056.0,208.0,33.0,4.0,244.0,3382.056
3382066.0,215.0,33.0,3.0,248.0,3382.066
3382076.0,220.0,32.0,5.0,248.0,3382.076
3382086.0,233.0,33.0,3.0,249.0,3382.086
3382096.0,235.0,33.0,4.0,249.0,3382.096
3382106.0,224.0,33.0,4.0,241.0,3382.106
3382116.0,223.0,33.0,3.0,243.0,3382.116
3382126.0,224.0,32.0,4.0,250.0,3382.126
3382136.0,227.0,33.0,4.0,254.0,3382.136
3382146.0,229.0,32.0,4.0,254.0,3382.146
3382156.0,224.0,33.0,4.0,247.0,3382.156
3382166.0,227.0,33.0,3.0,248.0,3382.166
3382176.0,228.0,35.0,3.0,251.0,3382.176
3382187.0,227.0,33.0,3.0,250.0,3382.187
3382197.0,228.0,34.0,4.0,248.0,3382.197
3382207.0,221.0,33.0,5.0,242.0,3382.207
3382217.0,224.0,33.0,4.0,249.0,3382.217
3382227.0,231.0,33.0,4.0,249.0,3382.227
3382237.0,225.0,33.0,3.0,247.0,3382.237
3382247.0,225.0,33.0,3.0,242.0,3382.247
3382257.0,218.0,32.0,4.0,234.0,3382.257
3382267.0,227.0,33.0,4.0,242.0,3382.267
3382277.0,228.0,34.0,3.0,244.0,3382.277
3382287.0,226.0,33.0,3.0,245.0,3382.287
3382297.0,227.0,33.0,4.0,242.0,3382.297
3382307.0,217.0,33.0,3.0,233.0,3382.307
3382317.0,222.0,32.0,4.0,239.0,3382.317
3382327.0,227.0,33.0,4.0,245.0,3382.327
3382337.0,229.0,32.0,5.0,245.0,3382.337
3382347.0,230.0,33.0,4.0,242.0,3382.347
3382358.0,220.0,33.0,3.0,234.0,3382.358
3382368.0,228.0,34.0,3.0,247.0,3382.368
3382378.0,232.0,34.0,3.0,247.0,3382.378
3382388.0,225.0,33.0,4.0,240.0,3382.388
3382398.0,227.0,33.0,5.0,242.0,3382.398
3382408.0,219.0,33.0,4.0,236.0,3382.408
3382418.0,226.0,33.0,3.0,247.0,3382.418
3382428.0,229.0,33.0,4.0,249.0,3382.428
3382438.0,220.0,33.0,4.0,241.0,3382.438
3382448.0,222.0,33.0,3.0,245.0,3382.448
3382458.0,215.0,33.0,4.0,239.0,3382.458
3382468.0,226.0,33.0,4.0,251.0,3382.468
3382478.0,230.0,34.0,4.0,250.0,3382.478
3382488.0,223.0,33.0,4.0,247.0,3382.488
3382498.0,223.0,34.0,3.0,247.0,3382.498
3382508.0,220.0,33.0,4.0,244.0,3382.508
3382518.0,229.0,32.0,4.0,249.0,3382.518
3382528.0,230.0,32.0,4.0,249.0,3382.528
3382538.0,223.0,33.0,3.0,243.0,3382.538
3382548.0,225.0,33.0,4.0,242.0,3382.548
3382558.0,220.0,33.0,3.0,241.0,3382.558
3382568.0,228.0,32.0,3.0,246.0,3382.568
3382578.0,230.0,33.0,3.0,247.0,3382.578
3382588.0,223.0,33.0,4.0,239.0,3382.588
3382598.0,224.0,33.0,4.0,239.0,3382.598
3382608.0,223.0,32.0,4.0,242.0,3382.608
3382618.0,226.0,33.0,4.0,246.0,3382.618
3382628.0,229.0,33.0,3.0,248.0,3382.628
3382638.0,221.0,32.0,4.0,242.0,3382.638
3382648.0,221.0,33.0,3.0,245.0,3382.648
3382658.0,216.0,32.0,4.0,237.0,3382.658
3382668.0,223.0,33.0,3.0,247.0,3382.668
3382678.0,226.0,32.0,4.0,245.0,3382.678
3382688.0,219.0,33.0,3.0,242.0,3382.688
3382699.0,219.0,32.0,4.0,244.0,3382.699
3382709.0,221.0,32.0,3.0,252.0,3382.709
3382719.0,228.0,32.0,5.0,261.0,3382.719
3382729.0,238.0,32.0,4.0,261.0,3382.729
3382739.0,231.0,32.0,3.0,256.0,3382.739
3382749.0,231.0,31.0,4.0,250.0,3382.749
3382759.0,232.0,33.0,3.0,254.0,3382.759
3382769.0,245.0,32.0,3.0,257.0,3382.769
3382779.0,244.0,33.0,4.0,256.0,3382.779
3382789.0,235.0,32.0,4.0,248.0,3382.789
3382799.0,232.0,32.0,3.0,250.0,3382.799
3382809.0,238.0,33.0,4.0,258.0,3382.809
3382819.0,231.0,33.0,3.0,256.0,3382.819
3382829.0,232.0,33.0,4.0,256.0,3382.829
3382839.0,226.0,33.0,3.0,248.0,3382.839
3382849.0,233.0,33.0,5.0,254.0,3382.849
3382859.0,239.0,33.0,3.0,262.0,3382.859
3382870.0,236.0,32.0,4.0,258.0,3382.87
3382880.0,238.0,34.0,3.0,257.0,3382.88
3382890.0,227.0,33.0,3.0,243.0,3382.89
3382900.0,233.0,32.0,4.0,253.0,3382.9
3382910.0,239.0,33.0,5.0,257.0,3382.91
3382920.0,234.0,32.0,4.0,251.0,3382.92
3382930.0,231.0,32.0,3.0,248.0,3382.93
3382940.0,221.0,32.0,4.0,245.0,3382.94
3382950.0,229.0,32.0,3.0,249.0,3382.95
3382960.0,234.0,32.0,4.0,253.0,3382.96
3382970.0,227.0,32.0,4.0,244.0,3382.97
3382980.0,230.0,32.0,4.0,237.0,3382.98
3382990.0,218.0,32.0,4.0,223.0,3382.99
3383000.0,223.0,31.0,4.0,229.0,3383.0
3383010.0,232.0,33.0,4.0,238.0,3383.01
3383020.0,229.0,30.0,4.0,236.0,3383.02
3383030.0,230.0,32.0,3.0,247.0,3383.03
3383040.0,223.0,32.0,4.0,241.0,3383.04
3383050.0,229.0,31.0,4.0,260.0,3383.05
3383060.0,236.0,32.0,4.0,263.0,3383.06
3383070.0,230.0,32.0,3.0,254.0,3383.07
3383080.0,231.0,32.0,3.0,254.0,3383.08
3383090.0,222.0,32.0,4.0,246.0,3383.09
3383100.0,227.0,32.0,4.0,252.0,3383.1
3383110.0,233.0,33.0,4.0,255.0,3383.11
3383120.0,225.0,32.0,3.0,248.0,3383.12
3383130.0,226.0,31.0,5.0,247.0,3383.13
3383140.0,216.0,33.0,3.0,240.0,3383.14
3383150.0,224.0,31.0,4.0,249.0,3383.15
3383160.0,227.0,32.0,4.0,252.0,3383.16
3383170.0,222.0,32.0,4.0,246.0,3383.17
3383180.0,223.0,32.0,2.0,247.0,3383.18
3383190.0,220.0,31.0,4.0,244.0,3383.19
3383200.0,230.0,32.0,3.0,253.0,3383.2
3383211.0,239.0,32.0,4.0,265.0,3383.211
3383221.0,239.0,32.0,4.0,258.0,3383.221
3383231.0,233.0,32.0,5.0,254.0,3383.231
3383241.0,226.0,31.0,4.0,252.0,3383.241
3383251.0,237.0,31.0,4.0,257.0,3383.251
3383261.0,256.0,31.0,4.0,265.0,3383.261
3383271.0,241.0,32.0,3.0,254.0,3383.271
3383281.0,246.0,32.0,4.0,254.0,3383.281
3383291.0,237.0,32.0,3.0,255.0,3383.291
3383301.0,245.0,32.0,4.0,260.0,3383.301
3383311.0,254.0,32.0,3.0,271.0,3383.311
3383321.0,240.0,32.0,4.0,254.0,3383.321
3383331.0,240.0,33.0,3.0,258.0,3383.331
3383341.0,234.0,32.0,4.0,248.0,3383.341
3383351.0,239.0,32.0,4.0,257.0,3383.351
3383361.0,241.0,32.0,5.0,257.0,3383.361
3383371.0,230.0,32.0,4.0,250.0,3383.371
3383382.0,232.0,32.0,4.0,252.0,3383.382
3383392.0,235.0,32.0,3.0,256.0,3383.392
3383402.0,239.0,32.0,3.0,260.0,3383.402
3383412.0,240.0,32.0,4.0,260.0,3383.412
3383422.0,230.0,32.0,4.0,250.0,3383.422
3383432.0,234.0,32.0,4.0,256.0,3383.432
3383442.0,236.0,32.0,4.0,261.0,3383.442
3383452.0,235.0,32.0,3.0,256.0,3383.452
3383462.0,237.0,33.0,3.0,250.0,3383.462
3383472.0,227.0,32.0,4.0,245.0,3383.472
3383482.0,225.0,32.0,4.0,250.0,3383.482
3383492.0,231.0,32.0,5.0,271.0,3383.492
3383502.0,227.0,32.0,4.0,273.0,3383.502
3383512.0,230.0,32.0,3.0,277.0,3383.512
3383522.0,223.0,32.0,3.0,263.0,3383.522
3383532.0,227.0,32.0,4.0,262.0,3383.532
3383542.0,232.0,32.0,3.0,266.0,3383.542
3383552.0,230.0,32.0,3.0,261.0,3383.552
3383562.0,229.0,31.0,4.0,258.0,3383.562
3383572.0,217.0,31.0,4.0,247.0,3383.572
3383582.0,217.0,32.0,4.0,250.0,3383.582
3383592.0,223.0,32.0,3.0,255.0,3383.592
3383602.0,221.0,31.0,3.0,253.0,3383.602
3383612.0,221.0,32.0,4.0,249.0,3383.612
3383622.0,212.0,31.0,5.0,239.0,3383.622
3383632.0,216.0,31.0,4.0,247.0,3383.632
3383642.0,220.0,32.0,4.0,249.0,3383.642
3383652.0,221.0,32.0,3.0,251.0,3383.652
3383662.0,220.0,32.0,3.0,248.0,3383.662
3383672.0,211.0,31.0,4.0,240.0,3383.672
3383682.0,215.0,31.0,4.0,240.0,3383.682
3383692.0,221.0,31.0,4.0,247.0,3383.692
3383702.0,218.0,31.0,4.0,242.0,3383.702
3383712.0,221.0,32.0,3.0,241.0,3383.712
3383723.0,213.0,31.0,3.0,232.0,3383.723
3383733.0,219.0,32.0,3.0,242.0,3383.733
3383743.0,224.0,32.0,4.0,245.0,3383.743
3383753.0,218.0,31.0,4.0,238.0,3383.753
3383763.0,217.0,32.0,4.0,235.0,3383.763
3383773.0,210.0,31.0,4.0,227.0,3383.773
3383783.0,218.0,32.0,3.0,238.0,3383.783
3383793.0,222.0,32.0,4.0,247.0,3383.793
3383803.0,215.0,31.0,3.0,238.0,3383.803
3383813.0,218.0,32.0,4.0,238.0,3383.813
3383823.0,210.0,32.0,4.0,232.0,3383.823
3383833.0,217.0,31.0,4.0,241.0,3383.833
3383843.0,222.0,33.0,4.0,245.0,3383.843
3383853.0,218.0,31.0,3.0,241.0,3383.853
3383863.0,220.0,32.0,3.0,240.0,3383.863
3383873.0,213.0,32.0,4.0,237.0,3383.873
3383883.0,222.0,32.0,4.0,248.0,3383.883
3383894.0,227.0,32.0,4.0,249.0,3383.894
3383904.0,218.0,32.0,3.0,242.0,3383.904
3383914.0,219.0,33.0,3.0,242.0,3383.914
3383924.0,219.0,32.0,3.0,244.0,3383.924
3383934.0,221.0,32.0,4.0,247.0,3383.934
3383944.0,224.0,32.0,4.0,246.0,3383.944
3383954.0,222.0,32.0,4.0,243.0,3383.954
3383964.0,224.0,32.0,3.0,244.0,3383.964
3383974.0,223.0,33.0,3.0,247.0,3383.974
3383984.0,225.0,32.0,4.0,250.0,3383.984
3383994.0,229.0,33.0,3.0,249.0,3383.994
3384004.0,219.0,32.0,5.0,241.0,3384.004
3384014.0,220.0,33.0,3.0,243.0,3384.014
3384024.0,217.0,32.0,5.0,243.0,3384.024
3384034.0,222.0,33.0,3.0,249.0,3384.034
3384044.0,223.0,33.0,3.0,246.0,3384.044
3384054.0,213.0,32.0,4.0,239.0,3384.054
3384064.0,217.0,32.0,3.0,244.0,3384.064
3384074.0,213.0,32.0,4.0,243.0,3384.074
3384084.0,222.0,32.0,4.0,247.0,3384.084
3384094.0,223.0,33.0,4.0,244.0,3384.094
3384104.0,215.0,33.0,3.0,238.0,3384.104
3384114.0,220.0,32.0,4.0,241.0,3384.114
3384124.0,217.0,33.0,4.0,241.0,3384.124
3384134.0,225.0,32.0,5.0,247.0,3384.134
3384144.0,224.0,33.0,4.0,248.0,3384.144
3384154.0,220.0,32.0,5.0,243.0,3384.154
3384164.0,220.0,33.0,3.0,245.0,3384.164
3384174.0,219.0,32.0,4.0,246.0,3384.174
3384184.0,225.0,32.0,4.0,253.0,3384.184
3384194.0,229.0,33.0,4.0,253.0,3384.194
3384204.0,221.0,31.0,3.0,246.0,3384.204
3384214.0,219.0,33.0,3.0,244.0,3384.214
3384224.0,220.0,33.0,4.0,248.0,3384.224
3384235.0,221.0,32.0,3.0,247.0,3384.235
3384245.0,221.0,32.0,4.0,243.0,3384.245
3384255.0,211.0,32.0,4.0,231.0,3384.255
3384265.0,216.0,33.0,4.0,240.0,3384.265
3384275.0,224.0,33.0,4.0,250.0,3384.275
3384285.0,225.0,32.0,4.0,249.0,3384.285
3384295.0,223.0,34.0,3.0,250.0,3384.295
3384305.0,215.0,33.0,4.0,240.0,3384.305
3384315.0,220.0,33.0,4.0,249.0,3384.315
3384325.0,224.0,32.0,4.0,252.0,3384.325
3384335.0,223.0,32.0,4.0,249.0,3384.335
3384345.0,222.0,32.0,4.0,248.0,3384.345
3384355.0,213.0,33.0,3.0,236.0,3384.355
3384365.0,218.0,32.0,4.0,241.0,3384.365
3384375.0,221.0,32.0,4.0,250.0,3384.375
3384385.0,219.0,33.0,4.0,249.0,3384.385
3384395.0,218.0,33.0,4.0,251.0,3384.395
3384406.0,208.0,32.0,3.0,240.0,3384.406
3384416.0,215.0,32.0,4.0,249.0,3384.416
3384426.0,221.0,33.0,4.0,254.0,3384.426
3384436.0,215.0,32.0,4.0,245.0,3384.436
3384446.0,216.0,32.0,4.0,244.0,3384.446
3384456.0,210.0,32.0,4.0,238.0,3384.456
3384466.0,218.0,32.0,4.0,248.0,3384.466
3384476.0,223.0,32.0,4.0,252.0,3384.476
3384486.0,214.0,32.0,3.0,242.0,3384.486
3384496.0,216.0,32.0,4.0,244.0,3384.496
3384506.0,208.0,32.0,3.0,236.0,3384.506
3384516.0,217.0,32.0,5.0,243.0,3384.516
3384526.0,222.0,31.0,4.0,246.0,3384.526
3384536.0,217.0,31.0,4.0,240.0,3384.536
3384546.0,216.0,32.0,4.0,241.0,3384.546
3384556.0,209.0,31.0,3.0,235.0,3384.556
3384566.0,218.0,31.0,3.0,245.0,3384.566
3384576.0,221.0,32.0,4.0,248.0,3384.576
3384586.0,216.0,31.0,4.0,240.0,3384.586
3384596.0,216.0,32.0,4.0,240.0,3384.596
3384606.0,211.0,31.0,4.0,238.0,3384.606
3384616.0,219.0,33.0,3.0,246.0,3384.616
3384626.0,222.0,31.0,4.0,247.0,3384.626
3384636.0,216.0,31.0,4.0,240.0,3384.636
3384646.0,216.0,32.0,5.0,241.0,3384.646
3384656.0,212.0,31.0,4.0,240.0,3384.656
3384666.0,217.0,31.0,5.0,245.0,3384.666
3384676.0,221.0,32.0,3.0,248.0,3384.676
3384686.0,215.0,31.0,3.0,238.0,3384.686
3384696.0,216.0,30.0,4.0,239.0,3384.696
3384706.0,212.0,30.0,4.0,236.0,3384.706
3384716.0,221.0,31.0,4.0,247.0,3384.716
3384726.0,223.0,32.0,3.0,247.0,3384.726
3384736.0,216.0,31.0,4.0,239.0,3384.736
3384747.0,217.0,31.0,4.0,240.0,3384.747
3384757.0,216.0,30.0,4.0,241.0,3384.757
3384767.0,221.0,31.0,4.0,247.0,3384.767
3384777.0,221.0,31.0,4.0,245.0,3384.777
3384787.0,212.0,31.0,4.0,237.0,3384.787
3384797.0,217.0,31.0,5.0,240.0,3384.797
3384807.0,216.0,31.0,3.0,243.0,3384.807
3384817.0,219.0,31.0,3.0,244.0,3384.817
3384827.0,217.0,31.0,3.0,242.0,3384.827
3384837.0,211.0,30.0,4.0,238.0,3384.837
3384847.0,213.0,31.0,4.0,239.0,3384.847
3384857.0,215.0,32.0,3.0,242.0,3384.857
3384867.0,218.0,31.0,4.0,243.0,3384.867
3384877.0,220.0,32.0,3.0,242.0,3384.877
3384887.0,212.0,31.0,4.0,236.0,3384.887
3384897.0,213.0,32.0,4.0,237.0,3384.897
3384907.0,217.0,31.0,4.0,243.0,3384.907
3384918.0,217.0,31.0,3.0,243.0,3384.918
3384928.0,216.0,32.0,4.0,241.0,3384.928
3384938.0,209.0,31.0,3.0,232.0,3384.938
3384948.0,216.0,32.0,3.0,242.0,3384.948
3384958.0,221.0,32.0,4.0,245.0,3384.958
3384968.0,219.0,32.0,4.0,243.0,3384.968
3384978.0,217.0,31.0,4.0,240.0,3384.978
3384988.0,210.0,32.0,3.0,233.0,3384.988
3384998.0,217.0,33.0,3.0,246.0,3384.998
3385008.0,220.0,32.0,4.0,247.0,3385.008
3385018.0,218.0,31.0,4.0,246.0,3385.018
3385028.0,217.0,32.0,4.0,244.0,3385.028
3385038.0,210.0,32.0,4.0,237.0,3385.038
3385048.0,215.0,32.0,4.0,244.0,3385.048
3385058.0,222.0,32.0,4.0,250.0,3385.058
3385068.0,218.0,33.0,3.0,246.0,3385.068
3385078.0,218.0,32.0,4.0,242.0,3385.078
3385088.0,211.0,33.0,3.0,237.0,3385.088
3385098.0,216.0,32.0,4.0,243.0,3385.098
3385108.0,221.0,32.0,4.0,248.0,3385.108
3385118.0,218.0,32.0,4.0,243.0,3385.118
3385128.0,217.0,34.0,3.0,243.0,3385.128
3385138.0,211.0,32.0,4.0,236.0,3385.138
3385148.0,215.0,32.0,4.0,244.0,3385.148
3385158.0,221.0,32.0,4.0,249.0,3385.158
3385168.0,215.0,31.0,3.0,245.0,3385.168
3385178.0,217.0,32.0,4.0,245.0,3385.178
3385188.0,210.0,32.0,4.0,238.0,3385.188
3385198.0,215.0,33.0,3.0,245.0,3385.198
3385208.0,221.0,32.0,4.0,249.0,3385.208
3385218.0,219.0,32.0,3.0,247.0,3385.218
3385228.0,218.0,33.0,4.0,244.0,3385.228
3385238.0,209.0,33.0,4.0,238.0,3385.238
3385248.0,216.0,32.0,3.0,247.0,3385.248
3385259.0,222.0,32.0,4.0,251.0,3385.259
3385269.0,215.0,32.0,3.0,244.0,3385.269
3385279.0,216.0,32.0,4.0,243.0,3385.279
3385289.0,213.0,32.0,4.0,242.0,3385.289
3385299.0,218.0,33.0,3.0,250.0,3385.299
3385309.0,222.0,33.0,5.0,249.0,3385.309
3385319.0,214.0,33.0,3.0,243.0,3385.319
3385329.0,215.0,32.0,3.0,243.0,3385.329
3385339.0,214.0,32.0,4.0,243.0,3385.339
3385349.0,217.0,32.0,3.0,247.0,3385.349
3385359.0,221.0,33.0,4.0,248.0,3385.359
3385369.0,213.0,32.0,4.0,240.0,3385.369
3385379.0,215.0,33.0,4.0,242.0,3385.379
3385389.0,209.0,33.0,4.0,238.0,3385.389
3385399.0,218.0,32.0,4.0,248.0,3385.399
3385409.0,220.0,33.0,4.0,247.0,3385.409
3385419.0,214.0,33.0,4.0,238.0,3385.419
3385430.0,215.0,33.0,3.0,240.0,3385.43
3385440.0,215.0,33.0,4.0,241.0,3385.44
3385450.0,219.0,32.0,4.0,245.0,3385.45
3385460.0,219.0,32.0,3.0,243.0,3385.46
3385470.0,209.0,32.0,4.0,235.0,3385.47
3385480.0,214.0,32.0,4.0,239.0,3385.48
3385490.0,218.0,33.0,4.0,243.0,3385.49
3385500.0,218.0,32.0,4.0,244.0,3385.5
3385510.0,218.0,33.0,4.0,242.0,3385.51
3385520.0,212.0,32.0,4.0,237.0,3385.52
3385530.0,215.0,32.0,3.0,240.0,3385.53
3385540.0,217.0,33.0,4.0,244.0,3385.54
3385550.0,217.0,33.0,4.0,246.0,3385.55
3385560.0,220.0,33.0,4.0,246.0,3385.56
3385570.0,210.0,32.0,4.0,238.0,3385.57
3385580.0,214.0,34.0,3.0,241.0,3385.58
3385590.0,218.0,32.0,4.0,246.0,3385.59
3385600.0,219.0,34.0,3.0,248.0,3385.6
3385610.0,219.0,34.0,4.0,246.0,3385.61
3385620.0,209.0,33.0,4.0,238.0,3385.62
3385630.0,212.0,33.0,4.0,240.0,3385.63
3385640.0,218.0,33.0,3.0,247.0,3385.64
3385650.0,218.0,33.0,4.0,246.0,3385.65
3385660.0,219.0,33.0,4.0,243.0,3385.66
3385670.0,209.0,32.0,4.0,236.0,3385.67
3385680.0,213.0,33.0,4.0,242.0,3385.68
3385690.0,214.0,33.0,4.0,243.0,3385.69
3385700.0,217.0,33.0,4.0,244.0,3385.7
3385710.0,217.0,34.0,3.0,243.0,3385.71
3385720.0,208.0,33.0,4.0,235.0,3385.72
3385730.0,213.0,33.0,3.0,240.0,3385.73
3385740.0,217.0,33.0,4.0,246.0,3385.74
3385750.0,216.0,33.0,2.0,247.0,3385.75
3385760.0,216.0,33.0,4.0,244.0,3385.76
3385771.0,206.0,33.0,3.0,237.0,3385.771
3385781.0,212.0,32.0,4.0,243.0,3385.781
3385791.0,218.0,33.0,3.0,250.0,3385.791
3385801.0,213.0,32.0,4.0,244.0,3385.801
3385811.0,214.0,33.0,4.0,243.0,3385.811
3385821.0,207.0,33.0,4.0,236.0,3385.821
3385831.0,214.0,33.0,3.0,245.0,3385.831
3385841.0,219.0,33.0,3.0,248.0,3385.841
3385851.0,213.0,32.0,4.0,241.0,3385.851
3385861.0,216.0,33.0,3.0,242.0,3385.861
3385871.0,208.0,33.0,4.0,234.0,3385.871
3385881.0,214.0,32.0,3.0,244.0,3385.881
3385891.0,220.0,33.0,4.0,247.0,3385.891
3385901.0,215.0,32.0,4.0,243.0,3385.901
3385911.0,216.0,32.0,3.0,241.0,3385.911
3385921.0,207.0,32.0,4.0,234.0,3385.921
3385931.0,217.0,32.0,5.0,245.0,3385.931
3385942.0,220.0,33.0,4.0,245.0,3385.942
3385952.0,212.0,32.0,4.0,238.0,3385.952
3385962.0,216.0,32.0,4.0,239.0,3385.962
3385972.0,213.0,32.0,4.0,239.0,3385.972
3385982.0,218.0,32.0,4.0,245.0,3385.982
3385992.0,221.0,32.0,3.0,246.0,3385.992
3386002.0,213.0,31.0,3.0,239.0,3386.002
3386012.0,214.0,33.0,3.0,239.0,3386.012
3386022.0,214.0,32.0,3.0,241.0,3386.022
3386032.0,218.0,32.0,3.0,244.0,3386.032
3386042.0,222.0,32.0,4.0,244.0,3386.042
3386052.0,212.0,32.0,4.0,237.0,3386.052
3386062.0,216.0,31.0,4.0,239.0,3386.062
3386072.0,211.0,32.0,4.0,237.0,3386.072
3386082.0,218.0,32.0,4.0,245.0,3386.082
3386092.0,222.0,33.0,3.0,246.0,3386.092
3386102.0,212.0,32.0,4.0,237.0,3386.102
3386112.0,216.0,33.0,3.0,241.0,3386.112
3386122.0,211.0,32.0,3.0,237.0,3386.122
3386132.0,218.0,31.0,3.0,246.0,3386.132
3386142.0,222.0,32.0,4.0,244.0,3386.142
3386152.0,211.0,33.0,3.0,240.0,3386.152
3386162.0,216.0,32.0,3.0,242.0,3386.162
3386172.0,213.0,32.0,4.0,244.0,3386.172
3386182.0,219.0,32.0,4.0,250.0,3386.182
3386192.0,222.0,31.0,4.0,247.0,3386.192
3386202.0,212.0,32.0,4.0,243.0,3386.202
3386212.0,216.0,32.0,4.0,243.0,3386.212
3386222.0,214.0,32.0,3.0,244.0,3386.222
3386232.0,219.0,32.0,3.0,249.0,3386.232
3386242.0,222.0,32.0,3.0,248.0,3386.242
3386252.0,213.0,32.0,5.0,241.0,3386.252
3386262.0,216.0,32.0,4.0,241.0,3386.262
3386272.0,215.0,32.0,4.0,244.0,3386.272
3386283.0,218.0,33.0,3.0,249.0,3386.283
3386293.0,219.0,32.0,4.0,244.0,3386.293
3386303.0,210.0,31.0,3.0,238.0,3386.303
3386313.0,214.0,32.0,4.0,242.0,3386.313
3386323.0,221.0,31.0,4.0,250.0,3386.323
3386333.0,217.0,32.0,5.0,249.0,3386.333
3386343.0,219.0,32.0,4.0,246.0,3386.343
3386353.0,210.0,32.0,3.0,241.0,3386.353
3386363.0,214.0,32.0,3.0,247.0,3386.363
3386373.0,217.0,33.0,3.0,250.0,3386.373
3386383.0,218.0,31.0,4.0,249.0,3386.383
3386393.0,218.0,32.0,4.0,247.0,3386.393
3386403.0,208.0,31.0,4.0,240.0,3386.403
3386413.0,213.0,32.0,4.0,245.0,3386.413
3386423.0,218.0,32.0,4.0,250.0,3386.423
3386433.0,216.0,32.0,3.0,250.0,3386.433
3386443.0,219.0,32.0,4.0,246.0,3386.443
3386454.0,209.0,32.0,4.0,240.0,3386.454
3386464.0,216.0,32.0,3.0,248.0,3386.464
3386474.0,222.0,32.0,3.0,252.0,3386.474
3386484.0,215.0,32.0,3.0,246.0,3386.484
3386494.0,216.0,32.0,4.0,246.0,3386.494
3386504.0,209.0,31.0,3.0,238.0,3386.504
3386514.0,216.0,31.0,4.0,248.0,3386.514
3386524.0,221.0,32.0,3.0,251.0,3386.524
3386534.0,214.0,31.0,4.0,245.0,3386.534
3386544.0,216.0,32.0,4.0,245.0,3386.544
3386554.0,208.0,32.0,4.0,237.0,3386.554
3386564.0,216.0,32.0,3.0,247.0,3386.564
3386574.0,222.0,32.0,4.0,248.0,3386.574
3386584.0,216.0,31.0,3.0,245.0,3386.584
3386594.0,216.0,32.0,3.0,242.0,3386.594
3386604.0,208.0,32.0,3.0,236.0,3386.604
3386614.0,216.0,32.0,3.0,246.0,3386.614
3386624.0,220.0,33.0,3.0,249.0,3386.624
3386634.0,214.0,32.0,3.0,243.0,3386.634
3386644.0,216.0,31.0,4.0,241.0,3386.644
3386654.0,210.0,32.0,4.0,239.0,3386.654
3386664.0,218.0,32.0,4.0,250.0,3386.664
3386674.0,220.0,32.0,4.0,249.0,3386.674
3386684.0,214.0,32.0,4.0,244.0,3386.684
3386694.0,215.0,32.0,4.0,243.0,3386.694
3386704.0,210.0,31.0,4.0,240.0,3386.704
3386714.0,214.0,32.0,3.0,245.0,3386.714
3386724.0,220.0,32.0,4.0,249.0,3386.724
3386734.0,213.0,33.0,3.0,244.0,3386.734
3386744.0,215.0,32.0,4.0,242.0,3386.744
3386754.0,208.0,33.0,3.0,236.0,3386.754
3386764.0,216.0,32.0,4.0,245.0,3386.764
3386774.0,220.0,31.0,4.0,247.0,3386.774
3386784.0,213.0,32.0,3.0,241.0,3386.784
3386795.0,215.0,32.0,3.0,242.0,3386.795
3386805.0,213.0,32.0,3.0,240.0,3386.805
3386815.0,218.0,31.0,4.0,247.0,3386.815
3386825.0,220.0,32.0,3.0,244.0,3386.825
3386835.0,211.0,31.0,4.0,239.0,3386.835
3386845.0,215.0,32.0,4.0,242.0,3386.845
3386855.0,214.0,32.0,3.0,244.0,3386.855
3386865.0,219.0,32.0,3.0,248.0,3386.865
3386875.0,219.0,32.0,4.0,244.0,3386.875
3386885.0,212.0,32.0,3.0,242.0,3386.885
3386895.0,215.0,31.0,5.0,241.0,3386.895
3386905.0,215.0,31.0,4.0,245.0,3386.905
3386915.0,219.0,32.0,4.0,248.0,3386.915
3386925.0,220.0,33.0,4.0,248.0,3386.925
3386935.0,212.0,32.0,4.0,241.0,3386.935
3386945.0,215.0,32.0,3.0,242.0,3386.945
3386955.0,218.0,32.0,5.0,245.0,3386.955
3386966.0,219.0,31.0,4.0,248.0,3386.966
3386976.0,218.0,32.0,4.0,243.0,3386.976
3386986.0,210.0,32.0,3.0,238.0,3386.986
3386996.0,215.0,32.0,3.0,244.0,3386.996
3387006.0,221.0,32.0,4.0,250.0,3387.006
3387016.0,219.0,32.0,4.0,247.0,3387.016
3387026.0,219.0,31.0,4.0,246.0,3387.026
3387036.0,210.0,32.0,4.0,239.0,3387.036
3387046.0,216.0,32.0,3.0,245.0,3387.046
3387056.0,219.0,32.0,4.0,247.0,3387.056
3387066.0,217.0,32.0,4.0,246.0,3387.066
3387076.0,217.0,32.0,4.0,244.0,3387.076
3387086.0,209.0,32.0,4.0,236.0,3387.086
3387096.0,213.0,32.0,4.0,241.0,3387.096
3387106.0,218.0,32.0,4.0,248.0,3387.106
3387116.0,216.0,33.0,3.0,247.0,3387.116
3387126.0,216.0,32.0,3.0,242.0,3387.126
3387136.0,209.0,32.0,4.0,236.0,3387.136
3387146.0,213.0,32.0,5.0,240.0,3387.146
3387156.0,219.0,31.0,4.0,246.0,3387.156
3387166.0,214.0,32.0,3.0,242.0,3387.166
3387176.0,215.0,32.0,4.0,241.0,3387.176
3387186.0,210.0,32.0,2.0,236.0,3387.186
3387196.0,214.0,32.0,4.0,242.0,3387.196
3387206.0,220.0,33.0,3.0,248.0,3387.206
3387216.0,216.0,32.0,4.0,244.0,3387.216
3387226.0,218.0,33.0,3.0,243.0,3387.226
3387236.0,208.0,32.0,4.0,236.0,3387.236
3387246.0,214.0,33.0,3.0,245.0,3387.246
3387256.0,220.0,32.0,4.0,251.0,3387.256
3387266.0,217.0,32.0,3.0,249.0,3387.266
3387276.0,217.0,33.0,5.0,245.0,3387.276
3387286.0,208.0,31.0,4.0,238.0,3387.286
3387296.0,214.0,32.0,4.0,246.0,3387.296
3387307.0,222.0,33.0,3.0,252.0,3387.307
3387317.0,215.0,32.0,3.0,245.0,3387.317
3387327.0,217.0,32.0,3.0,245.0,3387.327
3387337.0,211.0,33.0,3.0,242.0,3387.337
3387347.0,219.0,31.0,4.0,250.0,3387.347
3387357.0,221.0,32.0,4.0,249.0,3387.357
3387367.0,214.0,32.0,4.0,244.0,3387.367
3387377.0,215.0,33.0,3.0,244.0,3387.377
3387387.0,211.0,32.0,4.0,241.0,3387.387
3387397.0,217.0,33.0,3.0,248.0,3387.397
3387407.0,221.0,33.0,5.0,248.0,3387.407
3387417.0,212.0,31.0,4.0,242.0,3387.417
3387427.0,214.0,32.0,4.0,243.0,3387.427
3387437.0,207.0,31.0,4.0,238.0,3387.437
3387447.0,216.0,32.0,3.0,247.0,3387.447
3387457.0,220.0,32.0,4.0,249.0,3387.457
3387467.0,211.0,32.0,4.0,243.0,3387.467
3387478.0,214.0,31.0,4.0,243.0,3387.478
3387488.0,212.0,33.0,4.0,245.0,3387.488
3387498.0,217.0,32.0,4.0,249.0,3387.498
3387508.0,218.0,33.0,3.0,245.0,3387.508
3387518.0,208.0,32.0,4.0,237.0,3387.518
3387528.0,213.0,32.0,3.0,241.0,3387.528
3387538.0,215.0,32.0,4.0,243.0,3387.538
3387548.0,216.0,32.0,2.0,245.0,3387.548
3387558.0,217.0,32.0,4.0,243.0,3387.558
3387568.0,210.0,31.0,3.0,239.0,3387.568
3387578.0,213.0,32.0,4.0,240.0,3387.578
3387588.0,215.0,32.0,4.0,245.0,3387.588
3387598.0,217.0,32.0,5.0,246.0,3387.598
3387608.0,219.0,32.0,4.0,246.0,3387.608
3387618.0,210.0,32.0,4.0,239.0,3387.618
3387628.0,213.0,33.0,3.0,242.0,3387.628
3387638.0,217.0,32.0,4.0,247.0,3387.638
3387648.0,218.0,32.0,4.0,251.0,3387.648
3387658.0,220.0,33.0,4.0,248.0,3387.658
3387668.0,211.0,31.0,4.0,240.0,3387.668
3387678.0,214.0,32.0,3.0,243.0,3387.678
3387688.0,218.0,32.0,4.0,249.0,3387.688
3387698.0,218.0,32.0,4.0,249.0,3387.698
3387708.0,219.0,32.0,3.0,247.0,3387.708
3387718.0,209.0,32.0,4.0,239.0,3387.718
3387728.0,214.0,33.0,4.0,242.0,3387.728
3387738.0,214.0,32.0,4.0,246.0,3387.738
3387748.0,217.0,32.0,3.0,249.0,3387.748
3387758.0,219.0,33.0,3.0,247.0,3387.758
3387768.0,210.0,32.0,3.0,238.0,3387.768
3387778.0,215.0,32.0,3.0,242.0,3387.778
3387788.0,216.0,32.0,4.0,245.0,3387.788
3387798.0,220.0,31.0,4.0,247.0,3387.798
3387808.0,220.0,33.0,3.0,245.0,3387.808
3387819.0,211.0,32.0,4.0,238.0,3387.819
3387829.0,215.0,32.0,3.0,244.0,3387.829
3387839.0,221.0,32.0,4.0,248.0,3387.839
3387849.0,216.0,32.0,4.0,245.0,3387.849
3387859.0,218.0,31.0,4.0,242.0,3387.859
3387869.0,209.0,32.0,4.0,236.0,3387.869
3387879.0,214.0,31.0,4.0,243.0,3387.879
3387889.0,222.0,33.0,3.0,248.0,3387.889
3387899.0,216.0,31.0,3.0,243.0,3387.899
3387909.0,218.0,33.0,3.0,244.0,3387.909
3387919.0,210.0,32.0,5.0,235.0,3387.919
3387929.0,215.0,31.0,4.0,244.0,3387.929
3387939.0,221.0,32.0,4.0,248.0,3387.939
3387949.0,217.0,31.0,4.0,246.0,3387.949
3387959.0,216.0,32.0,3.0,243.0,3387.959
3387969.0,209.0,32.0,4.0,236.0,3387.969
3387979.0,215.0,32.0,5.0,244.0,3387.979
3387990.0,222.0,31.0,4.0,246.0,3387.99
3388000.0,214.0,32.0,3.0,240.0,3388.0
3388010.0,216.0,31.0,3.0,240.0,3388.01
3388020.0,212.0,33.0,3.0,240.0,3388.02
3388030.0,218.0,32.0,3.0,247.0,3388.03
3388040.0,221.0,33.0,3.0,247.0,3388.04
3388050.0,214.0,31.0,4.0,240.0,3388.05
3388060.0,215.0,31.0,3.0,242.0,3388.06
3388070.0,212.0,32.0,3.0,241.0,3388.07
3388080.0,216.0,32.0,4.0,246.0,3388.08
3388090.0,220.0,32.0,3.0,246.0,3388.09
3388100.0,213.0,32.0,4.0,241.0,3388.1
3388110.0,214.0,32.0,4.0,242.0,3388.11
3388120.0,208.0,32.0,4.0,238.0,3388.12
3388130.0,217.0,32.0,3.0,248.0,3388.13
3388140.0,220.0,33.0,4.0,248.0,3388.14
3388150.0,211.0,32.0,3.0,240.0,3388.15
3388160.0,215.0,32.0,4.0,242.0,3388.16
3388170.0,209.0,32.0,3.0,239.0,3388.17
3388180.0,219.0,32.0,5.0,246.0,3388.18
3388190.0,221.0,33.0,4.0,246.0,3388.19
3388200.0,213.0,32.0,3.0,238.0,3388.2
3388210.0,215.0,32.0,2.0,241.0,3388.21
3388220.0,211.0,32.0,4.0,238.0,3388.22
3388230.0,218.0,31.0,3.0,245.0,3388.23
3388240.0,221.0,32.0,5.0,243.0,3388.24
3388250.0,214.0,32.0,4.0,239.0,3388.25
3388260.0,215.0,32.0,3.0,238.0,3388.26
3388270.0,212.0,32.0,3.0,239.0,3388.27
3388280.0,219.0,32.0,3.0,243.0,3388.28
3388290.0,222.0,32.0,4.0,244.0,3388.29
3388300.0,214.0,32.0,4.0,237.0,3388.3
3388310.0,216.0,31.0,4.0,238.0,3388.31
3388320.0,213.0,32.0,4.0,240.0,3388.32
3388331.0,218.0,32.0,3.0,244.0,3388.331
3388341.0,219.0,33.0,3.0,244.0,3388.341
3388351.0,211.0,32.0,4.0,236.0,3388.351
3388361.0,214.0,32.0,3.0,240.0,3388.361
3388371.0,221.0,32.0,5.0,246.0,3388.371
3388381.0,219.0,32.0,3.0,245.0,3388.381
3388391.0,219.0,32.0,4.0,242.0,3388.391
3388401.0,211.0,33.0,3.0,235.0,3388.401
3388411.0,214.0,32.0,3.0,240.0,3388.411
3388421.0,217.0,33.0,3.0,244.0,3388.421
3388431.0,220.0,32.0,4.0,246.0,3388.431
3388441.0,220.0,31.0,4.0,243.0,3388.441
3388451.0,211.0,32.0,4.0,235.0,3388.451
3388461.0,216.0,31.0,4.0,240.0,3388.461
3388471.0,217.0,32.0,3.0,245.0,3388.471
3388481.0,218.0,32.0,4.0,244.0,3388.481
3388491.0,217.0,33.0,3.0,242.0,3388.491
3388502.0,211.0,31.0,5.0,235.0,3388.502
3388512.0,214.0,32.0,4.0,244.0,3388.512
3388522.0,221.0,33.0,4.0,248.0,3388.522
3388532.0,216.0,33.0,3.0,241.0,3388.532
3388542.0,217.0,32.0,4.0,240.0,3388.542
3388552.0,210.0,32.0,4.0,232.0,3388.552
3388562.0,216.0,33.0,5.0,242.0,3388.562
3388572.0,222.0,33.0,4.0,247.0,3388.572
3388582.0,216.0,33.0,4.0,240.0,3388.582
3388592.0,216.0,33.0,4.0,241.0,3388.592
3388602.0,210.0,32.0,3.0,234.0,3388.602
3388612.0,217.0,33.0,4.0,245.0,3388.612
3388622.0,221.0,34.0,4.0,248.0,3388.622
3388632.0,218.0,33.0,3.0,244.0,3388.632
3388642.0,217.0,33.0,4.0,241.0,3388.642
3388652.0,209.0,33.0,3.0,235.0,3388.652
3388662.0,218.0,34.0,3.0,246.0,3388.662
3388672.0,220.0,33.0,4.0,245.0,3388.672
3388682.0,217.0,33.0,3.0,242.0,3388.682
3388692.0,217.0,34.0,5.0,240.0,3388.692
3388702.0,209.0,33.0,4.0,235.0,3388.702
3388712.0,218.0,34.0,4.0,245.0,3388.712
3388722.0,222.0,34.0,4.0,246.0,3388.722
3388732.0,217.0,33.0,4.0,243.0,3388.732
3388742.0,217.0,33.0,4.0,243.0,3388.742
3388752.0,211.0,33.0,4.0,237.0,3388.752
3388762.0,216.0,34.0,4.0,243.0,3388.762
3388772.0,221.0,34.0,4.0,247.0,3388.772
3388782.0,216.0,33.0,4.0,241.0,3388.782
3388792.0,217.0,34.0,3.0,240.0,3388.792
3388802.0,210.0,34.0,4.0,234.0,3388.802
3388812.0,216.0,33.0,3.0,242.0,3388.812
3388822.0,222.0,34.0,4.0,246.0,3388.822
3388832.0,214.0,33.0,4.0,240.0,3388.832
3388843.0,215.0,34.0,4.0,239.0,3388.843
3388853.0,212.0,34.0,3.0,240.0,3388.853
3388863.0,219.0,34.0,4.0,247.0,3388.863
3388873.0,220.0,34.0,3.0,246.0,3388.873
3388883.0,212.0,33.0,5.0,238.0,3388.883
3388893.0,215.0,33.0,4.0,241.0,3388.893
3388903.0,212.0,33.0,3.0,241.0,3388.903
3388913.0,218.0,33.0,4.0,248.0,3388.913
3388923.0,218.0,34.0,3.0,246.0,3388.923
3388933.0,212.0,33.0,4.0,241.0,3388.933
3388943.0,214.0,34.0,4.0,240.0,3388.943
3388953.0,215.0,33.0,4.0,242.0,3388.953
3388963.0,218.0,33.0,4.0,246.0,3388.963
3388973.0,221.0,34.0,4.0,246.0,3388.973
3388983.0,212.0,34.0,3.0,240.0,3388.983
3388993.0,214.0,33.0,4.0,238.0,3388.993
3389003.0,214.0,33.0,3.0,242.0,3389.003
3389014.0,219.0,33.0,5.0,245.0,3389.014
3389024.0,217.0,33.0,4.0,243.0,3389.024
3389034.0,209.0,32.0,3.0,235.0,3389.034
3389044.0,212.0,34.0,3.0,239.0,3389.044
3389054.0,219.0,33.0,4.0,244.0,3389.054
3389064.0,218.0,32.0,3.0,242.0,3389.064
3389074.0,217.0,34.0,4.0,239.0,3389.074
3389084.0,209.0,33.0,4.0,230.0,3389.084
3389094.0,214.0,33.0,4.0,237.0,3389.094
3389104.0,217.0,33.0,4.0,240.0,3389.104
3389114.0,217.0,33.0,3.0,240.0,3389.114
3389124.0,217.0,34.0,3.0,238.0,3389.124
3389134.0,207.0,33.0,4.0,230.0,3389.134
3389144.0,213.0,32.0,4.0,236.0,3389.144
3389154.0,216.0,33.0,4.0,242.0,3389.154
3389164.0,216.0,33.0,4.0,241.0,3389.164
3389174.0,216.0,33.0,3.0,240.0,3389.174
3389184.0,209.0,33.0,4.0,233.0,3389.184
3389194.0,212.0,33.0,3.0,237.0,3389.194
3389204.0,218.0,33.0,5.0,243.0,3389.204
3389214.0,216.0,33.0,4.0,241.0,3389.214
3389224.0,214.0,33.0,3.0,239.0,3389.224
3389234.0,209.0,33.0,2.0,233.0,3389.234
3389244.0,212.0,33.0,3.0,237.0,3389.244
3389254.0,218.0,32.0,4.0,244.0,3389.254
3389264.0,216.0,33.0,4.0,240.0,3389.264
3389274.0,216.0,33.0,4.0,240.0,3389.274
3389284.0,209.0,33.0,3.0,231.0,3389.284
3389294.0,212.0,33.0,4.0,237.0,3389.294
3389304.0,218.0,34.0,3.0,244.0,3389.304
3389314.0,217.0,33.0,3.0,241.0,3389.314
3389324.0,216.0,33.0,4.0,239.0,3389.324
3389334.0,209.0,33.0,4.0,230.0,3389.334
3389344.0,212.0,33.0,4.0,237.0,3389.344
3389355.0,218.0,33.0,4.0,243.0,3389.355
3389365.0,215.0,33.0,4.0,237.0,3389.365
3389375.0,215.0,32.0,4.0,236.0,3389.375
3389385.0,208.0,33.0,4.0,233.0,3389.385
3389395.0,217.0,32.0,5.0,241.0,3389.395
3389405.0,218.0,33.0,4.0,243.0,3389.405
3389415.0,214.0,32.0,4.0,236.0,3389.415
3389425.0,214.0,33.0,4.0,238.0,3389.425
3389435.0,210.0,32.0,3.0,234.0,3389.435
3389445.0,215.0,32.0,3.0,238.0,3389.445
3389455.0,220.0,32.0,4.0,243.0,3389.455
3389465.0,214.0,32.0,4.0,233.0,3389.465
3389475.0,214.0,33.0,2.0,234.0,3389.475
3389485.0,208.0,33.0,5.0,227.0,3389.485
3389495.0,215.0,34.0,3.0,239.0,3389.495
3389505.0,219.0,33.0,3.0,240.0,3389.505
3389515.0,213.0,32.0,4.0,231.0,3389.515
3389526.0,214.0,33.0,5.0,233.0,3389.526
3389536.0,211.0,33.0,4.0,233.0,3389.536
3389546.0,217.0,33.0,4.0,238.0,3389.546
3389556.0,218.0,33.0,3.0,237.0,3389.556
3389566.0,211.0,32.0,4.0,228.0,3389.566
3389576.0,214.0,32.0,4.0,233.0,3389.576
3389586.0,214.0,33.0,4.0,234.0,3389.586
3389596.0,218.0,32.0,4.0,237.0,3389.596
3389606.0,216.0,33.0,4.0,236.0,3389.606
3389616.0,213.0,31.0,4.0,230.0,3389.616
3389626.0,213.0,33.0,3.0,232.0,3389.626
3389636.0,213.0,32.0,4.0,235.0,3389.636
3389646.0,217.0,33.0,4.0,238.0,3389.646
3389656.0,216.0,32.0,4.0,240.0,3389.656
3389666.0,208.0,32.0,2.0,233.0,3389.666
3389676.0,211.0,33.0,4.0,235.0,3389.676
3389686.0,213.0,34.0,3.0,240.0,3389.686
3389696.0,215.0,32.0,4.0,240.0,3389.696
3389706.0,216.0,33.0,3.0,240.0,3389.706
3389716.0,210.0,32.0,5.0,231.0,3389.716
3389726.0,211.0,33.0,4.0,234.0,3389.726
3389736.0,214.0,33.0,4.0,239.0,3389.736
3389746.0,217.0,33.0,4.0,240.0,3389.746
3389756.0,217.0,34.0,3.0,238.0,3389.756
3389766.0,209.0,33.0,3.0,230.0,3389.766
3389776.0,212.0,33.0,4.0,232.0,3389.776
3389786.0,214.0,32.0,3.0,234.0,3389.786
3389796.0,219.0,33.0,3.0,239.0,3389.796
3389806.0,217.0,33.0,3.0,237.0,3389.806
3389816.0,211.0,33.0,3.0,230.0,3389.816
3389826.0,214.0,32.0,4.0,233.0,3389.826
3389836.0,214.0,33.0,3.0,236.0,3389.836
3389846.0,219.0,32.0,5.0,239.0,3389.846
3389856.0,216.0,33.0,4.0,238.0,3389.856
3389867.0,210.0,32.0,4.0,228.0,3389.867
3389877.0,213.0,33.0,3.0,234.0,3389.877
3389887.0,219.0,33.0,3.0,240.0,3389.887
3389897.0,217.0,32.0,4.0,234.0,3389.897
3389907.0,215.0,33.0,5.0,233.0,3389.907
3389917.0,211.0,33.0,3.0,226.0,3389.917
3389927.0,212.0,33.0,3.0,234.0,3389.927
3389937.0,219.0,33.0,4.0,240.0,3389.937
3389947.0,216.0,33.0,3.0,234.0,3389.947
3389957.0,216.0,33.0,4.0,236.0,3389.957
3389967.0,209.0,33.0,4.0,227.0,3389.967
3389977.0,215.0,33.0,4.0,235.0,3389.977
3389987.0,219.0,33.0,4.0,241.0,3389.987
3389997.0,219.0,32.0,5.0,235.0,3389.997
3390007.0,216.0,34.0,3.0,237.0,3390.007
3390017.0,209.0,32.0,4.0,227.0,3390.017
3390027.0,215.0,33.0,4.0,236.0,3390.027
3390038.0,220.0,34.0,5.0,240.0,3390.038
3390048.0,215.0,33.0,4.0,232.0,3390.048
3390058.0,214.0,33.0,3.0,234.0,3390.058
3390068.0,210.0,33.0,3.0,233.0,3390.068
3390078.0,218.0,32.0,3.0,239.0,3390.078
3390088.0,219.0,32.0,4.0,241.0,3390.088
3390098.0,214.0,33.0,4.0,233.0,3390.098
3390108.0,214.0,33.0,4.0,235.0,3390.108
3390118.0,211.0,33.0,4.0,234.0,3390.118
3390128.0,216.0,33.0,4.0,238.0,3390.128
3390138.0,219.0,34.0,3.0,241.0,3390.138
