time (ms),signal 0,signal 1,signal 2,signal 3,time (sec)
3520172.0,219.0,32.0,4.0,247.0,3520.172
3520182.0,217.0,32.0,4.0,243.0,3520.182
3520192.0,210.0,31.0,5.0,235.0,3520.192
3520202.0,212.0,33.0,3.0,239.0,3520.202
3520212.0,219.0,32.0,3.0,244.0,3520.212
3520222.0,217.0,31.0,4.0,243.0,3520.222
3520232.0,217.0,32.0,4.0,240.0,3520.232
3520242.0,208.0,32.0,4.0,231.0,3520.242
3520252.0,213.0,32.0,5.0,238.0,3520.252
3520262.0,216.0,32.0,4.0,242.0,3520.262
3520272.0,217.0,31.0,4.0,243.0,3520.272
3520282.0,217.0,32.0,4.0,241.0,3520.282
3520292.0,209.0,32.0,4.0,233.0,3520.292
3520302.0,213.0,32.0,4.0,239.0,3520.302
3520312.0,218.0,32.0,5.0,245.0,3520.312
3520322.0,218.0,31.0,4.0,244.0,3520.322
3520332.0,217.0,32.0,4.0,243.0,3520.332
3520342.0,212.0,31.0,5.0,238.0,3520.342
3520352.0,214.0,33.0,3.0,242.0,3520.352
3520362.0,219.0,32.0,4.0,249.0,3520.362
3520372.0,218.0,32.0,3.0,246.0,3520.372
3520382.0,218.0,31.0,5.0,244.0,3520.382
3520392.0,211.0,32.0,4.0,237.0,3520.392
3520402.0,214.0,32.0,4.0,241.0,3520.402
3520412.0,220.0,33.0,3.0,248.0,3520.412
3520422.0,217.0,30.0,4.0,246.0,3520.422
3520432.0,218.0,33.0,3.0,247.0,3520.432
3520442.0,212.0,31.0,4.0,238.0,3520.442
3520452.0,215.0,31.0,4.0,243.0,3520.452
3520462.0,220.0,32.0,4.0,249.0,3520.462
3520472.0,220.0,31.0,4.0,248.0,3520.472
3520482.0,219.0,33.0,3.0,246.0,3520.482
3520492.0,211.0,30.0,3.0,238.0,3520.492
3520502.0,216.0,31.0,4.0,244.0,3520.502
3520512.0,218.0,32.0,4.0,247.0,3520.512
3520522.0,220.0,31.0,4.0,247.0,3520.522
3520532.0,219.0,32.0,4.0,244.0,3520.532
3520542.0,211.0,32.0,3.0,235.0,3520.542
3520552.0,217.0,32.0,3.0,242.0,3520.552
3520562.0,219.0,32.0,3.0,247.0,3520.562
3520572.0,219.0,31.0,5.0,244.0,3520.572
3520582.0,218.0,31.0,4.0,243.0,3520.582
3520592.0,209.0,31.0,4.0,235.0,3520.592
3520602.0,214.0,31.0,4.0,241.0,3520.602
3520612.0,219.0,32.0,3.0,248.0,3520.612
3520622.0,218.0,31.0,3.0,245.0,3520.622
3520632.0,217.0,32.0,4.0,244.0,3520.632
3520642.0,211.0,30.0,4.0,238.0,3520.642
3520652.0,215.0,31.0,3.0,242.0,3520.652
3520662.0,222.0,31.0,4.0,249.0,3520.662
3520672.0,219.0,31.0,3.0,246.0,3520.672
3520683.0,219.0,31.0,4.0,244.0,3520.683
3520693.0,211.0,31.0,4.0,238.0,3520.693
3520703.0,221.0,31.0,5.0,249.0,3520.703
3520713.0,223.0,32.0,3.0,250.0,3520.713
3520723.0,215.0,31.0,4.0,241.0,3520.723
3520733.0,218.0,31.0,3.0,245.0,3520.733
3520743.0,211.0,31.0,3.0,238.0,3520.743
3520753.0,220.0,31.0,4.0,249.0,3520.753
3520763.0,224.0,32.0,4.0,251.0,3520.763
3520773.0,218.0,31.0,3.0,245.0,3520.773
3520783.0,218.0,31.0,3.0,244.0,3520.783
3520793.0,212.0,31.0,4.0,240.0,3520.793
3520803.0,220.0,32.0,3.0,248.0,3520.803
3520813.0,223.0,31.0,4.0,249.0,3520.813
3520823.0,216.0,31.0,4.0,242.0,3520.823
3520833.0,219.0,31.0,4.0,243.0,3520.833
3520843.0,213.0,31.0,4.0,242.0,3520.843
3520854.0,222.0,31.0,4.0,249.0,3520.854
3520864.0,222.0,33.0,3.0,249.0,3520.864
3520874.0,213.0,31.0,3.0,240.0,3520.874
3520884.0,217.0,31.0,3.0,243.0,3520.884
3520894.0,221.0,31.0,5.0,248.0,3520.894
3520904.0,222.0,31.0,3.0,249.0,3520.904
3520914.0,224.0,32.0,4.0,247.0,3520.914
3520924.0,214.0,32.0,4.0,240.0,3520.924
3520934.0,216.0,31.0,4.0,242.0,3520.934
3520944.0,217.0,32.0,4.0,244.0,3520.944
3520954.0,221.0,31.0,4.0,248.0,3520.954
3520964.0,223.0,31.0,4.0,246.0,3520.964
3520974.0,212.0,32.0,2.0,237.0,3520.974
3520984.0,219.0,31.0,4.0,243.0,3520.984
3520994.0,219.0,32.0,3.0,245.0,3520.994
3521004.0,222.0,32.0,4.0,247.0,3521.004
3521014.0,221.0,32.0,3.0,247.0,3521.014
3521024.0,214.0,32.0,4.0,240.0,3521.024
3521034.0,216.0,32.0,4.0,243.0,3521.034
3521044.0,218.0,32.0,4.0,247.0,3521.044
3521054.0,221.0,32.0,3.0,250.0,3521.054
3521064.0,220.0,32.0,4.0,246.0,3521.064
3521074.0,214.0,32.0,3.0,241.0,3521.074
3521084.0,216.0,32.0,4.0,242.0,3521.084
3521094.0,220.0,31.0,4.0,247.0,3521.094
3521104.0,220.0,32.0,3.0,247.0,3521.104
3521114.0,223.0,31.0,4.0,247.0,3521.114
3521124.0,214.0,32.0,3.0,237.0,3521.124
3521134.0,217.0,32.0,4.0,240.0,3521.134
3521144.0,220.0,33.0,4.0,246.0,3521.144
3521154.0,221.0,32.0,4.0,247.0,3521.154
3521164.0,222.0,32.0,4.0,249.0,3521.164
3521174.0,213.0,32.0,4.0,243.0,3521.174
3521184.0,216.0,33.0,3.0,248.0,3521.184
3521195.0,222.0,32.0,4.0,258.0,3521.195
3521205.0,222.0,32.0,4.0,263.0,3521.205
3521215.0,223.0,33.0,4.0,264.0,3521.215
3521225.0,214.0,33.0,4.0,258.0,3521.225
3521235.0,221.0,32.0,4.0,265.0,3521.235
3521245.0,224.0,33.0,3.0,266.0,3521.245
3521255.0,222.0,32.0,3.0,260.0,3521.255
3521265.0,222.0,32.0,4.0,259.0,3521.265
3521275.0,219.0,33.0,4.0,254.0,3521.275
3521285.0,225.0,32.0,4.0,258.0,3521.285
3521295.0,230.0,33.0,4.0,272.0,3521.295
3521305.0,224.0,33.0,3.0,263.0,3521.305
3521315.0,223.0,34.0,3.0,259.0,3521.315
3521325.0,217.0,32.0,4.0,247.0,3521.325
3521335.0,220.0,33.0,3.0,254.0,3521.335
3521345.0,226.0,33.0,5.0,258.0,3521.345
3521355.0,221.0,32.0,4.0,255.0,3521.355
3521366.0,219.0,32.0,4.0,250.0,3521.366
3521376.0,217.0,33.0,4.0,248.0,3521.376
3521386.0,224.0,32.0,3.0,256.0,3521.386
3521396.0,221.0,32.0,3.0,247.0,3521.396
3521406.0,211.0,32.0,5.0,231.0,3521.406
3521416.0,215.0,33.0,4.0,239.0,3521.416
3521426.0,212.0,33.0,4.0,247.0,3521.426
3521436.0,228.0,33.0,4.0,256.0,3521.436
3521446.0,233.0,33.0,3.0,253.0,3521.446
3521456.0,233.0,32.0,4.0,249.0,3521.456
3521466.0,236.0,33.0,4.0,254.0,3521.466
3521476.0,239.0,32.0,5.0,254.0,3521.476
3521486.0,246.0,33.0,4.0,268.0,3521.486
3521496.0,245.0,33.0,5.0,270.0,3521.496
3521506.0,234.0,33.0,3.0,253.0,3521.506
3521516.0,235.0,32.0,4.0,254.0,3521.516
3521526.0,238.0,33.0,4.0,260.0,3521.526
3521536.0,246.0,33.0,4.0,262.0,3521.536
3521546.0,251.0,33.0,4.0,270.0,3521.546
3521556.0,247.0,33.0,4.0,261.0,3521.556
3521566.0,245.0,33.0,3.0,264.0,3521.566
3521576.0,241.0,33.0,3.0,261.0,3521.576
3521586.0,237.0,33.0,4.0,251.0,3521.586
3521596.0,237.0,34.0,4.0,253.0,3521.596
3521606.0,232.0,33.0,4.0,242.0,3521.606
3521616.0,234.0,33.0,3.0,249.0,3521.616
3521626.0,236.0,33.0,4.0,252.0,3521.626
3521636.0,237.0,34.0,3.0,262.0,3521.636
3521646.0,239.0,33.0,4.0,258.0,3521.646
3521656.0,235.0,33.0,3.0,245.0,3521.656
3521666.0,240.0,32.0,3.0,250.0,3521.666
3521676.0,234.0,33.0,4.0,253.0,3521.676
3521686.0,238.0,32.0,4.0,260.0,3521.686
3521696.0,237.0,34.0,3.0,255.0,3521.696
3521707.0,229.0,32.0,3.0,243.0,3521.707
3521717.0,231.0,33.0,3.0,249.0,3521.717
3521727.0,234.0,33.0,4.0,252.0,3521.727
3521737.0,238.0,33.0,4.0,252.0,3521.737
3521747.0,235.0,33.0,3.0,253.0,3521.747
3521757.0,228.0,33.0,4.0,243.0,3521.757
3521767.0,227.0,34.0,3.0,244.0,3521.767
3521777.0,231.0,32.0,4.0,252.0,3521.777
3521787.0,231.0,33.0,4.0,254.0,3521.787
3521797.0,234.0,32.0,4.0,256.0,3521.797
3521807.0,241.0,33.0,2.0,248.0,3521.807
3521817.0,241.0,33.0,4.0,245.0,3521.817
3521827.0,284.0,34.0,3.0,251.0,3521.827
3521837.0,283.0,33.0,4.0,253.0,3521.837
3521847.0,280.0,33.0,4.0,256.0,3521.847
3521857.0,276.0,34.0,4.0,247.0,3521.857
3521867.0,281.0,33.0,3.0,254.0,3521.867
3521878.0,286.0,33.0,4.0,261.0,3521.878
3521888.0,276.0,33.0,4.0,258.0,3521.888
3521898.0,269.0,34.0,3.0,256.0,3521.898
3521908.0,256.0,33.0,3.0,248.0,3521.908
3521918.0,260.0,33.0,4.0,256.0,3521.918
3521928.0,266.0,33.0,4.0,258.0,3521.928
3521938.0,257.0,33.0,4.0,260.0,3521.938
3521948.0,254.0,33.0,3.0,257.0,3521.948
3521958.0,243.0,34.0,3.0,249.0,3521.958
3521968.0,247.0,33.0,3.0,252.0,3521.968
3521978.0,249.0,33.0,4.0,263.0,3521.978
3521988.0,238.0,33.0,5.0,263.0,3521.988
3521998.0,234.0,33.0,4.0,256.0,3521.998
3522008.0,224.0,33.0,4.0,246.0,3522.008
3522018.0,225.0,33.0,3.0,242.0,3522.018
3522028.0,233.0,32.0,4.0,244.0,3522.028
3522038.0,223.0,32.0,4.0,242.0,3522.038
3522048.0,226.0,32.0,4.0,243.0,3522.048
3522058.0,222.0,33.0,3.0,231.0,3522.058
3522068.0,227.0,33.0,3.0,230.0,3522.068
3522078.0,230.0,33.0,4.0,237.0,3522.078
3522088.0,226.0,33.0,3.0,254.0,3522.088
3522098.0,235.0,33.0,4.0,270.0,3522.098
3522108.0,227.0,32.0,4.0,275.0,3522.108
3522118.0,237.0,33.0,4.0,292.0,3522.118
3522128.0,243.0,34.0,2.0,299.0,3522.128
3522138.0,238.0,33.0,3.0,293.0,3522.138
3522148.0,238.0,33.0,3.0,295.0,3522.148
3522158.0,235.0,32.0,4.0,312.0,3522.158
3522168.0,243.0,32.0,3.0,328.0,3522.168
3522178.0,246.0,33.0,4.0,323.0,3522.178
3522188.0,241.0,33.0,4.0,321.0,3522.188
3522198.0,240.0,32.0,4.0,326.0,3522.198
3522208.0,234.0,33.0,4.0,304.0,3522.208
3522219.0,244.0,32.0,4.0,322.0,3522.219
3522229.0,251.0,32.0,4.0,334.0,3522.229
3522239.0,238.0,33.0,4.0,321.0,3522.239
3522249.0,235.0,33.0,4.0,321.0,3522.249
3522259.0,236.0,32.0,4.0,322.0,3522.259
3522269.0,238.0,31.0,4.0,317.0,3522.269
3522279.0,238.0,33.0,3.0,310.0,3522.279
3522289.0,229.0,32.0,4.0,295.0,3522.289
3522299.0,230.0,32.0,3.0,294.0,3522.299
3522309.0,229.0,32.0,5.0,290.0,3522.309
3522319.0,237.0,32.0,4.0,293.0,3522.319
3522329.0,226.0,32.0,4.0,287.0,3522.329
3522339.0,237.0,32.0,3.0,284.0,3522.339
3522349.0,247.0,32.0,4.0,276.0,3522.349
3522359.0,268.0,32.0,4.0,277.0,3522.359
3522369.0,289.0,32.0,5.0,275.0,3522.369
3522379.0,292.0,31.0,4.0,269.0,3522.379
3522390.0,277.0,32.0,4.0,260.0,3522.39
3522400.0,281.0,32.0,4.0,265.0,3522.4
3522410.0,283.0,32.0,3.0,274.0,3522.41
3522420.0,276.0,32.0,3.0,270.0,3522.42
3522430.0,270.0,32.0,5.0,265.0,3522.43
3522440.0,263.0,31.0,4.0,257.0,3522.44
3522450.0,257.0,32.0,3.0,261.0,3522.45
3522460.0,258.0,32.0,4.0,265.0,3522.46
3522470.0,251.0,32.0,3.0,261.0,3522.47
3522480.0,250.0,32.0,4.0,260.0,3522.48
3522490.0,239.0,31.0,4.0,253.0,3522.49
3522500.0,238.0,32.0,4.0,258.0,3522.5
3522510.0,242.0,32.0,4.0,263.0,3522.51
3522520.0,240.0,32.0,4.0,262.0,3522.52
3522530.0,240.0,33.0,3.0,259.0,3522.53
3522540.0,231.0,32.0,4.0,248.0,3522.54
3522550.0,235.0,32.0,4.0,257.0,3522.55
3522560.0,237.0,32.0,3.0,260.0,3522.56
3522570.0,236.0,31.0,4.0,261.0,3522.57
3522580.0,235.0,32.0,4.0,262.0,3522.58
3522590.0,226.0,31.0,4.0,251.0,3522.59
3522600.0,234.0,32.0,3.0,259.0,3522.6
3522610.0,236.0,32.0,4.0,260.0,3522.61
3522620.0,234.0,31.0,4.0,256.0,3522.62
3522630.0,233.0,32.0,5.0,251.0,3522.63
3522640.0,223.0,31.0,4.0,242.0,3522.64
3522650.0,227.0,32.0,4.0,245.0,3522.65
3522660.0,233.0,32.0,3.0,253.0,3522.66
3522670.0,231.0,32.0,4.0,250.0,3522.67
3522680.0,230.0,32.0,3.0,249.0,3522.68
3522690.0,225.0,32.0,3.0,244.0,3522.69
3522700.0,231.0,31.0,4.0,251.0,3522.7
3522710.0,235.0,32.0,3.0,256.0,3522.71
3522720.0,231.0,31.0,4.0,254.0,3522.72
3522731.0,233.0,32.0,3.0,252.0,3522.731
3522741.0,236.0,30.0,4.0,249.0,3522.741
3522751.0,244.0,31.0,4.0,260.0,3522.751
3522761.0,253.0,31.0,4.0,264.0,3522.761
3522771.0,240.0,31.0,2.0,256.0,3522.771
3522781.0,241.0,31.0,5.0,258.0,3522.781
3522791.0,231.0,32.0,3.0,254.0,3522.791
3522801.0,239.0,31.0,3.0,264.0,3522.801
3522811.0,240.0,31.0,3.0,264.0,3522.811
3522821.0,234.0,31.0,3.0,259.0,3522.821
3522831.0,233.0,31.0,3.0,260.0,3522.831
3522841.0,227.0,32.0,3.0,260.0,3522.841
3522851.0,236.0,31.0,3.0,271.0,3522.851
3522861.0,237.0,31.0,4.0,272.0,3522.861
3522871.0,231.0,30.0,3.0,263.0,3522.871
3522881.0,230.0,32.0,4.0,261.0,3522.881
3522891.0,227.0,31.0,4.0,257.0,3522.891
3522902.0,234.0,31.0,3.0,263.0,3522.902
3522912.0,235.0,31.0,3.0,260.0,3522.912
3522922.0,225.0,31.0,3.0,253.0,3522.922
3522932.0,228.0,30.0,4.0,256.0,3522.932
3522942.0,231.0,30.0,4.0,261.0,3522.942
3522952.0,233.0,30.0,3.0,263.0,3522.952
3522962.0,231.0,30.0,4.0,256.0,3522.962
3522972.0,222.0,31.0,4.0,245.0,3522.972
3522982.0,225.0,32.0,3.0,251.0,3522.982
3522992.0,227.0,31.0,3.0,255.0,3522.992
3523002.0,233.0,30.0,4.0,259.0,3523.002
3523012.0,231.0,31.0,5.0,257.0,3523.012
3523022.0,226.0,30.0,4.0,251.0,3523.022
3523032.0,230.0,30.0,4.0,257.0,3523.032
3523042.0,232.0,31.0,4.0,267.0,3523.042
3523052.0,235.0,31.0,3.0,267.0,3523.052
3523062.0,233.0,30.0,4.0,264.0,3523.062
3523072.0,227.0,31.0,3.0,264.0,3523.072
3523082.0,228.0,30.0,4.0,264.0,3523.082
3523092.0,226.0,31.0,4.0,268.0,3523.092
3523102.0,222.0,30.0,4.0,266.0,3523.102
3523112.0,220.0,32.0,3.0,260.0,3523.112
3523122.0,215.0,30.0,4.0,250.0,3523.122
3523132.0,217.0,30.0,4.0,250.0,3523.132
3523142.0,222.0,31.0,4.0,257.0,3523.142
3523152.0,221.0,30.0,4.0,253.0,3523.152
3523162.0,222.0,31.0,4.0,248.0,3523.162
3523172.0,214.0,31.0,3.0,239.0,3523.172
3523182.0,217.0,30.0,3.0,244.0,3523.182
3523192.0,223.0,30.0,4.0,252.0,3523.192
3523202.0,223.0,31.0,3.0,252.0,3523.202
3523212.0,225.0,31.0,4.0,251.0,3523.212
3523222.0,216.0,30.0,4.0,245.0,3523.222
3523232.0,218.0,29.0,4.0,252.0,3523.232
3523243.0,223.0,32.0,3.0,257.0,3523.243
3523253.0,220.0,30.0,4.0,252.0,3523.253
3523263.0,219.0,31.0,3.0,252.0,3523.263
3523273.0,213.0,30.0,4.0,243.0,3523.273
3523283.0,219.0,30.0,3.0,249.0,3523.283
3523293.0,221.0,31.0,5.0,251.0,3523.293
3523303.0,218.0,31.0,3.0,248.0,3523.303
3523313.0,218.0,30.0,4.0,246.0,3523.313
3523323.0,211.0,30.0,4.0,243.0,3523.323
3523333.0,217.0,31.0,4.0,246.0,3523.333
3523343.0,222.0,31.0,4.0,252.0,3523.343
3523353.0,218.0,32.0,3.0,249.0,3523.353
3523363.0,218.0,31.0,3.0,249.0,3523.363
3523373.0,212.0,31.0,3.0,241.0,3523.373
3523383.0,217.0,31.0,4.0,248.0,3523.383
3523393.0,223.0,31.0,3.0,252.0,3523.393
3523403.0,219.0,31.0,4.0,246.0,3523.403
3523414.0,218.0,31.0,2.0,245.0,3523.414
3523424.0,213.0,31.0,4.0,243.0,3523.424
3523434.0,221.0,32.0,3.0,255.0,3523.434
3523444.0,223.0,31.0,4.0,254.0,3523.444
3523454.0,215.0,32.0,4.0,243.0,3523.454
3523464.0,217.0,31.0,3.0,244.0,3523.464
3523474.0,214.0,31.0,4.0,244.0,3523.474
3523484.0,221.0,31.0,4.0,251.0,3523.484
3523494.0,222.0,32.0,4.0,251.0,3523.494
3523504.0,217.0,31.0,4.0,245.0,3523.504
3523514.0,217.0,32.0,3.0,245.0,3523.514
3523524.0,215.0,32.0,4.0,243.0,3523.524
3523534.0,221.0,31.0,4.0,250.0,3523.534
3523544.0,222.0,32.0,4.0,249.0,3523.544
3523554.0,216.0,31.0,4.0,242.0,3523.554
3523564.0,216.0,33.0,3.0,243.0,3523.564
3523574.0,216.0,32.0,3.0,244.0,3523.574
3523584.0,219.0,33.0,3.0,251.0,3523.584
3523594.0,223.0,32.0,5.0,251.0,3523.594
3523604.0,215.0,32.0,4.0,246.0,3523.604
3523614.0,217.0,32.0,3.0,248.0,3523.614
3523624.0,217.0,33.0,3.0,252.0,3523.624
3523634.0,220.0,32.0,4.0,252.0,3523.634
3523644.0,222.0,33.0,4.0,252.0,3523.644
3523654.0,215.0,32.0,4.0,245.0,3523.654
3523664.0,216.0,33.0,4.0,246.0,3523.664
3523674.0,213.0,32.0,4.0,245.0,3523.674
3523684.0,221.0,33.0,4.0,253.0,3523.684
3523694.0,223.0,33.0,3.0,250.0,3523.694
3523704.0,215.0,32.0,4.0,246.0,3523.704
3523714.0,218.0,34.0,3.0,247.0,3523.714
3523724.0,215.0,33.0,4.0,246.0,3523.724
3523734.0,220.0,34.0,3.0,253.0,3523.734
3523744.0,222.0,33.0,4.0,250.0,3523.744
3523755.0,213.0,33.0,3.0,245.0,3523.755
3523765.0,216.0,34.0,4.0,246.0,3523.765
3523775.0,220.0,33.0,3.0,254.0,3523.775
3523785.0,219.0,33.0,4.0,252.0,3523.785
3523795.0,218.0,33.0,4.0,249.0,3523.795
3523805.0,212.0,34.0,5.0,245.0,3523.805
3523815.0,216.0,34.0,3.0,249.0,3523.815
3523825.0,221.0,33.0,4.0,252.0,3523.825
3523835.0,217.0,33.0,4.0,250.0,3523.835
3523845.0,220.0,34.0,4.0,249.0,3523.845
3523855.0,213.0,33.0,4.0,244.0,3523.855
3523865.0,215.0,35.0,3.0,248.0,3523.865
3523875.0,221.0,33.0,3.0,253.0,3523.875
3523885.0,220.0,34.0,2.0,252.0,3523.885
3523895.0,221.0,34.0,3.0,248.0,3523.895
3523905.0,211.0,33.0,3.0,242.0,3523.905
3523915.0,216.0,33.0,4.0,250.0,3523.915
3523926.0,222.0,34.0,2.0,255.0,3523.926
3523936.0,217.0,33.0,4.0,251.0,3523.936
3523946.0,219.0,35.0,3.0,251.0,3523.946
3523956.0,213.0,34.0,4.0,249.0,3523.956
3523966.0,221.0,33.0,4.0,259.0,3523.966
3523976.0,224.0,34.0,4.0,258.0,3523.976
3523986.0,218.0,33.0,3.0,255.0,3523.986
3523996.0,220.0,33.0,3.0,252.0,3523.996
3524006.0,213.0,33.0,3.0,251.0,3524.006
3524016.0,217.0,33.0,3.0,255.0,3524.016
3524026.0,224.0,34.0,3.0,256.0,3524.026
3524036.0,216.0,33.0,4.0,251.0,3524.036
3524046.0,219.0,33.0,4.0,250.0,3524.046
3524056.0,210.0,33.0,4.0,243.0,3524.056
3524066.0,217.0,33.0,4.0,252.0,3524.066
3524076.0,223.0,34.0,3.0,254.0,3524.076
3524086.0,215.0,32.0,4.0,249.0,3524.086
3524096.0,218.0,34.0,3.0,251.0,3524.096
3524106.0,210.0,33.0,5.0,243.0,3524.106
3524116.0,218.0,33.0,4.0,255.0,3524.116
3524126.0,223.0,33.0,3.0,256.0,3524.126
3524136.0,215.0,33.0,3.0,251.0,3524.136
3524146.0,219.0,32.0,4.0,251.0,3524.146
3524156.0,212.0,33.0,3.0,249.0,3524.156
3524166.0,221.0,32.0,4.0,259.0,3524.166
3524176.0,225.0,32.0,4.0,258.0,3524.176
3524186.0,217.0,32.0,4.0,255.0,3524.186
3524196.0,221.0,33.0,4.0,254.0,3524.196
3524206.0,213.0,33.0,3.0,248.0,3524.206
3524216.0,221.0,32.0,5.0,257.0,3524.216
3524226.0,225.0,34.0,3.0,256.0,3524.226
3524236.0,218.0,33.0,4.0,250.0,3524.236
3524246.0,218.0,33.0,4.0,248.0,3524.246
3524256.0,213.0,32.0,4.0,247.0,3524.256
3524267.0,222.0,33.0,3.0,256.0,3524.267
3524277.0,225.0,32.0,4.0,252.0,3524.277
3524287.0,215.0,32.0,4.0,247.0,3524.287
3524297.0,218.0,32.0,5.0,248.0,3524.297
3524307.0,220.0,33.0,2.0,253.0,3524.307
3524317.0,221.0,32.0,4.0,257.0,3524.317
3524327.0,223.0,33.0,3.0,254.0,3524.327
3524337.0,213.0,33.0,3.0,246.0,3524.337
3524347.0,216.0,32.0,4.0,248.0,3524.347
3524357.0,214.0,32.0,3.0,252.0,3524.357
3524367.0,221.0,31.0,4.0,257.0,3524.367
3524377.0,222.0,32.0,4.0,251.0,3524.377
3524387.0,212.0,32.0,3.0,247.0,3524.387
3524397.0,217.0,33.0,4.0,251.0,3524.397
3524407.0,216.0,32.0,4.0,252.0,3524.407
3524417.0,220.0,32.0,3.0,256.0,3524.417
3524427.0,222.0,32.0,5.0,253.0,3524.427
3524438.0,211.0,32.0,4.0,246.0,3524.438
3524448.0,215.0,32.0,4.0,248.0,3524.448
3524458.0,222.0,33.0,3.0,256.0,3524.458
3524468.0,218.0,32.0,3.0,252.0,3524.468
3524478.0,219.0,32.0,3.0,246.0,3524.478
3524488.0,211.0,31.0,3.0,238.0,3524.488
3524498.0,216.0,31.0,4.0,243.0,3524.498
3524508.0,222.0,32.0,4.0,250.0,3524.508
3524518.0,217.0,32.0,3.0,247.0,3524.518
3524528.0,220.0,32.0,4.0,247.0,3524.528
3524538.0,211.0,32.0,4.0,241.0,3524.538
3524548.0,216.0,32.0,4.0,248.0,3524.548
3524558.0,223.0,32.0,4.0,251.0,3524.558
3524568.0,219.0,32.0,4.0,251.0,3524.568
3524578.0,220.0,32.0,4.0,248.0,3524.578
3524588.0,210.0,33.0,3.0,239.0,3524.588
3524598.0,216.0,32.0,4.0,246.0,3524.598
3524608.0,219.0,33.0,3.0,250.0,3524.608
3524618.0,219.0,32.0,4.0,249.0,3524.618
3524628.0,219.0,31.0,4.0,248.0,3524.628
3524638.0,210.0,32.0,4.0,240.0,3524.638
3524648.0,218.0,32.0,4.0,253.0,3524.648
3524658.0,221.0,33.0,4.0,253.0,3524.658
3524668.0,218.0,32.0,4.0,251.0,3524.668
3524678.0,217.0,32.0,4.0,248.0,3524.678
3524688.0,210.0,31.0,4.0,240.0,3524.688
3524698.0,215.0,32.0,4.0,246.0,3524.698
3524708.0,220.0,32.0,4.0,252.0,3524.708
3524718.0,218.0,33.0,3.0,248.0,3524.718
3524728.0,217.0,33.0,4.0,247.0,3524.728
3524738.0,211.0,33.0,3.0,242.0,3524.738
3524748.0,217.0,33.0,4.0,248.0,3524.748
3524758.0,222.0,33.0,4.0,254.0,3524.758
3524768.0,219.0,32.0,4.0,249.0,3524.768
3524779.0,218.0,33.0,3.0,248.0,3524.779
3524789.0,211.0,33.0,3.0,241.0,3524.789
3524799.0,221.0,32.0,3.0,253.0,3524.799
3524809.0,224.0,33.0,5.0,252.0,3524.809
3524819.0,216.0,31.0,4.0,245.0,3524.819
3524829.0,218.0,33.0,4.0,247.0,3524.829
3524839.0,213.0,33.0,3.0,245.0,3524.839
3524849.0,221.0,32.0,3.0,254.0,3524.849
3524859.0,223.0,32.0,4.0,254.0,3524.859
3524869.0,217.0,33.0,4.0,250.0,3524.869
3524879.0,219.0,33.0,5.0,249.0,3524.879
3524889.0,213.0,33.0,4.0,245.0,3524.889
3524899.0,221.0,33.0,4.0,251.0,3524.899
3524909.0,222.0,33.0,3.0,252.0,3524.909
3524919.0,216.0,33.0,4.0,247.0,3524.919
3524929.0,217.0,33.0,3.0,247.0,3524.929
3524939.0,216.0,33.0,5.0,247.0,3524.939
3524950.0,222.0,33.0,2.0,254.0,3524.95
3524960.0,223.0,33.0,4.0,252.0,3524.96
3524970.0,213.0,33.0,3.0,245.0,3524.97
3524980.0,216.0,32.0,3.0,247.0,3524.98
3524990.0,221.0,33.0,4.0,254.0,3524.99
3525000.0,221.0,33.0,3.0,255.0,3525.0
3525010.0,222.0,33.0,3.0,250.0,3525.01
3525020.0,213.0,33.0,4.0,242.0,3525.02
3525030.0,217.0,32.0,4.0,247.0,3525.03
3525040.0,217.0,33.0,3.0,248.0,3525.04
3525050.0,222.0,32.0,4.0,252.0,3525.05
3525060.0,221.0,33.0,4.0,248.0,3525.06
3525070.0,213.0,33.0,5.0,241.0,3525.07
3525080.0,216.0,33.0,3.0,244.0,3525.08
3525090.0,218.0,33.0,3.0,249.0,3525.09
3525100.0,221.0,34.0,3.0,251.0,3525.1
3525110.0,221.0,32.0,4.0,246.0,3525.11
3525120.0,214.0,33.0,4.0,243.0,3525.12
3525130.0,217.0,32.0,5.0,245.0,3525.13
3525140.0,220.0,33.0,4.0,253.0,3525.14
3525150.0,222.0,33.0,4.0,253.0,3525.15
3525160.0,221.0,33.0,4.0,250.0,3525.16
3525170.0,214.0,33.0,4.0,244.0,3525.17
3525180.0,217.0,32.0,4.0,245.0,3525.18
3525190.0,221.0,32.0,4.0,252.0,3525.19
3525200.0,222.0,32.0,4.0,251.0,3525.2
3525210.0,222.0,33.0,4.0,249.0,3525.21
3525220.0,214.0,32.0,4.0,241.0,3525.22
3525230.0,217.0,33.0,3.0,245.0,3525.23
3525240.0,221.0,32.0,4.0,251.0,3525.24
3525250.0,222.0,32.0,3.0,251.0,3525.25
3525260.0,222.0,32.0,5.0,248.0,3525.26
3525270.0,214.0,31.0,4.0,240.0,3525.27
3525280.0,216.0,32.0,4.0,244.0,3525.28
3525291.0,222.0,32.0,4.0,251.0,3525.291
3525301.0,219.0,32.0,3.0,246.0,3525.301
3525311.0,219.0,32.0,4.0,245.0,3525.311
3525321.0,211.0,32.0,4.0,238.0,3525.321
3525331.0,220.0,32.0,4.0,250.0,3525.331
3525341.0,222.0,32.0,4.0,252.0,3525.341
3525351.0,219.0,31.0,4.0,249.0,3525.351
3525361.0,219.0,33.0,3.0,248.0,3525.361
3525371.0,212.0,32.0,4.0,241.0,3525.371
3525381.0,217.0,32.0,3.0,247.0,3525.381
3525391.0,224.0,32.0,5.0,252.0,3525.391
3525401.0,220.0,31.0,4.0,247.0,3525.401
3525411.0,220.0,31.0,4.0,246.0,3525.411
3525421.0,212.0,31.0,4.0,239.0,3525.421
3525431.0,219.0,32.0,4.0,248.0,3525.431
3525441.0,224.0,32.0,3.0,252.0,3525.441
3525451.0,219.0,32.0,5.0,245.0,3525.451
3525462.0,219.0,31.0,4.0,244.0,3525.462
3525472.0,214.0,32.0,4.0,242.0,3525.472
3525482.0,222.0,32.0,3.0,251.0,3525.482
3525492.0,222.0,32.0,4.0,247.0,3525.492
3525502.0,216.0,31.0,4.0,240.0,3525.502
3525512.0,218.0,32.0,3.0,244.0,3525.512
3525522.0,215.0,31.0,4.0,243.0,3525.522
3525532.0,221.0,31.0,2.0,250.0,3525.532
3525542.0,221.0,32.0,4.0,247.0,3525.542
3525552.0,216.0,32.0,4.0,242.0,3525.552
3525562.0,217.0,32.0,4.0,243.0,3525.562
3525572.0,216.0,31.0,4.0,244.0,3525.572
3525582.0,223.0,31.0,5.0,249.0,3525.582
3525592.0,224.0,31.0,4.0,249.0,3525.592
3525602.0,216.0,31.0,3.0,241.0,3525.602
3525612.0,218.0,32.0,4.0,244.0,3525.612
3525622.0,217.0,31.0,4.0,245.0,3525.622
3525632.0,220.0,32.0,3.0,250.0,3525.632
3525642.0,223.0,32.0,5.0,249.0,3525.642
3525652.0,217.0,31.0,4.0,243.0,3525.652
3525662.0,218.0,32.0,4.0,243.0,3525.662
3525672.0,219.0,31.0,4.0,247.0,3525.672
3525682.0,222.0,32.0,4.0,251.0,3525.682
3525692.0,223.0,32.0,4.0,250.0,3525.692
3525702.0,217.0,31.0,4.0,242.0,3525.702
3525712.0,218.0,31.0,4.0,245.0,3525.712
3525722.0,215.0,31.0,3.0,244.0,3525.722
3525732.0,222.0,31.0,4.0,251.0,3525.732
3525742.0,222.0,32.0,4.0,248.0,3525.742
3525752.0,215.0,30.0,4.0,240.0,3525.752
3525762.0,218.0,32.0,3.0,243.0,3525.762
3525772.0,216.0,32.0,5.0,242.0,3525.772
3525782.0,223.0,31.0,4.0,248.0,3525.782
3525792.0,222.0,32.0,4.0,244.0,3525.792
3525803.0,215.0,31.0,4.0,239.0,3525.803
3525813.0,217.0,31.0,4.0,240.0,3525.813
3525823.0,222.0,31.0,4.0,248.0,3525.823
3525833.0,222.0,31.0,4.0,247.0,3525.833
3525843.0,221.0,31.0,4.0,244.0,3525.843
3525853.0,215.0,32.0,4.0,237.0,3525.853
3525863.0,218.0,31.0,4.0,242.0,3525.863
3525873.0,223.0,33.0,3.0,250.0,3525.873
3525883.0,222.0,30.0,4.0,246.0,3525.883
3525893.0,222.0,32.0,3.0,247.0,3525.893
3525903.0,216.0,31.0,5.0,239.0,3525.903
3525913.0,218.0,31.0,4.0,245.0,3525.913
3525923.0,223.0,32.0,4.0,252.0,3525.923
3525933.0,222.0,31.0,4.0,250.0,3525.933
3525943.0,221.0,31.0,3.0,247.0,3525.943
3525953.0,214.0,30.0,4.0,240.0,3525.953
3525963.0,218.0,31.0,4.0,246.0,3525.963
3525974.0,224.0,31.0,4.0,251.0,3525.974
3525984.0,219.0,31.0,3.0,247.0,3525.984
3525994.0,218.0,32.0,4.0,245.0,3525.994
3526004.0,211.0,32.0,3.0,239.0,3526.004
3526014.0,221.0,32.0,3.0,250.0,3526.014
3526024.0,223.0,32.0,3.0,251.0,3526.024
3526034.0,220.0,31.0,4.0,245.0,3526.034
3526044.0,218.0,31.0,4.0,244.0,3526.044
3526054.0,213.0,31.0,4.0,242.0,3526.054
3526064.0,218.0,31.0,3.0,248.0,3526.064
3526074.0,223.0,30.0,4.0,252.0,3526.074
3526084.0,218.0,31.0,3.0,247.0,3526.084
3526094.0,218.0,32.0,5.0,247.0,3526.094
3526104.0,212.0,31.0,5.0,240.0,3526.104
3526114.0,219.0,31.0,4.0,250.0,3526.114
3526124.0,223.0,32.0,3.0,254.0,3526.124
3526134.0,218.0,31.0,4.0,246.0,3526.134
3526144.0,220.0,32.0,4.0,248.0,3526.144
3526154.0,212.0,31.0,4.0,240.0,3526.154
3526164.0,222.0,31.0,4.0,252.0,3526.164
3526174.0,224.0,32.0,4.0,253.0,3526.174
3526184.0,216.0,31.0,4.0,245.0,3526.184
3526194.0,218.0,32.0,3.0,246.0,3526.194
3526204.0,212.0,32.0,4.0,240.0,3526.204
3526214.0,221.0,32.0,4.0,251.0,3526.214
3526224.0,224.0,32.0,5.0,251.0,3526.224
3526234.0,219.0,32.0,4.0,245.0,3526.234
3526244.0,218.0,32.0,4.0,245.0,3526.244
3526254.0,213.0,32.0,4.0,242.0,3526.254
3526264.0,221.0,32.0,3.0,248.0,3526.264
3526274.0,223.0,32.0,3.0,249.0,3526.274
3526284.0,218.0,32.0,4.0,242.0,3526.284
3526294.0,218.0,31.0,4.0,243.0,3526.294
3526304.0,212.0,32.0,4.0,241.0,3526.304
3526315.0,221.0,32.0,3.0,249.0,3526.315
3526325.0,222.0,33.0,4.0,247.0,3526.325
3526335.0,214.0,30.0,4.0,239.0,3526.335
3526345.0,215.0,32.0,4.0,242.0,3526.345
3526355.0,220.0,31.0,4.0,247.0,3526.355
3526365.0,221.0,32.0,3.0,249.0,3526.365
3526375.0,222.0,33.0,3.0,247.0,3526.375
3526385.0,214.0,33.0,3.0,241.0,3526.385
3526395.0,217.0,32.0,4.0,244.0,3526.395
3526405.0,216.0,32.0,4.0,245.0,3526.405
3526415.0,223.0,32.0,5.0,250.0,3526.415
3526425.0,222.0,31.0,4.0,248.0,3526.425
3526435.0,215.0,31.0,4.0,241.0,3526.435
3526445.0,218.0,31.0,3.0,246.0,3526.445
3526455.0,218.0,32.0,4.0,249.0,3526.455
3526465.0,222.0,32.0,4.0,252.0,3526.465
3526475.0,221.0,32.0,4.0,249.0,3526.475
3526486.0,214.0,31.0,3.0,242.0,3526.486
3526496.0,216.0,32.0,4.0,247.0,3526.496
3526506.0,221.0,32.0,4.0,254.0,3526.506
3526516.0,219.0,32.0,3.0,251.0,3526.516
3526526.0,218.0,32.0,4.0,247.0,3526.526
3526536.0,213.0,33.0,3.0,241.0,3526.536
3526546.0,217.0,32.0,5.0,246.0,3526.546
3526556.0,222.0,32.0,4.0,253.0,3526.556
3526566.0,220.0,32.0,4.0,248.0,3526.566
3526576.0,220.0,33.0,4.0,248.0,3526.576
3526586.0,214.0,32.0,4.0,241.0,3526.586
3526596.0,219.0,32.0,4.0,248.0,3526.596
3526606.0,225.0,32.0,5.0,253.0,3526.606
3526616.0,223.0,32.0,5.0,250.0,3526.616
3526626.0,221.0,33.0,3.0,248.0,3526.626
3526636.0,213.0,33.0,3.0,241.0,3526.636
3526646.0,218.0,33.0,3.0,249.0,3526.646
3526656.0,221.0,33.0,4.0,252.0,3526.656
3526666.0,221.0,33.0,3.0,251.0,3526.666
3526676.0,221.0,33.0,5.0,248.0,3526.676
3526686.0,212.0,33.0,3.0,241.0,3526.686
3526696.0,219.0,33.0,4.0,250.0,3526.696
3526706.0,223.0,33.0,2.0,252.0,3526.706
3526716.0,221.0,32.0,3.0,250.0,3526.716
3526726.0,219.0,33.0,4.0,247.0,3526.726
3526736.0,212.0,33.0,4.0,240.0,3526.736
3526746.0,216.0,33.0,4.0,245.0,3526.746
3526756.0,222.0,33.0,3.0,251.0,3526.756
3526766.0,219.0,33.0,3.0,249.0,3526.766
3526776.0,218.0,33.0,3.0,246.0,3526.776
3526786.0,212.0,33.0,3.0,241.0,3526.786
3526796.0,216.0,33.0,4.0,246.0,3526.796
3526806.0,222.0,33.0,4.0,250.0,3526.806
3526816.0,218.0,32.0,4.0,247.0,3526.816
3526827.0,218.0,33.0,4.0,245.0,3526.827
3526837.0,212.0,34.0,3.0,242.0,3526.837
3526847.0,221.0,32.0,3.0,252.0,3526.847
3526857.0,223.0,33.0,4.0,252.0,3526.857
3526867.0,217.0,32.0,4.0,245.0,3526.867
3526877.0,217.0,33.0,4.0,246.0,3526.877
3526887.0,214.0,32.0,4.0,244.0,3526.887
3526897.0,223.0,33.0,3.0,254.0,3526.897
3526907.0,223.0,32.0,4.0,250.0,3526.907
3526917.0,218.0,33.0,3.0,249.0,3526.917
3526927.0,219.0,32.0,4.0,248.0,3526.927
3526937.0,215.0,31.0,3.0,246.0,3526.937
3526947.0,222.0,33.0,4.0,252.0,3526.947
3526957.0,224.0,33.0,4.0,252.0,3526.957
3526967.0,217.0,32.0,4.0,245.0,3526.967
3526977.0,218.0,32.0,4.0,245.0,3526.977
3526987.0,217.0,32.0,4.0,245.0,3526.987
3526998.0,223.0,32.0,5.0,251.0,3526.998
3527008.0,222.0,32.0,4.0,247.0,3527.008
3527018.0,213.0,32.0,4.0,241.0,3527.018
3527028.0,216.0,33.0,3.0,246.0,3527.028
3527038.0,221.0,32.0,4.0,250.0,3527.038
3527048.0,220.0,32.0,4.0,251.0,3527.048
3527058.0,221.0,32.0,5.0,249.0,3527.058
3527068.0,212.0,31.0,3.0,241.0,3527.068
3527078.0,216.0,32.0,4.0,245.0,3527.078
3527088.0,218.0,31.0,4.0,249.0,3527.088
3527098.0,221.0,32.0,3.0,252.0,3527.098
3527108.0,220.0,32.0,4.0,249.0,3527.108
3527118.0,212.0,31.0,4.0,242.0,3527.118
3527128.0,216.0,32.0,3.0,246.0,3527.128
3527138.0,218.0,32.0,3.0,251.0,3527.138
3527148.0,220.0,32.0,4.0,253.0,3527.148
3527158.0,219.0,32.0,3.0,250.0,3527.158
3527168.0,213.0,32.0,4.0,247.0,3527.168
3527178.0,216.0,31.0,3.0,247.0,3527.178
3527188.0,220.0,32.0,5.0,251.0,3527.188
3527198.0,220.0,32.0,4.0,252.0,3527.198
3527208.0,220.0,31.0,4.0,248.0,3527.208
3527218.0,214.0,31.0,4.0,242.0,3527.218
3527228.0,216.0,31.0,4.0,245.0,3527.228
3527238.0,221.0,31.0,4.0,252.0,3527.238
3527248.0,221.0,31.0,4.0,250.0,3527.248
3527258.0,222.0,31.0,4.0,250.0,3527.258
3527268.0,213.0,31.0,3.0,242.0,3527.268
3527278.0,216.0,32.0,4.0,244.0,3527.278
3527288.0,221.0,32.0,3.0,250.0,3527.288
3527298.0,221.0,31.0,4.0,252.0,3527.298
3527308.0,220.0,31.0,3.0,246.0,3527.308
3527318.0,213.0,31.0,5.0,239.0,3527.318
3527328.0,215.0,31.0,3.0,245.0,3527.328
3527339.0,222.0,31.0,4.0,252.0,3527.339
3527349.0,219.0,32.0,3.0,248.0,3527.349
3527359.0,218.0,30.0,4.0,244.0,3527.359
3527369.0,211.0,31.0,3.0,239.0,3527.369
3527379.0,221.0,31.0,5.0,251.0,3527.379
3527389.0,223.0,31.0,4.0,251.0,3527.389
3527399.0,219.0,31.0,4.0,247.0,3527.399
3527409.0,219.0,32.0,4.0,247.0,3527.409
3527419.0,213.0,31.0,3.0,242.0,3527.419
3527429.0,217.0,32.0,3.0,249.0,3527.429
3527439.0,224.0,31.0,4.0,253.0,3527.439
3527449.0,219.0,31.0,4.0,246.0,3527.449
3527459.0,218.0,31.0,3.0,246.0,3527.459
3527469.0,212.0,31.0,4.0,239.0,3527.469
3527479.0,218.0,30.0,4.0,248.0,3527.479
3527489.0,223.0,32.0,4.0,251.0,3527.489
3527499.0,217.0,31.0,4.0,246.0,3527.499
3527510.0,219.0,31.0,4.0,244.0,3527.51
3527520.0,214.0,31.0,3.0,243.0,3527.52
3527530.0,222.0,31.0,4.0,251.0,3527.53
3527540.0,223.0,31.0,3.0,250.0,3527.54
3527550.0,215.0,32.0,4.0,241.0,3527.55
3527560.0,219.0,32.0,3.0,246.0,3527.56
3527570.0,217.0,31.0,5.0,244.0,3527.57
3527580.0,222.0,31.0,4.0,250.0,3527.58
3527590.0,222.0,31.0,3.0,247.0,3527.59
3527600.0,218.0,31.0,4.0,245.0,3527.6
3527610.0,218.0,32.0,3.0,245.0,3527.61
3527620.0,218.0,31.0,3.0,245.0,3527.62
3527630.0,221.0,32.0,4.0,249.0,3527.63
3527640.0,224.0,31.0,5.0,249.0,3527.64
3527650.0,216.0,32.0,2.0,243.0,3527.65
3527660.0,217.0,31.0,4.0,244.0,3527.66
3527670.0,218.0,31.0,4.0,247.0,3527.67
3527680.0,221.0,31.0,4.0,251.0,3527.68
3527690.0,223.0,32.0,4.0,250.0,3527.69
3527700.0,216.0,31.0,4.0,243.0,3527.7
3527710.0,216.0,31.0,4.0,245.0,3527.71
3527720.0,219.0,32.0,3.0,249.0,3527.72
3527730.0,222.0,32.0,4.0,252.0,3527.73
3527740.0,223.0,32.0,4.0,250.0,3527.74
3527750.0,216.0,32.0,4.0,243.0,3527.75
3527760.0,217.0,32.0,5.0,244.0,3527.76
3527770.0,215.0,32.0,4.0,244.0,3527.77
3527780.0,222.0,32.0,3.0,250.0,3527.78
3527790.0,223.0,32.0,4.0,247.0,3527.79
3527800.0,215.0,33.0,3.0,242.0,3527.8
3527810.0,218.0,32.0,4.0,245.0,3527.81
3527820.0,216.0,32.0,4.0,246.0,3527.82
3527830.0,223.0,32.0,4.0,251.0,3527.83
3527840.0,222.0,32.0,4.0,249.0,3527.84
3527851.0,214.0,32.0,4.0,242.0,3527.851
3527861.0,217.0,33.0,3.0,246.0,3527.861
3527871.0,222.0,33.0,4.0,253.0,3527.871
3527881.0,221.0,32.0,4.0,252.0,3527.881
3527891.0,221.0,33.0,4.0,251.0,3527.891
3527901.0,215.0,32.0,3.0,245.0,3527.901
3527911.0,218.0,32.0,3.0,249.0,3527.911
3527921.0,224.0,32.0,4.0,255.0,3527.921
3527931.0,221.0,33.0,3.0,251.0,3527.931
3527941.0,222.0,33.0,4.0,251.0,3527.941
3527951.0,215.0,32.0,4.0,243.0,3527.951
3527961.0,218.0,31.0,4.0,248.0,3527.961
3527971.0,223.0,32.0,4.0,253.0,3527.971
3527981.0,223.0,31.0,4.0,251.0,3527.981
3527991.0,222.0,32.0,4.0,248.0,3527.991
3528001.0,214.0,32.0,3.0,240.0,3528.001
3528011.0,219.0,32.0,3.0,248.0,3528.011
3528022.0,225.0,32.0,5.0,254.0,3528.022
3528032.0,220.0,32.0,4.0,249.0,3528.032
3528042.0,220.0,32.0,4.0,247.0,3528.042
3528052.0,214.0,33.0,3.0,244.0,3528.052
3528062.0,223.0,32.0,4.0,252.0,3528.062
3528072.0,224.0,34.0,3.0,253.0,3528.072
3528082.0,220.0,32.0,5.0,246.0,3528.082
3528092.0,220.0,31.0,4.0,246.0,3528.092
3528102.0,215.0,32.0,4.0,244.0,3528.102
3528112.0,221.0,31.0,4.0,251.0,3528.112
3528122.0,224.0,33.0,3.0,254.0,3528.122
3528132.0,219.0,32.0,3.0,247.0,3528.132
3528142.0,219.0,33.0,4.0,247.0,3528.142
3528152.0,213.0,32.0,4.0,242.0,3528.152
3528162.0,220.0,32.0,4.0,251.0,3528.162
3528172.0,224.0,33.0,4.0,253.0,3528.172
3528182.0,218.0,32.0,3.0,247.0,3528.182
3528192.0,220.0,32.0,3.0,248.0,3528.192
3528202.0,213.0,32.0,3.0,244.0,3528.202
3528212.0,221.0,32.0,5.0,253.0,3528.212
3528222.0,224.0,32.0,4.0,253.0,3528.222
3528232.0,218.0,32.0,4.0,245.0,3528.232
3528242.0,220.0,33.0,3.0,247.0,3528.242
3528252.0,214.0,32.0,3.0,242.0,3528.252
3528262.0,222.0,32.0,4.0,252.0,3528.262
3528272.0,225.0,32.0,4.0,252.0,3528.272
3528282.0,219.0,32.0,4.0,246.0,3528.282
3528292.0,219.0,32.0,4.0,246.0,3528.292
3528302.0,214.0,32.0,4.0,243.0,3528.302
3528312.0,222.0,33.0,3.0,253.0,3528.312
3528322.0,225.0,32.0,4.0,253.0,3528.322
3528332.0,219.0,32.0,3.0,247.0,3528.332
3528342.0,218.0,33.0,4.0,247.0,3528.342
3528352.0,215.0,33.0,3.0,244.0,3528.352
3528363.0,223.0,32.0,4.0,251.0,3528.363
3528373.0,223.0,33.0,3.0,250.0,3528.373
3528383.0,216.0,32.0,3.0,242.0,3528.383
3528393.0,217.0,32.0,4.0,247.0,3528.393
3528403.0,221.0,33.0,5.0,252.0,3528.403
3528413.0,222.0,33.0,4.0,253.0,3528.413
3528423.0,222.0,33.0,3.0,252.0,3528.423
3528433.0,214.0,33.0,3.0,244.0,3528.433
3528443.0,216.0,33.0,3.0,245.0,3528.443
3528453.0,217.0,33.0,4.0,248.0,3528.453
3528463.0,221.0,32.0,4.0,252.0,3528.463
3528473.0,223.0,33.0,4.0,249.0,3528.473
3528483.0,214.0,33.0,2.0,241.0,3528.483
3528493.0,219.0,33.0,4.0,245.0,3528.493
3528503.0,219.0,34.0,3.0,248.0,3528.503
3528513.0,222.0,32.0,4.0,250.0,3528.513
3528523.0,221.0,33.0,3.0,247.0,3528.523
3528534.0,215.0,32.0,4.0,239.0,3528.534
3528544.0,217.0,33.0,4.0,244.0,3528.544
3528554.0,223.0,33.0,4.0,251.0,3528.554
3528564.0,220.0,34.0,3.0,249.0,3528.564
3528574.0,219.0,33.0,4.0,246.0,3528.574
3528584.0,213.0,33.0,3.0,241.0,3528.584
3528594.0,217.0,33.0,4.0,246.0,3528.594
3528604.0,224.0,32.0,4.0,250.0,3528.604
3528614.0,219.0,32.0,4.0,246.0,3528.614
3528624.0,221.0,33.0,4.0,247.0,3528.624
3528634.0,212.0,33.0,3.0,239.0,3528.634
3528644.0,217.0,32.0,4.0,246.0,3528.644
3528654.0,222.0,32.0,4.0,250.0,3528.654
3528664.0,220.0,32.0,4.0,248.0,3528.664
3528674.0,220.0,33.0,2.0,247.0,3528.674
3528684.0,212.0,33.0,4.0,238.0,3528.684
3528694.0,219.0,32.0,4.0,247.0,3528.694
3528704.0,222.0,33.0,4.0,250.0,3528.704
3528714.0,221.0,32.0,4.0,246.0,3528.714
3528724.0,220.0,33.0,4.0,243.0,3528.724
3528734.0,211.0,33.0,3.0,236.0,3528.734
3528744.0,218.0,33.0,4.0,246.0,3528.744
3528754.0,222.0,33.0,4.0,250.0,3528.754
3528764.0,219.0,33.0,3.0,246.0,3528.764
3528774.0,219.0,32.0,4.0,244.0,3528.774
3528784.0,211.0,33.0,4.0,238.0,3528.784
3528794.0,216.0,33.0,3.0,245.0,3528.794
3528804.0,222.0,34.0,2.0,250.0,3528.804
3528814.0,218.0,33.0,4.0,244.0,3528.814
3528824.0,218.0,34.0,3.0,245.0,3528.824
3528834.0,211.0,32.0,4.0,237.0,3528.834
3528844.0,216.0,33.0,3.0,242.0,3528.844
3528854.0,222.0,33.0,4.0,248.0,3528.854
3528864.0,218.0,32.0,4.0,243.0,3528.864
3528875.0,218.0,33.0,3.0,243.0,3528.875
3528885.0,211.0,33.0,3.0,238.0,3528.885
3528895.0,220.0,32.0,4.0,246.0,3528.895
3528905.0,222.0,33.0,3.0,246.0,3528.905
3528915.0,215.0,33.0,4.0,238.0,3528.915
3528925.0,217.0,32.0,4.0,240.0,3528.925
3528935.0,212.0,33.0,4.0,238.0,3528.935
3528945.0,220.0,33.0,4.0,244.0,3528.945
3528955.0,221.0,33.0,3.0,244.0,3528.955
3528965.0,215.0,33.0,4.0,238.0,3528.965
3528975.0,216.0,33.0,4.0,240.0,3528.975
3528985.0,215.0,32.0,5.0,238.0,3528.985
3528995.0,220.0,33.0,2.0,245.0,3528.995
3529005.0,223.0,33.0,5.0,246.0,3529.005
3529015.0,215.0,33.0,3.0,239.0,3529.015
3529025.0,216.0,32.0,4.0,242.0,3529.025
3529035.0,214.0,33.0,4.0,241.0,3529.035
3529046.0,219.0,33.0,4.0,245.0,3529.046
3529056.0,220.0,33.0,4.0,245.0,3529.056
3529066.0,211.0,32.0,4.0,235.0,3529.066
3529076.0,214.0,33.0,4.0,239.0,3529.076
3529086.0,219.0,33.0,3.0,245.0,3529.086
3529096.0,220.0,33.0,4.0,247.0,3529.096
3529106.0,220.0,34.0,4.0,246.0,3529.106
3529116.0,213.0,32.0,4.0,235.0,3529.116
3529126.0,214.0,33.0,2.0,240.0,3529.126
3529136.0,217.0,33.0,4.0,243.0,3529.136
3529146.0,219.0,34.0,3.0,245.0,3529.146
3529156.0,218.0,32.0,4.0,243.0,3529.156
3529166.0,211.0,33.0,3.0,236.0,3529.166
3529176.0,215.0,32.0,4.0,240.0,3529.176
3529186.0,217.0,33.0,2.0,245.0,3529.186
3529196.0,218.0,33.0,4.0,245.0,3529.196
3529206.0,217.0,34.0,3.0,244.0,3529.206
3529216.0,210.0,33.0,3.0,236.0,3529.216
3529226.0,213.0,33.0,4.0,239.0,3529.226
3529236.0,217.0,33.0,5.0,246.0,3529.236
3529246.0,218.0,33.0,4.0,245.0,3529.246
3529256.0,216.0,33.0,4.0,244.0,3529.256
3529266.0,210.0,33.0,4.0,237.0,3529.266
3529276.0,213.0,34.0,3.0,240.0,3529.276
3529286.0,217.0,32.0,4.0,247.0,3529.286
3529296.0,216.0,32.0,3.0,245.0,3529.296
3529306.0,218.0,32.0,4.0,244.0,3529.306
3529316.0,209.0,32.0,4.0,235.0,3529.316
3529326.0,212.0,33.0,4.0,241.0,3529.326
3529336.0,218.0,34.0,3.0,248.0,3529.336
3529346.0,216.0,33.0,3.0,245.0,3529.346
3529356.0,217.0,33.0,4.0,243.0,3529.356
3529366.0,208.0,33.0,4.0,234.0,3529.366
3529376.0,211.0,33.0,4.0,240.0,3529.376
3529387.0,218.0,33.0,3.0,246.0,3529.387
3529397.0,215.0,33.0,3.0,241.0,3529.397
3529407.0,215.0,33.0,3.0,240.0,3529.407
3529417.0,208.0,32.0,4.0,232.0,3529.417
3529427.0,215.0,33.0,4.0,243.0,3529.427
3529437.0,219.0,32.0,4.0,245.0,3529.437
3529447.0,214.0,32.0,3.0,239.0,3529.447
3529457.0,214.0,33.0,4.0,239.0,3529.457
3529467.0,208.0,33.0,3.0,234.0,3529.467
3529477.0,214.0,32.0,4.0,240.0,3529.477
3529487.0,218.0,33.0,4.0,243.0,3529.487
3529497.0,214.0,32.0,4.0,237.0,3529.497
3529507.0,214.0,33.0,4.0,238.0,3529.507
3529517.0,207.0,32.0,4.0,229.0,3529.517
3529527.0,213.0,33.0,3.0,241.0,3529.527
3529537.0,219.0,32.0,3.0,244.0,3529.537
3529547.0,213.0,32.0,4.0,238.0,3529.547
3529558.0,213.0,33.0,2.0,239.0,3529.558
3529568.0,210.0,31.0,4.0,237.0,3529.568
3529578.0,216.0,32.0,3.0,245.0,3529.578
3529588.0,218.0,33.0,3.0,245.0,3529.588
3529598.0,210.0,33.0,3.0,236.0,3529.598
3529608.0,214.0,32.0,4.0,240.0,3529.608
3529618.0,211.0,32.0,4.0,239.0,3529.618
3529628.0,218.0,31.0,4.0,244.0,3529.628
3529638.0,217.0,32.0,4.0,242.0,3529.638
3529648.0,212.0,31.0,5.0,237.0,3529.648
3529658.0,213.0,33.0,3.0,239.0,3529.658
3529668.0,213.0,32.0,4.0,242.0,3529.668
3529678.0,216.0,32.0,4.0,245.0,3529.678
3529688.0,219.0,32.0,4.0,245.0,3529.688
3529698.0,211.0,31.0,4.0,237.0,3529.698
3529708.0,212.0,33.0,3.0,239.0,3529.708
3529718.0,214.0,32.0,3.0,243.0,3529.718
3529728.0,215.0,32.0,3.0,244.0,3529.728
3529738.0,219.0,32.0,3.0,245.0,3529.738
3529748.0,210.0,32.0,4.0,236.0,3529.748
3529758.0,212.0,31.0,4.0,237.0,3529.758
3529768.0,214.0,32.0,4.0,242.0,3529.768
3529778.0,217.0,31.0,3.0,243.0,3529.778
3529788.0,218.0,33.0,3.0,243.0,3529.788
3529798.0,208.0,32.0,4.0,233.0,3529.798
3529808.0,210.0,32.0,3.0,236.0,3529.808
3529818.0,209.0,32.0,4.0,236.0,3529.818
3529828.0,214.0,32.0,4.0,242.0,3529.828
3529838.0,217.0,32.0,4.0,240.0,3529.838
3529848.0,208.0,32.0,4.0,234.0,3529.848
3529858.0,212.0,31.0,4.0,236.0,3529.858
3529868.0,210.0,31.0,3.0,238.0,3529.868
3529878.0,215.0,31.0,4.0,242.0,3529.878
3529888.0,217.0,31.0,4.0,240.0,3529.888
3529899.0,206.0,31.0,4.0,233.0,3529.899
3529909.0,209.0,32.0,4.0,237.0,3529.909
3529919.0,215.0,32.0,3.0,244.0,3529.919
3529929.0,213.0,31.0,4.0,242.0,3529.929
3529939.0,213.0,31.0,4.0,240.0,3529.939
3529949.0,207.0,31.0,4.0,233.0,3529.949
3529959.0,210.0,31.0,4.0,238.0,3529.959
3529969.0,217.0,31.0,4.0,245.0,3529.969
3529979.0,214.0,32.0,3.0,241.0,3529.979
3529989.0,215.0,31.0,3.0,239.0,3529.989
3529999.0,206.0,31.0,3.0,232.0,3529.999
3530009.0,211.0,31.0,5.0,238.0,3530.009
3530019.0,217.0,31.0,4.0,243.0,3530.019
3530029.0,215.0,32.0,4.0,242.0,3530.029
3530039.0,215.0,32.0,4.0,239.0,3530.039
3530049.0,206.0,32.0,3.0,231.0,3530.049
3530059.0,211.0,32.0,4.0,238.0,3530.059
3530070.0,218.0,31.0,4.0,242.0,3530.07
3530080.0,213.0,31.0,4.0,237.0,3530.08
3530090.0,212.0,32.0,4.0,236.0,3530.09
3530100.0,207.0,32.0,4.0,234.0,3530.1
3530110.0,214.0,32.0,3.0,244.0,3530.11
3530120.0,217.0,32.0,3.0,244.0,3530.12
3530130.0,210.0,31.0,3.0,238.0,3530.13
3530140.0,211.0,32.0,5.0,237.0,3530.14
3530150.0,206.0,32.0,2.0,235.0,3530.15
3530160.0,210.0,32.0,4.0,239.0,3530.16
3530170.0,215.0,33.0,3.0,243.0,3530.17
3530180.0,209.0,32.0,3.0,237.0,3530.18
3530190.0,210.0,32.0,4.0,236.0,3530.19
3530200.0,204.0,32.0,4.0,230.0,3530.2
