time (ms),signal 0,signal 1,signal 2,signal 3,time (sec)
3435342.0,204.0,31.0,3.0,228.0,3435.342
3435352.0,208.0,32.0,4.0,234.0,3435.352
3435362.0,213.0,33.0,3.0,240.0,3435.362
3435372.0,208.0,32.0,4.0,233.0,3435.372
3435382.0,208.0,32.0,3.0,233.0,3435.382
3435392.0,202.0,32.0,4.0,228.0,3435.392
3435402.0,208.0,31.0,3.0,237.0,3435.402
3435412.0,213.0,32.0,3.0,240.0,3435.412
3435422.0,207.0,32.0,4.0,233.0,3435.422
3435432.0,208.0,32.0,3.0,233.0,3435.432
3435442.0,201.0,32.0,4.0,226.0,3435.442
3435452.0,208.0,32.0,4.0,237.0,3435.452
3435462.0,213.0,33.0,4.0,239.0,3435.462
3435472.0,208.0,32.0,3.0,233.0,3435.472
3435482.0,210.0,32.0,4.0,234.0,3435.482
3435492.0,203.0,33.0,3.0,228.0,3435.492
3435502.0,212.0,32.0,3.0,239.0,3435.502
3435512.0,216.0,33.0,3.0,239.0,3435.512
3435522.0,212.0,32.0,4.0,235.0,3435.522
3435532.0,211.0,32.0,4.0,234.0,3435.532
3435542.0,204.0,32.0,4.0,227.0,3435.542
3435552.0,211.0,33.0,3.0,237.0,3435.552
3435563.0,215.0,33.0,3.0,236.0,3435.563
3435573.0,207.0,32.0,3.0,228.0,3435.573
3435583.0,209.0,32.0,4.0,229.0,3435.583
3435593.0,209.0,32.0,4.0,232.0,3435.593
3435603.0,211.0,32.0,4.0,236.0,3435.603
3435613.0,214.0,32.0,4.0,238.0,3435.613
3435623.0,205.0,33.0,3.0,231.0,3435.623
3435633.0,207.0,32.0,3.0,230.0,3435.633
3435643.0,207.0,33.0,4.0,233.0,3435.643
3435653.0,211.0,32.0,4.0,235.0,3435.653
3435663.0,212.0,33.0,3.0,235.0,3435.663
3435673.0,204.0,32.0,4.0,227.0,3435.673
3435683.0,208.0,33.0,3.0,230.0,3435.683
3435693.0,205.0,34.0,3.0,230.0,3435.693
3435703.0,212.0,33.0,3.0,237.0,3435.703
3435713.0,214.0,33.0,4.0,235.0,3435.713
3435723.0,206.0,31.0,4.0,229.0,3435.723
3435734.0,208.0,33.0,4.0,232.0,3435.734
3435744.0,212.0,33.0,3.0,239.0,3435.744
3435754.0,211.0,32.0,3.0,240.0,3435.754
3435764.0,211.0,33.0,3.0,237.0,3435.764
3435774.0,203.0,32.0,5.0,227.0,3435.774
3435784.0,208.0,32.0,3.0,232.0,3435.784
3435794.0,212.0,32.0,3.0,239.0,3435.794
3435804.0,211.0,32.0,4.0,237.0,3435.804
3435814.0,211.0,33.0,3.0,235.0,3435.814
3435824.0,205.0,32.0,4.0,228.0,3435.824
3435834.0,208.0,32.0,3.0,233.0,3435.834
3435844.0,214.0,32.0,5.0,240.0,3435.844
3435854.0,212.0,32.0,4.0,237.0,3435.854
3435864.0,213.0,32.0,4.0,237.0,3435.864
3435874.0,206.0,33.0,3.0,231.0,3435.874
3435884.0,209.0,32.0,4.0,236.0,3435.884
3435894.0,214.0,32.0,3.0,242.0,3435.894
3435904.0,213.0,32.0,3.0,241.0,3435.904
3435914.0,213.0,31.0,3.0,239.0,3435.914
3435924.0,205.0,32.0,4.0,233.0,3435.924
3435934.0,210.0,32.0,4.0,239.0,3435.934
3435944.0,216.0,32.0,3.0,243.0,3435.944
3435954.0,214.0,32.0,3.0,240.0,3435.954
3435964.0,213.0,32.0,4.0,238.0,3435.964
3435974.0,206.0,31.0,4.0,231.0,3435.974
3435984.0,211.0,32.0,4.0,239.0,3435.984
3435994.0,214.0,32.0,4.0,242.0,3435.994
3436004.0,214.0,32.0,3.0,241.0,3436.004
3436014.0,213.0,32.0,4.0,238.0,3436.014
3436024.0,205.0,31.0,3.0,230.0,3436.024
3436034.0,210.0,32.0,4.0,234.0,3436.034
3436044.0,216.0,32.0,3.0,241.0,3436.044
3436054.0,214.0,32.0,3.0,240.0,3436.054
3436064.0,214.0,32.0,3.0,239.0,3436.064
3436075.0,207.0,32.0,3.0,231.0,3436.075
3436085.0,216.0,32.0,3.0,243.0,3436.085
3436095.0,220.0,32.0,5.0,243.0,3436.095
3436105.0,214.0,31.0,4.0,237.0,3436.105
3436115.0,214.0,32.0,3.0,237.0,3436.115
3436125.0,208.0,32.0,4.0,231.0,3436.125
3436135.0,216.0,32.0,3.0,242.0,3436.135
3436145.0,219.0,32.0,3.0,243.0,3436.145
3436155.0,213.0,31.0,4.0,236.0,3436.155
3436165.0,216.0,32.0,4.0,238.0,3436.165
3436175.0,208.0,31.0,4.0,233.0,3436.175
3436185.0,216.0,32.0,3.0,244.0,3436.185
3436195.0,220.0,33.0,3.0,245.0,3436.195
3436205.0,214.0,32.0,3.0,241.0,3436.205
3436215.0,214.0,32.0,4.0,241.0,3436.215
3436225.0,209.0,32.0,4.0,238.0,3436.225
3436235.0,217.0,31.0,4.0,249.0,3436.235
3436246.0,220.0,32.0,3.0,248.0,3436.246
3436256.0,213.0,31.0,4.0,243.0,3436.256
3436266.0,215.0,32.0,3.0,244.0,3436.266
3436276.0,216.0,32.0,3.0,248.0,3436.276
3436286.0,218.0,32.0,4.0,250.0,3436.286
3436296.0,220.0,32.0,4.0,249.0,3436.296
3436306.0,212.0,32.0,4.0,241.0,3436.306
3436316.0,214.0,32.0,3.0,244.0,3436.316
3436326.0,217.0,32.0,3.0,249.0,3436.326
3436336.0,218.0,32.0,3.0,250.0,3436.336
3436346.0,220.0,32.0,3.0,247.0,3436.346
3436356.0,212.0,32.0,4.0,241.0,3436.356
3436366.0,214.0,31.0,4.0,244.0,3436.366
3436376.0,214.0,32.0,3.0,245.0,3436.376
3436386.0,220.0,33.0,3.0,251.0,3436.386
3436396.0,219.0,32.0,3.0,248.0,3436.396
3436406.0,212.0,31.0,3.0,240.0,3436.406
3436416.0,215.0,32.0,4.0,242.0,3436.416
3436426.0,216.0,31.0,4.0,244.0,3436.426
3436436.0,219.0,32.0,4.0,248.0,3436.436
3436446.0,219.0,32.0,4.0,246.0,3436.446
3436456.0,211.0,33.0,3.0,238.0,3436.456
3436466.0,215.0,32.0,3.0,242.0,3436.466
3436476.0,216.0,32.0,3.0,246.0,3436.476
3436486.0,220.0,32.0,5.0,248.0,3436.486
3436496.0,218.0,33.0,3.0,244.0,3436.496
3436506.0,213.0,31.0,5.0,240.0,3436.506
3436516.0,215.0,33.0,3.0,243.0,3436.516
3436526.0,218.0,32.0,4.0,247.0,3436.526
3436536.0,219.0,32.0,4.0,248.0,3436.536
3436546.0,221.0,32.0,4.0,246.0,3436.546
3436556.0,212.0,32.0,4.0,239.0,3436.556
3436566.0,214.0,33.0,3.0,242.0,3436.566
3436576.0,218.0,33.0,4.0,248.0,3436.576
3436587.0,218.0,32.0,3.0,247.0,3436.587
3436597.0,217.0,32.0,3.0,244.0,3436.597
3436607.0,209.0,32.0,4.0,237.0,3436.607
3436617.0,216.0,31.0,4.0,246.0,3436.617
3436627.0,222.0,33.0,3.0,251.0,3436.627
3436637.0,218.0,32.0,4.0,248.0,3436.637
3436647.0,217.0,34.0,3.0,244.0,3436.647
3436657.0,210.0,32.0,3.0,238.0,3436.657
3436667.0,216.0,32.0,4.0,247.0,3436.667
3436677.0,220.0,32.0,4.0,249.0,3436.677
3436687.0,218.0,33.0,2.0,247.0,3436.687
3436697.0,217.0,33.0,4.0,244.0,3436.697
3436707.0,217.0,33.0,4.0,239.0,3436.707
3436717.0,222.0,32.0,3.0,246.0,3436.717
3436727.0,227.0,32.0,3.0,254.0,3436.727
3436737.0,223.0,32.0,4.0,250.0,3436.737
3436747.0,222.0,31.0,4.0,249.0,3436.747
3436758.0,215.0,32.0,4.0,242.0,3436.758
3436768.0,223.0,33.0,3.0,254.0,3436.768
3436778.0,226.0,32.0,4.0,254.0,3436.778
3436788.0,218.0,32.0,3.0,248.0,3436.788
3436798.0,219.0,32.0,4.0,246.0,3436.798
3436808.0,216.0,31.0,4.0,242.0,3436.808
3436818.0,224.0,32.0,2.0,251.0,3436.818
3436828.0,225.0,32.0,4.0,250.0,3436.828
3436838.0,216.0,31.0,3.0,245.0,3436.838
3436848.0,214.0,32.0,3.0,245.0,3436.848
3436858.0,210.0,32.0,3.0,244.0,3436.858
3436868.0,223.0,31.0,5.0,255.0,3436.868
3436878.0,224.0,32.0,4.0,250.0,3436.878
3436888.0,224.0,31.0,4.0,247.0,3436.888
3436898.0,224.0,33.0,3.0,245.0,3436.898
3436908.0,218.0,32.0,4.0,241.0,3436.908
3436918.0,222.0,31.0,4.0,240.0,3436.918
3436928.0,226.0,33.0,3.0,239.0,3436.928
3436938.0,220.0,31.0,4.0,237.0,3436.938
3436948.0,223.0,32.0,3.0,244.0,3436.948
3436958.0,223.0,32.0,4.0,248.0,3436.958
3436968.0,227.0,32.0,3.0,256.0,3436.968
3436978.0,222.0,32.0,4.0,254.0,3436.978
3436988.0,213.0,32.0,3.0,252.0,3436.988
3436998.0,214.0,31.0,5.0,253.0,3436.998
3437008.0,211.0,32.0,4.0,254.0,3437.008
3437018.0,217.0,31.0,5.0,257.0,3437.018
3437028.0,225.0,33.0,4.0,255.0,3437.028
3437038.0,221.0,32.0,3.0,248.0,3437.038
3437048.0,224.0,33.0,3.0,248.0,3437.048
3437058.0,221.0,32.0,3.0,249.0,3437.058
3437068.0,227.0,32.0,4.0,260.0,3437.068
3437078.0,227.0,33.0,3.0,259.0,3437.078
3437088.0,221.0,32.0,4.0,256.0,3437.088
3437099.0,222.0,34.0,3.0,252.0,3437.099
3437109.0,225.0,32.0,4.0,253.0,3437.109
3437119.0,226.0,33.0,3.0,255.0,3437.119
3437129.0,225.0,33.0,4.0,254.0,3437.129
3437139.0,218.0,33.0,2.0,250.0,3437.139
3437149.0,224.0,33.0,4.0,255.0,3437.149
3437159.0,227.0,33.0,3.0,261.0,3437.159
3437169.0,228.0,33.0,4.0,262.0,3437.169
3437179.0,228.0,33.0,3.0,258.0,3437.179
3437189.0,222.0,32.0,4.0,256.0,3437.189
3437199.0,228.0,32.0,3.0,259.0,3437.199
3437209.0,242.0,33.0,4.0,266.0,3437.209
3437219.0,240.0,33.0,3.0,266.0,3437.219
3437229.0,243.0,33.0,4.0,265.0,3437.229
3437239.0,235.0,32.0,3.0,258.0,3437.239
3437249.0,237.0,32.0,4.0,261.0,3437.249
3437259.0,241.0,32.0,4.0,267.0,3437.259
3437270.0,236.0,32.0,3.0,265.0,3437.27
3437280.0,236.0,32.0,4.0,261.0,3437.28
3437290.0,224.0,33.0,3.0,252.0,3437.29
3437300.0,233.0,32.0,4.0,262.0,3437.3
3437310.0,237.0,33.0,4.0,261.0,3437.31
3437320.0,234.0,32.0,5.0,262.0,3437.32
3437330.0,234.0,32.0,4.0,260.0,3437.33
3437340.0,225.0,32.0,4.0,258.0,3437.34
3437350.0,234.0,33.0,3.0,271.0,3437.35
3437360.0,234.0,32.0,4.0,276.0,3437.36
3437370.0,224.0,32.0,4.0,262.0,3437.37
3437380.0,226.0,33.0,4.0,267.0,3437.38
3437390.0,221.0,33.0,4.0,265.0,3437.39
3437400.0,224.0,33.0,3.0,267.0,3437.4
3437410.0,231.0,33.0,4.0,273.0,3437.41
3437420.0,227.0,32.0,3.0,267.0,3437.42
3437430.0,228.0,33.0,3.0,268.0,3437.43
3437440.0,222.0,33.0,3.0,269.0,3437.44
3437450.0,230.0,32.0,5.0,287.0,3437.45
3437460.0,242.0,33.0,4.0,313.0,3437.46
3437470.0,235.0,33.0,4.0,301.0,3437.47
3437480.0,233.0,35.0,3.0,291.0,3437.48
3437490.0,225.0,32.0,4.0,286.0,3437.49
3437500.0,233.0,32.0,3.0,287.0,3437.5
3437510.0,235.0,33.0,4.0,296.0,3437.51
3437520.0,229.0,32.0,4.0,293.0,3437.52
3437530.0,233.0,33.0,4.0,296.0,3437.53
3437540.0,225.0,33.0,3.0,285.0,3437.54
3437550.0,234.0,32.0,3.0,290.0,3437.55
3437560.0,240.0,32.0,4.0,288.0,3437.56
3437570.0,229.0,33.0,4.0,272.0,3437.57
3437580.0,230.0,32.0,3.0,272.0,3437.58
3437590.0,218.0,32.0,3.0,263.0,3437.59
3437600.0,223.0,32.0,4.0,259.0,3437.6
3437611.0,231.0,32.0,3.0,258.0,3437.611
3437621.0,225.0,32.0,4.0,269.0,3437.621
3437631.0,225.0,32.0,3.0,259.0,3437.631
3437641.0,222.0,31.0,5.0,256.0,3437.641
3437651.0,223.0,32.0,2.0,251.0,3437.651
3437661.0,228.0,32.0,4.0,261.0,3437.661
3437671.0,218.0,32.0,3.0,263.0,3437.671
3437681.0,220.0,32.0,4.0,265.0,3437.681
3437691.0,221.0,32.0,4.0,270.0,3437.691
3437701.0,221.0,32.0,4.0,271.0,3437.701
3437711.0,229.0,33.0,3.0,281.0,3437.711
3437721.0,222.0,32.0,4.0,273.0,3437.721
3437731.0,226.0,33.0,3.0,265.0,3437.731
3437741.0,220.0,32.0,3.0,260.0,3437.741
3437751.0,224.0,32.0,4.0,268.0,3437.751
3437761.0,225.0,32.0,4.0,280.0,3437.761
3437771.0,213.0,32.0,4.0,269.0,3437.771
3437782.0,220.0,32.0,4.0,266.0,3437.782
3437792.0,231.0,32.0,4.0,268.0,3437.792
3437802.0,230.0,32.0,3.0,263.0,3437.802
3437812.0,231.0,32.0,4.0,260.0,3437.812
3437822.0,222.0,32.0,4.0,252.0,3437.822
3437832.0,230.0,32.0,5.0,256.0,3437.832
3437842.0,234.0,32.0,4.0,264.0,3437.842
3437852.0,230.0,32.0,4.0,263.0,3437.852
3437862.0,234.0,33.0,3.0,258.0,3437.862
3437872.0,231.0,32.0,4.0,251.0,3437.872
3437882.0,235.0,32.0,4.0,249.0,3437.882
3437892.0,245.0,33.0,4.0,255.0,3437.892
3437902.0,242.0,31.0,3.0,255.0,3437.902
3437912.0,252.0,33.0,3.0,253.0,3437.912
3437922.0,236.0,33.0,3.0,247.0,3437.922
3437932.0,240.0,33.0,3.0,252.0,3437.932
3437942.0,244.0,32.0,4.0,260.0,3437.942
3437952.0,239.0,33.0,3.0,259.0,3437.952
3437962.0,239.0,33.0,4.0,254.0,3437.962
3437972.0,226.0,33.0,4.0,247.0,3437.972
3437982.0,230.0,32.0,4.0,248.0,3437.982
3437992.0,236.0,33.0,3.0,253.0,3437.992
3438002.0,231.0,32.0,4.0,255.0,3438.002
3438012.0,233.0,33.0,4.0,254.0,3438.012
3438022.0,223.0,33.0,4.0,246.0,3438.022
3438032.0,227.0,33.0,4.0,251.0,3438.032
3438042.0,230.0,33.0,4.0,254.0,3438.042
3438052.0,228.0,33.0,3.0,256.0,3438.052
3438062.0,229.0,34.0,3.0,252.0,3438.062
3438072.0,221.0,32.0,4.0,248.0,3438.072
3438082.0,225.0,33.0,4.0,254.0,3438.082
3438092.0,230.0,33.0,4.0,260.0,3438.092
3438102.0,227.0,32.0,4.0,256.0,3438.102
3438112.0,229.0,33.0,4.0,258.0,3438.112
3438123.0,219.0,34.0,4.0,246.0,3438.123
3438133.0,230.0,32.0,4.0,275.0,3438.133
3438143.0,235.0,33.0,3.0,276.0,3438.143
3438153.0,227.0,33.0,5.0,263.0,3438.153
3438163.0,227.0,33.0,4.0,265.0,3438.163
3438173.0,219.0,32.0,5.0,264.0,3438.173
3438183.0,228.0,33.0,3.0,259.0,3438.183
3438193.0,232.0,33.0,3.0,262.0,3438.193
3438203.0,223.0,33.0,4.0,246.0,3438.203
3438213.0,228.0,32.0,3.0,240.0,3438.213
3438223.0,220.0,33.0,4.0,240.0,3438.223
3438233.0,229.0,33.0,4.0,266.0,3438.233
3438243.0,234.0,33.0,3.0,267.0,3438.243
3438253.0,227.0,33.0,3.0,270.0,3438.253
3438263.0,230.0,32.0,4.0,275.0,3438.263
3438273.0,220.0,33.0,3.0,265.0,3438.273
3438283.0,227.0,33.0,3.0,266.0,3438.283
3438294.0,228.0,33.0,4.0,261.0,3438.294
3438304.0,221.0,32.0,4.0,268.0,3438.304
3438314.0,226.0,33.0,3.0,272.0,3438.314
3438324.0,230.0,32.0,4.0,283.0,3438.324
3438334.0,232.0,32.0,4.0,298.0,3438.334
3438344.0,237.0,33.0,4.0,305.0,3438.344
3438354.0,226.0,33.0,2.0,295.0,3438.354
3438364.0,227.0,32.0,4.0,292.0,3438.364
3438374.0,230.0,33.0,3.0,291.0,3438.374
3438384.0,235.0,32.0,3.0,293.0,3438.384
3438394.0,237.0,32.0,4.0,286.0,3438.394
3438404.0,227.0,33.0,4.0,282.0,3438.404
3438414.0,231.0,32.0,4.0,289.0,3438.414
3438424.0,228.0,32.0,3.0,283.0,3438.424
3438434.0,233.0,32.0,4.0,281.0,3438.434
3438444.0,235.0,33.0,3.0,280.0,3438.444
3438454.0,226.0,32.0,4.0,271.0,3438.454
3438464.0,230.0,33.0,3.0,275.0,3438.464
3438474.0,231.0,32.0,5.0,278.0,3438.474
3438484.0,234.0,31.0,4.0,284.0,3438.484
3438494.0,234.0,32.0,4.0,280.0,3438.494
3438504.0,225.0,32.0,3.0,276.0,3438.504
3438514.0,229.0,32.0,3.0,282.0,3438.514
3438524.0,229.0,32.0,3.0,280.0,3438.524
3438534.0,231.0,33.0,4.0,281.0,3438.534
3438544.0,230.0,32.0,4.0,275.0,3438.544
3438554.0,222.0,32.0,3.0,271.0,3438.554
3438564.0,226.0,32.0,4.0,275.0,3438.564
3438574.0,229.0,32.0,3.0,274.0,3438.574
3438584.0,229.0,32.0,3.0,272.0,3438.584
3438594.0,231.0,33.0,4.0,269.0,3438.594
3438604.0,222.0,31.0,4.0,265.0,3438.604
3438614.0,223.0,32.0,4.0,266.0,3438.614
3438624.0,228.0,32.0,4.0,271.0,3438.624
3438635.0,226.0,31.0,4.0,266.0,3438.635
3438645.0,226.0,32.0,4.0,262.0,3438.645
3438655.0,217.0,32.0,4.0,256.0,3438.655
3438665.0,225.0,32.0,4.0,265.0,3438.665
3438675.0,230.0,33.0,3.0,267.0,3438.675
3438685.0,226.0,32.0,4.0,265.0,3438.685
3438695.0,227.0,33.0,4.0,265.0,3438.695
3438705.0,218.0,32.0,4.0,256.0,3438.705
3438715.0,226.0,31.0,4.0,263.0,3438.715
3438725.0,231.0,33.0,4.0,268.0,3438.725
3438735.0,229.0,31.0,3.0,266.0,3438.735
3438745.0,230.0,33.0,3.0,263.0,3438.745
3438755.0,223.0,32.0,3.0,259.0,3438.755
3438765.0,228.0,32.0,3.0,268.0,3438.765
3438775.0,233.0,32.0,4.0,274.0,3438.775
3438785.0,228.0,32.0,4.0,265.0,3438.785
3438795.0,228.0,33.0,5.0,261.0,3438.795
3438806.0,220.0,32.0,4.0,255.0,3438.806
3438816.0,228.0,32.0,4.0,267.0,3438.816
3438826.0,231.0,33.0,3.0,264.0,3438.826
3438836.0,223.0,32.0,3.0,254.0,3438.836
3438846.0,224.0,32.0,3.0,254.0,3438.846
3438856.0,219.0,32.0,4.0,250.0,3438.856
3438866.0,230.0,31.0,4.0,260.0,3438.866
3438876.0,233.0,32.0,4.0,261.0,3438.876
3438886.0,226.0,32.0,3.0,262.0,3438.886
3438896.0,227.0,32.0,4.0,261.0,3438.896
3438906.0,222.0,31.0,4.0,253.0,3438.906
3438916.0,228.0,32.0,4.0,252.0,3438.916
3438926.0,230.0,31.0,4.0,252.0,3438.926
3438936.0,223.0,31.0,4.0,249.0,3438.936
3438946.0,224.0,32.0,3.0,252.0,3438.946
3438956.0,219.0,33.0,3.0,250.0,3438.956
3438966.0,227.0,32.0,3.0,258.0,3438.966
3438976.0,228.0,33.0,3.0,258.0,3438.976
3438986.0,223.0,31.0,5.0,251.0,3438.986
3438996.0,222.0,31.0,3.0,249.0,3438.996
3439006.0,224.0,32.0,4.0,252.0,3439.006
3439016.0,231.0,32.0,3.0,260.0,3439.016
3439026.0,234.0,32.0,4.0,258.0,3439.026
3439036.0,225.0,31.0,3.0,251.0,3439.036
3439046.0,224.0,31.0,5.0,246.0,3439.046
3439056.0,222.0,31.0,4.0,248.0,3439.056
3439066.0,225.0,31.0,4.0,253.0,3439.066
3439076.0,228.0,31.0,4.0,252.0,3439.076
3439086.0,219.0,31.0,3.0,244.0,3439.086
3439096.0,220.0,30.0,4.0,245.0,3439.096
3439106.0,213.0,30.0,4.0,241.0,3439.106
3439116.0,224.0,31.0,4.0,248.0,3439.116
3439126.0,228.0,31.0,3.0,250.0,3439.126
3439136.0,218.0,31.0,4.0,241.0,3439.136
3439147.0,218.0,32.0,4.0,240.0,3439.147
3439157.0,220.0,30.0,4.0,246.0,3439.157
3439167.0,221.0,31.0,4.0,250.0,3439.167
3439177.0,222.0,31.0,4.0,247.0,3439.177
3439187.0,214.0,31.0,4.0,241.0,3439.187
3439197.0,218.0,32.0,3.0,248.0,3439.197
3439207.0,221.0,32.0,3.0,255.0,3439.207
3439217.0,221.0,32.0,4.0,254.0,3439.217
3439227.0,222.0,31.0,4.0,249.0,3439.227
3439237.0,215.0,31.0,4.0,243.0,3439.237
3439247.0,218.0,31.0,4.0,243.0,3439.247
3439257.0,222.0,32.0,2.0,252.0,3439.257
3439267.0,219.0,31.0,4.0,250.0,3439.267
3439277.0,221.0,32.0,3.0,251.0,3439.277
3439287.0,212.0,30.0,4.0,242.0,3439.287
3439297.0,214.0,31.0,3.0,242.0,3439.297
3439307.0,219.0,31.0,4.0,248.0,3439.307
3439318.0,217.0,31.0,4.0,244.0,3439.318
3439328.0,218.0,31.0,3.0,235.0,3439.328
3439338.0,209.0,32.0,4.0,224.0,3439.338
3439348.0,216.0,32.0,4.0,236.0,3439.348
3439358.0,221.0,32.0,3.0,240.0,3439.358
3439368.0,217.0,32.0,5.0,239.0,3439.368
3439378.0,219.0,31.0,3.0,240.0,3439.378
3439388.0,210.0,31.0,3.0,234.0,3439.388
3439398.0,218.0,32.0,3.0,246.0,3439.398
3439408.0,222.0,32.0,4.0,245.0,3439.408
3439418.0,216.0,31.0,4.0,240.0,3439.418
3439428.0,217.0,32.0,4.0,241.0,3439.428
3439438.0,211.0,31.0,4.0,235.0,3439.438
3439448.0,215.0,32.0,2.0,243.0,3439.448
3439458.0,222.0,32.0,4.0,248.0,3439.458
3439468.0,216.0,32.0,3.0,243.0,3439.468
3439478.0,217.0,30.0,4.0,241.0,3439.478
3439488.0,208.0,33.0,3.0,235.0,3439.488
3439498.0,216.0,31.0,4.0,242.0,3439.498
3439508.0,222.0,31.0,4.0,246.0,3439.508
3439518.0,215.0,31.0,3.0,238.0,3439.518
3439528.0,217.0,33.0,3.0,241.0,3439.528
3439538.0,209.0,32.0,3.0,234.0,3439.538
3439548.0,216.0,31.0,3.0,238.0,3439.548
3439558.0,221.0,32.0,4.0,242.0,3439.558
3439568.0,213.0,31.0,4.0,234.0,3439.568
3439578.0,218.0,32.0,4.0,233.0,3439.578
3439588.0,209.0,32.0,4.0,228.0,3439.588
3439598.0,218.0,33.0,3.0,240.0,3439.598
3439608.0,224.0,32.0,4.0,242.0,3439.608
3439618.0,218.0,32.0,4.0,239.0,3439.618
3439628.0,221.0,32.0,5.0,235.0,3439.628
3439638.0,212.0,32.0,4.0,227.0,3439.638
3439648.0,219.0,32.0,3.0,238.0,3439.648
3439659.0,224.0,33.0,3.0,240.0,3439.659
3439669.0,214.0,32.0,3.0,232.0,3439.669
3439679.0,217.0,33.0,3.0,236.0,3439.679
3439689.0,219.0,33.0,5.0,240.0,3439.689
3439699.0,222.0,33.0,3.0,244.0,3439.699
3439709.0,226.0,33.0,4.0,246.0,3439.709
3439719.0,216.0,33.0,4.0,239.0,3439.719
3439729.0,219.0,33.0,3.0,240.0,3439.729
3439739.0,219.0,32.0,4.0,242.0,3439.739
3439749.0,221.0,33.0,3.0,248.0,3439.749
3439759.0,225.0,33.0,4.0,253.0,3439.759
3439769.0,214.0,33.0,4.0,244.0,3439.769
3439779.0,218.0,32.0,3.0,249.0,3439.779
3439789.0,214.0,34.0,3.0,245.0,3439.789
3439799.0,221.0,32.0,4.0,251.0,3439.799
3439809.0,224.0,33.0,4.0,252.0,3439.809
3439819.0,215.0,33.0,5.0,242.0,3439.819
3439830.0,216.0,33.0,2.0,243.0,3439.83
3439840.0,220.0,33.0,3.0,249.0,3439.84
3439850.0,219.0,32.0,4.0,246.0,3439.85
3439860.0,219.0,34.0,4.0,242.0,3439.86
3439870.0,209.0,33.0,4.0,233.0,3439.87
3439880.0,214.0,33.0,4.0,240.0,3439.88
3439890.0,220.0,33.0,4.0,245.0,3439.89
3439900.0,217.0,33.0,3.0,241.0,3439.9
3439910.0,218.0,33.0,4.0,240.0,3439.91
3439920.0,211.0,33.0,3.0,235.0,3439.92
3439930.0,214.0,32.0,4.0,240.0,3439.93
3439940.0,219.0,34.0,3.0,246.0,3439.94
3439950.0,217.0,33.0,4.0,243.0,3439.95
3439960.0,220.0,34.0,3.0,244.0,3439.96
3439970.0,210.0,33.0,4.0,234.0,3439.97
3439980.0,213.0,35.0,3.0,240.0,3439.98
3439990.0,221.0,34.0,4.0,248.0,3439.99
3440000.0,219.0,33.0,4.0,247.0,3440.0
3440010.0,219.0,34.0,2.0,246.0,3440.01
3440020.0,210.0,33.0,4.0,237.0,3440.02
3440030.0,214.0,33.0,4.0,244.0,3440.03
3440040.0,222.0,34.0,4.0,253.0,3440.04
3440050.0,218.0,33.0,3.0,249.0,3440.05
3440060.0,219.0,32.0,4.0,248.0,3440.06
3440070.0,208.0,33.0,4.0,237.0,3440.07
3440080.0,216.0,34.0,4.0,247.0,3440.08
3440090.0,219.0,33.0,4.0,250.0,3440.09
3440100.0,220.0,33.0,4.0,250.0,3440.1
3440110.0,221.0,35.0,3.0,251.0,3440.11
3440120.0,211.0,34.0,3.0,241.0,3440.12
3440130.0,216.0,34.0,3.0,247.0,3440.13
3440140.0,222.0,34.0,4.0,251.0,3440.14
3440150.0,219.0,34.0,4.0,246.0,3440.15
3440160.0,219.0,33.0,4.0,244.0,3440.16
3440171.0,210.0,33.0,3.0,238.0,3440.171
3440181.0,218.0,32.0,4.0,248.0,3440.181
3440191.0,223.0,34.0,3.0,252.0,3440.191
3440201.0,216.0,33.0,5.0,244.0,3440.201
3440211.0,217.0,34.0,4.0,246.0,3440.211
3440221.0,209.0,33.0,5.0,238.0,3440.221
3440231.0,218.0,33.0,3.0,249.0,3440.231
3440241.0,222.0,34.0,3.0,251.0,3440.241
3440251.0,214.0,32.0,4.0,240.0,3440.251
3440261.0,218.0,34.0,3.0,244.0,3440.261
3440271.0,211.0,33.0,5.0,235.0,3440.271
3440281.0,218.0,33.0,4.0,243.0,3440.281
3440291.0,223.0,34.0,3.0,245.0,3440.291
3440301.0,216.0,33.0,4.0,240.0,3440.301
3440311.0,217.0,33.0,3.0,240.0,3440.311
3440321.0,210.0,33.0,3.0,235.0,3440.321
3440331.0,219.0,33.0,3.0,244.0,3440.331
3440342.0,222.0,33.0,3.0,245.0,3440.342
3440352.0,213.0,33.0,4.0,236.0,3440.352
3440362.0,214.0,33.0,4.0,237.0,3440.362
3440372.0,216.0,33.0,3.0,242.0,3440.372
3440382.0,218.0,32.0,4.0,243.0,3440.382
3440392.0,221.0,34.0,3.0,246.0,3440.392
3440402.0,212.0,32.0,4.0,237.0,3440.402
3440412.0,214.0,33.0,2.0,240.0,3440.412
3440422.0,217.0,33.0,3.0,245.0,3440.422
3440432.0,218.0,33.0,4.0,245.0,3440.432
3440442.0,220.0,34.0,3.0,242.0,3440.442
3440452.0,209.0,33.0,3.0,231.0,3440.452
3440462.0,214.0,33.0,4.0,235.0,3440.462
3440472.0,212.0,33.0,4.0,237.0,3440.472
3440482.0,218.0,33.0,3.0,241.0,3440.482
3440492.0,219.0,35.0,3.0,241.0,3440.492
3440502.0,211.0,32.0,4.0,234.0,3440.502
3440512.0,214.0,34.0,3.0,234.0,3440.512
3440522.0,214.0,34.0,3.0,235.0,3440.522
3440532.0,219.0,33.0,4.0,240.0,3440.532
3440542.0,218.0,34.0,3.0,234.0,3440.542
3440552.0,209.0,33.0,3.0,225.0,3440.552
3440562.0,214.0,33.0,4.0,231.0,3440.562
3440572.0,216.0,33.0,4.0,235.0,3440.572
3440582.0,219.0,33.0,4.0,237.0,3440.582
3440592.0,221.0,34.0,4.0,235.0,3440.592
3440602.0,213.0,33.0,4.0,231.0,3440.602
3440612.0,215.0,33.0,4.0,235.0,3440.612
3440622.0,216.0,34.0,3.0,238.0,3440.622
3440632.0,218.0,34.0,3.0,240.0,3440.632
3440642.0,221.0,33.0,3.0,241.0,3440.642
3440652.0,212.0,33.0,5.0,231.0,3440.652
3440662.0,214.0,33.0,4.0,230.0,3440.662
3440672.0,217.0,33.0,4.0,238.0,3440.672
3440683.0,217.0,33.0,3.0,238.0,3440.683
3440693.0,218.0,33.0,4.0,236.0,3440.693
3440703.0,211.0,32.0,4.0,227.0,3440.703
3440713.0,217.0,33.0,2.0,238.0,3440.713
3440723.0,223.0,34.0,3.0,242.0,3440.723
3440733.0,220.0,33.0,4.0,239.0,3440.733
3440743.0,220.0,33.0,4.0,238.0,3440.743
3440753.0,211.0,34.0,3.0,230.0,3440.753
3440763.0,219.0,32.0,4.0,238.0,3440.763
3440773.0,222.0,34.0,3.0,242.0,3440.773
3440783.0,220.0,33.0,5.0,238.0,3440.783
3440793.0,219.0,34.0,3.0,238.0,3440.793
3440803.0,211.0,33.0,4.0,231.0,3440.803
3440813.0,216.0,33.0,4.0,238.0,3440.813
3440823.0,222.0,34.0,4.0,244.0,3440.823
3440833.0,217.0,33.0,3.0,241.0,3440.833
3440843.0,219.0,34.0,5.0,241.0,3440.843
3440854.0,212.0,34.0,4.0,240.0,3440.854
3440864.0,221.0,33.0,4.0,250.0,3440.864
3440874.0,224.0,34.0,4.0,252.0,3440.874
3440884.0,216.0,34.0,3.0,242.0,3440.884
3440894.0,218.0,34.0,4.0,243.0,3440.894
3440904.0,211.0,34.0,3.0,241.0,3440.904
3440914.0,220.0,34.0,4.0,249.0,3440.914
3440924.0,222.0,34.0,4.0,248.0,3440.924
3440934.0,213.0,33.0,4.0,240.0,3440.934
3440944.0,216.0,34.0,4.0,244.0,3440.944
3440954.0,211.0,34.0,3.0,239.0,3440.954
3440964.0,218.0,34.0,3.0,247.0,3440.964
3440974.0,222.0,34.0,4.0,247.0,3440.974
3440984.0,215.0,33.0,4.0,241.0,3440.984
3440994.0,218.0,33.0,3.0,242.0,3440.994
3441004.0,213.0,34.0,3.0,239.0,3441.004
3441014.0,220.0,32.0,4.0,248.0,3441.014
3441024.0,223.0,34.0,4.0,252.0,3441.024
3441034.0,215.0,34.0,3.0,242.0,3441.034
3441044.0,218.0,33.0,3.0,243.0,3441.044
3441054.0,215.0,33.0,4.0,244.0,3441.054
3441064.0,221.0,33.0,4.0,250.0,3441.064
3441074.0,223.0,34.0,4.0,249.0,3441.074
3441084.0,216.0,32.0,4.0,239.0,3441.084
3441094.0,217.0,33.0,4.0,241.0,3441.094
3441104.0,217.0,33.0,4.0,243.0,3441.104
3441114.0,220.0,33.0,3.0,247.0,3441.114
3441124.0,222.0,33.0,4.0,245.0,3441.124
3441134.0,213.0,34.0,3.0,240.0,3441.134
3441144.0,215.0,33.0,3.0,242.0,3441.144
3441154.0,210.0,34.0,3.0,238.0,3441.154
3441164.0,219.0,33.0,4.0,246.0,3441.164
3441174.0,222.0,33.0,4.0,247.0,3441.174
3441184.0,213.0,32.0,4.0,239.0,3441.184
3441195.0,216.0,33.0,4.0,244.0,3441.195
3441205.0,218.0,33.0,3.0,246.0,3441.205
3441215.0,220.0,32.0,4.0,248.0,3441.215
3441225.0,219.0,34.0,4.0,246.0,3441.225
3441235.0,212.0,32.0,4.0,237.0,3441.235
3441245.0,215.0,33.0,4.0,241.0,3441.245
3441255.0,219.0,33.0,4.0,246.0,3441.255
3441265.0,219.0,33.0,3.0,246.0,3441.265
3441275.0,220.0,32.0,4.0,244.0,3441.275
3441285.0,213.0,33.0,4.0,240.0,3441.285
3441295.0,217.0,33.0,4.0,242.0,3441.295
3441305.0,220.0,33.0,3.0,249.0,3441.305
3441315.0,219.0,33.0,3.0,247.0,3441.315
3441325.0,221.0,34.0,4.0,248.0,3441.325
3441335.0,213.0,33.0,3.0,239.0,3441.335
3441345.0,215.0,33.0,4.0,241.0,3441.345
3441355.0,221.0,33.0,4.0,248.0,3441.355
3441366.0,219.0,33.0,3.0,245.0,3441.366
3441376.0,219.0,33.0,4.0,244.0,3441.376
3441386.0,212.0,33.0,4.0,238.0,3441.386
3441396.0,219.0,33.0,3.0,246.0,3441.396
3441406.0,224.0,34.0,4.0,249.0,3441.406
3441416.0,220.0,33.0,3.0,244.0,3441.416
3441426.0,221.0,34.0,4.0,244.0,3441.426
3441436.0,210.0,34.0,4.0,234.0,3441.436
3441446.0,219.0,33.0,4.0,242.0,3441.446
3441456.0,222.0,33.0,4.0,244.0,3441.456
3441466.0,219.0,32.0,4.0,240.0,3441.466
3441476.0,219.0,33.0,3.0,242.0,3441.476
3441486.0,213.0,33.0,5.0,235.0,3441.486
3441496.0,217.0,33.0,4.0,241.0,3441.496
3441506.0,223.0,33.0,4.0,247.0,3441.506
3441516.0,219.0,33.0,3.0,243.0,3441.516
3441526.0,219.0,34.0,3.0,242.0,3441.526
3441536.0,212.0,33.0,4.0,233.0,3441.536
3441546.0,218.0,33.0,4.0,243.0,3441.546
3441556.0,225.0,33.0,4.0,248.0,3441.556
3441566.0,218.0,33.0,3.0,242.0,3441.566
3441576.0,220.0,33.0,4.0,244.0,3441.576
3441586.0,212.0,33.0,3.0,234.0,3441.586
3441596.0,218.0,32.0,4.0,242.0,3441.596
3441606.0,223.0,34.0,4.0,247.0,3441.606
3441616.0,218.0,33.0,5.0,239.0,3441.616
3441626.0,219.0,33.0,4.0,241.0,3441.626
3441636.0,212.0,33.0,3.0,238.0,3441.636
3441646.0,220.0,34.0,3.0,248.0,3441.646
3441656.0,223.0,33.0,4.0,248.0,3441.656
3441666.0,220.0,33.0,3.0,244.0,3441.666
3441676.0,220.0,33.0,4.0,244.0,3441.676
3441686.0,212.0,33.0,4.0,236.0,3441.686
3441696.0,220.0,33.0,4.0,245.0,3441.696
3441707.0,224.0,33.0,4.0,248.0,3441.707
3441717.0,217.0,33.0,3.0,238.0,3441.717
3441727.0,218.0,32.0,4.0,241.0,3441.727
3441737.0,216.0,34.0,4.0,242.0,3441.737
3441747.0,223.0,33.0,4.0,247.0,3441.747
3441757.0,221.0,33.0,4.0,245.0,3441.757
3441767.0,214.0,32.0,4.0,233.0,3441.767
3441777.0,216.0,34.0,3.0,238.0,3441.777
3441787.0,217.0,32.0,4.0,240.0,3441.787
3441797.0,220.0,33.0,3.0,243.0,3441.797
3441807.0,222.0,33.0,4.0,242.0,3441.807
3441817.0,214.0,33.0,4.0,234.0,3441.817
3441827.0,217.0,32.0,4.0,237.0,3441.827
3441837.0,213.0,33.0,4.0,238.0,3441.837
3441847.0,222.0,33.0,3.0,246.0,3441.847
3441857.0,222.0,33.0,3.0,246.0,3441.857
3441867.0,215.0,33.0,4.0,236.0,3441.867
3441878.0,217.0,33.0,4.0,240.0,3441.878
3441888.0,220.0,33.0,4.0,245.0,3441.888
3441898.0,222.0,33.0,4.0,245.0,3441.898
3441908.0,221.0,33.0,3.0,241.0,3441.908
3441918.0,212.0,32.0,3.0,230.0,3441.918
3441928.0,217.0,33.0,3.0,237.0,3441.928
3441938.0,223.0,32.0,5.0,243.0,3441.938
3441948.0,221.0,33.0,3.0,243.0,3441.948
3441958.0,220.0,32.0,4.0,241.0,3441.958
3441968.0,215.0,32.0,4.0,234.0,3441.968
3441978.0,217.0,32.0,3.0,240.0,3441.978
3441988.0,222.0,32.0,4.0,247.0,3441.988
3441998.0,221.0,33.0,4.0,243.0,3441.998
3442008.0,221.0,33.0,4.0,242.0,3442.008
3442018.0,213.0,32.0,3.0,232.0,3442.018
3442028.0,216.0,33.0,4.0,239.0,3442.028
3442038.0,222.0,33.0,3.0,246.0,3442.038
3442048.0,220.0,33.0,3.0,245.0,3442.048
3442058.0,219.0,33.0,4.0,242.0,3442.058
3442068.0,212.0,32.0,4.0,234.0,3442.068
3442078.0,215.0,33.0,3.0,240.0,3442.078
3442088.0,222.0,33.0,3.0,245.0,3442.088
3442098.0,220.0,33.0,4.0,243.0,3442.098
3442108.0,219.0,32.0,3.0,242.0,3442.108
3442118.0,212.0,33.0,4.0,232.0,3442.118
3442128.0,218.0,32.0,5.0,240.0,3442.128
3442138.0,220.0,33.0,4.0,244.0,3442.138
3442148.0,222.0,32.0,3.0,245.0,3442.148
3442158.0,220.0,33.0,4.0,244.0,3442.158
3442168.0,214.0,32.0,3.0,235.0,3442.168
3442178.0,218.0,33.0,3.0,241.0,3442.178
3442188.0,223.0,32.0,4.0,248.0,3442.188
3442198.0,223.0,31.0,4.0,245.0,3442.198
3442208.0,220.0,32.0,3.0,244.0,3442.208
3442219.0,215.0,32.0,3.0,239.0,3442.219
3442229.0,221.0,32.0,3.0,248.0,3442.229
3442239.0,225.0,32.0,4.0,251.0,3442.239
3442249.0,219.0,32.0,4.0,243.0,3442.249
3442259.0,220.0,32.0,5.0,243.0,3442.259
3442269.0,213.0,32.0,3.0,237.0,3442.269
3442279.0,222.0,33.0,3.0,247.0,3442.279
3442289.0,226.0,33.0,3.0,250.0,3442.289
3442299.0,219.0,32.0,4.0,240.0,3442.299
3442309.0,221.0,33.0,3.0,245.0,3442.309
3442319.0,215.0,32.0,4.0,238.0,3442.319
3442329.0,223.0,32.0,4.0,250.0,3442.329
3442339.0,225.0,33.0,3.0,250.0,3442.339
3442349.0,222.0,31.0,4.0,247.0,3442.349
3442359.0,220.0,32.0,4.0,246.0,3442.359
3442369.0,214.0,32.0,3.0,240.0,3442.369
3442379.0,223.0,33.0,4.0,249.0,3442.379
3442390.0,224.0,33.0,4.0,249.0,3442.39
3442400.0,217.0,32.0,3.0,240.0,3442.4
3442410.0,218.0,32.0,3.0,241.0,3442.41
3442420.0,219.0,33.0,3.0,242.0,3442.42
3442430.0,222.0,32.0,3.0,241.0,3442.43
3442440.0,223.0,33.0,3.0,242.0,3442.44
3442450.0,216.0,31.0,5.0,234.0,3442.45
3442460.0,217.0,33.0,3.0,239.0,3442.46
3442470.0,219.0,32.0,3.0,242.0,3442.47
3442480.0,221.0,32.0,4.0,243.0,3442.48
3442490.0,222.0,32.0,4.0,240.0,3442.49
3442500.0,214.0,32.0,3.0,232.0,3442.5
3442510.0,217.0,33.0,4.0,235.0,3442.51
3442520.0,216.0,32.0,4.0,238.0,3442.52
3442530.0,222.0,32.0,4.0,245.0,3442.53
3442540.0,222.0,32.0,4.0,243.0,3442.54
3442550.0,215.0,32.0,3.0,236.0,3442.55
3442560.0,218.0,33.0,3.0,243.0,3442.56
3442570.0,217.0,32.0,4.0,245.0,3442.57
3442580.0,223.0,31.0,4.0,248.0,3442.58
3442590.0,220.0,33.0,2.0,245.0,3442.59
3442600.0,214.0,32.0,3.0,240.0,3442.6
3442610.0,218.0,32.0,4.0,245.0,3442.61
3442620.0,218.0,32.0,4.0,246.0,3442.62
3442630.0,221.0,32.0,4.0,248.0,3442.63
3442640.0,220.0,33.0,5.0,247.0,3442.64
3442650.0,215.0,31.0,3.0,241.0,3442.65
3442660.0,216.0,32.0,4.0,243.0,3442.66
3442670.0,218.0,33.0,3.0,247.0,3442.67
3442680.0,221.0,32.0,4.0,248.0,3442.68
3442690.0,222.0,33.0,4.0,249.0,3442.69
3442700.0,215.0,32.0,4.0,242.0,3442.7
3442710.0,218.0,31.0,4.0,245.0,3442.71
3442720.0,220.0,32.0,4.0,251.0,3442.72
3442731.0,221.0,32.0,3.0,249.0,3442.731
3442741.0,221.0,33.0,3.0,246.0,3442.741
3442751.0,213.0,32.0,4.0,236.0,3442.751
3442761.0,217.0,32.0,4.0,242.0,3442.761
3442771.0,223.0,32.0,5.0,246.0,3442.771
3442781.0,220.0,32.0,3.0,241.0,3442.781
3442791.0,219.0,32.0,4.0,240.0,3442.791
3442801.0,212.0,33.0,3.0,235.0,3442.801
3442811.0,218.0,32.0,3.0,244.0,3442.811
3442821.0,222.0,33.0,4.0,248.0,3442.821
3442831.0,220.0,32.0,5.0,246.0,3442.831
3442841.0,220.0,32.0,4.0,247.0,3442.841
3442851.0,211.0,33.0,3.0,237.0,3442.851
3442861.0,216.0,32.0,3.0,243.0,3442.861
3442871.0,222.0,33.0,3.0,250.0,3442.871
3442881.0,219.0,32.0,3.0,246.0,3442.881
3442891.0,218.0,33.0,4.0,246.0,3442.891
3442902.0,211.0,33.0,4.0,237.0,3442.902
3442912.0,218.0,33.0,3.0,247.0,3442.912
3442922.0,222.0,32.0,4.0,249.0,3442.922
3442932.0,216.0,33.0,3.0,241.0,3442.932
3442942.0,217.0,32.0,4.0,242.0,3442.942
3442952.0,211.0,33.0,3.0,237.0,3442.952
3442962.0,220.0,32.0,4.0,248.0,3442.962
3442972.0,222.0,33.0,4.0,251.0,3442.972
3442982.0,215.0,32.0,4.0,240.0,3442.982
3442992.0,218.0,32.0,3.0,243.0,3442.992
3443002.0,213.0,32.0,4.0,240.0,3443.002
3443012.0,221.0,32.0,3.0,250.0,3443.012
3443022.0,223.0,33.0,5.0,250.0,3443.022
3443032.0,219.0,32.0,4.0,246.0,3443.032
3443042.0,218.0,33.0,3.0,246.0,3443.042
3443052.0,214.0,32.0,4.0,242.0,3443.052
3443062.0,221.0,33.0,3.0,248.0,3443.062
3443072.0,223.0,33.0,3.0,250.0,3443.072
3443082.0,217.0,32.0,4.0,241.0,3443.082
3443092.0,218.0,32.0,4.0,242.0,3443.092
3443102.0,214.0,32.0,4.0,241.0,3443.102
3443112.0,221.0,33.0,3.0,246.0,3443.112
3443122.0,222.0,34.0,3.0,247.0,3443.122
3443132.0,216.0,31.0,4.0,239.0,3443.132
3443142.0,216.0,32.0,4.0,243.0,3443.142
3443152.0,213.0,32.0,4.0,242.0,3443.152
3443162.0,218.0,32.0,4.0,247.0,3443.162
3443172.0,220.0,33.0,3.0,248.0,3443.172
3443182.0,213.0,33.0,3.0,239.0,3443.182
3443192.0,214.0,33.0,3.0,241.0,3443.192
3443202.0,210.0,32.0,4.0,237.0,3443.202
3443212.0,219.0,32.0,3.0,247.0,3443.212
3443222.0,221.0,33.0,4.0,249.0,3443.222
3443232.0,214.0,32.0,4.0,239.0,3443.232
3443243.0,215.0,32.0,3.0,241.0,3443.243
3443253.0,217.0,33.0,3.0,246.0,3443.253
3443263.0,220.0,32.0,4.0,244.0,3443.263
3443273.0,218.0,32.0,4.0,244.0,3443.273
3443283.0,212.0,32.0,4.0,234.0,3443.283
3443293.0,215.0,32.0,4.0,241.0,3443.293
3443303.0,219.0,32.0,4.0,248.0,3443.303
3443313.0,220.0,33.0,3.0,247.0,3443.313
3443323.0,220.0,32.0,3.0,246.0,3443.323
3443333.0,213.0,32.0,3.0,239.0,3443.333
3443343.0,216.0,32.0,5.0,242.0,3443.343
3443353.0,220.0,32.0,4.0,249.0,3443.353
3443363.0,219.0,32.0,3.0,246.0,3443.363
3443373.0,222.0,32.0,4.0,242.0,3443.373
3443383.0,213.0,32.0,3.0,229.0,3443.383
3443393.0,216.0,32.0,3.0,234.0,3443.393
3443403.0,220.0,33.0,4.0,240.0,3443.403
3443414.0,220.0,32.0,4.0,238.0,3443.414
3443424.0,218.0,33.0,3.0,238.0,3443.424
3443434.0,211.0,32.0,4.0,229.0,3443.434
3443444.0,219.0,33.0,3.0,241.0,3443.444
3443454.0,224.0,32.0,4.0,243.0,3443.454
3443464.0,219.0,31.0,4.0,237.0,3443.464
3443474.0,220.0,32.0,5.0,239.0,3443.474
3443484.0,211.0,31.0,4.0,230.0,3443.484
3443494.0,219.0,32.0,4.0,239.0,3443.494
3443504.0,222.0,31.0,4.0,242.0,3443.504
3443514.0,218.0,32.0,3.0,237.0,3443.514
3443524.0,218.0,32.0,3.0,239.0,3443.524
3443534.0,211.0,32.0,4.0,233.0,3443.534
3443544.0,217.0,32.0,4.0,238.0,3443.544
3443554.0,224.0,32.0,3.0,246.0,3443.554
3443564.0,219.0,32.0,3.0,241.0,3443.564
3443574.0,219.0,33.0,3.0,241.0,3443.574
3443584.0,212.0,32.0,3.0,233.0,3443.584
3443594.0,217.0,32.0,4.0,242.0,3443.594
3443604.0,225.0,32.0,5.0,250.0,3443.604
3443614.0,220.0,32.0,4.0,242.0,3443.614
3443624.0,220.0,32.0,4.0,242.0,3443.624
3443634.0,212.0,31.0,4.0,233.0,3443.634
3443644.0,219.0,32.0,3.0,242.0,3443.644
3443654.0,224.0,32.0,3.0,248.0,3443.654
3443664.0,219.0,31.0,5.0,242.0,3443.664
3443674.0,219.0,32.0,3.0,244.0,3443.674
3443684.0,211.0,32.0,4.0,233.0,3443.684
3443694.0,219.0,32.0,4.0,240.0,3443.694
3443704.0,223.0,32.0,3.0,241.0,3443.704
3443714.0,220.0,31.0,4.0,236.0,3443.714
3443724.0,220.0,32.0,3.0,238.0,3443.724
3443734.0,213.0,31.0,4.0,231.0,3443.734
3443744.0,221.0,32.0,4.0,243.0,3443.744
3443755.0,225.0,32.0,4.0,245.0,3443.755
3443765.0,219.0,33.0,3.0,240.0,3443.765
3443775.0,220.0,32.0,4.0,242.0,3443.775
3443785.0,219.0,32.0,4.0,243.0,3443.785
3443795.0,224.0,32.0,4.0,248.0,3443.795
3443805.0,225.0,32.0,3.0,252.0,3443.805
3443815.0,218.0,32.0,3.0,242.0,3443.815
3443825.0,219.0,32.0,3.0,244.0,3443.825
3443835.0,219.0,32.0,3.0,249.0,3443.835
3443845.0,223.0,32.0,4.0,252.0,3443.845
3443855.0,224.0,33.0,4.0,251.0,3443.855
3443865.0,217.0,31.0,4.0,239.0,3443.865
3443875.0,218.0,32.0,4.0,242.0,3443.875
3443885.0,215.0,32.0,4.0,240.0,3443.885
3443895.0,221.0,33.0,3.0,247.0,3443.895
3443905.0,223.0,32.0,4.0,246.0,3443.905
3443915.0,213.0,32.0,4.0,236.0,3443.915
3443926.0,217.0,32.0,5.0,241.0,3443.926
3443936.0,218.0,33.0,2.0,246.0,3443.936
3443946.0,220.0,32.0,4.0,244.0,3443.946
3443956.0,221.0,33.0,3.0,246.0,3443.956
3443966.0,212.0,32.0,4.0,234.0,3443.966
3443976.0,217.0,32.0,4.0,240.0,3443.976
3443986.0,222.0,33.0,5.0,246.0,3443.986
3443996.0,220.0,32.0,3.0,244.0,3443.996
3444006.0,220.0,32.0,3.0,244.0,3444.006
3444016.0,213.0,32.0,4.0,234.0,3444.016
3444026.0,217.0,33.0,3.0,240.0,3444.026
3444036.0,223.0,33.0,4.0,247.0,3444.036
3444046.0,220.0,33.0,4.0,242.0,3444.046
3444056.0,222.0,33.0,3.0,243.0,3444.056
3444066.0,213.0,33.0,3.0,235.0,3444.066
3444076.0,216.0,33.0,4.0,238.0,3444.076
3444086.0,222.0,34.0,3.0,245.0,3444.086
3444096.0,221.0,33.0,4.0,243.0,3444.096
3444106.0,223.0,33.0,3.0,241.0,3444.106
3444116.0,214.0,32.0,4.0,233.0,3444.116
3444126.0,217.0,33.0,2.0,240.0,3444.126
3444136.0,224.0,33.0,4.0,247.0,3444.136
3444146.0,222.0,33.0,3.0,245.0,3444.146
3444156.0,222.0,33.0,3.0,243.0,3444.156
3444166.0,213.0,33.0,4.0,234.0,3444.166
3444176.0,219.0,33.0,4.0,242.0,3444.176
3444186.0,222.0,33.0,3.0,244.0,3444.186
3444196.0,222.0,33.0,3.0,243.0,3444.196
3444206.0,223.0,33.0,4.0,243.0,3444.206
3444216.0,214.0,33.0,3.0,232.0,3444.216
3444226.0,218.0,33.0,4.0,239.0,3444.226
3444236.0,223.0,33.0,3.0,245.0,3444.236
3444246.0,222.0,33.0,4.0,242.0,3444.246
3444256.0,222.0,33.0,4.0,240.0,3444.256
3444267.0,212.0,33.0,4.0,231.0,3444.267
3444277.0,220.0,34.0,3.0,244.0,3444.277
3444287.0,225.0,33.0,4.0,247.0,3444.287
3444297.0,217.0,33.0,3.0,242.0,3444.297
3444307.0,219.0,33.0,5.0,243.0,3444.307
3444317.0,212.0,33.0,4.0,238.0,3444.317
3444327.0,219.0,33.0,3.0,250.0,3444.327
3444337.0,224.0,33.0,3.0,252.0,3444.337
3444347.0,217.0,33.0,3.0,243.0,3444.347
3444357.0,220.0,33.0,4.0,246.0,3444.357
3444367.0,213.0,33.0,4.0,238.0,3444.367
3444377.0,221.0,33.0,4.0,249.0,3444.377
3444387.0,224.0,33.0,4.0,249.0,3444.387
3444397.0,220.0,33.0,4.0,242.0,3444.397
3444407.0,219.0,34.0,4.0,242.0,3444.407
3444417.0,213.0,32.0,4.0,234.0,3444.417
3444427.0,221.0,33.0,3.0,243.0,3444.427
3444438.0,225.0,33.0,5.0,243.0,3444.438
3444448.0,216.0,32.0,4.0,236.0,3444.448
3444458.0,217.0,32.0,4.0,237.0,3444.458
3444468.0,219.0,34.0,3.0,244.0,3444.468
3444478.0,221.0,32.0,4.0,243.0,3444.478
3444488.0,223.0,32.0,4.0,244.0,3444.488
3444498.0,215.0,33.0,4.0,235.0,3444.498
3444508.0,217.0,33.0,3.0,237.0,3444.508
3444518.0,219.0,33.0,3.0,242.0,3444.518
3444528.0,223.0,33.0,4.0,247.0,3444.528
3444538.0,223.0,35.0,3.0,244.0,3444.538
3444548.0,215.0,33.0,4.0,236.0,3444.548
3444558.0,217.0,33.0,3.0,240.0,3444.558
3444568.0,216.0,33.0,4.0,241.0,3444.568
3444578.0,222.0,33.0,3.0,245.0,3444.578
3444588.0,222.0,33.0,4.0,243.0,3444.588
3444598.0,215.0,34.0,3.0,239.0,3444.598
3444608.0,219.0,33.0,4.0,241.0,3444.608
3444618.0,218.0,33.0,3.0,241.0,3444.618
3444628.0,224.0,33.0,4.0,247.0,3444.628
3444638.0,222.0,33.0,3.0,246.0,3444.638
3444648.0,216.0,32.0,4.0,237.0,3444.648
3444658.0,219.0,33.0,4.0,242.0,3444.658
3444668.0,219.0,33.0,4.0,244.0,3444.668
3444678.0,224.0,33.0,3.0,248.0,3444.678
3444688.0,222.0,33.0,4.0,246.0,3444.688
3444698.0,218.0,33.0,3.0,243.0,3444.698
3444708.0,221.0,33.0,3.0,244.0,3444.708
3444718.0,221.0,33.0,4.0,246.0,3444.718
3444728.0,223.0,34.0,3.0,246.0,3444.728
3444738.0,225.0,33.0,4.0,247.0,3444.738
3444748.0,217.0,33.0,3.0,240.0,3444.748
3444758.0,221.0,33.0,5.0,242.0,3444.758
3444768.0,222.0,34.0,3.0,248.0,3444.768
3444779.0,223.0,33.0,4.0,249.0,3444.779
3444789.0,223.0,33.0,3.0,247.0,3444.789
3444799.0,215.0,32.0,4.0,237.0,3444.799
3444809.0,220.0,33.0,3.0,246.0,3444.809
3444819.0,225.0,33.0,5.0,250.0,3444.819
3444829.0,221.0,34.0,3.0,247.0,3444.829
3444839.0,221.0,34.0,3.0,246.0,3444.839
3444849.0,212.0,33.0,4.0,236.0,3444.849
3444859.0,219.0,33.0,3.0,245.0,3444.859
3444869.0,222.0,33.0,3.0,249.0,3444.869
3444879.0,220.0,33.0,4.0,247.0,3444.879
3444889.0,221.0,33.0,4.0,245.0,3444.889
3444899.0,212.0,33.0,4.0,238.0,3444.899
3444909.0,217.0,33.0,3.0,245.0,3444.909
3444919.0,222.0,34.0,3.0,251.0,3444.919
3444929.0,220.0,32.0,4.0,243.0,3444.929
3444939.0,218.0,33.0,3.0,241.0,3444.939
3444950.0,212.0,33.0,4.0,233.0,3444.95
3444960.0,219.0,33.0,4.0,243.0,3444.96
3444970.0,223.0,33.0,4.0,244.0,3444.97
3444980.0,216.0,33.0,3.0,238.0,3444.98
3444990.0,217.0,32.0,4.0,236.0,3444.99
3445000.0,213.0,33.0,3.0,233.0,3445.0
3445010.0,222.0,33.0,4.0,244.0,3445.01
3445020.0,224.0,34.0,4.0,243.0,3445.02
3445030.0,215.0,33.0,3.0,235.0,3445.03
3445040.0,219.0,33.0,4.0,239.0,3445.04
3445050.0,213.0,34.0,3.0,236.0,3445.05
3445060.0,223.0,32.0,4.0,245.0,3445.06
3445070.0,222.0,34.0,3.0,243.0,3445.07
3445080.0,218.0,32.0,4.0,237.0,3445.08
3445090.0,218.0,33.0,4.0,236.0,3445.09
3445100.0,214.0,32.0,4.0,233.0,3445.1
3445110.0,223.0,34.0,3.0,244.0,3445.11
3445120.0,223.0,33.0,4.0,245.0,3445.12
3445130.0,218.0,33.0,4.0,240.0,3445.13
3445140.0,220.0,33.0,4.0,241.0,3445.14
3445150.0,216.0,33.0,4.0,240.0,3445.15
3445160.0,224.0,34.0,3.0,248.0,3445.16
3445170.0,225.0,34.0,3.0,249.0,3445.17
3445180.0,218.0,33.0,3.0,241.0,3445.18
3445190.0,218.0,32.0,3.0,241.0,3445.19
3445200.0,216.0,33.0,4.0,240.0,3445.2
3445210.0,220.0,33.0,4.0,246.0,3445.21
3445220.0,224.0,34.0,4.0,247.0,3445.22
3445230.0,217.0,33.0,3.0,239.0,3445.23
3445240.0,218.0,34.0,3.0,240.0,3445.24
3445250.0,213.0,32.0,4.0,235.0,3445.25
3445260.0,221.0,33.0,4.0,245.0,3445.26
3445270.0,224.0,33.0,5.0,246.0,3445.27
3445280.0,216.0,33.0,4.0,237.0,3445.28
3445291.0,217.0,33.0,4.0,240.0,3445.291
3445301.0,218.0,34.0,3.0,245.0,3445.301
3445311.0,221.0,33.0,3.0,246.0,3445.311
3445321.0,220.0,33.0,3.0,245.0,3445.321
3445331.0,213.0,33.0,4.0,237.0,3445.331
3445341.0,217.0,33.0,4.0,242.0,3445.341
3445351.0,219.0,34.0,3.0,248.0,3445.351
3445361.0,221.0,33.0,3.0,249.0,3445.361
3445371.0,220.0,33.0,3.0,245.0,3445.371
