time (ms),signal 0,signal 1,signal 2,signal 3,time (sec)
3450097.0,221.0,32.0,4.0,242.0,3450.097
3450107.0,216.0,32.0,3.0,238.0,3450.107
3450117.0,220.0,32.0,4.0,239.0,3450.117
3450127.0,210.0,32.0,4.0,230.0,3450.127
3450137.0,215.0,31.0,3.0,236.0,3450.137
3450147.0,221.0,31.0,4.0,241.0,3450.147
3450157.0,217.0,31.0,3.0,239.0,3450.157
3450167.0,219.0,32.0,3.0,238.0,3450.167
3450177.0,210.0,30.0,4.0,230.0,3450.177
3450187.0,214.0,31.0,4.0,236.0,3450.187
3450198.0,223.0,31.0,5.0,242.0,3450.198
3450208.0,215.0,31.0,2.0,238.0,3450.208
3450218.0,217.0,31.0,4.0,237.0,3450.218
3450228.0,210.0,32.0,3.0,234.0,3450.228
3450238.0,220.0,30.0,3.0,243.0,3450.238
3450248.0,223.0,31.0,3.0,245.0,3450.248
3450258.0,217.0,31.0,7.0,240.0,3450.258
3450268.0,220.0,31.0,6.0,242.0,3450.268
3450278.0,214.0,30.0,6.0,239.0,3450.278
3450288.0,220.0,31.0,6.0,247.0,3450.288
3450298.0,225.0,31.0,9.0,248.0,3450.298
3450308.0,218.0,30.0,15.0,242.0,3450.308
3450318.0,220.0,31.0,14.0,242.0,3450.318
3450328.0,213.0,30.0,20.0,237.0,3450.328
3450338.0,220.0,31.0,17.0,247.0,3450.338
3450348.0,227.0,31.0,21.0,248.0,3450.348
3450358.0,217.0,32.0,26.0,240.0,3450.358
3450368.0,222.0,30.0,24.0,242.0,3450.368
3450378.0,213.0,32.0,30.0,237.0,3450.378
3450388.0,222.0,31.0,30.0,247.0,3450.388
3450398.0,226.0,32.0,33.0,250.0,3450.398
3450408.0,217.0,31.0,43.0,242.0,3450.408
3450418.0,221.0,32.0,38.0,246.0,3450.418
3450428.0,214.0,32.0,45.0,239.0,3450.428
3450438.0,222.0,32.0,46.0,248.0,3450.438
3450448.0,227.0,32.0,49.0,248.0,3450.448
3450458.0,219.0,32.0,57.0,242.0,3450.458
3450468.0,221.0,33.0,51.0,243.0,3450.468
3450478.0,216.0,31.0,60.0,239.0,3450.478
3450488.0,223.0,32.0,62.0,247.0,3450.488
3450498.0,227.0,32.0,63.0,250.0,3450.498
3450508.0,219.0,33.0,71.0,243.0,3450.508
3450518.0,222.0,33.0,63.0,243.0,3450.518
3450528.0,217.0,33.0,71.0,241.0,3450.528
3450539.0,224.0,33.0,75.0,247.0,3450.539
3450549.0,226.0,33.0,72.0,247.0,3450.549
3450559.0,217.0,32.0,83.0,238.0,3450.559
3450569.0,219.0,34.0,72.0,244.0,3450.569
3450579.0,224.0,33.0,84.0,249.0,3450.579
3450589.0,224.0,33.0,88.0,249.0,3450.589
3450599.0,226.0,34.0,84.0,248.0,3450.599
3450609.0,216.0,33.0,93.0,239.0,3450.609
3450619.0,219.0,33.0,82.0,240.0,3450.619
3450629.0,219.0,33.0,95.0,243.0,3450.629
3450639.0,224.0,33.0,101.0,246.0,3450.639
3450649.0,226.0,33.0,95.0,247.0,3450.649
3450659.0,216.0,33.0,106.0,239.0,3450.659
3450669.0,221.0,33.0,95.0,245.0,3450.669
3450679.0,222.0,33.0,106.0,247.0,3450.679
3450689.0,225.0,32.0,114.0,248.0,3450.689
3450699.0,225.0,34.0,105.0,247.0,3450.699
3450710.0,217.0,33.0,119.0,237.0,3450.71
3450720.0,220.0,34.0,108.0,244.0,3450.72
3450730.0,226.0,33.0,116.0,250.0,3450.73
3450740.0,222.0,34.0,129.0,245.0,3450.74
3450750.0,222.0,34.0,118.0,246.0,3450.75
3450760.0,216.0,34.0,129.0,239.0,3450.76
3450770.0,221.0,34.0,124.0,246.0,3450.77
3450780.0,228.0,34.0,128.0,252.0,3450.78
3450790.0,223.0,33.0,141.0,248.0,3450.79
3450800.0,225.0,35.0,130.0,253.0,3450.8
3450810.0,216.0,34.0,141.0,241.0,3450.81
3450820.0,223.0,35.0,137.0,250.0,3450.82
3450830.0,228.0,35.0,138.0,254.0,3450.83
3450840.0,227.0,34.0,151.0,248.0,3450.84
3450850.0,224.0,35.0,138.0,247.0,3450.85
3450860.0,216.0,33.0,148.0,236.0,3450.86
3450870.0,223.0,35.0,147.0,246.0,3450.87
3450880.0,227.0,34.0,149.0,251.0,3450.88
3450890.0,225.0,34.0,161.0,246.0,3450.89
3450900.0,225.0,35.0,149.0,248.0,3450.9
3450910.0,216.0,34.0,160.0,239.0,3450.91
3450920.0,224.0,34.0,160.0,248.0,3450.92
3450930.0,227.0,35.0,159.0,253.0,3450.93
3450940.0,223.0,34.0,169.0,244.0,3450.94
3450950.0,224.0,34.0,157.0,246.0,3450.95
3450960.0,216.0,34.0,166.0,239.0,3450.96
3450970.0,222.0,34.0,165.0,245.0,3450.97
3450980.0,228.0,35.0,168.0,252.0,3450.98
3450990.0,224.0,33.0,179.0,247.0,3450.99
3451000.0,224.0,35.0,167.0,249.0,3451.0
3451010.0,218.0,34.0,178.0,240.0,3451.01
3451020.0,223.0,34.0,177.0,251.0,3451.02
3451030.0,231.0,34.0,178.0,258.0,3451.03
3451040.0,224.0,34.0,188.0,250.0,3451.04
3451051.0,224.0,34.0,176.0,250.0,3451.051
3451061.0,219.0,34.0,185.0,245.0,3451.061
3451071.0,226.0,34.0,193.0,250.0,3451.071
3451081.0,229.0,34.0,185.0,250.0,3451.081
3451091.0,221.0,34.0,195.0,237.0,3451.091
3451101.0,225.0,34.0,184.0,243.0,3451.101
3451111.0,220.0,34.0,193.0,239.0,3451.111
3451121.0,228.0,33.0,201.0,246.0,3451.121
3451131.0,230.0,35.0,193.0,247.0,3451.131
3451141.0,224.0,34.0,203.0,241.0,3451.141
3451151.0,225.0,34.0,194.0,241.0,3451.151
3451161.0,224.0,33.0,200.0,239.0,3451.161
3451171.0,229.0,34.0,211.0,247.0,3451.171
3451181.0,232.0,33.0,203.0,250.0,3451.181
3451191.0,226.0,34.0,214.0,242.0,3451.191
3451201.0,226.0,34.0,205.0,242.0,3451.201
3451211.0,224.0,33.0,209.0,244.0,3451.211
3451222.0,230.0,34.0,222.0,247.0,3451.222
3451232.0,230.0,34.0,214.0,249.0,3451.232
3451242.0,221.0,33.0,222.0,241.0,3451.242
3451252.0,225.0,34.0,217.0,250.0,3451.252
3451262.0,230.0,34.0,223.0,254.0,3451.262
3451272.0,231.0,34.0,234.0,251.0,3451.272
3451282.0,231.0,34.0,222.0,251.0,3451.282
3451292.0,222.0,33.0,232.0,240.0,3451.292
3451302.0,224.0,33.0,228.0,248.0,3451.302
3451312.0,226.0,33.0,239.0,259.0,3451.312
3451322.0,227.0,34.0,243.0,252.0,3451.322
3451332.0,227.0,32.0,231.0,250.0,3451.332
3451342.0,216.0,33.0,238.0,241.0,3451.342
3451352.0,221.0,33.0,235.0,248.0,3451.352
3451362.0,224.0,33.0,236.0,256.0,3451.362
3451372.0,226.0,33.0,250.0,259.0,3451.372
3451382.0,227.0,34.0,238.0,261.0,3451.382
3451392.0,221.0,32.0,250.0,254.0,3451.392
3451402.0,226.0,33.0,247.0,259.0,3451.402
3451412.0,230.0,34.0,253.0,276.0,3451.412
3451422.0,228.0,33.0,261.0,271.0,3451.422
3451432.0,229.0,33.0,248.0,269.0,3451.432
3451442.0,224.0,33.0,257.0,259.0,3451.442
3451452.0,228.0,34.0,254.0,262.0,3451.452
3451462.0,236.0,34.0,257.0,274.0,3451.462
3451472.0,231.0,33.0,265.0,264.0,3451.472
3451482.0,233.0,33.0,255.0,265.0,3451.482
3451492.0,223.0,33.0,266.0,256.0,3451.492
3451502.0,227.0,32.0,260.0,260.0,3451.502
3451512.0,230.0,34.0,269.0,267.0,3451.512
3451522.0,231.0,33.0,276.0,262.0,3451.522
3451532.0,229.0,32.0,266.0,262.0,3451.532
3451542.0,221.0,32.0,280.0,250.0,3451.542
3451552.0,226.0,33.0,279.0,264.0,3451.552
3451563.0,233.0,33.0,286.0,272.0,3451.563
3451573.0,226.0,33.0,295.0,259.0,3451.573
3451583.0,227.0,32.0,283.0,256.0,3451.583
3451593.0,223.0,32.0,298.0,249.0,3451.593
3451603.0,233.0,32.0,308.0,259.0,3451.603
3451613.0,236.0,33.0,309.0,268.0,3451.613
3451623.0,232.0,32.0,330.0,266.0,3451.623
3451633.0,236.0,32.0,317.0,268.0,3451.633
3451643.0,231.0,33.0,335.0,264.0,3451.643
3451653.0,235.0,32.0,339.0,268.0,3451.653
3451663.0,243.0,33.0,338.0,275.0,3451.663
3451673.0,238.0,32.0,365.0,269.0,3451.673
3451683.0,237.0,33.0,349.0,271.0,3451.683
3451693.0,230.0,33.0,378.0,268.0,3451.693
3451703.0,237.0,33.0,377.0,277.0,3451.703
3451713.0,241.0,33.0,372.0,277.0,3451.713
3451723.0,235.0,32.0,402.0,269.0,3451.723
3451734.0,234.0,33.0,386.0,263.0,3451.734
3451744.0,229.0,33.0,408.0,262.0,3451.744
3451754.0,237.0,33.0,423.0,268.0,3451.754
3451764.0,239.0,33.0,406.0,267.0,3451.764
3451774.0,230.0,32.0,442.0,256.0,3451.774
3451784.0,234.0,32.0,425.0,261.0,3451.784
3451794.0,233.0,33.0,447.0,263.0,3451.794
3451804.0,240.0,33.0,462.0,269.0,3451.804
3451814.0,240.0,33.0,444.0,274.0,3451.814
3451824.0,232.0,33.0,477.0,264.0,3451.824
3451834.0,233.0,33.0,460.0,265.0,3451.834
3451844.0,232.0,33.0,476.0,265.0,3451.844
3451854.0,237.0,33.0,492.0,266.0,3451.854
3451864.0,239.0,33.0,470.0,264.0,3451.864
3451874.0,231.0,33.0,502.0,256.0,3451.874
3451884.0,233.0,33.0,485.0,262.0,3451.884
3451894.0,234.0,33.0,496.0,265.0,3451.894
3451904.0,237.0,33.0,509.0,265.0,3451.904
3451914.0,239.0,34.0,486.0,265.0,3451.914
3451924.0,231.0,33.0,517.0,257.0,3451.924
3451934.0,235.0,34.0,499.0,263.0,3451.934
3451944.0,237.0,34.0,507.0,266.0,3451.944
3451954.0,239.0,33.0,517.0,268.0,3451.954
3451964.0,240.0,35.0,491.0,266.0,3451.964
3451974.0,231.0,32.0,520.0,256.0,3451.974
3451984.0,234.0,34.0,498.0,261.0,3451.984
3451994.0,234.0,33.0,511.0,259.0,3451.994
3452004.0,234.0,33.0,516.0,256.0,3452.004
3452014.0,235.0,33.0,489.0,255.0,3452.014
3452024.0,227.0,34.0,518.0,251.0,3452.024
3452034.0,231.0,34.0,494.0,256.0,3452.034
3452044.0,229.0,33.0,507.0,259.0,3452.044
3452054.0,235.0,33.0,515.0,258.0,3452.054
3452064.0,236.0,33.0,486.0,256.0,3452.064
3452075.0,229.0,33.0,518.0,258.0,3452.075
3452085.0,233.0,33.0,495.0,263.0,3452.085
3452095.0,239.0,34.0,491.0,267.0,3452.095
3452105.0,235.0,32.0,510.0,259.0,3452.105
3452115.0,236.0,33.0,483.0,260.0,3452.115
3452125.0,228.0,33.0,508.0,252.0,3452.125
3452135.0,231.0,33.0,490.0,258.0,3452.135
3452145.0,239.0,33.0,486.0,264.0,3452.145
3452155.0,237.0,33.0,506.0,259.0,3452.155
3452165.0,238.0,32.0,478.0,259.0,3452.165
3452175.0,229.0,33.0,502.0,249.0,3452.175
3452185.0,236.0,33.0,487.0,256.0,3452.185
3452195.0,242.0,33.0,479.0,263.0,3452.195
3452205.0,240.0,33.0,497.0,259.0,3452.205
3452215.0,238.0,33.0,468.0,259.0,3452.215
3452225.0,230.0,33.0,489.0,251.0,3452.225
3452235.0,236.0,33.0,476.0,262.0,3452.235
3452246.0,241.0,33.0,463.0,268.0,3452.246
3452256.0,238.0,33.0,484.0,269.0,3452.256
3452266.0,236.0,33.0,455.0,274.0,3452.266
3452276.0,231.0,32.0,463.0,265.0,3452.276
3452286.0,242.0,33.0,468.0,280.0,3452.286
3452296.0,243.0,32.0,444.0,276.0,3452.296
3452306.0,237.0,32.0,461.0,264.0,3452.306
3452316.0,240.0,33.0,437.0,271.0,3452.316
3452326.0,236.0,32.0,448.0,281.0,3452.326
3452336.0,238.0,33.0,434.0,273.0,3452.336
3452346.0,242.0,33.0,416.0,269.0,3452.346
3452356.0,235.0,32.0,424.0,254.0,3452.356
3452366.0,235.0,32.0,404.0,270.0,3452.366
3452376.0,229.0,32.0,415.0,267.0,3452.376
3452386.0,237.0,31.0,405.0,277.0,3452.386
3452396.0,240.0,32.0,388.0,274.0,3452.396
3452406.0,233.0,32.0,401.0,265.0,3452.406
3452416.0,235.0,32.0,382.0,269.0,3452.416
3452426.0,228.0,32.0,388.0,258.0,3452.426
3452436.0,240.0,32.0,401.0,288.0,3452.436
3452446.0,245.0,32.0,377.0,287.0,3452.446
3452456.0,236.0,32.0,384.0,269.0,3452.456
3452466.0,238.0,32.0,363.0,276.0,3452.466
3452476.0,233.0,33.0,374.0,286.0,3452.476
3452486.0,242.0,32.0,376.0,292.0,3452.486
3452496.0,247.0,32.0,374.0,321.0,3452.496
3452506.0,238.0,32.0,376.0,295.0,3452.506
3452516.0,236.0,31.0,352.0,286.0,3452.516
3452526.0,230.0,32.0,359.0,283.0,3452.526
3452536.0,242.0,33.0,371.0,301.0,3452.536
3452546.0,245.0,32.0,368.0,323.0,3452.546
3452556.0,239.0,32.0,371.0,313.0,3452.556
3452566.0,237.0,32.0,344.0,302.0,3452.566
3452576.0,235.0,31.0,346.0,295.0,3452.576
3452587.0,240.0,32.0,349.0,294.0,3452.587
3452597.0,241.0,32.0,332.0,290.0,3452.597
3452607.0,232.0,32.0,348.0,286.0,3452.607
3452617.0,234.0,32.0,339.0,292.0,3452.617
3452627.0,239.0,32.0,344.0,296.0,3452.627
3452637.0,240.0,31.0,350.0,295.0,3452.637
3452647.0,242.0,32.0,332.0,296.0,3452.647
3452657.0,230.0,32.0,345.0,281.0,3452.657
3452667.0,233.0,33.0,331.0,278.0,3452.667
3452677.0,232.0,31.0,339.0,273.0,3452.677
3452687.0,234.0,31.0,341.0,269.0,3452.687
3452697.0,237.0,31.0,321.0,258.0,3452.697
3452707.0,229.0,31.0,335.0,250.0,3452.707
3452717.0,230.0,31.0,324.0,255.0,3452.717
3452727.0,231.0,32.0,335.0,260.0,3452.727
3452737.0,235.0,31.0,342.0,262.0,3452.737
3452747.0,235.0,32.0,325.0,258.0,3452.747
3452758.0,227.0,31.0,341.0,256.0,3452.758
3452768.0,231.0,31.0,333.0,263.0,3452.768
3452778.0,237.0,32.0,334.0,268.0,3452.778
3452788.0,228.0,31.0,340.0,261.0,3452.788
3452798.0,227.0,32.0,319.0,252.0,3452.798
3452808.0,221.0,30.0,326.0,242.0,3452.808
3452818.0,226.0,31.0,321.0,252.0,3452.818
3452828.0,234.0,32.0,321.0,259.0,3452.828
3452838.0,230.0,31.0,324.0,255.0,3452.838
3452848.0,233.0,32.0,308.0,255.0,3452.848
3452858.0,224.0,32.0,312.0,249.0,3452.858
3452868.0,232.0,32.0,310.0,258.0,3452.868
3452878.0,238.0,32.0,308.0,265.0,3452.878
3452888.0,234.0,32.0,309.0,260.0,3452.888
3452898.0,234.0,31.0,293.0,258.0,3452.898
3452908.0,225.0,31.0,292.0,254.0,3452.908
3452918.0,234.0,32.0,291.0,263.0,3452.918
3452928.0,237.0,33.0,287.0,265.0,3452.928
3452938.0,236.0,32.0,281.0,259.0,3452.938
3452948.0,235.0,32.0,268.0,257.0,3452.948
3452958.0,227.0,31.0,258.0,251.0,3452.958
3452968.0,235.0,32.0,262.0,261.0,3452.968
3452978.0,241.0,32.0,270.0,278.0,3452.978
3452988.0,239.0,33.0,261.0,276.0,3452.988
3452998.0,238.0,32.0,258.0,279.0,3452.998
3453008.0,231.0,32.0,245.0,270.0,3453.008
3453018.0,237.0,32.0,246.0,271.0,3453.018
3453028.0,242.0,33.0,250.0,279.0,3453.028
3453038.0,235.0,32.0,227.0,257.0,3453.038
3453048.0,235.0,33.0,234.0,261.0,3453.048
3453058.0,232.0,33.0,227.0,272.0,3453.058
3453068.0,239.0,32.0,245.0,301.0,3453.068
3453078.0,245.0,33.0,258.0,304.0,3453.078
3453088.0,238.0,33.0,237.0,283.0,3453.088
3453099.0,236.0,33.0,245.0,282.0,3453.099
3453109.0,230.0,33.0,232.0,276.0,3453.109
3453119.0,239.0,34.0,238.0,283.0,3453.119
3453129.0,238.0,32.0,239.0,271.0,3453.129
3453139.0,228.0,33.0,220.0,267.0,3453.139
3453149.0,232.0,33.0,239.0,281.0,3453.149
3453159.0,229.0,33.0,236.0,281.0,3453.159
3453169.0,238.0,33.0,238.0,289.0,3453.169
3453179.0,238.0,34.0,256.0,284.0,3453.179
3453189.0,233.0,33.0,233.0,284.0,3453.189
3453199.0,234.0,32.0,249.0,288.0,3453.199
3453209.0,238.0,33.0,263.0,311.0,3453.209
3453219.0,244.0,32.0,265.0,312.0,3453.219
3453229.0,244.0,33.0,277.0,307.0,3453.229
3453239.0,235.0,33.0,247.0,290.0,3453.239
3453249.0,235.0,33.0,257.0,276.0,3453.249
3453259.0,233.0,32.0,256.0,272.0,3453.259
3453270.0,237.0,32.0,255.0,277.0,3453.27
3453280.0,238.0,33.0,274.0,289.0,3453.28
3453290.0,228.0,32.0,250.0,280.0,3453.29
3453300.0,231.0,33.0,262.0,284.0,3453.3
3453310.0,239.0,34.0,287.0,311.0,3453.31
3453320.0,237.0,33.0,270.0,309.0,3453.32
3453330.0,238.0,33.0,293.0,305.0,3453.33
3453340.0,229.0,32.0,268.0,295.0,3453.34
3453350.0,233.0,31.0,276.0,300.0,3453.35
3453360.0,235.0,33.0,286.0,297.0,3453.36
3453370.0,236.0,32.0,275.0,295.0,3453.37
3453380.0,236.0,33.0,297.0,286.0,3453.38
3453390.0,228.0,32.0,274.0,276.0,3453.39
3453400.0,232.0,33.0,290.0,278.0,3453.4
3453410.0,234.0,33.0,297.0,280.0,3453.41
3453420.0,236.0,32.0,284.0,287.0,3453.42
3453430.0,237.0,32.0,314.0,284.0,3453.43
3453440.0,231.0,33.0,287.0,282.0,3453.44
3453450.0,234.0,32.0,308.0,281.0,3453.45
3453460.0,237.0,33.0,317.0,287.0,3453.46
3453470.0,236.0,32.0,302.0,284.0,3453.47
3453480.0,235.0,33.0,325.0,282.0,3453.48
3453490.0,227.0,32.0,304.0,272.0,3453.49
3453500.0,229.0,33.0,324.0,271.0,3453.5
3453510.0,234.0,32.0,335.0,280.0,3453.51
3453520.0,233.0,32.0,318.0,279.0,3453.52
3453530.0,235.0,33.0,350.0,276.0,3453.53
3453540.0,227.0,32.0,323.0,265.0,3453.54
3453550.0,229.0,32.0,336.0,266.0,3453.55
3453560.0,237.0,33.0,356.0,274.0,3453.56
3453570.0,235.0,33.0,336.0,269.0,3453.57
3453580.0,236.0,32.0,363.0,269.0,3453.58
3453590.0,227.0,32.0,337.0,261.0,3453.59
3453600.0,235.0,32.0,351.0,269.0,3453.6
3453611.0,240.0,33.0,370.0,271.0,3453.611
3453621.0,235.0,33.0,346.0,265.0,3453.621
3453631.0,235.0,33.0,374.0,265.0,3453.631
3453641.0,227.0,32.0,356.0,259.0,3453.641
3453651.0,237.0,32.0,364.0,273.0,3453.651
3453661.0,241.0,33.0,388.0,271.0,3453.661
3453671.0,235.0,32.0,366.0,260.0,3453.671
3453681.0,234.0,33.0,394.0,260.0,3453.681
3453691.0,229.0,33.0,379.0,258.0,3453.691
3453701.0,233.0,33.0,387.0,259.0,3453.701
3453711.0,239.0,32.0,410.0,263.0,3453.711
3453721.0,233.0,33.0,385.0,261.0,3453.721
3453731.0,235.0,33.0,416.0,259.0,3453.731
3453741.0,226.0,32.0,396.0,254.0,3453.741
3453751.0,234.0,33.0,411.0,263.0,3453.751
3453761.0,240.0,34.0,435.0,270.0,3453.761
3453771.0,235.0,32.0,410.0,271.0,3453.771
3453782.0,235.0,34.0,440.0,273.0,3453.782
3453792.0,235.0,33.0,433.0,269.0,3453.792
3453802.0,241.0,33.0,431.0,277.0,3453.802
3453812.0,241.0,33.0,465.0,272.0,3453.812
3453822.0,231.0,33.0,435.0,265.0,3453.822
3453832.0,235.0,33.0,463.0,268.0,3453.832
3453842.0,234.0,33.0,452.0,280.0,3453.842
3453852.0,240.0,33.0,448.0,280.0,3453.852
3453862.0,240.0,34.0,482.0,273.0,3453.862
3453872.0,232.0,34.0,452.0,266.0,3453.872
3453882.0,233.0,33.0,481.0,266.0,3453.882
3453892.0,233.0,35.0,475.0,266.0,3453.892
3453902.0,237.0,33.0,470.0,266.0,3453.902
3453912.0,238.0,35.0,503.0,265.0,3453.912
3453922.0,230.0,33.0,476.0,259.0,3453.922
3453932.0,232.0,34.0,506.0,266.0,3453.932
3453942.0,235.0,33.0,499.0,273.0,3453.942
3453952.0,238.0,34.0,497.0,280.0,3453.952
3453962.0,240.0,34.0,525.0,277.0,3453.962
3453972.0,232.0,34.0,505.0,267.0,3453.972
3453982.0,234.0,35.0,531.0,269.0,3453.982
3453992.0,235.0,34.0,522.0,270.0,3453.992
3454002.0,237.0,34.0,523.0,270.0,3454.002
3454012.0,237.0,35.0,542.0,266.0,3454.012
3454022.0,228.0,35.0,528.0,256.0,3454.022
3454032.0,232.0,34.0,556.0,258.0,3454.032
3454042.0,230.0,35.0,544.0,259.0,3454.042
3454052.0,237.0,34.0,555.0,265.0,3454.052
3454062.0,236.0,34.0,565.0,265.0,3454.062
3454072.0,228.0,34.0,564.0,259.0,3454.072
3454082.0,232.0,35.0,579.0,262.0,3454.082
3454092.0,232.0,34.0,584.0,263.0,3454.092
3454102.0,236.0,34.0,592.0,268.0,3454.102
3454112.0,237.0,35.0,597.0,263.0,3454.112
3454123.0,227.0,34.0,598.0,257.0,3454.123
3454133.0,230.0,34.0,598.0,262.0,3454.133
3454143.0,236.0,35.0,596.0,268.0,3454.143
3454153.0,232.0,34.0,590.0,264.0,3454.153
3454163.0,232.0,34.0,583.0,263.0,3454.163
3454173.0,225.0,34.0,577.0,258.0,3454.173
3454183.0,230.0,34.0,567.0,265.0,3454.183
3454193.0,237.0,34.0,557.0,272.0,3454.193
3454203.0,232.0,33.0,546.0,265.0,3454.203
3454213.0,234.0,34.0,536.0,264.0,3454.213
3454223.0,226.0,32.0,525.0,255.0,3454.223
3454233.0,231.0,33.0,513.0,263.0,3454.233
3454243.0,238.0,33.0,502.0,270.0,3454.243
3454253.0,234.0,33.0,489.0,270.0,3454.253
3454263.0,234.0,33.0,476.0,265.0,3454.263
3454273.0,224.0,33.0,465.0,256.0,3454.273
3454283.0,230.0,32.0,452.0,262.0,3454.283
3454294.0,236.0,32.0,440.0,265.0,3454.294
3454304.0,230.0,32.0,429.0,259.0,3454.304
3454314.0,231.0,31.0,416.0,259.0,3454.314
3454324.0,224.0,32.0,404.0,256.0,3454.324
3454334.0,231.0,32.0,392.0,263.0,3454.334
3454344.0,232.0,32.0,382.0,264.0,3454.344
3454354.0,226.0,31.0,370.0,257.0,3454.354
3454364.0,227.0,32.0,358.0,257.0,3454.364
3454374.0,225.0,31.0,348.0,255.0,3454.374
3454384.0,228.0,31.0,337.0,261.0,3454.384
3454394.0,233.0,31.0,326.0,263.0,3454.394
3454404.0,224.0,31.0,315.0,255.0,3454.404
3454414.0,226.0,31.0,305.0,254.0,3454.414
3454424.0,219.0,31.0,295.0,249.0,3454.424
3454434.0,228.0,31.0,285.0,258.0,3454.434
3454444.0,232.0,31.0,275.0,259.0,3454.444
3454454.0,224.0,31.0,265.0,252.0,3454.454
3454464.0,227.0,32.0,257.0,256.0,3454.464
3454474.0,221.0,32.0,247.0,252.0,3454.474
3454484.0,229.0,31.0,238.0,261.0,3454.484
3454494.0,233.0,32.0,229.0,266.0,3454.494
3454504.0,225.0,31.0,221.0,256.0,3454.504
3454514.0,227.0,31.0,212.0,258.0,3454.514
3454524.0,222.0,31.0,204.0,253.0,3454.524
3454534.0,229.0,31.0,195.0,261.0,3454.534
3454544.0,232.0,32.0,188.0,261.0,3454.544
3454554.0,226.0,31.0,181.0,256.0,3454.554
3454564.0,228.0,31.0,175.0,252.0,3454.564
3454574.0,223.0,31.0,166.0,249.0,3454.574
3454584.0,231.0,31.0,159.0,257.0,3454.584
3454594.0,233.0,31.0,153.0,258.0,3454.594
3454604.0,225.0,31.0,146.0,251.0,3454.604
3454614.0,226.0,32.0,140.0,252.0,3454.614
3454624.0,223.0,32.0,135.0,249.0,3454.624
3454635.0,230.0,31.0,128.0,257.0,3454.635
3454645.0,230.0,32.0,122.0,254.0,3454.645
3454655.0,222.0,31.0,117.0,250.0,3454.655
3454665.0,225.0,32.0,111.0,254.0,3454.665
3454675.0,229.0,32.0,106.0,260.0,3454.675
3454685.0,230.0,31.0,101.0,262.0,3454.685
3454695.0,231.0,31.0,97.0,259.0,3454.695
3454705.0,221.0,32.0,92.0,253.0,3454.705
3454715.0,225.0,31.0,88.0,260.0,3454.715
3454725.0,226.0,32.0,83.0,262.0,3454.725
3454735.0,229.0,31.0,79.0,263.0,3454.735
3454745.0,229.0,31.0,75.0,261.0,3454.745
3454755.0,220.0,31.0,72.0,252.0,3454.755
3454765.0,225.0,31.0,68.0,256.0,3454.765
3454775.0,226.0,31.0,65.0,259.0,3454.775
3454785.0,230.0,31.0,61.0,260.0,3454.785
3454795.0,229.0,32.0,57.0,257.0,3454.795
3454806.0,220.0,32.0,55.0,250.0,3454.806
3454816.0,224.0,31.0,52.0,255.0,3454.816
3454826.0,231.0,31.0,48.0,260.0,3454.826
3454836.0,226.0,31.0,46.0,256.0,3454.836
3454846.0,228.0,31.0,43.0,255.0,3454.846
3454856.0,220.0,31.0,40.0,249.0,3454.856
3454866.0,227.0,30.0,38.0,259.0,3454.866
3454876.0,232.0,32.0,35.0,263.0,3454.876
3454886.0,227.0,31.0,33.0,259.0,3454.886
3454896.0,229.0,31.0,30.0,258.0,3454.896
3454906.0,221.0,31.0,29.0,251.0,3454.906
3454916.0,227.0,32.0,26.0,263.0,3454.916
3454926.0,234.0,31.0,24.0,265.0,3454.926
3454936.0,229.0,32.0,22.0,260.0,3454.936
3454946.0,229.0,31.0,21.0,257.0,3454.946
3454956.0,221.0,31.0,18.0,249.0,3454.956
3454966.0,229.0,31.0,17.0,256.0,3454.966
3454976.0,231.0,31.0,15.0,259.0,3454.976
3454986.0,228.0,31.0,14.0,256.0,3454.986
3454996.0,229.0,30.0,13.0,252.0,3454.996
3455006.0,222.0,31.0,11.0,248.0,3455.006
3455016.0,233.0,31.0,11.0,261.0,3455.016
3455026.0,233.0,31.0,10.0,260.0,3455.026
3455036.0,230.0,31.0,10.0,255.0,3455.036
3455046.0,228.0,32.0,8.0,255.0,3455.046
3455056.0,221.0,31.0,8.0,248.0,3455.056
3455066.0,228.0,31.0,8.0,258.0,3455.066
3455076.0,233.0,31.0,8.0,265.0,3455.076
3455086.0,229.0,31.0,6.0,259.0,3455.086
3455096.0,227.0,31.0,6.0,257.0,3455.096
3455106.0,222.0,30.0,6.0,254.0,3455.106
3455116.0,228.0,31.0,6.0,262.0,3455.116
3455126.0,232.0,31.0,5.0,265.0,3455.126
3455136.0,228.0,31.0,6.0,261.0,3455.136
3455147.0,228.0,31.0,6.0,259.0,3455.147
3455157.0,222.0,31.0,4.0,256.0,3455.157
3455167.0,232.0,31.0,5.0,265.0,3455.167
3455177.0,232.0,32.0,5.0,260.0,3455.177
3455187.0,225.0,30.0,4.0,251.0,3455.187
3455197.0,228.0,31.0,5.0,256.0,3455.197
3455207.0,225.0,31.0,5.0,255.0,3455.207
3455217.0,232.0,31.0,4.0,262.0,3455.217
3455227.0,232.0,31.0,4.0,260.0,3455.227
3455237.0,227.0,31.0,4.0,257.0,3455.237
3455247.0,228.0,31.0,4.0,258.0,3455.247
3455257.0,225.0,31.0,4.0,257.0,3455.257
3455267.0,232.0,31.0,5.0,259.0,3455.267
3455277.0,233.0,32.0,4.0,262.0,3455.277
3455287.0,226.0,31.0,4.0,255.0,3455.287
3455297.0,227.0,32.0,4.0,256.0,3455.297
3455307.0,227.0,32.0,4.0,258.0,3455.307
3455318.0,231.0,31.0,4.0,257.0,3455.318
3455328.0,230.0,32.0,5.0,255.0,3455.328
3455338.0,223.0,31.0,4.0,247.0,3455.338
3455348.0,226.0,32.0,4.0,251.0,3455.348
3455358.0,231.0,32.0,4.0,260.0,3455.358
3455368.0,231.0,33.0,3.0,261.0,3455.368
3455378.0,229.0,32.0,4.0,256.0,3455.378
3455388.0,221.0,31.0,4.0,248.0,3455.388
3455398.0,226.0,32.0,4.0,257.0,3455.398
3455408.0,229.0,31.0,4.0,261.0,3455.408
3455418.0,231.0,32.0,4.0,261.0,3455.418
3455428.0,229.0,33.0,3.0,259.0,3455.428
3455438.0,221.0,32.0,4.0,250.0,3455.438
3455448.0,226.0,32.0,3.0,257.0,3455.448
3455458.0,230.0,32.0,4.0,264.0,3455.458
3455468.0,231.0,31.0,4.0,263.0,3455.468
3455478.0,228.0,32.0,4.0,256.0,3455.478
3455488.0,223.0,31.0,5.0,250.0,3455.488
3455498.0,225.0,33.0,3.0,254.0,3455.498
3455508.0,230.0,32.0,4.0,260.0,3455.508
3455518.0,229.0,32.0,4.0,260.0,3455.518
3455528.0,230.0,32.0,4.0,257.0,3455.528
3455538.0,222.0,32.0,2.0,250.0,3455.538
3455548.0,224.0,32.0,3.0,251.0,3455.548
3455558.0,230.0,33.0,4.0,259.0,3455.558
3455568.0,228.0,32.0,3.0,256.0,3455.568
3455578.0,229.0,33.0,3.0,255.0,3455.578
3455588.0,220.0,32.0,5.0,248.0,3455.588
3455598.0,224.0,31.0,4.0,252.0,3455.598
3455608.0,230.0,32.0,4.0,257.0,3455.608
3455618.0,228.0,32.0,4.0,256.0,3455.618
3455628.0,227.0,33.0,3.0,253.0,3455.628
3455638.0,220.0,31.0,4.0,248.0,3455.638
3455648.0,225.0,32.0,4.0,256.0,3455.648
3455659.0,232.0,32.0,4.0,262.0,3455.659
3455669.0,228.0,32.0,4.0,259.0,3455.669
3455679.0,228.0,32.0,4.0,259.0,3455.679
3455689.0,221.0,33.0,3.0,253.0,3455.689
3455699.0,229.0,32.0,3.0,263.0,3455.699
3455709.0,233.0,32.0,4.0,264.0,3455.709
3455719.0,228.0,32.0,5.0,259.0,3455.719
3455729.0,227.0,32.0,4.0,260.0,3455.729
3455739.0,222.0,32.0,4.0,257.0,3455.739
3455749.0,227.0,33.0,4.0,263.0,3455.749
3455759.0,233.0,32.0,3.0,265.0,3455.759
3455769.0,226.0,32.0,4.0,259.0,3455.769
3455779.0,228.0,32.0,4.0,256.0,3455.779
3455789.0,221.0,31.0,4.0,247.0,3455.789
3455799.0,228.0,33.0,3.0,260.0,3455.799
3455809.0,233.0,32.0,4.0,261.0,3455.809
3455819.0,226.0,33.0,3.0,257.0,3455.819
3455830.0,228.0,32.0,4.0,258.0,3455.83
3455840.0,224.0,33.0,4.0,256.0,3455.84
3455850.0,232.0,31.0,4.0,261.0,3455.85
3455860.0,231.0,33.0,4.0,256.0,3455.86
3455870.0,223.0,32.0,4.0,247.0,3455.87
3455880.0,227.0,33.0,3.0,253.0,3455.88
3455890.0,225.0,32.0,4.0,254.0,3455.89
3455900.0,229.0,32.0,4.0,260.0,3455.9
3455910.0,231.0,33.0,4.0,256.0,3455.91
3455920.0,224.0,32.0,4.0,253.0,3455.92
3455930.0,227.0,33.0,4.0,252.0,3455.93
3455940.0,227.0,33.0,4.0,256.0,3455.94
3455950.0,231.0,32.0,3.0,258.0,3455.95
3455960.0,232.0,32.0,4.0,256.0,3455.96
3455970.0,223.0,32.0,4.0,247.0,3455.97
3455980.0,225.0,32.0,4.0,246.0,3455.98
3455990.0,226.0,33.0,4.0,250.0,3455.99
3456000.0,229.0,33.0,4.0,256.0,3456.0
3456010.0,231.0,33.0,3.0,255.0,3456.01
3456020.0,221.0,32.0,4.0,245.0,3456.02
3456030.0,224.0,33.0,4.0,250.0,3456.03
3456040.0,229.0,33.0,4.0,255.0,3456.04
3456050.0,230.0,32.0,4.0,257.0,3456.05
3456060.0,231.0,33.0,4.0,256.0,3456.06
3456070.0,222.0,33.0,3.0,251.0,3456.07
3456080.0,225.0,32.0,4.0,253.0,3456.08
3456090.0,225.0,33.0,4.0,255.0,3456.09
3456100.0,230.0,33.0,4.0,258.0,3456.1
3456110.0,231.0,33.0,4.0,255.0,3456.11
3456120.0,221.0,33.0,4.0,250.0,3456.12
3456130.0,225.0,33.0,4.0,254.0,3456.13
3456140.0,225.0,33.0,3.0,257.0,3456.14
3456150.0,229.0,32.0,4.0,256.0,3456.15
3456160.0,229.0,33.0,4.0,255.0,3456.16
3456171.0,222.0,33.0,4.0,247.0,3456.171
3456181.0,224.0,33.0,4.0,253.0,3456.181
3456191.0,230.0,33.0,4.0,260.0,3456.191
3456201.0,226.0,33.0,3.0,256.0,3456.201
3456211.0,226.0,32.0,4.0,256.0,3456.211
3456221.0,219.0,33.0,3.0,251.0,3456.221
3456231.0,224.0,33.0,4.0,253.0,3456.231
3456241.0,230.0,33.0,4.0,260.0,3456.241
3456251.0,226.0,32.0,4.0,255.0,3456.251
3456261.0,228.0,33.0,4.0,256.0,3456.261
3456271.0,221.0,32.0,4.0,250.0,3456.271
3456281.0,227.0,32.0,4.0,259.0,3456.281
3456291.0,233.0,33.0,4.0,264.0,3456.291
3456301.0,229.0,32.0,4.0,261.0,3456.301
3456311.0,228.0,33.0,3.0,261.0,3456.311
3456321.0,220.0,32.0,4.0,250.0,3456.321
3456331.0,226.0,33.0,3.0,261.0,3456.331
3456342.0,232.0,32.0,3.0,263.0,3456.342
3456352.0,227.0,33.0,4.0,257.0,3456.352
3456362.0,228.0,33.0,4.0,259.0,3456.362
3456372.0,223.0,33.0,2.0,255.0,3456.372
3456382.0,231.0,32.0,4.0,261.0,3456.382
3456392.0,232.0,33.0,4.0,259.0,3456.392
3456402.0,226.0,32.0,4.0,250.0,3456.402
3456412.0,227.0,33.0,3.0,253.0,3456.412
3456422.0,225.0,32.0,5.0,253.0,3456.422
3456432.0,229.0,32.0,4.0,259.0,3456.432
3456442.0,232.0,32.0,4.0,261.0,3456.442
3456452.0,226.0,32.0,4.0,253.0,3456.452
3456462.0,227.0,32.0,3.0,254.0,3456.462
3456472.0,220.0,32.0,4.0,248.0,3456.472
3456482.0,229.0,32.0,3.0,258.0,3456.482
3456492.0,234.0,31.0,4.0,262.0,3456.492
3456502.0,225.0,32.0,3.0,252.0,3456.502
3456512.0,228.0,31.0,4.0,255.0,3456.512
3456522.0,220.0,33.0,3.0,250.0,3456.522
3456532.0,230.0,31.0,3.0,258.0,3456.532
3456542.0,232.0,32.0,4.0,259.0,3456.542
3456552.0,225.0,31.0,5.0,251.0,3456.552
3456562.0,227.0,32.0,3.0,255.0,3456.562
3456572.0,222.0,31.0,4.0,251.0,3456.572
3456582.0,230.0,32.0,4.0,260.0,3456.582
3456592.0,232.0,32.0,3.0,258.0,3456.592
3456602.0,227.0,32.0,4.0,252.0,3456.602
3456612.0,228.0,31.0,4.0,254.0,3456.612
3456622.0,225.0,31.0,4.0,253.0,3456.622
3456632.0,230.0,32.0,4.0,260.0,3456.632
3456642.0,233.0,31.0,4.0,260.0,3456.642
3456652.0,226.0,31.0,3.0,254.0,3456.652
3456662.0,226.0,31.0,3.0,254.0,3456.662
3456672.0,225.0,31.0,3.0,255.0,3456.672
3456683.0,233.0,31.0,5.0,261.0,3456.683
3456693.0,230.0,32.0,2.0,258.0,3456.693
3456703.0,222.0,31.0,4.0,249.0,3456.703
3456713.0,225.0,32.0,3.0,254.0,3456.713
3456723.0,230.0,30.0,4.0,260.0,3456.723
3456733.0,231.0,32.0,3.0,262.0,3456.733
3456743.0,231.0,32.0,5.0,258.0,3456.743
3456753.0,221.0,31.0,4.0,249.0,3456.753
3456763.0,225.0,31.0,4.0,254.0,3456.763
3456773.0,227.0,31.0,4.0,258.0,3456.773
3456783.0,230.0,32.0,3.0,260.0,3456.783
3456793.0,229.0,31.0,4.0,256.0,3456.793
3456803.0,221.0,31.0,4.0,249.0,3456.803
3456813.0,225.0,32.0,4.0,252.0,3456.813
3456823.0,226.0,32.0,2.0,255.0,3456.823
3456833.0,229.0,31.0,4.0,256.0,3456.833
3456843.0,228.0,32.0,3.0,254.0,3456.843
3456854.0,220.0,31.0,4.0,244.0,3456.854
3456864.0,224.0,31.0,4.0,251.0,3456.864
3456874.0,232.0,31.0,5.0,256.0,3456.874
3456884.0,226.0,31.0,4.0,252.0,3456.884
3456894.0,227.0,31.0,4.0,250.0,3456.894
3456904.0,219.0,31.0,4.0,243.0,3456.904
3456914.0,225.0,32.0,4.0,253.0,3456.914
3456924.0,231.0,32.0,3.0,257.0,3456.924
3456934.0,226.0,32.0,5.0,253.0,3456.934
3456944.0,228.0,31.0,4.0,255.0,3456.944
3456954.0,219.0,31.0,4.0,245.0,3456.954
3456964.0,226.0,32.0,4.0,256.0,3456.964
3456974.0,232.0,32.0,3.0,258.0,3456.974
3456984.0,228.0,31.0,3.0,255.0,3456.984
3456994.0,227.0,32.0,4.0,253.0,3456.994
3457004.0,220.0,31.0,4.0,245.0,3457.004
3457014.0,228.0,31.0,4.0,256.0,3457.014
3457024.0,232.0,31.0,4.0,258.0,3457.024
3457034.0,227.0,32.0,3.0,255.0,3457.034
3457044.0,227.0,31.0,4.0,252.0,3457.044
3457054.0,219.0,31.0,3.0,245.0,3457.054
3457064.0,229.0,31.0,3.0,256.0,3457.064
3457074.0,231.0,31.0,4.0,259.0,3457.074
3457084.0,226.0,31.0,4.0,253.0,3457.084
3457094.0,226.0,32.0,3.0,254.0,3457.094
3457104.0,219.0,31.0,3.0,248.0,3457.104
3457114.0,225.0,31.0,4.0,257.0,3457.114
3457124.0,231.0,31.0,4.0,260.0,3457.124
3457134.0,226.0,30.0,4.0,254.0,3457.134
3457144.0,226.0,31.0,4.0,254.0,3457.144
3457154.0,220.0,31.0,4.0,245.0,3457.154
3457164.0,226.0,31.0,3.0,256.0,3457.164
3457174.0,233.0,30.0,3.0,259.0,3457.174
3457184.0,227.0,31.0,3.0,252.0,3457.184
3457195.0,228.0,31.0,4.0,251.0,3457.195
3457205.0,222.0,31.0,4.0,249.0,3457.205
3457215.0,230.0,29.0,4.0,256.0,3457.215
3457225.0,231.0,32.0,4.0,255.0,3457.225
3457235.0,222.0,30.0,4.0,247.0,3457.235
3457245.0,226.0,32.0,3.0,253.0,3457.245
3457255.0,224.0,31.0,4.0,252.0,3457.255
3457265.0,230.0,31.0,4.0,260.0,3457.265
3457275.0,230.0,31.0,4.0,257.0,3457.275
3457285.0,224.0,31.0,4.0,251.0,3457.285
3457295.0,225.0,31.0,3.0,252.0,3457.295
3457305.0,225.0,30.0,4.0,252.0,3457.305
3457315.0,229.0,31.0,4.0,256.0,3457.315
3457325.0,231.0,30.0,4.0,255.0,3457.325
3457335.0,222.0,31.0,4.0,248.0,3457.335
3457345.0,224.0,31.0,4.0,249.0,3457.345
3457355.0,224.0,32.0,3.0,252.0,3457.355
3457366.0,227.0,30.0,4.0,253.0,3457.366
3457376.0,228.0,31.0,4.0,250.0,3457.376
3457386.0,220.0,31.0,5.0,243.0,3457.386
3457396.0,222.0,31.0,4.0,246.0,3457.396
3457406.0,229.0,31.0,4.0,252.0,3457.406
3457416.0,226.0,31.0,3.0,252.0,3457.416
3457426.0,226.0,32.0,4.0,249.0,3457.426
3457436.0,217.0,31.0,4.0,240.0,3457.436
3457446.0,222.0,31.0,4.0,250.0,3457.446
3457456.0,226.0,31.0,4.0,252.0,3457.456
3457466.0,226.0,31.0,4.0,253.0,3457.466
3457476.0,226.0,31.0,4.0,251.0,3457.476
3457486.0,218.0,32.0,3.0,244.0,3457.486
3457496.0,223.0,31.0,4.0,251.0,3457.496
3457506.0,227.0,32.0,4.0,256.0,3457.506
3457516.0,227.0,31.0,4.0,254.0,3457.516
3457526.0,226.0,31.0,4.0,251.0,3457.526
3457536.0,219.0,32.0,4.0,245.0,3457.536
3457546.0,222.0,33.0,3.0,251.0,3457.546
3457556.0,229.0,32.0,4.0,256.0,3457.556
3457566.0,226.0,32.0,3.0,254.0,3457.566
3457576.0,226.0,32.0,5.0,251.0,3457.576
3457586.0,220.0,32.0,3.0,245.0,3457.586
3457596.0,223.0,32.0,3.0,252.0,3457.596
3457606.0,229.0,32.0,4.0,257.0,3457.606
3457616.0,224.0,33.0,3.0,249.0,3457.616
3457626.0,227.0,32.0,4.0,251.0,3457.626
3457636.0,217.0,32.0,4.0,242.0,3457.636
3457646.0,224.0,31.0,3.0,249.0,3457.646
3457656.0,230.0,32.0,4.0,256.0,3457.656
3457666.0,228.0,31.0,5.0,253.0,3457.666
3457676.0,226.0,34.0,3.0,251.0,3457.676
3457686.0,218.0,32.0,4.0,240.0,3457.686
3457696.0,223.0,32.0,4.0,250.0,3457.696
3457707.0,231.0,32.0,5.0,256.0,3457.707
3457717.0,224.0,32.0,4.0,253.0,3457.717
3457727.0,225.0,33.0,3.0,252.0,3457.727
3457737.0,219.0,33.0,4.0,249.0,3457.737
3457747.0,227.0,32.0,3.0,260.0,3457.747
3457757.0,231.0,33.0,3.0,261.0,3457.757
3457767.0,225.0,32.0,4.0,252.0,3457.767
3457777.0,226.0,33.0,4.0,251.0,3457.777
3457787.0,220.0,33.0,4.0,248.0,3457.787
3457797.0,227.0,33.0,4.0,254.0,3457.797
3457807.0,231.0,33.0,3.0,258.0,3457.807
3457817.0,225.0,32.0,4.0,251.0,3457.817
3457827.0,225.0,33.0,4.0,253.0,3457.827
3457837.0,218.0,32.0,4.0,244.0,3457.837
3457847.0,226.0,33.0,4.0,256.0,3457.847
3457857.0,231.0,33.0,4.0,259.0,3457.857
3457867.0,223.0,33.0,3.0,253.0,3457.867
3457878.0,225.0,32.0,4.0,253.0,3457.878
3457888.0,224.0,33.0,4.0,252.0,3457.888
3457898.0,229.0,33.0,4.0,258.0,3457.898
3457908.0,230.0,33.0,4.0,255.0,3457.908
3457918.0,220.0,32.0,3.0,247.0,3457.918
3457928.0,225.0,33.0,4.0,252.0,3457.928
3457938.0,225.0,33.0,3.0,254.0,3457.938
3457948.0,229.0,32.0,4.0,259.0,3457.948
3457958.0,229.0,33.0,4.0,257.0,3457.958
3457968.0,223.0,32.0,4.0,250.0,3457.968
3457978.0,224.0,33.0,4.0,251.0,3457.978
3457988.0,226.0,33.0,3.0,256.0,3457.988
3457998.0,228.0,33.0,3.0,259.0,3457.998
3458008.0,231.0,32.0,4.0,257.0,3458.008
3458018.0,221.0,33.0,3.0,250.0,3458.018
3458028.0,225.0,33.0,5.0,251.0,3458.028
3458038.0,228.0,33.0,4.0,258.0,3458.038
3458048.0,229.0,32.0,4.0,259.0,3458.048
3458058.0,231.0,33.0,4.0,257.0,3458.058
3458068.0,221.0,32.0,3.0,248.0,3458.068
3458078.0,224.0,32.0,4.0,252.0,3458.078
3458088.0,229.0,33.0,4.0,258.0,3458.088
3458098.0,229.0,32.0,4.0,259.0,3458.098
3458108.0,230.0,33.0,4.0,257.0,3458.108
3458118.0,221.0,33.0,4.0,251.0,3458.118
3458128.0,225.0,33.0,3.0,254.0,3458.128
3458138.0,224.0,33.0,4.0,257.0,3458.138
3458148.0,229.0,33.0,4.0,261.0,3458.148
3458158.0,231.0,33.0,4.0,259.0,3458.158
3458168.0,220.0,33.0,4.0,251.0,3458.168
3458178.0,227.0,33.0,5.0,255.0,3458.178
3458188.0,226.0,34.0,3.0,260.0,3458.188
3458198.0,230.0,32.0,4.0,262.0,3458.198
3458208.0,229.0,33.0,3.0,259.0,3458.208
3458219.0,221.0,33.0,5.0,250.0,3458.219
3458229.0,224.0,33.0,4.0,254.0,3458.229
3458239.0,231.0,34.0,3.0,260.0,3458.239
3458249.0,227.0,33.0,3.0,256.0,3458.249
3458259.0,227.0,32.0,3.0,253.0,3458.259
3458269.0,221.0,33.0,3.0,247.0,3458.269
3458279.0,226.0,33.0,4.0,256.0,3458.279
3458289.0,233.0,33.0,4.0,263.0,3458.289
3458299.0,227.0,33.0,2.0,258.0,3458.299
3458309.0,231.0,33.0,4.0,258.0,3458.309
3458319.0,221.0,34.0,3.0,251.0,3458.319
3458329.0,227.0,32.0,4.0,260.0,3458.329
3458339.0,233.0,33.0,3.0,264.0,3458.339
3458349.0,229.0,32.0,3.0,261.0,3458.349
3458359.0,228.0,33.0,4.0,256.0,3458.359
3458369.0,220.0,32.0,4.0,247.0,3458.369
3458379.0,227.0,33.0,3.0,259.0,3458.379
3458390.0,233.0,32.0,4.0,262.0,3458.39
3458400.0,226.0,33.0,4.0,255.0,3458.4
3458410.0,228.0,33.0,4.0,255.0,3458.41
3458420.0,224.0,33.0,3.0,252.0,3458.42
3458430.0,230.0,33.0,4.0,260.0,3458.43
3458440.0,234.0,34.0,4.0,261.0,3458.44
3458450.0,226.0,33.0,3.0,254.0,3458.45
3458460.0,227.0,32.0,4.0,255.0,3458.46
3458470.0,224.0,33.0,3.0,256.0,3458.47
3458480.0,229.0,33.0,4.0,261.0,3458.48
3458490.0,232.0,33.0,4.0,262.0,3458.49
3458500.0,225.0,32.0,4.0,256.0,3458.5
3458510.0,227.0,34.0,3.0,259.0,3458.51
3458520.0,220.0,33.0,4.0,252.0,3458.52
3458530.0,229.0,33.0,3.0,263.0,3458.53
3458540.0,234.0,33.0,5.0,262.0,3458.54
3458550.0,224.0,33.0,3.0,253.0,3458.55
3458560.0,227.0,33.0,4.0,255.0,3458.56
3458570.0,222.0,33.0,3.0,252.0,3458.57
3458580.0,229.0,33.0,3.0,259.0,3458.58
3458590.0,231.0,34.0,3.0,259.0,3458.59
3458600.0,223.0,33.0,4.0,250.0,3458.6
3458610.0,226.0,33.0,4.0,252.0,3458.61
3458620.0,221.0,33.0,4.0,250.0,3458.62
3458630.0,229.0,32.0,4.0,258.0,3458.63
3458640.0,231.0,34.0,3.0,256.0,3458.64
3458650.0,224.0,33.0,4.0,252.0,3458.65
3458660.0,225.0,33.0,3.0,254.0,3458.66
3458670.0,224.0,33.0,4.0,253.0,3458.67
3458680.0,228.0,33.0,4.0,257.0,3458.68
3458690.0,233.0,34.0,4.0,257.0,3458.69
3458700.0,224.0,33.0,3.0,251.0,3458.7
3458710.0,226.0,33.0,4.0,252.0,3458.71
3458720.0,224.0,32.0,4.0,252.0,3458.72
3458731.0,229.0,33.0,4.0,253.0,3458.731
3458741.0,231.0,33.0,3.0,246.0,3458.741
3458751.0,184.0,35.0,3.0,239.0,3458.751
3458761.0,93.0,35.0,4.0,241.0,3458.761
3458771.0,2.0,36.0,3.0,240.0,3458.771
3458781.0,0.0,37.0,3.0,237.0,3458.781
3458791.0,0.0,36.0,4.0,231.0,3458.791
3458801.0,1.0,37.0,4.0,223.0,3458.801
3458811.0,0.0,37.0,4.0,222.0,3458.811
3458821.0,0.0,37.0,4.0,223.0,3458.821
3458831.0,0.0,38.0,3.0,226.0,3458.831
3458841.0,0.0,36.0,3.0,220.0,3458.841
3458851.0,0.0,36.0,4.0,212.0,3458.851
3458861.0,1.0,35.0,4.0,216.0,3458.861
3458871.0,0.0,36.0,2.0,220.0,3458.871
3458881.0,0.0,35.0,4.0,219.0,3458.881
3458891.0,0.0,36.0,3.0,213.0,3458.891
3458902.0,0.0,35.0,4.0,205.0,3458.902
3458912.0,0.0,34.0,3.0,212.0,3458.912
3458922.0,0.0,34.0,5.0,216.0,3458.922
3458932.0,0.0,34.0,3.0,213.0,3458.932
3458942.0,0.0,34.0,3.0,212.0,3458.942
3458952.0,0.0,33.0,3.0,206.0,3458.952
3458962.0,0.0,33.0,3.0,214.0,3458.962
3458972.0,0.0,32.0,3.0,216.0,3458.972
3458982.0,0.0,32.0,4.0,211.0,3458.982
3458992.0,1.0,31.0,3.0,213.0,3458.992
3459002.0,0.0,31.0,3.0,209.0,3459.002
3459012.0,0.0,31.0,3.0,219.0,3459.012
3459022.0,0.0,31.0,3.0,221.0,3459.022
3459032.0,0.0,29.0,3.0,219.0,3459.032
3459042.0,0.0,30.0,3.0,215.0,3459.042
3459052.0,1.0,30.0,4.0,210.0,3459.052
3459062.0,0.0,30.0,3.0,220.0,3459.062
3459072.0,0.0,29.0,5.0,221.0,3459.072
3459082.0,0.0,30.0,3.0,218.0,3459.082
3459092.0,0.0,28.0,4.0,214.0,3459.092
3459102.0,0.0,29.0,4.0,210.0,3459.102
3459112.0,0.0,28.0,5.0,220.0,3459.112
3459122.0,0.0,28.0,3.0,221.0,3459.122
3459132.0,0.0,28.0,3.0,216.0,3459.132
3459142.0,0.0,28.0,4.0,216.0,3459.142
3459152.0,0.0,28.0,3.0,213.0,3459.152
3459162.0,0.0,28.0,3.0,219.0,3459.162
3459172.0,0.0,28.0,4.0,221.0,3459.172
3459182.0,0.0,27.0,4.0,216.0,3459.182
3459192.0,0.0,27.0,3.0,216.0,3459.192
3459202.0,0.0,27.0,4.0,209.0,3459.202
3459212.0,0.0,28.0,3.0,220.0,3459.212
3459222.0,0.0,26.0,4.0,222.0,3459.222
3459232.0,0.0,27.0,3.0,217.0,3459.232
3459243.0,1.0,27.0,4.0,216.0,3459.243
3459253.0,0.0,27.0,2.0,217.0,3459.253
3459263.0,0.0,27.0,3.0,222.0,3459.263
3459273.0,0.0,29.0,3.0,219.0,3459.273
3459283.0,0.0,26.0,3.0,212.0,3459.283
3459293.0,0.0,27.0,3.0,214.0,3459.293
3459303.0,0.0,27.0,5.0,215.0,3459.303
3459313.0,0.0,28.0,2.0,221.0,3459.313
3459323.0,0.0,27.0,3.0,217.0,3459.323
3459333.0,0.0,27.0,2.0,213.0,3459.333
3459343.0,665.0,37.0,10.0,222.0,3459.343
3459353.0,665.0,42.0,9.0,229.0,3459.353
3459363.0,665.0,43.0,9.0,234.0,3459.363
3459373.0,665.0,46.0,7.0,238.0,3459.373
3459383.0,665.0,48.0,6.0,230.0,3459.383
3459393.0,665.0,47.0,7.0,239.0,3459.393
3459403.0,665.0,49.0,5.0,244.0,3459.403
3459414.0,665.0,48.0,6.0,245.0,3459.414
3459424.0,664.0,49.0,5.0,245.0,3459.424
3459434.0,666.0,49.0,5.0,236.0,3459.434
3459444.0,665.0,49.0,4.0,245.0,3459.444
3459454.0,665.0,48.0,4.0,250.0,3459.454
3459464.0,665.0,47.0,4.0,247.0,3459.464
3459474.0,665.0,46.0,4.0,246.0,3459.474
3459484.0,665.0,46.0,4.0,236.0,3459.484
3459494.0,666.0,46.0,4.0,247.0,3459.494
3459504.0,665.0,45.0,4.0,250.0,3459.504
3459514.0,664.0,45.0,4.0,249.0,3459.514
3459524.0,665.0,44.0,4.0,249.0,3459.524
3459534.0,665.0,44.0,4.0,238.0,3459.534
3459544.0,665.0,44.0,3.0,247.0,3459.544
3459554.0,665.0,43.0,4.0,254.0,3459.554
3459564.0,665.0,42.0,3.0,251.0,3459.564
3459574.0,665.0,41.0,4.0,250.0,3459.574
3459584.0,666.0,41.0,4.0,243.0,3459.584
3459594.0,665.0,41.0,3.0,248.0,3459.594
3459604.0,665.0,40.0,3.0,254.0,3459.604
3459614.0,665.0,40.0,3.0,251.0,3459.614
3459624.0,666.0,39.0,4.0,251.0,3459.624
3459634.0,665.0,39.0,3.0,244.0,3459.634
3459644.0,665.0,38.0,3.0,249.0,3459.644
3459654.0,665.0,39.0,3.0,256.0,3459.654
3459664.0,665.0,37.0,3.0,251.0,3459.664
3459674.0,665.0,38.0,3.0,253.0,3459.674
3459684.0,666.0,37.0,4.0,243.0,3459.684
3459694.0,665.0,37.0,3.0,252.0,3459.694
3459704.0,665.0,37.0,3.0,259.0,3459.704
3459714.0,665.0,36.0,4.0,254.0,3459.714
3459724.0,665.0,37.0,3.0,252.0,3459.724
3459734.0,665.0,34.0,3.0,243.0,3459.734
3459744.0,665.0,36.0,3.0,252.0,3459.744
3459755.0,666.0,35.0,4.0,255.0,3459.755
3459765.0,665.0,36.0,2.0,250.0,3459.765
3459775.0,665.0,36.0,3.0,251.0,3459.775
3459785.0,665.0,36.0,3.0,249.0,3459.785
3459795.0,665.0,34.0,3.0,256.0,3459.795
3459805.0,665.0,35.0,3.0,256.0,3459.805
3459815.0,665.0,35.0,4.0,250.0,3459.815
3459825.0,665.0,35.0,2.0,250.0,3459.825
3459835.0,665.0,35.0,3.0,247.0,3459.835
3459845.0,665.0,35.0,3.0,253.0,3459.845
3459855.0,665.0,35.0,3.0,254.0,3459.855
3459865.0,665.0,34.0,3.0,248.0,3459.865
3459875.0,665.0,34.0,4.0,248.0,3459.875
3459885.0,665.0,34.0,3.0,242.0,3459.885
3459895.0,665.0,34.0,4.0,253.0,3459.895
3459905.0,665.0,33.0,4.0,254.0,3459.905
3459915.0,665.0,35.0,3.0,249.0,3459.915
3459926.0,665.0,34.0,3.0,250.0,3459.926
3459936.0,666.0,34.0,3.0,252.0,3459.936
3459946.0,665.0,34.0,4.0,254.0,3459.946
3459956.0,665.0,34.0,2.0,250.0,3459.956
3459966.0,665.0,34.0,3.0,242.0,3459.966
3459976.0,665.0,34.0,2.0,246.0,3459.976
3459986.0,665.0,34.0,4.0,249.0,3459.986
3459996.0,665.0,34.0,4.0,251.0,3459.996
3460006.0,665.0,35.0,4.0,248.0,3460.006
3460016.0,664.0,34.0,3.0,243.0,3460.016
3460026.0,665.0,33.0,3.0,242.0,3460.026
3460036.0,665.0,35.0,3.0,247.0,3460.036
3460046.0,665.0,34.0,3.0,248.0,3460.046
3460056.0,665.0,34.0,3.0,248.0,3460.056
3460066.0,665.0,34.0,3.0,240.0,3460.066
3460076.0,665.0,34.0,4.0,242.0,3460.076
3460086.0,665.0,35.0,2.0,249.0,3460.086
3460096.0,666.0,34.0,4.0,251.0,3460.096
3460106.0,665.0,35.0,3.0,247.0,3460.106
3460116.0,665.0,34.0,3.0,238.0,3460.116
3460126.0,665.0,34.0,3.0,241.0,3460.126
