time (ms),signal 0,signal 1,signal 2,signal 3,time (sec)
3394851.0,216.0,32.0,3.0,240.0,3394.851
3394861.0,212.0,31.0,4.0,238.0,3394.861
3394871.0,213.0,32.0,3.0,238.0,3394.871
3394881.0,211.0,32.0,3.0,240.0,3394.881
3394891.0,217.0,31.0,4.0,245.0,3394.891
3394902.0,218.0,32.0,4.0,241.0,3394.902
3394912.0,209.0,31.0,4.0,233.0,3394.912
3394922.0,212.0,32.0,3.0,237.0,3394.922
3394932.0,218.0,32.0,3.0,245.0,3394.932
3394942.0,215.0,32.0,3.0,244.0,3394.942
3394952.0,218.0,32.0,4.0,243.0,3394.952
3394962.0,209.0,30.0,4.0,235.0,3394.962
3394972.0,214.0,31.0,4.0,240.0,3394.972
3394982.0,218.0,32.0,2.0,247.0,3394.982
3394992.0,219.0,31.0,5.0,246.0,3394.992
3395002.0,217.0,32.0,3.0,243.0,3395.002
3395012.0,208.0,31.0,4.0,236.0,3395.012
3395022.0,213.0,31.0,4.0,242.0,3395.022
3395032.0,216.0,30.0,3.0,244.0,3395.032
3395042.0,217.0,30.0,4.0,246.0,3395.042
3395052.0,217.0,31.0,4.0,242.0,3395.052
3395062.0,209.0,31.0,3.0,237.0,3395.062
3395072.0,213.0,31.0,3.0,240.0,3395.072
3395082.0,217.0,30.0,4.0,246.0,3395.082
3395092.0,217.0,30.0,4.0,247.0,3395.092
3395102.0,218.0,31.0,4.0,243.0,3395.102
3395112.0,208.0,31.0,2.0,236.0,3395.112
3395122.0,214.0,31.0,4.0,239.0,3395.122
3395132.0,219.0,32.0,3.0,247.0,3395.132
3395142.0,218.0,30.0,4.0,246.0,3395.142
3395152.0,217.0,31.0,3.0,243.0,3395.152
3395162.0,211.0,30.0,4.0,238.0,3395.162
3395172.0,214.0,30.0,4.0,242.0,3395.172
3395182.0,220.0,31.0,4.0,248.0,3395.182
3395192.0,218.0,31.0,3.0,247.0,3395.192
3395202.0,220.0,30.0,4.0,246.0,3395.202
3395212.0,211.0,30.0,4.0,238.0,3395.212
3395222.0,215.0,31.0,4.0,244.0,3395.222
3395232.0,221.0,31.0,4.0,251.0,3395.232
3395243.0,217.0,31.0,4.0,246.0,3395.243
3395253.0,217.0,31.0,4.0,246.0,3395.253
3395263.0,210.0,31.0,3.0,239.0,3395.263
3395273.0,218.0,30.0,4.0,250.0,3395.273
3395283.0,221.0,32.0,4.0,251.0,3395.283
3395293.0,216.0,31.0,4.0,246.0,3395.293
3395303.0,217.0,31.0,4.0,244.0,3395.303
3395313.0,211.0,31.0,3.0,239.0,3395.313
3395323.0,219.0,33.0,3.0,250.0,3395.323
3395333.0,222.0,32.0,4.0,249.0,3395.333
3395343.0,216.0,31.0,4.0,243.0,3395.343
3395353.0,217.0,31.0,5.0,243.0,3395.353
3395363.0,210.0,31.0,4.0,240.0,3395.363
3395373.0,217.0,32.0,5.0,245.0,3395.373
3395383.0,222.0,33.0,3.0,249.0,3395.383
3395393.0,216.0,32.0,3.0,242.0,3395.393
3395403.0,216.0,32.0,4.0,241.0,3395.403
3395414.0,213.0,32.0,4.0,240.0,3395.414
3395424.0,221.0,31.0,4.0,246.0,3395.424
3395434.0,222.0,32.0,4.0,243.0,3395.434
3395444.0,213.0,32.0,3.0,238.0,3395.444
3395454.0,215.0,32.0,4.0,240.0,3395.454
3395464.0,214.0,32.0,3.0,241.0,3395.464
3395474.0,220.0,32.0,4.0,247.0,3395.474
3395484.0,222.0,33.0,4.0,245.0,3395.484
3395494.0,212.0,32.0,4.0,238.0,3395.494
3395504.0,216.0,32.0,4.0,242.0,3395.504
3395514.0,214.0,33.0,3.0,244.0,3395.514
3395524.0,219.0,32.0,4.0,248.0,3395.524
3395534.0,220.0,32.0,4.0,245.0,3395.534
3395544.0,213.0,32.0,4.0,240.0,3395.544
3395554.0,215.0,32.0,4.0,242.0,3395.554
3395564.0,215.0,32.0,3.0,244.0,3395.564
3395574.0,218.0,33.0,3.0,249.0,3395.574
3395584.0,222.0,33.0,3.0,248.0,3395.584
3395594.0,213.0,32.0,4.0,241.0,3395.594
3395604.0,215.0,32.0,4.0,243.0,3395.604
3395614.0,217.0,33.0,4.0,246.0,3395.614
3395624.0,219.0,33.0,3.0,247.0,3395.624
3395634.0,222.0,33.0,5.0,246.0,3395.634
3395644.0,212.0,33.0,3.0,239.0,3395.644
3395654.0,215.0,32.0,4.0,240.0,3395.654
3395664.0,218.0,33.0,4.0,245.0,3395.664
3395674.0,220.0,32.0,4.0,247.0,3395.674
3395684.0,221.0,33.0,4.0,245.0,3395.684
3395694.0,213.0,32.0,4.0,239.0,3395.694
3395704.0,216.0,34.0,3.0,243.0,3395.704
3395714.0,216.0,33.0,3.0,243.0,3395.714
3395724.0,221.0,33.0,4.0,251.0,3395.724
3395734.0,222.0,34.0,4.0,248.0,3395.734
3395744.0,214.0,33.0,4.0,241.0,3395.744
3395755.0,215.0,33.0,4.0,243.0,3395.755
3395765.0,221.0,33.0,3.0,250.0,3395.765
3395775.0,219.0,34.0,3.0,248.0,3395.775
3395785.0,220.0,32.0,4.0,245.0,3395.785
3395795.0,210.0,33.0,3.0,238.0,3395.795
3395805.0,216.0,33.0,4.0,242.0,3395.805
3395815.0,221.0,34.0,4.0,249.0,3395.815
3395825.0,218.0,33.0,4.0,247.0,3395.825
3395835.0,219.0,34.0,3.0,246.0,3395.835
3395845.0,212.0,32.0,4.0,239.0,3395.845
3395855.0,216.0,32.0,3.0,244.0,3395.855
3395865.0,223.0,33.0,4.0,249.0,3395.865
3395875.0,219.0,33.0,4.0,245.0,3395.875
3395885.0,220.0,32.0,5.0,245.0,3395.885
3395895.0,211.0,32.0,4.0,236.0,3395.895
3395905.0,216.0,33.0,3.0,243.0,3395.905
3395915.0,223.0,32.0,4.0,248.0,3395.915
3395926.0,217.0,32.0,4.0,244.0,3395.926
3395936.0,218.0,33.0,3.0,243.0,3395.936
3395946.0,210.0,32.0,4.0,238.0,3395.946
3395956.0,220.0,33.0,3.0,248.0,3395.956
3395966.0,223.0,33.0,3.0,246.0,3395.966
3395976.0,217.0,32.0,3.0,243.0,3395.976
3395986.0,218.0,33.0,4.0,242.0,3395.986
3395996.0,213.0,33.0,4.0,239.0,3395.996
3396006.0,220.0,33.0,2.0,249.0,3396.006
3396016.0,224.0,33.0,5.0,249.0,3396.016
3396026.0,218.0,33.0,4.0,245.0,3396.026
3396036.0,220.0,33.0,4.0,244.0,3396.036
3396046.0,215.0,33.0,3.0,243.0,3396.046
3396056.0,219.0,32.0,4.0,248.0,3396.056
3396066.0,226.0,33.0,4.0,250.0,3396.066
3396076.0,221.0,33.0,3.0,246.0,3396.076
3396086.0,223.0,33.0,4.0,248.0,3396.086
3396096.0,216.0,32.0,4.0,246.0,3396.096
3396106.0,223.0,32.0,3.0,257.0,3396.106
3396116.0,224.0,32.0,4.0,257.0,3396.116
3396126.0,217.0,33.0,5.0,251.0,3396.126
3396136.0,217.0,33.0,3.0,250.0,3396.136
3396146.0,214.0,32.0,5.0,244.0,3396.146
3396156.0,218.0,33.0,3.0,250.0,3396.156
3396166.0,221.0,32.0,4.0,247.0,3396.166
3396176.0,212.0,32.0,3.0,241.0,3396.176
3396186.0,217.0,32.0,4.0,243.0,3396.186
3396196.0,209.0,32.0,4.0,242.0,3396.196
3396206.0,218.0,33.0,3.0,251.0,3396.206
3396216.0,220.0,33.0,3.0,248.0,3396.216
3396226.0,213.0,33.0,4.0,244.0,3396.226
3396236.0,217.0,32.0,4.0,244.0,3396.236
3396246.0,209.0,32.0,4.0,243.0,3396.246
3396256.0,217.0,33.0,4.0,251.0,3396.256
3396267.0,222.0,33.0,4.0,250.0,3396.267
3396277.0,214.0,33.0,4.0,242.0,3396.277
3396287.0,215.0,34.0,3.0,243.0,3396.287
3396297.0,215.0,32.0,3.0,247.0,3396.297
3396307.0,217.0,32.0,3.0,247.0,3396.307
3396317.0,220.0,32.0,5.0,246.0,3396.317
3396327.0,210.0,32.0,4.0,240.0,3396.327
3396337.0,214.0,33.0,3.0,241.0,3396.337
3396347.0,220.0,33.0,3.0,248.0,3396.347
3396357.0,221.0,33.0,3.0,248.0,3396.357
3396367.0,223.0,33.0,4.0,246.0,3396.367
3396377.0,213.0,33.0,4.0,243.0,3396.377
3396387.0,221.0,32.0,4.0,244.0,3396.387
3396397.0,226.0,32.0,5.0,249.0,3396.397
3396407.0,229.0,33.0,4.0,253.0,3396.407
3396417.0,229.0,34.0,3.0,249.0,3396.417
3396427.0,219.0,32.0,4.0,242.0,3396.427
3396438.0,222.0,33.0,4.0,246.0,3396.438
3396448.0,228.0,33.0,5.0,251.0,3396.448
3396458.0,224.0,33.0,4.0,250.0,3396.458
3396468.0,225.0,33.0,4.0,247.0,3396.468
3396478.0,217.0,33.0,3.0,241.0,3396.478
3396488.0,219.0,32.0,4.0,246.0,3396.488
3396498.0,224.0,33.0,3.0,252.0,3396.498
3396508.0,217.0,33.0,4.0,248.0,3396.508
3396518.0,218.0,33.0,4.0,246.0,3396.518
3396528.0,214.0,33.0,4.0,241.0,3396.528
3396538.0,218.0,33.0,3.0,246.0,3396.538
3396548.0,224.0,33.0,3.0,248.0,3396.548
3396558.0,218.0,33.0,3.0,244.0,3396.558
3396568.0,221.0,33.0,3.0,244.0,3396.568
3396578.0,211.0,33.0,4.0,237.0,3396.578
3396588.0,215.0,33.0,3.0,246.0,3396.588
3396598.0,222.0,33.0,4.0,249.0,3396.598
3396608.0,217.0,33.0,4.0,247.0,3396.608
3396618.0,220.0,32.0,4.0,243.0,3396.618
3396628.0,209.0,33.0,3.0,237.0,3396.628
3396638.0,217.0,33.0,5.0,246.0,3396.638
3396648.0,222.0,34.0,4.0,249.0,3396.648
3396658.0,218.0,33.0,4.0,246.0,3396.658
3396668.0,219.0,34.0,3.0,244.0,3396.668
3396678.0,210.0,32.0,3.0,235.0,3396.678
3396688.0,217.0,32.0,4.0,244.0,3396.688
3396698.0,221.0,33.0,4.0,246.0,3396.698
3396708.0,215.0,33.0,3.0,245.0,3396.708
3396718.0,218.0,33.0,3.0,243.0,3396.718
3396728.0,211.0,33.0,4.0,237.0,3396.728
3396738.0,216.0,32.0,4.0,243.0,3396.738
3396748.0,223.0,33.0,3.0,248.0,3396.748
3396758.0,218.0,33.0,4.0,245.0,3396.758
3396768.0,222.0,33.0,5.0,243.0,3396.768
3396779.0,214.0,33.0,4.0,238.0,3396.779
3396789.0,222.0,32.0,4.0,248.0,3396.789
3396799.0,224.0,34.0,3.0,250.0,3396.799
3396809.0,216.0,32.0,4.0,242.0,3396.809
3396819.0,220.0,33.0,4.0,243.0,3396.819
3396829.0,215.0,33.0,4.0,240.0,3396.829
3396839.0,223.0,33.0,4.0,250.0,3396.839
3396849.0,227.0,33.0,4.0,249.0,3396.849
3396859.0,218.0,33.0,3.0,243.0,3396.859
3396869.0,221.0,33.0,4.0,245.0,3396.869
3396879.0,215.0,33.0,4.0,242.0,3396.879
3396889.0,222.0,33.0,4.0,248.0,3396.889
3396899.0,226.0,33.0,4.0,245.0,3396.899
3396909.0,217.0,33.0,3.0,245.0,3396.909
3396919.0,219.0,33.0,4.0,245.0,3396.919
3396929.0,216.0,34.0,3.0,246.0,3396.929
3396939.0,222.0,32.0,3.0,251.0,3396.939
3396950.0,224.0,34.0,4.0,248.0,3396.95
3396960.0,214.0,32.0,5.0,241.0,3396.96
3396970.0,218.0,34.0,2.0,244.0,3396.97
3396980.0,226.0,33.0,4.0,251.0,3396.98
3396990.0,222.0,34.0,3.0,250.0,3396.99
3397000.0,225.0,33.0,4.0,248.0,3397.0
3397010.0,216.0,33.0,4.0,240.0,3397.01
3397020.0,220.0,33.0,5.0,243.0,3397.02
3397030.0,222.0,33.0,4.0,249.0,3397.03
3397040.0,210.0,33.0,4.0,247.0,3397.04
3397050.0,213.0,34.0,3.0,246.0,3397.05
3397060.0,202.0,34.0,3.0,236.0,3397.06
3397070.0,208.0,32.0,4.0,241.0,3397.07
3397080.0,213.0,34.0,4.0,245.0,3397.08
3397090.0,214.0,34.0,4.0,247.0,3397.09
3397100.0,220.0,34.0,4.0,245.0,3397.1
3397110.0,210.0,33.0,3.0,236.0,3397.11
3397120.0,215.0,33.0,4.0,241.0,3397.12
3397130.0,219.0,34.0,4.0,246.0,3397.13
3397140.0,219.0,33.0,3.0,246.0,3397.14
3397150.0,222.0,33.0,5.0,243.0,3397.15
3397160.0,211.0,34.0,4.0,235.0,3397.16
3397170.0,217.0,33.0,4.0,239.0,3397.17
3397180.0,220.0,33.0,4.0,245.0,3397.18
3397190.0,219.0,34.0,3.0,242.0,3397.19
3397200.0,223.0,33.0,4.0,241.0,3397.2
3397210.0,214.0,34.0,3.0,232.0,3397.21
3397220.0,220.0,33.0,4.0,236.0,3397.22
3397230.0,227.0,34.0,3.0,245.0,3397.23
3397240.0,223.0,32.0,4.0,244.0,3397.24
3397250.0,227.0,33.0,3.0,245.0,3397.25
3397260.0,217.0,32.0,4.0,237.0,3397.26
3397270.0,220.0,33.0,3.0,242.0,3397.27
3397280.0,232.0,33.0,5.0,249.0,3397.28
3397291.0,225.0,33.0,4.0,248.0,3397.291
3397301.0,229.0,32.0,4.0,247.0,3397.301
3397311.0,223.0,33.0,3.0,247.0,3397.311
3397321.0,230.0,32.0,4.0,259.0,3397.321
3397331.0,233.0,33.0,3.0,256.0,3397.331
3397341.0,225.0,32.0,3.0,252.0,3397.341
3397351.0,224.0,33.0,4.0,253.0,3397.351
3397361.0,212.0,33.0,4.0,254.0,3397.361
3397371.0,223.0,33.0,3.0,264.0,3397.371
3397381.0,234.0,33.0,4.0,268.0,3397.381
3397391.0,226.0,32.0,4.0,262.0,3397.391
3397401.0,228.0,33.0,4.0,261.0,3397.401
3397411.0,219.0,33.0,4.0,261.0,3397.411
3397421.0,224.0,33.0,3.0,267.0,3397.421
3397431.0,230.0,33.0,3.0,269.0,3397.431
3397441.0,222.0,33.0,3.0,262.0,3397.441
3397451.0,224.0,33.0,3.0,262.0,3397.451
3397462.0,215.0,33.0,3.0,260.0,3397.462
3397472.0,221.0,33.0,5.0,262.0,3397.472
3397482.0,224.0,33.0,4.0,260.0,3397.482
3397492.0,217.0,32.0,4.0,248.0,3397.492
3397502.0,219.0,32.0,3.0,248.0,3397.502
3397512.0,214.0,33.0,3.0,246.0,3397.512
3397522.0,221.0,32.0,3.0,251.0,3397.522
3397532.0,224.0,32.0,5.0,248.0,3397.532
3397542.0,212.0,32.0,4.0,237.0,3397.542
3397552.0,217.0,32.0,4.0,239.0,3397.552
3397562.0,216.0,32.0,3.0,239.0,3397.562
3397572.0,220.0,33.0,3.0,244.0,3397.572
3397582.0,223.0,32.0,4.0,240.0,3397.582
3397592.0,214.0,32.0,3.0,238.0,3397.592
3397602.0,219.0,32.0,4.0,239.0,3397.602
3397612.0,219.0,32.0,4.0,240.0,3397.612
3397622.0,222.0,32.0,4.0,245.0,3397.622
3397632.0,227.0,32.0,4.0,246.0,3397.632
3397642.0,219.0,32.0,4.0,239.0,3397.642
3397652.0,221.0,32.0,3.0,241.0,3397.652
3397662.0,220.0,32.0,4.0,243.0,3397.662
3397672.0,220.0,31.0,4.0,245.0,3397.672
3397682.0,225.0,32.0,5.0,245.0,3397.682
3397692.0,213.0,32.0,3.0,239.0,3397.692
3397702.0,218.0,32.0,3.0,241.0,3397.702
3397712.0,221.0,32.0,3.0,244.0,3397.712
3397722.0,222.0,33.0,3.0,248.0,3397.722
3397732.0,227.0,31.0,5.0,246.0,3397.732
3397742.0,214.0,32.0,3.0,239.0,3397.742
3397752.0,218.0,32.0,4.0,240.0,3397.752
3397762.0,220.0,32.0,3.0,241.0,3397.762
3397772.0,225.0,32.0,4.0,246.0,3397.772
3397782.0,229.0,32.0,3.0,246.0,3397.782
3397792.0,218.0,32.0,4.0,237.0,3397.792
3397803.0,222.0,32.0,3.0,240.0,3397.803
3397813.0,226.0,32.0,4.0,246.0,3397.813
3397823.0,224.0,33.0,3.0,246.0,3397.823
3397833.0,226.0,32.0,3.0,244.0,3397.833
3397843.0,224.0,31.0,3.0,236.0,3397.843
3397853.0,229.0,32.0,4.0,242.0,3397.853
3397863.0,235.0,33.0,4.0,246.0,3397.863
3397873.0,230.0,32.0,4.0,242.0,3397.873
3397883.0,232.0,32.0,4.0,239.0,3397.883
3397893.0,222.0,32.0,2.0,230.0,3397.893
3397903.0,224.0,32.0,4.0,231.0,3397.903
3397913.0,229.0,33.0,3.0,236.0,3397.913
3397923.0,222.0,31.0,5.0,227.0,3397.923
3397933.0,227.0,32.0,4.0,229.0,3397.933
3397943.0,215.0,32.0,4.0,223.0,3397.943
3397953.0,221.0,33.0,4.0,230.0,3397.953
3397963.0,227.0,32.0,3.0,232.0,3397.963
3397974.0,219.0,32.0,3.0,224.0,3397.974
3397984.0,221.0,33.0,4.0,224.0,3397.984
3397994.0,214.0,32.0,4.0,219.0,3397.994
3398004.0,221.0,32.0,4.0,228.0,3398.004
3398014.0,229.0,33.0,4.0,235.0,3398.014
3398024.0,220.0,32.0,3.0,229.0,3398.024
3398034.0,224.0,32.0,4.0,229.0,3398.034
3398044.0,220.0,33.0,4.0,227.0,3398.044
3398054.0,228.0,31.0,4.0,233.0,3398.054
3398064.0,230.0,33.0,3.0,235.0,3398.064
3398074.0,222.0,32.0,4.0,235.0,3398.074
3398084.0,225.0,33.0,3.0,238.0,3398.084
3398094.0,217.0,32.0,3.0,234.0,3398.094
3398104.0,219.0,33.0,3.0,235.0,3398.104
3398114.0,226.0,32.0,5.0,239.0,3398.114
3398124.0,214.0,31.0,3.0,233.0,3398.124
3398134.0,218.0,33.0,4.0,234.0,3398.134
3398144.0,211.0,33.0,3.0,229.0,3398.144
3398154.0,221.0,32.0,4.0,239.0,3398.154
3398164.0,233.0,32.0,4.0,244.0,3398.164
3398174.0,223.0,32.0,4.0,239.0,3398.174
3398184.0,227.0,32.0,4.0,241.0,3398.184
3398194.0,218.0,33.0,4.0,235.0,3398.194
3398204.0,225.0,33.0,4.0,246.0,3398.204
3398214.0,229.0,34.0,3.0,247.0,3398.214
3398224.0,220.0,32.0,4.0,238.0,3398.224
3398234.0,224.0,32.0,4.0,241.0,3398.234
3398244.0,218.0,32.0,5.0,235.0,3398.244
3398254.0,225.0,32.0,3.0,246.0,3398.254
3398264.0,229.0,33.0,4.0,247.0,3398.264
3398274.0,219.0,33.0,3.0,244.0,3398.274
3398284.0,221.0,32.0,3.0,243.0,3398.284
3398294.0,218.0,33.0,3.0,240.0,3398.294
3398304.0,225.0,32.0,5.0,248.0,3398.304
3398315.0,228.0,33.0,3.0,247.0,3398.315
3398325.0,217.0,32.0,4.0,238.0,3398.325
3398335.0,220.0,33.0,3.0,241.0,3398.335
3398345.0,221.0,32.0,3.0,244.0,3398.345
3398355.0,222.0,32.0,4.0,245.0,3398.355
3398365.0,223.0,33.0,3.0,244.0,3398.365
3398375.0,213.0,32.0,4.0,236.0,3398.375
3398385.0,215.0,33.0,2.0,240.0,3398.385
3398395.0,220.0,32.0,4.0,245.0,3398.395
3398405.0,221.0,33.0,3.0,248.0,3398.405
3398415.0,223.0,33.0,4.0,245.0,3398.415
3398425.0,213.0,32.0,4.0,236.0,3398.425
3398435.0,217.0,32.0,5.0,239.0,3398.435
3398445.0,216.0,32.0,4.0,241.0,3398.445
3398455.0,221.0,32.0,4.0,245.0,3398.455
3398465.0,223.0,33.0,3.0,243.0,3398.465
3398475.0,213.0,32.0,3.0,234.0,3398.475
3398486.0,212.0,32.0,4.0,235.0,3398.486
3398496.0,219.0,32.0,4.0,242.0,3398.496
3398506.0,217.0,31.0,4.0,240.0,3398.506
3398516.0,218.0,32.0,3.0,240.0,3398.516
3398526.0,210.0,32.0,4.0,233.0,3398.526
3398536.0,214.0,33.0,3.0,238.0,3398.536
3398546.0,222.0,32.0,3.0,246.0,3398.546
3398556.0,216.0,31.0,4.0,241.0,3398.556
3398566.0,220.0,31.0,4.0,240.0,3398.566
3398576.0,213.0,32.0,3.0,234.0,3398.576
3398586.0,218.0,31.0,4.0,241.0,3398.586
3398596.0,223.0,32.0,3.0,248.0,3398.596
3398606.0,219.0,31.0,3.0,242.0,3398.606
3398616.0,221.0,32.0,3.0,244.0,3398.616
3398626.0,213.0,32.0,2.0,235.0,3398.626
3398636.0,217.0,31.0,3.0,240.0,3398.636
3398646.0,225.0,32.0,3.0,245.0,3398.646
3398656.0,222.0,31.0,4.0,241.0,3398.656
3398666.0,223.0,31.0,3.0,240.0,3398.666
3398676.0,214.0,31.0,4.0,231.0,3398.676
3398686.0,219.0,32.0,4.0,239.0,3398.686
3398696.0,227.0,31.0,4.0,250.0,3398.696
3398706.0,222.0,31.0,3.0,245.0,3398.706
3398716.0,222.0,31.0,4.0,240.0,3398.716
3398726.0,212.0,32.0,3.0,230.0,3398.726
3398736.0,219.0,32.0,4.0,239.0,3398.736
3398746.0,222.0,32.0,3.0,242.0,3398.746
3398756.0,220.0,31.0,4.0,241.0,3398.756
3398766.0,221.0,31.0,3.0,240.0,3398.766
3398776.0,212.0,31.0,4.0,232.0,3398.776
3398786.0,216.0,31.0,3.0,238.0,3398.786
3398796.0,222.0,32.0,3.0,242.0,3398.796
3398806.0,216.0,31.0,3.0,236.0,3398.806
3398816.0,218.0,32.0,4.0,238.0,3398.816
3398827.0,210.0,31.0,3.0,232.0,3398.827
3398837.0,218.0,32.0,4.0,239.0,3398.837
3398847.0,222.0,32.0,3.0,242.0,3398.847
3398857.0,212.0,32.0,3.0,232.0,3398.857
3398867.0,215.0,31.0,3.0,235.0,3398.867
3398877.0,210.0,32.0,3.0,231.0,3398.877
3398887.0,219.0,31.0,4.0,239.0,3398.887
3398897.0,221.0,33.0,4.0,241.0,3398.897
3398907.0,212.0,32.0,4.0,233.0,3398.907
3398917.0,215.0,32.0,2.0,237.0,3398.917
3398927.0,209.0,32.0,4.0,233.0,3398.927
3398937.0,217.0,32.0,4.0,241.0,3398.937
3398947.0,221.0,33.0,5.0,241.0,3398.947
3398957.0,214.0,32.0,3.0,237.0,3398.957
3398967.0,215.0,32.0,3.0,239.0,3398.967
3398977.0,212.0,32.0,4.0,239.0,3398.977
3398987.0,219.0,32.0,4.0,246.0,3398.987
3398998.0,221.0,33.0,4.0,245.0,3398.998
3399008.0,212.0,32.0,4.0,237.0,3399.008
3399018.0,214.0,31.0,4.0,239.0,3399.018
3399028.0,218.0,33.0,3.0,244.0,3399.028
3399038.0,218.0,32.0,4.0,244.0,3399.038
3399048.0,220.0,33.0,3.0,243.0,3399.048
3399058.0,212.0,32.0,4.0,235.0,3399.058
3399068.0,215.0,32.0,3.0,239.0,3399.068
3399078.0,221.0,33.0,5.0,246.0,3399.078
3399088.0,221.0,32.0,3.0,245.0,3399.088
3399098.0,221.0,32.0,3.0,242.0,3399.098
3399108.0,211.0,33.0,3.0,236.0,3399.108
3399118.0,215.0,32.0,4.0,240.0,3399.118
3399128.0,216.0,32.0,4.0,241.0,3399.128
3399138.0,219.0,32.0,4.0,246.0,3399.138
3399148.0,220.0,33.0,4.0,245.0,3399.148
3399158.0,210.0,32.0,4.0,235.0,3399.158
3399168.0,215.0,33.0,3.0,240.0,3399.168
3399178.0,216.0,33.0,3.0,242.0,3399.178
3399188.0,219.0,32.0,4.0,243.0,3399.188
3399198.0,217.0,32.0,4.0,241.0,3399.198
3399208.0,209.0,32.0,4.0,232.0,3399.208
3399218.0,212.0,32.0,3.0,238.0,3399.218
3399228.0,216.0,32.0,3.0,243.0,3399.228
3399238.0,218.0,33.0,3.0,245.0,3399.238
3399248.0,218.0,32.0,4.0,242.0,3399.248
3399258.0,211.0,33.0,3.0,237.0,3399.258
3399268.0,214.0,33.0,5.0,240.0,3399.268
3399278.0,218.0,31.0,4.0,247.0,3399.278
3399288.0,218.0,32.0,3.0,245.0,3399.288
3399298.0,219.0,32.0,4.0,246.0,3399.298
3399308.0,211.0,32.0,3.0,238.0,3399.308
3399318.0,214.0,32.0,4.0,241.0,3399.318
3399328.0,219.0,32.0,4.0,248.0,3399.328
3399339.0,218.0,31.0,4.0,245.0,3399.339
3399349.0,216.0,32.0,3.0,245.0,3399.349
3399359.0,208.0,32.0,4.0,237.0,3399.359
3399369.0,216.0,33.0,4.0,246.0,3399.369
3399379.0,221.0,32.0,4.0,248.0,3399.379
3399389.0,217.0,33.0,3.0,245.0,3399.389
3399399.0,218.0,33.0,4.0,243.0,3399.399
3399409.0,208.0,32.0,4.0,234.0,3399.409
3399419.0,217.0,31.0,4.0,243.0,3399.419
3399429.0,220.0,32.0,4.0,246.0,3399.429
3399439.0,217.0,32.0,4.0,240.0,3399.439
3399449.0,217.0,32.0,4.0,241.0,3399.449
3399459.0,211.0,32.0,4.0,234.0,3399.459
3399469.0,216.0,32.0,4.0,239.0,3399.469
3399479.0,221.0,33.0,4.0,245.0,3399.479
3399489.0,217.0,32.0,4.0,240.0,3399.489
3399499.0,218.0,33.0,3.0,240.0,3399.499
3399510.0,212.0,32.0,3.0,236.0,3399.51
3399520.0,219.0,33.0,4.0,245.0,3399.52
3399530.0,221.0,33.0,4.0,244.0,3399.53
3399540.0,212.0,32.0,3.0,235.0,3399.54
3399550.0,214.0,32.0,4.0,237.0,3399.55
3399560.0,211.0,33.0,3.0,235.0,3399.56
3399570.0,218.0,32.0,4.0,243.0,3399.57
3399580.0,220.0,33.0,3.0,244.0,3399.58
3399590.0,213.0,32.0,4.0,237.0,3399.59
3399600.0,216.0,32.0,3.0,240.0,3399.6
3399610.0,212.0,32.0,3.0,237.0,3399.61
3399620.0,220.0,33.0,3.0,246.0,3399.62
3399630.0,221.0,32.0,3.0,243.0,3399.63
3399640.0,214.0,32.0,4.0,237.0,3399.64
3399650.0,215.0,33.0,2.0,239.0,3399.65
3399660.0,214.0,32.0,4.0,238.0,3399.66
3399670.0,220.0,32.0,4.0,244.0,3399.67
3399680.0,221.0,33.0,4.0,244.0,3399.68
3399690.0,214.0,33.0,3.0,236.0,3399.69
3399700.0,215.0,32.0,4.0,238.0,3399.7
3399710.0,215.0,32.0,4.0,240.0,3399.71
3399720.0,221.0,31.0,4.0,243.0,3399.72
3399730.0,221.0,33.0,4.0,244.0,3399.73
3399740.0,214.0,32.0,3.0,235.0,3399.74
3399750.0,215.0,33.0,3.0,240.0,3399.75
3399760.0,217.0,32.0,4.0,242.0,3399.76
3399770.0,222.0,33.0,3.0,247.0,3399.77
3399780.0,222.0,33.0,4.0,244.0,3399.78
3399790.0,214.0,32.0,4.0,237.0,3399.79
3399800.0,215.0,32.0,4.0,239.0,3399.8
3399810.0,212.0,32.0,3.0,238.0,3399.81
3399820.0,219.0,32.0,3.0,246.0,3399.82
3399830.0,221.0,33.0,4.0,245.0,3399.83
3399840.0,213.0,32.0,5.0,238.0,3399.84
3399851.0,216.0,32.0,4.0,239.0,3399.851
3399861.0,218.0,33.0,3.0,244.0,3399.861
3399871.0,220.0,32.0,4.0,244.0,3399.871
3399881.0,218.0,33.0,3.0,241.0,3399.881
3399891.0,212.0,32.0,4.0,232.0,3399.891
3399901.0,215.0,34.0,3.0,239.0,3399.901
3399911.0,221.0,33.0,5.0,244.0,3399.911
3399921.0,220.0,32.0,4.0,243.0,3399.921
3399931.0,218.0,33.0,3.0,239.0,3399.931
3399941.0,212.0,33.0,2.0,234.0,3399.941
3399951.0,215.0,33.0,4.0,238.0,3399.951
3399961.0,221.0,33.0,4.0,245.0,3399.961
3399971.0,221.0,32.0,5.0,243.0,3399.971
3399981.0,221.0,32.0,4.0,244.0,3399.981
3399991.0,212.0,33.0,4.0,236.0,3399.991
3400001.0,216.0,32.0,3.0,241.0,3400.001
3400011.0,221.0,34.0,3.0,248.0,3400.011
3400022.0,220.0,32.0,3.0,242.0,3400.022
3400032.0,219.0,33.0,4.0,241.0,3400.032
3400042.0,213.0,33.0,3.0,234.0,3400.042
3400052.0,220.0,33.0,2.0,244.0,3400.052
3400062.0,223.0,33.0,3.0,245.0,3400.062
3400072.0,220.0,33.0,4.0,240.0,3400.072
3400082.0,218.0,32.0,4.0,240.0,3400.082
3400092.0,212.0,33.0,4.0,234.0,3400.092
3400102.0,221.0,33.0,4.0,243.0,3400.102
3400112.0,221.0,33.0,3.0,244.0,3400.112
3400122.0,219.0,33.0,4.0,238.0,3400.122
3400132.0,217.0,34.0,3.0,239.0,3400.132
3400142.0,213.0,34.0,3.0,236.0,3400.142
3400152.0,217.0,33.0,4.0,243.0,3400.152
3400162.0,222.0,34.0,4.0,246.0,3400.162
3400172.0,220.0,33.0,4.0,241.0,3400.172
3400182.0,219.0,34.0,3.0,242.0,3400.182
3400192.0,214.0,33.0,4.0,234.0,3400.192
3400202.0,219.0,35.0,3.0,245.0,3400.202
3400212.0,224.0,34.0,4.0,247.0,3400.212
3400222.0,219.0,33.0,3.0,240.0,3400.222
3400232.0,220.0,34.0,4.0,240.0,3400.232
3400242.0,213.0,33.0,3.0,234.0,3400.242
3400252.0,221.0,33.0,4.0,244.0,3400.252
3400262.0,224.0,35.0,3.0,248.0,3400.262
3400272.0,219.0,32.0,4.0,240.0,3400.272
3400282.0,219.0,34.0,3.0,242.0,3400.282
3400292.0,213.0,33.0,4.0,235.0,3400.292
3400302.0,221.0,33.0,3.0,245.0,3400.302
3400312.0,223.0,33.0,4.0,244.0,3400.312
3400322.0,221.0,33.0,3.0,241.0,3400.322
3400332.0,219.0,34.0,3.0,240.0,3400.332
3400342.0,215.0,32.0,4.0,235.0,3400.342
3400352.0,223.0,33.0,4.0,245.0,3400.352
3400363.0,225.0,33.0,5.0,246.0,3400.363
3400373.0,216.0,33.0,2.0,237.0,3400.373
3400383.0,218.0,32.0,4.0,239.0,3400.383
3400393.0,219.0,33.0,3.0,243.0,3400.393
3400403.0,224.0,32.0,4.0,245.0,3400.403
3400413.0,224.0,34.0,3.0,245.0,3400.413
3400423.0,219.0,32.0,5.0,238.0,3400.423
3400433.0,219.0,33.0,2.0,242.0,3400.433
3400443.0,221.0,33.0,3.0,245.0,3400.443
3400453.0,225.0,32.0,4.0,247.0,3400.453
3400463.0,224.0,33.0,3.0,246.0,3400.463
3400473.0,218.0,32.0,3.0,238.0,3400.473
3400483.0,219.0,33.0,4.0,240.0,3400.483
3400493.0,219.0,32.0,4.0,241.0,3400.493
3400503.0,224.0,32.0,2.0,246.0,3400.503
3400513.0,223.0,32.0,4.0,243.0,3400.513
3400523.0,218.0,33.0,3.0,237.0,3400.523
3400534.0,220.0,32.0,4.0,238.0,3400.534
3400544.0,224.0,32.0,4.0,245.0,3400.544
3400554.0,225.0,32.0,4.0,244.0,3400.554
3400564.0,222.0,33.0,4.0,240.0,3400.564
3400574.0,216.0,32.0,4.0,235.0,3400.574
3400584.0,220.0,32.0,2.0,241.0,3400.584
3400594.0,224.0,32.0,4.0,246.0,3400.594
3400604.0,224.0,32.0,4.0,243.0,3400.604
3400614.0,221.0,32.0,5.0,241.0,3400.614
3400624.0,217.0,32.0,3.0,234.0,3400.624
3400634.0,219.0,33.0,3.0,239.0,3400.634
3400644.0,225.0,32.0,4.0,245.0,3400.644
3400654.0,223.0,33.0,3.0,241.0,3400.654
3400664.0,221.0,33.0,4.0,241.0,3400.664
3400674.0,216.0,32.0,4.0,232.0,3400.674
3400684.0,221.0,33.0,5.0,239.0,3400.684
3400694.0,225.0,32.0,4.0,244.0,3400.694
3400704.0,226.0,32.0,3.0,244.0,3400.704
3400714.0,222.0,34.0,3.0,242.0,3400.714
3400724.0,217.0,32.0,4.0,234.0,3400.724
3400734.0,221.0,32.0,3.0,242.0,3400.734
3400744.0,227.0,32.0,3.0,246.0,3400.744
3400754.0,225.0,32.0,3.0,244.0,3400.754
3400764.0,222.0,33.0,3.0,240.0,3400.764
3400774.0,216.0,32.0,3.0,235.0,3400.774
3400784.0,223.0,32.0,4.0,242.0,3400.784
3400794.0,225.0,33.0,3.0,246.0,3400.794
3400804.0,225.0,32.0,4.0,244.0,3400.804
3400814.0,222.0,31.0,4.0,240.0,3400.814
3400824.0,216.0,32.0,3.0,233.0,3400.824
3400834.0,220.0,32.0,4.0,238.0,3400.834
3400844.0,225.0,33.0,3.0,245.0,3400.844
3400854.0,225.0,32.0,3.0,242.0,3400.854
3400864.0,223.0,32.0,4.0,240.0,3400.864
3400875.0,217.0,32.0,5.0,233.0,3400.875
3400885.0,224.0,32.0,4.0,243.0,3400.885
3400895.0,226.0,32.0,3.0,247.0,3400.895
3400905.0,222.0,33.0,3.0,240.0,3400.905
3400915.0,221.0,32.0,4.0,240.0,3400.915
3400925.0,217.0,33.0,3.0,237.0,3400.925
3400935.0,225.0,32.0,4.0,246.0,3400.935
3400945.0,227.0,32.0,4.0,247.0,3400.945
3400955.0,222.0,32.0,4.0,239.0,3400.955
3400965.0,223.0,31.0,3.0,241.0,3400.965
3400975.0,218.0,33.0,3.0,236.0,3400.975
3400985.0,226.0,32.0,4.0,245.0,3400.985
3400995.0,226.0,33.0,3.0,244.0,3400.995
3401005.0,225.0,32.0,4.0,239.0,3401.005
3401015.0,222.0,32.0,4.0,240.0,3401.015
3401025.0,219.0,32.0,3.0,236.0,3401.025
3401035.0,227.0,33.0,3.0,246.0,3401.035
3401046.0,227.0,32.0,4.0,243.0,3401.046
3401056.0,221.0,32.0,4.0,236.0,3401.056
3401066.0,222.0,32.0,5.0,238.0,3401.066
3401076.0,224.0,32.0,4.0,243.0,3401.076
3401086.0,227.0,32.0,3.0,243.0,3401.086
3401096.0,226.0,33.0,4.0,242.0,3401.096
3401106.0,221.0,32.0,3.0,236.0,3401.106
3401116.0,222.0,32.0,4.0,238.0,3401.116
3401126.0,227.0,33.0,4.0,243.0,3401.126
3401136.0,229.0,33.0,3.0,243.0,3401.136
3401146.0,226.0,33.0,3.0,241.0,3401.146
3401156.0,222.0,32.0,4.0,235.0,3401.156
3401166.0,222.0,33.0,3.0,238.0,3401.166
3401176.0,224.0,33.0,3.0,240.0,3401.176
3401186.0,229.0,33.0,4.0,245.0,3401.186
3401196.0,227.0,34.0,4.0,243.0,3401.196
3401206.0,222.0,33.0,2.0,235.0,3401.206
3401216.0,224.0,33.0,4.0,239.0,3401.216
3401226.0,225.0,34.0,3.0,243.0,3401.226
3401236.0,228.0,33.0,3.0,245.0,3401.236
3401246.0,224.0,33.0,3.0,242.0,3401.246
3401256.0,220.0,32.0,5.0,234.0,3401.256
3401266.0,221.0,33.0,3.0,237.0,3401.266
3401276.0,223.0,33.0,3.0,243.0,3401.276
3401286.0,226.0,33.0,4.0,245.0,3401.286
3401296.0,223.0,34.0,3.0,241.0,3401.296
3401306.0,221.0,32.0,3.0,237.0,3401.306
3401316.0,220.0,34.0,4.0,238.0,3401.316
3401326.0,226.0,33.0,4.0,243.0,3401.326
3401336.0,226.0,33.0,4.0,241.0,3401.336
3401346.0,226.0,33.0,5.0,241.0,3401.346
3401356.0,221.0,33.0,3.0,235.0,3401.356
3401366.0,222.0,32.0,4.0,237.0,3401.366
3401376.0,226.0,33.0,4.0,245.0,3401.376
3401387.0,228.0,33.0,5.0,244.0,3401.387
3401397.0,224.0,33.0,4.0,242.0,3401.397
3401407.0,220.0,32.0,4.0,234.0,3401.407
3401417.0,224.0,33.0,4.0,244.0,3401.417
3401427.0,228.0,33.0,3.0,246.0,3401.427
3401437.0,228.0,33.0,4.0,244.0,3401.437
3401447.0,226.0,33.0,4.0,241.0,3401.447
3401457.0,221.0,33.0,3.0,234.0,3401.457
3401467.0,226.0,33.0,3.0,244.0,3401.467
3401477.0,230.0,34.0,4.0,248.0,3401.477
3401487.0,229.0,33.0,3.0,246.0,3401.487
3401497.0,225.0,33.0,4.0,244.0,3401.497
3401507.0,220.0,33.0,3.0,237.0,3401.507
3401517.0,223.0,32.0,3.0,243.0,3401.517
3401527.0,228.0,33.0,4.0,248.0,3401.527
3401537.0,227.0,33.0,4.0,242.0,3401.537
3401547.0,224.0,33.0,3.0,242.0,3401.547
3401558.0,219.0,32.0,3.0,236.0,3401.558
3401568.0,226.0,32.0,4.0,244.0,3401.568
3401578.0,229.0,33.0,4.0,246.0,3401.578
3401588.0,223.0,33.0,2.0,239.0,3401.588
3401598.0,222.0,32.0,4.0,241.0,3401.598
3401608.0,219.0,32.0,4.0,237.0,3401.608
3401618.0,226.0,33.0,3.0,246.0,3401.618
3401628.0,227.0,32.0,3.0,245.0,3401.628
3401638.0,222.0,32.0,5.0,238.0,3401.638
3401648.0,222.0,32.0,3.0,241.0,3401.648
3401658.0,219.0,32.0,4.0,239.0,3401.658
3401668.0,227.0,32.0,4.0,248.0,3401.668
3401678.0,226.0,33.0,3.0,246.0,3401.678
3401688.0,224.0,32.0,4.0,239.0,3401.688
3401698.0,222.0,32.0,3.0,240.0,3401.698
3401708.0,222.0,32.0,5.0,238.0,3401.708
3401718.0,228.0,32.0,2.0,245.0,3401.718
3401728.0,230.0,33.0,4.0,245.0,3401.728
3401738.0,224.0,33.0,3.0,240.0,3401.738
3401748.0,223.0,32.0,3.0,240.0,3401.748
3401758.0,223.0,32.0,3.0,241.0,3401.758
3401768.0,229.0,32.0,4.0,246.0,3401.768
3401778.0,229.0,32.0,4.0,245.0,3401.778
3401788.0,224.0,32.0,4.0,238.0,3401.788
3401798.0,223.0,33.0,4.0,240.0,3401.798
3401808.0,222.0,33.0,3.0,242.0,3401.808
3401818.0,225.0,32.0,4.0,246.0,3401.818
3401828.0,225.0,32.0,4.0,245.0,3401.828
3401838.0,222.0,32.0,4.0,239.0,3401.838
3401848.0,221.0,33.0,2.0,240.0,3401.848
3401858.0,218.0,32.0,4.0,238.0,3401.858
3401868.0,226.0,33.0,3.0,248.0,3401.868
3401878.0,226.0,32.0,4.0,246.0,3401.878
3401888.0,222.0,31.0,4.0,239.0,3401.888
3401899.0,221.0,32.0,4.0,240.0,3401.899
3401909.0,223.0,31.0,4.0,244.0,3401.909
3401919.0,226.0,32.0,4.0,245.0,3401.919
3401929.0,223.0,33.0,3.0,244.0,3401.929
3401939.0,217.0,32.0,3.0,237.0,3401.939
3401949.0,221.0,33.0,3.0,243.0,3401.949
3401959.0,224.0,33.0,3.0,247.0,3401.959
3401969.0,226.0,31.0,4.0,246.0,3401.969
3401979.0,222.0,32.0,3.0,243.0,3401.979
3401989.0,220.0,31.0,5.0,237.0,3401.989
3401999.0,219.0,32.0,3.0,241.0,3401.999
3402009.0,223.0,32.0,4.0,245.0,3402.009
3402019.0,224.0,32.0,3.0,245.0,3402.019
3402029.0,223.0,32.0,3.0,244.0,3402.029
3402039.0,218.0,31.0,4.0,238.0,3402.039
3402049.0,219.0,31.0,3.0,241.0,3402.049
3402059.0,224.0,32.0,3.0,248.0,3402.059
3402070.0,225.0,31.0,4.0,245.0,3402.07
3402080.0,222.0,32.0,4.0,243.0,3402.08
3402090.0,216.0,32.0,4.0,237.0,3402.09
3402100.0,223.0,31.0,4.0,247.0,3402.1
3402110.0,226.0,33.0,3.0,249.0,3402.11
3402120.0,225.0,31.0,4.0,246.0,3402.12
3402130.0,223.0,32.0,3.0,242.0,3402.13
3402140.0,217.0,30.0,3.0,236.0,3402.14
3402150.0,224.0,32.0,4.0,245.0,3402.15
3402160.0,227.0,32.0,4.0,246.0,3402.16
3402170.0,224.0,31.0,4.0,244.0,3402.17
3402180.0,222.0,31.0,4.0,242.0,3402.18
3402190.0,217.0,32.0,3.0,237.0,3402.19
3402200.0,222.0,30.0,4.0,243.0,3402.2
3402210.0,226.0,31.0,4.0,247.0,3402.21
3402220.0,224.0,31.0,5.0,243.0,3402.22
3402230.0,222.0,31.0,3.0,242.0,3402.23
3402240.0,217.0,31.0,5.0,237.0,3402.24
3402250.0,223.0,32.0,3.0,246.0,3402.25
3402260.0,226.0,32.0,3.0,248.0,3402.26
3402270.0,222.0,30.0,4.0,243.0,3402.27
3402280.0,220.0,32.0,4.0,242.0,3402.28
3402290.0,214.0,32.0,3.0,237.0,3402.29
3402300.0,220.0,31.0,4.0,247.0,3402.3
3402310.0,224.0,32.0,3.0,249.0,3402.31
3402320.0,219.0,32.0,3.0,245.0,3402.32
3402330.0,220.0,32.0,3.0,245.0,3402.33
3402340.0,213.0,32.0,4.0,239.0,3402.34
3402350.0,221.0,31.0,4.0,248.0,3402.35
3402360.0,224.0,31.0,4.0,248.0,3402.36
3402370.0,222.0,31.0,5.0,246.0,3402.37
3402380.0,219.0,33.0,3.0,245.0,3402.38
3402390.0,213.0,32.0,3.0,238.0,3402.39
3402400.0,221.0,31.0,5.0,248.0,3402.4
3402411.0,222.0,32.0,4.0,250.0,3402.411
3402421.0,216.0,31.0,3.0,244.0,3402.421
3402431.0,217.0,31.0,4.0,244.0,3402.431
3402441.0,217.0,32.0,3.0,246.0,3402.441
3402451.0,221.0,32.0,3.0,249.0,3402.451
3402461.0,222.0,32.0,3.0,251.0,3402.461
3402471.0,216.0,31.0,4.0,243.0,3402.471
3402481.0,217.0,31.0,4.0,243.0,3402.481
3402491.0,218.0,32.0,4.0,245.0,3402.491
3402501.0,222.0,31.0,5.0,247.0,3402.501
3402511.0,223.0,32.0,3.0,247.0,3402.511
3402521.0,216.0,30.0,4.0,237.0,3402.521
3402531.0,216.0,31.0,4.0,240.0,3402.531
3402541.0,214.0,31.0,3.0,238.0,3402.541
3402551.0,222.0,31.0,3.0,246.0,3402.551
3402561.0,222.0,32.0,3.0,243.0,3402.561
3402571.0,216.0,32.0,4.0,236.0,3402.571
3402582.0,217.0,32.0,3.0,238.0,3402.582
3402592.0,221.0,31.0,5.0,243.0,3402.592
3402602.0,221.0,32.0,4.0,241.0,3402.602
3402612.0,219.0,31.0,4.0,239.0,3402.612
3402622.0,212.0,31.0,3.0,230.0,3402.622
3402632.0,216.0,31.0,4.0,235.0,3402.632
3402642.0,221.0,33.0,3.0,242.0,3402.642
3402652.0,221.0,32.0,4.0,240.0,3402.652
3402662.0,220.0,32.0,4.0,240.0,3402.662
3402672.0,215.0,30.0,4.0,234.0,3402.672
3402682.0,217.0,32.0,4.0,238.0,3402.682
3402692.0,223.0,32.0,3.0,243.0,3402.692
3402702.0,221.0,33.0,3.0,241.0,3402.702
3402712.0,221.0,32.0,4.0,239.0,3402.712
3402722.0,214.0,32.0,3.0,232.0,3402.722
3402732.0,217.0,32.0,5.0,237.0,3402.732
3402742.0,222.0,31.0,4.0,244.0,3402.742
3402752.0,222.0,32.0,2.0,243.0,3402.752
3402762.0,221.0,32.0,4.0,240.0,3402.762
3402772.0,214.0,32.0,3.0,232.0,3402.772
3402782.0,217.0,32.0,3.0,239.0,3402.782
3402792.0,222.0,33.0,3.0,243.0,3402.792
3402802.0,222.0,32.0,4.0,241.0,3402.802
3402812.0,220.0,32.0,4.0,239.0,3402.812
3402822.0,214.0,32.0,4.0,231.0,3402.822
3402832.0,219.0,33.0,3.0,239.0,3402.832
3402842.0,221.0,32.0,4.0,241.0,3402.842
3402852.0,223.0,32.0,3.0,241.0,3402.852
3402862.0,222.0,32.0,5.0,239.0,3402.862
3402872.0,214.0,31.0,4.0,231.0,3402.872
3402882.0,218.0,32.0,4.0,237.0,3402.882
3402892.0,222.0,33.0,3.0,245.0,3402.892
3402902.0,222.0,32.0,3.0,242.0,3402.902
3402912.0,221.0,32.0,3.0,240.0,3402.912
3402923.0,213.0,33.0,4.0,233.0,3402.923
3402933.0,221.0,32.0,4.0,244.0,3402.933
3402943.0,223.0,33.0,3.0,246.0,3402.943
3402953.0,219.0,33.0,3.0,238.0,3402.953
3402963.0,218.0,33.0,3.0,239.0,3402.963
3402973.0,212.0,32.0,4.0,232.0,3402.973
3402983.0,220.0,32.0,4.0,243.0,3402.983
3402993.0,225.0,33.0,4.0,244.0,3402.993
3403003.0,218.0,32.0,4.0,237.0,3403.003
3403013.0,220.0,32.0,5.0,239.0,3403.013
3403023.0,211.0,33.0,3.0,234.0,3403.023
3403033.0,220.0,32.0,3.0,242.0,3403.033
3403043.0,222.0,33.0,3.0,243.0,3403.043
3403053.0,219.0,32.0,3.0,240.0,3403.053
3403063.0,218.0,33.0,3.0,240.0,3403.063
3403073.0,211.0,33.0,4.0,234.0,3403.073
3403083.0,221.0,33.0,4.0,245.0,3403.083
3403094.0,223.0,33.0,4.0,246.0,3403.094
3403104.0,216.0,33.0,4.0,237.0,3403.104
3403114.0,217.0,33.0,5.0,239.0,3403.114
3403124.0,218.0,33.0,4.0,242.0,3403.124
3403134.0,221.0,33.0,3.0,243.0,3403.134
3403144.0,223.0,33.0,4.0,245.0,3403.144
3403154.0,216.0,33.0,3.0,236.0,3403.154
3403164.0,217.0,34.0,3.0,240.0,3403.164
3403174.0,219.0,34.0,3.0,244.0,3403.174
3403184.0,222.0,33.0,5.0,246.0,3403.184
3403194.0,222.0,34.0,4.0,244.0,3403.194
3403204.0,214.0,33.0,3.0,236.0,3403.204
3403214.0,216.0,34.0,3.0,239.0,3403.214
3403224.0,214.0,33.0,4.0,238.0,3403.224
3403234.0,220.0,33.0,4.0,243.0,3403.234
3403244.0,220.0,34.0,4.0,242.0,3403.244
3403254.0,213.0,33.0,4.0,235.0,3403.254
3403264.0,216.0,33.0,4.0,238.0,3403.264
3403274.0,215.0,33.0,4.0,239.0,3403.274
3403284.0,219.0,34.0,3.0,244.0,3403.284
3403294.0,220.0,33.0,3.0,243.0,3403.294
3403304.0,212.0,33.0,4.0,235.0,3403.304
3403314.0,216.0,34.0,4.0,240.0,3403.314
3403324.0,216.0,34.0,4.0,242.0,3403.324
3403334.0,221.0,33.0,4.0,245.0,3403.334
3403344.0,220.0,34.0,3.0,244.0,3403.344
3403354.0,215.0,33.0,3.0,237.0,3403.354
3403364.0,217.0,34.0,3.0,238.0,3403.364
3403374.0,219.0,33.0,4.0,242.0,3403.374
3403384.0,221.0,33.0,4.0,243.0,3403.384
3403394.0,223.0,33.0,5.0,243.0,3403.394
3403404.0,215.0,33.0,4.0,233.0,3403.404
3403414.0,217.0,33.0,3.0,236.0,3403.414
3403424.0,220.0,34.0,3.0,242.0,3403.424
3403435.0,220.0,33.0,4.0,242.0,3403.435
3403445.0,220.0,33.0,4.0,241.0,3403.445
3403455.0,211.0,33.0,3.0,233.0,3403.455
3403465.0,217.0,33.0,4.0,239.0,3403.465
3403475.0,222.0,34.0,3.0,245.0,3403.475
3403485.0,220.0,32.0,4.0,242.0,3403.485
3403495.0,219.0,34.0,3.0,241.0,3403.495
3403505.0,213.0,33.0,4.0,233.0,3403.505
3403515.0,218.0,34.0,3.0,242.0,3403.515
3403525.0,222.0,34.0,5.0,245.0,3403.525
3403535.0,219.0,34.0,3.0,244.0,3403.535
3403545.0,218.0,34.0,3.0,242.0,3403.545
3403555.0,211.0,33.0,4.0,233.0,3403.555
3403565.0,215.0,33.0,4.0,238.0,3403.565
3403575.0,221.0,34.0,3.0,243.0,3403.575
3403585.0,219.0,33.0,3.0,241.0,3403.585
3403595.0,220.0,33.0,3.0,241.0,3403.595
3403606.0,211.0,34.0,3.0,231.0,3403.606
3403616.0,221.0,33.0,4.0,241.0,3403.616
3403626.0,224.0,33.0,4.0,243.0,3403.626
3403636.0,218.0,33.0,4.0,235.0,3403.636
3403646.0,218.0,33.0,4.0,236.0,3403.646
3403656.0,213.0,33.0,5.0,231.0,3403.656
3403666.0,221.0,33.0,3.0,242.0,3403.666
3403676.0,223.0,32.0,4.0,244.0,3403.676
3403686.0,217.0,33.0,3.0,236.0,3403.686
3403696.0,219.0,33.0,4.0,238.0,3403.696
3403706.0,212.0,33.0,4.0,234.0,3403.706
3403716.0,218.0,33.0,4.0,243.0,3403.716
3403726.0,221.0,34.0,4.0,246.0,3403.726
3403736.0,217.0,33.0,4.0,239.0,3403.736
3403746.0,217.0,34.0,3.0,238.0,3403.746
3403756.0,212.0,33.0,4.0,234.0,3403.756
3403766.0,221.0,32.0,4.0,243.0,3403.766
3403776.0,222.0,33.0,4.0,244.0,3403.776
3403786.0,216.0,33.0,4.0,238.0,3403.786
3403796.0,216.0,34.0,3.0,238.0,3403.796
3403806.0,213.0,32.0,3.0,236.0,3403.806
3403816.0,220.0,33.0,3.0,244.0,3403.816
3403826.0,223.0,34.0,3.0,245.0,3403.826
3403836.0,216.0,32.0,3.0,238.0,3403.836
3403846.0,217.0,32.0,4.0,238.0,3403.846
3403856.0,214.0,33.0,3.0,238.0,3403.856
3403866.0,218.0,33.0,4.0,242.0,3403.866
3403876.0,221.0,33.0,4.0,244.0,3403.876
3403886.0,214.0,33.0,4.0,237.0,3403.886
3403896.0,216.0,33.0,3.0,239.0,3403.896
3403906.0,209.0,33.0,3.0,235.0,3403.906
3403916.0,218.0,33.0,3.0,246.0,3403.916
3403926.0,221.0,34.0,3.0,246.0,3403.926
3403936.0,214.0,32.0,4.0,236.0,3403.936
3403947.0,215.0,33.0,4.0,238.0,3403.947
3403957.0,216.0,33.0,4.0,239.0,3403.957
3403967.0,219.0,33.0,4.0,241.0,3403.967
3403977.0,219.0,33.0,4.0,239.0,3403.977
3403987.0,211.0,33.0,3.0,231.0,3403.987
3403997.0,216.0,32.0,3.0,236.0,3403.997
3404007.0,217.0,33.0,3.0,238.0,3404.007
3404017.0,222.0,32.0,5.0,241.0,3404.017
3404027.0,220.0,34.0,4.0,239.0,3404.027
3404037.0,216.0,32.0,5.0,234.0,3404.037
3404047.0,217.0,33.0,3.0,237.0,3404.047
3404057.0,220.0,33.0,3.0,241.0,3404.057
3404067.0,221.0,32.0,4.0,241.0,3404.067
3404077.0,223.0,33.0,4.0,241.0,3404.077
3404087.0,215.0,33.0,4.0,233.0,3404.087
3404097.0,215.0,33.0,3.0,236.0,3404.097
3404107.0,220.0,32.0,4.0,241.0,3404.107
3404118.0,221.0,34.0,3.0,241.0,3404.118
3404128.0,218.0,32.0,4.0,240.0,3404.128
3404138.0,211.0,33.0,4.0,231.0,3404.138
3404148.0,218.0,33.0,4.0,240.0,3404.148
3404158.0,224.0,33.0,4.0,243.0,3404.158
3404168.0,220.0,32.0,5.0,239.0,3404.168
3404178.0,219.0,34.0,3.0,238.0,3404.178
3404188.0,211.0,32.0,3.0,231.0,3404.188
3404198.0,219.0,33.0,3.0,241.0,3404.198
3404208.0,221.0,32.0,3.0,243.0,3404.208
3404218.0,220.0,33.0,4.0,241.0,3404.218
3404228.0,218.0,33.0,3.0,240.0,3404.228
3404238.0,211.0,33.0,4.0,234.0,3404.238
3404248.0,217.0,32.0,4.0,239.0,3404.248
3404258.0,222.0,34.0,3.0,245.0,3404.258
3404268.0,220.0,33.0,4.0,241.0,3404.268
3404278.0,220.0,33.0,4.0,240.0,3404.278
3404288.0,213.0,32.0,4.0,233.0,3404.288
3404298.0,218.0,32.0,4.0,239.0,3404.298
3404308.0,223.0,34.0,3.0,247.0,3404.308
3404318.0,218.0,32.0,4.0,242.0,3404.318
3404328.0,217.0,33.0,4.0,241.0,3404.328
3404338.0,211.0,33.0,3.0,234.0,3404.338
3404348.0,216.0,33.0,4.0,243.0,3404.348
3404358.0,222.0,33.0,4.0,247.0,3404.358
3404368.0,218.0,33.0,3.0,242.0,3404.368
3404378.0,218.0,33.0,3.0,241.0,3404.378
3404388.0,211.0,33.0,3.0,234.0,3404.388
3404398.0,217.0,34.0,4.0,242.0,3404.398
3404408.0,224.0,33.0,4.0,247.0,3404.408
3404418.0,220.0,33.0,4.0,243.0,3404.418
3404428.0,219.0,33.0,4.0,239.0,3404.428
3404438.0,211.0,33.0,3.0,232.0,3404.438
3404448.0,218.0,32.0,4.0,242.0,3404.448
3404459.0,223.0,33.0,4.0,244.0,3404.459
3404469.0,218.0,33.0,4.0,237.0,3404.469
3404479.0,217.0,33.0,3.0,238.0,3404.479
3404489.0,214.0,33.0,4.0,236.0,3404.489
3404499.0,221.0,34.0,3.0,244.0,3404.499
3404509.0,223.0,33.0,4.0,243.0,3404.509
3404519.0,216.0,33.0,4.0,237.0,3404.519
3404529.0,217.0,33.0,4.0,238.0,3404.529
3404539.0,217.0,33.0,4.0,239.0,3404.539
3404549.0,220.0,33.0,4.0,243.0,3404.549
3404559.0,222.0,34.0,4.0,244.0,3404.559
3404569.0,214.0,33.0,3.0,236.0,3404.569
3404579.0,217.0,34.0,3.0,238.0,3404.579
3404589.0,211.0,34.0,3.0,236.0,3404.589
3404599.0,221.0,33.0,4.0,245.0,3404.599
3404609.0,222.0,34.0,4.0,245.0,3404.609
3404619.0,214.0,33.0,4.0,237.0,3404.619
3404630.0,216.0,34.0,3.0,239.0,3404.63
3404640.0,217.0,34.0,4.0,242.0,3404.64
3404650.0,219.0,33.0,4.0,243.0,3404.65
3404660.0,218.0,34.0,4.0,242.0,3404.66
3404670.0,209.0,32.0,4.0,234.0,3404.67
3404680.0,214.0,33.0,3.0,238.0,3404.68
3404690.0,217.0,34.0,3.0,243.0,3404.69
3404700.0,219.0,33.0,3.0,242.0,3404.7
3404710.0,219.0,32.0,4.0,239.0,3404.71
3404720.0,213.0,33.0,4.0,236.0,3404.72
3404730.0,215.0,32.0,4.0,238.0,3404.73
3404740.0,218.0,33.0,3.0,244.0,3404.74
3404750.0,218.0,33.0,4.0,243.0,3404.75
3404760.0,219.0,33.0,3.0,242.0,3404.76
3404770.0,211.0,32.0,4.0,234.0,3404.77
3404780.0,213.0,33.0,3.0,238.0,3404.78
3404790.0,220.0,33.0,4.0,244.0,3404.79
3404800.0,221.0,33.0,3.0,244.0,3404.8
3404810.0,220.0,33.0,3.0,241.0,3404.81
3404820.0,213.0,33.0,3.0,234.0,3404.82
3404830.0,216.0,33.0,4.0,240.0,3404.83
3404840.0,221.0,32.0,4.0,247.0,3404.84
3404850.0,221.0,32.0,4.0,246.0,3404.85
3404860.0,220.0,32.0,4.0,245.0,3404.86
3404870.0,211.0,32.0,4.0,237.0,3404.87
3404880.0,215.0,33.0,4.0,243.0,3404.88
