time (ms),signal 0,signal 1,signal 2,signal 3,time (sec)
3481797.0,208.0,32.0,191.0,237.0,3481.797
3481807.0,219.0,31.0,199.0,247.0,3481.807
3481817.0,220.0,32.0,206.0,247.0,3481.817
3481827.0,215.0,31.0,194.0,240.0,3481.827
3481837.0,216.0,33.0,199.0,240.0,3481.837
3481847.0,211.0,32.0,193.0,237.0,3481.847
3481857.0,214.0,32.0,197.0,243.0,3481.857
3481867.0,221.0,32.0,207.0,247.0,3481.867
3481877.0,214.0,31.0,194.0,239.0,3481.877
3481887.0,214.0,32.0,196.0,239.0,3481.887
3481897.0,211.0,33.0,192.0,240.0,3481.897
3481907.0,216.0,32.0,196.0,244.0,3481.907
3481917.0,220.0,32.0,204.0,247.0,3481.917
3481927.0,213.0,31.0,193.0,239.0,3481.927
3481937.0,215.0,32.0,194.0,240.0,3481.937
3481947.0,208.0,32.0,187.0,235.0,3481.947
3481957.0,217.0,32.0,198.0,247.0,3481.957
3481967.0,221.0,32.0,200.0,247.0,3481.967
3481977.0,212.0,31.0,188.0,238.0,3481.977
3481987.0,215.0,32.0,193.0,243.0,3481.987
3481997.0,210.0,31.0,188.0,238.0,3481.997
3482007.0,218.0,32.0,198.0,247.0,3482.007
3482017.0,222.0,32.0,201.0,245.0,3482.017
3482027.0,217.0,32.0,193.0,241.0,3482.027
3482037.0,217.0,32.0,195.0,240.0,3482.037
3482047.0,212.0,31.0,191.0,238.0,3482.047
3482057.0,220.0,32.0,201.0,247.0,3482.057
3482067.0,223.0,32.0,202.0,247.0,3482.067
3482077.0,215.0,32.0,193.0,241.0,3482.077
3482087.0,218.0,33.0,195.0,242.0,3482.087
3482097.0,213.0,32.0,193.0,241.0,3482.097
3482107.0,221.0,31.0,203.0,248.0,3482.107
3482117.0,224.0,32.0,207.0,249.0,3482.117
3482127.0,217.0,31.0,197.0,242.0,3482.127
3482137.0,218.0,32.0,199.0,242.0,3482.137
3482147.0,216.0,32.0,198.0,242.0,3482.147
3482157.0,219.0,33.0,203.0,248.0,3482.157
3482167.0,225.0,32.0,208.0,250.0,3482.167
3482177.0,216.0,32.0,197.0,242.0,3482.177
3482187.0,219.0,32.0,202.0,243.0,3482.187
3482198.0,216.0,32.0,202.0,244.0,3482.198
3482208.0,222.0,32.0,205.0,249.0,3482.208
3482218.0,222.0,34.0,206.0,247.0,3482.218
3482228.0,213.0,32.0,196.0,239.0,3482.228
3482238.0,217.0,32.0,200.0,242.0,3482.238
3482248.0,219.0,32.0,204.0,245.0,3482.248
3482258.0,223.0,31.0,208.0,250.0,3482.258
3482268.0,223.0,32.0,210.0,248.0,3482.268
3482278.0,215.0,32.0,203.0,241.0,3482.278
3482288.0,219.0,32.0,209.0,244.0,3482.288
3482298.0,220.0,32.0,212.0,247.0,3482.298
3482308.0,221.0,32.0,213.0,247.0,3482.308
3482318.0,223.0,32.0,212.0,245.0,3482.318
3482328.0,215.0,32.0,207.0,241.0,3482.328
3482338.0,218.0,32.0,209.0,244.0,3482.338
3482348.0,222.0,33.0,213.0,251.0,3482.348
3482358.0,222.0,32.0,212.0,250.0,3482.358
3482368.0,224.0,32.0,213.0,250.0,3482.368
3482378.0,216.0,32.0,206.0,242.0,3482.378
3482388.0,219.0,33.0,209.0,245.0,3482.388
3482398.0,224.0,32.0,217.0,250.0,3482.398
3482408.0,223.0,32.0,217.0,249.0,3482.408
3482418.0,225.0,32.0,218.0,250.0,3482.418
3482428.0,217.0,32.0,209.0,242.0,3482.428
3482438.0,220.0,33.0,211.0,246.0,3482.438
3482448.0,225.0,32.0,219.0,253.0,3482.448
3482458.0,225.0,32.0,219.0,253.0,3482.458
3482468.0,224.0,32.0,215.0,249.0,3482.468
3482478.0,217.0,33.0,211.0,243.0,3482.478
3482488.0,220.0,32.0,213.0,246.0,3482.488
3482498.0,222.0,32.0,221.0,250.0,3482.498
3482508.0,226.0,33.0,226.0,254.0,3482.508
3482518.0,226.0,32.0,220.0,251.0,3482.518
3482528.0,217.0,32.0,215.0,243.0,3482.528
3482539.0,221.0,33.0,217.0,249.0,3482.539
3482549.0,227.0,32.0,222.0,254.0,3482.549
3482559.0,223.0,32.0,219.0,249.0,3482.559
3482569.0,225.0,33.0,218.0,249.0,3482.569
3482579.0,217.0,31.0,212.0,243.0,3482.579
3482589.0,222.0,32.0,220.0,251.0,3482.589
3482599.0,228.0,33.0,225.0,257.0,3482.599
3482609.0,222.0,32.0,221.0,252.0,3482.609
3482619.0,223.0,32.0,217.0,250.0,3482.619
3482629.0,216.0,32.0,209.0,243.0,3482.629
3482639.0,224.0,32.0,218.0,251.0,3482.639
3482649.0,230.0,32.0,224.0,257.0,3482.649
3482659.0,223.0,32.0,218.0,252.0,3482.659
3482669.0,226.0,32.0,216.0,253.0,3482.669
3482679.0,217.0,32.0,208.0,244.0,3482.679
3482689.0,224.0,32.0,217.0,254.0,3482.689
3482699.0,230.0,33.0,222.0,257.0,3482.699
3482710.0,222.0,31.0,215.0,250.0,3482.71
3482720.0,225.0,32.0,214.0,249.0,3482.72
3482730.0,226.0,33.0,216.0,252.0,3482.73
3482740.0,233.0,32.0,225.0,258.0,3482.74
3482750.0,235.0,32.0,220.0,254.0,3482.75
3482760.0,227.0,32.0,221.0,254.0,3482.76
3482770.0,229.0,32.0,220.0,254.0,3482.77
3482780.0,225.0,32.0,219.0,253.0,3482.78
3482790.0,231.0,32.0,230.0,261.0,3482.79
3482800.0,233.0,33.0,228.0,261.0,3482.8
3482810.0,227.0,32.0,230.0,257.0,3482.81
3482820.0,228.0,32.0,229.0,258.0,3482.82
3482830.0,225.0,32.0,230.0,257.0,3482.83
3482840.0,227.0,32.0,236.0,264.0,3482.84
3482850.0,231.0,32.0,240.0,265.0,3482.85
3482860.0,219.0,32.0,229.0,255.0,3482.86
3482870.0,224.0,32.0,226.0,251.0,3482.87
3482880.0,219.0,32.0,222.0,250.0,3482.88
3482890.0,231.0,32.0,239.0,265.0,3482.89
3482900.0,240.0,31.0,234.0,261.0,3482.9
3482910.0,231.0,32.0,235.0,255.0,3482.91
3482920.0,227.0,32.0,229.0,251.0,3482.92
3482930.0,219.0,32.0,232.0,256.0,3482.93
3482940.0,231.0,32.0,255.0,279.0,3482.94
3482950.0,224.0,33.0,247.0,270.0,3482.95
3482960.0,209.0,32.0,245.0,264.0,3482.96
3482970.0,214.0,32.0,234.0,262.0,3482.97
3482980.0,224.0,32.0,232.0,253.0,3482.98
3482990.0,235.0,33.0,240.0,261.0,3482.99
3483000.0,226.0,32.0,223.0,247.0,3483.0
3483010.0,223.0,32.0,227.0,243.0,3483.01
3483020.0,231.0,32.0,235.0,250.0,3483.02
3483030.0,235.0,31.0,240.0,246.0,3483.03
3483040.0,242.0,32.0,258.0,255.0,3483.04
3483051.0,245.0,32.0,248.0,250.0,3483.051
3483061.0,231.0,31.0,265.0,255.0,3483.061
3483071.0,240.0,32.0,268.0,260.0,3483.071
3483081.0,245.0,32.0,277.0,268.0,3483.081
3483091.0,246.0,31.0,296.0,267.0,3483.091
3483101.0,242.0,32.0,284.0,256.0,3483.101
3483111.0,232.0,31.0,309.0,252.0,3483.111
3483121.0,236.0,32.0,307.0,264.0,3483.121
3483131.0,242.0,30.0,314.0,256.0,3483.131
3483141.0,244.0,31.0,345.0,254.0,3483.141
3483151.0,246.0,32.0,332.0,253.0,3483.151
3483161.0,240.0,31.0,370.0,257.0,3483.161
3483171.0,244.0,31.0,369.0,263.0,3483.171
3483181.0,242.0,32.0,384.0,260.0,3483.181
3483191.0,235.0,31.0,400.0,256.0,3483.191
3483201.0,236.0,32.0,386.0,258.0,3483.201
3483211.0,230.0,31.0,426.0,256.0,3483.211
3483222.0,234.0,31.0,432.0,274.0,3483.222
3483232.0,248.0,32.0,443.0,301.0,3483.232
3483242.0,243.0,32.0,484.0,308.0,3483.242
3483252.0,245.0,33.0,466.0,318.0,3483.252
3483262.0,235.0,32.0,494.0,303.0,3483.262
3483272.0,233.0,32.0,490.0,299.0,3483.272
3483282.0,239.0,32.0,490.0,304.0,3483.282
3483292.0,233.0,32.0,522.0,296.0,3483.292
3483302.0,235.0,32.0,503.0,293.0,3483.302
3483312.0,228.0,33.0,533.0,283.0,3483.312
3483322.0,233.0,32.0,526.0,281.0,3483.322
3483332.0,240.0,33.0,517.0,290.0,3483.332
3483342.0,236.0,32.0,559.0,292.0,3483.342
3483352.0,242.0,32.0,534.0,301.0,3483.352
3483362.0,232.0,33.0,571.0,298.0,3483.362
3483372.0,240.0,34.0,565.0,289.0,3483.372
3483382.0,243.0,34.0,541.0,288.0,3483.382
3483392.0,238.0,32.0,578.0,290.0,3483.392
3483402.0,241.0,34.0,560.0,299.0,3483.402
3483412.0,239.0,33.0,590.0,294.0,3483.412
3483422.0,240.0,33.0,584.0,294.0,3483.422
3483432.0,246.0,33.0,564.0,299.0,3483.432
3483442.0,237.0,34.0,602.0,312.0,3483.442
3483452.0,237.0,32.0,578.0,316.0,3483.452
3483462.0,231.0,33.0,599.0,301.0,3483.462
3483472.0,231.0,33.0,587.0,306.0,3483.472
3483482.0,238.0,34.0,561.0,308.0,3483.482
3483492.0,233.0,33.0,587.0,300.0,3483.492
3483502.0,228.0,34.0,559.0,289.0,3483.502
3483512.0,220.0,33.0,581.0,291.0,3483.512
3483522.0,227.0,32.0,568.0,297.0,3483.522
3483532.0,236.0,33.0,554.0,299.0,3483.532
3483542.0,230.0,33.0,572.0,292.0,3483.542
3483552.0,232.0,33.0,547.0,302.0,3483.552
3483563.0,227.0,33.0,556.0,295.0,3483.563
3483573.0,240.0,33.0,558.0,300.0,3483.573
3483583.0,245.0,34.0,525.0,294.0,3483.583
3483593.0,237.0,33.0,547.0,284.0,3483.593
3483603.0,243.0,33.0,520.0,285.0,3483.603
3483613.0,247.0,33.0,526.0,284.0,3483.613
3483623.0,252.0,32.0,523.0,287.0,3483.623
3483633.0,251.0,34.0,491.0,287.0,3483.633
3483643.0,240.0,32.0,507.0,279.0,3483.643
3483653.0,243.0,33.0,478.0,282.0,3483.653
3483663.0,239.0,32.0,477.0,275.0,3483.663
3483673.0,245.0,31.0,479.0,288.0,3483.673
3483683.0,246.0,32.0,450.0,296.0,3483.683
3483693.0,241.0,32.0,476.0,309.0,3483.693
3483703.0,244.0,33.0,452.0,316.0,3483.703
3483713.0,241.0,32.0,451.0,311.0,3483.713
3483723.0,245.0,32.0,450.0,321.0,3483.723
3483734.0,244.0,31.0,417.0,323.0,3483.734
3483744.0,233.0,32.0,434.0,335.0,3483.744
3483754.0,232.0,32.0,400.0,337.0,3483.754
3483764.0,235.0,33.0,387.0,330.0,3483.764
3483774.0,230.0,32.0,387.0,321.0,3483.774
3483784.0,233.0,32.0,360.0,305.0,3483.784
3483794.0,231.0,32.0,360.0,304.0,3483.794
3483804.0,238.0,32.0,347.0,307.0,3483.804
3483814.0,242.0,32.0,342.0,309.0,3483.814
3483824.0,243.0,33.0,346.0,322.0,3483.824
3483834.0,248.0,32.0,327.0,338.0,3483.834
3483844.0,239.0,32.0,320.0,327.0,3483.844
3483854.0,239.0,33.0,310.0,331.0,3483.854
3483864.0,242.0,31.0,303.0,330.0,3483.864
3483874.0,241.0,32.0,309.0,347.0,3483.874
3483884.0,244.0,33.0,296.0,337.0,3483.884
3483894.0,229.0,33.0,266.0,318.0,3483.894
3483904.0,233.0,32.0,257.0,309.0,3483.904
3483914.0,237.0,32.0,253.0,296.0,3483.914
3483924.0,238.0,32.0,246.0,289.0,3483.924
3483934.0,240.0,32.0,243.0,290.0,3483.934
3483944.0,227.0,32.0,224.0,281.0,3483.944
3483954.0,232.0,33.0,234.0,293.0,3483.954
3483964.0,241.0,33.0,253.0,324.0,3483.964
3483974.0,237.0,32.0,244.0,319.0,3483.974
3483984.0,238.0,33.0,239.0,303.0,3483.984
3483994.0,237.0,33.0,226.0,294.0,3483.994
3484004.0,249.0,33.0,233.0,295.0,3484.004
3484014.0,254.0,33.0,247.0,322.0,3484.014
3484024.0,235.0,33.0,232.0,313.0,3484.024
3484034.0,238.0,33.0,239.0,309.0,3484.034
3484044.0,226.0,33.0,225.0,296.0,3484.044
3484054.0,235.0,33.0,232.0,295.0,3484.054
3484064.0,238.0,34.0,243.0,296.0,3484.064
3484075.0,248.0,33.0,228.0,288.0,3484.075
3484085.0,256.0,34.0,232.0,275.0,3484.085
3484095.0,249.0,33.0,217.0,268.0,3484.095
3484105.0,253.0,33.0,226.0,275.0,3484.105
3484115.0,257.0,33.0,231.0,278.0,3484.115
3484125.0,249.0,33.0,214.0,269.0,3484.125
3484135.0,250.0,33.0,228.0,270.0,3484.135
3484145.0,235.0,33.0,218.0,267.0,3484.145
3484155.0,241.0,32.0,224.0,279.0,3484.155
3484165.0,249.0,33.0,242.0,292.0,3484.165
3484175.0,247.0,32.0,224.0,283.0,3484.175
3484185.0,255.0,33.0,238.0,283.0,3484.185
3484195.0,244.0,33.0,227.0,287.0,3484.195
3484205.0,243.0,33.0,233.0,291.0,3484.205
3484215.0,252.0,34.0,243.0,291.0,3484.215
3484225.0,243.0,32.0,227.0,279.0,3484.225
3484235.0,243.0,33.0,241.0,277.0,3484.235
3484246.0,243.0,33.0,241.0,286.0,3484.246
3484256.0,250.0,33.0,247.0,295.0,3484.256
3484266.0,255.0,33.0,259.0,285.0,3484.266
3484276.0,243.0,34.0,238.0,275.0,3484.276
3484286.0,248.0,33.0,258.0,283.0,3484.286
3484296.0,249.0,33.0,274.0,311.0,3484.296
3484306.0,254.0,33.0,273.0,314.0,3484.306
3484316.0,252.0,34.0,284.0,312.0,3484.316
3484326.0,237.0,32.0,268.0,299.0,3484.326
3484336.0,233.0,34.0,278.0,285.0,3484.336
3484346.0,235.0,34.0,293.0,292.0,3484.346
3484356.0,238.0,34.0,279.0,285.0,3484.356
3484366.0,238.0,33.0,316.0,295.0,3484.366
3484376.0,232.0,33.0,287.0,291.0,3484.376
3484386.0,230.0,33.0,310.0,306.0,3484.386
3484396.0,233.0,33.0,333.0,311.0,3484.396
3484406.0,237.0,34.0,325.0,312.0,3484.406
3484416.0,239.0,34.0,365.0,300.0,3484.416
3484426.0,234.0,34.0,353.0,303.0,3484.426
3484436.0,238.0,34.0,393.0,307.0,3484.436
3484446.0,240.0,34.0,400.0,303.0,3484.446
3484456.0,239.0,34.0,397.0,292.0,3484.456
3484466.0,242.0,34.0,444.0,287.0,3484.466
3484476.0,233.0,33.0,426.0,272.0,3484.476
3484486.0,232.0,34.0,464.0,267.0,3484.486
3484496.0,240.0,34.0,479.0,292.0,3484.496
3484506.0,241.0,34.0,480.0,298.0,3484.506
3484516.0,242.0,35.0,522.0,293.0,3484.516
3484526.0,232.0,33.0,505.0,290.0,3484.526
3484536.0,235.0,35.0,543.0,293.0,3484.536
3484546.0,235.0,34.0,547.0,305.0,3484.546
3484556.0,239.0,35.0,542.0,303.0,3484.556
3484566.0,242.0,35.0,592.0,304.0,3484.566
3484576.0,231.0,35.0,567.0,292.0,3484.576
3484587.0,234.0,35.0,604.0,297.0,3484.587
3484597.0,241.0,37.0,620.0,298.0,3484.597
3484607.0,237.0,36.0,603.0,289.0,3484.607
3484617.0,237.0,36.0,642.0,284.0,3484.617
3484627.0,228.0,35.0,630.0,270.0,3484.627
3484637.0,231.0,35.0,657.0,270.0,3484.637
3484647.0,237.0,36.0,666.0,282.0,3484.647
3484657.0,235.0,35.0,657.0,276.0,3484.657
3484667.0,235.0,35.0,666.0,272.0,3484.667
3484677.0,228.0,34.0,666.0,262.0,3484.677
3484687.0,233.0,34.0,666.0,272.0,3484.687
3484697.0,245.0,34.0,667.0,281.0,3484.697
3484707.0,240.0,34.0,666.0,281.0,3484.707
3484717.0,241.0,34.0,666.0,284.0,3484.717
3484727.0,232.0,35.0,666.0,272.0,3484.727
3484737.0,238.0,34.0,666.0,283.0,3484.737
3484747.0,245.0,34.0,666.0,293.0,3484.747
3484758.0,239.0,33.0,666.0,286.0,3484.758
3484768.0,241.0,35.0,666.0,282.0,3484.768
3484778.0,233.0,33.0,666.0,274.0,3484.778
3484788.0,242.0,34.0,665.0,281.0,3484.788
3484798.0,243.0,33.0,666.0,272.0,3484.798
3484808.0,237.0,33.0,666.0,272.0,3484.808
3484818.0,238.0,34.0,666.0,272.0,3484.818
3484828.0,236.0,34.0,666.0,275.0,3484.828
3484838.0,244.0,33.0,665.0,281.0,3484.838
3484848.0,245.0,33.0,666.0,279.0,3484.848
3484858.0,235.0,34.0,665.0,265.0,3484.858
3484868.0,235.0,33.0,665.0,260.0,3484.868
3484878.0,233.0,33.0,667.0,264.0,3484.878
3484888.0,238.0,33.0,666.0,272.0,3484.888
3484898.0,240.0,33.0,667.0,272.0,3484.898
3484908.0,234.0,33.0,666.0,266.0,3484.908
3484918.0,236.0,34.0,665.0,268.0,3484.918
3484928.0,229.0,32.0,666.0,260.0,3484.928
3484938.0,237.0,32.0,665.0,264.0,3484.938
3484948.0,239.0,33.0,667.0,262.0,3484.948
3484958.0,231.0,31.0,666.0,253.0,3484.958
3484968.0,233.0,32.0,666.0,257.0,3484.968
3484978.0,227.0,33.0,667.0,250.0,3484.978
3484988.0,238.0,33.0,666.0,264.0,3484.988
3484998.0,240.0,32.0,667.0,262.0,3484.998
3485008.0,231.0,33.0,666.0,256.0,3485.008
3485018.0,237.0,32.0,667.0,262.0,3485.018
3485028.0,232.0,32.0,667.0,261.0,3485.028
3485038.0,241.0,32.0,665.0,271.0,3485.038
3485048.0,241.0,34.0,667.0,267.0,3485.048
3485058.0,235.0,32.0,665.0,258.0,3485.058
3485068.0,235.0,32.0,665.0,258.0,3485.068
3485078.0,232.0,32.0,666.0,255.0,3485.078
3485088.0,241.0,31.0,666.0,263.0,3485.088
3485099.0,240.0,33.0,666.0,260.0,3485.099
3485109.0,231.0,32.0,665.0,253.0,3485.109
3485119.0,233.0,32.0,666.0,254.0,3485.119
3485129.0,237.0,32.0,667.0,261.0,3485.129
3485139.0,237.0,32.0,666.0,261.0,3485.139
3485149.0,240.0,31.0,666.0,259.0,3485.149
3485159.0,230.0,32.0,666.0,251.0,3485.159
3485169.0,232.0,32.0,666.0,256.0,3485.169
3485179.0,239.0,33.0,666.0,264.0,3485.179
3485189.0,238.0,32.0,665.0,262.0,3485.189
3485199.0,237.0,33.0,666.0,259.0,3485.199
3485209.0,228.0,31.0,667.0,251.0,3485.209
3485219.0,233.0,32.0,666.0,257.0,3485.219
3485229.0,233.0,32.0,667.0,260.0,3485.229
3485239.0,236.0,33.0,665.0,261.0,3485.239
3485249.0,235.0,32.0,666.0,258.0,3485.249
3485259.0,226.0,32.0,666.0,249.0,3485.259
3485270.0,231.0,32.0,666.0,259.0,3485.27
3485280.0,238.0,31.0,667.0,264.0,3485.28
3485290.0,232.0,32.0,666.0,258.0,3485.29
3485300.0,233.0,32.0,666.0,258.0,3485.3
3485310.0,225.0,32.0,666.0,248.0,3485.31
3485320.0,232.0,32.0,666.0,257.0,3485.32
3485330.0,238.0,32.0,666.0,264.0,3485.33
3485340.0,232.0,31.0,666.0,255.0,3485.34
3485350.0,232.0,32.0,666.0,255.0,3485.35
3485360.0,225.0,32.0,666.0,248.0,3485.36
3485370.0,231.0,33.0,665.0,259.0,3485.37
3485380.0,236.0,32.0,666.0,262.0,3485.38
3485390.0,230.0,32.0,666.0,254.0,3485.39
3485400.0,232.0,32.0,667.0,252.0,3485.4
3485410.0,223.0,31.0,666.0,241.0,3485.41
3485420.0,231.0,32.0,666.0,253.0,3485.42
3485430.0,236.0,32.0,666.0,259.0,3485.43
3485440.0,232.0,32.0,666.0,254.0,3485.44
3485450.0,231.0,32.0,666.0,253.0,3485.45
3485460.0,223.0,32.0,667.0,246.0,3485.46
3485470.0,232.0,31.0,666.0,255.0,3485.47
3485480.0,235.0,32.0,667.0,257.0,3485.48
3485490.0,230.0,32.0,666.0,255.0,3485.49
3485500.0,229.0,33.0,666.0,254.0,3485.5
3485510.0,221.0,32.0,666.0,246.0,3485.51
3485520.0,230.0,32.0,666.0,259.0,3485.52
3485530.0,234.0,33.0,668.0,262.0,3485.53
3485540.0,227.0,31.0,665.0,257.0,3485.54
3485550.0,228.0,32.0,666.0,256.0,3485.55
3485560.0,221.0,33.0,666.0,253.0,3485.56
3485570.0,227.0,32.0,666.0,260.0,3485.57
3485580.0,233.0,32.0,666.0,264.0,3485.58
3485590.0,228.0,32.0,666.0,258.0,3485.59
3485600.0,229.0,32.0,666.0,258.0,3485.6
3485611.0,222.0,33.0,666.0,255.0,3485.611
3485621.0,232.0,32.0,665.0,264.0,3485.621
3485631.0,233.0,33.0,666.0,263.0,3485.631
3485641.0,224.0,32.0,665.0,253.0,3485.641
3485651.0,227.0,32.0,666.0,256.0,3485.651
3485661.0,225.0,33.0,666.0,254.0,3485.661
3485671.0,232.0,32.0,665.0,263.0,3485.671
3485681.0,233.0,32.0,666.0,257.0,3485.681
3485691.0,224.0,33.0,666.0,251.0,3485.691
3485701.0,228.0,32.0,666.0,254.0,3485.701
3485711.0,224.0,33.0,667.0,251.0,3485.711
3485721.0,231.0,32.0,666.0,259.0,3485.721
3485731.0,233.0,33.0,666.0,258.0,3485.731
3485741.0,226.0,32.0,665.0,252.0,3485.741
3485751.0,228.0,32.0,665.0,254.0,3485.751
3485761.0,226.0,33.0,666.0,256.0,3485.761
3485771.0,232.0,32.0,666.0,262.0,3485.771
3485782.0,231.0,33.0,666.0,260.0,3485.782
3485792.0,224.0,31.0,666.0,251.0,3485.792
3485802.0,226.0,32.0,665.0,255.0,3485.802
3485812.0,232.0,32.0,666.0,260.0,3485.812
3485822.0,230.0,33.0,666.0,258.0,3485.822
3485832.0,231.0,32.0,665.0,258.0,3485.832
3485842.0,222.0,32.0,666.0,250.0,3485.842
3485852.0,226.0,32.0,666.0,255.0,3485.852
3485862.0,231.0,32.0,667.0,261.0,3485.862
3485872.0,231.0,32.0,666.0,265.0,3485.872
3485882.0,231.0,33.0,666.0,265.0,3485.882
3485892.0,222.0,32.0,666.0,254.0,3485.892
3485902.0,227.0,32.0,666.0,260.0,3485.902
3485912.0,230.0,32.0,666.0,265.0,3485.912
3485922.0,232.0,31.0,666.0,264.0,3485.922
3485932.0,230.0,33.0,665.0,260.0,3485.932
3485942.0,222.0,32.0,648.0,251.0,3485.942
3485952.0,227.0,33.0,658.0,259.0,3485.952
3485962.0,231.0,32.0,633.0,264.0,3485.962
3485972.0,231.0,33.0,623.0,264.0,3485.972
3485982.0,232.0,33.0,628.0,261.0,3485.982
3485992.0,222.0,33.0,603.0,252.0,3485.992
3486002.0,227.0,33.0,613.0,257.0,3486.002
3486012.0,232.0,34.0,590.0,265.0,3486.012
3486022.0,232.0,32.0,575.0,262.0,3486.022
3486032.0,231.0,33.0,576.0,258.0,3486.032
3486042.0,225.0,33.0,555.0,254.0,3486.042
3486052.0,228.0,33.0,561.0,259.0,3486.052
3486062.0,234.0,33.0,543.0,264.0,3486.062
3486072.0,231.0,32.0,528.0,258.0,3486.072
3486082.0,233.0,33.0,528.0,259.0,3486.082
3486092.0,223.0,32.0,509.0,250.0,3486.092
3486102.0,226.0,32.0,512.0,252.0,3486.102
3486112.0,234.0,31.0,494.0,258.0,3486.112
3486123.0,229.0,31.0,483.0,253.0,3486.123
3486133.0,228.0,32.0,482.0,251.0,3486.133
3486143.0,221.0,33.0,463.0,245.0,3486.143
3486153.0,231.0,32.0,462.0,253.0,3486.153
3486163.0,233.0,32.0,449.0,255.0,3486.163
3486173.0,230.0,31.0,437.0,251.0,3486.173
3486183.0,229.0,31.0,435.0,252.0,3486.183
3486193.0,222.0,31.0,417.0,247.0,3486.193
3486203.0,232.0,32.0,415.0,260.0,3486.203
3486213.0,235.0,32.0,404.0,260.0,3486.213
3486223.0,230.0,31.0,394.0,254.0,3486.223
3486233.0,229.0,31.0,392.0,254.0,3486.233
3486243.0,224.0,31.0,375.0,251.0,3486.243
3486253.0,228.0,32.0,377.0,258.0,3486.253
3486263.0,234.0,31.0,364.0,261.0,3486.263
3486273.0,228.0,32.0,352.0,254.0,3486.273
3486283.0,229.0,30.0,349.0,256.0,3486.283
3486294.0,224.0,31.0,336.0,255.0,3486.294
3486304.0,234.0,31.0,335.0,263.0,3486.304
3486314.0,233.0,31.0,325.0,260.0,3486.314
3486324.0,224.0,31.0,314.0,251.0,3486.324
3486334.0,227.0,32.0,312.0,257.0,3486.334
3486344.0,226.0,31.0,299.0,256.0,3486.344
3486354.0,233.0,31.0,296.0,260.0,3486.354
3486364.0,232.0,32.0,287.0,257.0,3486.364
3486374.0,225.0,31.0,277.0,250.0,3486.374
3486384.0,228.0,32.0,275.0,254.0,3486.384
3486394.0,227.0,32.0,265.0,256.0,3486.394
3486404.0,233.0,32.0,263.0,260.0,3486.404
3486414.0,232.0,32.0,256.0,256.0,3486.414
3486424.0,226.0,31.0,249.0,251.0,3486.424
3486434.0,229.0,31.0,246.0,254.0,3486.434
3486444.0,230.0,32.0,236.0,257.0,3486.444
3486454.0,233.0,32.0,233.0,261.0,3486.454
3486464.0,234.0,33.0,227.0,262.0,3486.464
3486474.0,226.0,31.0,222.0,252.0,3486.474
3486484.0,228.0,32.0,217.0,257.0,3486.484
3486494.0,231.0,32.0,211.0,259.0,3486.494
3486504.0,233.0,31.0,206.0,262.0,3486.504
3486514.0,234.0,32.0,199.0,262.0,3486.514
3486524.0,225.0,32.0,194.0,254.0,3486.524
3486534.0,227.0,32.0,189.0,255.0,3486.534
3486544.0,231.0,32.0,184.0,259.0,3486.544
3486554.0,232.0,32.0,179.0,261.0,3486.554
3486564.0,234.0,32.0,173.0,258.0,3486.564
3486574.0,224.0,32.0,168.0,251.0,3486.574
3486584.0,227.0,33.0,164.0,255.0,3486.584
3486594.0,226.0,33.0,159.0,259.0,3486.594
3486604.0,233.0,32.0,155.0,263.0,3486.604
3486614.0,232.0,32.0,150.0,258.0,3486.614
3486624.0,226.0,32.0,147.0,250.0,3486.624
3486635.0,227.0,33.0,142.0,254.0,3486.635
3486645.0,232.0,32.0,137.0,259.0,3486.645
3486655.0,231.0,33.0,133.0,252.0,3486.655
3486665.0,229.0,32.0,129.0,251.0,3486.665
3486675.0,221.0,32.0,125.0,244.0,3486.675
3486685.0,227.0,33.0,121.0,250.0,3486.685
3486695.0,233.0,33.0,117.0,256.0,3486.695
3486705.0,230.0,33.0,113.0,252.0,3486.705
3486715.0,230.0,33.0,109.0,251.0,3486.715
3486725.0,223.0,33.0,106.0,247.0,3486.725
3486735.0,227.0,33.0,103.0,253.0,3486.735
3486745.0,233.0,33.0,97.0,258.0,3486.745
3486755.0,229.0,32.0,94.0,254.0,3486.755
3486765.0,230.0,32.0,91.0,255.0,3486.765
3486775.0,222.0,32.0,88.0,247.0,3486.775
3486785.0,228.0,34.0,83.0,258.0,3486.785
3486795.0,234.0,32.0,80.0,261.0,3486.795
3486806.0,229.0,33.0,77.0,258.0,3486.806
3486816.0,230.0,33.0,75.0,256.0,3486.816
3486826.0,224.0,32.0,71.0,252.0,3486.826
3486836.0,232.0,32.0,68.0,261.0,3486.836
3486846.0,234.0,33.0,64.0,260.0,3486.846
3486856.0,228.0,33.0,62.0,256.0,3486.856
3486866.0,228.0,32.0,59.0,254.0,3486.866
3486876.0,224.0,33.0,57.0,252.0,3486.876
3486886.0,234.0,31.0,54.0,261.0,3486.886
3486896.0,234.0,33.0,51.0,263.0,3486.896
3486906.0,228.0,32.0,49.0,257.0,3486.906
3486916.0,228.0,33.0,46.0,257.0,3486.916
3486926.0,225.0,32.0,45.0,255.0,3486.926
3486936.0,229.0,33.0,41.0,259.0,3486.936
3486946.0,233.0,32.0,40.0,260.0,3486.946
3486956.0,227.0,31.0,38.0,255.0,3486.956
3486966.0,228.0,32.0,37.0,255.0,3486.966
3486976.0,221.0,32.0,34.0,249.0,3486.976
3486986.0,229.0,32.0,31.0,258.0,3486.986
3486996.0,233.0,33.0,29.0,260.0,3486.996
3487006.0,226.0,32.0,29.0,251.0,3487.006
3487016.0,227.0,32.0,26.0,253.0,3487.016
3487026.0,221.0,32.0,25.0,249.0,3487.026
3487036.0,230.0,32.0,23.0,260.0,3487.036
3487046.0,232.0,32.0,20.0,260.0,3487.046
3487056.0,225.0,32.0,20.0,254.0,3487.056
3487066.0,228.0,32.0,17.0,257.0,3487.066
3487076.0,222.0,31.0,17.0,253.0,3487.076
3487086.0,230.0,32.0,15.0,262.0,3487.086
3487096.0,233.0,32.0,15.0,261.0,3487.096
3487106.0,226.0,31.0,13.0,257.0,3487.106
3487116.0,227.0,32.0,12.0,259.0,3487.116
3487126.0,224.0,33.0,11.0,256.0,3487.126
3487136.0,233.0,32.0,11.0,264.0,3487.136
3487147.0,233.0,32.0,9.0,262.0,3487.147
3487157.0,225.0,31.0,9.0,253.0,3487.157
3487167.0,227.0,33.0,8.0,257.0,3487.167
3487177.0,230.0,32.0,8.0,260.0,3487.177
3487187.0,231.0,31.0,7.0,260.0,3487.187
3487197.0,232.0,32.0,7.0,258.0,3487.197
3487207.0,225.0,31.0,7.0,250.0,3487.207
3487217.0,226.0,32.0,6.0,251.0,3487.217
3487227.0,230.0,32.0,6.0,258.0,3487.227
3487237.0,231.0,32.0,6.0,261.0,3487.237
3487247.0,231.0,32.0,6.0,258.0,3487.247
3487257.0,223.0,32.0,5.0,249.0,3487.257
3487267.0,227.0,32.0,6.0,253.0,3487.267
3487277.0,228.0,32.0,5.0,256.0,3487.277
3487287.0,232.0,32.0,5.0,259.0,3487.287
3487297.0,230.0,33.0,5.0,258.0,3487.297
3487307.0,223.0,30.0,5.0,251.0,3487.307
3487318.0,226.0,32.0,5.0,256.0,3487.318
3487328.0,233.0,32.0,6.0,261.0,3487.328
3487338.0,231.0,31.0,4.0,256.0,3487.338
3487348.0,230.0,32.0,4.0,255.0,3487.348
3487358.0,223.0,32.0,4.0,250.0,3487.358
3487368.0,228.0,33.0,5.0,256.0,3487.368
3487378.0,235.0,32.0,4.0,265.0,3487.378
3487388.0,232.0,32.0,5.0,258.0,3487.388
3487398.0,232.0,32.0,5.0,256.0,3487.398
3487408.0,224.0,32.0,4.0,250.0,3487.408
3487418.0,230.0,32.0,4.0,260.0,3487.418
3487428.0,235.0,33.0,3.0,265.0,3487.428
3487438.0,232.0,32.0,4.0,257.0,3487.438
3487448.0,231.0,33.0,4.0,257.0,3487.448
3487458.0,224.0,32.0,5.0,248.0,3487.458
3487468.0,231.0,31.0,4.0,258.0,3487.468
3487478.0,235.0,32.0,5.0,260.0,3487.478
3487488.0,234.0,31.0,4.0,257.0,3487.488
3487498.0,231.0,32.0,4.0,254.0,3487.498
3487508.0,224.0,32.0,4.0,247.0,3487.508
3487518.0,231.0,33.0,4.0,258.0,3487.518
3487528.0,236.0,33.0,4.0,260.0,3487.528
3487538.0,232.0,32.0,4.0,256.0,3487.538
3487548.0,230.0,32.0,4.0,253.0,3487.548
3487558.0,223.0,33.0,3.0,246.0,3487.558
3487568.0,232.0,32.0,4.0,258.0,3487.568
3487578.0,235.0,34.0,3.0,262.0,3487.578
3487588.0,233.0,32.0,5.0,258.0,3487.588
3487598.0,231.0,32.0,4.0,258.0,3487.598
3487608.0,225.0,32.0,4.0,252.0,3487.608
3487618.0,229.0,33.0,4.0,258.0,3487.618
3487628.0,235.0,33.0,4.0,262.0,3487.628
3487638.0,231.0,32.0,4.0,256.0,3487.638
3487648.0,230.0,32.0,5.0,255.0,3487.648
3487659.0,224.0,32.0,4.0,252.0,3487.659
3487669.0,232.0,33.0,4.0,261.0,3487.669
3487679.0,235.0,32.0,4.0,261.0,3487.679
3487689.0,229.0,33.0,3.0,256.0,3487.689
3487699.0,230.0,32.0,4.0,258.0,3487.699
3487709.0,226.0,33.0,3.0,256.0,3487.709
3487719.0,234.0,32.0,5.0,265.0,3487.719
3487729.0,233.0,33.0,4.0,262.0,3487.729
3487739.0,226.0,32.0,4.0,253.0,3487.739
3487749.0,229.0,32.0,4.0,256.0,3487.749
3487759.0,226.0,32.0,4.0,253.0,3487.759
3487769.0,232.0,32.0,4.0,259.0,3487.769
3487779.0,233.0,32.0,5.0,256.0,3487.779
3487789.0,227.0,31.0,4.0,252.0,3487.789
3487799.0,228.0,32.0,4.0,251.0,3487.799
3487809.0,225.0,33.0,4.0,252.0,3487.809
3487819.0,232.0,32.0,3.0,258.0,3487.819
3487830.0,231.0,32.0,4.0,254.0,3487.83
3487840.0,224.0,32.0,4.0,248.0,3487.84
3487850.0,227.0,32.0,4.0,253.0,3487.85
3487860.0,231.0,32.0,4.0,261.0,3487.86
3487870.0,230.0,32.0,4.0,257.0,3487.87
3487880.0,231.0,33.0,3.0,256.0,3487.88
3487890.0,222.0,32.0,4.0,250.0,3487.89
3487900.0,225.0,32.0,4.0,255.0,3487.9
3487910.0,233.0,32.0,5.0,262.0,3487.91
3487920.0,231.0,33.0,4.0,262.0,3487.92
3487930.0,231.0,32.0,4.0,260.0,3487.93
3487940.0,221.0,32.0,3.0,253.0,3487.94
3487950.0,225.0,32.0,3.0,258.0,3487.95
3487960.0,228.0,32.0,4.0,260.0,3487.96
3487970.0,230.0,32.0,4.0,262.0,3487.97
3487980.0,229.0,31.0,4.0,258.0,3487.98
3487990.0,220.0,32.0,5.0,250.0,3487.99
3488000.0,225.0,31.0,5.0,257.0,3488.0
3488010.0,229.0,32.0,5.0,262.0,3488.01
3488020.0,231.0,31.0,8.0,263.0,3488.02
3488030.0,229.0,32.0,8.0,260.0,3488.03
3488040.0,221.0,31.0,8.0,250.0,3488.04
3488050.0,227.0,32.0,6.0,257.0,3488.05
3488060.0,231.0,32.0,8.0,261.0,3488.06
3488070.0,230.0,33.0,10.0,258.0,3488.07
3488080.0,230.0,32.0,10.0,257.0,3488.08
3488090.0,224.0,32.0,13.0,251.0,3488.09
3488100.0,227.0,32.0,13.0,254.0,3488.1
3488110.0,233.0,32.0,15.0,262.0,3488.11
3488120.0,230.0,32.0,16.0,257.0,3488.12
3488130.0,231.0,32.0,16.0,256.0,3488.13
3488140.0,223.0,32.0,23.0,248.0,3488.14
3488150.0,227.0,32.0,20.0,254.0,3488.15
3488160.0,233.0,33.0,24.0,260.0,3488.16
3488171.0,232.0,31.0,30.0,257.0,3488.171
3488181.0,230.0,33.0,26.0,258.0,3488.181
3488191.0,222.0,32.0,30.0,250.0,3488.191
3488201.0,230.0,33.0,27.0,261.0,3488.201
3488211.0,234.0,32.0,32.0,262.0,3488.211
3488221.0,229.0,32.0,36.0,257.0,3488.221
3488231.0,230.0,32.0,33.0,256.0,3488.231
3488241.0,222.0,32.0,37.0,250.0,3488.241
3488251.0,231.0,32.0,37.0,261.0,3488.251
3488261.0,234.0,33.0,41.0,265.0,3488.261
3488271.0,229.0,32.0,46.0,256.0,3488.271
3488281.0,229.0,32.0,41.0,256.0,3488.281
3488291.0,224.0,32.0,49.0,251.0,3488.291
3488301.0,230.0,31.0,44.0,257.0,3488.301
3488311.0,235.0,32.0,53.0,265.0,3488.311
3488321.0,229.0,32.0,57.0,258.0,3488.321
3488331.0,229.0,33.0,49.0,257.0,3488.331
3488342.0,224.0,32.0,60.0,256.0,3488.342
3488352.0,233.0,32.0,60.0,262.0,3488.352
3488362.0,233.0,32.0,57.0,258.0,3488.362
3488372.0,225.0,31.0,66.0,250.0,3488.372
3488382.0,227.0,31.0,58.0,252.0,3488.382
3488392.0,225.0,33.0,67.0,252.0,3488.392
3488402.0,232.0,32.0,74.0,260.0,3488.402
3488412.0,232.0,31.0,69.0,256.0,3488.412
3488422.0,224.0,31.0,79.0,247.0,3488.422
3488432.0,225.0,31.0,70.0,249.0,3488.432
3488442.0,224.0,32.0,80.0,250.0,3488.442
3488452.0,230.0,32.0,87.0,259.0,3488.452
3488462.0,230.0,32.0,83.0,257.0,3488.462
3488472.0,225.0,31.0,95.0,251.0,3488.472
3488482.0,227.0,31.0,84.0,252.0,3488.482
3488492.0,228.0,31.0,96.0,255.0,3488.492
3488502.0,231.0,31.0,105.0,259.0,3488.502
3488512.0,234.0,31.0,97.0,259.0,3488.512
3488522.0,225.0,31.0,107.0,249.0,3488.522
3488532.0,228.0,31.0,96.0,252.0,3488.532
3488542.0,229.0,31.0,108.0,254.0,3488.542
3488552.0,233.0,31.0,119.0,256.0,3488.552
3488562.0,232.0,31.0,110.0,255.0,3488.562
3488572.0,225.0,30.0,123.0,247.0,3488.572
3488582.0,227.0,32.0,112.0,252.0,3488.582
3488592.0,230.0,30.0,125.0,256.0,3488.592
3488602.0,232.0,30.0,132.0,256.0,3488.602
3488612.0,233.0,31.0,125.0,255.0,3488.612
3488622.0,224.0,30.0,137.0,247.0,3488.622
3488632.0,226.0,31.0,126.0,249.0,3488.632
3488642.0,225.0,31.0,138.0,251.0,3488.642
3488652.0,232.0,31.0,146.0,258.0,3488.652
3488662.0,232.0,30.0,140.0,260.0,3488.662
3488672.0,224.0,30.0,153.0,252.0,3488.672
3488683.0,227.0,31.0,142.0,255.0,3488.683
3488693.0,231.0,31.0,148.0,263.0,3488.693
3488703.0,230.0,31.0,159.0,259.0,3488.703
3488713.0,230.0,32.0,147.0,258.0,3488.713
3488723.0,220.0,30.0,159.0,250.0,3488.723
3488733.0,225.0,30.0,151.0,254.0,3488.733
3488743.0,232.0,31.0,157.0,261.0,3488.743
3488753.0,230.0,30.0,168.0,259.0,3488.753
3488763.0,228.0,30.0,155.0,256.0,3488.763
3488773.0,223.0,30.0,168.0,252.0,3488.773
3488783.0,226.0,30.0,160.0,256.0,3488.783
3488793.0,233.0,30.0,165.0,262.0,3488.793
3488803.0,230.0,30.0,177.0,257.0,3488.803
3488813.0,231.0,30.0,168.0,257.0,3488.813
3488823.0,222.0,30.0,177.0,249.0,3488.823
3488833.0,227.0,29.0,175.0,257.0,3488.833
3488843.0,233.0,31.0,178.0,263.0,3488.843
3488854.0,229.0,30.0,188.0,258.0,3488.854
3488864.0,228.0,30.0,175.0,255.0,3488.864
3488874.0,222.0,30.0,183.0,249.0,3488.874
3488884.0,230.0,30.0,191.0,261.0,3488.884
3488894.0,233.0,30.0,187.0,259.0,3488.894
3488904.0,229.0,31.0,198.0,255.0,3488.904
3488914.0,228.0,30.0,188.0,254.0,3488.914
3488924.0,223.0,30.0,195.0,250.0,3488.924
3488934.0,232.0,30.0,206.0,261.0,3488.934
3488944.0,234.0,30.0,199.0,259.0,3488.944
3488954.0,228.0,30.0,208.0,253.0,3488.954
3488964.0,229.0,30.0,197.0,253.0,3488.964
3488974.0,225.0,30.0,207.0,252.0,3488.974
3488984.0,230.0,30.0,211.0,257.0,3488.984
3488994.0,233.0,30.0,209.0,259.0,3488.994
3489004.0,228.0,29.0,219.0,253.0,3489.004
3489014.0,228.0,30.0,210.0,254.0,3489.014
3489024.0,221.0,29.0,215.0,248.0,3489.024
3489034.0,230.0,31.0,219.0,260.0,3489.034
3489044.0,234.0,30.0,215.0,260.0,3489.044
3489054.0,227.0,30.0,225.0,252.0,3489.054
3489064.0,229.0,30.0,217.0,253.0,3489.064
3489074.0,222.0,30.0,221.0,247.0,3489.074
3489084.0,231.0,29.0,230.0,258.0,3489.084
3489094.0,235.0,31.0,225.0,259.0,3489.094
3489104.0,226.0,30.0,230.0,248.0,3489.104
3489114.0,228.0,30.0,221.0,252.0,3489.114
3489124.0,222.0,30.0,226.0,248.0,3489.124
3489134.0,231.0,30.0,238.0,259.0,3489.134
3489144.0,234.0,30.0,230.0,258.0,3489.144
3489154.0,228.0,29.0,237.0,253.0,3489.154
3489164.0,228.0,30.0,228.0,254.0,3489.164
3489174.0,223.0,28.0,233.0,250.0,3489.174
3489184.0,231.0,30.0,242.0,257.0,3489.184
3489195.0,234.0,30.0,234.0,255.0,3489.195
3489205.0,224.0,30.0,240.0,248.0,3489.205
3489215.0,226.0,29.0,232.0,251.0,3489.215
3489225.0,229.0,31.0,238.0,257.0,3489.225
3489235.0,230.0,30.0,247.0,257.0,3489.235
3489245.0,232.0,31.0,237.0,257.0,3489.245
3489255.0,224.0,30.0,244.0,250.0,3489.255
3489265.0,226.0,30.0,238.0,253.0,3489.265
3489275.0,231.0,30.0,243.0,261.0,3489.275
3489285.0,232.0,31.0,254.0,262.0,3489.285
3489295.0,233.0,31.0,242.0,258.0,3489.295
3489305.0,224.0,30.0,248.0,251.0,3489.305
3489315.0,227.0,31.0,241.0,255.0,3489.315
3489325.0,228.0,31.0,244.0,256.0,3489.325
3489335.0,232.0,31.0,253.0,261.0,3489.335
3489345.0,232.0,30.0,241.0,257.0,3489.345
3489355.0,224.0,31.0,251.0,252.0,3489.355
3489366.0,227.0,30.0,248.0,257.0,3489.366
3489376.0,233.0,31.0,252.0,263.0,3489.376
3489386.0,231.0,30.0,261.0,259.0,3489.386
3489396.0,230.0,31.0,248.0,255.0,3489.396
3489406.0,221.0,31.0,251.0,246.0,3489.406
3489416.0,226.0,32.0,251.0,255.0,3489.416
3489426.0,233.0,32.0,254.0,260.0,3489.426
3489436.0,229.0,31.0,257.0,253.0,3489.436
3489446.0,228.0,32.0,248.0,253.0,3489.446
3489456.0,222.0,31.0,254.0,249.0,3489.456
3489466.0,226.0,32.0,253.0,255.0,3489.466
3489476.0,233.0,31.0,253.0,259.0,3489.476
3489486.0,227.0,32.0,257.0,253.0,3489.486
3489496.0,230.0,32.0,248.0,253.0,3489.496
3489506.0,221.0,32.0,253.0,245.0,3489.506
3489516.0,228.0,31.0,257.0,255.0,3489.516
3489526.0,233.0,33.0,258.0,262.0,3489.526
3489536.0,230.0,32.0,264.0,256.0,3489.536
3489546.0,229.0,33.0,252.0,255.0,3489.546
3489556.0,221.0,32.0,258.0,244.0,3489.556
3489566.0,229.0,32.0,261.0,254.0,3489.566
3489576.0,234.0,32.0,261.0,258.0,3489.576
3489586.0,230.0,31.0,269.0,254.0,3489.586
3489596.0,228.0,33.0,256.0,251.0,3489.596
3489606.0,221.0,33.0,260.0,246.0,3489.606
3489616.0,229.0,33.0,268.0,258.0,3489.616
3489626.0,233.0,32.0,267.0,260.0,3489.626
3489636.0,229.0,33.0,271.0,254.0,3489.636
3489646.0,230.0,33.0,260.0,253.0,3489.646
3489656.0,221.0,33.0,262.0,245.0,3489.656
3489666.0,226.0,33.0,263.0,252.0,3489.666
3489676.0,233.0,33.0,267.0,258.0,3489.676
3489686.0,229.0,32.0,274.0,253.0,3489.686
3489696.0,229.0,33.0,261.0,254.0,3489.696
3489707.0,222.0,32.0,264.0,248.0,3489.707
3489717.0,230.0,32.0,266.0,257.0,3489.717
3489727.0,233.0,33.0,260.0,257.0,3489.727
3489737.0,225.0,33.0,266.0,251.0,3489.737
3489747.0,227.0,32.0,259.0,252.0,3489.747
3489757.0,222.0,32.0,262.0,251.0,3489.757
3489767.0,230.0,33.0,270.0,261.0,3489.767
3489777.0,233.0,33.0,262.0,259.0,3489.777
3489787.0,224.0,32.0,268.0,249.0,3489.787
3489797.0,228.0,33.0,260.0,253.0,3489.797
3489807.0,222.0,34.0,264.0,250.0,3489.807
3489817.0,230.0,32.0,271.0,258.0,3489.817
3489827.0,232.0,33.0,260.0,256.0,3489.827
3489837.0,226.0,32.0,270.0,253.0,3489.837
3489847.0,228.0,32.0,262.0,254.0,3489.847
3489857.0,225.0,32.0,264.0,253.0,3489.857
3489867.0,231.0,32.0,275.0,263.0,3489.867
3489878.0,233.0,32.0,264.0,260.0,3489.878
3489888.0,223.0,32.0,270.0,252.0,3489.888
3489898.0,227.0,32.0,264.0,254.0,3489.898
3489908.0,230.0,33.0,271.0,262.0,3489.908
3489918.0,230.0,32.0,277.0,259.0,3489.918
3489928.0,232.0,33.0,265.0,261.0,3489.928
3489938.0,223.0,32.0,270.0,251.0,3489.938
3489948.0,226.0,32.0,265.0,252.0,3489.948
3489958.0,231.0,32.0,271.0,259.0,3489.958
3489968.0,232.0,31.0,276.0,258.0,3489.968
3489978.0,230.0,32.0,262.0,255.0,3489.978
3489988.0,222.0,32.0,271.0,247.0,3489.988
3489998.0,226.0,33.0,267.0,254.0,3489.998
3490008.0,228.0,32.0,272.0,256.0,3490.008
3490018.0,231.0,31.0,279.0,257.0,3490.018
3490028.0,231.0,32.0,265.0,255.0,3490.028
3490038.0,222.0,31.0,270.0,246.0,3490.038
3490048.0,226.0,33.0,265.0,251.0,3490.048
3490058.0,229.0,32.0,271.0,257.0,3490.058
3490068.0,230.0,32.0,276.0,256.0,3490.068
3490078.0,229.0,32.0,263.0,254.0,3490.078
3490088.0,221.0,32.0,270.0,245.0,3490.088
3490098.0,227.0,31.0,267.0,251.0,3490.098
3490108.0,230.0,33.0,271.0,256.0,3490.108
3490118.0,230.0,32.0,272.0,255.0,3490.118
3490128.0,229.0,33.0,259.0,252.0,3490.128
3490138.0,222.0,32.0,264.0,245.0,3490.138
3490148.0,224.0,32.0,258.0,249.0,3490.148
3490158.0,232.0,32.0,267.0,258.0,3490.158
3490168.0,230.0,32.0,271.0,256.0,3490.168
3490178.0,230.0,32.0,261.0,255.0,3490.178
3490188.0,223.0,33.0,267.0,248.0,3490.188
3490198.0,226.0,33.0,261.0,252.0,3490.198
3490208.0,231.0,33.0,267.0,258.0,3490.208
3490219.0,229.0,32.0,274.0,255.0,3490.219
3490229.0,228.0,33.0,261.0,254.0,3490.229
3490239.0,220.0,32.0,263.0,248.0,3490.239
3490249.0,229.0,32.0,271.0,259.0,3490.249
3490259.0,233.0,33.0,267.0,261.0,3490.259
3490269.0,229.0,32.0,273.0,257.0,3490.269
3490279.0,228.0,33.0,260.0,256.0,3490.279
3490289.0,222.0,32.0,261.0,248.0,3490.289
3490299.0,230.0,32.0,270.0,259.0,3490.299
3490309.0,234.0,33.0,267.0,261.0,3490.309
3490319.0,229.0,33.0,271.0,257.0,3490.319
3490329.0,229.0,32.0,262.0,256.0,3490.329
3490339.0,222.0,32.0,264.0,250.0,3490.339
3490349.0,228.0,33.0,266.0,257.0,3490.349
3490359.0,234.0,33.0,266.0,262.0,3490.359
3490369.0,229.0,32.0,269.0,256.0,3490.369
3490379.0,229.0,33.0,259.0,257.0,3490.379
3490390.0,223.0,33.0,259.0,251.0,3490.39
3490400.0,232.0,32.0,268.0,260.0,3490.4
3490410.0,234.0,33.0,261.0,258.0,3490.41
3490420.0,226.0,31.0,263.0,250.0,3490.42
3490430.0,227.0,32.0,254.0,252.0,3490.43
3490440.0,225.0,33.0,256.0,253.0,3490.44
3490450.0,232.0,33.0,264.0,261.0,3490.45
3490460.0,234.0,32.0,254.0,260.0,3490.46
3490470.0,224.0,33.0,259.0,251.0,3490.47
3490480.0,229.0,33.0,256.0,255.0,3490.48
3490490.0,224.0,33.0,258.0,253.0,3490.49
3490500.0,231.0,32.0,268.0,260.0,3490.5
3490510.0,233.0,34.0,262.0,260.0,3490.51
3490520.0,225.0,32.0,267.0,254.0,3490.52
3490530.0,227.0,32.0,260.0,256.0,3490.53
3490540.0,224.0,33.0,263.0,257.0,3490.54
3490550.0,230.0,32.0,270.0,261.0,3490.55
3490560.0,232.0,32.0,261.0,261.0,3490.56
3490570.0,223.0,33.0,266.0,253.0,3490.57
3490580.0,225.0,33.0,259.0,255.0,3490.58
3490590.0,225.0,32.0,264.0,256.0,3490.59
3490600.0,229.0,32.0,269.0,259.0,3490.6
3490610.0,233.0,33.0,262.0,259.0,3490.61
3490620.0,223.0,32.0,267.0,251.0,3490.62
3490630.0,226.0,32.0,260.0,252.0,3490.63
3490640.0,227.0,33.0,267.0,258.0,3490.64
3490650.0,229.0,32.0,271.0,258.0,3490.65
3490660.0,231.0,32.0,264.0,260.0,3490.66
3490670.0,223.0,32.0,271.0,250.0,3490.67
3490680.0,224.0,33.0,262.0,254.0,3490.68
3490690.0,222.0,32.0,265.0,253.0,3490.69
3490700.0,230.0,33.0,274.0,260.0,3490.7
3490710.0,231.0,33.0,262.0,259.0,3490.71
3490720.0,222.0,32.0,267.0,249.0,3490.72
3490731.0,225.0,33.0,263.0,253.0,3490.731
3490741.0,230.0,33.0,269.0,259.0,3490.741
3490751.0,228.0,33.0,274.0,258.0,3490.751
3490761.0,230.0,33.0,260.0,257.0,3490.761
3490771.0,221.0,33.0,265.0,248.0,3490.771
3490781.0,226.0,33.0,262.0,254.0,3490.781
3490791.0,232.0,32.0,270.0,262.0,3490.791
3490801.0,231.0,32.0,276.0,259.0,3490.801
3490811.0,230.0,33.0,263.0,258.0,3490.811
3490821.0,221.0,32.0,268.0,248.0,3490.821
3490831.0,225.0,34.0,264.0,255.0,3490.831
3490841.0,231.0,34.0,270.0,262.0,3490.841
3490851.0,228.0,33.0,275.0,257.0,3490.851
3490861.0,230.0,33.0,262.0,259.0,3490.861
3490871.0,222.0,31.0,266.0,250.0,3490.871
3490881.0,225.0,33.0,259.0,255.0,3490.881
3490891.0,233.0,33.0,264.0,261.0,3490.891
3490902.0,229.0,33.0,267.0,254.0,3490.902
3490912.0,229.0,34.0,254.0,254.0,3490.912
3490922.0,221.0,32.0,255.0,247.0,3490.922
3490932.0,231.0,32.0,266.0,259.0,3490.932
3490942.0,233.0,34.0,259.0,260.0,3490.942
3490952.0,227.0,32.0,264.0,253.0,3490.952
3490962.0,228.0,33.0,255.0,253.0,3490.962
3490972.0,221.0,32.0,255.0,245.0,3490.972
3490982.0,230.0,32.0,265.0,256.0,3490.982
3490992.0,234.0,33.0,268.0,260.0,3490.992
3491002.0,227.0,33.0,268.0,252.0,3491.002
3491012.0,228.0,33.0,259.0,254.0,3491.012
3491022.0,223.0,33.0,258.0,250.0,3491.022
3491032.0,228.0,33.0,262.0,255.0,3491.032
3491042.0,234.0,33.0,262.0,260.0,3491.042
3491052.0,226.0,33.0,264.0,251.0,3491.052
3491062.0,228.0,33.0,256.0,253.0,3491.062
3491072.0,220.0,33.0,255.0,246.0,3491.072
3491082.0,228.0,32.0,263.0,257.0,3491.082
3491092.0,234.0,34.0,262.0,264.0,3491.092
3491102.0,226.0,32.0,263.0,253.0,3491.102
3491112.0,228.0,33.0,257.0,256.0,3491.112
3491122.0,222.0,32.0,256.0,248.0,3491.122
3491132.0,229.0,33.0,262.0,259.0,3491.132
3491142.0,234.0,33.0,262.0,262.0,3491.142
3491152.0,226.0,33.0,261.0,252.0,3491.152
3491162.0,228.0,33.0,252.0,254.0,3491.162
3491172.0,220.0,33.0,252.0,247.0,3491.172
3491182.0,231.0,33.0,265.0,258.0,3491.182
3491192.0,234.0,33.0,258.0,259.0,3491.192
3491202.0,229.0,32.0,262.0,253.0,3491.202
3491212.0,229.0,32.0,252.0,252.0,3491.212
3491222.0,223.0,33.0,251.0,249.0,3491.222
3491232.0,232.0,32.0,261.0,258.0,3491.232
3491243.0,233.0,33.0,253.0,259.0,3491.243
3491253.0,226.0,32.0,258.0,248.0,3491.253
3491263.0,226.0,32.0,250.0,251.0,3491.263
3491273.0,229.0,33.0,255.0,255.0,3491.273
3491283.0,231.0,33.0,261.0,257.0,3491.283
3491293.0,232.0,32.0,248.0,256.0,3491.293
3491303.0,223.0,32.0,247.0,244.0,3491.303
3491313.0,227.0,32.0,244.0,249.0,3491.313
3491323.0,230.0,32.0,251.0,254.0,3491.323
3491333.0,231.0,32.0,254.0,253.0,3491.333
3491343.0,232.0,33.0,246.0,254.0,3491.343
3491353.0,223.0,32.0,249.0,243.0,3491.353
3491363.0,225.0,32.0,245.0,246.0,3491.363
3491373.0,225.0,32.0,251.0,250.0,3491.373
3491383.0,232.0,31.0,258.0,255.0,3491.383
3491393.0,232.0,32.0,248.0,254.0,3491.393
3491403.0,223.0,31.0,251.0,244.0,3491.403
3491414.0,226.0,32.0,247.0,249.0,3491.414
3491424.0,232.0,32.0,254.0,258.0,3491.424
3491434.0,229.0,31.0,258.0,253.0,3491.434
3491444.0,231.0,31.0,252.0,253.0,3491.444
3491454.0,222.0,31.0,250.0,245.0,3491.454
3491464.0,227.0,31.0,251.0,252.0,3491.464
3491474.0,233.0,32.0,257.0,260.0,3491.474
3491484.0,230.0,30.0,259.0,254.0,3491.484
3491494.0,229.0,31.0,249.0,253.0,3491.494
3491504.0,222.0,31.0,255.0,245.0,3491.504
3491514.0,226.0,31.0,254.0,251.0,3491.514
3491524.0,231.0,31.0,257.0,257.0,3491.524
3491534.0,228.0,31.0,260.0,253.0,3491.534
3491544.0,229.0,31.0,250.0,254.0,3491.544
3491554.0,221.0,30.0,253.0,242.0,3491.554
3491564.0,226.0,31.0,252.0,252.0,3491.564
3491574.0,234.0,32.0,257.0,258.0,3491.574
3491584.0,231.0,31.0,261.0,254.0,3491.584
3491594.0,229.0,32.0,248.0,252.0,3491.594
3491604.0,221.0,32.0,250.0,242.0,3491.604
3491614.0,227.0,31.0,252.0,251.0,3491.614
3491624.0,233.0,32.0,253.0,257.0,3491.624
3491634.0,231.0,31.0,257.0,251.0,3491.634
3491644.0,228.0,31.0,246.0,252.0,3491.644
3491654.0,221.0,31.0,249.0,244.0,3491.654
3491664.0,228.0,32.0,254.0,256.0,3491.664
3491674.0,232.0,32.0,255.0,259.0,3491.674
3491684.0,230.0,31.0,258.0,255.0,3491.684
3491694.0,229.0,32.0,247.0,255.0,3491.694
3491704.0,221.0,31.0,246.0,246.0,3491.704
3491714.0,226.0,32.0,247.0,254.0,3491.714
3491724.0,232.0,32.0,254.0,261.0,3491.724
3491734.0,229.0,33.0,255.0,255.0,3491.734
3491744.0,229.0,31.0,248.0,256.0,3491.744
3491755.0,221.0,32.0,249.0,248.0,3491.755
3491765.0,231.0,32.0,257.0,259.0,3491.765
3491775.0,234.0,31.0,255.0,263.0,3491.775
3491785.0,226.0,31.0,255.0,252.0,3491.785
3491795.0,226.0,32.0,248.0,254.0,3491.795
3491805.0,220.0,32.0,248.0,247.0,3491.805
3491815.0,230.0,31.0,257.0,258.0,3491.815
3491825.0,233.0,32.0,253.0,259.0,3491.825
