time (ms),signal 0,signal 1,signal 2,signal 3,time (sec)
3411826.0,216.0,30.0,4.0,240.0,3411.826
3411836.0,218.0,32.0,3.0,240.0,3411.836
3411846.0,212.0,31.0,5.0,234.0,3411.846
3411856.0,213.0,33.0,3.0,234.0,3411.856
3411866.0,209.0,32.0,4.0,231.0,3411.866
3411876.0,217.0,31.0,4.0,240.0,3411.876
3411886.0,219.0,32.0,4.0,240.0,3411.886
3411896.0,212.0,31.0,4.0,234.0,3411.896
3411906.0,213.0,32.0,3.0,235.0,3411.906
3411916.0,211.0,32.0,4.0,236.0,3411.916
3411926.0,215.0,32.0,3.0,239.0,3411.926
3411936.0,219.0,32.0,4.0,240.0,3411.936
3411946.0,212.0,31.0,4.0,234.0,3411.946
3411956.0,214.0,31.0,4.0,235.0,3411.956
3411966.0,212.0,32.0,4.0,236.0,3411.966
3411976.0,217.0,31.0,4.0,239.0,3411.976
3411986.0,219.0,33.0,3.0,241.0,3411.986
3411996.0,212.0,32.0,3.0,232.0,3411.996
3412006.0,213.0,32.0,3.0,234.0,3412.006
3412016.0,210.0,32.0,4.0,231.0,3412.016
3412026.0,218.0,31.0,4.0,239.0,3412.026
3412036.0,220.0,32.0,4.0,241.0,3412.036
3412046.0,212.0,32.0,3.0,234.0,3412.046
3412056.0,215.0,32.0,4.0,235.0,3412.056
3412066.0,209.0,32.0,4.0,231.0,3412.066
3412076.0,217.0,32.0,4.0,238.0,3412.076
3412086.0,220.0,31.0,4.0,238.0,3412.086
3412096.0,214.0,32.0,3.0,234.0,3412.096
3412106.0,215.0,32.0,3.0,236.0,3412.106
3412116.0,212.0,33.0,3.0,235.0,3412.116
3412126.0,219.0,32.0,4.0,240.0,3412.126
3412136.0,220.0,33.0,3.0,239.0,3412.136
3412146.0,214.0,32.0,4.0,232.0,3412.146
3412156.0,216.0,32.0,3.0,234.0,3412.156
3412166.0,214.0,32.0,4.0,236.0,3412.166
3412176.0,220.0,33.0,3.0,242.0,3412.176
3412186.0,222.0,32.0,4.0,244.0,3412.186
3412196.0,215.0,32.0,4.0,235.0,3412.196
3412206.0,216.0,32.0,4.0,237.0,3412.206
3412216.0,216.0,32.0,4.0,238.0,3412.216
3412226.0,219.0,33.0,4.0,242.0,3412.226
3412236.0,221.0,32.0,4.0,243.0,3412.236
3412246.0,212.0,33.0,3.0,235.0,3412.246
3412256.0,215.0,32.0,3.0,236.0,3412.256
3412267.0,216.0,32.0,4.0,240.0,3412.267
3412277.0,220.0,32.0,4.0,243.0,3412.277
3412287.0,219.0,33.0,4.0,242.0,3412.287
3412297.0,211.0,32.0,4.0,234.0,3412.297
3412307.0,214.0,34.0,3.0,239.0,3412.307
3412317.0,218.0,32.0,4.0,241.0,3412.317
3412327.0,220.0,32.0,4.0,242.0,3412.327
3412337.0,220.0,33.0,5.0,240.0,3412.337
3412347.0,211.0,31.0,4.0,231.0,3412.347
3412357.0,216.0,32.0,5.0,235.0,3412.357
3412367.0,219.0,33.0,4.0,240.0,3412.367
3412377.0,219.0,32.0,3.0,240.0,3412.377
3412387.0,219.0,32.0,4.0,239.0,3412.387
3412397.0,213.0,32.0,4.0,233.0,3412.397
3412407.0,216.0,33.0,4.0,236.0,3412.407
3412417.0,220.0,33.0,3.0,243.0,3412.417
3412427.0,221.0,32.0,4.0,240.0,3412.427
3412438.0,219.0,34.0,3.0,239.0,3412.438
3412448.0,212.0,32.0,4.0,230.0,3412.448
3412458.0,218.0,32.0,4.0,241.0,3412.458
3412468.0,225.0,32.0,4.0,245.0,3412.468
3412478.0,218.0,32.0,4.0,240.0,3412.478
3412488.0,220.0,33.0,3.0,241.0,3412.488
3412498.0,211.0,33.0,4.0,234.0,3412.498
3412508.0,219.0,32.0,3.0,244.0,3412.508
3412518.0,224.0,32.0,3.0,247.0,3412.518
3412528.0,219.0,32.0,4.0,240.0,3412.528
3412538.0,220.0,32.0,3.0,240.0,3412.538
3412548.0,211.0,32.0,4.0,233.0,3412.548
3412558.0,220.0,32.0,3.0,244.0,3412.558
3412568.0,222.0,33.0,3.0,245.0,3412.568
3412578.0,219.0,32.0,4.0,240.0,3412.578
3412588.0,219.0,32.0,4.0,240.0,3412.588
3412598.0,213.0,31.0,3.0,234.0,3412.598
3412608.0,217.0,32.0,4.0,241.0,3412.608
3412618.0,223.0,32.0,4.0,245.0,3412.618
3412628.0,218.0,32.0,3.0,240.0,3412.628
3412638.0,219.0,32.0,4.0,241.0,3412.638
3412648.0,213.0,32.0,3.0,237.0,3412.648
3412658.0,219.0,32.0,4.0,242.0,3412.658
3412668.0,225.0,31.0,4.0,248.0,3412.668
3412678.0,218.0,32.0,3.0,243.0,3412.678
3412688.0,219.0,32.0,4.0,245.0,3412.688
3412698.0,213.0,32.0,3.0,237.0,3412.698
3412708.0,221.0,32.0,3.0,247.0,3412.708
3412718.0,225.0,32.0,4.0,250.0,3412.718
3412728.0,219.0,31.0,4.0,241.0,3412.728
3412738.0,220.0,32.0,4.0,244.0,3412.738
3412748.0,212.0,32.0,3.0,236.0,3412.748
3412758.0,220.0,33.0,3.0,246.0,3412.758
3412768.0,224.0,32.0,4.0,248.0,3412.768
3412779.0,217.0,31.0,4.0,240.0,3412.779
3412789.0,220.0,32.0,5.0,241.0,3412.789
3412799.0,218.0,32.0,2.0,243.0,3412.799
3412809.0,223.0,31.0,3.0,248.0,3412.809
3412819.0,224.0,33.0,3.0,246.0,3412.819
3412829.0,218.0,32.0,3.0,241.0,3412.829
3412839.0,220.0,32.0,3.0,242.0,3412.839
3412849.0,221.0,32.0,5.0,244.0,3412.849
3412859.0,224.0,31.0,4.0,248.0,3412.859
3412869.0,227.0,32.0,5.0,249.0,3412.869
3412879.0,219.0,32.0,4.0,242.0,3412.879
3412889.0,222.0,33.0,3.0,242.0,3412.889
3412899.0,223.0,32.0,4.0,247.0,3412.899
3412909.0,225.0,32.0,3.0,248.0,3412.909
3412919.0,229.0,31.0,5.0,247.0,3412.919
3412929.0,218.0,32.0,3.0,238.0,3412.929
3412939.0,221.0,32.0,4.0,241.0,3412.939
3412950.0,224.0,33.0,3.0,246.0,3412.95
3412960.0,224.0,32.0,3.0,246.0,3412.96
3412970.0,224.0,33.0,3.0,245.0,3412.97
3412980.0,216.0,32.0,5.0,235.0,3412.98
3412990.0,222.0,32.0,4.0,242.0,3412.99
3413000.0,225.0,33.0,4.0,246.0,3413.0
3413010.0,224.0,33.0,3.0,245.0,3413.01
3413020.0,225.0,32.0,4.0,243.0,3413.02
3413030.0,216.0,32.0,3.0,234.0,3413.03
3413040.0,220.0,33.0,3.0,240.0,3413.04
3413050.0,225.0,33.0,4.0,247.0,3413.05
3413060.0,224.0,32.0,4.0,245.0,3413.06
3413070.0,224.0,33.0,3.0,244.0,3413.07
3413080.0,217.0,33.0,4.0,237.0,3413.08
3413090.0,221.0,32.0,3.0,242.0,3413.09
3413100.0,226.0,32.0,4.0,247.0,3413.1
3413110.0,224.0,32.0,4.0,243.0,3413.11
3413120.0,225.0,33.0,4.0,244.0,3413.12
3413130.0,215.0,32.0,4.0,234.0,3413.13
3413140.0,220.0,34.0,3.0,242.0,3413.14
3413150.0,227.0,33.0,4.0,248.0,3413.15
3413160.0,222.0,33.0,4.0,242.0,3413.16
3413170.0,226.0,32.0,4.0,244.0,3413.17
3413180.0,217.0,33.0,4.0,236.0,3413.18
3413190.0,223.0,33.0,3.0,245.0,3413.19
3413200.0,227.0,33.0,3.0,254.0,3413.2
3413210.0,224.0,33.0,3.0,250.0,3413.21
3413220.0,225.0,32.0,4.0,246.0,3413.22
3413230.0,215.0,33.0,4.0,236.0,3413.23
3413240.0,222.0,33.0,5.0,247.0,3413.24
3413250.0,228.0,33.0,4.0,248.0,3413.25
3413260.0,232.0,32.0,4.0,248.0,3413.26
3413270.0,228.0,35.0,3.0,246.0,3413.27
3413280.0,218.0,32.0,3.0,234.0,3413.28
3413291.0,226.0,33.0,3.0,238.0,3413.291
3413301.0,235.0,33.0,5.0,244.0,3413.301
3413311.0,225.0,33.0,2.0,239.0,3413.311
3413321.0,231.0,33.0,3.0,239.0,3413.321
3413331.0,230.0,34.0,4.0,242.0,3413.331
3413341.0,234.0,33.0,4.0,250.0,3413.341
3413351.0,239.0,33.0,4.0,254.0,3413.351
3413361.0,233.0,33.0,4.0,248.0,3413.361
3413371.0,239.0,33.0,4.0,249.0,3413.371
3413381.0,230.0,33.0,4.0,243.0,3413.381
3413391.0,238.0,33.0,3.0,253.0,3413.391
3413401.0,239.0,34.0,3.0,256.0,3413.401
3413411.0,229.0,32.0,4.0,250.0,3413.411
3413421.0,227.0,33.0,3.0,248.0,3413.421
3413431.0,219.0,33.0,5.0,241.0,3413.431
3413441.0,228.0,33.0,2.0,255.0,3413.441
3413451.0,234.0,33.0,3.0,258.0,3413.451
3413462.0,226.0,33.0,4.0,250.0,3413.462
3413472.0,229.0,32.0,4.0,250.0,3413.472
3413482.0,231.0,32.0,4.0,254.0,3413.482
3413492.0,236.0,32.0,5.0,258.0,3413.492
3413502.0,236.0,32.0,4.0,254.0,3413.502
3413512.0,227.0,32.0,5.0,249.0,3413.512
3413522.0,229.0,33.0,4.0,252.0,3413.522
3413532.0,231.0,33.0,4.0,254.0,3413.532
3413542.0,231.0,32.0,4.0,255.0,3413.542
3413552.0,236.0,33.0,4.0,253.0,3413.552
3413562.0,225.0,32.0,4.0,243.0,3413.562
3413572.0,227.0,33.0,3.0,246.0,3413.572
3413582.0,232.0,33.0,4.0,252.0,3413.582
3413592.0,232.0,33.0,4.0,254.0,3413.592
3413602.0,235.0,32.0,4.0,251.0,3413.602
3413612.0,223.0,32.0,4.0,244.0,3413.612
3413622.0,227.0,33.0,4.0,248.0,3413.622
3413632.0,226.0,33.0,4.0,251.0,3413.632
3413642.0,232.0,32.0,4.0,256.0,3413.642
3413652.0,233.0,34.0,3.0,255.0,3413.652
3413662.0,223.0,32.0,4.0,246.0,3413.662
3413672.0,228.0,32.0,4.0,250.0,3413.672
3413682.0,228.0,32.0,4.0,253.0,3413.682
3413692.0,232.0,33.0,4.0,256.0,3413.692
3413702.0,230.0,33.0,4.0,253.0,3413.702
3413712.0,220.0,33.0,4.0,245.0,3413.712
3413722.0,225.0,32.0,4.0,250.0,3413.722
3413732.0,226.0,32.0,3.0,253.0,3413.732
3413742.0,228.0,33.0,4.0,254.0,3413.742
3413752.0,229.0,33.0,4.0,251.0,3413.752
3413762.0,222.0,32.0,4.0,248.0,3413.762
3413772.0,223.0,32.0,3.0,248.0,3413.772
3413782.0,227.0,34.0,3.0,255.0,3413.782
3413792.0,231.0,32.0,4.0,254.0,3413.792
3413803.0,231.0,33.0,3.0,251.0,3413.803
3413813.0,225.0,33.0,5.0,243.0,3413.813
3413823.0,226.0,33.0,3.0,255.0,3413.823
3413833.0,231.0,33.0,4.0,260.0,3413.833
3413843.0,226.0,33.0,3.0,255.0,3413.843
3413853.0,230.0,33.0,3.0,255.0,3413.853
3413863.0,223.0,32.0,4.0,246.0,3413.863
3413873.0,232.0,33.0,5.0,257.0,3413.873
3413883.0,242.0,33.0,4.0,261.0,3413.883
3413893.0,236.0,33.0,4.0,257.0,3413.893
3413903.0,238.0,33.0,4.0,255.0,3413.903
3413913.0,227.0,32.0,4.0,246.0,3413.913
3413923.0,232.0,32.0,3.0,256.0,3413.923
3413933.0,237.0,34.0,3.0,260.0,3413.933
3413943.0,234.0,32.0,5.0,257.0,3413.943
3413953.0,235.0,33.0,4.0,256.0,3413.953
3413963.0,225.0,32.0,4.0,248.0,3413.963
3413974.0,232.0,33.0,3.0,260.0,3413.974
3413984.0,237.0,34.0,3.0,258.0,3413.984
3413994.0,229.0,32.0,4.0,251.0,3413.994
3414004.0,233.0,33.0,4.0,252.0,3414.004
3414014.0,229.0,33.0,4.0,253.0,3414.014
3414024.0,231.0,33.0,4.0,259.0,3414.024
3414034.0,237.0,33.0,4.0,260.0,3414.034
3414044.0,232.0,34.0,3.0,256.0,3414.044
3414054.0,235.0,32.0,4.0,249.0,3414.054
3414064.0,229.0,34.0,3.0,252.0,3414.064
3414074.0,238.0,33.0,4.0,269.0,3414.074
3414084.0,240.0,33.0,4.0,268.0,3414.084
3414094.0,237.0,33.0,4.0,253.0,3414.094
3414104.0,241.0,34.0,3.0,255.0,3414.104
3414114.0,236.0,32.0,4.0,248.0,3414.114
3414124.0,243.0,32.0,4.0,254.0,3414.124
3414134.0,245.0,33.0,5.0,253.0,3414.134
3414144.0,236.0,32.0,4.0,250.0,3414.144
3414154.0,236.0,33.0,3.0,253.0,3414.154
3414164.0,231.0,33.0,4.0,250.0,3414.164
3414174.0,238.0,32.0,3.0,257.0,3414.174
3414184.0,237.0,32.0,4.0,256.0,3414.184
3414194.0,227.0,32.0,4.0,250.0,3414.194
3414204.0,232.0,32.0,4.0,251.0,3414.204
3414214.0,229.0,32.0,3.0,254.0,3414.214
3414224.0,234.0,32.0,4.0,260.0,3414.224
3414234.0,238.0,32.0,3.0,257.0,3414.234
3414244.0,227.0,32.0,4.0,247.0,3414.244
3414254.0,229.0,32.0,3.0,249.0,3414.254
3414264.0,229.0,32.0,5.0,250.0,3414.264
3414274.0,231.0,32.0,3.0,255.0,3414.274
3414284.0,232.0,32.0,4.0,256.0,3414.284
3414294.0,223.0,32.0,3.0,249.0,3414.294
3414304.0,226.0,32.0,4.0,251.0,3414.304
3414315.0,227.0,32.0,4.0,254.0,3414.315
3414325.0,231.0,32.0,4.0,256.0,3414.325
3414335.0,234.0,31.0,4.0,254.0,3414.335
3414345.0,224.0,32.0,3.0,246.0,3414.345
3414355.0,229.0,32.0,3.0,253.0,3414.355
3414365.0,230.0,33.0,3.0,255.0,3414.365
3414375.0,224.0,32.0,4.0,255.0,3414.375
3414385.0,234.0,32.0,4.0,253.0,3414.385
3414395.0,227.0,31.0,4.0,246.0,3414.395
3414405.0,235.0,31.0,4.0,250.0,3414.405
3414415.0,241.0,31.0,4.0,257.0,3414.415
3414425.0,242.0,32.0,4.0,259.0,3414.425
3414435.0,243.0,32.0,4.0,257.0,3414.435
3414445.0,237.0,31.0,3.0,252.0,3414.445
3414455.0,239.0,32.0,5.0,255.0,3414.455
3414465.0,243.0,31.0,2.0,261.0,3414.465
3414475.0,240.0,32.0,4.0,259.0,3414.475
3414486.0,239.0,32.0,4.0,258.0,3414.486
3414496.0,230.0,32.0,3.0,248.0,3414.496
3414506.0,234.0,32.0,4.0,259.0,3414.506
3414516.0,240.0,32.0,4.0,262.0,3414.516
3414526.0,233.0,32.0,4.0,256.0,3414.526
3414536.0,235.0,32.0,4.0,259.0,3414.536
3414546.0,225.0,32.0,4.0,252.0,3414.546
3414556.0,231.0,33.0,3.0,266.0,3414.556
3414566.0,237.0,33.0,4.0,267.0,3414.566
3414576.0,233.0,33.0,3.0,263.0,3414.576
3414586.0,235.0,32.0,5.0,261.0,3414.586
3414596.0,226.0,31.0,2.0,255.0,3414.596
3414606.0,235.0,32.0,3.0,267.0,3414.606
3414616.0,240.0,33.0,3.0,279.0,3414.616
3414626.0,233.0,32.0,4.0,270.0,3414.626
3414636.0,232.0,32.0,4.0,269.0,3414.636
3414646.0,225.0,32.0,5.0,261.0,3414.646
3414656.0,231.0,32.0,4.0,266.0,3414.656
3414666.0,234.0,33.0,4.0,275.0,3414.666
3414676.0,230.0,32.0,4.0,266.0,3414.676
3414686.0,230.0,33.0,3.0,264.0,3414.686
3414696.0,225.0,32.0,4.0,257.0,3414.696
3414706.0,230.0,33.0,3.0,262.0,3414.706
3414716.0,236.0,32.0,5.0,262.0,3414.716
3414726.0,227.0,31.0,4.0,255.0,3414.726
3414736.0,230.0,32.0,4.0,256.0,3414.736
3414746.0,221.0,33.0,3.0,247.0,3414.746
3414756.0,229.0,32.0,3.0,256.0,3414.756
3414766.0,233.0,32.0,4.0,258.0,3414.766
3414776.0,228.0,32.0,4.0,252.0,3414.776
3414786.0,228.0,31.0,4.0,253.0,3414.786
3414796.0,219.0,32.0,4.0,247.0,3414.796
3414806.0,225.0,33.0,3.0,261.0,3414.806
3414816.0,227.0,32.0,3.0,262.0,3414.816
3414827.0,220.0,32.0,4.0,252.0,3414.827
3414837.0,222.0,33.0,4.0,256.0,3414.837
3414847.0,223.0,32.0,4.0,256.0,3414.847
3414857.0,228.0,32.0,4.0,262.0,3414.857
3414867.0,230.0,32.0,4.0,260.0,3414.867
3414877.0,224.0,33.0,3.0,256.0,3414.877
3414887.0,226.0,32.0,3.0,257.0,3414.887
3414897.0,227.0,32.0,4.0,257.0,3414.897
3414907.0,231.0,32.0,5.0,262.0,3414.907
3414917.0,233.0,33.0,3.0,262.0,3414.917
3414927.0,225.0,32.0,4.0,252.0,3414.927
3414937.0,226.0,32.0,4.0,255.0,3414.937
3414947.0,229.0,32.0,3.0,258.0,3414.947
3414957.0,233.0,32.0,3.0,262.0,3414.957
3414967.0,233.0,33.0,4.0,260.0,3414.967
3414977.0,227.0,31.0,4.0,252.0,3414.977
3414987.0,229.0,33.0,4.0,253.0,3414.987
3414998.0,234.0,33.0,4.0,259.0,3414.998
3415008.0,236.0,33.0,3.0,260.0,3415.008
3415018.0,235.0,33.0,4.0,255.0,3415.018
3415028.0,226.0,32.0,4.0,246.0,3415.028
3415038.0,233.0,33.0,4.0,257.0,3415.038
3415048.0,233.0,33.0,4.0,258.0,3415.048
3415058.0,233.0,32.0,4.0,257.0,3415.058
3415068.0,232.0,34.0,3.0,256.0,3415.068
3415078.0,224.0,32.0,4.0,246.0,3415.078
3415088.0,229.0,34.0,3.0,253.0,3415.088
3415098.0,237.0,33.0,4.0,259.0,3415.098
3415108.0,235.0,33.0,4.0,257.0,3415.108
3415118.0,233.0,33.0,4.0,254.0,3415.118
3415128.0,226.0,33.0,2.0,248.0,3415.128
3415138.0,227.0,33.0,3.0,253.0,3415.138
3415148.0,236.0,33.0,3.0,261.0,3415.148
3415158.0,231.0,32.0,4.0,259.0,3415.158
3415168.0,231.0,33.0,4.0,259.0,3415.168
3415178.0,224.0,33.0,3.0,252.0,3415.178
3415188.0,232.0,33.0,4.0,261.0,3415.188
3415198.0,236.0,34.0,3.0,266.0,3415.198
3415208.0,233.0,32.0,3.0,259.0,3415.208
3415218.0,233.0,35.0,3.0,259.0,3415.218
3415228.0,226.0,33.0,4.0,249.0,3415.228
3415238.0,230.0,33.0,4.0,256.0,3415.238
3415248.0,237.0,33.0,4.0,261.0,3415.248
3415258.0,236.0,33.0,4.0,257.0,3415.258
3415268.0,233.0,33.0,3.0,254.0,3415.268
3415278.0,223.0,33.0,3.0,244.0,3415.278
3415288.0,229.0,34.0,2.0,254.0,3415.288
3415298.0,233.0,34.0,3.0,256.0,3415.298
3415308.0,231.0,33.0,3.0,253.0,3415.308
3415318.0,230.0,33.0,3.0,252.0,3415.318
3415328.0,221.0,34.0,3.0,242.0,3415.328
3415339.0,231.0,33.0,4.0,254.0,3415.339
3415349.0,235.0,34.0,3.0,259.0,3415.349
3415359.0,230.0,33.0,5.0,251.0,3415.359
3415369.0,230.0,33.0,3.0,252.0,3415.369
3415379.0,226.0,33.0,4.0,249.0,3415.379
3415389.0,230.0,33.0,2.0,255.0,3415.389
3415399.0,235.0,33.0,4.0,258.0,3415.399
3415409.0,228.0,33.0,4.0,250.0,3415.409
3415419.0,230.0,33.0,5.0,251.0,3415.419
3415429.0,222.0,33.0,4.0,246.0,3415.429
3415439.0,233.0,33.0,4.0,257.0,3415.439
3415449.0,236.0,34.0,3.0,260.0,3415.449
3415459.0,229.0,33.0,3.0,252.0,3415.459
3415469.0,231.0,33.0,4.0,255.0,3415.469
3415479.0,225.0,33.0,5.0,248.0,3415.479
3415489.0,233.0,32.0,4.0,258.0,3415.489
3415499.0,235.0,33.0,4.0,257.0,3415.499
3415510.0,228.0,32.0,3.0,250.0,3415.51
3415520.0,230.0,34.0,3.0,253.0,3415.52
3415530.0,231.0,32.0,4.0,254.0,3415.53
3415540.0,235.0,33.0,3.0,256.0,3415.54
3415550.0,235.0,34.0,4.0,253.0,3415.55
3415560.0,227.0,32.0,4.0,248.0,3415.56
3415570.0,229.0,33.0,4.0,251.0,3415.57
3415580.0,232.0,33.0,3.0,255.0,3415.58
3415590.0,233.0,33.0,3.0,256.0,3415.59
3415600.0,234.0,33.0,4.0,258.0,3415.6
3415610.0,225.0,33.0,5.0,248.0,3415.61
3415620.0,228.0,33.0,4.0,251.0,3415.62
3415630.0,231.0,33.0,4.0,257.0,3415.63
3415640.0,233.0,34.0,3.0,258.0,3415.64
3415650.0,233.0,34.0,3.0,255.0,3415.65
3415660.0,225.0,32.0,4.0,246.0,3415.66
3415670.0,226.0,33.0,4.0,251.0,3415.67
3415680.0,225.0,32.0,4.0,252.0,3415.68
3415690.0,230.0,34.0,2.0,257.0,3415.69
3415700.0,230.0,33.0,4.0,254.0,3415.7
3415710.0,221.0,34.0,3.0,247.0,3415.71
3415720.0,223.0,32.0,3.0,251.0,3415.72
3415730.0,225.0,35.0,3.0,254.0,3415.73
3415740.0,229.0,33.0,5.0,256.0,3415.74
3415750.0,229.0,34.0,4.0,254.0,3415.75
3415760.0,220.0,33.0,3.0,244.0,3415.76
3415770.0,226.0,33.0,4.0,251.0,3415.77
3415780.0,228.0,33.0,4.0,254.0,3415.78
3415790.0,231.0,33.0,4.0,255.0,3415.79
3415800.0,229.0,34.0,2.0,253.0,3415.8
3415810.0,225.0,32.0,4.0,247.0,3415.81
3415820.0,227.0,33.0,3.0,250.0,3415.82
3415830.0,230.0,33.0,4.0,253.0,3415.83
3415840.0,231.0,34.0,3.0,252.0,3415.84
3415851.0,230.0,34.0,4.0,250.0,3415.851
3415861.0,220.0,33.0,3.0,242.0,3415.861
3415871.0,227.0,33.0,5.0,250.0,3415.871
3415881.0,232.0,34.0,4.0,256.0,3415.881
3415891.0,228.0,33.0,4.0,249.0,3415.891
3415901.0,228.0,33.0,4.0,250.0,3415.901
3415911.0,220.0,32.0,4.0,240.0,3415.911
3415921.0,227.0,32.0,4.0,251.0,3415.921
3415931.0,232.0,33.0,5.0,255.0,3415.931
3415941.0,229.0,32.0,4.0,251.0,3415.941
3415951.0,228.0,33.0,4.0,248.0,3415.951
3415961.0,219.0,33.0,4.0,243.0,3415.961
3415971.0,227.0,33.0,3.0,253.0,3415.971
3415981.0,230.0,33.0,4.0,256.0,3415.981
3415991.0,227.0,33.0,4.0,252.0,3415.991
3416001.0,227.0,33.0,4.0,250.0,3416.001
3416011.0,218.0,33.0,4.0,242.0,3416.011
3416022.0,228.0,33.0,3.0,253.0,3416.022
3416032.0,231.0,34.0,3.0,256.0,3416.032
3416042.0,225.0,32.0,4.0,247.0,3416.042
3416052.0,227.0,33.0,3.0,250.0,3416.052
3416062.0,226.0,33.0,4.0,250.0,3416.062
3416072.0,230.0,33.0,4.0,255.0,3416.072
3416082.0,233.0,33.0,4.0,254.0,3416.082
3416092.0,226.0,33.0,3.0,248.0,3416.092
3416102.0,227.0,32.0,3.0,250.0,3416.102
3416112.0,222.0,33.0,3.0,247.0,3416.112
3416122.0,231.0,32.0,5.0,256.0,3416.122
3416132.0,232.0,33.0,4.0,255.0,3416.132
3416142.0,224.0,32.0,3.0,248.0,3416.142
3416152.0,227.0,33.0,3.0,251.0,3416.152
3416162.0,223.0,33.0,3.0,250.0,3416.162
3416172.0,231.0,32.0,3.0,258.0,3416.172
3416182.0,232.0,33.0,4.0,256.0,3416.182
3416192.0,227.0,32.0,4.0,251.0,3416.192
3416202.0,227.0,33.0,2.0,252.0,3416.202
3416212.0,224.0,32.0,3.0,252.0,3416.212
3416222.0,231.0,33.0,3.0,260.0,3416.222
3416232.0,232.0,32.0,4.0,256.0,3416.232
3416242.0,226.0,32.0,3.0,251.0,3416.242
3416252.0,228.0,32.0,5.0,251.0,3416.252
3416262.0,225.0,32.0,4.0,252.0,3416.262
3416272.0,231.0,32.0,4.0,257.0,3416.272
3416282.0,232.0,32.0,4.0,257.0,3416.282
3416292.0,223.0,32.0,3.0,249.0,3416.292
3416302.0,224.0,32.0,3.0,252.0,3416.302
3416312.0,223.0,32.0,4.0,254.0,3416.312
3416322.0,226.0,31.0,4.0,260.0,3416.322
3416332.0,229.0,33.0,3.0,261.0,3416.332
3416342.0,221.0,31.0,4.0,251.0,3416.342
3416352.0,223.0,33.0,3.0,253.0,3416.352
3416363.0,224.0,32.0,3.0,255.0,3416.363
3416373.0,227.0,32.0,3.0,259.0,3416.373
3416383.0,227.0,32.0,5.0,254.0,3416.383
3416393.0,219.0,32.0,4.0,247.0,3416.393
3416403.0,224.0,31.0,4.0,252.0,3416.403
3416413.0,226.0,32.0,4.0,256.0,3416.413
3416423.0,227.0,32.0,3.0,257.0,3416.423
3416433.0,227.0,32.0,3.0,254.0,3416.433
3416443.0,219.0,32.0,4.0,245.0,3416.443
3416453.0,224.0,32.0,4.0,251.0,3416.453
3416463.0,227.0,32.0,3.0,255.0,3416.463
3416473.0,227.0,32.0,3.0,256.0,3416.473
3416483.0,227.0,32.0,3.0,253.0,3416.483
3416493.0,220.0,32.0,4.0,247.0,3416.493
3416503.0,222.0,32.0,3.0,249.0,3416.503
3416513.0,229.0,31.0,4.0,255.0,3416.513
3416523.0,226.0,32.0,3.0,254.0,3416.523
3416534.0,226.0,32.0,4.0,253.0,3416.534
3416544.0,218.0,33.0,3.0,245.0,3416.544
3416554.0,224.0,32.0,4.0,254.0,3416.554
3416564.0,229.0,32.0,3.0,258.0,3416.564
3416574.0,225.0,31.0,5.0,250.0,3416.574
3416584.0,227.0,31.0,4.0,252.0,3416.584
3416594.0,218.0,32.0,3.0,244.0,3416.594
3416604.0,225.0,32.0,3.0,255.0,3416.604
3416614.0,230.0,32.0,3.0,257.0,3416.614
3416624.0,226.0,31.0,4.0,254.0,3416.624
3416634.0,226.0,31.0,4.0,252.0,3416.634
3416644.0,218.0,31.0,4.0,244.0,3416.644
3416654.0,227.0,32.0,3.0,256.0,3416.654
3416664.0,230.0,32.0,4.0,257.0,3416.664
3416674.0,226.0,32.0,3.0,253.0,3416.674
3416684.0,226.0,31.0,4.0,252.0,3416.684
3416694.0,218.0,32.0,3.0,247.0,3416.694
3416704.0,224.0,32.0,3.0,253.0,3416.704
3416714.0,230.0,31.0,4.0,258.0,3416.714
3416724.0,225.0,31.0,4.0,253.0,3416.724
3416734.0,225.0,32.0,3.0,253.0,3416.734
3416744.0,218.0,31.0,4.0,247.0,3416.744
3416754.0,224.0,33.0,3.0,254.0,3416.754
3416764.0,229.0,32.0,4.0,257.0,3416.764
3416774.0,222.0,31.0,3.0,252.0,3416.774
3416784.0,224.0,31.0,3.0,252.0,3416.784
3416794.0,217.0,31.0,4.0,245.0,3416.794
3416804.0,225.0,32.0,3.0,256.0,3416.804
3416814.0,230.0,32.0,3.0,258.0,3416.814
3416824.0,222.0,32.0,4.0,250.0,3416.824
3416834.0,225.0,32.0,4.0,253.0,3416.834
3416844.0,216.0,31.0,4.0,246.0,3416.844
3416854.0,226.0,31.0,3.0,255.0,3416.854
3416864.0,230.0,33.0,3.0,258.0,3416.864
3416875.0,223.0,31.0,3.0,250.0,3416.875
3416885.0,225.0,32.0,4.0,252.0,3416.885
3416895.0,224.0,32.0,3.0,253.0,3416.895
3416905.0,228.0,31.0,4.0,257.0,3416.905
3416915.0,228.0,32.0,4.0,254.0,3416.915
3416925.0,223.0,32.0,3.0,251.0,3416.925
3416935.0,225.0,32.0,4.0,252.0,3416.935
3416945.0,225.0,32.0,4.0,254.0,3416.945
3416955.0,228.0,32.0,4.0,255.0,3416.955
3416965.0,231.0,31.0,4.0,256.0,3416.965
3416975.0,222.0,32.0,4.0,247.0,3416.975
3416985.0,224.0,32.0,4.0,250.0,3416.985
3416995.0,225.0,33.0,3.0,253.0,3416.995
3417005.0,228.0,31.0,4.0,256.0,3417.005
3417015.0,229.0,33.0,4.0,256.0,3417.015
3417025.0,223.0,32.0,4.0,248.0,3417.025
3417035.0,224.0,33.0,3.0,252.0,3417.035
3417046.0,227.0,32.0,4.0,255.0,3417.046
3417056.0,229.0,33.0,3.0,256.0,3417.056
3417066.0,228.0,32.0,3.0,253.0,3417.066
3417076.0,220.0,32.0,4.0,244.0,3417.076
3417086.0,226.0,33.0,4.0,252.0,3417.086
3417096.0,229.0,32.0,3.0,255.0,3417.096
3417106.0,229.0,32.0,4.0,253.0,3417.106
3417116.0,228.0,33.0,3.0,253.0,3417.116
3417126.0,219.0,32.0,3.0,242.0,3417.126
3417136.0,226.0,32.0,4.0,249.0,3417.136
3417146.0,230.0,33.0,4.0,256.0,3417.146
3417156.0,230.0,31.0,4.0,253.0,3417.156
3417166.0,228.0,33.0,3.0,251.0,3417.166
3417176.0,222.0,33.0,3.0,245.0,3417.176
3417186.0,226.0,33.0,3.0,250.0,3417.186
3417196.0,231.0,32.0,4.0,256.0,3417.196
3417206.0,229.0,32.0,4.0,251.0,3417.206
3417216.0,230.0,32.0,4.0,251.0,3417.216
3417226.0,222.0,32.0,4.0,243.0,3417.226
3417236.0,226.0,33.0,4.0,251.0,3417.236
3417246.0,231.0,34.0,3.0,257.0,3417.246
3417256.0,226.0,32.0,4.0,252.0,3417.256
3417266.0,227.0,33.0,3.0,253.0,3417.266
3417276.0,219.0,33.0,4.0,244.0,3417.276
3417286.0,224.0,33.0,3.0,253.0,3417.286
3417296.0,230.0,33.0,4.0,258.0,3417.296
3417306.0,229.0,33.0,4.0,256.0,3417.306
3417316.0,227.0,33.0,3.0,255.0,3417.316
3417326.0,219.0,32.0,4.0,244.0,3417.326
3417336.0,224.0,33.0,3.0,253.0,3417.336
3417346.0,229.0,33.0,5.0,256.0,3417.346
3417356.0,226.0,33.0,3.0,255.0,3417.356
3417366.0,226.0,33.0,4.0,253.0,3417.366
3417376.0,218.0,33.0,3.0,244.0,3417.376
3417387.0,225.0,32.0,3.0,254.0,3417.387
3417397.0,231.0,33.0,4.0,257.0,3417.397
3417407.0,225.0,32.0,5.0,249.0,3417.407
3417417.0,226.0,33.0,4.0,250.0,3417.417
3417427.0,222.0,33.0,3.0,249.0,3417.427
3417437.0,227.0,33.0,4.0,255.0,3417.437
3417447.0,231.0,33.0,3.0,256.0,3417.447
3417457.0,225.0,33.0,4.0,248.0,3417.457
3417467.0,225.0,32.0,4.0,249.0,3417.467
3417477.0,220.0,33.0,4.0,242.0,3417.477
3417487.0,228.0,33.0,4.0,254.0,3417.487
3417497.0,231.0,33.0,4.0,255.0,3417.497
3417507.0,223.0,34.0,3.0,248.0,3417.507
3417517.0,226.0,32.0,3.0,251.0,3417.517
3417527.0,220.0,32.0,4.0,245.0,3417.527
3417537.0,229.0,32.0,5.0,255.0,3417.537
3417547.0,231.0,33.0,4.0,256.0,3417.547
3417558.0,223.0,33.0,3.0,247.0,3417.558
3417568.0,226.0,33.0,3.0,249.0,3417.568
3417578.0,227.0,32.0,3.0,252.0,3417.578
3417588.0,229.0,32.0,4.0,255.0,3417.588
3417598.0,229.0,32.0,4.0,251.0,3417.598
3417608.0,223.0,31.0,4.0,246.0,3417.608
3417618.0,224.0,33.0,3.0,248.0,3417.618
3417628.0,227.0,32.0,4.0,253.0,3417.628
3417638.0,228.0,33.0,3.0,254.0,3417.638
3417648.0,231.0,33.0,3.0,255.0,3417.648
3417658.0,222.0,32.0,4.0,246.0,3417.658
3417668.0,226.0,32.0,5.0,249.0,3417.668
3417678.0,228.0,33.0,4.0,255.0,3417.678
3417688.0,229.0,32.0,5.0,257.0,3417.688
3417698.0,231.0,34.0,3.0,255.0,3417.698
3417708.0,221.0,32.0,3.0,246.0,3417.708
3417718.0,224.0,33.0,4.0,250.0,3417.718
3417728.0,224.0,32.0,3.0,252.0,3417.728
3417738.0,229.0,31.0,3.0,256.0,3417.738
3417748.0,229.0,32.0,4.0,253.0,3417.748
3417758.0,220.0,32.0,3.0,246.0,3417.758
3417768.0,224.0,33.0,3.0,250.0,3417.768
3417778.0,225.0,32.0,3.0,253.0,3417.778
3417788.0,228.0,32.0,4.0,255.0,3417.788
3417798.0,228.0,32.0,4.0,251.0,3417.798
3417808.0,218.0,32.0,4.0,244.0,3417.808
3417818.0,223.0,32.0,5.0,249.0,3417.818
3417828.0,225.0,32.0,3.0,252.0,3417.828
3417838.0,226.0,32.0,4.0,254.0,3417.838
3417848.0,225.0,32.0,3.0,251.0,3417.848
3417858.0,220.0,32.0,4.0,246.0,3417.858
3417868.0,223.0,31.0,4.0,249.0,3417.868
3417878.0,226.0,32.0,4.0,253.0,3417.878
3417888.0,227.0,32.0,3.0,254.0,3417.888
3417899.0,227.0,32.0,4.0,250.0,3417.899
3417909.0,217.0,32.0,3.0,242.0,3417.909
3417919.0,224.0,32.0,5.0,251.0,3417.919
3417929.0,229.0,32.0,4.0,255.0,3417.929
3417939.0,223.0,32.0,3.0,249.0,3417.939
3417949.0,226.0,32.0,4.0,250.0,3417.949
3417959.0,217.0,32.0,3.0,242.0,3417.959
3417969.0,223.0,32.0,4.0,252.0,3417.969
3417979.0,229.0,33.0,3.0,255.0,3417.979
3417989.0,227.0,32.0,4.0,252.0,3417.989
3417999.0,227.0,33.0,2.0,251.0,3417.999
3418009.0,218.0,32.0,4.0,241.0,3418.009
3418019.0,227.0,33.0,4.0,252.0,3418.019
3418029.0,230.0,32.0,4.0,253.0,3418.029
3418039.0,227.0,31.0,4.0,251.0,3418.039
3418049.0,227.0,32.0,4.0,249.0,3418.049
3418059.0,219.0,32.0,4.0,242.0,3418.059
3418070.0,227.0,32.0,3.0,253.0,3418.07
3418080.0,232.0,33.0,3.0,255.0,3418.08
3418090.0,223.0,32.0,3.0,247.0,3418.09
3418100.0,225.0,32.0,4.0,248.0,3418.1
3418110.0,225.0,32.0,4.0,250.0,3418.11
3418120.0,229.0,32.0,4.0,254.0,3418.12
3418130.0,231.0,32.0,4.0,254.0,3418.13
3418140.0,223.0,32.0,4.0,247.0,3418.14
3418150.0,225.0,33.0,3.0,250.0,3418.15
3418160.0,220.0,32.0,4.0,246.0,3418.16
3418170.0,228.0,32.0,3.0,257.0,3418.17
3418180.0,232.0,33.0,4.0,258.0,3418.18
3418190.0,221.0,32.0,2.0,249.0,3418.19
3418200.0,225.0,32.0,5.0,251.0,3418.2
3418210.0,219.0,33.0,3.0,250.0,3418.21
3418220.0,227.0,32.0,3.0,257.0,3418.22
3418230.0,229.0,32.0,5.0,256.0,3418.23
3418240.0,222.0,32.0,3.0,250.0,3418.24
3418250.0,224.0,31.0,4.0,252.0,3418.25
3418260.0,221.0,32.0,4.0,250.0,3418.26
3418270.0,228.0,32.0,3.0,258.0,3418.27
3418280.0,229.0,34.0,3.0,256.0,3418.28
3418290.0,222.0,32.0,4.0,251.0,3418.29
3418300.0,224.0,32.0,4.0,252.0,3418.3
3418310.0,223.0,32.0,4.0,251.0,3418.31
3418320.0,227.0,32.0,4.0,258.0,3418.32
3418330.0,231.0,33.0,5.0,257.0,3418.33
3418340.0,222.0,33.0,3.0,250.0,3418.34
3418350.0,223.0,32.0,3.0,251.0,3418.35
3418360.0,223.0,32.0,4.0,253.0,3418.36
3418370.0,227.0,32.0,4.0,257.0,3418.37
3418380.0,230.0,33.0,3.0,258.0,3418.38
3418390.0,221.0,33.0,3.0,248.0,3418.39
3418400.0,224.0,33.0,3.0,251.0,3418.4
3418411.0,225.0,33.0,3.0,253.0,3418.411
3418421.0,228.0,32.0,4.0,256.0,3418.421
3418431.0,228.0,33.0,4.0,253.0,3418.431
3418441.0,219.0,32.0,4.0,243.0,3418.441
3418451.0,223.0,33.0,3.0,251.0,3418.451
3418461.0,228.0,33.0,4.0,255.0,3418.461
3418471.0,227.0,33.0,3.0,255.0,3418.471
3418481.0,228.0,32.0,3.0,253.0,3418.481
3418491.0,218.0,32.0,4.0,244.0,3418.491
3418501.0,224.0,32.0,4.0,250.0,3418.501
3418511.0,228.0,33.0,4.0,255.0,3418.511
3418521.0,229.0,33.0,3.0,253.0,3418.521
3418531.0,229.0,33.0,3.0,252.0,3418.531
3418541.0,222.0,32.0,4.0,244.0,3418.541
3418551.0,226.0,32.0,5.0,248.0,3418.551
3418561.0,229.0,32.0,3.0,255.0,3418.561
3418571.0,227.0,31.0,4.0,253.0,3418.571
3418582.0,227.0,33.0,4.0,253.0,3418.582
3418592.0,218.0,32.0,3.0,244.0,3418.592
3418602.0,225.0,33.0,3.0,253.0,3418.602
3418612.0,231.0,32.0,4.0,256.0,3418.612
3418622.0,223.0,32.0,4.0,249.0,3418.622
3418632.0,226.0,32.0,4.0,252.0,3418.632
3418642.0,217.0,32.0,3.0,245.0,3418.642
3418652.0,225.0,32.0,4.0,255.0,3418.652
3418662.0,229.0,34.0,3.0,258.0,3418.662
3418672.0,225.0,32.0,4.0,253.0,3418.672
3418682.0,225.0,33.0,3.0,253.0,3418.682
3418692.0,218.0,33.0,5.0,245.0,3418.692
3418702.0,227.0,32.0,4.0,255.0,3418.702
3418712.0,231.0,32.0,5.0,257.0,3418.712
3418722.0,225.0,33.0,3.0,252.0,3418.722
3418732.0,226.0,33.0,4.0,252.0,3418.732
3418742.0,220.0,33.0,4.0,246.0,3418.742
3418752.0,225.0,33.0,3.0,252.0,3418.752
3418762.0,231.0,33.0,4.0,257.0,3418.762
3418772.0,224.0,32.0,4.0,250.0,3418.772
3418782.0,226.0,32.0,4.0,251.0,3418.782
3418792.0,219.0,33.0,3.0,247.0,3418.792
3418802.0,225.0,32.0,4.0,252.0,3418.802
3418812.0,229.0,33.0,3.0,257.0,3418.812
3418822.0,225.0,33.0,4.0,249.0,3418.822
3418832.0,226.0,33.0,3.0,250.0,3418.832
3418842.0,218.0,33.0,3.0,241.0,3418.842
3418852.0,227.0,33.0,3.0,254.0,3418.852
3418862.0,232.0,32.0,4.0,257.0,3418.862
3418872.0,224.0,33.0,3.0,249.0,3418.872
3418882.0,227.0,32.0,3.0,250.0,3418.882
3418892.0,219.0,33.0,4.0,243.0,3418.892
3418902.0,228.0,33.0,3.0,256.0,3418.902
3418912.0,232.0,33.0,4.0,257.0,3418.912
3418923.0,224.0,33.0,3.0,247.0,3418.923
3418933.0,226.0,32.0,3.0,249.0,3418.933
3418943.0,225.0,33.0,4.0,249.0,3418.943
3418953.0,231.0,32.0,4.0,254.0,3418.953
3418963.0,230.0,33.0,4.0,252.0,3418.963
3418973.0,225.0,32.0,4.0,247.0,3418.973
3418983.0,225.0,33.0,3.0,248.0,3418.983
3418993.0,227.0,32.0,4.0,251.0,3418.993
3419003.0,230.0,32.0,3.0,254.0,3419.003
3419013.0,233.0,33.0,3.0,254.0,3419.013
3419023.0,223.0,33.0,2.0,246.0,3419.023
3419033.0,226.0,32.0,4.0,247.0,3419.033
3419043.0,227.0,33.0,3.0,252.0,3419.043
3419053.0,230.0,32.0,3.0,254.0,3419.053
3419063.0,233.0,33.0,3.0,254.0,3419.063
3419073.0,223.0,32.0,4.0,243.0,3419.073
3419083.0,227.0,33.0,4.0,247.0,3419.083
3419094.0,228.0,32.0,3.0,252.0,3419.094
3419104.0,229.0,32.0,4.0,252.0,3419.104
3419114.0,228.0,33.0,3.0,251.0,3419.114
3419124.0,219.0,32.0,4.0,240.0,3419.124
3419134.0,224.0,33.0,3.0,250.0,3419.134
3419144.0,229.0,33.0,3.0,254.0,3419.144
3419154.0,228.0,33.0,2.0,252.0,3419.154
3419164.0,226.0,33.0,3.0,249.0,3419.164
3419174.0,219.0,34.0,3.0,242.0,3419.174
3419184.0,223.0,33.0,3.0,248.0,3419.184
3419194.0,229.0,33.0,3.0,255.0,3419.194
3419204.0,228.0,33.0,4.0,251.0,3419.204
3419214.0,227.0,33.0,4.0,251.0,3419.214
3419224.0,221.0,32.0,5.0,244.0,3419.224
3419234.0,224.0,33.0,3.0,249.0,3419.234
3419244.0,230.0,33.0,3.0,255.0,3419.244
3419254.0,228.0,32.0,5.0,250.0,3419.254
3419264.0,228.0,34.0,3.0,250.0,3419.264
3419274.0,221.0,33.0,4.0,240.0,3419.274
3419284.0,224.0,33.0,4.0,248.0,3419.284
3419294.0,230.0,33.0,4.0,255.0,3419.294
3419304.0,225.0,34.0,3.0,249.0,3419.304
3419314.0,227.0,33.0,4.0,250.0,3419.314
3419324.0,218.0,33.0,3.0,241.0,3419.324
3419334.0,225.0,33.0,5.0,249.0,3419.334
3419344.0,230.0,33.0,4.0,254.0,3419.344
3419354.0,227.0,33.0,3.0,252.0,3419.354
3419364.0,229.0,34.0,3.0,252.0,3419.364
3419374.0,220.0,33.0,4.0,242.0,3419.374
3419384.0,227.0,33.0,4.0,252.0,3419.384
3419394.0,230.0,33.0,4.0,254.0,3419.394
3419404.0,229.0,33.0,3.0,251.0,3419.404
3419414.0,229.0,34.0,3.0,251.0,3419.414
3419424.0,220.0,33.0,3.0,242.0,3419.424
3419435.0,227.0,33.0,3.0,252.0,3419.435
3419445.0,233.0,32.0,3.0,255.0,3419.445
3419455.0,225.0,33.0,3.0,248.0,3419.455
3419465.0,227.0,33.0,4.0,250.0,3419.465
3419475.0,222.0,33.0,4.0,248.0,3419.475
3419485.0,227.0,32.0,3.0,253.0,3419.485
3419495.0,231.0,34.0,3.0,256.0,3419.495
3419505.0,223.0,32.0,4.0,246.0,3419.505
3419515.0,224.0,33.0,4.0,248.0,3419.515
3419525.0,218.0,33.0,4.0,242.0,3419.525
3419535.0,226.0,33.0,4.0,251.0,3419.535
3419545.0,229.0,33.0,4.0,253.0,3419.545
3419555.0,222.0,33.0,3.0,245.0,3419.555
3419565.0,224.0,33.0,3.0,248.0,3419.565
3419575.0,220.0,32.0,4.0,241.0,3419.575
3419585.0,227.0,33.0,4.0,252.0,3419.585
3419595.0,231.0,34.0,4.0,253.0,3419.595
3419606.0,221.0,32.0,3.0,244.0,3419.606
3419616.0,223.0,32.0,4.0,246.0,3419.616
3419626.0,224.0,33.0,3.0,249.0,3419.626
3419636.0,226.0,32.0,4.0,249.0,3419.636
3419646.0,226.0,33.0,4.0,247.0,3419.646
3419656.0,221.0,32.0,3.0,242.0,3419.656
3419666.0,224.0,33.0,4.0,245.0,3419.666
3419676.0,228.0,32.0,4.0,248.0,3419.676
3419686.0,227.0,34.0,3.0,251.0,3419.686
3419696.0,230.0,33.0,3.0,250.0,3419.696
3419706.0,221.0,32.0,4.0,242.0,3419.706
3419716.0,224.0,33.0,4.0,247.0,3419.716
3419726.0,227.0,33.0,4.0,253.0,3419.726
3419736.0,228.0,32.0,4.0,252.0,3419.736
3419746.0,229.0,33.0,4.0,251.0,3419.746
3419756.0,220.0,33.0,3.0,241.0,3419.756
3419766.0,223.0,33.0,3.0,244.0,3419.766
3419776.0,224.0,33.0,3.0,246.0,3419.776
3419786.0,230.0,31.0,5.0,251.0,3419.786
3419796.0,228.0,33.0,4.0,249.0,3419.796
3419806.0,220.0,32.0,3.0,240.0,3419.806
3419816.0,223.0,33.0,3.0,244.0,3419.816
3419826.0,224.0,32.0,4.0,247.0,3419.826
3419836.0,227.0,32.0,3.0,251.0,3419.836
3419846.0,228.0,32.0,5.0,249.0,3419.846
3419856.0,219.0,32.0,4.0,241.0,3419.856
3419866.0,223.0,32.0,4.0,247.0,3419.866
3419876.0,224.0,33.0,3.0,252.0,3419.876
3419886.0,227.0,32.0,3.0,252.0,3419.886
3419896.0,228.0,32.0,4.0,250.0,3419.896
3419906.0,221.0,32.0,4.0,244.0,3419.906
3419916.0,224.0,31.0,4.0,247.0,3419.916
3419926.0,227.0,33.0,3.0,255.0,3419.926
3419936.0,227.0,33.0,3.0,254.0,3419.936
3419947.0,226.0,33.0,3.0,251.0,3419.947
3419957.0,219.0,32.0,3.0,240.0,3419.957
3419967.0,225.0,33.0,3.0,250.0,3419.967
3419977.0,231.0,32.0,5.0,255.0,3419.977
3419987.0,224.0,32.0,2.0,249.0,3419.987
3419997.0,228.0,32.0,4.0,250.0,3419.997
3420007.0,219.0,33.0,3.0,242.0,3420.007
3420017.0,227.0,32.0,3.0,254.0,3420.017
3420027.0,231.0,33.0,3.0,257.0,3420.027
3420037.0,228.0,32.0,4.0,253.0,3420.037
3420047.0,228.0,33.0,4.0,251.0,3420.047
3420057.0,219.0,32.0,3.0,242.0,3420.057
3420067.0,227.0,32.0,4.0,252.0,3420.067
3420077.0,230.0,32.0,3.0,256.0,3420.077
3420087.0,226.0,32.0,4.0,251.0,3420.087
3420097.0,226.0,32.0,4.0,250.0,3420.097
3420107.0,219.0,31.0,5.0,241.0,3420.107
3420118.0,227.0,33.0,3.0,253.0,3420.118
3420128.0,231.0,33.0,3.0,256.0,3420.128
3420138.0,223.0,32.0,3.0,246.0,3420.138
3420148.0,225.0,32.0,4.0,249.0,3420.148
3420158.0,223.0,32.0,3.0,250.0,3420.158
3420168.0,228.0,32.0,5.0,255.0,3420.168
3420178.0,230.0,33.0,2.0,256.0,3420.178
3420188.0,222.0,32.0,3.0,247.0,3420.188
3420198.0,224.0,33.0,3.0,251.0,3420.198
3420208.0,219.0,31.0,3.0,248.0,3420.208
3420218.0,229.0,32.0,4.0,257.0,3420.218
3420228.0,231.0,32.0,4.0,257.0,3420.228
3420238.0,223.0,31.0,3.0,249.0,3420.238
3420248.0,225.0,32.0,4.0,253.0,3420.248
3420258.0,221.0,31.0,3.0,249.0,3420.258
3420268.0,229.0,33.0,3.0,257.0,3420.268
3420278.0,230.0,32.0,4.0,256.0,3420.278
3420288.0,223.0,32.0,3.0,250.0,3420.288
3420298.0,225.0,31.0,5.0,250.0,3420.298
3420308.0,221.0,31.0,3.0,249.0,3420.308
3420318.0,228.0,32.0,3.0,255.0,3420.318
3420328.0,228.0,33.0,3.0,254.0,3420.328
3420338.0,223.0,32.0,4.0,246.0,3420.338
3420348.0,225.0,32.0,3.0,249.0,3420.348
3420358.0,224.0,32.0,5.0,249.0,3420.358
3420368.0,229.0,31.0,3.0,254.0,3420.368
3420378.0,231.0,32.0,4.0,255.0,3420.378
3420388.0,223.0,31.0,4.0,246.0,3420.388
3420398.0,226.0,32.0,3.0,248.0,3420.398
3420408.0,226.0,32.0,4.0,250.0,3420.408
3420418.0,229.0,32.0,3.0,253.0,3420.418
3420428.0,232.0,31.0,4.0,254.0,3420.428
3420438.0,222.0,31.0,4.0,245.0,3420.438
3420448.0,225.0,31.0,4.0,248.0,3420.448
3420459.0,226.0,33.0,3.0,253.0,3420.459
3420469.0,229.0,32.0,4.0,254.0,3420.469
3420479.0,228.0,32.0,3.0,253.0,3420.479
3420489.0,220.0,32.0,5.0,245.0,3420.489
3420499.0,224.0,31.0,4.0,251.0,3420.499
3420509.0,227.0,32.0,4.0,254.0,3420.509
3420519.0,228.0,32.0,3.0,255.0,3420.519
3420529.0,227.0,32.0,3.0,253.0,3420.529
3420539.0,220.0,32.0,4.0,243.0,3420.539
3420549.0,223.0,32.0,3.0,250.0,3420.549
3420559.0,228.0,33.0,3.0,256.0,3420.559
3420569.0,227.0,32.0,4.0,255.0,3420.569
3420579.0,228.0,32.0,4.0,253.0,3420.579
3420589.0,221.0,32.0,4.0,245.0,3420.589
3420599.0,224.0,32.0,4.0,248.0,3420.599
3420609.0,231.0,32.0,3.0,256.0,3420.609
3420619.0,230.0,32.0,5.0,251.0,3420.619
3420630.0,228.0,33.0,4.0,252.0,3420.63
3420640.0,220.0,32.0,4.0,241.0,3420.64
3420650.0,227.0,34.0,3.0,254.0,3420.65
3420660.0,232.0,32.0,4.0,256.0,3420.66
3420670.0,225.0,32.0,3.0,247.0,3420.67
3420680.0,228.0,32.0,4.0,250.0,3420.68
3420690.0,219.0,31.0,4.0,242.0,3420.69
3420700.0,229.0,32.0,3.0,253.0,3420.7
3420710.0,233.0,33.0,3.0,256.0,3420.71
3420720.0,228.0,32.0,3.0,249.0,3420.72
3420730.0,227.0,32.0,4.0,249.0,3420.73
3420740.0,220.0,32.0,4.0,241.0,3420.74
3420750.0,229.0,31.0,4.0,251.0,3420.75
3420760.0,231.0,33.0,4.0,252.0,3420.76
3420770.0,226.0,32.0,4.0,247.0,3420.77
3420780.0,227.0,33.0,3.0,250.0,3420.78
3420790.0,219.0,32.0,4.0,244.0,3420.79
3420800.0,224.0,33.0,3.0,253.0,3420.8
3420810.0,231.0,32.0,5.0,257.0,3420.81
3420820.0,224.0,32.0,4.0,249.0,3420.82
3420830.0,224.0,32.0,4.0,249.0,3420.83
3420840.0,219.0,33.0,3.0,247.0,3420.84
3420850.0,224.0,32.0,3.0,252.0,3420.85
3420860.0,229.0,32.0,4.0,256.0,3420.86
3420870.0,223.0,31.0,4.0,247.0,3420.87
3420880.0,225.0,31.0,4.0,248.0,3420.88
3420890.0,217.0,32.0,4.0,241.0,3420.89
3420900.0,226.0,32.0,4.0,252.0,3420.9
3420910.0,231.0,33.0,3.0,256.0,3420.91
3420920.0,224.0,32.0,4.0,248.0,3420.92
3420930.0,227.0,33.0,4.0,252.0,3420.93
3420940.0,220.0,32.0,5.0,244.0,3420.94
3420950.0,228.0,32.0,4.0,256.0,3420.95
3420960.0,231.0,32.0,3.0,256.0,3420.96
3420971.0,223.0,33.0,3.0,247.0,3420.971
3420981.0,225.0,32.0,4.0,250.0,3420.981
3420991.0,225.0,32.0,3.0,249.0,3420.991
3421001.0,230.0,32.0,5.0,251.0,3421.001
3421011.0,228.0,33.0,3.0,250.0,3421.011
3421021.0,223.0,32.0,5.0,245.0,3421.021
3421031.0,224.0,33.0,3.0,249.0,3421.031
3421041.0,225.0,32.0,4.0,252.0,3421.041
3421051.0,228.0,32.0,3.0,253.0,3421.051
3421061.0,230.0,33.0,3.0,256.0,3421.061
3421071.0,222.0,31.0,4.0,248.0,3421.071
3421081.0,224.0,33.0,4.0,251.0,3421.081
3421091.0,226.0,33.0,3.0,256.0,3421.091
3421101.0,227.0,33.0,3.0,257.0,3421.101
3421111.0,229.0,32.0,4.0,255.0,3421.111
3421121.0,220.0,32.0,3.0,246.0,3421.121
3421131.0,224.0,32.0,4.0,250.0,3421.131
3421142.0,226.0,33.0,2.0,254.0,3421.142
3421152.0,226.0,32.0,3.0,253.0,3421.152
3421162.0,226.0,34.0,3.0,253.0,3421.162
3421172.0,217.0,32.0,4.0,242.0,3421.172
3421182.0,224.0,33.0,3.0,251.0,3421.182
3421192.0,229.0,33.0,4.0,254.0,3421.192
3421202.0,228.0,33.0,4.0,252.0,3421.202
3421212.0,227.0,33.0,3.0,250.0,3421.212
3421222.0,217.0,33.0,4.0,242.0,3421.222
3421232.0,224.0,33.0,3.0,248.0,3421.232
3421242.0,229.0,32.0,4.0,255.0,3421.242
3421252.0,225.0,33.0,4.0,253.0,3421.252
3421262.0,227.0,33.0,5.0,252.0,3421.262
3421272.0,218.0,33.0,4.0,244.0,3421.272
3421282.0,222.0,33.0,4.0,249.0,3421.282
3421292.0,230.0,34.0,3.0,256.0,3421.292
3421302.0,226.0,32.0,4.0,251.0,3421.302
3421312.0,226.0,33.0,3.0,253.0,3421.312
3421322.0,218.0,33.0,5.0,243.0,3421.322
3421332.0,222.0,34.0,4.0,250.0,3421.332
3421342.0,229.0,33.0,4.0,255.0,3421.342
3421352.0,224.0,34.0,3.0,249.0,3421.352
3421362.0,227.0,34.0,3.0,250.0,3421.362
3421372.0,218.0,32.0,4.0,241.0,3421.372
3421382.0,223.0,33.0,4.0,251.0,3421.382
3421392.0,231.0,33.0,4.0,258.0,3421.392
3421402.0,224.0,34.0,3.0,255.0,3421.402
3421412.0,226.0,33.0,4.0,253.0,3421.412
3421422.0,217.0,34.0,3.0,243.0,3421.422
3421432.0,225.0,32.0,4.0,254.0,3421.432
3421442.0,229.0,33.0,4.0,258.0,3421.442
3421452.0,228.0,33.0,5.0,255.0,3421.452
3421462.0,227.0,33.0,4.0,253.0,3421.462
3421472.0,218.0,33.0,4.0,244.0,3421.472
3421483.0,226.0,34.0,3.0,255.0,3421.483
3421493.0,232.0,33.0,3.0,259.0,3421.493
3421503.0,224.0,33.0,3.0,251.0,3421.503
3421513.0,226.0,33.0,5.0,250.0,3421.513
3421523.0,223.0,33.0,3.0,250.0,3421.523
3421533.0,228.0,33.0,5.0,253.0,3421.533
3421543.0,233.0,34.0,4.0,257.0,3421.543
3421553.0,223.0,33.0,3.0,248.0,3421.553
3421563.0,225.0,33.0,4.0,250.0,3421.563
3421573.0,219.0,34.0,3.0,244.0,3421.573
3421583.0,229.0,33.0,4.0,255.0,3421.583
3421593.0,231.0,34.0,4.0,255.0,3421.593
3421603.0,222.0,33.0,4.0,246.0,3421.603
3421613.0,224.0,34.0,3.0,249.0,3421.613
3421623.0,218.0,33.0,4.0,245.0,3421.623
3421633.0,228.0,33.0,3.0,255.0,3421.633
3421643.0,231.0,33.0,5.0,255.0,3421.643
3421654.0,222.0,33.0,2.0,247.0,3421.654
3421664.0,224.0,33.0,4.0,249.0,3421.664
3421674.0,226.0,34.0,4.0,254.0,3421.674
3421684.0,228.0,34.0,3.0,255.0,3421.684
3421694.0,227.0,34.0,3.0,253.0,3421.694
3421704.0,221.0,34.0,3.0,246.0,3421.704
3421714.0,225.0,33.0,4.0,248.0,3421.714
3421724.0,227.0,34.0,3.0,254.0,3421.724
3421734.0,228.0,33.0,4.0,254.0,3421.734
3421744.0,230.0,34.0,3.0,255.0,3421.744
3421754.0,221.0,32.0,4.0,246.0,3421.754
3421764.0,223.0,33.0,3.0,249.0,3421.764
3421774.0,228.0,34.0,4.0,256.0,3421.774
3421784.0,229.0,33.0,4.0,255.0,3421.784
3421794.0,229.0,33.0,4.0,252.0,3421.794
3421804.0,220.0,33.0,3.0,245.0,3421.804
3421814.0,223.0,34.0,3.0,247.0,3421.814
3421824.0,224.0,34.0,3.0,251.0,3421.824
3421834.0,229.0,33.0,5.0,253.0,3421.834
3421844.0,228.0,34.0,3.0,250.0,3421.844
3421854.0,220.0,32.0,4.0,242.0,3421.854
