time (ms),signal 0,signal 1,signal 2,signal 3,time (sec)
3365900.0,220.0,32.0,206.0,254.0,3365.9
3365910.0,222.0,33.0,211.0,252.0,3365.91
3365920.0,214.0,32.0,195.0,244.0,3365.92
3365931.0,216.0,32.0,199.0,246.0,3365.931
3365941.0,217.0,33.0,201.0,249.0,3365.941
3365951.0,220.0,32.0,200.0,250.0,3365.951
3365961.0,219.0,33.0,201.0,246.0,3365.961
3365971.0,212.0,31.0,188.0,238.0,3365.971
3365981.0,215.0,33.0,194.0,243.0,3365.981
3365991.0,218.0,32.0,199.0,246.0,3365.991
3366001.0,219.0,33.0,198.0,248.0,3366.001
3366011.0,219.0,32.0,201.0,244.0,3366.011
3366021.0,213.0,32.0,189.0,240.0,3366.021
3366031.0,216.0,32.0,195.0,242.0,3366.031
3366041.0,218.0,33.0,202.0,248.0,3366.041
3366051.0,218.0,32.0,197.0,247.0,3366.051
3366061.0,220.0,33.0,203.0,248.0,3366.061
3366071.0,213.0,32.0,192.0,241.0,3366.071
3366081.0,215.0,32.0,196.0,244.0,3366.081
3366091.0,220.0,33.0,205.0,251.0,3366.091
3366102.0,219.0,32.0,199.0,249.0,3366.102
3366112.0,218.0,33.0,202.0,247.0,3366.112
3366122.0,211.0,32.0,191.0,239.0,3366.122
3366132.0,218.0,33.0,202.0,249.0,3366.132
3366142.0,223.0,32.0,211.0,253.0,3366.142
3366152.0,220.0,33.0,202.0,250.0,3366.152
3366162.0,220.0,33.0,208.0,249.0,3366.162
3366172.0,212.0,32.0,194.0,240.0,3366.172
3366182.0,221.0,32.0,204.0,249.0,3366.182
3366192.0,224.0,33.0,212.0,253.0,3366.192
3366202.0,221.0,32.0,200.0,248.0,3366.202
3366212.0,221.0,33.0,207.0,247.0,3366.212
3366222.0,213.0,33.0,195.0,240.0,3366.222
3366232.0,218.0,33.0,202.0,247.0,3366.232
3366242.0,225.0,34.0,216.0,254.0,3366.242
3366252.0,220.0,33.0,202.0,249.0,3366.252
3366262.0,219.0,33.0,211.0,248.0,3366.262
3366272.0,214.0,32.0,196.0,241.0,3366.272
3366282.0,219.0,33.0,206.0,249.0,3366.282
3366292.0,226.0,33.0,218.0,253.0,3366.292
3366302.0,220.0,32.0,202.0,247.0,3366.302
3366312.0,220.0,33.0,215.0,247.0,3366.312
3366322.0,214.0,33.0,202.0,241.0,3366.322
3366332.0,219.0,34.0,212.0,248.0,3366.332
3366342.0,225.0,33.0,229.0,252.0,3366.342
3366352.0,221.0,33.0,213.0,246.0,3366.352
3366362.0,222.0,33.0,230.0,248.0,3366.362
3366372.0,214.0,33.0,214.0,240.0,3366.372
3366382.0,223.0,33.0,229.0,253.0,3366.382
3366392.0,228.0,33.0,245.0,255.0,3366.392
3366402.0,224.0,32.0,227.0,252.0,3366.402
3366412.0,221.0,33.0,246.0,250.0,3366.412
3366422.0,215.0,33.0,232.0,242.0,3366.422
3366432.0,224.0,33.0,246.0,255.0,3366.432
3366443.0,227.0,33.0,269.0,255.0,3366.443
3366453.0,221.0,34.0,250.0,246.0,3366.453
3366463.0,223.0,33.0,271.0,247.0,3366.463
3366473.0,221.0,34.0,273.0,250.0,3366.473
3366483.0,228.0,33.0,275.0,256.0,3366.483
3366493.0,227.0,34.0,302.0,256.0,3366.493
3366503.0,221.0,33.0,281.0,248.0,3366.503
3366513.0,222.0,34.0,304.0,251.0,3366.513
3366523.0,223.0,33.0,312.0,253.0,3366.523
3366533.0,229.0,34.0,310.0,259.0,3366.533
3366543.0,233.0,34.0,342.0,258.0,3366.543
3366553.0,224.0,33.0,317.0,249.0,3366.553
3366563.0,224.0,34.0,343.0,252.0,3366.563
3366573.0,220.0,33.0,339.0,250.0,3366.573
3366583.0,230.0,34.0,345.0,257.0,3366.583
3366593.0,230.0,34.0,378.0,255.0,3366.593
3366603.0,222.0,33.0,352.0,248.0,3366.603
3366614.0,223.0,34.0,379.0,250.0,3366.614
3366624.0,226.0,34.0,389.0,255.0,3366.624
3366634.0,228.0,33.0,379.0,256.0,3366.634
3366644.0,226.0,35.0,413.0,253.0,3366.644
3366654.0,218.0,34.0,393.0,244.0,3366.654
3366664.0,224.0,34.0,416.0,249.0,3366.664
3366674.0,227.0,34.0,433.0,255.0,3366.674
3366684.0,227.0,34.0,419.0,255.0,3366.684
3366694.0,225.0,34.0,454.0,251.0,3366.694
3366704.0,220.0,35.0,434.0,248.0,3366.704
3366714.0,223.0,34.0,464.0,252.0,3366.714
3366724.0,229.0,34.0,479.0,260.0,3366.724
3366734.0,225.0,34.0,464.0,258.0,3366.734
3366744.0,227.0,34.0,504.0,257.0,3366.744
3366754.0,218.0,34.0,481.0,249.0,3366.754
3366764.0,224.0,35.0,510.0,253.0,3366.764
3366774.0,227.0,35.0,524.0,256.0,3366.774
3366784.0,228.0,34.0,510.0,254.0,3366.784
3366794.0,229.0,35.0,552.0,252.0,3366.794
3366804.0,226.0,35.0,533.0,247.0,3366.804
3366814.0,231.0,35.0,559.0,255.0,3366.814
3366824.0,241.0,36.0,584.0,261.0,3366.824
3366834.0,237.0,36.0,567.0,260.0,3366.834
3366844.0,230.0,36.0,605.0,254.0,3366.844
3366854.0,223.0,35.0,582.0,248.0,3366.854
3366864.0,225.0,35.0,612.0,255.0,3366.864
3366874.0,226.0,35.0,625.0,256.0,3366.874
3366884.0,220.0,35.0,618.0,251.0,3366.884
3366894.0,218.0,36.0,656.0,251.0,3366.894
3366904.0,212.0,35.0,631.0,245.0,3366.904
3366914.0,216.0,36.0,661.0,251.0,3366.914
3366924.0,230.0,36.0,666.0,256.0,3366.924
3366934.0,239.0,35.0,651.0,253.0,3366.934
3366944.0,229.0,36.0,666.0,255.0,3366.944
3366955.0,221.0,35.0,666.0,244.0,3366.955
3366965.0,232.0,34.0,666.0,256.0,3366.965
3366975.0,238.0,36.0,666.0,257.0,3366.975
3366985.0,237.0,35.0,662.0,249.0,3366.985
3366995.0,236.0,35.0,666.0,249.0,3366.995
3367005.0,228.0,35.0,648.0,242.0,3367.005
3367015.0,238.0,35.0,645.0,253.0,3367.015
3367025.0,237.0,36.0,654.0,255.0,3367.025
3367035.0,230.0,34.0,596.0,257.0,3367.035
3367045.0,234.0,34.0,610.0,262.0,3367.045
3367055.0,227.0,34.0,572.0,250.0,3367.055
3367065.0,237.0,34.0,563.0,263.0,3367.065
3367075.0,238.0,34.0,567.0,263.0,3367.075
3367085.0,231.0,33.0,521.0,258.0,3367.085
3367095.0,228.0,35.0,527.0,260.0,3367.095
3367105.0,222.0,32.0,490.0,252.0,3367.105
3367115.0,234.0,33.0,477.0,265.0,3367.115
3367126.0,235.0,34.0,484.0,264.0,3367.126
3367136.0,230.0,32.0,438.0,255.0,3367.136
3367146.0,230.0,32.0,438.0,256.0,3367.146
3367156.0,231.0,34.0,424.0,260.0,3367.156
3367166.0,233.0,32.0,399.0,263.0,3367.166
3367176.0,234.0,32.0,410.0,263.0,3367.176
3367186.0,225.0,32.0,369.0,254.0,3367.186
3367196.0,223.0,31.0,372.0,256.0,3367.196
3367206.0,222.0,32.0,362.0,260.0,3367.206
3367216.0,227.0,31.0,346.0,262.0,3367.216
3367226.0,229.0,32.0,355.0,263.0,3367.226
3367236.0,222.0,31.0,318.0,252.0,3367.236
3367246.0,223.0,31.0,321.0,254.0,3367.246
3367256.0,225.0,31.0,311.0,254.0,3367.256
3367266.0,231.0,31.0,303.0,262.0,3367.266
3367276.0,230.0,31.0,316.0,261.0,3367.276
3367286.0,224.0,32.0,283.0,251.0,3367.286
3367296.0,227.0,31.0,293.0,255.0,3367.296
3367306.0,229.0,31.0,281.0,254.0,3367.306
3367316.0,237.0,31.0,275.0,260.0,3367.316
3367326.0,235.0,31.0,282.0,257.0,3367.326
3367336.0,228.0,31.0,253.0,247.0,3367.336
3367346.0,232.0,31.0,261.0,253.0,3367.346
3367356.0,233.0,32.0,253.0,255.0,3367.356
3367366.0,237.0,30.0,250.0,257.0,3367.366
3367376.0,235.0,31.0,256.0,256.0,3367.376
3367386.0,230.0,31.0,236.0,248.0,3367.386
3367396.0,230.0,31.0,241.0,251.0,3367.396
3367406.0,231.0,31.0,240.0,255.0,3367.406
3367416.0,236.0,32.0,233.0,257.0,3367.416
3367426.0,236.0,32.0,243.0,257.0,3367.426
3367436.0,228.0,31.0,221.0,247.0,3367.436
3367446.0,229.0,32.0,225.0,250.0,3367.446
3367456.0,233.0,31.0,229.0,257.0,3367.456
3367467.0,234.0,31.0,223.0,257.0,3367.467
3367477.0,232.0,32.0,225.0,254.0,3367.477
3367487.0,223.0,31.0,207.0,245.0,3367.487
3367497.0,224.0,31.0,213.0,253.0,3367.497
3367507.0,231.0,32.0,223.0,258.0,3367.507
3367517.0,232.0,31.0,212.0,254.0,3367.517
3367527.0,230.0,31.0,215.0,253.0,3367.527
3367537.0,225.0,32.0,201.0,244.0,3367.537
3367547.0,232.0,32.0,208.0,252.0,3367.547
3367557.0,237.0,32.0,215.0,256.0,3367.557
3367567.0,236.0,32.0,209.0,254.0,3367.567
3367577.0,233.0,31.0,209.0,250.0,3367.577
3367587.0,221.0,31.0,196.0,240.0,3367.587
3367597.0,231.0,31.0,204.0,248.0,3367.597
3367607.0,242.0,33.0,215.0,258.0,3367.607
3367617.0,239.0,30.0,206.0,254.0,3367.617
3367627.0,231.0,31.0,209.0,253.0,3367.627
3367638.0,224.0,32.0,204.0,251.0,3367.638
3367648.0,235.0,31.0,215.0,266.0,3367.648
3367658.0,243.0,32.0,229.0,273.0,3367.658
3367668.0,239.0,30.0,213.0,263.0,3367.668
3367678.0,253.0,32.0,222.0,262.0,3367.678
3367688.0,238.0,32.0,213.0,257.0,3367.688
3367698.0,245.0,32.0,223.0,268.0,3367.698
3367708.0,245.0,31.0,241.0,267.0,3367.708
3367718.0,229.0,32.0,218.0,256.0,3367.718
3367728.0,232.0,32.0,234.0,257.0,3367.728
3367738.0,233.0,33.0,224.0,252.0,3367.738
3367748.0,240.0,32.0,236.0,260.0,3367.748
3367758.0,243.0,32.0,254.0,261.0,3367.758
3367768.0,236.0,32.0,234.0,252.0,3367.768
3367778.0,235.0,32.0,246.0,255.0,3367.778
3367788.0,227.0,32.0,235.0,250.0,3367.788
3367798.0,236.0,33.0,241.0,261.0,3367.798
3367808.0,240.0,32.0,255.0,260.0,3367.808
3367818.0,233.0,32.0,234.0,255.0,3367.818
3367828.0,236.0,32.0,248.0,256.0,3367.828
3367838.0,236.0,31.0,240.0,257.0,3367.838
3367848.0,242.0,32.0,243.0,266.0,3367.848
3367858.0,245.0,32.0,259.0,263.0,3367.858
3367868.0,240.0,32.0,236.0,262.0,3367.868
3367878.0,243.0,32.0,252.0,266.0,3367.878
3367888.0,237.0,32.0,248.0,262.0,3367.888
3367898.0,243.0,32.0,253.0,267.0,3367.898
3367908.0,242.0,32.0,266.0,271.0,3367.908
3367918.0,234.0,32.0,241.0,254.0,3367.918
3367928.0,234.0,33.0,251.0,252.0,3367.928
3367938.0,225.0,32.0,241.0,242.0,3367.938
3367948.0,231.0,32.0,249.0,261.0,3367.948
3367958.0,236.0,32.0,267.0,268.0,3367.958
3367968.0,227.0,31.0,240.0,259.0,3367.968
3367979.0,228.0,32.0,248.0,253.0,3367.979
3367989.0,226.0,32.0,246.0,257.0,3367.989
3367999.0,232.0,32.0,242.0,260.0,3367.999
3368009.0,231.0,31.0,247.0,257.0,3368.009
3368019.0,220.0,32.0,225.0,248.0,3368.019
3368029.0,225.0,31.0,232.0,253.0,3368.029
3368039.0,226.0,31.0,232.0,256.0,3368.039
3368049.0,229.0,31.0,226.0,257.0,3368.049
3368059.0,228.0,32.0,228.0,256.0,3368.059
3368069.0,222.0,31.0,214.0,250.0,3368.069
3368079.0,225.0,31.0,215.0,251.0,3368.079
3368089.0,230.0,31.0,221.0,258.0,3368.089
3368099.0,230.0,31.0,218.0,258.0,3368.099
3368109.0,232.0,31.0,217.0,257.0,3368.109
3368119.0,225.0,31.0,207.0,248.0,3368.119
3368129.0,227.0,32.0,210.0,252.0,3368.129
3368139.0,231.0,31.0,217.0,258.0,3368.139
3368150.0,231.0,31.0,218.0,258.0,3368.15
3368160.0,232.0,31.0,215.0,254.0,3368.16
3368170.0,222.0,31.0,208.0,245.0,3368.17
3368180.0,229.0,31.0,218.0,256.0,3368.18
3368190.0,235.0,32.0,225.0,261.0,3368.19
3368200.0,233.0,30.0,226.0,259.0,3368.2
3368210.0,237.0,31.0,223.0,257.0,3368.21
3368220.0,239.0,31.0,223.0,256.0,3368.22
3368230.0,245.0,31.0,233.0,266.0,3368.23
3368240.0,245.0,31.0,236.0,267.0,3368.24
3368250.0,236.0,32.0,229.0,263.0,3368.25
3368260.0,234.0,30.0,223.0,259.0,3368.26
3368270.0,231.0,30.0,216.0,255.0,3368.27
3368280.0,235.0,31.0,221.0,260.0,3368.28
3368290.0,249.0,31.0,237.0,270.0,3368.29
3368300.0,237.0,31.0,222.0,263.0,3368.3
3368310.0,236.0,32.0,227.0,261.0,3368.31
3368320.0,227.0,32.0,213.0,252.0,3368.32
3368330.0,234.0,32.0,220.0,259.0,3368.33
3368340.0,241.0,31.0,230.0,265.0,3368.34
3368350.0,236.0,31.0,217.0,262.0,3368.35
3368360.0,234.0,32.0,220.0,261.0,3368.36
3368370.0,229.0,32.0,208.0,255.0,3368.37
3368380.0,233.0,33.0,215.0,262.0,3368.38
3368390.0,239.0,32.0,227.0,268.0,3368.39
3368400.0,232.0,32.0,208.0,260.0,3368.4
3368410.0,236.0,32.0,223.0,259.0,3368.41
3368420.0,230.0,31.0,204.0,257.0,3368.42
3368430.0,232.0,32.0,212.0,257.0,3368.43
3368440.0,239.0,33.0,225.0,270.0,3368.44
3368450.0,235.0,32.0,213.0,269.0,3368.45
3368460.0,231.0,32.0,226.0,271.0,3368.46
3368470.0,220.0,32.0,210.0,260.0,3368.47
3368480.0,233.0,32.0,223.0,266.0,3368.48
3368491.0,240.0,33.0,244.0,273.0,3368.491
3368501.0,234.0,32.0,223.0,271.0,3368.501
3368511.0,234.0,33.0,242.0,274.0,3368.511
3368521.0,234.0,32.0,240.0,272.0,3368.521
3368531.0,241.0,32.0,239.0,274.0,3368.531
3368541.0,241.0,33.0,259.0,267.0,3368.541
3368551.0,232.0,33.0,236.0,258.0,3368.551
3368561.0,234.0,33.0,252.0,262.0,3368.561
3368571.0,236.0,34.0,250.0,263.0,3368.571
3368581.0,238.0,32.0,251.0,265.0,3368.581
3368591.0,240.0,33.0,265.0,266.0,3368.591
3368601.0,233.0,32.0,240.0,256.0,3368.601
3368611.0,234.0,32.0,250.0,257.0,3368.611
3368621.0,228.0,33.0,242.0,252.0,3368.621
3368631.0,236.0,33.0,249.0,263.0,3368.631
3368641.0,238.0,33.0,264.0,261.0,3368.641
3368651.0,231.0,32.0,239.0,255.0,3368.651
3368662.0,232.0,32.0,252.0,258.0,3368.662
3368672.0,234.0,33.0,257.0,261.0,3368.672
3368682.0,235.0,32.0,245.0,261.0,3368.682
3368692.0,231.0,33.0,262.0,256.0,3368.692
3368702.0,223.0,33.0,238.0,249.0,3368.702
3368712.0,226.0,32.0,248.0,252.0,3368.712
3368722.0,229.0,33.0,256.0,258.0,3368.722
3368732.0,231.0,32.0,244.0,258.0,3368.732
3368742.0,229.0,31.0,260.0,256.0,3368.742
3368752.0,224.0,32.0,240.0,251.0,3368.752
3368762.0,227.0,33.0,255.0,255.0,3368.762
3368772.0,229.0,32.0,266.0,259.0,3368.772
3368782.0,230.0,32.0,251.0,258.0,3368.782
3368792.0,231.0,33.0,277.0,257.0,3368.792
3368802.0,225.0,31.0,252.0,251.0,3368.802
3368812.0,226.0,33.0,266.0,253.0,3368.812
3368822.0,231.0,33.0,281.0,259.0,3368.822
3368832.0,232.0,33.0,268.0,259.0,3368.832
3368842.0,232.0,32.0,295.0,256.0,3368.842
3368852.0,224.0,31.0,270.0,248.0,3368.852
3368862.0,228.0,32.0,287.0,253.0,3368.862
3368872.0,233.0,33.0,301.0,261.0,3368.872
3368882.0,232.0,32.0,287.0,260.0,3368.882
3368892.0,230.0,33.0,315.0,258.0,3368.892
3368902.0,223.0,32.0,292.0,252.0,3368.902
3368912.0,227.0,32.0,311.0,257.0,3368.912
3368922.0,231.0,32.0,324.0,262.0,3368.922
3368932.0,234.0,31.0,312.0,263.0,3368.932
3368942.0,231.0,33.0,343.0,259.0,3368.942
3368952.0,223.0,32.0,320.0,253.0,3368.952
3368962.0,227.0,33.0,345.0,257.0,3368.962
3368972.0,231.0,32.0,354.0,262.0,3368.972
3368982.0,232.0,32.0,341.0,263.0,3368.982
3368992.0,231.0,32.0,377.0,259.0,3368.992
3369003.0,223.0,32.0,354.0,252.0,3369.003
3369013.0,229.0,33.0,373.0,261.0,3369.013
3369023.0,234.0,34.0,397.0,264.0,3369.023
3369033.0,233.0,32.0,373.0,262.0,3369.033
3369043.0,234.0,33.0,406.0,260.0,3369.043
3369053.0,227.0,33.0,389.0,254.0,3369.053
3369063.0,232.0,32.0,408.0,264.0,3369.063
3369073.0,236.0,33.0,436.0,266.0,3369.073
3369083.0,231.0,33.0,414.0,262.0,3369.083
3369093.0,233.0,34.0,451.0,261.0,3369.093
3369103.0,227.0,32.0,433.0,254.0,3369.103
3369113.0,235.0,32.0,451.0,266.0,3369.113
3369123.0,239.0,33.0,482.0,269.0,3369.123
3369133.0,236.0,33.0,458.0,265.0,3369.133
3369143.0,234.0,33.0,499.0,263.0,3369.143
3369153.0,226.0,34.0,483.0,257.0,3369.153
3369163.0,235.0,32.0,499.0,266.0,3369.163
3369174.0,237.0,34.0,535.0,266.0,3369.174
3369184.0,233.0,33.0,513.0,259.0,3369.184
3369194.0,230.0,34.0,548.0,259.0,3369.194
3369204.0,231.0,33.0,546.0,265.0,3369.204
3369214.0,237.0,35.0,548.0,270.0,3369.214
3369224.0,235.0,34.0,590.0,266.0,3369.224
3369234.0,227.0,34.0,570.0,257.0,3369.234
3369244.0,227.0,35.0,609.0,259.0,3369.244
3369254.0,228.0,34.0,610.0,261.0,3369.254
3369264.0,231.0,35.0,612.0,264.0,3369.264
3369274.0,234.0,35.0,650.0,262.0,3369.274
3369284.0,230.0,35.0,624.0,262.0,3369.284
3369294.0,231.0,34.0,664.0,262.0,3369.294
3369304.0,226.0,35.0,660.0,260.0,3369.304
3369314.0,235.0,34.0,666.0,268.0,3369.314
3369324.0,233.0,35.0,666.0,264.0,3369.324
3369334.0,228.0,33.0,666.0,262.0,3369.334
3369344.0,230.0,35.0,666.0,268.0,3369.344
3369354.0,229.0,34.0,667.0,270.0,3369.354
3369364.0,234.0,34.0,666.0,266.0,3369.364
3369374.0,235.0,34.0,667.0,262.0,3369.374
3369384.0,223.0,33.0,666.0,247.0,3369.384
3369394.0,227.0,35.0,665.0,252.0,3369.394
3369404.0,226.0,34.0,666.0,250.0,3369.404
3369414.0,230.0,34.0,665.0,255.0,3369.414
3369424.0,229.0,34.0,666.0,252.0,3369.424
3369434.0,224.0,34.0,666.0,252.0,3369.434
3369444.0,228.0,33.0,666.0,261.0,3369.444
3369454.0,226.0,34.0,667.0,269.0,3369.454
3369464.0,230.0,33.0,665.0,273.0,3369.464
3369474.0,231.0,35.0,666.0,272.0,3369.474
3369484.0,223.0,33.0,665.0,256.0,3369.484
3369494.0,223.0,33.0,666.0,258.0,3369.494
3369504.0,226.0,33.0,668.0,262.0,3369.504
3369515.0,230.0,34.0,665.0,266.0,3369.515
3369525.0,230.0,33.0,666.0,269.0,3369.525
3369535.0,221.0,34.0,666.0,259.0,3369.535
3369545.0,225.0,34.0,666.0,265.0,3369.545
3369555.0,232.0,33.0,667.0,267.0,3369.555
3369565.0,229.0,33.0,666.0,264.0,3369.565
3369575.0,228.0,33.0,666.0,261.0,3369.575
3369585.0,220.0,33.0,666.0,253.0,3369.585
3369595.0,224.0,33.0,666.0,259.0,3369.595
3369605.0,227.0,34.0,666.0,263.0,3369.605
3369615.0,227.0,32.0,653.0,261.0,3369.615
3369625.0,225.0,33.0,636.0,255.0,3369.625
3369635.0,218.0,33.0,622.0,245.0,3369.635
3369645.0,222.0,33.0,607.0,247.0,3369.645
3369655.0,227.0,33.0,593.0,256.0,3369.655
3369665.0,226.0,34.0,579.0,255.0,3369.665
3369675.0,224.0,32.0,565.0,252.0,3369.675
3369686.0,217.0,33.0,552.0,245.0,3369.686
3369696.0,225.0,33.0,540.0,256.0,3369.696
3369706.0,230.0,33.0,527.0,261.0,3369.706
3369716.0,224.0,33.0,515.0,256.0,3369.716
3369726.0,224.0,33.0,502.0,258.0,3369.726
3369736.0,218.0,32.0,493.0,249.0,3369.736
3369746.0,227.0,32.0,481.0,260.0,3369.746
3369756.0,229.0,32.0,470.0,260.0,3369.756
3369766.0,224.0,31.0,459.0,254.0,3369.766
3369776.0,225.0,32.0,449.0,256.0,3369.776
3369786.0,218.0,32.0,440.0,250.0,3369.786
3369796.0,227.0,32.0,429.0,263.0,3369.796
3369806.0,229.0,32.0,419.0,262.0,3369.806
3369816.0,225.0,31.0,409.0,258.0,3369.816
3369826.0,225.0,31.0,401.0,256.0,3369.826
3369836.0,218.0,31.0,390.0,252.0,3369.836
3369846.0,226.0,31.0,381.0,262.0,3369.846
3369856.0,229.0,31.0,373.0,262.0,3369.856
3369866.0,223.0,31.0,363.0,256.0,3369.866
3369876.0,224.0,30.0,354.0,255.0,3369.876
3369886.0,219.0,31.0,346.0,253.0,3369.886
3369896.0,228.0,31.0,337.0,262.0,3369.896
3369906.0,228.0,31.0,329.0,262.0,3369.906
3369916.0,224.0,29.0,321.0,256.0,3369.916
3369926.0,223.0,31.0,312.0,256.0,3369.926
3369936.0,220.0,30.0,304.0,255.0,3369.936
3369946.0,225.0,31.0,296.0,261.0,3369.946
3369956.0,229.0,31.0,289.0,263.0,3369.956
3369966.0,223.0,31.0,280.0,257.0,3369.966
3369976.0,224.0,30.0,273.0,256.0,3369.976
3369986.0,218.0,32.0,266.0,252.0,3369.986
3369996.0,226.0,31.0,258.0,262.0,3369.996
3370006.0,230.0,31.0,252.0,260.0,3370.006
3370016.0,224.0,31.0,245.0,255.0,3370.016
3370027.0,225.0,31.0,237.0,255.0,3370.027
3370037.0,224.0,31.0,231.0,257.0,3370.037
3370047.0,228.0,31.0,224.0,261.0,3370.047
3370057.0,226.0,32.0,217.0,258.0,3370.057
3370067.0,220.0,31.0,211.0,250.0,3370.067
3370077.0,222.0,32.0,205.0,254.0,3370.077
3370087.0,224.0,31.0,201.0,256.0,3370.087
3370097.0,226.0,31.0,193.0,258.0,3370.097
3370107.0,224.0,31.0,188.0,255.0,3370.107
3370117.0,220.0,32.0,183.0,253.0,3370.117
3370127.0,222.0,32.0,177.0,254.0,3370.127
3370137.0,225.0,32.0,172.0,258.0,3370.137
3370147.0,229.0,31.0,167.0,261.0,3370.147
3370157.0,229.0,31.0,162.0,260.0,3370.157
3370167.0,221.0,31.0,157.0,252.0,3370.167
3370177.0,223.0,33.0,152.0,254.0,3370.177
3370187.0,226.0,32.0,147.0,259.0,3370.187
3370198.0,228.0,31.0,143.0,259.0,3370.198
3370208.0,225.0,32.0,138.0,256.0,3370.208
3370218.0,218.0,31.0,134.0,246.0,3370.218
3370228.0,222.0,32.0,129.0,252.0,3370.228
3370238.0,227.0,32.0,126.0,256.0,3370.238
3370248.0,224.0,33.0,122.0,255.0,3370.248
3370258.0,223.0,32.0,117.0,251.0,3370.258
3370268.0,215.0,32.0,113.0,243.0,3370.268
3370278.0,221.0,32.0,111.0,251.0,3370.278
3370288.0,223.0,32.0,107.0,254.0,3370.288
3370298.0,221.0,32.0,103.0,253.0,3370.298
3370308.0,220.0,33.0,99.0,252.0,3370.308
3370318.0,212.0,32.0,97.0,243.0,3370.318
3370328.0,216.0,32.0,93.0,248.0,3370.328
3370338.0,222.0,32.0,91.0,253.0,3370.338
3370348.0,221.0,31.0,87.0,250.0,3370.348
3370358.0,219.0,32.0,84.0,248.0,3370.358
3370368.0,214.0,31.0,82.0,243.0,3370.368
3370378.0,218.0,33.0,79.0,249.0,3370.378
3370388.0,224.0,32.0,76.0,254.0,3370.388
3370398.0,220.0,32.0,73.0,250.0,3370.398
3370408.0,219.0,32.0,71.0,248.0,3370.408
3370418.0,213.0,32.0,69.0,241.0,3370.418
3370428.0,219.0,32.0,66.0,248.0,3370.428
3370438.0,224.0,33.0,63.0,253.0,3370.438
3370448.0,221.0,31.0,61.0,248.0,3370.448
3370458.0,221.0,32.0,59.0,247.0,3370.458
3370468.0,215.0,32.0,58.0,241.0,3370.468
3370478.0,222.0,31.0,54.0,252.0,3370.478
3370488.0,225.0,32.0,53.0,253.0,3370.488
3370498.0,223.0,32.0,51.0,253.0,3370.498
3370508.0,221.0,32.0,49.0,249.0,3370.508
3370518.0,214.0,32.0,48.0,241.0,3370.518
3370528.0,222.0,32.0,45.0,251.0,3370.528
3370539.0,226.0,32.0,44.0,255.0,3370.539
3370549.0,220.0,32.0,42.0,250.0,3370.549
3370559.0,219.0,32.0,40.0,251.0,3370.559
3370569.0,217.0,32.0,38.0,248.0,3370.569
3370579.0,223.0,32.0,37.0,256.0,3370.579
3370589.0,224.0,32.0,35.0,255.0,3370.589
3370599.0,218.0,32.0,34.0,248.0,3370.599
3370609.0,218.0,33.0,32.0,248.0,3370.609
3370619.0,217.0,31.0,31.0,248.0,3370.619
3370629.0,221.0,32.0,30.0,253.0,3370.629
3370639.0,223.0,32.0,28.0,253.0,3370.639
3370649.0,216.0,32.0,27.0,247.0,3370.649
3370659.0,216.0,32.0,26.0,247.0,3370.659
3370669.0,212.0,31.0,25.0,242.0,3370.669
3370679.0,220.0,32.0,23.0,253.0,3370.679
3370689.0,222.0,32.0,22.0,251.0,3370.689
3370699.0,215.0,32.0,19.0,244.0,3370.699
3370710.0,216.0,32.0,19.0,245.0,3370.71
3370720.0,217.0,32.0,17.0,248.0,3370.72
3370730.0,222.0,31.0,17.0,249.0,3370.73
3370740.0,220.0,32.0,16.0,247.0,3370.74
3370750.0,213.0,31.0,16.0,238.0,3370.75
3370760.0,217.0,32.0,13.0,243.0,3370.76
3370770.0,219.0,32.0,13.0,248.0,3370.77
3370780.0,221.0,32.0,12.0,249.0,3370.78
3370790.0,220.0,32.0,13.0,245.0,3370.79
3370800.0,214.0,31.0,10.0,240.0,3370.8
3370810.0,215.0,32.0,10.0,242.0,3370.81
3370820.0,220.0,32.0,9.0,249.0,3370.82
3370830.0,219.0,32.0,9.0,248.0,3370.83
3370840.0,221.0,32.0,9.0,247.0,3370.84
3370850.0,213.0,31.0,8.0,240.0,3370.85
3370860.0,216.0,31.0,8.0,242.0,3370.86
3370870.0,219.0,32.0,6.0,249.0,3370.87
3370880.0,221.0,31.0,7.0,249.0,3370.88
3370890.0,219.0,33.0,7.0,246.0,3370.89
3370900.0,211.0,32.0,6.0,239.0,3370.9
3370910.0,215.0,31.0,5.0,243.0,3370.91
3370920.0,221.0,32.0,6.0,250.0,3370.92
3370930.0,219.0,31.0,5.0,248.0,3370.93
3370940.0,218.0,32.0,5.0,245.0,3370.94
3370950.0,210.0,33.0,5.0,238.0,3370.95
3370960.0,213.0,32.0,5.0,242.0,3370.96
3370970.0,216.0,32.0,5.0,246.0,3370.97
3370980.0,219.0,32.0,6.0,247.0,3370.98
3370990.0,218.0,31.0,4.0,244.0,3370.99
3371000.0,209.0,31.0,4.0,236.0,3371.0
3371010.0,215.0,31.0,5.0,241.0,3371.01
3371020.0,217.0,32.0,5.0,245.0,3371.02
3371030.0,218.0,32.0,4.0,246.0,3371.03
3371040.0,217.0,32.0,4.0,243.0,3371.04
3371051.0,210.0,32.0,5.0,235.0,3371.051
3371061.0,214.0,32.0,4.0,243.0,3371.061
3371071.0,220.0,33.0,4.0,248.0,3371.071
3371081.0,214.0,33.0,5.0,244.0,3371.081
3371091.0,215.0,32.0,5.0,244.0,3371.091
3371101.0,208.0,33.0,3.0,238.0,3371.101
3371111.0,215.0,32.0,5.0,246.0,3371.111
3371121.0,220.0,33.0,4.0,250.0,3371.121
3371131.0,214.0,32.0,4.0,243.0,3371.131
3371141.0,216.0,32.0,4.0,244.0,3371.141
3371151.0,208.0,33.0,4.0,237.0,3371.151
3371161.0,214.0,32.0,4.0,245.0,3371.161
3371171.0,220.0,33.0,5.0,248.0,3371.171
3371181.0,216.0,32.0,5.0,243.0,3371.181
3371191.0,215.0,33.0,4.0,242.0,3371.191
3371201.0,207.0,33.0,4.0,235.0,3371.201
3371211.0,215.0,33.0,3.0,245.0,3371.211
3371222.0,219.0,32.0,4.0,246.0,3371.222
3371232.0,212.0,32.0,4.0,239.0,3371.232
3371242.0,214.0,33.0,5.0,241.0,3371.242
3371252.0,214.0,33.0,4.0,241.0,3371.252
3371262.0,219.0,32.0,4.0,245.0,3371.262
3371272.0,220.0,33.0,4.0,246.0,3371.272
3371282.0,213.0,32.0,4.0,239.0,3371.282
3371292.0,215.0,32.0,4.0,241.0,3371.292
3371302.0,215.0,32.0,5.0,242.0,3371.302
3371312.0,217.0,32.0,4.0,246.0,3371.312
3371322.0,220.0,33.0,4.0,245.0,3371.322
3371332.0,211.0,32.0,4.0,238.0,3371.332
3371342.0,213.0,32.0,4.0,240.0,3371.342
3371352.0,210.0,33.0,4.0,238.0,3371.352
3371362.0,217.0,32.0,4.0,244.0,3371.362
3371372.0,221.0,33.0,4.0,243.0,3371.372
3371382.0,212.0,32.0,4.0,237.0,3371.382
3371392.0,216.0,33.0,5.0,242.0,3371.392
3371402.0,211.0,34.0,3.0,240.0,3371.402
3371412.0,219.0,32.0,4.0,245.0,3371.412
3371422.0,219.0,33.0,4.0,243.0,3371.422
3371432.0,212.0,32.0,5.0,235.0,3371.432
3371442.0,214.0,33.0,4.0,239.0,3371.442
3371452.0,212.0,33.0,4.0,239.0,3371.452
3371462.0,218.0,33.0,4.0,245.0,3371.462
3371472.0,218.0,32.0,4.0,241.0,3371.472
3371482.0,212.0,33.0,4.0,237.0,3371.482
3371492.0,213.0,32.0,4.0,239.0,3371.492
3371502.0,214.0,32.0,4.0,241.0,3371.502
3371512.0,216.0,32.0,2.0,245.0,3371.512
3371522.0,219.0,33.0,4.0,247.0,3371.522
3371532.0,210.0,34.0,3.0,238.0,3371.532
3371542.0,212.0,32.0,4.0,238.0,3371.542
3371552.0,214.0,32.0,4.0,240.0,3371.552
3371563.0,218.0,33.0,5.0,243.0,3371.563
3371573.0,217.0,33.0,4.0,242.0,3371.573
3371583.0,208.0,33.0,4.0,231.0,3371.583
3371593.0,213.0,33.0,3.0,239.0,3371.593
3371603.0,218.0,32.0,4.0,243.0,3371.603
3371613.0,217.0,33.0,4.0,242.0,3371.613
3371623.0,216.0,33.0,4.0,240.0,3371.623
3371633.0,208.0,33.0,4.0,231.0,3371.633
3371643.0,213.0,33.0,4.0,238.0,3371.643
3371653.0,217.0,32.0,4.0,241.0,3371.653
3371663.0,215.0,33.0,4.0,241.0,3371.663
3371673.0,215.0,32.0,4.0,239.0,3371.673
3371683.0,207.0,33.0,4.0,230.0,3371.683
3371693.0,212.0,32.0,4.0,237.0,3371.693
3371703.0,216.0,33.0,4.0,243.0,3371.703
3371713.0,215.0,32.0,4.0,240.0,3371.713
3371723.0,216.0,33.0,3.0,239.0,3371.723
3371734.0,208.0,32.0,4.0,230.0,3371.734
3371744.0,215.0,32.0,4.0,240.0,3371.744
3371754.0,220.0,33.0,5.0,241.0,3371.754
3371764.0,213.0,31.0,4.0,234.0,3371.764
3371774.0,214.0,32.0,4.0,235.0,3371.774
3371784.0,208.0,33.0,4.0,229.0,3371.784
3371794.0,214.0,32.0,3.0,239.0,3371.794
3371804.0,218.0,32.0,4.0,241.0,3371.804
3371814.0,212.0,32.0,5.0,234.0,3371.814
3371824.0,215.0,32.0,4.0,236.0,3371.824
3371834.0,206.0,32.0,3.0,230.0,3371.834
3371844.0,215.0,32.0,4.0,241.0,3371.844
3371854.0,219.0,33.0,4.0,242.0,3371.854
3371864.0,214.0,32.0,4.0,237.0,3371.864
3371874.0,213.0,32.0,4.0,237.0,3371.874
3371884.0,209.0,32.0,5.0,232.0,3371.884
3371894.0,216.0,32.0,4.0,241.0,3371.894
3371904.0,220.0,32.0,5.0,243.0,3371.904
3371914.0,213.0,33.0,3.0,237.0,3371.914
3371924.0,214.0,32.0,4.0,236.0,3371.924
3371934.0,209.0,32.0,4.0,233.0,3371.934
3371944.0,217.0,32.0,4.0,242.0,3371.944
3371954.0,219.0,31.0,4.0,243.0,3371.954
3371964.0,213.0,31.0,4.0,237.0,3371.964
3371974.0,214.0,32.0,4.0,239.0,3371.974
3371984.0,211.0,33.0,3.0,234.0,3371.984
3371994.0,216.0,32.0,4.0,239.0,3371.994
3372004.0,220.0,32.0,4.0,243.0,3372.004
3372014.0,215.0,31.0,5.0,235.0,3372.014
3372024.0,214.0,32.0,4.0,237.0,3372.024
3372034.0,207.0,32.0,5.0,231.0,3372.034
3372044.0,215.0,33.0,3.0,243.0,3372.044
3372054.0,219.0,31.0,4.0,244.0,3372.054
3372064.0,211.0,32.0,3.0,236.0,3372.064
3372075.0,213.0,32.0,5.0,237.0,3372.075
3372085.0,212.0,31.0,4.0,239.0,3372.085
3372095.0,217.0,31.0,4.0,241.0,3372.095
3372105.0,216.0,33.0,4.0,240.0,3372.105
3372115.0,210.0,31.0,4.0,231.0,3372.115
3372125.0,213.0,31.0,4.0,236.0,3372.125
3372135.0,213.0,32.0,4.0,238.0,3372.135
3372145.0,218.0,31.0,3.0,240.0,3372.145
3372155.0,218.0,32.0,4.0,238.0,3372.155
3372165.0,213.0,31.0,4.0,233.0,3372.165
3372175.0,213.0,33.0,3.0,235.0,3372.175
3372185.0,215.0,32.0,4.0,238.0,3372.185
3372195.0,217.0,31.0,3.0,240.0,3372.195
3372205.0,218.0,32.0,4.0,240.0,3372.205
3372215.0,210.0,31.0,4.0,231.0,3372.215
3372225.0,212.0,31.0,4.0,233.0,3372.225
3372235.0,215.0,33.0,3.0,238.0,3372.235
3372246.0,217.0,32.0,3.0,238.0,3372.246
3372256.0,216.0,32.0,4.0,237.0,3372.256
3372266.0,209.0,32.0,5.0,227.0,3372.266
3372276.0,214.0,32.0,4.0,235.0,3372.276
3372286.0,219.0,32.0,4.0,240.0,3372.286
3372296.0,217.0,31.0,4.0,237.0,3372.296
3372306.0,215.0,33.0,3.0,236.0,3372.306
3372316.0,208.0,32.0,3.0,227.0,3372.316
3372326.0,215.0,32.0,4.0,236.0,3372.326
3372336.0,217.0,32.0,4.0,241.0,3372.336
3372346.0,215.0,32.0,4.0,238.0,3372.346
3372356.0,216.0,32.0,3.0,235.0,3372.356
3372366.0,208.0,33.0,3.0,226.0,3372.366
3372376.0,212.0,32.0,3.0,231.0,3372.376
3372386.0,217.0,32.0,3.0,239.0,3372.386
3372396.0,216.0,32.0,5.0,235.0,3372.396
3372406.0,215.0,32.0,2.0,234.0,3372.406
3372416.0,211.0,32.0,5.0,229.0,3372.416
3372426.0,213.0,33.0,3.0,236.0,3372.426
3372436.0,219.0,32.0,3.0,241.0,3372.436
3372446.0,216.0,32.0,3.0,236.0,3372.446
3372456.0,216.0,32.0,4.0,236.0,3372.456
3372466.0,209.0,32.0,5.0,227.0,3372.466
3372476.0,214.0,32.0,4.0,236.0,3372.476
3372486.0,220.0,32.0,4.0,240.0,3372.486
3372496.0,215.0,32.0,3.0,236.0,3372.496
3372506.0,216.0,32.0,4.0,237.0,3372.506
3372516.0,208.0,32.0,3.0,230.0,3372.516
3372526.0,215.0,32.0,4.0,238.0,3372.526
3372536.0,218.0,33.0,4.0,242.0,3372.536
3372546.0,217.0,33.0,5.0,240.0,3372.546
3372556.0,215.0,33.0,3.0,238.0,3372.556
3372566.0,207.0,32.0,4.0,229.0,3372.566
3372576.0,213.0,33.0,3.0,238.0,3372.576
3372587.0,219.0,32.0,5.0,242.0,3372.587
3372597.0,212.0,31.0,4.0,236.0,3372.597
3372607.0,213.0,32.0,4.0,237.0,3372.607
3372617.0,209.0,33.0,4.0,237.0,3372.617
3372627.0,217.0,33.0,3.0,243.0,3372.627
3372637.0,218.0,33.0,4.0,244.0,3372.637
3372647.0,211.0,32.0,4.0,237.0,3372.647
3372657.0,212.0,32.0,3.0,236.0,3372.657
3372667.0,210.0,32.0,4.0,236.0,3372.667
3372677.0,214.0,32.0,4.0,241.0,3372.677
3372687.0,217.0,34.0,4.0,243.0,3372.687
3372697.0,211.0,32.0,4.0,234.0,3372.697
3372707.0,212.0,33.0,4.0,236.0,3372.707
3372717.0,207.0,32.0,4.0,232.0,3372.717
3372727.0,214.0,32.0,4.0,243.0,3372.727
3372737.0,217.0,32.0,4.0,244.0,3372.737
3372747.0,210.0,33.0,4.0,236.0,3372.747
3372758.0,212.0,32.0,3.0,236.0,3372.758
3372768.0,214.0,33.0,4.0,239.0,3372.768
3372778.0,217.0,32.0,5.0,241.0,3372.778
3372788.0,216.0,33.0,4.0,239.0,3372.788
3372798.0,209.0,32.0,4.0,232.0,3372.798
3372808.0,213.0,31.0,4.0,238.0,3372.808
3372818.0,215.0,33.0,3.0,242.0,3372.818
3372828.0,217.0,32.0,4.0,243.0,3372.828
3372838.0,216.0,33.0,3.0,241.0,3372.838
3372848.0,211.0,32.0,4.0,235.0,3372.848
3372858.0,212.0,32.0,3.0,237.0,3372.858
3372868.0,216.0,32.0,4.0,242.0,3372.868
3372878.0,217.0,33.0,3.0,243.0,3372.878
3372888.0,217.0,32.0,4.0,241.0,3372.888
3372898.0,210.0,31.0,4.0,234.0,3372.898
3372908.0,212.0,32.0,5.0,237.0,3372.908
3372918.0,216.0,31.0,4.0,243.0,3372.918
3372928.0,217.0,32.0,5.0,243.0,3372.928
3372938.0,217.0,32.0,4.0,242.0,3372.938
3372948.0,209.0,32.0,3.0,234.0,3372.948
3372958.0,211.0,32.0,4.0,236.0,3372.958
3372968.0,217.0,32.0,4.0,242.0,3372.968
3372978.0,217.0,32.0,4.0,242.0,3372.978
3372988.0,216.0,32.0,4.0,239.0,3372.988
3372998.0,207.0,32.0,4.0,231.0,3372.998
3373008.0,211.0,32.0,3.0,236.0,3373.008
3373018.0,214.0,32.0,4.0,241.0,3373.018
3373028.0,216.0,32.0,3.0,244.0,3373.028
3373038.0,217.0,32.0,5.0,240.0,3373.038
3373048.0,208.0,31.0,4.0,232.0,3373.048
3373058.0,213.0,32.0,5.0,237.0,3373.058
3373068.0,215.0,33.0,3.0,242.0,3373.068
3373078.0,215.0,32.0,4.0,242.0,3373.078
3373088.0,216.0,32.0,4.0,239.0,3373.088
3373099.0,207.0,32.0,5.0,232.0,3373.099
3373109.0,213.0,32.0,4.0,241.0,3373.109
3373119.0,219.0,32.0,4.0,247.0,3373.119
3373129.0,214.0,32.0,4.0,241.0,3373.129
3373139.0,215.0,32.0,3.0,240.0,3373.139
3373149.0,208.0,32.0,4.0,233.0,3373.149
3373159.0,214.0,32.0,4.0,242.0,3373.159
3373169.0,218.0,32.0,4.0,245.0,3373.169
3373179.0,212.0,32.0,4.0,240.0,3373.179
3373189.0,215.0,33.0,4.0,240.0,3373.189
3373199.0,206.0,33.0,3.0,232.0,3373.199
3373209.0,212.0,32.0,4.0,239.0,3373.209
3373219.0,217.0,32.0,3.0,242.0,3373.219
3373229.0,213.0,32.0,4.0,240.0,3373.229
3373239.0,214.0,32.0,4.0,239.0,3373.239
3373249.0,206.0,32.0,4.0,231.0,3373.249
3373259.0,214.0,32.0,3.0,243.0,3373.259
3373270.0,217.0,33.0,3.0,246.0,3373.27
3373280.0,211.0,32.0,4.0,237.0,3373.28
3373290.0,212.0,33.0,5.0,239.0,3373.29
3373300.0,211.0,32.0,4.0,240.0,3373.3
3373310.0,215.0,32.0,4.0,244.0,3373.31
3373320.0,218.0,32.0,4.0,246.0,3373.32
3373330.0,210.0,33.0,3.0,239.0,3373.33
3373340.0,212.0,32.0,3.0,240.0,3373.34
3373350.0,212.0,33.0,3.0,243.0,3373.35
3373360.0,215.0,32.0,4.0,246.0,3373.36
3373370.0,218.0,33.0,3.0,246.0,3373.37
3373380.0,211.0,32.0,4.0,239.0,3373.38
3373390.0,211.0,33.0,3.0,242.0,3373.39
3373400.0,208.0,33.0,4.0,237.0,3373.4
3373410.0,215.0,32.0,4.0,246.0,3373.41
3373420.0,217.0,33.0,4.0,245.0,3373.42
3373430.0,208.0,31.0,2.0,237.0,3373.43
3373440.0,212.0,33.0,4.0,240.0,3373.44
3373450.0,209.0,33.0,3.0,237.0,3373.45
3373460.0,215.0,33.0,3.0,243.0,3373.46
3373470.0,216.0,32.0,4.0,242.0,3373.47
3373480.0,208.0,32.0,4.0,233.0,3373.48
3373490.0,211.0,32.0,4.0,236.0,3373.49
3373500.0,209.0,33.0,3.0,236.0,3373.5
3373510.0,216.0,32.0,4.0,241.0,3373.51
3373520.0,217.0,35.0,3.0,239.0,3373.52
3373530.0,211.0,32.0,4.0,232.0,3373.53
3373540.0,212.0,32.0,4.0,234.0,3373.54
3373550.0,211.0,32.0,5.0,235.0,3373.55
3373560.0,215.0,32.0,4.0,240.0,3373.56
3373570.0,218.0,33.0,5.0,242.0,3373.57
3373580.0,211.0,33.0,4.0,234.0,3373.58
3373590.0,212.0,32.0,4.0,234.0,3373.59
3373600.0,212.0,32.0,3.0,238.0,3373.6
3373611.0,216.0,33.0,4.0,242.0,3373.611
3373621.0,216.0,33.0,4.0,240.0,3373.621
3373631.0,206.0,33.0,4.0,232.0,3373.631
3373641.0,211.0,33.0,4.0,239.0,3373.641
3373651.0,217.0,33.0,3.0,246.0,3373.651
3373661.0,215.0,32.0,4.0,243.0,3373.661
3373671.0,216.0,33.0,4.0,242.0,3373.671
3373681.0,207.0,33.0,4.0,232.0,3373.681
3373691.0,212.0,33.0,4.0,240.0,3373.691
3373701.0,216.0,33.0,5.0,242.0,3373.701
3373711.0,215.0,33.0,3.0,243.0,3373.711
3373721.0,215.0,34.0,3.0,240.0,3373.721
3373731.0,207.0,33.0,4.0,232.0,3373.731
3373741.0,212.0,33.0,4.0,238.0,3373.741
3373751.0,216.0,33.0,4.0,243.0,3373.751
3373761.0,214.0,33.0,4.0,241.0,3373.761
3373771.0,215.0,33.0,4.0,239.0,3373.771
3373782.0,206.0,33.0,3.0,231.0,3373.782
3373792.0,212.0,32.0,3.0,240.0,3373.792
3373802.0,217.0,33.0,4.0,244.0,3373.802
3373812.0,211.0,32.0,5.0,237.0,3373.812
3373822.0,212.0,33.0,3.0,238.0,3373.822
3373832.0,205.0,33.0,4.0,231.0,3373.832
3373842.0,213.0,34.0,3.0,241.0,3373.842
3373852.0,218.0,32.0,4.0,242.0,3373.852
3373862.0,210.0,33.0,3.0,234.0,3373.862
3373872.0,213.0,32.0,3.0,237.0,3373.872
3373882.0,205.0,33.0,3.0,231.0,3373.882
3373892.0,213.0,33.0,3.0,240.0,3373.892
3373902.0,218.0,33.0,4.0,243.0,3373.902
3373912.0,212.0,32.0,4.0,239.0,3373.912
3373922.0,213.0,33.0,4.0,238.0,3373.922
3373932.0,205.0,33.0,4.0,232.0,3373.932
3373942.0,214.0,33.0,4.0,242.0,3373.942
3373952.0,217.0,33.0,4.0,242.0,3373.952
3373962.0,212.0,33.0,4.0,237.0,3373.962
3373972.0,213.0,34.0,3.0,237.0,3373.972
3373982.0,206.0,33.0,4.0,231.0,3373.982
3373992.0,213.0,33.0,4.0,242.0,3373.992
3374002.0,218.0,34.0,4.0,243.0,3374.002
3374012.0,211.0,33.0,4.0,238.0,3374.012
3374022.0,212.0,33.0,3.0,237.0,3374.022
3374032.0,207.0,34.0,4.0,233.0,3374.032
3374042.0,212.0,33.0,3.0,237.0,3374.042
3374052.0,217.0,33.0,4.0,241.0,3374.052
3374062.0,211.0,33.0,4.0,235.0,3374.062
3374072.0,212.0,33.0,4.0,236.0,3374.072
3374082.0,205.0,34.0,3.0,231.0,3374.082
3374092.0,213.0,33.0,4.0,241.0,3374.092
3374102.0,217.0,35.0,3.0,242.0,3374.102
3374112.0,211.0,34.0,3.0,237.0,3374.112
3374123.0,212.0,34.0,4.0,237.0,3374.123
3374133.0,210.0,33.0,4.0,238.0,3374.133
3374143.0,214.0,34.0,4.0,242.0,3374.143
3374153.0,215.0,33.0,4.0,238.0,3374.153
3374163.0,207.0,34.0,3.0,232.0,3374.163
3374173.0,211.0,33.0,3.0,236.0,3374.173
3374183.0,211.0,34.0,3.0,238.0,3374.183
3374193.0,215.0,33.0,5.0,242.0,3374.193
3374203.0,216.0,34.0,3.0,239.0,3374.203
3374213.0,209.0,33.0,4.0,235.0,3374.213
3374223.0,211.0,34.0,3.0,238.0,3374.223
3374233.0,212.0,34.0,4.0,240.0,3374.233
3374243.0,215.0,34.0,3.0,244.0,3374.243
3374253.0,219.0,35.0,3.0,244.0,3374.253
3374263.0,211.0,33.0,4.0,238.0,3374.263
3374273.0,212.0,34.0,4.0,240.0,3374.273
3374283.0,214.0,33.0,4.0,244.0,3374.283
3374294.0,216.0,34.0,3.0,245.0,3374.294
3374304.0,216.0,34.0,4.0,241.0,3374.304
3374314.0,206.0,34.0,3.0,233.0,3374.314
3374324.0,211.0,33.0,5.0,241.0,3374.324
3374334.0,216.0,34.0,2.0,246.0,3374.334
3374344.0,215.0,33.0,4.0,244.0,3374.344
3374354.0,214.0,35.0,3.0,243.0,3374.354
3374364.0,206.0,32.0,4.0,234.0,3374.364
3374374.0,212.0,34.0,3.0,241.0,3374.374
3374384.0,215.0,34.0,4.0,244.0,3374.384
3374394.0,213.0,33.0,4.0,244.0,3374.394
3374404.0,214.0,33.0,4.0,241.0,3374.404
3374414.0,205.0,33.0,3.0,235.0,3374.414
3374424.0,210.0,33.0,4.0,241.0,3374.424
3374434.0,216.0,33.0,4.0,249.0,3374.434
3374444.0,214.0,33.0,4.0,246.0,3374.444
3374454.0,215.0,33.0,5.0,243.0,3374.454
3374464.0,206.0,33.0,4.0,238.0,3374.464
3374474.0,210.0,33.0,4.0,241.0,3374.474
3374484.0,216.0,34.0,3.0,248.0,3374.484
3374494.0,213.0,32.0,3.0,243.0,3374.494
3374504.0,213.0,33.0,3.0,241.0,3374.504
3374514.0,207.0,32.0,4.0,235.0,3374.514
3374524.0,212.0,33.0,4.0,242.0,3374.524
3374534.0,218.0,33.0,4.0,245.0,3374.534
3374544.0,213.0,32.0,3.0,244.0,3374.544
3374554.0,214.0,33.0,4.0,242.0,3374.554
3374564.0,206.0,33.0,4.0,234.0,3374.564
3374574.0,212.0,33.0,4.0,243.0,3374.574
3374584.0,218.0,33.0,4.0,248.0,3374.584
3374594.0,214.0,33.0,4.0,244.0,3374.594
3374604.0,214.0,33.0,4.0,241.0,3374.604
3374614.0,206.0,34.0,3.0,235.0,3374.614
3374624.0,212.0,32.0,4.0,243.0,3374.624
3374635.0,217.0,33.0,4.0,246.0,3374.635
3374645.0,212.0,33.0,4.0,241.0,3374.645
3374655.0,212.0,33.0,2.0,240.0,3374.655
3374665.0,208.0,33.0,4.0,239.0,3374.665
3374675.0,216.0,33.0,3.0,248.0,3374.675
3374685.0,218.0,33.0,4.0,246.0,3374.685
3374695.0,210.0,33.0,4.0,240.0,3374.695
3374705.0,213.0,33.0,4.0,240.0,3374.705
3374715.0,210.0,33.0,4.0,239.0,3374.715
3374725.0,214.0,33.0,4.0,243.0,3374.725
3374735.0,217.0,33.0,3.0,245.0,3374.735
3374745.0,209.0,33.0,3.0,238.0,3374.745
3374755.0,211.0,32.0,4.0,239.0,3374.755
3374765.0,205.0,33.0,3.0,234.0,3374.765
3374775.0,215.0,32.0,5.0,243.0,3374.775
3374785.0,218.0,33.0,4.0,243.0,3374.785
3374795.0,209.0,33.0,3.0,237.0,3374.795
3374806.0,211.0,34.0,3.0,239.0,3374.806
3374816.0,211.0,32.0,4.0,240.0,3374.816
3374826.0,215.0,32.0,4.0,246.0,3374.826
3374836.0,216.0,32.0,5.0,243.0,3374.836
3374846.0,206.0,33.0,3.0,237.0,3374.846
3374856.0,212.0,32.0,5.0,241.0,3374.856
3374866.0,213.0,33.0,3.0,246.0,3374.866
3374876.0,215.0,32.0,4.0,246.0,3374.876
3374886.0,215.0,33.0,4.0,243.0,3374.886
3374896.0,209.0,32.0,4.0,239.0,3374.896
3374906.0,212.0,32.0,4.0,240.0,3374.906
3374916.0,214.0,33.0,4.0,244.0,3374.916
3374926.0,215.0,33.0,3.0,246.0,3374.926
3374936.0,217.0,33.0,4.0,242.0,3374.936
3374946.0,209.0,32.0,3.0,237.0,3374.946
3374956.0,212.0,33.0,4.0,239.0,3374.956
3374966.0,217.0,33.0,5.0,244.0,3374.966
3374976.0,217.0,33.0,4.0,247.0,3374.976
3374986.0,218.0,33.0,3.0,241.0,3374.986
3374996.0,209.0,33.0,3.0,238.0,3374.996
3375006.0,211.0,33.0,4.0,239.0,3375.006
3375016.0,217.0,32.0,3.0,245.0,3375.016
3375026.0,217.0,32.0,4.0,246.0,3375.026
3375036.0,217.0,33.0,4.0,241.0,3375.036
3375046.0,208.0,32.0,4.0,235.0,3375.046
3375056.0,212.0,32.0,3.0,241.0,3375.056
3375066.0,213.0,33.0,4.0,241.0,3375.066
3375076.0,217.0,32.0,4.0,245.0,3375.076
3375086.0,216.0,33.0,4.0,241.0,3375.086
3375096.0,209.0,32.0,4.0,235.0,3375.096
3375106.0,212.0,33.0,3.0,239.0,3375.106
3375116.0,214.0,32.0,4.0,243.0,3375.116
3375126.0,215.0,33.0,3.0,246.0,3375.126
3375136.0,214.0,32.0,4.0,241.0,3375.136
3375147.0,206.0,33.0,3.0,236.0,3375.147
3375157.0,212.0,32.0,5.0,242.0,3375.157
3375167.0,216.0,33.0,2.0,247.0,3375.167
3375177.0,212.0,32.0,4.0,243.0,3375.177
3375187.0,213.0,33.0,3.0,242.0,3375.187
3375197.0,206.0,33.0,4.0,235.0,3375.197
3375207.0,212.0,32.0,3.0,244.0,3375.207
3375217.0,217.0,33.0,4.0,249.0,3375.217
3375227.0,212.0,31.0,4.0,242.0,3375.227
3375237.0,213.0,33.0,4.0,241.0,3375.237
3375247.0,206.0,32.0,4.0,234.0,3375.247
3375257.0,212.0,34.0,3.0,241.0,3375.257
3375267.0,217.0,32.0,4.0,244.0,3375.267
3375277.0,213.0,33.0,3.0,242.0,3375.277
3375287.0,214.0,32.0,5.0,240.0,3375.287
3375297.0,204.0,33.0,4.0,233.0,3375.297
3375307.0,212.0,33.0,4.0,243.0,3375.307
3375318.0,217.0,34.0,3.0,246.0,3375.318
3375328.0,210.0,32.0,4.0,240.0,3375.328
3375338.0,211.0,33.0,4.0,240.0,3375.338
3375348.0,210.0,33.0,5.0,241.0,3375.348
3375358.0,214.0,32.0,4.0,246.0,3375.358
3375368.0,216.0,33.0,3.0,246.0,3375.368
3375378.0,209.0,33.0,3.0,241.0,3375.378
3375388.0,211.0,33.0,3.0,240.0,3375.388
3375398.0,212.0,32.0,3.0,242.0,3375.398
3375408.0,215.0,32.0,4.0,245.0,3375.408
3375418.0,218.0,33.0,4.0,242.0,3375.418
3375428.0,208.0,33.0,2.0,237.0,3375.428
3375438.0,211.0,33.0,4.0,239.0,3375.438
3375448.0,206.0,33.0,3.0,236.0,3375.448
3375458.0,214.0,32.0,4.0,245.0,3375.458
3375468.0,217.0,32.0,4.0,243.0,3375.468
3375478.0,210.0,33.0,3.0,237.0,3375.478
3375488.0,213.0,33.0,4.0,238.0,3375.488
3375498.0,209.0,32.0,3.0,237.0,3375.498
3375508.0,216.0,34.0,3.0,245.0,3375.508
3375518.0,218.0,33.0,4.0,242.0,3375.518
3375528.0,208.0,32.0,4.0,236.0,3375.528
3375538.0,212.0,33.0,3.0,238.0,3375.538
3375548.0,210.0,33.0,4.0,238.0,3375.548
3375558.0,216.0,33.0,3.0,245.0,3375.558
3375568.0,217.0,32.0,4.0,241.0,3375.568
3375578.0,210.0,32.0,3.0,238.0,3375.578
3375588.0,211.0,32.0,4.0,238.0,3375.588
3375598.0,209.0,32.0,4.0,239.0,3375.598
3375608.0,215.0,32.0,5.0,242.0,3375.608
3375618.0,216.0,33.0,3.0,241.0,3375.618
3375628.0,208.0,32.0,4.0,233.0,3375.628
3375638.0,209.0,33.0,3.0,235.0,3375.638
3375648.0,209.0,32.0,4.0,236.0,3375.648
3375659.0,213.0,32.0,3.0,241.0,3375.659
3375669.0,213.0,32.0,5.0,238.0,3375.669
3375679.0,205.0,33.0,3.0,232.0,3375.679
3375689.0,208.0,33.0,3.0,236.0,3375.689
3375699.0,214.0,33.0,4.0,244.0,3375.699
3375709.0,213.0,32.0,4.0,241.0,3375.709
3375719.0,213.0,32.0,4.0,237.0,3375.719
3375729.0,205.0,32.0,3.0,232.0,3375.729
3375739.0,210.0,32.0,4.0,238.0,3375.739
3375749.0,212.0,32.0,4.0,240.0,3375.749
3375759.0,212.0,32.0,4.0,239.0,3375.759
3375769.0,212.0,33.0,3.0,237.0,3375.769
3375779.0,204.0,32.0,4.0,231.0,3375.779
3375789.0,208.0,33.0,3.0,236.0,3375.789
3375799.0,213.0,32.0,5.0,240.0,3375.799
3375809.0,212.0,31.0,4.0,240.0,3375.809
3375819.0,212.0,32.0,4.0,238.0,3375.819
3375830.0,204.0,32.0,3.0,233.0,3375.83
3375840.0,209.0,31.0,4.0,240.0,3375.84
3375850.0,215.0,32.0,4.0,243.0,3375.85
3375860.0,208.0,32.0,4.0,239.0,3375.86
3375870.0,210.0,31.0,4.0,238.0,3375.87
3375880.0,203.0,32.0,4.0,232.0,3375.88
3375890.0,210.0,32.0,4.0,242.0,3375.89
3375900.0,214.0,32.0,3.0,244.0,3375.9
3375910.0,209.0,30.0,4.0,240.0,3375.91
3375920.0,211.0,31.0,4.0,240.0,3375.92
3375930.0,204.0,31.0,4.0,235.0,3375.93
