time (ms),signal 0,signal 1,signal 2,signal 3,time (sec)
3267380.0,220.0,178.0,314.0,246.0,3267.38
3267390.0,212.0,177.0,331.0,240.0,3267.39
3267400.0,221.0,180.0,336.0,250.0,3267.4
3267410.0,224.0,174.0,325.0,252.0,3267.41
3267420.0,218.0,173.0,345.0,246.0,3267.42
3267430.0,219.0,171.0,330.0,246.0,3267.43
3267440.0,213.0,168.0,344.0,243.0,3267.44
3267450.0,221.0,174.0,351.0,252.0,3267.45
3267460.0,224.0,167.0,340.0,252.0,3267.46
3267470.0,217.0,172.0,358.0,244.0,3267.47
3267480.0,220.0,166.0,343.0,245.0,3267.48
3267490.0,213.0,168.0,356.0,243.0,3267.49
3267500.0,219.0,171.0,358.0,248.0,3267.5
3267510.0,224.0,170.0,349.0,253.0,3267.51
3267520.0,216.0,175.0,368.0,245.0,3267.52
3267530.0,218.0,171.0,352.0,246.0,3267.53
3267540.0,215.0,170.0,364.0,246.0,3267.54
3267550.0,220.0,175.0,366.0,252.0,3267.55
3267560.0,224.0,171.0,356.0,254.0,3267.56
3267570.0,216.0,175.0,375.0,246.0,3267.57
3267580.0,219.0,170.0,359.0,248.0,3267.58
3267590.0,212.0,169.0,372.0,243.0,3267.59
3267600.0,221.0,173.0,373.0,253.0,3267.6
3267610.0,225.0,169.0,360.0,254.0,3267.61
3267620.0,218.0,170.0,378.0,245.0,3267.62
3267630.0,221.0,167.0,359.0,250.0,3267.63
3267640.0,215.0,165.0,372.0,246.0,3267.64
3267650.0,224.0,170.0,377.0,256.0,3267.65
3267660.0,225.0,164.0,358.0,256.0,3267.66
3267670.0,221.0,165.0,379.0,251.0,3267.67
3267680.0,221.0,161.0,359.0,251.0,3267.68
3267690.0,217.0,157.0,372.0,247.0,3267.69
3267700.0,224.0,164.0,378.0,257.0,3267.7
3267710.0,227.0,158.0,358.0,256.0,3267.71
3267720.0,220.0,158.0,380.0,251.0,3267.72
3267730.0,223.0,156.0,361.0,252.0,3267.73
3267740.0,220.0,152.0,372.0,251.0,3267.74
3267750.0,226.0,157.0,381.0,258.0,3267.75
3267760.0,230.0,151.0,362.0,259.0,3267.76
3267770.0,221.0,151.0,382.0,251.0,3267.77
3267780.0,225.0,148.0,364.0,252.0,3267.78
3267790.0,223.0,146.0,375.0,252.0,3267.79
3267800.0,229.0,146.0,381.0,258.0,3267.8
3267810.0,231.0,141.0,363.0,258.0,3267.81
3267820.0,222.0,138.0,380.0,251.0,3267.82
3267830.0,224.0,137.0,362.0,251.0,3267.83
3267840.0,218.0,133.0,372.0,248.0,3267.84
3267850.0,228.0,135.0,377.0,259.0,3267.85
3267860.0,232.0,130.0,359.0,257.0,3267.86
3267870.0,221.0,134.0,376.0,249.0,3267.87
3267880.0,225.0,132.0,360.0,251.0,3267.88
3267890.0,221.0,136.0,369.0,249.0,3267.89
3267900.0,229.0,144.0,375.0,258.0,3267.9
3267910.0,233.0,138.0,356.0,258.0,3267.91
3267920.0,220.0,139.0,377.0,249.0,3267.92
3267930.0,227.0,136.0,360.0,253.0,3267.93
3267940.0,221.0,135.0,371.0,252.0,3267.94
3267950.0,229.0,141.0,378.0,260.0,3267.95
3267960.0,231.0,135.0,358.0,257.0,3267.96
3267970.0,223.0,141.0,379.0,253.0,3267.97
3267980.0,226.0,137.0,362.0,253.0,3267.98
3267990.0,223.0,137.0,374.0,254.0,3267.99
3268000.0,229.0,144.0,383.0,260.0,3268.0
3268011.0,233.0,137.0,361.0,257.0,3268.011
3268021.0,221.0,141.0,381.0,250.0,3268.021
3268031.0,224.0,137.0,368.0,253.0,3268.031
3268041.0,230.0,139.0,373.0,260.0,3268.041
3268051.0,227.0,146.0,384.0,256.0,3268.051
3268061.0,230.0,139.0,361.0,257.0,3268.061
3268071.0,221.0,142.0,381.0,248.0,3268.071
3268081.0,224.0,138.0,367.0,253.0,3268.081
3268091.0,230.0,143.0,370.0,260.0,3268.091
3268101.0,229.0,149.0,381.0,258.0,3268.101
3268111.0,228.0,144.0,359.0,257.0,3268.111
3268121.0,221.0,149.0,378.0,247.0,3268.121
3268131.0,224.0,145.0,365.0,254.0,3268.131
3268141.0,227.0,153.0,370.0,257.0,3268.141
3268151.0,229.0,163.0,378.0,259.0,3268.151
3268161.0,228.0,154.0,356.0,257.0,3268.161
3268171.0,221.0,160.0,373.0,248.0,3268.171
3268182.0,225.0,156.0,364.0,255.0,3268.182
3268192.0,232.0,159.0,361.0,261.0,3268.192
3268202.0,229.0,169.0,375.0,255.0,3268.202
3268212.0,227.0,161.0,355.0,256.0,3268.212
3268222.0,222.0,162.0,365.0,250.0,3268.222
3268232.0,227.0,162.0,363.0,257.0,3268.232
3268242.0,232.0,163.0,358.0,260.0,3268.242
3268252.0,229.0,171.0,371.0,252.0,3268.252
3268262.0,228.0,163.0,353.0,254.0,3268.262
3268272.0,222.0,168.0,367.0,245.0,3268.272
3268282.0,230.0,169.0,363.0,257.0,3268.282
3268292.0,234.0,167.0,355.0,260.0,3268.292
3268302.0,229.0,176.0,370.0,252.0,3268.302
3268312.0,229.0,168.0,352.0,254.0,3268.312
3268322.0,222.0,168.0,363.0,246.0,3268.322
3268332.0,231.0,172.0,364.0,257.0,3268.332
3268342.0,233.0,170.0,352.0,261.0,3268.342
3268352.0,231.0,176.0,369.0,254.0,3268.352
3268362.0,229.0,169.0,350.0,254.0,3268.362
3268372.0,223.0,173.0,362.0,247.0,3268.372
3268382.0,231.0,178.0,361.0,258.0,3268.382
3268392.0,233.0,173.0,349.0,260.0,3268.392
3268402.0,231.0,176.0,363.0,254.0,3268.402
3268412.0,229.0,170.0,343.0,255.0,3268.412
3268422.0,225.0,166.0,354.0,251.0,3268.422
3268432.0,233.0,168.0,357.0,261.0,3268.432
3268442.0,235.0,162.0,347.0,262.0,3268.442
3268452.0,231.0,168.0,359.0,255.0,3268.452
3268462.0,231.0,161.0,342.0,256.0,3268.462
3268472.0,226.0,165.0,349.0,253.0,3268.472
3268482.0,230.0,165.0,348.0,258.0,3268.482
3268492.0,235.0,166.0,342.0,263.0,3268.492
3268502.0,231.0,169.0,356.0,255.0,3268.502
3268512.0,229.0,164.0,339.0,256.0,3268.512
3268523.0,227.0,163.0,348.0,255.0,3268.523
3268533.0,234.0,167.0,354.0,261.0,3268.533
3268543.0,234.0,160.0,336.0,261.0,3268.543
3268553.0,228.0,161.0,352.0,251.0,3268.553
3268563.0,228.0,157.0,340.0,255.0,3268.563
3268573.0,229.0,159.0,350.0,256.0,3268.573
3268583.0,234.0,168.0,356.0,262.0,3268.583
3268593.0,233.0,160.0,337.0,260.0,3268.593
3268603.0,226.0,168.0,354.0,251.0,3268.603
3268613.0,229.0,163.0,341.0,255.0,3268.613
3268623.0,230.0,169.0,350.0,256.0,3268.623
3268633.0,235.0,176.0,357.0,260.0,3268.633
3268643.0,232.0,167.0,337.0,259.0,3268.643
3268653.0,229.0,170.0,356.0,253.0,3268.653
3268663.0,230.0,165.0,343.0,256.0,3268.663
3268673.0,231.0,167.0,352.0,261.0,3268.673
3268683.0,235.0,174.0,359.0,264.0,3268.683
3268694.0,232.0,166.0,340.0,261.0,3268.694
3268704.0,227.0,169.0,356.0,252.0,3268.704
3268714.0,229.0,166.0,347.0,258.0,3268.714
3268724.0,236.0,167.0,349.0,265.0,3268.724
3268734.0,233.0,170.0,359.0,258.0,3268.734
3268744.0,232.0,164.0,340.0,259.0,3268.744
3268754.0,225.0,165.0,355.0,251.0,3268.754
3268764.0,229.0,162.0,349.0,257.0,3268.764
3268774.0,234.0,162.0,346.0,263.0,3268.774
3268784.0,234.0,168.0,358.0,260.0,3268.784
3268794.0,230.0,161.0,336.0,259.0,3268.794
3268804.0,223.0,162.0,349.0,248.0,3268.804
3268814.0,230.0,162.0,345.0,257.0,3268.814
3268824.0,233.0,163.0,345.0,261.0,3268.824
3268834.0,232.0,169.0,351.0,259.0,3268.834
3268844.0,230.0,162.0,333.0,257.0,3268.844
3268854.0,224.0,165.0,343.0,250.0,3268.854
3268864.0,228.0,161.0,334.0,256.0,3268.864
3268874.0,235.0,162.0,338.0,263.0,3268.874
3268884.0,232.0,165.0,345.0,259.0,3268.884
3268894.0,231.0,160.0,329.0,258.0,3268.894
3268904.0,223.0,154.0,336.0,249.0,3268.904
3268914.0,229.0,154.0,331.0,256.0,3268.914
3268924.0,234.0,151.0,332.0,263.0,3268.924
3268934.0,231.0,152.0,341.0,256.0,3268.934
3268944.0,229.0,147.0,324.0,257.0,3268.944
3268954.0,224.0,145.0,339.0,251.0,3268.954
3268964.0,227.0,143.0,328.0,257.0,3268.964
3268974.0,233.0,144.0,331.0,266.0,3268.974
3268984.0,230.0,147.0,339.0,258.0,3268.984
3268994.0,230.0,142.0,323.0,257.0,3268.994
3269004.0,224.0,140.0,335.0,247.0,3269.004
3269014.0,229.0,139.0,331.0,257.0,3269.014
3269024.0,235.0,137.0,329.0,261.0,3269.024
3269035.0,230.0,138.0,342.0,255.0,3269.035
3269045.0,229.0,136.0,328.0,257.0,3269.045
3269055.0,225.0,132.0,342.0,255.0,3269.055
3269065.0,233.0,133.0,349.0,262.0,3269.065
3269075.0,234.0,131.0,332.0,261.0,3269.075
3269085.0,228.0,126.0,346.0,254.0,3269.085
3269095.0,227.0,125.0,329.0,255.0,3269.095
3269105.0,225.0,120.0,339.0,253.0,3269.105
3269115.0,231.0,120.0,342.0,261.0,3269.115
3269125.0,232.0,115.0,328.0,260.0,3269.125
3269135.0,230.0,115.0,351.0,263.0,3269.135
3269145.0,231.0,114.0,328.0,262.0,3269.145
3269155.0,228.0,110.0,329.0,262.0,3269.155
3269165.0,233.0,110.0,334.0,270.0,3269.165
3269175.0,236.0,105.0,333.0,279.0,3269.175
3269185.0,231.0,102.0,340.0,272.0,3269.185
3269195.0,234.0,102.0,334.0,278.0,3269.195
3269206.0,233.0,101.0,326.0,275.0,3269.206
3269216.0,237.0,101.0,324.0,270.0,3269.216
3269226.0,233.0,99.0,316.0,268.0,3269.226
3269236.0,226.0,95.0,315.0,257.0,3269.236
3269246.0,229.0,96.0,304.0,260.0,3269.246
3269256.0,233.0,92.0,307.0,264.0,3269.256
3269266.0,239.0,94.0,309.0,268.0,3269.266
3269276.0,250.0,92.0,292.0,259.0,3269.276
3269286.0,250.0,98.0,300.0,261.0,3269.286
3269296.0,256.0,97.0,300.0,270.0,3269.296
3269306.0,254.0,94.0,307.0,284.0,3269.306
3269316.0,246.0,93.0,311.0,293.0,3269.316
3269326.0,251.0,90.0,307.0,299.0,3269.326
3269336.0,246.0,88.0,307.0,296.0,3269.336
3269346.0,245.0,87.0,300.0,290.0,3269.346
3269356.0,252.0,86.0,294.0,285.0,3269.356
3269366.0,248.0,84.0,287.0,283.0,3269.366
3269376.0,250.0,83.0,277.0,279.0,3269.376
3269386.0,241.0,78.0,284.0,275.0,3269.386
3269396.0,249.0,81.0,290.0,283.0,3269.396
3269406.0,281.0,103.0,294.0,291.0,3269.406
3269416.0,293.0,115.0,302.0,295.0,3269.416
3269426.0,305.0,117.0,296.0,298.0,3269.426
3269436.0,303.0,125.0,306.0,299.0,3269.436
3269446.0,303.0,119.0,308.0,304.0,3269.446
3269456.0,296.0,114.0,308.0,305.0,3269.456
3269466.0,293.0,117.0,319.0,302.0,3269.466
3269476.0,283.0,112.0,299.0,291.0,3269.476
3269486.0,273.0,121.0,315.0,287.0,3269.486
3269496.0,274.0,115.0,309.0,287.0,3269.496
3269506.0,280.0,118.0,312.0,288.0,3269.506
3269516.0,282.0,126.0,326.0,294.0,3269.516
3269526.0,275.0,121.0,305.0,281.0,3269.526
3269536.0,259.0,112.0,310.0,266.0,3269.536
3269547.0,259.0,108.0,300.0,270.0,3269.547
3269557.0,263.0,105.0,300.0,269.0,3269.557
3269567.0,258.0,107.0,301.0,259.0,3269.567
3269577.0,257.0,102.0,291.0,262.0,3269.577
3269587.0,249.0,102.0,297.0,259.0,3269.587
3269597.0,254.0,98.0,300.0,269.0,3269.597
3269607.0,266.0,98.0,296.0,274.0,3269.607
3269617.0,258.0,104.0,307.0,273.0,3269.617
3269627.0,267.0,101.0,300.0,282.0,3269.627
3269637.0,268.0,97.0,313.0,280.0,3269.637
3269647.0,273.0,94.0,312.0,287.0,3269.647
3269657.0,274.0,89.0,317.0,295.0,3269.657
3269667.0,270.0,86.0,323.0,282.0,3269.667
3269677.0,279.0,86.0,313.0,288.0,3269.677
3269687.0,266.0,82.0,316.0,278.0,3269.687
3269697.0,275.0,83.0,323.0,291.0,3269.697
3269707.0,278.0,78.0,317.0,290.0,3269.707
3269718.0,266.0,76.0,320.0,284.0,3269.718
3269728.0,267.0,75.0,309.0,287.0,3269.728
3269738.0,270.0,74.0,314.0,291.0,3269.738
3269748.0,273.0,72.0,317.0,292.0,3269.748
3269758.0,272.0,71.0,307.0,297.0,3269.758
3269768.0,263.0,71.0,309.0,287.0,3269.768
3269778.0,259.0,70.0,292.0,277.0,3269.778
3269788.0,255.0,69.0,298.0,276.0,3269.788
3269798.0,259.0,69.0,302.0,282.0,3269.798
3269808.0,263.0,68.0,294.0,282.0,3269.808
3269818.0,256.0,67.0,295.0,273.0,3269.818
3269828.0,262.0,67.0,285.0,278.0,3269.828
3269838.0,264.0,64.0,287.0,282.0,3269.838
3269848.0,261.0,64.0,285.0,279.0,3269.848
3269858.0,258.0,61.0,276.0,276.0,3269.858
3269868.0,249.0,62.0,276.0,266.0,3269.868
3269878.0,246.0,60.0,265.0,267.0,3269.878
3269888.0,248.0,66.0,266.0,266.0,3269.888
3269898.0,253.0,66.0,271.0,268.0,3269.898
3269908.0,256.0,66.0,263.0,267.0,3269.908
3269918.0,251.0,67.0,261.0,260.0,3269.918
3269928.0,253.0,65.0,259.0,267.0,3269.928
3269938.0,258.0,69.0,263.0,274.0,3269.938
3269948.0,263.0,68.0,272.0,280.0,3269.948
3269958.0,256.0,67.0,262.0,272.0,3269.958
3269968.0,250.0,69.0,258.0,266.0,3269.968
3269978.0,252.0,68.0,253.0,267.0,3269.978
3269988.0,251.0,64.0,252.0,266.0,3269.988
3269998.0,254.0,65.0,253.0,270.0,3269.998
3270008.0,253.0,64.0,248.0,271.0,3270.008
3270018.0,249.0,67.0,247.0,267.0,3270.018
3270028.0,252.0,64.0,248.0,271.0,3270.028
3270038.0,251.0,71.0,249.0,276.0,3270.038
3270048.0,253.0,78.0,254.0,281.0,3270.048
3270059.0,257.0,79.0,252.0,281.0,3270.059
3270069.0,247.0,79.0,237.0,268.0,3270.069
3270079.0,252.0,77.0,240.0,273.0,3270.079
3270089.0,257.0,78.0,244.0,274.0,3270.089
3270099.0,252.0,82.0,232.0,266.0,3270.099
3270109.0,255.0,79.0,239.0,270.0,3270.109
3270119.0,248.0,81.0,223.0,261.0,3270.119
3270129.0,248.0,79.0,230.0,269.0,3270.129
3270139.0,256.0,77.0,243.0,277.0,3270.139
3270149.0,255.0,77.0,233.0,269.0,3270.149
3270159.0,252.0,74.0,231.0,264.0,3270.159
3270169.0,245.0,76.0,213.0,253.0,3270.169
3270179.0,249.0,74.0,224.0,262.0,3270.179
3270189.0,253.0,78.0,232.0,268.0,3270.189
3270199.0,255.0,84.0,226.0,268.0,3270.199
3270209.0,253.0,83.0,233.0,270.0,3270.209
3270219.0,246.0,90.0,216.0,259.0,3270.219
3270230.0,260.0,87.0,225.0,277.0,3270.23
3270240.0,260.0,89.0,239.0,281.0,3270.24
3270250.0,253.0,94.0,222.0,276.0,3270.25
3270260.0,252.0,89.0,225.0,277.0,3270.26
3270270.0,250.0,89.0,219.0,275.0,3270.27
3270280.0,254.0,87.0,227.0,282.0,3270.28
3270290.0,266.0,84.0,241.0,289.0,3270.29
3270300.0,255.0,80.0,221.0,278.0,3270.3
3270310.0,257.0,77.0,231.0,279.0,3270.31
3270320.0,249.0,75.0,221.0,271.0,3270.32
3270330.0,250.0,73.0,231.0,276.0,3270.33
3270340.0,256.0,71.0,246.0,279.0,3270.34
3270350.0,249.0,68.0,223.0,267.0,3270.35
3270360.0,254.0,68.0,238.0,272.0,3270.36
3270370.0,249.0,64.0,226.0,268.0,3270.37
3270380.0,255.0,64.0,232.0,279.0,3270.38
3270390.0,255.0,61.0,247.0,280.0,3270.39
3270400.0,247.0,61.0,228.0,274.0,3270.4
3270410.0,247.0,61.0,242.0,274.0,3270.41
3270420.0,238.0,60.0,232.0,269.0,3270.42
3270430.0,246.0,59.0,242.0,278.0,3270.43
3270440.0,252.0,57.0,261.0,281.0,3270.44
3270450.0,246.0,57.0,239.0,276.0,3270.45
3270460.0,249.0,55.0,255.0,278.0,3270.46
3270470.0,245.0,54.0,247.0,277.0,3270.47
3270480.0,252.0,52.0,251.0,285.0,3270.48
3270490.0,254.0,52.0,269.0,289.0,3270.49
3270500.0,245.0,51.0,245.0,275.0,3270.5
3270510.0,246.0,51.0,260.0,278.0,3270.51
3270520.0,241.0,48.0,253.0,277.0,3270.52
3270530.0,244.0,50.0,259.0,282.0,3270.53
3270540.0,250.0,48.0,278.0,282.0,3270.54
3270550.0,243.0,48.0,253.0,272.0,3270.55
3270560.0,245.0,47.0,271.0,272.0,3270.56
3270571.0,246.0,47.0,267.0,271.0,3270.571
3270581.0,249.0,47.0,261.0,268.0,3270.581
3270591.0,251.0,47.0,280.0,268.0,3270.591
3270601.0,240.0,48.0,257.0,257.0,3270.601
3270611.0,244.0,47.0,269.0,265.0,3270.611
3270621.0,244.0,47.0,271.0,265.0,3270.621
3270631.0,246.0,47.0,266.0,264.0,3270.631
3270641.0,244.0,47.0,283.0,262.0,3270.641
3270651.0,232.0,46.0,259.0,250.0,3270.651
3270661.0,241.0,47.0,277.0,258.0,3270.661
3270671.0,242.0,47.0,283.0,263.0,3270.671
3270681.0,244.0,46.0,273.0,265.0,3270.681
3270691.0,246.0,46.0,298.0,263.0,3270.691
3270701.0,239.0,46.0,274.0,258.0,3270.701
3270711.0,240.0,46.0,291.0,260.0,3270.711
3270721.0,245.0,47.0,296.0,269.0,3270.721
3270731.0,242.0,45.0,284.0,266.0,3270.731
3270742.0,244.0,45.0,309.0,267.0,3270.742
3270752.0,234.0,45.0,285.0,256.0,3270.752
3270762.0,242.0,44.0,299.0,261.0,3270.762
3270772.0,246.0,44.0,315.0,267.0,3270.772
3270782.0,239.0,43.0,293.0,259.0,3270.782
3270792.0,246.0,43.0,317.0,262.0,3270.792
3270802.0,235.0,42.0,294.0,256.0,3270.802
3270812.0,243.0,42.0,310.0,267.0,3270.812
3270822.0,253.0,41.0,332.0,272.0,3270.822
3270832.0,246.0,41.0,307.0,268.0,3270.832
3270842.0,252.0,41.0,335.0,269.0,3270.842
3270852.0,239.0,41.0,312.0,259.0,3270.852
3270862.0,247.0,40.0,324.0,269.0,3270.862
3270872.0,253.0,39.0,341.0,275.0,3270.872
3270882.0,248.0,40.0,320.0,268.0,3270.882
3270892.0,252.0,38.0,344.0,269.0,3270.892
3270902.0,240.0,38.0,323.0,261.0,3270.902
3270912.0,246.0,38.0,337.0,271.0,3270.912
3270922.0,254.0,38.0,354.0,277.0,3270.922
3270932.0,245.0,37.0,330.0,269.0,3270.932
3270942.0,248.0,36.0,357.0,270.0,3270.942
3270952.0,239.0,35.0,340.0,263.0,3270.952
3270962.0,244.0,36.0,352.0,269.0,3270.962
3270972.0,252.0,35.0,372.0,275.0,3270.972
3270982.0,242.0,37.0,347.0,269.0,3270.982
3270992.0,248.0,34.0,375.0,269.0,3270.992
3271002.0,237.0,35.0,354.0,260.0,3271.002
3271012.0,245.0,35.0,373.0,271.0,3271.012
3271022.0,254.0,34.0,397.0,276.0,3271.022
3271032.0,242.0,34.0,372.0,268.0,3271.032
3271042.0,249.0,33.0,406.0,269.0,3271.042
3271052.0,235.0,33.0,383.0,260.0,3271.052
3271062.0,245.0,32.0,404.0,271.0,3271.062
3271072.0,251.0,33.0,435.0,275.0,3271.072
3271083.0,240.0,35.0,415.0,266.0,3271.083
3271093.0,246.0,34.0,454.0,266.0,3271.093
3271103.0,240.0,37.0,454.0,265.0,3271.103
3271113.0,243.0,37.0,459.0,272.0,3271.113
3271123.0,250.0,34.0,504.0,269.0,3271.123
3271133.0,237.0,35.0,482.0,265.0,3271.133
3271143.0,245.0,33.0,525.0,267.0,3271.143
3271153.0,242.0,34.0,534.0,269.0,3271.153
3271163.0,244.0,33.0,536.0,271.0,3271.163
3271173.0,252.0,34.0,583.0,271.0,3271.173
3271183.0,237.0,34.0,565.0,259.0,3271.183
3271193.0,243.0,33.0,608.0,264.0,3271.193
3271203.0,241.0,34.0,618.0,268.0,3271.203
3271213.0,243.0,34.0,619.0,271.0,3271.213
3271223.0,250.0,33.0,662.0,268.0,3271.223
3271233.0,232.0,32.0,643.0,254.0,3271.233
3271243.0,238.0,33.0,666.0,261.0,3271.243
3271254.0,241.0,31.0,667.0,268.0,3271.254
3271264.0,237.0,31.0,666.0,267.0,3271.264
3271274.0,245.0,30.0,667.0,267.0,3271.274
3271284.0,229.0,30.0,667.0,255.0,3271.284
3271294.0,235.0,29.0,666.0,261.0,3271.294
3271304.0,240.0,30.0,667.0,267.0,3271.304
3271314.0,236.0,29.0,666.0,265.0,3271.314
3271324.0,242.0,30.0,666.0,265.0,3271.324
3271334.0,228.0,29.0,666.0,254.0,3271.334
3271344.0,234.0,29.0,666.0,260.0,3271.344
3271354.0,239.0,29.0,667.0,264.0,3271.354
3271364.0,233.0,29.0,666.0,261.0,3271.364
3271374.0,239.0,29.0,666.0,260.0,3271.374
3271384.0,227.0,28.0,667.0,251.0,3271.384
3271394.0,231.0,29.0,666.0,257.0,3271.394
3271404.0,240.0,29.0,668.0,267.0,3271.404
3271414.0,232.0,29.0,666.0,263.0,3271.414
3271424.0,238.0,29.0,666.0,265.0,3271.424
3271434.0,226.0,29.0,666.0,255.0,3271.434
3271444.0,230.0,28.0,666.0,259.0,3271.444
3271454.0,236.0,28.0,667.0,266.0,3271.454
3271464.0,230.0,29.0,667.0,259.0,3271.464
3271474.0,234.0,28.0,666.0,262.0,3271.474
3271484.0,222.0,28.0,667.0,249.0,3271.484
3271494.0,227.0,29.0,666.0,259.0,3271.494
3271504.0,234.0,29.0,667.0,265.0,3271.504
3271514.0,228.0,29.0,666.0,261.0,3271.514
3271524.0,231.0,28.0,666.0,261.0,3271.524
3271534.0,220.0,29.0,667.0,250.0,3271.534
3271544.0,224.0,29.0,666.0,257.0,3271.544
3271554.0,229.0,27.0,667.0,264.0,3271.554
3271564.0,225.0,29.0,666.0,262.0,3271.564
3271574.0,229.0,28.0,666.0,260.0,3271.574
3271584.0,217.0,28.0,667.0,249.0,3271.584
3271595.0,224.0,27.0,667.0,260.0,3271.595
3271605.0,232.0,28.0,667.0,265.0,3271.605
3271615.0,223.0,28.0,666.0,256.0,3271.615
3271625.0,227.0,28.0,666.0,257.0,3271.625
3271635.0,223.0,28.0,666.0,256.0,3271.635
3271645.0,227.0,29.0,666.0,263.0,3271.645
3271655.0,234.0,28.0,667.0,264.0,3271.655
3271665.0,225.0,27.0,667.0,256.0,3271.665
3271675.0,228.0,28.0,666.0,261.0,3271.675
3271685.0,220.0,27.0,667.0,254.0,3271.685
3271695.0,227.0,28.0,666.0,265.0,3271.695
3271705.0,234.0,26.0,667.0,266.0,3271.705
3271715.0,223.0,28.0,666.0,257.0,3271.715
3271725.0,228.0,27.0,666.0,259.0,3271.725
3271735.0,220.0,28.0,667.0,253.0,3271.735
3271745.0,229.0,27.0,666.0,262.0,3271.745
3271755.0,234.0,28.0,667.0,264.0,3271.755
3271766.0,223.0,28.0,666.0,255.0,3271.766
3271776.0,227.0,27.0,666.0,256.0,3271.776
3271786.0,227.0,27.0,667.0,260.0,3271.786
3271796.0,228.0,27.0,666.0,263.0,3271.796
3271806.0,230.0,27.0,666.0,261.0,3271.806
3271816.0,222.0,28.0,666.0,258.0,3271.816
3271826.0,225.0,27.0,666.0,260.0,3271.826
3271836.0,225.0,28.0,667.0,262.0,3271.836
3271846.0,225.0,28.0,666.0,264.0,3271.846
3271856.0,230.0,27.0,668.0,262.0,3271.856
3271866.0,218.0,27.0,667.0,253.0,3271.866
3271876.0,222.0,27.0,666.0,255.0,3271.876
3271886.0,225.0,28.0,667.0,260.0,3271.886
3271896.0,227.0,26.0,666.0,263.0,3271.896
3271906.0,229.0,28.0,666.0,261.0,3271.906
3271916.0,220.0,27.0,666.0,255.0,3271.916
3271926.0,222.0,27.0,666.0,258.0,3271.926
3271936.0,221.0,27.0,667.0,259.0,3271.936
3271946.0,226.0,28.0,666.0,266.0,3271.946
3271956.0,227.0,27.0,667.0,260.0,3271.956
3271966.0,217.0,27.0,666.0,255.0,3271.966
3271976.0,221.0,28.0,666.0,259.0,3271.976
3271986.0,223.0,27.0,667.0,262.0,3271.986
3271996.0,226.0,27.0,666.0,266.0,3271.996
3272006.0,228.0,27.0,666.0,263.0,3272.006
3272016.0,218.0,28.0,666.0,259.0,3272.016
3272026.0,222.0,26.0,666.0,264.0,3272.026
3272036.0,223.0,28.0,666.0,267.0,3272.036
3272046.0,227.0,27.0,667.0,269.0,3272.046
3272056.0,226.0,27.0,666.0,264.0,3272.056
3272066.0,220.0,27.0,666.0,261.0,3272.066
3272076.0,223.0,29.0,666.0,264.0,3272.076
3272086.0,225.0,28.0,667.0,268.0,3272.086
3272096.0,226.0,28.0,666.0,269.0,3272.096
3272107.0,226.0,27.0,666.0,264.0,3272.107
3272117.0,218.0,27.0,667.0,255.0,3272.117
3272127.0,224.0,27.0,666.0,261.0,3272.127
3272137.0,229.0,28.0,666.0,268.0,3272.137
3272147.0,224.0,28.0,666.0,262.0,3272.147
3272157.0,226.0,26.0,666.0,261.0,3272.157
3272167.0,217.0,28.0,667.0,251.0,3272.167
3272177.0,225.0,27.0,666.0,261.0,3272.177
3272187.0,230.0,28.0,667.0,267.0,3272.187
3272197.0,226.0,27.0,666.0,265.0,3272.197
3272207.0,227.0,28.0,666.0,262.0,3272.207
3272217.0,218.0,26.0,667.0,254.0,3272.217
3272227.0,226.0,27.0,666.0,265.0,3272.227
3272237.0,228.0,28.0,667.0,267.0,3272.237
3272247.0,227.0,27.0,665.0,266.0,3272.247
3272257.0,225.0,28.0,666.0,262.0,3272.257
3272267.0,218.0,28.0,666.0,256.0,3272.267
3272278.0,227.0,28.0,666.0,266.0,3272.278
3272288.0,231.0,28.0,666.0,268.0,3272.288
3272298.0,225.0,28.0,666.0,261.0,3272.298
3272308.0,226.0,27.0,666.0,261.0,3272.308
3272318.0,226.0,27.0,667.0,264.0,3272.318
3272328.0,230.0,27.0,666.0,267.0,3272.328
3272338.0,232.0,28.0,667.0,267.0,3272.338
3272348.0,226.0,28.0,665.0,259.0,3272.348
3272358.0,227.0,27.0,666.0,261.0,3272.358
3272368.0,224.0,27.0,667.0,257.0,3272.368
3272378.0,232.0,27.0,666.0,267.0,3272.378
3272388.0,232.0,27.0,667.0,265.0,3272.388
3272398.0,226.0,28.0,666.0,258.0,3272.398
3272408.0,228.0,28.0,666.0,260.0,3272.408
3272418.0,225.0,28.0,667.0,258.0,3272.418
3272428.0,232.0,27.0,666.0,267.0,3272.428
3272438.0,233.0,27.0,667.0,265.0,3272.438
3272448.0,229.0,28.0,665.0,261.0,3272.448
3272458.0,229.0,28.0,666.0,263.0,3272.458
3272468.0,226.0,29.0,667.0,262.0,3272.468
3272478.0,233.0,28.0,666.0,269.0,3272.478
3272488.0,232.0,27.0,666.0,265.0,3272.488
3272498.0,230.0,27.0,666.0,262.0,3272.498
3272508.0,228.0,28.0,666.0,260.0,3272.508
3272518.0,227.0,28.0,667.0,261.0,3272.518
3272528.0,233.0,29.0,666.0,268.0,3272.528
3272538.0,234.0,28.0,667.0,266.0,3272.538
3272548.0,229.0,28.0,666.0,259.0,3272.548
3272558.0,229.0,28.0,667.0,261.0,3272.558
3272568.0,229.0,27.0,667.0,263.0,3272.568
3272578.0,232.0,28.0,666.0,268.0,3272.578
3272588.0,233.0,27.0,667.0,266.0,3272.588
3272598.0,229.0,28.0,666.0,260.0,3272.598
3272608.0,229.0,26.0,666.0,260.0,3272.608
3272619.0,231.0,28.0,667.0,264.0,3272.619
3272629.0,236.0,27.0,666.0,266.0,3272.629
3272639.0,231.0,28.0,666.0,263.0,3272.639
3272649.0,227.0,28.0,666.0,254.0,3272.649
3272659.0,230.0,29.0,666.0,261.0,3272.659
3272669.0,233.0,28.0,666.0,263.0,3272.669
3272679.0,235.0,28.0,665.0,265.0,3272.679
3272689.0,235.0,27.0,667.0,262.0,3272.689
3272699.0,227.0,28.0,667.0,253.0,3272.699
3272709.0,230.0,28.0,666.0,258.0,3272.709
3272719.0,233.0,29.0,667.0,265.0,3272.719
3272729.0,235.0,28.0,659.0,265.0,3272.729
3272739.0,232.0,28.0,666.0,261.0,3272.739
3272749.0,228.0,28.0,653.0,255.0,3272.749
3272759.0,229.0,27.0,666.0,259.0,3272.759
3272769.0,233.0,28.0,666.0,267.0,3272.769
3272779.0,233.0,28.0,641.0,265.0,3272.779
3272790.0,231.0,28.0,666.0,262.0,3272.79
3272800.0,224.0,28.0,633.0,252.0,3272.8
3272810.0,231.0,28.0,638.0,263.0,3272.81
3272820.0,236.0,28.0,653.0,267.0,3272.82
3272830.0,231.0,28.0,612.0,261.0,3272.83
3272840.0,231.0,27.0,637.0,262.0,3272.84
3272850.0,224.0,29.0,602.0,255.0,3272.85
3272860.0,233.0,28.0,602.0,266.0,3272.86
3272870.0,235.0,28.0,618.0,268.0,3272.87
3272880.0,233.0,28.0,579.0,263.0,3272.88
3272890.0,230.0,27.0,601.0,260.0,3272.89
3272900.0,225.0,28.0,571.0,253.0,3272.9
3272910.0,233.0,28.0,568.0,264.0,3272.91
3272920.0,235.0,29.0,583.0,264.0,3272.92
3272930.0,232.0,28.0,546.0,257.0,3272.93
3272940.0,230.0,28.0,567.0,258.0,3272.94
3272950.0,226.0,29.0,541.0,253.0,3272.95
3272960.0,230.0,28.0,540.0,259.0,3272.96
3272970.0,236.0,28.0,550.0,263.0,3272.97
3272980.0,232.0,29.0,510.0,258.0,3272.98
3272990.0,230.0,28.0,533.0,257.0,3272.99
3273000.0,226.0,28.0,511.0,254.0,3273.0
3273010.0,231.0,28.0,509.0,259.0,3273.01
3273020.0,236.0,28.0,521.0,262.0,3273.02
3273030.0,231.0,28.0,481.0,257.0,3273.03
3273040.0,229.0,29.0,503.0,261.0,3273.04
3273050.0,225.0,28.0,475.0,252.0,3273.05
3273060.0,232.0,28.0,478.0,261.0,3273.06
3273070.0,235.0,29.0,494.0,266.0,3273.07
3273080.0,231.0,28.0,456.0,258.0,3273.08
3273090.0,231.0,29.0,479.0,259.0,3273.09
3273100.0,225.0,29.0,450.0,252.0,3273.1
3273110.0,234.0,29.0,450.0,263.0,3273.11
3273120.0,236.0,28.0,468.0,266.0,3273.12
3273131.0,230.0,29.0,429.0,257.0,3273.131
3273141.0,231.0,28.0,446.0,258.0,3273.141
3273151.0,230.0,28.0,434.0,259.0,3273.151
3273161.0,236.0,28.0,416.0,262.0,3273.161
3273171.0,232.0,29.0,436.0,261.0,3273.171
3273181.0,230.0,28.0,400.0,254.0,3273.181
3273191.0,230.0,29.0,415.0,257.0,3273.191
3273201.0,233.0,29.0,409.0,261.0,3273.201
3273211.0,236.0,29.0,390.0,264.0,3273.211
3273221.0,236.0,29.0,413.0,265.0,3273.221
3273231.0,231.0,29.0,375.0,257.0,3273.231
3273241.0,230.0,29.0,388.0,260.0,3273.241
3273251.0,233.0,29.0,384.0,262.0,3273.251
3273261.0,236.0,29.0,364.0,264.0,3273.261
3273271.0,236.0,29.0,383.0,262.0,3273.271
3273281.0,230.0,29.0,345.0,254.0,3273.281
3273291.0,230.0,29.0,354.0,257.0,3273.291
3273302.0,234.0,31.0,354.0,263.0,3273.302
3273312.0,235.0,30.0,330.0,262.0,3273.312
3273322.0,233.0,29.0,345.0,260.0,3273.322
3273332.0,227.0,29.0,315.0,251.0,3273.332
3273342.0,231.0,30.0,321.0,261.0,3273.342
3273352.0,234.0,30.0,328.0,264.0,3273.352
3273362.0,234.0,30.0,302.0,263.0,3273.362
3273372.0,232.0,30.0,316.0,260.0,3273.372
3273382.0,226.0,30.0,289.0,250.0,3273.382
3273392.0,228.0,30.0,295.0,258.0,3273.392
3273402.0,235.0,30.0,302.0,266.0,3273.402
3273412.0,233.0,30.0,279.0,262.0,3273.412
3273422.0,231.0,30.0,290.0,260.0,3273.422
3273432.0,226.0,30.0,268.0,254.0,3273.432
3273442.0,229.0,30.0,274.0,261.0,3273.442
3273452.0,236.0,30.0,282.0,268.0,3273.452
3273462.0,233.0,30.0,261.0,263.0,3273.462
3273472.0,231.0,30.0,273.0,262.0,3273.472
3273482.0,225.0,29.0,247.0,253.0,3273.482
3273492.0,229.0,30.0,255.0,262.0,3273.492
3273502.0,235.0,30.0,266.0,266.0,3273.502
3273512.0,231.0,30.0,245.0,260.0,3273.512
3273522.0,230.0,30.0,256.0,260.0,3273.522
3273532.0,224.0,30.0,234.0,251.0,3273.532
3273542.0,229.0,30.0,242.0,259.0,3273.542
3273552.0,234.0,31.0,253.0,263.0,3273.552
3273562.0,232.0,30.0,235.0,260.0,3273.562
3273572.0,230.0,31.0,245.0,257.0,3273.572
3273582.0,224.0,30.0,224.0,249.0,3273.582
3273592.0,230.0,30.0,236.0,259.0,3273.592
3273602.0,233.0,31.0,243.0,263.0,3273.602
3273612.0,232.0,31.0,229.0,261.0,3273.612
3273622.0,229.0,32.0,237.0,261.0,3273.622
3273632.0,223.0,30.0,219.0,251.0,3273.632
3273643.0,231.0,30.0,230.0,263.0,3273.643
3273653.0,234.0,31.0,242.0,265.0,3273.653
3273663.0,228.0,31.0,222.0,258.0,3273.663
3273673.0,229.0,31.0,230.0,258.0,3273.673
3273683.0,228.0,32.0,226.0,260.0,3273.683
3273693.0,232.0,31.0,226.0,263.0,3273.693
3273703.0,233.0,31.0,232.0,264.0,3273.703
3273713.0,228.0,30.0,215.0,255.0,3273.713
3273723.0,228.0,31.0,220.0,257.0,3273.723
3273733.0,224.0,30.0,212.0,253.0,3273.733
3273743.0,232.0,31.0,221.0,261.0,3273.743
3273753.0,233.0,32.0,225.0,263.0,3273.753
3273763.0,227.0,30.0,213.0,254.0,3273.763
3273773.0,228.0,31.0,219.0,257.0,3273.773
3273783.0,226.0,31.0,213.0,255.0,3273.783
3273793.0,233.0,31.0,221.0,264.0,3273.793
3273803.0,233.0,32.0,224.0,264.0,3273.803
3273814.0,227.0,31.0,211.0,256.0,3273.814
3273824.0,227.0,32.0,214.0,258.0,3273.824
3273834.0,230.0,31.0,219.0,263.0,3273.834
3273844.0,232.0,32.0,220.0,264.0,3273.844
3273854.0,229.0,31.0,217.0,260.0,3273.854
3273864.0,225.0,31.0,208.0,255.0,3273.864
3273874.0,226.0,32.0,212.0,258.0,3273.874
3273884.0,230.0,32.0,219.0,264.0,3273.884
3273894.0,231.0,31.0,219.0,262.0,3273.894
3273904.0,231.0,32.0,220.0,262.0,3273.904
3273914.0,225.0,31.0,212.0,255.0,3273.914
3273924.0,226.0,31.0,214.0,258.0,3273.924
3273934.0,231.0,32.0,223.0,265.0,3273.934
3273944.0,232.0,33.0,223.0,266.0,3273.944
3273954.0,230.0,32.0,220.0,260.0,3273.954
3273964.0,225.0,31.0,212.0,253.0,3273.964
3273974.0,227.0,31.0,218.0,258.0,3273.974
3273984.0,228.0,31.0,221.0,262.0,3273.984
3273994.0,231.0,31.0,224.0,264.0,3273.994
3274004.0,229.0,32.0,221.0,261.0,3274.004
3274014.0,223.0,31.0,216.0,252.0,3274.014
3274024.0,226.0,31.0,221.0,258.0,3274.024
3274034.0,229.0,32.0,225.0,260.0,3274.034
3274044.0,233.0,31.0,228.0,263.0,3274.044
3274054.0,230.0,32.0,224.0,260.0,3274.054
3274064.0,223.0,31.0,217.0,252.0,3274.064
3274074.0,227.0,33.0,219.0,258.0,3274.074
3274084.0,231.0,32.0,229.0,264.0,3274.084
3274094.0,232.0,31.0,231.0,265.0,3274.094
3274104.0,230.0,32.0,227.0,261.0,3274.104
3274114.0,225.0,31.0,224.0,256.0,3274.114
3274124.0,227.0,32.0,225.0,259.0,3274.124
3274134.0,231.0,33.0,233.0,267.0,3274.134
3274144.0,231.0,31.0,235.0,263.0,3274.144
3274155.0,228.0,31.0,229.0,261.0,3274.155
3274165.0,222.0,32.0,226.0,254.0,3274.165
3274175.0,229.0,31.0,236.0,264.0,3274.175
3274185.0,233.0,32.0,238.0,266.0,3274.185
3274195.0,228.0,31.0,238.0,260.0,3274.195
3274205.0,228.0,32.0,233.0,259.0,3274.205
3274215.0,221.0,31.0,233.0,252.0,3274.215
3274225.0,228.0,32.0,243.0,262.0,3274.225
3274235.0,233.0,31.0,243.0,263.0,3274.235
3274245.0,229.0,31.0,248.0,260.0,3274.245
3274255.0,227.0,32.0,241.0,257.0,3274.255
3274265.0,221.0,33.0,241.0,252.0,3274.265
3274275.0,229.0,31.0,250.0,262.0,3274.275
3274285.0,231.0,32.0,250.0,263.0,3274.285
3274295.0,229.0,31.0,255.0,258.0,3274.295
3274305.0,228.0,31.0,246.0,258.0,3274.305
3274315.0,221.0,32.0,249.0,254.0,3274.315
3274326.0,230.0,32.0,259.0,264.0,3274.326
3274336.0,232.0,32.0,254.0,263.0,3274.336
3274346.0,225.0,31.0,259.0,256.0,3274.346
3274356.0,226.0,32.0,253.0,257.0,3274.356
3274366.0,228.0,31.0,260.0,260.0,3274.366
3274376.0,231.0,31.0,266.0,263.0,3274.376
3274386.0,232.0,32.0,260.0,264.0,3274.386
3274396.0,225.0,32.0,263.0,256.0,3274.396
3274406.0,226.0,32.0,257.0,259.0,3274.406
3274416.0,224.0,31.0,261.0,257.0,3274.416
3274426.0,232.0,31.0,270.0,264.0,3274.426
3274436.0,231.0,32.0,258.0,262.0,3274.436
3274446.0,224.0,31.0,263.0,253.0,3274.446
3274456.0,227.0,32.0,258.0,257.0,3274.456
3274466.0,225.0,32.0,261.0,256.0,3274.466
3274476.0,231.0,31.0,269.0,263.0,3274.476
3274486.0,231.0,33.0,258.0,261.0,3274.486
3274496.0,226.0,31.0,265.0,255.0,3274.496
3274506.0,226.0,32.0,258.0,257.0,3274.506
3274516.0,226.0,32.0,266.0,259.0,3274.516
3274526.0,230.0,32.0,273.0,263.0,3274.526
3274536.0,230.0,32.0,261.0,259.0,3274.536
3274546.0,224.0,32.0,271.0,256.0,3274.546
3274556.0,226.0,32.0,264.0,256.0,3274.556
3274566.0,226.0,32.0,270.0,259.0,3274.566
3274576.0,229.0,32.0,277.0,262.0,3274.576
3274586.0,231.0,32.0,267.0,263.0,3274.586
3274596.0,223.0,32.0,275.0,254.0,3274.596
3274606.0,224.0,32.0,268.0,257.0,3274.606
3274616.0,226.0,32.0,277.0,261.0,3274.616
3274626.0,230.0,32.0,282.0,264.0,3274.626
3274636.0,229.0,32.0,270.0,262.0,3274.636
3274646.0,222.0,32.0,279.0,255.0,3274.646
3274656.0,224.0,32.0,271.0,257.0,3274.656
3274667.0,228.0,32.0,278.0,262.0,3274.667
3274677.0,229.0,32.0,284.0,262.0,3274.677
3274687.0,228.0,33.0,271.0,259.0,3274.687
3274697.0,219.0,32.0,276.0,250.0,3274.697
3274707.0,226.0,32.0,279.0,260.0,3274.707
3274717.0,228.0,33.0,280.0,262.0,3274.717
3274727.0,227.0,32.0,283.0,260.0,3274.727
3274737.0,225.0,32.0,270.0,258.0,3274.737
3274747.0,219.0,31.0,273.0,250.0,3274.747
3274757.0,223.0,32.0,271.0,257.0,3274.757
3274767.0,229.0,32.0,278.0,263.0,3274.767
3274777.0,227.0,32.0,282.0,262.0,3274.777
3274787.0,227.0,32.0,270.0,258.0,3274.787
3274797.0,220.0,32.0,275.0,253.0,3274.797
3274807.0,224.0,32.0,273.0,257.0,3274.807
3274817.0,230.0,32.0,278.0,264.0,3274.817
3274827.0,227.0,33.0,282.0,259.0,3274.827
3274838.0,226.0,32.0,269.0,258.0,3274.838
3274848.0,218.0,32.0,271.0,251.0,3274.848
3274858.0,228.0,32.0,279.0,262.0,3274.858
3274868.0,229.0,32.0,273.0,261.0,3274.868
3274878.0,224.0,31.0,280.0,255.0,3274.878
3274888.0,225.0,32.0,268.0,257.0,3274.888
3274898.0,218.0,32.0,272.0,251.0,3274.898
3274908.0,227.0,33.0,283.0,264.0,3274.908
3274918.0,229.0,32.0,273.0,261.0,3274.918
3274928.0,225.0,32.0,281.0,257.0,3274.928
3274938.0,225.0,33.0,269.0,255.0,3274.938
3274948.0,220.0,31.0,272.0,253.0,3274.948
3274958.0,230.0,32.0,283.0,263.0,3274.958
3274968.0,230.0,33.0,275.0,265.0,3274.968
3274978.0,224.0,32.0,279.0,257.0,3274.978
3274988.0,225.0,32.0,268.0,257.0,3274.988
3274998.0,221.0,32.0,271.0,256.0,3274.998
3275008.0,227.0,32.0,276.0,261.0,3275.008
3275018.0,231.0,33.0,272.0,263.0,3275.018
3275028.0,224.0,32.0,273.0,257.0,3275.028
3275038.0,224.0,33.0,264.0,257.0,3275.038
3275048.0,223.0,32.0,269.0,256.0,3275.048
3275058.0,227.0,33.0,273.0,263.0,3275.058
3275068.0,232.0,32.0,268.0,262.0,3275.068
3275078.0,223.0,32.0,268.0,254.0,3275.078
3275088.0,225.0,32.0,260.0,255.0,3275.088
3275098.0,219.0,33.0,259.0,252.0,3275.098
3275108.0,227.0,32.0,268.0,260.0,3275.108
3275118.0,231.0,32.0,262.0,262.0,3275.118
3275128.0,222.0,32.0,262.0,253.0,3275.128
3275138.0,226.0,31.0,256.0,255.0,3275.138
3275148.0,219.0,32.0,255.0,251.0,3275.148
3275158.0,227.0,32.0,264.0,262.0,3275.158
3275168.0,230.0,32.0,258.0,263.0,3275.168
3275179.0,222.0,32.0,259.0,253.0,3275.179
3275189.0,224.0,32.0,253.0,256.0,3275.189
3275199.0,227.0,31.0,258.0,260.0,3275.199
3275209.0,228.0,32.0,261.0,260.0,3275.209
3275219.0,227.0,32.0,250.0,258.0,3275.219
3275229.0,221.0,32.0,253.0,252.0,3275.229
3275239.0,223.0,32.0,248.0,254.0,3275.239
3275249.0,227.0,32.0,254.0,259.0,3275.249
3275259.0,229.0,32.0,258.0,259.0,3275.259
3275269.0,230.0,32.0,250.0,260.0,3275.269
3275279.0,222.0,31.0,252.0,252.0,3275.279
3275289.0,224.0,32.0,250.0,256.0,3275.289
3275299.0,228.0,32.0,255.0,262.0,3275.299
3275309.0,230.0,31.0,258.0,262.0,3275.309
3275319.0,229.0,32.0,249.0,261.0,3275.319
3275329.0,221.0,31.0,249.0,250.0,3275.329
3275339.0,223.0,32.0,245.0,255.0,3275.339
3275350.0,228.0,32.0,253.0,263.0,3275.35
3275360.0,227.0,33.0,254.0,259.0,3275.36
3275370.0,226.0,32.0,246.0,258.0,3275.37
3275380.0,217.0,32.0,244.0,249.0,3275.38
3275390.0,227.0,31.0,253.0,259.0,3275.39
3275400.0,228.0,32.0,252.0,263.0,3275.4
3275410.0,226.0,31.0,255.0,258.0,3275.41
3275420.0,226.0,32.0,247.0,258.0,3275.42
3275430.0,219.0,32.0,244.0,249.0,3275.43
3275440.0,225.0,32.0,247.0,257.0,3275.44
3275450.0,231.0,32.0,253.0,263.0,3275.45
3275460.0,226.0,31.0,252.0,255.0,3275.46
3275470.0,225.0,32.0,245.0,255.0,3275.47
3275480.0,219.0,31.0,243.0,247.0,3275.48
3275490.0,224.0,32.0,247.0,256.0,3275.49
3275500.0,231.0,32.0,252.0,261.0,3275.5
3275510.0,225.0,32.0,251.0,255.0,3275.51
3275520.0,227.0,32.0,244.0,256.0,3275.52
3275530.0,218.0,31.0,240.0,246.0,3275.53
3275540.0,225.0,32.0,245.0,256.0,3275.54
3275550.0,230.0,33.0,248.0,261.0,3275.55
3275560.0,224.0,30.0,245.0,253.0,3275.56
3275570.0,226.0,32.0,240.0,255.0,3275.57
3275580.0,218.0,32.0,236.0,246.0,3275.58
3275590.0,224.0,31.0,244.0,257.0,3275.59
3275600.0,230.0,32.0,242.0,259.0,3275.6
3275610.0,224.0,32.0,240.0,255.0,3275.61
3275620.0,225.0,32.0,233.0,254.0,3275.62
3275630.0,216.0,32.0,229.0,246.0,3275.63
3275640.0,224.0,32.0,240.0,259.0,3275.64
3275650.0,228.0,32.0,242.0,261.0,3275.65
3275660.0,224.0,32.0,240.0,256.0,3275.66
3275670.0,225.0,32.0,234.0,255.0,3275.67
3275680.0,217.0,33.0,230.0,251.0,3275.68
3275691.0,226.0,32.0,241.0,261.0,3275.691
3275701.0,229.0,33.0,240.0,264.0,3275.701
3275711.0,222.0,31.0,237.0,254.0,3275.711
3275721.0,224.0,31.0,233.0,256.0,3275.721
3275731.0,224.0,32.0,236.0,257.0,3275.731
3275741.0,227.0,32.0,240.0,262.0,3275.741
3275751.0,230.0,32.0,237.0,262.0,3275.751
3275761.0,221.0,32.0,233.0,254.0,3275.761
3275771.0,224.0,32.0,231.0,254.0,3275.771
3275781.0,220.0,31.0,231.0,252.0,3275.781
3275791.0,227.0,32.0,241.0,260.0,3275.791
3275801.0,230.0,32.0,235.0,261.0,3275.801
3275811.0,220.0,32.0,235.0,251.0,3275.811
3275821.0,225.0,32.0,234.0,256.0,3275.821
3275831.0,221.0,32.0,236.0,253.0,3275.831
3275841.0,229.0,31.0,246.0,260.0,3275.841
3275851.0,229.0,32.0,238.0,259.0,3275.851
3275862.0,220.0,31.0,240.0,249.0,3275.862
3275872.0,223.0,32.0,239.0,255.0,3275.872
3275882.0,227.0,32.0,246.0,261.0,3275.882
3275892.0,226.0,31.0,250.0,260.0,3275.892
3275902.0,227.0,32.0,242.0,258.0,3275.902
3275912.0,219.0,31.0,244.0,251.0,3275.912
3275922.0,222.0,32.0,241.0,255.0,3275.922
3275932.0,227.0,33.0,249.0,263.0,3275.932
3275942.0,225.0,32.0,252.0,259.0,3275.942
3275952.0,227.0,33.0,245.0,261.0,3275.952
3275962.0,219.0,31.0,248.0,251.0,3275.962
3275972.0,223.0,31.0,245.0,255.0,3275.972
3275982.0,228.0,32.0,251.0,262.0,3275.982
3275992.0,227.0,31.0,255.0,260.0,3275.992
3276002.0,226.0,32.0,246.0,259.0,3276.002
3276012.0,218.0,31.0,247.0,250.0,3276.012
3276022.0,221.0,32.0,247.0,257.0,3276.022
3276032.0,225.0,31.0,252.0,260.0,3276.032
3276042.0,225.0,31.0,255.0,260.0,3276.042
3276052.0,226.0,32.0,244.0,257.0,3276.052
3276062.0,217.0,32.0,246.0,249.0,3276.062
3276072.0,223.0,32.0,250.0,258.0,3276.072
3276082.0,226.0,33.0,253.0,263.0,3276.082
3276092.0,226.0,32.0,258.0,261.0,3276.092
3276102.0,226.0,32.0,248.0,260.0,3276.102
3276112.0,216.0,32.0,245.0,249.0,3276.112
3276122.0,222.0,33.0,246.0,255.0,3276.122
3276132.0,227.0,33.0,253.0,264.0,3276.132
3276142.0,226.0,32.0,256.0,261.0,3276.142
3276152.0,225.0,33.0,246.0,260.0,3276.152
3276162.0,219.0,32.0,250.0,252.0,3276.162
3276172.0,221.0,32.0,250.0,259.0,3276.172
3276182.0,227.0,32.0,256.0,265.0,3276.182
3276192.0,224.0,33.0,257.0,262.0,3276.192
3276203.0,224.0,32.0,247.0,260.0,3276.203
3276213.0,215.0,32.0,245.0,252.0,3276.213
3276223.0,225.0,32.0,255.0,262.0,3276.223
3276233.0,228.0,32.0,252.0,264.0,3276.233
3276243.0,222.0,32.0,256.0,255.0,3276.243
3276253.0,225.0,32.0,248.0,258.0,3276.253
3276263.0,216.0,32.0,247.0,250.0,3276.263
3276273.0,225.0,32.0,256.0,261.0,3276.273
3276283.0,229.0,33.0,253.0,261.0,3276.283
3276293.0,223.0,32.0,260.0,256.0,3276.293
3276303.0,224.0,33.0,251.0,255.0,3276.303
3276313.0,218.0,32.0,254.0,251.0,3276.313
3276323.0,226.0,33.0,264.0,259.0,3276.323
3276333.0,229.0,33.0,261.0,259.0,3276.333
3276343.0,223.0,32.0,266.0,254.0,3276.343
3276353.0,224.0,33.0,257.0,254.0,3276.353
3276363.0,218.0,32.0,262.0,250.0,3276.363
3276374.0,226.0,32.0,272.0,257.0,3276.374
3276384.0,228.0,33.0,263.0,259.0,3276.384
3276394.0,218.0,32.0,270.0,250.0,3276.394
3276404.0,222.0,32.0,265.0,254.0,3276.404
3276414.0,226.0,32.0,274.0,259.0,3276.414
3276424.0,227.0,32.0,279.0,262.0,3276.424
3276434.0,229.0,33.0,267.0,259.0,3276.434
3276444.0,220.0,32.0,275.0,252.0,3276.444
3276454.0,223.0,33.0,269.0,254.0,3276.454
3276464.0,223.0,32.0,274.0,256.0,3276.464
3276474.0,228.0,32.0,283.0,261.0,3276.474
3276484.0,231.0,32.0,270.0,258.0,3276.484
3276494.0,219.0,33.0,276.0,250.0,3276.494
3276504.0,225.0,33.0,269.0,254.0,3276.504
3276514.0,223.0,33.0,274.0,257.0,3276.514
3276524.0,227.0,32.0,281.0,259.0,3276.524
3276534.0,228.0,33.0,268.0,257.0,3276.534
3276544.0,221.0,32.0,277.0,252.0,3276.544
3276554.0,224.0,32.0,269.0,256.0,3276.554
3276564.0,224.0,32.0,275.0,258.0,3276.564
3276574.0,227.0,33.0,279.0,260.0,3276.574
3276584.0,227.0,33.0,267.0,258.0,3276.584
3276594.0,220.0,32.0,273.0,253.0,3276.594
3276604.0,223.0,32.0,266.0,255.0,3276.604
3276614.0,226.0,32.0,272.0,259.0,3276.614
3276624.0,226.0,32.0,277.0,261.0,3276.624
3276634.0,230.0,32.0,266.0,260.0,3276.634
3276644.0,219.0,33.0,268.0,252.0,3276.644
3276654.0,223.0,32.0,262.0,255.0,3276.654
3276664.0,225.0,33.0,268.0,260.0,3276.664
3276674.0,227.0,32.0,273.0,262.0,3276.674
3276684.0,229.0,32.0,262.0,260.0,3276.684
3276694.0,219.0,32.0,268.0,252.0,3276.694
3276704.0,222.0,33.0,263.0,257.0,3276.704
3276715.0,228.0,32.0,272.0,262.0,3276.715
3276725.0,225.0,32.0,276.0,260.0,3276.725
3276735.0,227.0,32.0,265.0,257.0,3276.735
3276745.0,216.0,31.0,267.0,248.0,3276.745
3276755.0,224.0,32.0,271.0,258.0,3276.755
3276765.0,229.0,32.0,273.0,261.0,3276.765
3276775.0,226.0,32.0,277.0,258.0,3276.775
3276785.0,227.0,32.0,266.0,256.0,3276.785
3276795.0,217.0,32.0,269.0,248.0,3276.795
3276805.0,223.0,32.0,270.0,256.0,3276.805
3276815.0,230.0,33.0,277.0,263.0,3276.815
3276825.0,226.0,32.0,281.0,259.0,3276.825
3276835.0,226.0,32.0,268.0,258.0,3276.835
3276845.0,218.0,32.0,275.0,250.0,3276.845
3276855.0,223.0,32.0,273.0,257.0,3276.855
3276865.0,231.0,32.0,278.0,264.0,3276.865
3276875.0,224.0,31.0,281.0,258.0,3276.875
3276886.0,225.0,33.0,269.0,258.0,3276.886
3276896.0,218.0,33.0,273.0,254.0,3276.896
3276906.0,227.0,32.0,281.0,264.0,3276.906
3276916.0,230.0,32.0,272.0,263.0,3276.916
3276926.0,221.0,32.0,277.0,255.0,3276.926
3276936.0,225.0,33.0,268.0,257.0,3276.936
3276946.0,219.0,32.0,271.0,254.0,3276.946
3276956.0,227.0,32.0,278.0,263.0,3276.956
3276966.0,230.0,34.0,269.0,262.0,3276.966
3276976.0,223.0,32.0,275.0,256.0,3276.976
3276986.0,224.0,32.0,265.0,257.0,3276.986
3276996.0,221.0,31.0,272.0,256.0,3276.996
3277006.0,227.0,32.0,279.0,264.0,3277.006
3277016.0,230.0,32.0,272.0,264.0,3277.016
3277026.0,222.0,33.0,275.0,257.0,3277.026
3277036.0,225.0,32.0,266.0,256.0,3277.036
3277046.0,223.0,32.0,270.0,257.0,3277.046
3277056.0,227.0,32.0,274.0,262.0,3277.056
3277066.0,231.0,32.0,269.0,263.0,3277.066
3277076.0,222.0,32.0,273.0,256.0,3277.076
3277086.0,226.0,32.0,264.0,257.0,3277.086
3277096.0,225.0,32.0,271.0,258.0,3277.096
3277106.0,228.0,32.0,278.0,263.0,3277.106
3277116.0,231.0,33.0,269.0,263.0,3277.116
3277126.0,223.0,31.0,275.0,255.0,3277.126
3277136.0,224.0,32.0,266.0,257.0,3277.136
3277146.0,219.0,32.0,269.0,254.0,3277.146
3277156.0,227.0,33.0,278.0,265.0,3277.156
3277166.0,230.0,32.0,269.0,264.0,3277.166
3277176.0,221.0,32.0,273.0,255.0,3277.176
3277186.0,225.0,32.0,267.0,257.0,3277.186
3277196.0,220.0,31.0,272.0,255.0,3277.196
3277206.0,228.0,32.0,280.0,263.0,3277.206
3277216.0,230.0,33.0,269.0,262.0,3277.216
3277227.0,219.0,32.0,274.0,254.0,3277.227
3277237.0,223.0,32.0,269.0,257.0,3277.237
3277247.0,226.0,32.0,276.0,263.0,3277.247
3277257.0,227.0,32.0,281.0,263.0,3277.257
3277267.0,226.0,32.0,268.0,258.0,3277.267
3277277.0,219.0,32.0,276.0,252.0,3277.277
3277287.0,223.0,32.0,272.0,256.0,3277.287
3277297.0,227.0,32.0,279.0,262.0,3277.297
3277307.0,226.0,32.0,285.0,260.0,3277.307
3277317.0,229.0,32.0,275.0,261.0,3277.317
3277327.0,219.0,31.0,282.0,253.0,3277.327
3277337.0,222.0,32.0,276.0,256.0,3277.337
3277347.0,228.0,33.0,283.0,264.0,3277.347
3277357.0,227.0,32.0,289.0,262.0,3277.357
3277367.0,227.0,32.0,274.0,260.0,3277.367
3277377.0,218.0,31.0,283.0,251.0,3277.377
3277387.0,222.0,31.0,276.0,255.0,3277.387
3277398.0,228.0,32.0,281.0,263.0,3277.398
3277408.0,225.0,32.0,287.0,258.0,3277.408
