time (ms),signal 0,signal 1,signal 2,signal 3,time (sec)
3300622.0,219.0,32.0,270.0,250.0,3300.622
3300632.0,216.0,32.0,276.0,245.0,3300.632
3300642.0,216.0,33.0,263.0,244.0,3300.642
3300652.0,210.0,31.0,270.0,236.0,3300.652
3300662.0,213.0,32.0,265.0,242.0,3300.662
3300672.0,219.0,32.0,270.0,249.0,3300.672
3300682.0,217.0,32.0,275.0,244.0,3300.682
3300692.0,216.0,32.0,263.0,243.0,3300.692
3300702.0,208.0,32.0,268.0,236.0,3300.702
3300712.0,212.0,32.0,264.0,242.0,3300.712
3300722.0,219.0,32.0,268.0,249.0,3300.722
3300732.0,215.0,32.0,272.0,242.0,3300.732
3300742.0,217.0,32.0,261.0,244.0,3300.742
3300752.0,209.0,32.0,266.0,235.0,3300.752
3300762.0,213.0,33.0,264.0,243.0,3300.762
3300772.0,219.0,33.0,267.0,250.0,3300.772
3300782.0,217.0,32.0,271.0,245.0,3300.782
3300792.0,217.0,32.0,259.0,243.0,3300.792
3300802.0,209.0,32.0,263.0,234.0,3300.802
3300812.0,215.0,32.0,263.0,243.0,3300.812
3300822.0,219.0,32.0,267.0,248.0,3300.822
3300832.0,217.0,32.0,270.0,244.0,3300.832
3300842.0,217.0,33.0,259.0,245.0,3300.842
3300852.0,209.0,32.0,263.0,234.0,3300.852
3300862.0,215.0,32.0,267.0,245.0,3300.862
3300872.0,219.0,32.0,269.0,249.0,3300.872
3300882.0,218.0,32.0,274.0,244.0,3300.882
3300892.0,216.0,32.0,261.0,244.0,3300.892
3300902.0,209.0,31.0,266.0,236.0,3300.902
3300912.0,214.0,33.0,263.0,243.0,3300.912
3300922.0,221.0,33.0,269.0,249.0,3300.922
3300932.0,217.0,33.0,274.0,242.0,3300.932
3300942.0,217.0,33.0,261.0,244.0,3300.942
3300952.0,212.0,31.0,271.0,235.0,3300.952
3300962.0,216.0,32.0,269.0,244.0,3300.962
3300972.0,221.0,33.0,272.0,251.0,3300.972
3300982.0,218.0,33.0,276.0,244.0,3300.982
3300992.0,219.0,32.0,264.0,245.0,3300.992
3301002.0,211.0,32.0,272.0,234.0,3301.002
3301012.0,216.0,32.0,271.0,243.0,3301.012
3301022.0,221.0,33.0,273.0,250.0,3301.022
3301032.0,216.0,32.0,278.0,243.0,3301.032
3301042.0,218.0,32.0,268.0,244.0,3301.042
3301052.0,210.0,32.0,272.0,235.0,3301.052
3301062.0,217.0,33.0,275.0,247.0,3301.062
3301072.0,222.0,32.0,274.0,250.0,3301.072
3301082.0,219.0,31.0,281.0,245.0,3301.082
3301092.0,218.0,32.0,268.0,245.0,3301.092
3301102.0,210.0,31.0,273.0,236.0,3301.102
3301112.0,218.0,32.0,277.0,246.0,3301.112
3301122.0,221.0,32.0,277.0,249.0,3301.122
3301132.0,219.0,32.0,283.0,244.0,3301.132
3301142.0,218.0,32.0,269.0,244.0,3301.142
3301152.0,210.0,32.0,274.0,236.0,3301.152
3301163.0,218.0,32.0,278.0,246.0,3301.163
3301173.0,223.0,32.0,276.0,251.0,3301.173
3301183.0,216.0,32.0,282.0,242.0,3301.183
3301193.0,216.0,32.0,271.0,242.0,3301.193
3301203.0,216.0,32.0,279.0,243.0,3301.203
3301213.0,220.0,32.0,282.0,248.0,3301.213
3301223.0,223.0,33.0,274.0,250.0,3301.223
3301233.0,215.0,32.0,283.0,241.0,3301.233
3301243.0,216.0,33.0,274.0,244.0,3301.243
3301253.0,213.0,32.0,279.0,240.0,3301.253
3301263.0,220.0,32.0,284.0,247.0,3301.263
3301273.0,223.0,32.0,275.0,250.0,3301.273
3301283.0,214.0,31.0,283.0,240.0,3301.283
3301293.0,218.0,33.0,272.0,244.0,3301.293
3301303.0,213.0,32.0,276.0,240.0,3301.303
3301313.0,221.0,33.0,283.0,248.0,3301.313
3301323.0,223.0,32.0,271.0,249.0,3301.323
3301334.0,214.0,32.0,279.0,240.0,3301.334
3301344.0,215.0,32.0,271.0,243.0,3301.344
3301354.0,219.0,31.0,278.0,248.0,3301.354
3301364.0,219.0,32.0,284.0,249.0,3301.364
3301374.0,220.0,32.0,270.0,247.0,3301.374
3301384.0,214.0,32.0,279.0,240.0,3301.384
3301394.0,216.0,32.0,271.0,243.0,3301.394
3301404.0,220.0,31.0,278.0,249.0,3301.404
3301414.0,220.0,32.0,281.0,246.0,3301.414
3301424.0,222.0,32.0,268.0,247.0,3301.424
3301434.0,215.0,31.0,275.0,237.0,3301.434
3301444.0,217.0,32.0,269.0,242.0,3301.444
3301454.0,222.0,32.0,274.0,248.0,3301.454
3301464.0,222.0,32.0,279.0,247.0,3301.464
3301474.0,220.0,32.0,265.0,245.0,3301.474
3301484.0,212.0,31.0,272.0,235.0,3301.484
3301494.0,215.0,33.0,268.0,241.0,3301.494
3301504.0,217.0,31.0,274.0,245.0,3301.504
3301514.0,221.0,32.0,281.0,247.0,3301.514
3301524.0,221.0,32.0,267.0,246.0,3301.524
3301534.0,213.0,32.0,276.0,238.0,3301.534
3301544.0,217.0,33.0,273.0,246.0,3301.544
3301554.0,220.0,32.0,278.0,251.0,3301.554
3301564.0,220.0,33.0,282.0,250.0,3301.564
3301574.0,220.0,32.0,269.0,247.0,3301.574
3301584.0,212.0,32.0,276.0,240.0,3301.584
3301594.0,216.0,32.0,269.0,244.0,3301.594
3301604.0,220.0,33.0,278.0,250.0,3301.604
3301614.0,220.0,32.0,283.0,250.0,3301.614
3301624.0,219.0,34.0,268.0,248.0,3301.624
3301634.0,212.0,32.0,275.0,240.0,3301.634
3301644.0,215.0,32.0,266.0,243.0,3301.644
3301654.0,220.0,33.0,274.0,250.0,3301.654
3301664.0,219.0,32.0,279.0,248.0,3301.664
3301675.0,219.0,32.0,265.0,246.0,3301.675
3301685.0,211.0,32.0,270.0,237.0,3301.685
3301695.0,218.0,33.0,275.0,248.0,3301.695
3301705.0,223.0,33.0,271.0,251.0,3301.705
3301715.0,217.0,32.0,278.0,242.0,3301.715
3301725.0,219.0,33.0,268.0,245.0,3301.725
3301735.0,211.0,32.0,273.0,237.0,3301.735
3301745.0,218.0,33.0,279.0,249.0,3301.745
3301755.0,223.0,33.0,274.0,251.0,3301.755
3301765.0,218.0,33.0,282.0,246.0,3301.765
3301775.0,218.0,33.0,269.0,245.0,3301.775
3301785.0,211.0,33.0,274.0,240.0,3301.785
3301795.0,219.0,32.0,280.0,251.0,3301.795
3301805.0,223.0,34.0,277.0,252.0,3301.805
3301815.0,218.0,33.0,282.0,246.0,3301.815
3301825.0,218.0,34.0,271.0,246.0,3301.825
3301835.0,213.0,33.0,276.0,243.0,3301.835
3301846.0,224.0,33.0,284.0,252.0,3301.846
3301856.0,231.0,34.0,274.0,255.0,3301.856
3301866.0,223.0,33.0,284.0,251.0,3301.866
3301876.0,226.0,34.0,277.0,250.0,3301.876
3301886.0,231.0,33.0,287.0,258.0,3301.886
3301896.0,241.0,33.0,302.0,268.0,3301.896
3301906.0,235.0,33.0,287.0,256.0,3301.906
3301916.0,230.0,31.0,300.0,256.0,3301.916
3301926.0,240.0,32.0,301.0,259.0,3301.926
3301936.0,234.0,33.0,298.0,251.0,3301.936
3301946.0,249.0,33.0,297.0,252.0,3301.946
3301956.0,255.0,34.0,286.0,251.0,3301.956
3301966.0,253.0,33.0,309.0,254.0,3301.966
3301976.0,252.0,33.0,288.0,249.0,3301.976
3301986.0,256.0,34.0,298.0,253.0,3301.986
3301996.0,239.0,33.0,285.0,244.0,3301.996
3302006.0,247.0,33.0,274.0,237.0,3302.006
3302016.0,246.0,33.0,292.0,237.0,3302.016
3302026.0,242.0,34.0,290.0,249.0,3302.026
3302036.0,241.0,33.0,302.0,258.0,3302.036
3302046.0,252.0,33.0,314.0,267.0,3302.046
3302056.0,250.0,34.0,299.0,266.0,3302.056
3302066.0,254.0,34.0,311.0,266.0,3302.066
3302076.0,249.0,34.0,300.0,263.0,3302.076
3302086.0,280.0,33.0,323.0,279.0,3302.086
3302096.0,280.0,33.0,325.0,276.0,3302.096
3302106.0,306.0,33.0,325.0,290.0,3302.106
3302116.0,305.0,33.0,347.0,283.0,3302.116
3302126.0,287.0,33.0,332.0,276.0,3302.126
3302136.0,288.0,34.0,337.0,276.0,3302.136
3302146.0,295.0,34.0,353.0,280.0,3302.146
3302156.0,283.0,34.0,323.0,260.0,3302.156
3302166.0,305.0,34.0,338.0,253.0,3302.166
3302176.0,291.0,33.0,318.0,253.0,3302.176
3302187.0,299.0,34.0,328.0,269.0,3302.187
3302197.0,298.0,34.0,340.0,276.0,3302.197
3302207.0,318.0,34.0,344.0,293.0,3302.207
3302217.0,340.0,34.0,375.0,300.0,3302.217
3302227.0,326.0,34.0,373.0,316.0,3302.227
3302237.0,342.0,35.0,375.0,314.0,3302.237
3302247.0,335.0,33.0,392.0,312.0,3302.247
3302257.0,323.0,35.0,367.0,313.0,3302.257
3302267.0,305.0,33.0,393.0,311.0,3302.267
3302277.0,301.0,34.0,381.0,302.0,3302.277
3302287.0,300.0,33.0,384.0,301.0,3302.287
3302297.0,287.0,34.0,406.0,300.0,3302.297
3302307.0,288.0,33.0,403.0,313.0,3302.307
3302317.0,276.0,33.0,430.0,300.0,3302.317
3302327.0,293.0,34.0,426.0,307.0,3302.327
3302337.0,306.0,34.0,424.0,317.0,3302.337
3302347.0,297.0,33.0,451.0,306.0,3302.347
3302358.0,293.0,35.0,435.0,296.0,3302.358
3302368.0,287.0,34.0,451.0,283.0,3302.368
3302378.0,293.0,34.0,457.0,281.0,3302.378
3302388.0,297.0,34.0,444.0,280.0,3302.388
3302398.0,283.0,33.0,482.0,272.0,3302.398
3302408.0,290.0,34.0,466.0,290.0,3302.408
3302418.0,278.0,33.0,495.0,294.0,3302.418
3302428.0,297.0,34.0,509.0,315.0,3302.428
3302438.0,306.0,34.0,493.0,323.0,3302.438
3302448.0,298.0,34.0,526.0,321.0,3302.448
3302458.0,294.0,34.0,491.0,314.0,3302.458
3302468.0,284.0,34.0,504.0,298.0,3302.468
3302478.0,292.0,33.0,500.0,296.0,3302.478
3302488.0,289.0,35.0,482.0,304.0,3302.488
3302498.0,282.0,34.0,517.0,302.0,3302.498
3302508.0,294.0,34.0,489.0,304.0,3302.508
3302518.0,282.0,33.0,507.0,289.0,3302.518
3302528.0,287.0,33.0,511.0,291.0,3302.528
3302538.0,282.0,34.0,485.0,287.0,3302.538
3302548.0,263.0,33.0,528.0,292.0,3302.548
3302558.0,265.0,33.0,505.0,307.0,3302.558
3302568.0,259.0,34.0,520.0,310.0,3302.568
3302578.0,261.0,33.0,517.0,306.0,3302.578
3302588.0,272.0,33.0,507.0,310.0,3302.588
3302598.0,262.0,34.0,517.0,291.0,3302.598
3302608.0,269.0,33.0,491.0,292.0,3302.608
3302618.0,279.0,35.0,513.0,285.0,3302.618
3302628.0,279.0,34.0,512.0,284.0,3302.628
3302638.0,289.0,33.0,491.0,296.0,3302.638
3302648.0,276.0,33.0,519.0,275.0,3302.648
3302658.0,273.0,33.0,500.0,281.0,3302.658
3302668.0,269.0,33.0,516.0,273.0,3302.668
3302678.0,277.0,33.0,520.0,290.0,3302.678
3302688.0,287.0,34.0,500.0,296.0,3302.688
3302699.0,280.0,34.0,524.0,280.0,3302.699
3302709.0,268.0,33.0,499.0,276.0,3302.709
3302719.0,267.0,33.0,509.0,282.0,3302.719
3302729.0,268.0,33.0,519.0,279.0,3302.729
3302739.0,268.0,33.0,491.0,271.0,3302.739
3302749.0,258.0,33.0,513.0,260.0,3302.749
3302759.0,255.0,32.0,493.0,268.0,3302.759
3302769.0,253.0,33.0,494.0,272.0,3302.769
3302779.0,255.0,32.0,505.0,269.0,3302.779
3302789.0,268.0,34.0,486.0,277.0,3302.789
3302799.0,259.0,32.0,516.0,271.0,3302.799
3302809.0,258.0,33.0,496.0,287.0,3302.809
3302819.0,268.0,34.0,502.0,304.0,3302.819
3302829.0,261.0,33.0,512.0,303.0,3302.829
3302839.0,275.0,33.0,490.0,312.0,3302.839
3302849.0,269.0,32.0,518.0,306.0,3302.849
3302859.0,268.0,33.0,492.0,309.0,3302.859
3302870.0,275.0,33.0,495.0,321.0,3302.87
3302880.0,263.0,33.0,510.0,318.0,3302.88
3302890.0,272.0,32.0,484.0,326.0,3302.89
3302900.0,261.0,33.0,509.0,326.0,3302.9
3302910.0,276.0,33.0,502.0,338.0,3302.91
3302920.0,282.0,33.0,492.0,343.0,3302.92
3302930.0,270.0,32.0,507.0,326.0,3302.93
3302940.0,273.0,33.0,476.0,325.0,3302.94
3302950.0,259.0,32.0,490.0,311.0,3302.95
3302960.0,261.0,32.0,478.0,318.0,3302.96
3302970.0,269.0,33.0,472.0,332.0,3302.97
3302980.0,259.0,32.0,486.0,317.0,3302.98
3302990.0,258.0,32.0,456.0,309.0,3302.99
3303000.0,253.0,33.0,467.0,296.0,3303.0
3303010.0,262.0,33.0,456.0,298.0,3303.01
3303020.0,258.0,32.0,444.0,292.0,3303.02
3303030.0,251.0,32.0,459.0,285.0,3303.03
3303040.0,255.0,33.0,435.0,295.0,3303.04
3303050.0,240.0,32.0,455.0,278.0,3303.05
3303060.0,260.0,32.0,444.0,283.0,3303.06
3303070.0,267.0,32.0,437.0,281.0,3303.07
3303080.0,255.0,32.0,444.0,258.0,3303.08
3303090.0,260.0,31.0,417.0,262.0,3303.09
3303100.0,250.0,31.0,441.0,259.0,3303.1
3303110.0,255.0,31.0,434.0,278.0,3303.11
3303120.0,258.0,31.0,418.0,276.0,3303.12
3303130.0,254.0,32.0,429.0,269.0,3303.13
3303140.0,263.0,32.0,414.0,275.0,3303.14
3303150.0,248.0,31.0,428.0,262.0,3303.15
3303160.0,256.0,31.0,433.0,282.0,3303.16
3303170.0,264.0,31.0,423.0,299.0,3303.17
3303180.0,253.0,31.0,437.0,293.0,3303.18
3303190.0,259.0,31.0,416.0,289.0,3303.19
3303200.0,250.0,31.0,429.0,276.0,3303.2
3303211.0,260.0,30.0,434.0,292.0,3303.211
3303221.0,265.0,31.0,404.0,296.0,3303.221
3303231.0,256.0,31.0,429.0,287.0,3303.231
3303241.0,252.0,31.0,405.0,287.0,3303.241
3303251.0,253.0,31.0,422.0,293.0,3303.251
3303261.0,249.0,32.0,415.0,289.0,3303.261
3303271.0,251.0,30.0,399.0,286.0,3303.271
3303281.0,240.0,30.0,415.0,271.0,3303.281
3303291.0,247.0,30.0,404.0,278.0,3303.291
3303301.0,234.0,30.0,414.0,270.0,3303.301
3303311.0,229.0,30.0,397.0,268.0,3303.311
3303321.0,236.0,31.0,377.0,269.0,3303.321
3303331.0,230.0,30.0,397.0,261.0,3303.331
3303341.0,248.0,30.0,383.0,271.0,3303.341
3303351.0,241.0,30.0,399.0,269.0,3303.351
3303361.0,241.0,31.0,398.0,272.0,3303.361
3303371.0,254.0,31.0,376.0,270.0,3303.371
3303382.0,248.0,30.0,393.0,258.0,3303.382
3303392.0,254.0,31.0,378.0,269.0,3303.392
3303402.0,260.0,30.0,376.0,272.0,3303.402
3303412.0,254.0,30.0,386.0,259.0,3303.412
3303422.0,260.0,31.0,372.0,264.0,3303.422
3303432.0,242.0,30.0,398.0,263.0,3303.432
3303442.0,244.0,31.0,388.0,275.0,3303.442
3303452.0,257.0,31.0,387.0,282.0,3303.452
3303462.0,249.0,30.0,397.0,270.0,3303.462
3303472.0,259.0,30.0,372.0,272.0,3303.472
3303482.0,251.0,31.0,380.0,261.0,3303.482
3303492.0,257.0,30.0,369.0,268.0,3303.492
3303502.0,270.0,31.0,374.0,275.0,3303.502
3303512.0,258.0,31.0,376.0,260.0,3303.512
3303522.0,262.0,32.0,351.0,260.0,3303.522
3303532.0,247.0,30.0,366.0,250.0,3303.532
3303542.0,253.0,31.0,361.0,265.0,3303.542
3303552.0,254.0,31.0,367.0,267.0,3303.552
3303562.0,264.0,31.0,364.0,265.0,3303.562
3303572.0,272.0,29.0,343.0,268.0,3303.572
3303582.0,266.0,31.0,357.0,265.0,3303.582
3303592.0,271.0,30.0,346.0,266.0,3303.592
3303602.0,264.0,31.0,356.0,271.0,3303.602
3303612.0,274.0,31.0,351.0,261.0,3303.612
3303622.0,276.0,31.0,328.0,258.0,3303.622
3303632.0,266.0,31.0,336.0,255.0,3303.632
3303642.0,268.0,30.0,333.0,261.0,3303.642
3303652.0,271.0,31.0,338.0,273.0,3303.652
3303662.0,270.0,30.0,347.0,272.0,3303.662
3303672.0,275.0,30.0,323.0,266.0,3303.672
3303682.0,264.0,30.0,341.0,258.0,3303.682
3303692.0,269.0,31.0,331.0,265.0,3303.692
3303702.0,278.0,31.0,338.0,274.0,3303.702
3303712.0,267.0,31.0,348.0,271.0,3303.712
3303723.0,283.0,31.0,330.0,274.0,3303.723
3303733.0,269.0,31.0,337.0,263.0,3303.733
3303743.0,269.0,31.0,337.0,273.0,3303.743
3303753.0,272.0,32.0,334.0,283.0,3303.753
3303763.0,256.0,31.0,345.0,272.0,3303.763
3303773.0,267.0,32.0,333.0,282.0,3303.773
3303783.0,261.0,31.0,334.0,272.0,3303.783
3303793.0,266.0,31.0,339.0,284.0,3303.793
3303803.0,271.0,32.0,334.0,287.0,3303.803
3303813.0,256.0,31.0,337.0,278.0,3303.813
3303823.0,259.0,32.0,320.0,271.0,3303.823
3303833.0,249.0,31.0,327.0,271.0,3303.833
3303843.0,253.0,32.0,333.0,283.0,3303.843
3303853.0,256.0,32.0,328.0,283.0,3303.853
3303863.0,241.0,32.0,324.0,271.0,3303.863
3303873.0,247.0,31.0,305.0,265.0,3303.873
3303883.0,246.0,32.0,309.0,268.0,3303.883
3303894.0,262.0,32.0,311.0,277.0,3303.894
3303904.0,273.0,33.0,301.0,284.0,3303.904
3303914.0,260.0,30.0,305.0,270.0,3303.914
3303924.0,261.0,32.0,294.0,271.0,3303.924
3303934.0,263.0,32.0,299.0,275.0,3303.934
3303944.0,258.0,31.0,298.0,274.0,3303.944
3303954.0,268.0,33.0,283.0,267.0,3303.954
3303964.0,258.0,32.0,277.0,251.0,3303.964
3303974.0,261.0,32.0,272.0,258.0,3303.974
3303984.0,251.0,32.0,277.0,257.0,3303.984
3303994.0,254.0,31.0,283.0,264.0,3303.994
3304004.0,263.0,33.0,273.0,274.0,3304.004
3304014.0,242.0,32.0,278.0,260.0,3304.014
3304024.0,260.0,32.0,279.0,269.0,3304.024
3304034.0,262.0,33.0,279.0,271.0,3304.034
3304044.0,262.0,32.0,284.0,275.0,3304.044
3304054.0,268.0,32.0,280.0,273.0,3304.054
3304064.0,254.0,32.0,279.0,261.0,3304.064
3304074.0,261.0,33.0,268.0,259.0,3304.074
3304084.0,263.0,32.0,278.0,265.0,3304.084
3304094.0,263.0,33.0,277.0,262.0,3304.094
3304104.0,271.0,32.0,268.0,262.0,3304.104
3304114.0,255.0,32.0,272.0,256.0,3304.114
3304124.0,259.0,33.0,260.0,258.0,3304.124
3304134.0,270.0,32.0,264.0,264.0,3304.134
3304144.0,262.0,32.0,272.0,270.0,3304.144
3304154.0,271.0,32.0,264.0,273.0,3304.154
3304164.0,251.0,33.0,263.0,260.0,3304.164
3304174.0,257.0,32.0,258.0,263.0,3304.174
3304184.0,259.0,32.0,263.0,270.0,3304.184
3304194.0,255.0,32.0,266.0,269.0,3304.194
3304204.0,263.0,32.0,259.0,270.0,3304.204
3304214.0,245.0,32.0,258.0,260.0,3304.214
3304224.0,251.0,33.0,254.0,262.0,3304.224
3304235.0,256.0,32.0,259.0,270.0,3304.235
3304245.0,248.0,32.0,260.0,270.0,3304.245
3304255.0,257.0,32.0,252.0,266.0,3304.255
3304265.0,239.0,31.0,244.0,256.0,3304.265
3304275.0,245.0,32.0,247.0,264.0,3304.275
3304285.0,252.0,32.0,247.0,267.0,3304.285
3304295.0,241.0,32.0,235.0,258.0,3304.295
3304305.0,251.0,32.0,229.0,251.0,3304.305
3304315.0,235.0,32.0,214.0,239.0,3304.315
3304325.0,243.0,31.0,222.0,248.0,3304.325
3304335.0,254.0,33.0,232.0,257.0,3304.335
3304345.0,242.0,32.0,219.0,250.0,3304.345
3304355.0,254.0,34.0,232.0,257.0,3304.355
3304365.0,240.0,32.0,215.0,247.0,3304.365
3304375.0,244.0,33.0,222.0,251.0,3304.375
3304385.0,255.0,33.0,242.0,257.0,3304.385
3304395.0,239.0,33.0,225.0,252.0,3304.395
3304406.0,248.0,33.0,248.0,251.0,3304.406
3304416.0,237.0,35.0,238.0,246.0,3304.416
3304426.0,241.0,34.0,255.0,256.0,3304.426
3304436.0,251.0,33.0,288.0,263.0,3304.436
3304446.0,235.0,33.0,269.0,251.0,3304.446
3304456.0,246.0,33.0,304.0,256.0,3304.456
3304466.0,235.0,34.0,297.0,254.0,3304.466
3304476.0,241.0,33.0,313.0,264.0,3304.476
3304486.0,249.0,34.0,351.0,260.0,3304.486
3304496.0,233.0,32.0,330.0,254.0,3304.496
3304506.0,241.0,33.0,371.0,251.0,3304.506
3304516.0,233.0,33.0,368.0,244.0,3304.516
3304526.0,234.0,33.0,378.0,253.0,3304.526
3304536.0,244.0,33.0,417.0,257.0,3304.536
3304546.0,229.0,34.0,400.0,247.0,3304.546
3304556.0,235.0,34.0,440.0,248.0,3304.556
3304566.0,231.0,33.0,440.0,247.0,3304.566
3304576.0,232.0,33.0,450.0,242.0,3304.576
3304586.0,241.0,34.0,485.0,247.0,3304.586
3304596.0,227.0,33.0,466.0,241.0,3304.596
3304606.0,233.0,33.0,501.0,244.0,3304.606
3304616.0,230.0,34.0,501.0,242.0,3304.616
3304626.0,230.0,34.0,503.0,247.0,3304.626
3304636.0,238.0,34.0,533.0,257.0,3304.636
3304646.0,225.0,33.0,508.0,249.0,3304.646
3304656.0,229.0,34.0,540.0,254.0,3304.656
3304666.0,223.0,34.0,526.0,252.0,3304.666
3304676.0,229.0,34.0,533.0,262.0,3304.676
3304686.0,237.0,34.0,564.0,262.0,3304.686
3304696.0,221.0,34.0,532.0,252.0,3304.696
3304706.0,228.0,34.0,561.0,254.0,3304.706
3304716.0,221.0,34.0,544.0,248.0,3304.716
3304726.0,226.0,33.0,539.0,255.0,3304.726
3304736.0,232.0,35.0,569.0,257.0,3304.736
3304747.0,217.0,34.0,532.0,249.0,3304.747
3304757.0,223.0,34.0,554.0,250.0,3304.757
3304767.0,225.0,34.0,549.0,254.0,3304.767
3304777.0,222.0,33.0,524.0,252.0,3304.777
3304787.0,226.0,34.0,549.0,249.0,3304.787
3304797.0,216.0,33.0,514.0,248.0,3304.797
3304807.0,221.0,35.0,532.0,252.0,3304.807
3304817.0,226.0,32.0,530.0,256.0,3304.817
3304827.0,221.0,33.0,500.0,256.0,3304.827
3304837.0,229.0,34.0,527.0,253.0,3304.837
3304847.0,215.0,33.0,487.0,246.0,3304.847
3304857.0,219.0,34.0,500.0,251.0,3304.857
3304867.0,226.0,34.0,502.0,262.0,3304.867
3304877.0,223.0,32.0,476.0,260.0,3304.877
3304887.0,226.0,32.0,499.0,257.0,3304.887
3304897.0,215.0,32.0,465.0,248.0,3304.897
3304907.0,220.0,31.0,475.0,252.0,3304.907
3304918.0,226.0,32.0,479.0,257.0,3304.918
3304928.0,220.0,32.0,451.0,255.0,3304.928
3304938.0,222.0,32.0,472.0,251.0,3304.938
3304948.0,214.0,31.0,441.0,246.0,3304.948
3304958.0,222.0,32.0,446.0,258.0,3304.958
3304968.0,226.0,31.0,457.0,257.0,3304.968
3304978.0,219.0,31.0,427.0,252.0,3304.978
3304988.0,220.0,32.0,446.0,250.0,3304.988
3304998.0,213.0,32.0,422.0,246.0,3304.998
3305008.0,218.0,31.0,426.0,253.0,3305.008
3305018.0,224.0,31.0,434.0,261.0,3305.018
3305028.0,219.0,31.0,406.0,255.0,3305.028
3305038.0,219.0,31.0,425.0,253.0,3305.038
3305048.0,212.0,31.0,399.0,246.0,3305.048
3305058.0,220.0,31.0,408.0,259.0,3305.058
3305068.0,225.0,31.0,420.0,259.0,3305.068
3305078.0,220.0,31.0,390.0,253.0,3305.078
3305088.0,221.0,32.0,414.0,253.0,3305.088
3305098.0,213.0,31.0,384.0,247.0,3305.098
3305108.0,220.0,31.0,391.0,255.0,3305.108
3305118.0,224.0,31.0,405.0,260.0,3305.118
3305128.0,218.0,32.0,373.0,254.0,3305.128
3305138.0,220.0,30.0,397.0,255.0,3305.138
3305148.0,212.0,31.0,369.0,247.0,3305.148
3305158.0,221.0,31.0,378.0,256.0,3305.158
3305168.0,224.0,31.0,393.0,257.0,3305.168
3305178.0,221.0,31.0,363.0,253.0,3305.178
3305188.0,219.0,32.0,384.0,253.0,3305.188
3305198.0,213.0,30.0,358.0,246.0,3305.198
3305208.0,221.0,31.0,361.0,257.0,3305.208
3305218.0,223.0,31.0,375.0,255.0,3305.218
3305228.0,221.0,31.0,349.0,249.0,3305.228
3305238.0,219.0,31.0,368.0,247.0,3305.238
3305248.0,214.0,31.0,348.0,244.0,3305.248
3305259.0,223.0,32.0,347.0,253.0,3305.259
3305269.0,224.0,30.0,367.0,252.0,3305.269
3305279.0,220.0,31.0,335.0,247.0,3305.279
3305289.0,222.0,31.0,353.0,248.0,3305.289
3305299.0,222.0,31.0,350.0,251.0,3305.299
3305309.0,226.0,31.0,340.0,253.0,3305.309
3305319.0,226.0,32.0,359.0,256.0,3305.319
3305329.0,222.0,31.0,328.0,249.0,3305.329
3305339.0,221.0,31.0,342.0,252.0,3305.339
3305349.0,222.0,31.0,334.0,251.0,3305.349
3305359.0,229.0,31.0,330.0,258.0,3305.359
3305369.0,227.0,33.0,347.0,257.0,3305.369
3305379.0,224.0,31.0,316.0,249.0,3305.379
3305389.0,224.0,31.0,334.0,252.0,3305.389
3305399.0,225.0,31.0,325.0,252.0,3305.399
3305409.0,232.0,31.0,320.0,257.0,3305.409
3305419.0,230.0,31.0,340.0,254.0,3305.419
3305430.0,228.0,31.0,308.0,248.0,3305.43
3305440.0,228.0,31.0,322.0,250.0,3305.44
3305450.0,233.0,32.0,328.0,258.0,3305.45
3305460.0,235.0,30.0,308.0,256.0,3305.46
3305470.0,229.0,32.0,327.0,252.0,3305.47
3305480.0,231.0,31.0,302.0,248.0,3305.48
3305490.0,230.0,31.0,313.0,250.0,3305.49
3305500.0,236.0,32.0,322.0,257.0,3305.5
3305510.0,238.0,32.0,299.0,255.0,3305.51
3305520.0,234.0,32.0,322.0,253.0,3305.52
3305530.0,233.0,31.0,293.0,245.0,3305.53
3305540.0,233.0,32.0,303.0,251.0,3305.54
3305550.0,239.0,31.0,313.0,256.0,3305.55
3305560.0,240.0,32.0,292.0,254.0,3305.56
3305570.0,236.0,32.0,310.0,253.0,3305.57
3305580.0,234.0,32.0,282.0,244.0,3305.58
3305590.0,236.0,31.0,291.0,250.0,3305.59
3305600.0,238.0,32.0,296.0,253.0,3305.6
3305610.0,243.0,32.0,281.0,253.0,3305.61
3305620.0,236.0,32.0,295.0,251.0,3305.62
3305630.0,235.0,32.0,268.0,243.0,3305.63
3305640.0,238.0,33.0,276.0,250.0,3305.64
3305650.0,240.0,32.0,284.0,253.0,3305.65
3305660.0,243.0,31.0,266.0,252.0,3305.66
3305670.0,239.0,32.0,282.0,250.0,3305.67
3305680.0,237.0,31.0,257.0,244.0,3305.68
3305690.0,237.0,32.0,267.0,249.0,3305.69
3305700.0,243.0,32.0,279.0,258.0,3305.7
3305710.0,243.0,33.0,260.0,255.0,3305.71
3305720.0,239.0,32.0,276.0,251.0,3305.72
3305730.0,239.0,31.0,252.0,244.0,3305.73
3305740.0,239.0,31.0,263.0,249.0,3305.74
3305750.0,244.0,32.0,272.0,256.0,3305.75
3305760.0,245.0,32.0,253.0,252.0,3305.76
3305771.0,239.0,33.0,268.0,251.0,3305.771
3305781.0,238.0,32.0,248.0,244.0,3305.781
3305791.0,243.0,32.0,257.0,255.0,3305.791
3305801.0,245.0,33.0,273.0,256.0,3305.801
3305811.0,244.0,31.0,246.0,250.0,3305.811
3305821.0,240.0,32.0,264.0,252.0,3305.821
3305831.0,240.0,33.0,248.0,247.0,3305.831
3305841.0,246.0,32.0,256.0,258.0,3305.841
3305851.0,245.0,33.0,272.0,257.0,3305.851
3305861.0,247.0,32.0,249.0,252.0,3305.861
3305871.0,241.0,33.0,262.0,251.0,3305.871
3305881.0,241.0,33.0,248.0,247.0,3305.881
3305891.0,247.0,32.0,253.0,257.0,3305.891
3305901.0,246.0,34.0,266.0,258.0,3305.901
3305911.0,247.0,32.0,244.0,253.0,3305.911
3305921.0,241.0,32.0,255.0,252.0,3305.921
3305931.0,243.0,32.0,246.0,250.0,3305.931
3305942.0,247.0,32.0,246.0,258.0,3305.942
3305952.0,244.0,32.0,261.0,255.0,3305.952
3305962.0,244.0,33.0,235.0,251.0,3305.962
3305972.0,240.0,32.0,244.0,252.0,3305.972
3305982.0,244.0,33.0,249.0,258.0,3305.982
3305992.0,248.0,32.0,243.0,258.0,3305.992
3306002.0,243.0,32.0,252.0,256.0,3306.002
3306012.0,242.0,32.0,228.0,248.0,3306.012
3306022.0,239.0,33.0,235.0,251.0,3306.022
3306032.0,241.0,32.0,235.0,252.0,3306.032
3306042.0,245.0,32.0,233.0,256.0,3306.042
3306052.0,241.0,33.0,243.0,254.0,3306.052
3306062.0,241.0,31.0,221.0,248.0,3306.062
3306072.0,238.0,32.0,231.0,252.0,3306.072
3306082.0,241.0,32.0,231.0,254.0,3306.082
3306092.0,245.0,33.0,227.0,258.0,3306.092
3306102.0,240.0,32.0,236.0,254.0,3306.102
3306112.0,240.0,32.0,216.0,250.0,3306.112
3306122.0,238.0,32.0,225.0,251.0,3306.122
3306132.0,240.0,32.0,226.0,255.0,3306.132
3306142.0,244.0,32.0,221.0,256.0,3306.142
3306152.0,239.0,33.0,227.0,255.0,3306.152
3306162.0,239.0,32.0,210.0,250.0,3306.162
3306172.0,237.0,32.0,217.0,251.0,3306.172
3306182.0,241.0,32.0,222.0,257.0,3306.182
3306192.0,243.0,31.0,215.0,257.0,3306.192
3306202.0,239.0,33.0,224.0,255.0,3306.202
3306212.0,238.0,32.0,205.0,247.0,3306.212
3306222.0,236.0,33.0,209.0,249.0,3306.222
3306232.0,241.0,33.0,217.0,255.0,3306.232
3306242.0,243.0,32.0,213.0,255.0,3306.242
3306252.0,239.0,33.0,220.0,253.0,3306.252
3306262.0,238.0,33.0,202.0,246.0,3306.262
3306272.0,236.0,32.0,207.0,248.0,3306.272
3306283.0,241.0,33.0,216.0,255.0,3306.283
3306293.0,241.0,32.0,209.0,252.0,3306.293
3306303.0,235.0,33.0,211.0,250.0,3306.303
3306313.0,233.0,32.0,200.0,243.0,3306.313
3306323.0,237.0,33.0,210.0,252.0,3306.323
3306333.0,240.0,32.0,217.0,255.0,3306.333
3306343.0,240.0,33.0,211.0,253.0,3306.343
3306353.0,235.0,33.0,212.0,251.0,3306.353
3306363.0,231.0,32.0,203.0,244.0,3306.363
3306373.0,233.0,33.0,209.0,250.0,3306.373
3306383.0,240.0,33.0,218.0,256.0,3306.383
3306393.0,238.0,32.0,213.0,252.0,3306.393
3306403.0,234.0,32.0,212.0,251.0,3306.403
3306413.0,232.0,33.0,207.0,244.0,3306.413
3306423.0,234.0,32.0,214.0,251.0,3306.423
3306433.0,238.0,33.0,221.0,256.0,3306.433
3306443.0,237.0,32.0,216.0,250.0,3306.443
3306454.0,231.0,32.0,209.0,247.0,3306.454
3306464.0,228.0,32.0,206.0,242.0,3306.464
3306474.0,236.0,33.0,216.0,253.0,3306.474
3306484.0,235.0,32.0,217.0,254.0,3306.484
3306494.0,232.0,32.0,213.0,245.0,3306.494
3306504.0,231.0,33.0,215.0,249.0,3306.504
3306514.0,228.0,33.0,212.0,246.0,3306.514
3306524.0,234.0,32.0,223.0,253.0,3306.524
3306534.0,233.0,33.0,219.0,253.0,3306.534
3306544.0,232.0,32.0,221.0,248.0,3306.544
3306554.0,230.0,32.0,218.0,250.0,3306.554
3306564.0,228.0,32.0,220.0,247.0,3306.564
3306574.0,236.0,32.0,231.0,255.0,3306.574
3306584.0,234.0,33.0,228.0,256.0,3306.584
3306594.0,230.0,32.0,227.0,249.0,3306.594
3306604.0,228.0,33.0,224.0,250.0,3306.604
3306614.0,228.0,32.0,227.0,250.0,3306.614
3306624.0,232.0,32.0,231.0,254.0,3306.624
3306634.0,233.0,33.0,231.0,254.0,3306.634
3306644.0,228.0,32.0,227.0,246.0,3306.644
3306654.0,226.0,32.0,224.0,247.0,3306.654
3306664.0,227.0,33.0,227.0,250.0,3306.664
3306674.0,230.0,33.0,234.0,253.0,3306.674
3306684.0,232.0,32.0,230.0,254.0,3306.684
3306694.0,227.0,32.0,228.0,246.0,3306.694
3306704.0,227.0,32.0,225.0,247.0,3306.704
3306714.0,223.0,32.0,224.0,244.0,3306.714
3306724.0,231.0,32.0,234.0,253.0,3306.724
3306734.0,231.0,34.0,231.0,254.0,3306.734
3306744.0,225.0,33.0,229.0,246.0,3306.744
3306754.0,225.0,33.0,226.0,248.0,3306.754
3306764.0,224.0,32.0,227.0,246.0,3306.764
3306774.0,230.0,32.0,232.0,254.0,3306.774
3306784.0,229.0,32.0,227.0,251.0,3306.784
3306795.0,224.0,33.0,227.0,245.0,3306.795
3306805.0,224.0,32.0,225.0,246.0,3306.805
3306815.0,228.0,32.0,232.0,252.0,3306.815
3306825.0,229.0,32.0,236.0,253.0,3306.825
3306835.0,227.0,32.0,229.0,250.0,3306.835
3306845.0,223.0,32.0,232.0,245.0,3306.845
3306855.0,224.0,32.0,231.0,248.0,3306.855
3306865.0,228.0,34.0,238.0,255.0,3306.865
3306875.0,229.0,32.0,241.0,254.0,3306.875
3306885.0,227.0,33.0,234.0,253.0,3306.885
3306895.0,222.0,32.0,233.0,244.0,3306.895
3306905.0,222.0,33.0,230.0,248.0,3306.905
3306915.0,229.0,33.0,238.0,254.0,3306.915
3306925.0,228.0,33.0,239.0,255.0,3306.925
3306935.0,226.0,32.0,233.0,251.0,3306.935
3306945.0,220.0,32.0,231.0,245.0,3306.945
3306955.0,223.0,33.0,232.0,250.0,3306.955
3306966.0,229.0,33.0,238.0,258.0,3306.966
3306976.0,226.0,32.0,238.0,254.0,3306.976
3306986.0,224.0,33.0,232.0,252.0,3306.986
3306996.0,218.0,32.0,231.0,246.0,3306.996
3307006.0,226.0,32.0,240.0,256.0,3307.006
3307016.0,228.0,32.0,241.0,257.0,3307.016
3307026.0,226.0,31.0,241.0,253.0,3307.026
3307036.0,224.0,33.0,234.0,252.0,3307.036
3307046.0,218.0,32.0,233.0,247.0,3307.046
3307056.0,223.0,33.0,235.0,254.0,3307.056
3307066.0,228.0,32.0,241.0,256.0,3307.066
3307076.0,224.0,33.0,241.0,254.0,3307.076
3307086.0,224.0,32.0,237.0,253.0,3307.086
3307096.0,217.0,32.0,234.0,247.0,3307.096
3307106.0,222.0,32.0,237.0,255.0,3307.106
3307116.0,227.0,33.0,240.0,260.0,3307.116
3307126.0,223.0,32.0,240.0,255.0,3307.126
3307136.0,223.0,32.0,233.0,255.0,3307.136
3307146.0,217.0,32.0,231.0,247.0,3307.146
3307156.0,224.0,31.0,238.0,257.0,3307.156
3307166.0,228.0,33.0,239.0,259.0,3307.166
3307176.0,223.0,32.0,237.0,255.0,3307.176
3307186.0,223.0,32.0,232.0,254.0,3307.186
3307196.0,218.0,32.0,229.0,248.0,3307.196
3307206.0,225.0,33.0,238.0,259.0,3307.206
3307216.0,229.0,33.0,238.0,258.0,3307.216
3307226.0,226.0,32.0,238.0,256.0,3307.226
3307236.0,223.0,32.0,230.0,252.0,3307.236
3307246.0,217.0,34.0,227.0,250.0,3307.246
3307256.0,225.0,33.0,237.0,258.0,3307.256
3307266.0,228.0,33.0,236.0,259.0,3307.266
3307276.0,225.0,32.0,238.0,256.0,3307.276
3307286.0,223.0,33.0,230.0,254.0,3307.286
3307296.0,218.0,32.0,231.0,251.0,3307.296
3307307.0,227.0,33.0,240.0,263.0,3307.307
3307317.0,227.0,34.0,237.0,259.0,3307.317
3307327.0,222.0,32.0,238.0,254.0,3307.327
3307337.0,221.0,33.0,234.0,254.0,3307.337
3307347.0,224.0,33.0,241.0,258.0,3307.347
3307357.0,226.0,33.0,246.0,262.0,3307.357
3307367.0,227.0,33.0,238.0,258.0,3307.367
3307377.0,221.0,33.0,240.0,253.0,3307.377
3307387.0,221.0,32.0,234.0,253.0,3307.387
3307397.0,219.0,33.0,237.0,255.0,3307.397
3307407.0,226.0,33.0,247.0,262.0,3307.407
3307417.0,226.0,33.0,239.0,258.0,3307.417
3307427.0,218.0,33.0,243.0,253.0,3307.427
3307437.0,221.0,33.0,240.0,256.0,3307.437
3307447.0,219.0,33.0,244.0,256.0,3307.447
3307457.0,225.0,32.0,253.0,263.0,3307.457
3307467.0,224.0,33.0,245.0,258.0,3307.467
3307478.0,218.0,33.0,248.0,253.0,3307.478
3307488.0,219.0,32.0,243.0,254.0,3307.488
3307498.0,225.0,33.0,250.0,263.0,3307.498
3307508.0,224.0,33.0,255.0,261.0,3307.508
3307518.0,222.0,32.0,246.0,257.0,3307.518
3307528.0,217.0,32.0,252.0,254.0,3307.528
3307538.0,220.0,33.0,251.0,256.0,3307.538
3307548.0,224.0,32.0,258.0,262.0,3307.548
3307558.0,224.0,32.0,263.0,260.0,3307.558
3307568.0,223.0,34.0,253.0,258.0,3307.568
3307578.0,217.0,32.0,258.0,251.0,3307.578
3307588.0,219.0,32.0,256.0,257.0,3307.588
3307598.0,225.0,32.0,263.0,263.0,3307.598
3307608.0,224.0,32.0,267.0,261.0,3307.608
3307618.0,221.0,33.0,254.0,256.0,3307.618
3307628.0,215.0,32.0,259.0,250.0,3307.628
3307638.0,219.0,32.0,258.0,256.0,3307.638
3307648.0,223.0,33.0,261.0,259.0,3307.648
3307658.0,224.0,32.0,267.0,260.0,3307.658
3307668.0,222.0,33.0,255.0,255.0,3307.668
3307678.0,215.0,32.0,258.0,249.0,3307.678
3307688.0,221.0,32.0,260.0,257.0,3307.688
3307698.0,223.0,33.0,262.0,259.0,3307.698
3307708.0,223.0,32.0,265.0,258.0,3307.708
3307718.0,220.0,32.0,253.0,254.0,3307.718
3307728.0,214.0,32.0,252.0,249.0,3307.728
3307738.0,218.0,32.0,250.0,255.0,3307.738
3307748.0,224.0,32.0,257.0,260.0,3307.748
3307758.0,224.0,32.0,259.0,260.0,3307.758
3307768.0,221.0,32.0,249.0,254.0,3307.768
3307778.0,217.0,32.0,252.0,250.0,3307.778
3307788.0,219.0,32.0,249.0,253.0,3307.788
3307798.0,225.0,33.0,254.0,258.0,3307.798
3307808.0,223.0,32.0,256.0,257.0,3307.808
3307819.0,222.0,33.0,246.0,254.0,3307.819
3307829.0,216.0,32.0,246.0,250.0,3307.829
3307839.0,223.0,32.0,253.0,259.0,3307.839
3307849.0,225.0,32.0,249.0,259.0,3307.849
3307859.0,221.0,31.0,251.0,253.0,3307.859
3307869.0,222.0,32.0,244.0,254.0,3307.869
3307879.0,216.0,32.0,246.0,249.0,3307.879
3307889.0,224.0,33.0,254.0,260.0,3307.889
3307899.0,226.0,32.0,250.0,260.0,3307.899
3307909.0,223.0,32.0,254.0,256.0,3307.909
3307919.0,223.0,32.0,246.0,253.0,3307.919
3307929.0,217.0,31.0,245.0,249.0,3307.929
3307939.0,226.0,32.0,255.0,258.0,3307.939
3307949.0,227.0,33.0,252.0,259.0,3307.949
3307959.0,223.0,32.0,255.0,253.0,3307.959
3307969.0,222.0,32.0,247.0,252.0,3307.969
3307979.0,217.0,32.0,249.0,251.0,3307.979
3307990.0,226.0,31.0,256.0,258.0,3307.99
3308000.0,226.0,32.0,246.0,254.0,3308.0
3308010.0,219.0,31.0,250.0,249.0,3308.01
3308020.0,220.0,32.0,246.0,250.0,3308.02
3308030.0,224.0,32.0,254.0,255.0,3308.03
3308040.0,225.0,32.0,259.0,258.0,3308.04
3308050.0,226.0,32.0,249.0,255.0,3308.05
3308060.0,218.0,32.0,252.0,248.0,3308.06
3308070.0,219.0,32.0,245.0,249.0,3308.07
3308080.0,220.0,32.0,250.0,253.0,3308.08
3308090.0,225.0,32.0,257.0,258.0,3308.09
3308100.0,223.0,32.0,247.0,255.0,3308.1
3308110.0,217.0,32.0,252.0,248.0,3308.11
3308120.0,219.0,32.0,247.0,251.0,3308.12
3308130.0,220.0,32.0,252.0,253.0,3308.13
3308140.0,225.0,32.0,259.0,257.0,3308.14
3308150.0,223.0,33.0,247.0,252.0,3308.15
3308160.0,219.0,30.0,254.0,248.0,3308.16
3308170.0,219.0,32.0,246.0,248.0,3308.17
3308180.0,221.0,32.0,252.0,252.0,3308.18
3308190.0,224.0,32.0,256.0,254.0,3308.19
3308200.0,222.0,32.0,247.0,250.0,3308.2
3308210.0,218.0,32.0,251.0,247.0,3308.21
3308220.0,219.0,32.0,246.0,248.0,3308.22
3308230.0,222.0,32.0,253.0,254.0,3308.23
3308240.0,225.0,32.0,256.0,254.0,3308.24
3308250.0,225.0,32.0,247.0,253.0,3308.25
3308260.0,218.0,31.0,250.0,247.0,3308.26
3308270.0,219.0,32.0,245.0,249.0,3308.27
3308280.0,223.0,32.0,252.0,253.0,3308.28
3308290.0,224.0,32.0,256.0,255.0,3308.29
3308300.0,224.0,32.0,246.0,251.0,3308.3
3308310.0,217.0,31.0,250.0,245.0,3308.31
3308320.0,218.0,32.0,242.0,247.0,3308.32
3308331.0,224.0,32.0,248.0,254.0,3308.331
3308341.0,223.0,32.0,252.0,252.0,3308.341
3308351.0,221.0,32.0,242.0,250.0,3308.351
3308361.0,213.0,32.0,243.0,243.0,3308.361
3308371.0,222.0,32.0,250.0,252.0,3308.371
3308381.0,224.0,33.0,250.0,255.0,3308.381
3308391.0,223.0,32.0,255.0,253.0,3308.391
3308401.0,221.0,33.0,245.0,252.0,3308.401
3308411.0,214.0,32.0,249.0,245.0,3308.411
3308421.0,219.0,32.0,250.0,252.0,3308.421
3308431.0,225.0,32.0,257.0,257.0,3308.431
3308441.0,223.0,31.0,261.0,253.0,3308.441
3308451.0,221.0,33.0,250.0,250.0,3308.451
3308461.0,215.0,32.0,256.0,244.0,3308.461
3308471.0,219.0,32.0,255.0,250.0,3308.471
3308481.0,226.0,32.0,262.0,256.0,3308.481
3308491.0,221.0,32.0,265.0,251.0,3308.491
3308502.0,222.0,33.0,255.0,250.0,3308.502
3308512.0,215.0,32.0,258.0,247.0,3308.512
3308522.0,223.0,32.0,266.0,256.0,3308.522
3308532.0,225.0,34.0,258.0,257.0,3308.532
3308542.0,218.0,32.0,263.0,249.0,3308.542
3308552.0,221.0,32.0,256.0,253.0,3308.552
3308562.0,216.0,32.0,259.0,249.0,3308.562
3308572.0,222.0,31.0,264.0,258.0,3308.572
3308582.0,224.0,32.0,256.0,256.0,3308.582
3308592.0,218.0,33.0,262.0,253.0,3308.592
3308602.0,219.0,32.0,254.0,252.0,3308.602
3308612.0,216.0,32.0,256.0,251.0,3308.612
3308622.0,223.0,32.0,263.0,259.0,3308.622
3308632.0,224.0,32.0,256.0,257.0,3308.632
3308642.0,218.0,32.0,255.0,251.0,3308.642
3308652.0,218.0,33.0,248.0,250.0,3308.652
3308662.0,217.0,32.0,251.0,250.0,3308.662
3308672.0,221.0,32.0,254.0,255.0,3308.672
3308682.0,224.0,32.0,250.0,257.0,3308.682
3308692.0,218.0,32.0,253.0,250.0,3308.692
3308702.0,218.0,32.0,245.0,250.0,3308.702
3308712.0,218.0,32.0,250.0,251.0,3308.712
3308722.0,221.0,33.0,255.0,257.0,3308.722
3308732.0,223.0,32.0,249.0,256.0,3308.732
3308742.0,216.0,32.0,249.0,248.0,3308.742
3308752.0,217.0,32.0,243.0,250.0,3308.752
3308762.0,213.0,31.0,244.0,247.0,3308.762
3308772.0,220.0,32.0,251.0,256.0,3308.772
3308782.0,223.0,33.0,246.0,256.0,3308.782
3308792.0,215.0,32.0,246.0,248.0,3308.792
3308802.0,218.0,32.0,240.0,250.0,3308.802
3308812.0,214.0,32.0,241.0,249.0,3308.812
3308822.0,223.0,31.0,252.0,257.0,3308.822
3308832.0,224.0,32.0,242.0,254.0,3308.832
3308843.0,216.0,32.0,243.0,246.0,3308.843
3308853.0,217.0,33.0,239.0,250.0,3308.853
3308863.0,221.0,32.0,247.0,254.0,3308.863
3308873.0,221.0,32.0,251.0,254.0,3308.873
3308883.0,221.0,32.0,240.0,250.0,3308.883
3308893.0,216.0,31.0,243.0,246.0,3308.893
3308903.0,217.0,32.0,239.0,248.0,3308.903
3308913.0,222.0,32.0,247.0,255.0,3308.913
3308923.0,222.0,32.0,251.0,253.0,3308.923
3308933.0,223.0,32.0,243.0,251.0,3308.933
3308943.0,215.0,32.0,246.0,245.0,3308.943
3308953.0,219.0,31.0,242.0,248.0,3308.953
3308963.0,222.0,32.0,249.0,254.0,3308.963
3308973.0,222.0,32.0,250.0,253.0,3308.973
3308983.0,222.0,32.0,241.0,251.0,3308.983
3308993.0,214.0,32.0,242.0,244.0,3308.993
3309003.0,217.0,32.0,240.0,250.0,3309.003
3309014.0,223.0,33.0,247.0,255.0,3309.014
3309024.0,220.0,31.0,246.0,253.0,3309.024
3309034.0,220.0,32.0,238.0,251.0,3309.034
3309044.0,213.0,32.0,235.0,245.0,3309.044
3309054.0,221.0,32.0,243.0,254.0,3309.054
3309064.0,225.0,32.0,243.0,256.0,3309.064
3309074.0,221.0,32.0,244.0,253.0,3309.074
3309084.0,220.0,31.0,236.0,251.0,3309.084
3309094.0,214.0,31.0,237.0,247.0,3309.094
3309104.0,219.0,32.0,239.0,253.0,3309.104
3309114.0,225.0,33.0,243.0,257.0,3309.114
3309124.0,220.0,32.0,241.0,254.0,3309.124
3309134.0,219.0,32.0,234.0,250.0,3309.134
3309144.0,214.0,31.0,234.0,243.0,3309.144
3309154.0,218.0,32.0,238.0,253.0,3309.154
3309164.0,225.0,32.0,241.0,257.0,3309.164
3309174.0,221.0,32.0,241.0,252.0,3309.174
3309184.0,222.0,32.0,234.0,252.0,3309.184
3309194.0,213.0,32.0,234.0,245.0,3309.194
3309204.0,221.0,32.0,243.0,255.0,3309.204
3309214.0,225.0,33.0,243.0,259.0,3309.214
3309224.0,220.0,32.0,243.0,253.0,3309.224
3309234.0,221.0,32.0,237.0,253.0,3309.234
3309244.0,213.0,32.0,236.0,246.0,3309.244
3309254.0,222.0,32.0,244.0,256.0,3309.254
3309264.0,226.0,33.0,244.0,258.0,3309.264
3309274.0,223.0,31.0,248.0,255.0,3309.274
3309284.0,220.0,33.0,240.0,253.0,3309.284
3309294.0,214.0,32.0,239.0,247.0,3309.294
3309304.0,222.0,33.0,247.0,257.0,3309.304
3309314.0,225.0,32.0,247.0,258.0,3309.314
3309324.0,221.0,32.0,248.0,254.0,3309.324
3309334.0,221.0,33.0,241.0,252.0,3309.334
3309344.0,214.0,32.0,240.0,249.0,3309.344
3309355.0,223.0,32.0,249.0,258.0,3309.355
3309365.0,226.0,33.0,246.0,259.0,3309.365
3309375.0,217.0,32.0,246.0,251.0,3309.375
3309385.0,218.0,32.0,240.0,251.0,3309.385
3309395.0,221.0,32.0,246.0,254.0,3309.395
3309405.0,224.0,33.0,249.0,257.0,3309.405
3309415.0,224.0,33.0,243.0,255.0,3309.415
3309425.0,217.0,32.0,246.0,249.0,3309.425
3309435.0,219.0,33.0,240.0,249.0,3309.435
3309445.0,216.0,32.0,243.0,248.0,3309.445
3309455.0,223.0,32.0,252.0,256.0,3309.455
3309465.0,226.0,33.0,246.0,253.0,3309.465
3309475.0,216.0,32.0,247.0,248.0,3309.475
3309485.0,219.0,32.0,243.0,251.0,3309.485
3309495.0,217.0,33.0,246.0,251.0,3309.495
3309505.0,223.0,32.0,254.0,258.0,3309.505
3309515.0,224.0,33.0,247.0,255.0,3309.515
3309526.0,217.0,31.0,249.0,249.0,3309.526
3309536.0,218.0,33.0,243.0,252.0,3309.536
3309546.0,222.0,33.0,250.0,257.0,3309.546
3309556.0,222.0,32.0,253.0,257.0,3309.556
3309566.0,220.0,33.0,242.0,252.0,3309.566
3309576.0,215.0,32.0,244.0,247.0,3309.576
3309586.0,217.0,33.0,244.0,250.0,3309.586
3309596.0,223.0,33.0,250.0,257.0,3309.596
3309606.0,221.0,32.0,252.0,255.0,3309.606
3309616.0,222.0,33.0,243.0,253.0,3309.616
3309626.0,214.0,33.0,243.0,246.0,3309.626
3309636.0,219.0,32.0,244.0,251.0,3309.636
3309646.0,224.0,33.0,249.0,257.0,3309.646
3309656.0,224.0,32.0,253.0,256.0,3309.656
3309666.0,221.0,33.0,240.0,252.0,3309.666
3309676.0,213.0,32.0,241.0,246.0,3309.676
3309686.0,219.0,32.0,243.0,254.0,3309.686
3309696.0,221.0,32.0,246.0,256.0,3309.696
3309706.0,223.0,32.0,250.0,257.0,3309.706
3309716.0,221.0,32.0,241.0,253.0,3309.716
3309726.0,214.0,33.0,240.0,245.0,3309.726
3309736.0,220.0,33.0,244.0,254.0,3309.736
3309746.0,223.0,32.0,246.0,256.0,3309.746
3309756.0,223.0,33.0,250.0,255.0,3309.756
3309766.0,222.0,32.0,240.0,252.0,3309.766
3309776.0,213.0,32.0,239.0,244.0,3309.776
3309786.0,218.0,33.0,240.0,251.0,3309.786
3309796.0,222.0,33.0,246.0,256.0,3309.796
3309806.0,222.0,32.0,248.0,255.0,3309.806
3309816.0,221.0,33.0,238.0,253.0,3309.816
3309826.0,216.0,32.0,240.0,245.0,3309.826
3309836.0,219.0,33.0,239.0,251.0,3309.836
3309846.0,224.0,33.0,245.0,257.0,3309.846
3309856.0,222.0,33.0,246.0,255.0,3309.856
3309867.0,221.0,33.0,237.0,251.0,3309.867
3309877.0,214.0,33.0,236.0,247.0,3309.877
3309887.0,224.0,33.0,245.0,256.0,3309.887
3309897.0,225.0,33.0,241.0,256.0,3309.897
3309907.0,218.0,33.0,243.0,251.0,3309.907
3309917.0,220.0,33.0,237.0,251.0,3309.917
3309927.0,213.0,32.0,238.0,247.0,3309.927
3309937.0,223.0,32.0,249.0,259.0,3309.937
3309947.0,225.0,33.0,243.0,257.0,3309.947
3309957.0,220.0,32.0,248.0,253.0,3309.957
3309967.0,220.0,33.0,239.0,252.0,3309.967
3309977.0,216.0,33.0,241.0,249.0,3309.977
3309987.0,224.0,32.0,250.0,258.0,3309.987
3309997.0,225.0,33.0,247.0,257.0,3309.997
3310007.0,219.0,32.0,248.0,252.0,3310.007
3310017.0,219.0,32.0,240.0,250.0,3310.017
3310027.0,213.0,32.0,242.0,247.0,3310.027
3310038.0,221.0,33.0,252.0,257.0,3310.038
3310048.0,225.0,32.0,247.0,255.0,3310.048
3310058.0,215.0,32.0,247.0,248.0,3310.058
3310068.0,218.0,32.0,242.0,249.0,3310.068
3310078.0,220.0,32.0,249.0,255.0,3310.078
3310088.0,222.0,33.0,252.0,256.0,3310.088
3310098.0,224.0,33.0,244.0,253.0,3310.098
3310108.0,215.0,31.0,246.0,246.0,3310.108
3310118.0,216.0,33.0,240.0,247.0,3310.118
3310128.0,217.0,32.0,242.0,248.0,3310.128
3310138.0,222.0,33.0,249.0,254.0,3310.138
3310148.0,223.0,32.0,240.0,252.0,3310.148
3310158.0,214.0,32.0,240.0,244.0,3310.158
3310168.0,219.0,32.0,239.0,248.0,3310.168
3310178.0,218.0,32.0,239.0,250.0,3310.178
3310188.0,223.0,32.0,245.0,253.0,3310.188
3310198.0,222.0,32.0,239.0,252.0,3310.198
3310208.0,217.0,31.0,239.0,247.0,3310.208
3310218.0,218.0,32.0,234.0,248.0,3310.218
3310228.0,220.0,32.0,239.0,251.0,3310.228
3310238.0,223.0,31.0,242.0,253.0,3310.238
3310248.0,221.0,33.0,234.0,250.0,3310.248
3310258.0,216.0,32.0,235.0,244.0,3310.258
3310268.0,218.0,33.0,231.0,247.0,3310.268
3310278.0,221.0,32.0,237.0,250.0,3310.278
3310288.0,223.0,32.0,238.0,251.0,3310.288
3310298.0,225.0,33.0,235.0,251.0,3310.298
3310308.0,216.0,31.0,233.0,244.0,3310.308
3310318.0,218.0,32.0,230.0,245.0,3310.318
3310328.0,221.0,33.0,237.0,252.0,3310.328
3310338.0,223.0,32.0,242.0,254.0,3310.338
3310348.0,225.0,32.0,234.0,252.0,3310.348
3310358.0,216.0,32.0,236.0,244.0,3310.358
3310368.0,220.0,31.0,234.0,246.0,3310.368
3310379.0,224.0,32.0,242.0,253.0,3310.379
3310389.0,223.0,33.0,244.0,252.0,3310.389
3310399.0,222.0,33.0,236.0,250.0,3310.399
3310409.0,215.0,31.0,235.0,240.0,3310.409
3310419.0,221.0,32.0,242.0,249.0,3310.419
3310429.0,225.0,32.0,246.0,253.0,3310.429
3310439.0,222.0,32.0,247.0,250.0,3310.439
3310449.0,221.0,32.0,240.0,247.0,3310.449
3310459.0,213.0,33.0,239.0,240.0,3310.459
3310469.0,219.0,32.0,241.0,245.0,3310.469
3310479.0,225.0,32.0,248.0,252.0,3310.479
3310489.0,223.0,31.0,251.0,248.0,3310.489
3310499.0,222.0,31.0,242.0,247.0,3310.499
3310509.0,215.0,32.0,243.0,240.0,3310.509
3310519.0,219.0,32.0,243.0,246.0,3310.519
3310529.0,224.0,32.0,249.0,252.0,3310.529
3310539.0,221.0,32.0,250.0,247.0,3310.539
3310550.0,221.0,32.0,241.0,247.0,3310.55
3310560.0,215.0,31.0,241.0,241.0,3310.56
3310570.0,223.0,32.0,250.0,252.0,3310.57
3310580.0,226.0,33.0,244.0,255.0,3310.58
3310590.0,218.0,32.0,245.0,246.0,3310.59
3310600.0,221.0,32.0,240.0,249.0,3310.6
3310610.0,214.0,32.0,240.0,244.0,3310.61
3310620.0,224.0,32.0,250.0,253.0,3310.62
3310630.0,224.0,33.0,242.0,253.0,3310.63
3310640.0,220.0,31.0,246.0,248.0,3310.64
3310650.0,219.0,33.0,239.0,249.0,3310.65
