time (ms),signal 0,signal 1,signal 2,signal 3,time (sec)
3318484.0,211.0,32.0,249.0,239.0,3318.484
3318494.0,216.0,33.0,247.0,243.0,3318.494
3318504.0,220.0,33.0,255.0,248.0,3318.504
3318514.0,221.0,32.0,257.0,248.0,3318.514
3318524.0,218.0,33.0,247.0,245.0,3318.524
3318534.0,214.0,33.0,251.0,241.0,3318.534
3318544.0,216.0,32.0,245.0,242.0,3318.544
3318554.0,220.0,33.0,252.0,249.0,3318.554
3318564.0,222.0,32.0,256.0,247.0,3318.564
3318574.0,222.0,33.0,246.0,247.0,3318.574
3318584.0,215.0,32.0,248.0,240.0,3318.584
3318594.0,216.0,33.0,245.0,245.0,3318.594
3318604.0,222.0,33.0,251.0,250.0,3318.604
3318614.0,222.0,32.0,254.0,250.0,3318.614
3318624.0,221.0,33.0,245.0,248.0,3318.624
3318634.0,215.0,31.0,245.0,241.0,3318.634
3318644.0,217.0,33.0,242.0,246.0,3318.644
3318654.0,223.0,33.0,250.0,254.0,3318.654
3318664.0,222.0,33.0,252.0,252.0,3318.664
3318674.0,221.0,32.0,240.0,246.0,3318.674
3318684.0,213.0,32.0,240.0,237.0,3318.684
3318694.0,218.0,32.0,242.0,243.0,3318.694
3318704.0,221.0,33.0,244.0,248.0,3318.704
3318714.0,222.0,32.0,249.0,249.0,3318.714
3318724.0,221.0,33.0,239.0,247.0,3318.724
3318734.0,214.0,32.0,240.0,239.0,3318.734
3318744.0,218.0,32.0,236.0,243.0,3318.744
3318754.0,221.0,32.0,244.0,249.0,3318.754
3318764.0,223.0,33.0,246.0,249.0,3318.764
3318774.0,221.0,33.0,238.0,245.0,3318.774
3318784.0,215.0,32.0,241.0,239.0,3318.784
3318794.0,217.0,33.0,238.0,243.0,3318.794
3318804.0,223.0,32.0,246.0,249.0,3318.804
3318814.0,221.0,32.0,249.0,248.0,3318.814
3318824.0,221.0,33.0,241.0,246.0,3318.824
3318834.0,215.0,31.0,244.0,239.0,3318.834
3318844.0,218.0,32.0,242.0,244.0,3318.844
3318854.0,224.0,33.0,249.0,252.0,3318.854
3318864.0,222.0,32.0,251.0,248.0,3318.864
3318874.0,223.0,33.0,243.0,247.0,3318.874
3318884.0,215.0,32.0,244.0,240.0,3318.884
3318894.0,218.0,33.0,242.0,246.0,3318.894
3318904.0,224.0,33.0,248.0,254.0,3318.904
3318914.0,222.0,33.0,251.0,254.0,3318.914
3318924.0,221.0,33.0,242.0,250.0,3318.924
3318934.0,214.0,32.0,240.0,243.0,3318.934
3318944.0,217.0,33.0,241.0,250.0,3318.944
3318955.0,225.0,33.0,248.0,256.0,3318.955
3318965.0,219.0,32.0,246.0,252.0,3318.965
3318975.0,219.0,33.0,238.0,250.0,3318.975
3318985.0,213.0,33.0,237.0,246.0,3318.985
3318995.0,222.0,32.0,246.0,253.0,3318.995
3319005.0,224.0,33.0,243.0,254.0,3319.005
3319015.0,219.0,32.0,243.0,248.0,3319.015
3319025.0,219.0,32.0,235.0,248.0,3319.025
3319035.0,214.0,32.0,237.0,244.0,3319.035
3319045.0,219.0,33.0,240.0,250.0,3319.045
3319055.0,223.0,33.0,243.0,253.0,3319.055
3319065.0,218.0,32.0,245.0,247.0,3319.065
3319075.0,218.0,33.0,237.0,246.0,3319.075
3319085.0,213.0,31.0,238.0,241.0,3319.085
3319095.0,219.0,32.0,246.0,251.0,3319.095
3319105.0,224.0,33.0,245.0,253.0,3319.105
3319115.0,218.0,33.0,246.0,246.0,3319.115
3319126.0,219.0,32.0,240.0,247.0,3319.126
3319136.0,216.0,33.0,245.0,249.0,3319.136
3319146.0,223.0,33.0,254.0,254.0,3319.146
3319156.0,222.0,33.0,244.0,253.0,3319.156
3319166.0,214.0,32.0,247.0,244.0,3319.166
3319176.0,218.0,33.0,244.0,249.0,3319.176
3319186.0,217.0,32.0,247.0,250.0,3319.186
3319196.0,221.0,33.0,252.0,254.0,3319.196
3319206.0,221.0,33.0,243.0,251.0,3319.206
3319216.0,216.0,31.0,247.0,247.0,3319.216
3319226.0,217.0,33.0,241.0,247.0,3319.226
3319236.0,218.0,33.0,247.0,251.0,3319.236
3319246.0,222.0,32.0,254.0,254.0,3319.246
3319256.0,224.0,32.0,249.0,255.0,3319.256
3319266.0,215.0,32.0,249.0,247.0,3319.266
3319276.0,219.0,33.0,244.0,249.0,3319.276
3319286.0,220.0,33.0,250.0,254.0,3319.286
3319296.0,222.0,32.0,253.0,255.0,3319.296
3319306.0,224.0,34.0,245.0,254.0,3319.306
3319316.0,215.0,32.0,244.0,245.0,3319.316
3319326.0,217.0,33.0,239.0,247.0,3319.326
3319336.0,221.0,33.0,245.0,253.0,3319.336
3319346.0,223.0,33.0,247.0,254.0,3319.346
3319356.0,224.0,33.0,240.0,251.0,3319.356
3319366.0,215.0,33.0,238.0,244.0,3319.366
3319376.0,217.0,32.0,236.0,247.0,3319.376
3319386.0,217.0,32.0,238.0,248.0,3319.386
3319396.0,221.0,32.0,245.0,254.0,3319.396
3319406.0,223.0,33.0,237.0,252.0,3319.406
3319416.0,214.0,32.0,235.0,244.0,3319.416
3319426.0,218.0,32.0,233.0,248.0,3319.426
3319436.0,217.0,33.0,237.0,252.0,3319.436
3319446.0,222.0,32.0,242.0,255.0,3319.446
3319456.0,221.0,33.0,233.0,251.0,3319.456
3319467.0,215.0,32.0,233.0,243.0,3319.467
3319477.0,218.0,32.0,230.0,249.0,3319.477
3319487.0,224.0,32.0,240.0,255.0,3319.487
3319497.0,219.0,33.0,240.0,253.0,3319.497
3319507.0,220.0,32.0,233.0,250.0,3319.507
3319517.0,214.0,32.0,234.0,245.0,3319.517
3319527.0,220.0,32.0,237.0,253.0,3319.527
3319537.0,225.0,32.0,241.0,256.0,3319.537
3319547.0,221.0,31.0,241.0,252.0,3319.547
3319557.0,220.0,32.0,233.0,248.0,3319.557
3319567.0,211.0,32.0,235.0,242.0,3319.567
3319577.0,221.0,32.0,240.0,251.0,3319.577
3319587.0,235.0,32.0,249.0,259.0,3319.587
3319597.0,233.0,31.0,251.0,256.0,3319.597
3319607.0,233.0,32.0,241.0,255.0,3319.607
3319617.0,238.0,31.0,241.0,248.0,3319.617
3319627.0,244.0,32.0,242.0,255.0,3319.627
3319638.0,257.0,32.0,247.0,256.0,3319.638
3319648.0,246.0,31.0,250.0,255.0,3319.648
3319658.0,237.0,32.0,237.0,247.0,3319.658
3319668.0,228.0,31.0,232.0,238.0,3319.668
3319678.0,236.0,31.0,246.0,250.0,3319.678
3319688.0,244.0,32.0,248.0,259.0,3319.688
3319698.0,236.0,32.0,254.0,257.0,3319.698
3319708.0,238.0,32.0,245.0,256.0,3319.708
3319718.0,234.0,31.0,254.0,259.0,3319.718
3319728.0,232.0,31.0,260.0,265.0,3319.728
3319738.0,253.0,32.0,270.0,277.0,3319.738
3319748.0,241.0,31.0,277.0,272.0,3319.748
3319758.0,241.0,32.0,267.0,265.0,3319.758
3319768.0,237.0,32.0,275.0,261.0,3319.768
3319778.0,246.0,32.0,287.0,274.0,3319.778
3319788.0,255.0,32.0,287.0,277.0,3319.788
3319798.0,236.0,31.0,295.0,266.0,3319.798
3319808.0,241.0,31.0,285.0,265.0,3319.808
3319818.0,235.0,32.0,299.0,264.0,3319.818
3319828.0,235.0,31.0,303.0,267.0,3319.828
3319838.0,237.0,31.0,295.0,267.0,3319.838
3319848.0,227.0,31.0,309.0,259.0,3319.848
3319858.0,228.0,31.0,295.0,259.0,3319.858
3319868.0,223.0,31.0,307.0,252.0,3319.868
3319878.0,243.0,31.0,320.0,267.0,3319.878
3319888.0,246.0,32.0,303.0,263.0,3319.888
3319898.0,234.0,30.0,313.0,251.0,3319.898
3319908.0,234.0,31.0,297.0,253.0,3319.908
3319918.0,239.0,31.0,310.0,255.0,3319.918
3319928.0,242.0,31.0,320.0,259.0,3319.928
3319938.0,248.0,32.0,312.0,263.0,3319.938
3319948.0,241.0,32.0,333.0,258.0,3319.948
3319958.0,241.0,32.0,323.0,262.0,3319.958
3319968.0,243.0,31.0,333.0,261.0,3319.968
3319979.0,249.0,31.0,348.0,266.0,3319.979
3319989.0,250.0,31.0,326.0,266.0,3319.989
3319999.0,239.0,31.0,350.0,259.0,3319.999
3320009.0,248.0,32.0,341.0,266.0,3320.009
3320019.0,254.0,31.0,350.0,270.0,3320.019
3320029.0,253.0,31.0,361.0,267.0,3320.029
3320039.0,259.0,32.0,347.0,269.0,3320.039
3320049.0,248.0,31.0,372.0,262.0,3320.049
3320059.0,249.0,32.0,359.0,269.0,3320.059
3320069.0,250.0,31.0,371.0,271.0,3320.069
3320079.0,252.0,32.0,381.0,270.0,3320.079
3320089.0,251.0,31.0,360.0,268.0,3320.089
3320099.0,242.0,32.0,385.0,260.0,3320.099
3320109.0,249.0,31.0,373.0,271.0,3320.109
3320119.0,256.0,33.0,384.0,279.0,3320.119
3320129.0,253.0,32.0,395.0,273.0,3320.129
3320139.0,256.0,33.0,373.0,271.0,3320.139
3320150.0,244.0,31.0,395.0,256.0,3320.15
3320160.0,246.0,32.0,387.0,263.0,3320.16
3320170.0,252.0,32.0,386.0,266.0,3320.17
3320180.0,248.0,31.0,406.0,261.0,3320.18
3320190.0,243.0,32.0,381.0,256.0,3320.19
3320200.0,236.0,32.0,403.0,250.0,3320.2
3320210.0,240.0,33.0,393.0,260.0,3320.21
3320220.0,245.0,32.0,391.0,269.0,3320.22
3320230.0,238.0,32.0,408.0,259.0,3320.23
3320240.0,242.0,31.0,388.0,259.0,3320.24
3320250.0,232.0,32.0,408.0,248.0,3320.25
3320260.0,241.0,32.0,399.0,258.0,3320.26
3320270.0,246.0,33.0,400.0,271.0,3320.27
3320280.0,240.0,32.0,418.0,262.0,3320.28
3320290.0,241.0,32.0,397.0,265.0,3320.29
3320300.0,234.0,31.0,417.0,256.0,3320.3
3320310.0,242.0,31.0,413.0,268.0,3320.31
3320320.0,242.0,32.0,406.0,270.0,3320.32
3320330.0,244.0,32.0,420.0,264.0,3320.33
3320340.0,242.0,32.0,394.0,260.0,3320.34
3320350.0,230.0,32.0,411.0,252.0,3320.35
3320360.0,241.0,32.0,413.0,263.0,3320.36
3320370.0,246.0,32.0,402.0,264.0,3320.37
3320380.0,240.0,32.0,420.0,261.0,3320.38
3320390.0,242.0,32.0,399.0,263.0,3320.39
3320400.0,250.0,32.0,416.0,267.0,3320.4
3320410.0,254.0,32.0,411.0,274.0,3320.41
3320420.0,266.0,32.0,410.0,282.0,3320.42
3320430.0,260.0,31.0,425.0,272.0,3320.43
3320440.0,260.0,31.0,403.0,268.0,3320.44
3320450.0,249.0,31.0,423.0,258.0,3320.45
3320460.0,255.0,33.0,418.0,271.0,3320.46
3320470.0,259.0,32.0,409.0,276.0,3320.47
3320480.0,247.0,31.0,427.0,268.0,3320.48
3320491.0,245.0,32.0,405.0,266.0,3320.491
3320501.0,239.0,31.0,413.0,263.0,3320.501
3320511.0,246.0,32.0,418.0,269.0,3320.511
3320521.0,251.0,32.0,395.0,270.0,3320.521
3320531.0,242.0,32.0,414.0,262.0,3320.531
3320541.0,252.0,32.0,395.0,265.0,3320.541
3320551.0,250.0,32.0,403.0,262.0,3320.551
3320561.0,254.0,31.0,409.0,266.0,3320.561
3320571.0,254.0,31.0,387.0,264.0,3320.571
3320581.0,240.0,31.0,403.0,256.0,3320.581
3320591.0,239.0,32.0,383.0,257.0,3320.591
3320601.0,241.0,32.0,394.0,259.0,3320.601
3320611.0,242.0,31.0,397.0,263.0,3320.611
3320621.0,247.0,31.0,378.0,261.0,3320.621
3320631.0,235.0,31.0,392.0,254.0,3320.631
3320641.0,239.0,31.0,376.0,258.0,3320.641
3320651.0,241.0,32.0,386.0,265.0,3320.651
3320662.0,239.0,31.0,390.0,264.0,3320.662
3320672.0,245.0,31.0,367.0,263.0,3320.672
3320682.0,236.0,31.0,383.0,254.0,3320.682
3320692.0,235.0,31.0,370.0,255.0,3320.692
3320702.0,243.0,31.0,373.0,266.0,3320.702
3320712.0,241.0,30.0,381.0,265.0,3320.712
3320722.0,244.0,32.0,357.0,263.0,3320.722
3320732.0,232.0,30.0,371.0,253.0,3320.732
3320742.0,238.0,31.0,364.0,261.0,3320.742
3320752.0,245.0,31.0,367.0,265.0,3320.752
3320762.0,241.0,31.0,371.0,262.0,3320.762
3320772.0,241.0,32.0,349.0,259.0,3320.772
3320782.0,230.0,32.0,361.0,250.0,3320.782
3320792.0,237.0,32.0,347.0,255.0,3320.792
3320802.0,239.0,31.0,353.0,263.0,3320.802
3320812.0,236.0,31.0,360.0,261.0,3320.812
3320822.0,235.0,31.0,339.0,257.0,3320.822
3320832.0,226.0,31.0,353.0,251.0,3320.832
3320842.0,228.0,31.0,339.0,252.0,3320.842
3320852.0,239.0,32.0,342.0,258.0,3320.852
3320862.0,234.0,30.0,349.0,258.0,3320.862
3320872.0,235.0,32.0,329.0,258.0,3320.872
3320882.0,232.0,31.0,344.0,255.0,3320.882
3320892.0,235.0,31.0,334.0,260.0,3320.892
3320902.0,241.0,32.0,341.0,269.0,3320.902
3320912.0,240.0,31.0,350.0,267.0,3320.912
3320922.0,242.0,31.0,329.0,262.0,3320.922
3320932.0,231.0,31.0,342.0,251.0,3320.932
3320942.0,235.0,32.0,336.0,257.0,3320.942
3320952.0,244.0,31.0,337.0,267.0,3320.952
3320962.0,251.0,32.0,347.0,267.0,3320.962
3320972.0,249.0,32.0,327.0,264.0,3320.972
3320982.0,238.0,32.0,339.0,254.0,3320.982
3320992.0,243.0,32.0,336.0,262.0,3320.992
3321003.0,251.0,33.0,340.0,272.0,3321.003
3321013.0,244.0,31.0,346.0,266.0,3321.013
3321023.0,244.0,32.0,327.0,265.0,3321.023
3321033.0,236.0,32.0,334.0,260.0,3321.033
3321043.0,244.0,33.0,338.0,270.0,3321.043
3321053.0,246.0,32.0,332.0,270.0,3321.053
3321063.0,238.0,32.0,340.0,267.0,3321.063
3321073.0,241.0,32.0,326.0,265.0,3321.073
3321083.0,234.0,32.0,331.0,261.0,3321.083
3321093.0,238.0,32.0,331.0,267.0,3321.093
3321103.0,244.0,33.0,323.0,270.0,3321.103
3321113.0,236.0,32.0,330.0,262.0,3321.113
3321123.0,238.0,32.0,315.0,262.0,3321.123
3321133.0,231.0,32.0,322.0,257.0,3321.133
3321143.0,238.0,31.0,320.0,267.0,3321.143
3321153.0,242.0,33.0,313.0,270.0,3321.153
3321163.0,235.0,32.0,319.0,264.0,3321.163
3321174.0,237.0,33.0,304.0,264.0,3321.174
3321184.0,236.0,32.0,308.0,262.0,3321.184
3321194.0,241.0,32.0,313.0,268.0,3321.194
3321204.0,244.0,32.0,297.0,265.0,3321.204
3321214.0,233.0,31.0,302.0,258.0,3321.214
3321224.0,237.0,32.0,293.0,260.0,3321.224
3321234.0,237.0,33.0,298.0,264.0,3321.234
3321244.0,241.0,32.0,303.0,268.0,3321.244
3321254.0,241.0,32.0,288.0,264.0,3321.254
3321264.0,235.0,31.0,294.0,261.0,3321.264
3321274.0,237.0,31.0,284.0,261.0,3321.274
3321284.0,236.0,32.0,288.0,264.0,3321.284
3321294.0,239.0,32.0,290.0,267.0,3321.294
3321304.0,241.0,32.0,281.0,264.0,3321.304
3321314.0,232.0,30.0,279.0,254.0,3321.314
3321324.0,233.0,32.0,272.0,257.0,3321.324
3321334.0,237.0,31.0,274.0,262.0,3321.334
3321344.0,239.0,31.0,275.0,265.0,3321.344
3321354.0,241.0,32.0,265.0,262.0,3321.354
3321364.0,232.0,32.0,262.0,257.0,3321.364
3321374.0,235.0,32.0,254.0,259.0,3321.374
3321384.0,239.0,32.0,257.0,266.0,3321.384
3321394.0,240.0,32.0,259.0,267.0,3321.394
3321404.0,240.0,32.0,248.0,264.0,3321.404
3321414.0,230.0,32.0,239.0,257.0,3321.414
3321424.0,233.0,32.0,238.0,262.0,3321.424
3321434.0,232.0,32.0,240.0,264.0,3321.434
3321444.0,237.0,31.0,244.0,271.0,3321.444
3321454.0,238.0,33.0,242.0,267.0,3321.454
3321464.0,230.0,31.0,230.0,262.0,3321.464
3321474.0,232.0,33.0,231.0,264.0,3321.474
3321484.0,233.0,33.0,231.0,265.0,3321.484
3321494.0,237.0,33.0,231.0,266.0,3321.494
3321504.0,238.0,32.0,233.0,262.0,3321.504
3321515.0,228.0,32.0,215.0,254.0,3321.515
3321525.0,234.0,32.0,223.0,261.0,3321.525
3321535.0,238.0,33.0,232.0,267.0,3321.535
3321545.0,235.0,32.0,219.0,264.0,3321.545
3321555.0,232.0,34.0,227.0,261.0,3321.555
3321565.0,224.0,32.0,212.0,251.0,3321.565
3321575.0,228.0,32.0,221.0,256.0,3321.575
3321585.0,234.0,33.0,237.0,264.0,3321.585
3321595.0,229.0,33.0,220.0,260.0,3321.595
3321605.0,230.0,34.0,242.0,261.0,3321.605
3321615.0,222.0,33.0,223.0,252.0,3321.615
3321625.0,227.0,34.0,238.0,257.0,3321.625
3321635.0,233.0,33.0,260.0,262.0,3321.635
3321645.0,229.0,33.0,245.0,260.0,3321.645
3321655.0,231.0,33.0,275.0,257.0,3321.655
3321665.0,221.0,33.0,256.0,250.0,3321.665
3321675.0,228.0,33.0,279.0,258.0,3321.675
3321686.0,234.0,35.0,303.0,260.0,3321.686
3321696.0,228.0,32.0,285.0,252.0,3321.696
3321706.0,228.0,34.0,316.0,254.0,3321.706
3321716.0,223.0,33.0,313.0,251.0,3321.716
3321726.0,230.0,33.0,318.0,260.0,3321.726
3321736.0,232.0,33.0,351.0,261.0,3321.736
3321746.0,227.0,33.0,327.0,259.0,3321.746
3321756.0,226.0,34.0,362.0,259.0,3321.756
3321766.0,223.0,34.0,359.0,257.0,3321.766
3321776.0,228.0,34.0,364.0,260.0,3321.776
3321786.0,230.0,34.0,390.0,260.0,3321.786
3321796.0,223.0,33.0,364.0,253.0,3321.796
3321806.0,223.0,34.0,394.0,255.0,3321.806
3321816.0,218.0,35.0,378.0,248.0,3321.816
3321826.0,225.0,33.0,390.0,260.0,3321.826
3321836.0,228.0,34.0,416.0,265.0,3321.836
3321846.0,223.0,33.0,389.0,254.0,3321.846
3321856.0,224.0,34.0,419.0,256.0,3321.856
3321866.0,218.0,33.0,403.0,251.0,3321.866
3321876.0,226.0,35.0,407.0,261.0,3321.876
3321886.0,228.0,34.0,432.0,261.0,3321.886
3321896.0,221.0,33.0,402.0,250.0,3321.896
3321906.0,223.0,34.0,432.0,253.0,3321.906
3321916.0,218.0,33.0,416.0,250.0,3321.916
3321926.0,226.0,34.0,414.0,257.0,3321.926
3321936.0,227.0,34.0,442.0,257.0,3321.936
3321946.0,223.0,34.0,408.0,250.0,3321.946
3321956.0,223.0,34.0,433.0,250.0,3321.956
3321966.0,219.0,34.0,420.0,248.0,3321.966
3321976.0,225.0,33.0,416.0,255.0,3321.976
3321986.0,226.0,34.0,440.0,255.0,3321.986
3321996.0,220.0,33.0,410.0,247.0,3321.996
3322006.0,219.0,34.0,435.0,249.0,3322.006
3322016.0,219.0,32.0,424.0,250.0,3322.016
3322027.0,224.0,33.0,415.0,256.0,3322.027
3322037.0,224.0,33.0,439.0,254.0,3322.037
3322047.0,216.0,32.0,407.0,243.0,3322.047
3322057.0,218.0,33.0,424.0,246.0,3322.057
3322067.0,223.0,34.0,429.0,254.0,3322.067
3322077.0,223.0,33.0,407.0,253.0,3322.077
3322087.0,222.0,33.0,430.0,250.0,3322.087
3322097.0,216.0,32.0,398.0,246.0,3322.097
3322107.0,218.0,33.0,415.0,251.0,3322.107
3322117.0,220.0,33.0,414.0,254.0,3322.117
3322127.0,223.0,32.0,397.0,254.0,3322.127
3322137.0,221.0,34.0,423.0,253.0,3322.137
3322147.0,214.0,32.0,392.0,243.0,3322.147
3322157.0,217.0,33.0,412.0,247.0,3322.157
3322167.0,221.0,33.0,411.0,253.0,3322.167
3322177.0,223.0,33.0,393.0,252.0,3322.177
3322187.0,222.0,32.0,419.0,251.0,3322.187
3322198.0,215.0,33.0,387.0,243.0,3322.198
3322208.0,219.0,32.0,403.0,249.0,3322.208
3322218.0,225.0,33.0,416.0,254.0,3322.218
3322228.0,222.0,32.0,389.0,250.0,3322.228
3322238.0,221.0,32.0,414.0,250.0,3322.238
3322248.0,215.0,33.0,390.0,242.0,3322.248
3322258.0,221.0,32.0,403.0,251.0,3322.258
3322268.0,225.0,34.0,419.0,258.0,3322.268
3322278.0,221.0,32.0,391.0,252.0,3322.278
3322288.0,223.0,33.0,420.0,253.0,3322.288
3322298.0,216.0,32.0,394.0,243.0,3322.298
3322308.0,220.0,32.0,402.0,252.0,3322.308
3322318.0,225.0,32.0,421.0,256.0,3322.318
3322328.0,222.0,32.0,393.0,254.0,3322.328
3322338.0,220.0,32.0,417.0,250.0,3322.338
3322348.0,213.0,32.0,392.0,244.0,3322.348
3322358.0,222.0,32.0,404.0,254.0,3322.358
3322368.0,225.0,31.0,418.0,257.0,3322.368
3322378.0,222.0,32.0,392.0,253.0,3322.378
3322388.0,221.0,33.0,419.0,253.0,3322.388
3322398.0,215.0,32.0,394.0,245.0,3322.398
3322408.0,223.0,32.0,401.0,255.0,3322.408
3322418.0,225.0,32.0,416.0,257.0,3322.418
3322428.0,223.0,31.0,390.0,253.0,3322.428
3322438.0,221.0,32.0,414.0,250.0,3322.438
3322448.0,215.0,32.0,392.0,245.0,3322.448
3322458.0,219.0,33.0,398.0,252.0,3322.458
3322468.0,225.0,32.0,414.0,256.0,3322.468
3322478.0,221.0,31.0,384.0,251.0,3322.478
3322488.0,221.0,32.0,408.0,251.0,3322.488
3322498.0,214.0,31.0,381.0,244.0,3322.498
3322508.0,221.0,31.0,394.0,252.0,3322.508
3322518.0,226.0,32.0,410.0,257.0,3322.518
3322528.0,221.0,32.0,380.0,250.0,3322.528
3322539.0,221.0,32.0,403.0,251.0,3322.539
3322549.0,218.0,32.0,387.0,251.0,3322.549
3322559.0,225.0,31.0,383.0,258.0,3322.559
3322569.0,224.0,33.0,406.0,256.0,3322.569
3322579.0,218.0,32.0,372.0,249.0,3322.579
3322589.0,221.0,33.0,395.0,250.0,3322.589
3322599.0,218.0,32.0,383.0,249.0,3322.599
3322609.0,225.0,32.0,376.0,256.0,3322.609
3322619.0,225.0,32.0,398.0,253.0,3322.619
3322629.0,218.0,31.0,366.0,249.0,3322.629
3322639.0,219.0,32.0,386.0,249.0,3322.639
3322649.0,219.0,33.0,376.0,251.0,3322.649
3322659.0,223.0,31.0,367.0,254.0,3322.659
3322669.0,225.0,32.0,391.0,255.0,3322.669
3322679.0,219.0,32.0,360.0,248.0,3322.679
3322689.0,220.0,31.0,377.0,248.0,3322.689
3322699.0,220.0,32.0,371.0,251.0,3322.699
3322710.0,224.0,32.0,356.0,256.0,3322.71
3322720.0,223.0,32.0,377.0,251.0,3322.72
3322730.0,215.0,32.0,347.0,244.0,3322.73
3322740.0,219.0,32.0,359.0,250.0,3322.74
3322750.0,224.0,31.0,368.0,257.0,3322.75
3322760.0,224.0,31.0,344.0,256.0,3322.76
3322770.0,223.0,32.0,366.0,252.0,3322.77
3322780.0,216.0,32.0,337.0,245.0,3322.78
3322790.0,220.0,32.0,348.0,250.0,3322.79
3322800.0,223.0,31.0,353.0,255.0,3322.8
3322810.0,225.0,31.0,336.0,255.0,3322.81
3322820.0,222.0,31.0,354.0,253.0,3322.82
3322830.0,215.0,32.0,326.0,244.0,3322.83
3322840.0,218.0,33.0,339.0,251.0,3322.84
3322850.0,222.0,32.0,343.0,256.0,3322.85
3322860.0,223.0,31.0,325.0,256.0,3322.86
3322870.0,222.0,32.0,348.0,253.0,3322.87
3322880.0,218.0,31.0,319.0,247.0,3322.88
3322890.0,218.0,32.0,331.0,251.0,3322.89
3322900.0,223.0,32.0,336.0,258.0,3322.9
3322910.0,223.0,32.0,315.0,256.0,3322.91
3322920.0,221.0,32.0,333.0,253.0,3322.92
3322930.0,216.0,32.0,307.0,247.0,3322.93
3322940.0,219.0,31.0,319.0,251.0,3322.94
3322950.0,224.0,32.0,326.0,257.0,3322.95
3322960.0,223.0,31.0,305.0,253.0,3322.96
3322970.0,223.0,33.0,329.0,254.0,3322.97
3322980.0,216.0,32.0,299.0,245.0,3322.98
3322990.0,219.0,32.0,310.0,250.0,3322.99
3323000.0,225.0,32.0,321.0,255.0,3323.0
3323010.0,224.0,31.0,298.0,253.0,3323.01
3323020.0,222.0,32.0,316.0,251.0,3323.02
3323030.0,216.0,32.0,290.0,242.0,3323.03
3323040.0,220.0,32.0,300.0,248.0,3323.04
3323051.0,226.0,32.0,312.0,254.0,3323.051
3323061.0,221.0,31.0,287.0,249.0,3323.061
3323071.0,221.0,31.0,303.0,248.0,3323.071
3323081.0,216.0,31.0,285.0,245.0,3323.081
3323091.0,225.0,32.0,290.0,253.0,3323.091
3323101.0,227.0,32.0,303.0,255.0,3323.101
3323111.0,223.0,32.0,279.0,248.0,3323.111
3323121.0,221.0,32.0,293.0,247.0,3323.121
3323131.0,218.0,32.0,281.0,245.0,3323.131
3323141.0,221.0,31.0,281.0,252.0,3323.141
3323151.0,225.0,33.0,296.0,256.0,3323.151
3323161.0,221.0,32.0,269.0,249.0,3323.161
3323171.0,221.0,32.0,283.0,249.0,3323.171
3323181.0,215.0,31.0,268.0,245.0,3323.181
3323191.0,223.0,32.0,277.0,256.0,3323.191
3323201.0,227.0,32.0,292.0,257.0,3323.201
3323211.0,222.0,32.0,263.0,250.0,3323.211
3323222.0,222.0,32.0,277.0,252.0,3323.222
3323232.0,220.0,33.0,270.0,252.0,3323.232
3323242.0,225.0,32.0,265.0,256.0,3323.242
3323252.0,224.0,33.0,280.0,254.0,3323.252
3323262.0,219.0,31.0,255.0,246.0,3323.262
3323272.0,220.0,33.0,268.0,250.0,3323.272
3323282.0,221.0,32.0,266.0,251.0,3323.282
3323292.0,226.0,33.0,259.0,256.0,3323.292
3323302.0,224.0,32.0,275.0,252.0,3323.302
3323312.0,221.0,31.0,251.0,247.0,3323.312
3323322.0,221.0,32.0,262.0,248.0,3323.322
3323332.0,222.0,33.0,260.0,250.0,3323.332
3323342.0,225.0,33.0,251.0,253.0,3323.342
3323352.0,227.0,33.0,270.0,255.0,3323.352
3323362.0,221.0,33.0,243.0,245.0,3323.362
3323372.0,221.0,32.0,254.0,247.0,3323.372
3323382.0,223.0,32.0,257.0,252.0,3323.382
3323392.0,227.0,31.0,250.0,253.0,3323.392
3323402.0,226.0,32.0,262.0,252.0,3323.402
3323412.0,219.0,32.0,237.0,244.0,3323.412
3323422.0,220.0,33.0,245.0,247.0,3323.422
3323432.0,223.0,32.0,252.0,252.0,3323.432
3323442.0,225.0,32.0,243.0,252.0,3323.442
3323452.0,226.0,33.0,253.0,250.0,3323.452
3323462.0,218.0,31.0,228.0,242.0,3323.462
3323472.0,220.0,32.0,235.0,245.0,3323.472
3323482.0,221.0,33.0,235.0,249.0,3323.482
3323492.0,226.0,32.0,232.0,252.0,3323.492
3323502.0,226.0,33.0,241.0,250.0,3323.502
3323512.0,217.0,32.0,219.0,240.0,3323.512
3323522.0,222.0,31.0,228.0,245.0,3323.522
3323532.0,221.0,32.0,226.0,249.0,3323.532
3323542.0,225.0,32.0,224.0,252.0,3323.542
3323552.0,224.0,33.0,231.0,250.0,3323.552
3323563.0,217.0,30.0,211.0,242.0,3323.563
3323573.0,220.0,32.0,218.0,248.0,3323.573
3323583.0,226.0,32.0,230.0,256.0,3323.583
3323593.0,223.0,32.0,214.0,251.0,3323.593
3323603.0,222.0,32.0,221.0,249.0,3323.603
3323613.0,217.0,32.0,206.0,245.0,3323.613
3323623.0,220.0,32.0,213.0,251.0,3323.623
3323633.0,226.0,33.0,223.0,256.0,3323.633
3323643.0,223.0,32.0,209.0,249.0,3323.643
3323653.0,223.0,31.0,217.0,250.0,3323.653
3323663.0,215.0,32.0,200.0,241.0,3323.663
3323673.0,220.0,32.0,208.0,251.0,3323.673
3323683.0,225.0,33.0,218.0,255.0,3323.683
3323693.0,222.0,32.0,208.0,252.0,3323.693
3323703.0,220.0,33.0,213.0,249.0,3323.703
3323713.0,214.0,31.0,198.0,242.0,3323.713
3323723.0,220.0,32.0,206.0,250.0,3323.723
3323734.0,224.0,32.0,216.0,253.0,3323.734
3323744.0,219.0,32.0,203.0,248.0,3323.744
3323754.0,219.0,32.0,207.0,248.0,3323.754
3323764.0,216.0,32.0,203.0,247.0,3323.764
3323774.0,224.0,32.0,211.0,254.0,3323.774
3323784.0,225.0,33.0,216.0,255.0,3323.784
3323794.0,220.0,31.0,204.0,247.0,3323.794
3323804.0,220.0,32.0,208.0,248.0,3323.804
3323814.0,219.0,32.0,204.0,247.0,3323.814
3323824.0,223.0,32.0,209.0,252.0,3323.824
3323834.0,227.0,32.0,217.0,255.0,3323.834
3323844.0,221.0,31.0,203.0,247.0,3323.844
3323854.0,220.0,33.0,207.0,249.0,3323.854
3323864.0,214.0,32.0,200.0,243.0,3323.864
3323874.0,223.0,32.0,211.0,253.0,3323.874
3323884.0,226.0,32.0,217.0,254.0,3323.884
3323894.0,219.0,31.0,203.0,245.0,3323.894
3323904.0,222.0,32.0,209.0,248.0,3323.904
3323914.0,216.0,32.0,200.0,243.0,3323.914
3323924.0,224.0,31.0,210.0,252.0,3323.924
3323934.0,226.0,33.0,215.0,255.0,3323.934
3323944.0,219.0,31.0,203.0,244.0,3323.944
3323954.0,221.0,32.0,209.0,248.0,3323.954
3323964.0,217.0,32.0,206.0,245.0,3323.964
3323974.0,225.0,31.0,214.0,253.0,3323.974
3323984.0,225.0,32.0,217.0,253.0,3323.984
3323994.0,221.0,32.0,208.0,247.0,3323.994
3324004.0,221.0,33.0,209.0,248.0,3324.004
3324014.0,219.0,32.0,207.0,247.0,3324.014
3324024.0,225.0,32.0,213.0,252.0,3324.024
3324034.0,227.0,32.0,217.0,254.0,3324.034
3324044.0,221.0,31.0,206.0,247.0,3324.044
3324054.0,221.0,32.0,208.0,249.0,3324.054
3324064.0,220.0,33.0,208.0,249.0,3324.064
3324075.0,225.0,31.0,212.0,253.0,3324.075
3324085.0,224.0,32.0,212.0,251.0,3324.085
3324095.0,218.0,31.0,204.0,242.0,3324.095
3324105.0,220.0,31.0,206.0,247.0,3324.105
3324115.0,225.0,32.0,214.0,253.0,3324.115
3324125.0,226.0,33.0,212.0,253.0,3324.125
3324135.0,223.0,32.0,213.0,250.0,3324.135
3324145.0,217.0,32.0,202.0,242.0,3324.145
3324155.0,220.0,32.0,207.0,248.0,3324.155
3324165.0,221.0,31.0,211.0,250.0,3324.165
3324175.0,224.0,32.0,209.0,251.0,3324.175
3324185.0,223.0,32.0,210.0,248.0,3324.185
3324195.0,216.0,33.0,200.0,241.0,3324.195
3324205.0,219.0,32.0,207.0,245.0,3324.205
3324215.0,223.0,32.0,212.0,250.0,3324.215
3324225.0,226.0,32.0,213.0,251.0,3324.225
3324235.0,223.0,32.0,211.0,250.0,3324.235
3324246.0,217.0,31.0,199.0,239.0,3324.246
3324256.0,221.0,32.0,206.0,249.0,3324.256
3324266.0,226.0,32.0,214.0,254.0,3324.266
3324276.0,223.0,32.0,205.0,249.0,3324.276
3324286.0,222.0,32.0,208.0,249.0,3324.286
3324296.0,216.0,31.0,198.0,240.0,3324.296
3324306.0,221.0,32.0,207.0,249.0,3324.306
3324316.0,227.0,33.0,216.0,255.0,3324.316
3324326.0,223.0,32.0,204.0,246.0,3324.326
3324336.0,222.0,32.0,210.0,249.0,3324.336
3324346.0,216.0,32.0,197.0,241.0,3324.346
3324356.0,224.0,32.0,208.0,250.0,3324.356
3324366.0,227.0,33.0,216.0,255.0,3324.366
3324376.0,224.0,32.0,207.0,249.0,3324.376
3324386.0,223.0,33.0,208.0,249.0,3324.386
3324396.0,217.0,31.0,195.0,238.0,3324.396
3324406.0,224.0,32.0,206.0,249.0,3324.406
3324416.0,227.0,32.0,214.0,251.0,3324.416
3324426.0,224.0,31.0,203.0,247.0,3324.426
3324436.0,222.0,33.0,207.0,245.0,3324.436
3324446.0,216.0,33.0,195.0,239.0,3324.446
3324456.0,225.0,32.0,206.0,249.0,3324.456
3324466.0,227.0,32.0,212.0,251.0,3324.466
3324476.0,223.0,32.0,201.0,247.0,3324.476
3324486.0,223.0,33.0,208.0,246.0,3324.486
3324496.0,216.0,32.0,197.0,241.0,3324.496
3324506.0,222.0,32.0,204.0,247.0,3324.506
3324516.0,227.0,33.0,216.0,252.0,3324.516
3324526.0,223.0,32.0,201.0,245.0,3324.526
3324536.0,222.0,32.0,210.0,246.0,3324.536
3324546.0,217.0,32.0,198.0,239.0,3324.546
3324556.0,222.0,31.0,206.0,248.0,3324.556
3324566.0,226.0,32.0,221.0,252.0,3324.566
3324576.0,221.0,32.0,204.0,247.0,3324.576
3324587.0,221.0,32.0,216.0,246.0,3324.587
3324597.0,217.0,32.0,211.0,246.0,3324.597
3324607.0,225.0,32.0,218.0,254.0,3324.607
3324617.0,226.0,33.0,232.0,252.0,3324.617
3324627.0,217.0,31.0,210.0,244.0,3324.627
3324637.0,220.0,32.0,225.0,249.0,3324.637
3324647.0,218.0,33.0,222.0,249.0,3324.647
3324657.0,223.0,32.0,224.0,254.0,3324.657
3324667.0,224.0,32.0,237.0,253.0,3324.667
3324677.0,220.0,31.0,218.0,247.0,3324.677
3324687.0,218.0,32.0,226.0,247.0,3324.687
3324697.0,219.0,32.0,226.0,249.0,3324.697
3324707.0,224.0,33.0,226.0,255.0,3324.707
3324717.0,225.0,32.0,240.0,255.0,3324.717
3324727.0,218.0,32.0,218.0,247.0,3324.727
3324737.0,219.0,32.0,230.0,248.0,3324.737
3324747.0,220.0,31.0,229.0,250.0,3324.747
3324758.0,224.0,32.0,226.0,253.0,3324.758
3324768.0,223.0,33.0,236.0,250.0,3324.768
3324778.0,214.0,32.0,215.0,240.0,3324.778
3324788.0,218.0,32.0,222.0,247.0,3324.788
3324798.0,225.0,32.0,234.0,255.0,3324.798
3324808.0,223.0,31.0,221.0,252.0,3324.808
3324818.0,222.0,32.0,231.0,250.0,3324.818
3324828.0,214.0,32.0,214.0,241.0,3324.828
3324838.0,218.0,33.0,223.0,248.0,3324.838
3324848.0,222.0,32.0,230.0,252.0,3324.848
3324858.0,222.0,31.0,221.0,253.0,3324.858
3324868.0,223.0,32.0,234.0,251.0,3324.868
3324878.0,213.0,31.0,212.0,242.0,3324.878
3324888.0,217.0,32.0,222.0,247.0,3324.888
3324898.0,222.0,33.0,231.0,255.0,3324.898
3324908.0,221.0,32.0,222.0,253.0,3324.908
3324918.0,221.0,32.0,233.0,251.0,3324.918
3324928.0,214.0,32.0,217.0,243.0,3324.928
3324938.0,218.0,31.0,225.0,248.0,3324.938
3324948.0,222.0,32.0,236.0,255.0,3324.948
3324958.0,220.0,32.0,224.0,254.0,3324.958
3324968.0,221.0,32.0,234.0,251.0,3324.968
3324978.0,213.0,32.0,217.0,245.0,3324.978
3324988.0,216.0,32.0,227.0,250.0,3324.988
3324998.0,223.0,32.0,242.0,255.0,3324.998
3325008.0,220.0,31.0,226.0,251.0,3325.008
3325018.0,222.0,32.0,241.0,249.0,3325.018
3325028.0,213.0,33.0,222.0,243.0,3325.028
3325038.0,218.0,32.0,231.0,248.0,3325.038
3325048.0,224.0,32.0,242.0,255.0,3325.048
3325058.0,221.0,32.0,230.0,252.0,3325.058
3325068.0,222.0,33.0,239.0,250.0,3325.068
3325078.0,214.0,32.0,218.0,241.0,3325.078
3325088.0,219.0,32.0,228.0,250.0,3325.088
3325099.0,225.0,33.0,238.0,255.0,3325.099
3325109.0,219.0,31.0,221.0,249.0,3325.109
3325119.0,220.0,32.0,230.0,248.0,3325.119
3325129.0,214.0,31.0,218.0,244.0,3325.129
3325139.0,222.0,32.0,225.0,253.0,3325.139
3325149.0,225.0,32.0,234.0,255.0,3325.149
3325159.0,219.0,32.0,216.0,248.0,3325.159
3325169.0,219.0,32.0,223.0,247.0,3325.169
3325179.0,215.0,32.0,213.0,245.0,3325.179
3325189.0,221.0,32.0,219.0,250.0,3325.189
3325199.0,226.0,32.0,230.0,254.0,3325.199
3325209.0,217.0,32.0,211.0,246.0,3325.209
3325219.0,219.0,33.0,219.0,248.0,3325.219
3325229.0,212.0,32.0,208.0,241.0,3325.229
3325239.0,221.0,32.0,219.0,252.0,3325.239
3325249.0,225.0,32.0,230.0,255.0,3325.249
3325259.0,218.0,31.0,212.0,247.0,3325.259
3325270.0,218.0,32.0,219.0,247.0,3325.27
3325280.0,217.0,32.0,217.0,248.0,3325.28
3325290.0,221.0,33.0,218.0,252.0,3325.29
3325300.0,223.0,32.0,226.0,249.0,3325.3
3325310.0,213.0,32.0,206.0,241.0,3325.31
3325320.0,218.0,31.0,217.0,245.0,3325.32
3325330.0,218.0,32.0,217.0,248.0,3325.33
3325340.0,221.0,32.0,216.0,251.0,3325.34
3325350.0,223.0,33.0,226.0,249.0,3325.35
3325360.0,216.0,31.0,207.0,244.0,3325.36
3325370.0,218.0,32.0,215.0,245.0,3325.37
3325380.0,220.0,32.0,218.0,249.0,3325.38
3325390.0,220.0,31.0,212.0,250.0,3325.39
3325400.0,224.0,33.0,225.0,251.0,3325.4
3325410.0,213.0,31.0,205.0,243.0,3325.41
3325420.0,216.0,32.0,212.0,245.0,3325.42
3325430.0,220.0,32.0,217.0,250.0,3325.43
3325440.0,221.0,32.0,214.0,252.0,3325.44
3325450.0,225.0,32.0,224.0,250.0,3325.45
3325460.0,214.0,32.0,204.0,244.0,3325.46
3325470.0,217.0,32.0,212.0,245.0,3325.47
3325480.0,221.0,33.0,218.0,251.0,3325.48
3325490.0,221.0,32.0,215.0,252.0,3325.49
3325500.0,223.0,32.0,221.0,252.0,3325.5
3325510.0,214.0,31.0,203.0,243.0,3325.51
3325520.0,217.0,31.0,207.0,246.0,3325.52
3325530.0,218.0,32.0,210.0,248.0,3325.53
3325540.0,221.0,32.0,209.0,253.0,3325.54
3325550.0,223.0,32.0,216.0,250.0,3325.55
3325560.0,213.0,31.0,198.0,242.0,3325.56
3325570.0,218.0,32.0,208.0,248.0,3325.57
3325580.0,219.0,31.0,210.0,251.0,3325.58
3325590.0,221.0,31.0,208.0,254.0,3325.59
3325600.0,223.0,31.0,215.0,253.0,3325.6
3325611.0,213.0,31.0,199.0,244.0,3325.611
3325621.0,218.0,31.0,204.0,247.0,3325.621
3325631.0,224.0,32.0,214.0,255.0,3325.631
3325641.0,219.0,31.0,203.0,250.0,3325.641
3325651.0,220.0,32.0,209.0,249.0,3325.651
3325661.0,212.0,31.0,197.0,241.0,3325.661
3325671.0,217.0,33.0,205.0,250.0,3325.671
3325681.0,224.0,32.0,216.0,254.0,3325.681
3325691.0,217.0,32.0,205.0,250.0,3325.691
3325701.0,223.0,32.0,217.0,250.0,3325.701
3325711.0,213.0,31.0,200.0,242.0,3325.711
3325721.0,219.0,31.0,209.0,249.0,3325.721
3325731.0,226.0,32.0,220.0,255.0,3325.731
3325741.0,220.0,32.0,208.0,251.0,3325.741
3325751.0,222.0,32.0,214.0,248.0,3325.751
3325761.0,212.0,32.0,198.0,241.0,3325.761
3325771.0,220.0,31.0,212.0,251.0,3325.771
3325782.0,225.0,33.0,222.0,255.0,3325.782
3325792.0,218.0,32.0,207.0,249.0,3325.792
3325802.0,219.0,33.0,213.0,250.0,3325.802
3325812.0,216.0,32.0,208.0,247.0,3325.812
3325822.0,222.0,32.0,213.0,255.0,3325.822
3325832.0,227.0,32.0,222.0,255.0,3325.832
3325842.0,217.0,31.0,203.0,249.0,3325.842
3325852.0,220.0,32.0,210.0,249.0,3325.852
3325862.0,218.0,33.0,206.0,249.0,3325.862
3325872.0,220.0,32.0,209.0,253.0,3325.872
3325882.0,225.0,32.0,217.0,255.0,3325.882
3325892.0,216.0,32.0,203.0,247.0,3325.892
3325902.0,219.0,31.0,207.0,247.0,3325.902
3325912.0,212.0,32.0,198.0,243.0,3325.912
3325922.0,221.0,32.0,209.0,252.0,3325.922
3325932.0,226.0,33.0,218.0,254.0,3325.932
3325942.0,215.0,32.0,202.0,246.0,3325.942
3325952.0,219.0,32.0,208.0,249.0,3325.952
3325962.0,214.0,32.0,201.0,243.0,3325.962
3325972.0,220.0,33.0,209.0,253.0,3325.972
3325982.0,225.0,33.0,216.0,253.0,3325.982
3325992.0,214.0,32.0,201.0,246.0,3325.992
3326002.0,220.0,32.0,208.0,248.0,3326.002
3326012.0,215.0,32.0,204.0,246.0,3326.012
3326022.0,222.0,32.0,212.0,254.0,3326.022
3326032.0,226.0,32.0,217.0,254.0,3326.032
3326042.0,216.0,32.0,204.0,248.0,3326.042
3326052.0,219.0,33.0,208.0,248.0,3326.052
3326062.0,215.0,33.0,203.0,247.0,3326.062
3326072.0,222.0,32.0,209.0,253.0,3326.072
3326082.0,225.0,32.0,215.0,254.0,3326.082
3326092.0,217.0,31.0,201.0,247.0,3326.092
3326102.0,218.0,33.0,204.0,249.0,3326.102
3326112.0,216.0,32.0,204.0,251.0,3326.112
3326123.0,221.0,34.0,207.0,256.0,3326.123
3326133.0,224.0,32.0,212.0,252.0,3326.133
3326143.0,213.0,32.0,197.0,246.0,3326.143
3326153.0,218.0,32.0,203.0,248.0,3326.153
3326163.0,222.0,32.0,212.0,256.0,3326.163
3326173.0,221.0,32.0,208.0,255.0,3326.173
3326183.0,223.0,33.0,211.0,252.0,3326.183
3326193.0,214.0,32.0,197.0,244.0,3326.193
3326203.0,217.0,32.0,203.0,248.0,3326.203
3326213.0,220.0,32.0,208.0,251.0,3326.213
3326223.0,222.0,31.0,208.0,253.0,3326.223
3326233.0,222.0,33.0,210.0,249.0,3326.233
3326243.0,213.0,32.0,198.0,243.0,3326.243
3326253.0,217.0,32.0,205.0,247.0,3326.253
3326263.0,220.0,32.0,210.0,253.0,3326.263
3326273.0,220.0,32.0,209.0,253.0,3326.273
3326283.0,222.0,32.0,209.0,249.0,3326.283
3326294.0,210.0,32.0,197.0,241.0,3326.294
3326304.0,216.0,31.0,206.0,249.0,3326.304
3326314.0,222.0,33.0,214.0,255.0,3326.314
3326324.0,217.0,31.0,207.0,248.0,3326.324
3326334.0,218.0,32.0,207.0,248.0,3326.334
3326344.0,211.0,32.0,200.0,241.0,3326.344
3326354.0,217.0,31.0,205.0,250.0,3326.354
3326364.0,223.0,32.0,213.0,255.0,3326.364
3326374.0,216.0,32.0,206.0,250.0,3326.374
3326384.0,219.0,33.0,208.0,251.0,3326.384
3326394.0,211.0,32.0,201.0,242.0,3326.394
3326404.0,218.0,32.0,211.0,251.0,3326.404
3326414.0,225.0,32.0,218.0,256.0,3326.414
3326424.0,219.0,32.0,214.0,252.0,3326.424
3326434.0,221.0,32.0,213.0,249.0,3326.434
3326444.0,211.0,33.0,205.0,242.0,3326.444
3326454.0,221.0,32.0,217.0,254.0,3326.454
3326464.0,224.0,32.0,220.0,255.0,3326.464
3326474.0,220.0,32.0,217.0,251.0,3326.474
3326484.0,221.0,33.0,214.0,251.0,3326.484
3326494.0,212.0,32.0,209.0,244.0,3326.494
3326504.0,221.0,33.0,220.0,255.0,3326.504
3326514.0,225.0,32.0,222.0,255.0,3326.514
3326524.0,218.0,32.0,217.0,249.0,3326.524
3326534.0,220.0,32.0,216.0,249.0,3326.534
3326544.0,213.0,32.0,211.0,244.0,3326.544
3326554.0,218.0,32.0,216.0,250.0,3326.554
3326564.0,224.0,33.0,223.0,256.0,3326.564
3326574.0,217.0,32.0,217.0,251.0,3326.574
3326584.0,219.0,32.0,216.0,249.0,3326.584
3326594.0,212.0,32.0,209.0,243.0,3326.594
3326604.0,219.0,32.0,218.0,252.0,3326.604
3326614.0,224.0,33.0,223.0,256.0,3326.614
3326624.0,217.0,32.0,216.0,248.0,3326.624
3326635.0,218.0,34.0,212.0,248.0,3326.635
3326645.0,214.0,32.0,211.0,246.0,3326.645
3326655.0,221.0,33.0,220.0,255.0,3326.655
3326665.0,224.0,33.0,220.0,254.0,3326.665
3326675.0,214.0,32.0,213.0,246.0,3326.675
3326685.0,217.0,33.0,215.0,249.0,3326.685
3326695.0,215.0,33.0,217.0,251.0,3326.695
3326705.0,221.0,33.0,224.0,255.0,3326.705
3326715.0,223.0,34.0,220.0,253.0,3326.715
3326725.0,215.0,32.0,221.0,249.0,3326.725
3326735.0,219.0,32.0,220.0,250.0,3326.735
3326745.0,217.0,33.0,222.0,253.0,3326.745
3326755.0,222.0,32.0,230.0,256.0,3326.755
3326765.0,225.0,32.0,226.0,256.0,3326.765
3326775.0,216.0,32.0,224.0,247.0,3326.775
3326785.0,218.0,33.0,221.0,248.0,3326.785
3326795.0,219.0,33.0,227.0,251.0,3326.795
3326806.0,220.0,33.0,231.0,254.0,3326.806
3326816.0,222.0,33.0,225.0,252.0,3326.816
3326826.0,212.0,33.0,225.0,244.0,3326.826
3326836.0,216.0,32.0,225.0,248.0,3326.836
3326846.0,223.0,33.0,232.0,255.0,3326.846
3326856.0,221.0,33.0,234.0,253.0,3326.856
3326866.0,222.0,33.0,227.0,250.0,3326.866
3326876.0,212.0,33.0,226.0,244.0,3326.876
3326886.0,218.0,33.0,229.0,252.0,3326.886
3326896.0,221.0,33.0,233.0,254.0,3326.896
3326906.0,221.0,32.0,237.0,253.0,3326.906
3326916.0,221.0,33.0,229.0,250.0,3326.916
3326926.0,213.0,32.0,227.0,240.0,3326.926
3326936.0,216.0,33.0,227.0,246.0,3326.936
3326946.0,221.0,33.0,234.0,253.0,3326.946
3326956.0,220.0,32.0,237.0,251.0,3326.956
3326966.0,220.0,33.0,229.0,250.0,3326.966
3326976.0,213.0,32.0,230.0,243.0,3326.976
3326986.0,217.0,33.0,229.0,247.0,3326.986
3326996.0,222.0,33.0,240.0,254.0,3326.996
3327006.0,219.0,33.0,240.0,250.0,3327.006
3327016.0,220.0,33.0,233.0,249.0,3327.016
3327026.0,213.0,33.0,235.0,242.0,3327.026
3327036.0,216.0,32.0,234.0,247.0,3327.036
3327046.0,223.0,33.0,241.0,254.0,3327.046
3327056.0,221.0,32.0,244.0,252.0,3327.056
3327066.0,221.0,33.0,234.0,253.0,3327.066
3327076.0,213.0,32.0,236.0,242.0,3327.076
3327086.0,217.0,33.0,236.0,250.0,3327.086
3327096.0,224.0,33.0,242.0,255.0,3327.096
3327106.0,221.0,32.0,246.0,252.0,3327.106
3327116.0,221.0,33.0,238.0,249.0,3327.116
3327126.0,212.0,33.0,242.0,241.0,3327.126
3327136.0,218.0,33.0,244.0,248.0,3327.136
3327147.0,224.0,34.0,250.0,253.0,3327.147
3327157.0,219.0,32.0,255.0,248.0,3327.157
3327167.0,220.0,33.0,247.0,247.0,3327.167
3327177.0,214.0,33.0,251.0,243.0,3327.177
3327187.0,223.0,33.0,259.0,251.0,3327.187
3327197.0,224.0,33.0,256.0,252.0,3327.197
3327207.0,219.0,32.0,263.0,247.0,3327.207
3327217.0,219.0,34.0,254.0,247.0,3327.217
3327227.0,215.0,32.0,261.0,244.0,3327.227
3327237.0,220.0,33.0,264.0,250.0,3327.237
3327247.0,227.0,33.0,264.0,253.0,3327.247
3327257.0,219.0,33.0,270.0,246.0,3327.257
3327267.0,220.0,33.0,261.0,246.0,3327.267
3327277.0,213.0,32.0,267.0,241.0,3327.277
3327287.0,222.0,32.0,274.0,251.0,3327.287
3327297.0,225.0,33.0,270.0,253.0,3327.297
3327307.0,218.0,33.0,279.0,246.0,3327.307
3327318.0,219.0,33.0,270.0,247.0,3327.318
3327328.0,218.0,32.0,278.0,247.0,3327.328
3327338.0,223.0,33.0,284.0,253.0,3327.338
3327348.0,223.0,33.0,271.0,250.0,3327.348
3327358.0,214.0,32.0,281.0,243.0,3327.358
3327368.0,218.0,32.0,274.0,246.0,3327.368
3327378.0,219.0,32.0,282.0,249.0,3327.378
3327388.0,221.0,33.0,290.0,252.0,3327.388
3327398.0,221.0,33.0,276.0,249.0,3327.398
3327408.0,215.0,32.0,290.0,246.0,3327.408
3327418.0,217.0,32.0,280.0,247.0,3327.418
3327428.0,219.0,32.0,289.0,252.0,3327.428
3327438.0,222.0,32.0,296.0,253.0,3327.438
3327448.0,224.0,33.0,283.0,253.0,3327.448
3327458.0,215.0,32.0,296.0,245.0,3327.458
3327468.0,218.0,32.0,287.0,247.0,3327.468
3327478.0,221.0,32.0,295.0,252.0,3327.478
3327488.0,222.0,33.0,304.0,255.0,3327.488
3327498.0,224.0,32.0,290.0,254.0,3327.498
3327508.0,216.0,31.0,304.0,246.0,3327.508
3327518.0,217.0,33.0,295.0,249.0,3327.518
3327528.0,222.0,32.0,303.0,256.0,3327.528
3327538.0,222.0,33.0,311.0,256.0,3327.538
3327548.0,224.0,32.0,296.0,252.0,3327.548
3327558.0,214.0,32.0,311.0,244.0,3327.558
3327568.0,218.0,32.0,301.0,247.0,3327.568
3327578.0,218.0,32.0,309.0,249.0,3327.578
3327588.0,222.0,31.0,317.0,251.0,3327.588
3327598.0,222.0,33.0,301.0,250.0,3327.598
3327608.0,213.0,31.0,314.0,242.0,3327.608
3327618.0,217.0,32.0,303.0,246.0,3327.618
3327628.0,218.0,32.0,311.0,250.0,3327.628
3327638.0,222.0,31.0,318.0,253.0,3327.638
3327648.0,222.0,32.0,302.0,250.0,3327.648
3327659.0,214.0,32.0,315.0,244.0,3327.659
3327669.0,217.0,32.0,306.0,248.0,3327.669
3327679.0,223.0,32.0,309.0,256.0,3327.679
3327689.0,220.0,32.0,316.0,251.0,3327.689
3327699.0,220.0,31.0,301.0,250.0,3327.699
3327709.0,213.0,31.0,310.0,244.0,3327.709
3327719.0,218.0,32.0,305.0,252.0,3327.719
3327729.0,223.0,33.0,307.0,258.0,3327.729
3327739.0,219.0,32.0,314.0,251.0,3327.739
3327749.0,221.0,32.0,297.0,252.0,3327.749
3327759.0,213.0,32.0,307.0,243.0,3327.759
3327769.0,218.0,32.0,302.0,252.0,3327.769
3327779.0,224.0,33.0,301.0,256.0,3327.779
3327789.0,222.0,32.0,309.0,254.0,3327.789
3327799.0,220.0,32.0,293.0,250.0,3327.799
3327809.0,214.0,32.0,300.0,240.0,3327.809
3327819.0,221.0,32.0,302.0,251.0,3327.819
3327830.0,226.0,31.0,298.0,254.0,3327.83
3327840.0,220.0,32.0,305.0,248.0,3327.84
3327850.0,220.0,32.0,293.0,248.0,3327.85
3327860.0,217.0,33.0,299.0,246.0,3327.86
3327870.0,223.0,32.0,304.0,251.0,3327.87
3327880.0,225.0,32.0,293.0,252.0,3327.88
3327890.0,220.0,32.0,301.0,245.0,3327.89
3327900.0,219.0,32.0,288.0,246.0,3327.9
3327910.0,218.0,32.0,294.0,246.0,3327.91
3327920.0,222.0,32.0,295.0,251.0,3327.92
3327930.0,225.0,33.0,288.0,253.0,3327.93
3327940.0,219.0,32.0,296.0,246.0,3327.94
3327950.0,221.0,32.0,285.0,248.0,3327.95
3327960.0,214.0,32.0,288.0,242.0,3327.96
3327970.0,222.0,32.0,293.0,252.0,3327.97
3327980.0,224.0,33.0,287.0,254.0,3327.98
3327990.0,217.0,33.0,292.0,246.0,3327.99
3328000.0,220.0,33.0,281.0,248.0,3328.0
3328010.0,215.0,33.0,287.0,244.0,3328.01
3328020.0,223.0,31.0,295.0,252.0,3328.02
3328030.0,224.0,33.0,283.0,253.0,3328.03
3328040.0,217.0,32.0,291.0,245.0,3328.04
3328050.0,220.0,33.0,281.0,249.0,3328.05
3328060.0,216.0,32.0,286.0,246.0,3328.06
3328070.0,223.0,33.0,290.0,253.0,3328.07
3328080.0,225.0,33.0,280.0,253.0,3328.08
3328090.0,219.0,32.0,289.0,248.0,3328.09
3328100.0,220.0,32.0,277.0,248.0,3328.1
3328110.0,217.0,33.0,284.0,249.0,3328.11
3328120.0,223.0,32.0,291.0,255.0,3328.12
3328130.0,226.0,33.0,282.0,255.0,3328.13
3328140.0,218.0,32.0,288.0,247.0,3328.14
3328150.0,220.0,33.0,277.0,247.0,3328.15
3328160.0,218.0,32.0,283.0,248.0,3328.16
3328171.0,224.0,32.0,288.0,254.0,3328.171
3328181.0,225.0,34.0,274.0,250.0,3328.181
3328191.0,217.0,32.0,283.0,243.0,3328.191
3328201.0,219.0,33.0,275.0,247.0,3328.201
3328211.0,225.0,33.0,284.0,254.0,3328.211
3328221.0,224.0,32.0,287.0,253.0,3328.221
3328231.0,223.0,33.0,272.0,249.0,3328.231
3328241.0,215.0,33.0,278.0,242.0,3328.241
3328251.0,219.0,32.0,272.0,246.0,3328.251
3328261.0,221.0,33.0,276.0,250.0,3328.261
3328271.0,225.0,33.0,283.0,253.0,3328.271
3328281.0,223.0,33.0,271.0,251.0,3328.281
3328291.0,216.0,33.0,276.0,242.0,3328.291
3328301.0,219.0,33.0,270.0,248.0,3328.301
3328311.0,223.0,34.0,275.0,252.0,3328.311
3328321.0,224.0,32.0,280.0,253.0,3328.321
3328331.0,222.0,33.0,265.0,249.0,3328.331
3328342.0,216.0,33.0,271.0,241.0,3328.342
3328352.0,220.0,33.0,270.0,250.0,3328.352
3328362.0,226.0,32.0,272.0,254.0,3328.362
3328372.0,221.0,33.0,276.0,249.0,3328.372
3328382.0,221.0,32.0,267.0,249.0,3328.382
3328392.0,215.0,33.0,268.0,242.0,3328.392
3328402.0,222.0,33.0,270.0,251.0,3328.402
3328412.0,227.0,33.0,270.0,255.0,3328.412
3328422.0,223.0,32.0,273.0,249.0,3328.422
3328432.0,224.0,33.0,263.0,251.0,3328.432
3328442.0,217.0,32.0,267.0,242.0,3328.442
3328452.0,223.0,32.0,271.0,252.0,3328.452
3328462.0,228.0,33.0,270.0,256.0,3328.462
3328472.0,225.0,33.0,277.0,253.0,3328.472
3328482.0,223.0,33.0,265.0,252.0,3328.482
3328492.0,216.0,32.0,268.0,243.0,3328.492
3328502.0,225.0,33.0,273.0,253.0,3328.502
3328512.0,228.0,32.0,273.0,255.0,3328.512
