time (ms),signal 0,signal 1,signal 2,signal 3,time (sec)
3285059.0,215.0,32.0,276.0,244.0,3285.059
3285069.0,209.0,32.0,286.0,236.0,3285.069
3285079.0,213.0,33.0,280.0,242.0,3285.079
3285089.0,218.0,33.0,287.0,250.0,3285.089
3285099.0,215.0,33.0,295.0,246.0,3285.099
3285109.0,215.0,32.0,281.0,244.0,3285.109
3285120.0,208.0,32.0,289.0,238.0,3285.12
3285130.0,216.0,33.0,293.0,247.0,3285.13
3285140.0,219.0,33.0,286.0,250.0,3285.14
3285150.0,213.0,32.0,297.0,242.0,3285.15
3285160.0,213.0,33.0,285.0,244.0,3285.16
3285170.0,208.0,32.0,291.0,238.0,3285.17
3285180.0,218.0,32.0,298.0,249.0,3285.18
3285190.0,220.0,33.0,288.0,249.0,3285.19
3285200.0,213.0,31.0,298.0,241.0,3285.2
3285210.0,214.0,33.0,285.0,243.0,3285.21
3285220.0,209.0,32.0,294.0,239.0,3285.22
3285230.0,218.0,33.0,301.0,248.0,3285.23
3285240.0,220.0,32.0,287.0,247.0,3285.24
3285250.0,214.0,32.0,300.0,243.0,3285.25
3285260.0,215.0,32.0,287.0,243.0,3285.26
3285270.0,211.0,32.0,294.0,240.0,3285.27
3285280.0,218.0,32.0,300.0,248.0,3285.28
3285291.0,221.0,33.0,287.0,247.0,3285.291
3285301.0,212.0,32.0,298.0,238.0,3285.301
3285311.0,213.0,32.0,287.0,241.0,3285.311
3285321.0,218.0,32.0,294.0,245.0,3285.321
3285331.0,218.0,32.0,302.0,246.0,3285.331
3285341.0,220.0,32.0,286.0,247.0,3285.341
3285351.0,213.0,33.0,298.0,239.0,3285.351
3285361.0,215.0,32.0,288.0,240.0,3285.361
3285371.0,219.0,32.0,295.0,247.0,3285.371
3285381.0,220.0,31.0,301.0,247.0,3285.381
3285391.0,221.0,32.0,286.0,246.0,3285.391
3285401.0,212.0,31.0,299.0,236.0,3285.401
3285411.0,215.0,32.0,290.0,242.0,3285.411
3285421.0,216.0,33.0,299.0,245.0,3285.421
3285431.0,220.0,31.0,307.0,249.0,3285.431
3285441.0,220.0,32.0,291.0,247.0,3285.441
3285451.0,213.0,31.0,307.0,238.0,3285.451
3285462.0,214.0,31.0,299.0,243.0,3285.462
3285472.0,221.0,32.0,305.0,249.0,3285.472
3285482.0,218.0,33.0,313.0,245.0,3285.482
3285492.0,218.0,31.0,299.0,246.0,3285.492
3285502.0,209.0,31.0,311.0,239.0,3285.502
3285512.0,216.0,32.0,308.0,244.0,3285.512
3285522.0,221.0,31.0,310.0,251.0,3285.522
3285532.0,218.0,32.0,319.0,247.0,3285.532
3285542.0,217.0,32.0,304.0,247.0,3285.542
3285552.0,211.0,32.0,318.0,240.0,3285.552
3285562.0,216.0,31.0,313.0,248.0,3285.562
3285572.0,222.0,32.0,313.0,254.0,3285.572
3285582.0,219.0,31.0,323.0,249.0,3285.582
3285592.0,218.0,32.0,307.0,250.0,3285.592
3285602.0,211.0,31.0,321.0,242.0,3285.602
3285612.0,217.0,32.0,317.0,251.0,3285.612
3285622.0,223.0,30.0,314.0,254.0,3285.622
3285632.0,219.0,31.0,325.0,252.0,3285.632
3285642.0,220.0,32.0,308.0,248.0,3285.642
3285652.0,210.0,31.0,317.0,242.0,3285.652
3285662.0,217.0,32.0,319.0,252.0,3285.662
3285672.0,222.0,33.0,313.0,255.0,3285.672
3285682.0,219.0,32.0,326.0,253.0,3285.682
3285692.0,219.0,32.0,308.0,250.0,3285.692
3285702.0,211.0,31.0,317.0,243.0,3285.702
3285712.0,220.0,31.0,318.0,255.0,3285.712
3285722.0,222.0,32.0,315.0,256.0,3285.722
3285732.0,219.0,32.0,324.0,252.0,3285.732
3285742.0,219.0,32.0,308.0,251.0,3285.742
3285752.0,211.0,32.0,318.0,246.0,3285.752
3285762.0,217.0,32.0,314.0,251.0,3285.762
3285772.0,224.0,32.0,317.0,258.0,3285.772
3285782.0,218.0,32.0,325.0,254.0,3285.782
3285792.0,218.0,32.0,308.0,252.0,3285.792
3285803.0,211.0,33.0,317.0,250.0,3285.803
3285813.0,220.0,32.0,323.0,259.0,3285.813
3285823.0,221.0,32.0,309.0,257.0,3285.823
3285833.0,215.0,31.0,322.0,251.0,3285.833
3285843.0,216.0,31.0,309.0,251.0,3285.843
3285853.0,212.0,31.0,316.0,249.0,3285.853
3285863.0,220.0,32.0,324.0,259.0,3285.863
3285873.0,223.0,32.0,308.0,256.0,3285.873
3285883.0,214.0,31.0,322.0,248.0,3285.883
3285893.0,218.0,31.0,308.0,252.0,3285.893
3285903.0,215.0,31.0,317.0,251.0,3285.903
3285913.0,221.0,32.0,323.0,258.0,3285.913
3285923.0,222.0,32.0,307.0,255.0,3285.923
3285933.0,215.0,33.0,322.0,251.0,3285.933
3285943.0,217.0,32.0,309.0,250.0,3285.943
3285953.0,215.0,32.0,317.0,250.0,3285.953
3285963.0,221.0,32.0,323.0,257.0,3285.963
3285974.0,222.0,32.0,305.0,254.0,3285.974
3285984.0,212.0,31.0,318.0,247.0,3285.984
3285994.0,215.0,32.0,307.0,251.0,3285.994
3286004.0,219.0,32.0,314.0,256.0,3286.004
3286014.0,218.0,31.0,319.0,255.0,3286.014
3286024.0,221.0,32.0,303.0,254.0,3286.024
3286034.0,212.0,31.0,314.0,247.0,3286.034
3286044.0,215.0,31.0,306.0,251.0,3286.044
3286054.0,221.0,32.0,311.0,258.0,3286.054
3286064.0,219.0,32.0,318.0,258.0,3286.064
3286074.0,220.0,32.0,300.0,254.0,3286.074
3286084.0,211.0,31.0,312.0,246.0,3286.084
3286094.0,216.0,31.0,305.0,250.0,3286.094
3286104.0,218.0,32.0,309.0,253.0,3286.104
3286114.0,220.0,31.0,315.0,256.0,3286.114
3286124.0,219.0,33.0,297.0,253.0,3286.124
3286134.0,211.0,32.0,307.0,242.0,3286.134
3286144.0,215.0,32.0,297.0,247.0,3286.144
3286154.0,220.0,32.0,305.0,253.0,3286.154
3286164.0,220.0,31.0,311.0,253.0,3286.164
3286174.0,219.0,32.0,295.0,251.0,3286.174
3286184.0,211.0,32.0,303.0,244.0,3286.184
3286194.0,217.0,32.0,296.0,248.0,3286.194
3286204.0,221.0,32.0,301.0,255.0,3286.204
3286214.0,220.0,32.0,306.0,253.0,3286.214
3286224.0,220.0,31.0,291.0,250.0,3286.224
3286234.0,212.0,32.0,301.0,244.0,3286.234
3286244.0,216.0,32.0,293.0,247.0,3286.244
3286254.0,221.0,33.0,299.0,256.0,3286.254
3286264.0,219.0,32.0,307.0,253.0,3286.264
3286274.0,219.0,32.0,291.0,252.0,3286.274
3286284.0,212.0,32.0,304.0,244.0,3286.284
3286294.0,215.0,32.0,296.0,249.0,3286.294
3286304.0,222.0,32.0,303.0,255.0,3286.304
3286315.0,219.0,32.0,310.0,251.0,3286.315
3286325.0,218.0,32.0,294.0,250.0,3286.325
3286335.0,211.0,32.0,301.0,243.0,3286.335
3286345.0,220.0,32.0,307.0,253.0,3286.345
3286355.0,223.0,31.0,298.0,255.0,3286.355
3286365.0,218.0,32.0,310.0,249.0,3286.365
3286375.0,218.0,32.0,295.0,248.0,3286.375
3286385.0,212.0,32.0,302.0,244.0,3286.385
3286395.0,222.0,32.0,310.0,254.0,3286.395
3286405.0,224.0,32.0,302.0,254.0,3286.405
3286415.0,219.0,31.0,310.0,248.0,3286.415
3286425.0,218.0,32.0,295.0,248.0,3286.425
3286435.0,214.0,32.0,303.0,244.0,3286.435
3286445.0,218.0,33.0,302.0,249.0,3286.445
3286455.0,223.0,32.0,299.0,252.0,3286.455
3286465.0,218.0,31.0,310.0,246.0,3286.465
3286475.0,220.0,32.0,299.0,246.0,3286.475
3286486.0,216.0,31.0,307.0,245.0,3286.486
3286496.0,220.0,32.0,312.0,249.0,3286.496
3286506.0,222.0,33.0,297.0,249.0,3286.506
3286516.0,215.0,32.0,311.0,243.0,3286.516
3286526.0,213.0,32.0,302.0,244.0,3286.526
3286536.0,211.0,32.0,308.0,244.0,3286.536
3286546.0,222.0,31.0,318.0,253.0,3286.546
3286556.0,218.0,32.0,300.0,242.0,3286.556
3286566.0,218.0,31.0,310.0,237.0,3286.566
3286576.0,223.0,33.0,297.0,240.0,3286.576
3286586.0,228.0,32.0,311.0,245.0,3286.586
3286596.0,241.0,31.0,315.0,250.0,3286.596
3286606.0,243.0,32.0,306.0,252.0,3286.606
3286616.0,232.0,31.0,321.0,253.0,3286.616
3286626.0,226.0,32.0,302.0,242.0,3286.626
3286636.0,220.0,33.0,308.0,242.0,3286.636
3286646.0,223.0,32.0,315.0,244.0,3286.646
3286656.0,230.0,32.0,310.0,253.0,3286.656
3286666.0,219.0,32.0,326.0,251.0,3286.666
3286676.0,225.0,31.0,320.0,255.0,3286.676
3286686.0,230.0,32.0,338.0,274.0,3286.686
3286696.0,225.0,32.0,344.0,275.0,3286.696
3286706.0,236.0,33.0,328.0,274.0,3286.706
3286716.0,225.0,32.0,347.0,270.0,3286.716
3286726.0,230.0,32.0,341.0,270.0,3286.726
3286736.0,235.0,32.0,356.0,281.0,3286.736
3286746.0,240.0,32.0,366.0,285.0,3286.746
3286756.0,243.0,33.0,347.0,278.0,3286.756
3286766.0,236.0,33.0,368.0,272.0,3286.766
3286776.0,232.0,32.0,354.0,269.0,3286.776
3286786.0,228.0,32.0,365.0,268.0,3286.786
3286796.0,230.0,32.0,379.0,273.0,3286.796
3286806.0,243.0,31.0,362.0,276.0,3286.806
3286816.0,240.0,32.0,392.0,274.0,3286.816
3286827.0,231.0,32.0,369.0,270.0,3286.827
3286837.0,236.0,33.0,371.0,271.0,3286.837
3286847.0,228.0,32.0,386.0,270.0,3286.847
3286857.0,233.0,32.0,368.0,268.0,3286.857
3286867.0,233.0,31.0,385.0,263.0,3286.867
3286877.0,244.0,32.0,380.0,273.0,3286.877
3286887.0,254.0,33.0,385.0,281.0,3286.887
3286897.0,251.0,33.0,401.0,281.0,3286.897
3286907.0,251.0,32.0,382.0,279.0,3286.907
3286917.0,248.0,32.0,405.0,278.0,3286.917
3286927.0,251.0,33.0,393.0,276.0,3286.927
3286937.0,263.0,33.0,394.0,285.0,3286.937
3286947.0,251.0,32.0,407.0,276.0,3286.947
3286957.0,249.0,33.0,381.0,271.0,3286.957
3286967.0,240.0,32.0,401.0,258.0,3286.967
3286977.0,250.0,32.0,394.0,264.0,3286.977
3286987.0,255.0,33.0,392.0,269.0,3286.987
3286998.0,250.0,31.0,411.0,264.0,3286.998
3287008.0,249.0,33.0,388.0,262.0,3287.008
3287018.0,240.0,32.0,405.0,256.0,3287.018
3287028.0,250.0,33.0,415.0,268.0,3287.028
3287038.0,251.0,32.0,396.0,263.0,3287.038
3287048.0,239.0,32.0,421.0,255.0,3287.048
3287058.0,242.0,32.0,404.0,257.0,3287.058
3287068.0,240.0,32.0,425.0,260.0,3287.068
3287078.0,250.0,32.0,434.0,268.0,3287.078
3287088.0,254.0,34.0,420.0,272.0,3287.088
3287098.0,244.0,32.0,450.0,264.0,3287.098
3287108.0,244.0,33.0,431.0,268.0,3287.108
3287118.0,240.0,33.0,446.0,263.0,3287.118
3287128.0,243.0,33.0,451.0,266.0,3287.128
3287138.0,252.0,33.0,440.0,273.0,3287.138
3287148.0,244.0,32.0,468.0,258.0,3287.148
3287158.0,244.0,32.0,448.0,258.0,3287.158
3287168.0,240.0,32.0,468.0,256.0,3287.168
3287178.0,248.0,33.0,471.0,269.0,3287.178
3287188.0,257.0,33.0,454.0,274.0,3287.188
3287198.0,244.0,33.0,481.0,263.0,3287.198
3287208.0,245.0,32.0,460.0,265.0,3287.208
3287218.0,246.0,33.0,480.0,264.0,3287.218
3287228.0,261.0,32.0,484.0,271.0,3287.228
3287238.0,259.0,33.0,465.0,274.0,3287.238
3287248.0,247.0,32.0,495.0,265.0,3287.248
3287258.0,245.0,33.0,471.0,265.0,3287.258
3287268.0,238.0,34.0,486.0,260.0,3287.268
3287278.0,250.0,33.0,493.0,269.0,3287.278
3287288.0,248.0,33.0,468.0,267.0,3287.288
3287298.0,242.0,32.0,498.0,262.0,3287.298
3287308.0,249.0,32.0,477.0,264.0,3287.308
3287318.0,250.0,31.0,494.0,260.0,3287.318
3287328.0,254.0,32.0,499.0,266.0,3287.328
3287339.0,251.0,33.0,475.0,264.0,3287.339
3287349.0,241.0,33.0,508.0,253.0,3287.349
3287359.0,246.0,32.0,490.0,258.0,3287.359
3287369.0,247.0,33.0,493.0,263.0,3287.369
3287379.0,250.0,32.0,512.0,262.0,3287.379
3287389.0,260.0,33.0,487.0,265.0,3287.389
3287399.0,250.0,32.0,518.0,256.0,3287.399
3287409.0,250.0,33.0,499.0,261.0,3287.409
3287419.0,253.0,32.0,501.0,266.0,3287.419
3287429.0,248.0,32.0,519.0,259.0,3287.429
3287439.0,248.0,33.0,495.0,258.0,3287.439
3287449.0,236.0,32.0,524.0,250.0,3287.449
3287459.0,235.0,34.0,506.0,255.0,3287.459
3287469.0,239.0,33.0,513.0,260.0,3287.469
3287479.0,243.0,33.0,525.0,258.0,3287.479
3287489.0,242.0,33.0,500.0,257.0,3287.489
3287499.0,231.0,32.0,529.0,248.0,3287.499
3287510.0,234.0,32.0,513.0,255.0,3287.51
3287520.0,238.0,32.0,508.0,262.0,3287.52
3287530.0,231.0,32.0,532.0,257.0,3287.53
3287540.0,236.0,34.0,504.0,258.0,3287.54
3287550.0,228.0,32.0,528.0,252.0,3287.55
3287560.0,236.0,32.0,516.0,260.0,3287.56
3287570.0,251.0,33.0,507.0,265.0,3287.57
3287580.0,244.0,31.0,527.0,260.0,3287.58
3287590.0,248.0,33.0,502.0,262.0,3287.59
3287600.0,238.0,33.0,524.0,255.0,3287.6
3287610.0,242.0,32.0,509.0,261.0,3287.61
3287620.0,247.0,32.0,496.0,263.0,3287.62
3287630.0,241.0,32.0,519.0,259.0,3287.63
3287640.0,248.0,32.0,488.0,263.0,3287.64
3287650.0,233.0,32.0,509.0,255.0,3287.65
3287660.0,246.0,32.0,500.0,267.0,3287.66
3287670.0,255.0,34.0,483.0,271.0,3287.67
3287680.0,250.0,32.0,503.0,266.0,3287.68
3287690.0,249.0,33.0,475.0,266.0,3287.69
3287700.0,238.0,32.0,494.0,259.0,3287.7
3287710.0,245.0,31.0,485.0,270.0,3287.71
3287720.0,249.0,32.0,466.0,270.0,3287.72
3287730.0,243.0,32.0,487.0,265.0,3287.73
3287740.0,241.0,32.0,461.0,264.0,3287.74
3287750.0,236.0,32.0,474.0,257.0,3287.75
3287760.0,243.0,32.0,472.0,268.0,3287.76
3287770.0,246.0,31.0,456.0,270.0,3287.77
3287780.0,240.0,32.0,472.0,263.0,3287.78
3287790.0,241.0,32.0,446.0,263.0,3287.79
3287800.0,233.0,32.0,461.0,258.0,3287.8
3287810.0,236.0,32.0,453.0,262.0,3287.81
3287820.0,242.0,32.0,445.0,268.0,3287.82
3287830.0,233.0,31.0,463.0,258.0,3287.83
3287840.0,234.0,31.0,438.0,258.0,3287.84
3287851.0,229.0,31.0,454.0,255.0,3287.851
3287861.0,240.0,32.0,458.0,265.0,3287.861
3287871.0,243.0,32.0,435.0,266.0,3287.871
3287881.0,232.0,31.0,460.0,256.0,3287.881
3287891.0,236.0,32.0,442.0,259.0,3287.891
3287901.0,234.0,31.0,453.0,259.0,3287.901
3287911.0,240.0,31.0,458.0,265.0,3287.911
3287921.0,241.0,32.0,435.0,264.0,3287.921
3287931.0,230.0,31.0,460.0,254.0,3287.931
3287941.0,237.0,30.0,437.0,258.0,3287.941
3287951.0,234.0,31.0,449.0,257.0,3287.951
3287961.0,241.0,31.0,455.0,262.0,3287.961
3287971.0,243.0,32.0,430.0,261.0,3287.971
3287981.0,234.0,31.0,453.0,255.0,3287.981
3287991.0,236.0,32.0,431.0,257.0,3287.991
3288001.0,235.0,30.0,441.0,258.0,3288.001
3288011.0,238.0,31.0,445.0,263.0,3288.011
3288022.0,240.0,31.0,419.0,260.0,3288.022
3288032.0,230.0,30.0,436.0,251.0,3288.032
3288042.0,232.0,32.0,417.0,256.0,3288.042
3288052.0,240.0,32.0,414.0,264.0,3288.052
3288062.0,235.0,30.0,420.0,258.0,3288.062
3288072.0,238.0,31.0,393.0,260.0,3288.072
3288082.0,228.0,31.0,405.0,250.0,3288.082
3288092.0,232.0,31.0,387.0,256.0,3288.092
3288102.0,238.0,32.0,384.0,263.0,3288.102
3288112.0,235.0,31.0,384.0,261.0,3288.112
3288122.0,235.0,32.0,359.0,258.0,3288.122
3288132.0,226.0,30.0,363.0,249.0,3288.132
3288142.0,231.0,31.0,352.0,256.0,3288.142
3288152.0,237.0,31.0,347.0,259.0,3288.152
3288162.0,235.0,31.0,344.0,258.0,3288.162
3288172.0,235.0,31.0,324.0,256.0,3288.172
3288182.0,225.0,32.0,321.0,247.0,3288.182
3288192.0,230.0,30.0,309.0,250.0,3288.192
3288202.0,234.0,31.0,309.0,257.0,3288.202
3288212.0,232.0,31.0,304.0,255.0,3288.212
3288222.0,232.0,31.0,288.0,253.0,3288.222
3288232.0,222.0,30.0,281.0,243.0,3288.232
3288242.0,228.0,32.0,275.0,251.0,3288.242
3288252.0,234.0,32.0,277.0,256.0,3288.252
3288262.0,230.0,30.0,270.0,252.0,3288.262
3288272.0,230.0,32.0,260.0,252.0,3288.272
3288282.0,223.0,31.0,252.0,244.0,3288.282
3288292.0,226.0,32.0,250.0,250.0,3288.292
3288302.0,232.0,32.0,253.0,257.0,3288.302
3288312.0,227.0,33.0,244.0,252.0,3288.312
3288322.0,230.0,32.0,240.0,252.0,3288.322
3288332.0,219.0,31.0,223.0,239.0,3288.332
3288342.0,225.0,32.0,228.0,248.0,3288.342
3288352.0,231.0,32.0,234.0,255.0,3288.352
3288363.0,227.0,31.0,222.0,248.0,3288.363
3288373.0,227.0,33.0,222.0,248.0,3288.373
3288383.0,221.0,32.0,212.0,240.0,3288.383
3288393.0,228.0,32.0,220.0,250.0,3288.393
3288403.0,231.0,33.0,227.0,253.0,3288.403
3288413.0,226.0,31.0,212.0,246.0,3288.413
3288423.0,225.0,32.0,215.0,245.0,3288.423
3288433.0,220.0,33.0,206.0,241.0,3288.433
3288443.0,229.0,33.0,215.0,248.0,3288.443
3288453.0,232.0,32.0,224.0,252.0,3288.453
3288463.0,225.0,32.0,207.0,245.0,3288.463
3288473.0,227.0,33.0,218.0,245.0,3288.473
3288483.0,221.0,33.0,212.0,243.0,3288.483
3288493.0,226.0,32.0,217.0,249.0,3288.493
3288503.0,231.0,34.0,232.0,253.0,3288.503
3288513.0,223.0,32.0,213.0,245.0,3288.513
3288523.0,224.0,33.0,226.0,247.0,3288.523
3288534.0,221.0,33.0,225.0,246.0,3288.534
3288544.0,226.0,33.0,226.0,252.0,3288.544
3288554.0,228.0,33.0,244.0,250.0,3288.554
3288564.0,219.0,33.0,222.0,242.0,3288.564
3288574.0,221.0,32.0,235.0,244.0,3288.574
3288584.0,221.0,32.0,239.0,247.0,3288.584
3288594.0,225.0,32.0,237.0,253.0,3288.594
3288604.0,227.0,34.0,258.0,251.0,3288.604
3288614.0,217.0,32.0,236.0,242.0,3288.614
3288624.0,221.0,32.0,254.0,247.0,3288.624
3288634.0,221.0,33.0,255.0,249.0,3288.634
3288644.0,224.0,32.0,249.0,251.0,3288.644
3288654.0,223.0,34.0,269.0,249.0,3288.654
3288664.0,218.0,32.0,248.0,243.0,3288.664
3288674.0,219.0,33.0,264.0,247.0,3288.674
3288684.0,221.0,33.0,268.0,251.0,3288.684
3288694.0,225.0,33.0,259.0,254.0,3288.694
3288704.0,226.0,34.0,285.0,253.0,3288.704
3288714.0,217.0,32.0,258.0,245.0,3288.714
3288724.0,221.0,33.0,276.0,246.0,3288.724
3288734.0,223.0,32.0,281.0,252.0,3288.734
3288744.0,224.0,32.0,268.0,252.0,3288.744
3288754.0,226.0,33.0,291.0,253.0,3288.754
3288764.0,217.0,32.0,264.0,246.0,3288.764
3288774.0,219.0,32.0,277.0,248.0,3288.774
3288784.0,223.0,33.0,285.0,254.0,3288.784
3288794.0,225.0,32.0,272.0,254.0,3288.794
3288804.0,224.0,33.0,291.0,252.0,3288.804
3288814.0,214.0,32.0,264.0,244.0,3288.814
3288824.0,216.0,33.0,275.0,249.0,3288.824
3288834.0,218.0,32.0,276.0,250.0,3288.834
3288844.0,221.0,32.0,268.0,254.0,3288.844
3288854.0,222.0,32.0,289.0,251.0,3288.854
3288864.0,214.0,33.0,260.0,244.0,3288.864
3288875.0,216.0,33.0,271.0,249.0,3288.875
3288885.0,223.0,33.0,284.0,256.0,3288.885
3288895.0,221.0,32.0,264.0,252.0,3288.895
3288905.0,220.0,32.0,281.0,249.0,3288.905
3288915.0,212.0,32.0,262.0,243.0,3288.915
3288925.0,218.0,31.0,270.0,250.0,3288.925
3288935.0,222.0,32.0,282.0,255.0,3288.935
3288945.0,218.0,32.0,259.0,251.0,3288.945
3288955.0,217.0,33.0,276.0,250.0,3288.955
3288965.0,211.0,32.0,255.0,242.0,3288.965
3288975.0,217.0,32.0,268.0,250.0,3288.975
3288985.0,224.0,32.0,283.0,255.0,3288.985
3288995.0,218.0,31.0,259.0,250.0,3288.995
3289005.0,220.0,32.0,283.0,251.0,3289.005
3289015.0,211.0,32.0,259.0,244.0,3289.015
3289025.0,217.0,32.0,271.0,252.0,3289.025
3289035.0,224.0,32.0,286.0,257.0,3289.035
3289046.0,218.0,32.0,263.0,251.0,3289.046
3289056.0,219.0,31.0,281.0,251.0,3289.056
3289066.0,213.0,32.0,268.0,249.0,3289.066
3289076.0,221.0,32.0,272.0,258.0,3289.076
3289086.0,223.0,33.0,289.0,256.0,3289.086
3289096.0,218.0,31.0,263.0,251.0,3289.096
3289106.0,219.0,31.0,278.0,250.0,3289.106
3289116.0,217.0,31.0,270.0,250.0,3289.116
3289126.0,220.0,31.0,266.0,257.0,3289.126
3289136.0,223.0,32.0,284.0,257.0,3289.136
3289146.0,216.0,33.0,257.0,248.0,3289.146
3289156.0,217.0,32.0,269.0,248.0,3289.156
3289166.0,216.0,32.0,264.0,249.0,3289.166
3289176.0,221.0,32.0,263.0,252.0,3289.176
3289186.0,223.0,32.0,276.0,253.0,3289.186
3289196.0,215.0,31.0,249.0,246.0,3289.196
3289206.0,217.0,32.0,260.0,248.0,3289.206
3289216.0,213.0,32.0,247.0,245.0,3289.216
3289226.0,221.0,32.0,253.0,254.0,3289.226
3289236.0,223.0,32.0,264.0,253.0,3289.236
3289246.0,216.0,31.0,239.0,246.0,3289.246
3289256.0,216.0,32.0,246.0,248.0,3289.256
3289266.0,213.0,31.0,238.0,246.0,3289.266
3289276.0,221.0,32.0,242.0,254.0,3289.276
3289286.0,223.0,32.0,250.0,254.0,3289.286
3289296.0,215.0,32.0,228.0,245.0,3289.296
3289306.0,219.0,32.0,239.0,248.0,3289.306
3289316.0,215.0,31.0,229.0,246.0,3289.316
3289326.0,222.0,31.0,232.0,253.0,3289.326
3289336.0,224.0,33.0,238.0,252.0,3289.336
3289346.0,218.0,31.0,218.0,246.0,3289.346
3289356.0,219.0,32.0,224.0,246.0,3289.356
3289366.0,217.0,32.0,220.0,247.0,3289.366
3289376.0,222.0,31.0,220.0,253.0,3289.376
3289387.0,223.0,33.0,226.0,249.0,3289.387
3289397.0,214.0,32.0,208.0,243.0,3289.397
3289407.0,217.0,32.0,213.0,246.0,3289.407
3289417.0,221.0,32.0,222.0,253.0,3289.417
3289427.0,219.0,31.0,212.0,251.0,3289.427
3289437.0,222.0,33.0,221.0,250.0,3289.437
3289447.0,212.0,32.0,202.0,242.0,3289.447
3289457.0,215.0,32.0,207.0,245.0,3289.457
3289467.0,221.0,33.0,217.0,252.0,3289.467
3289477.0,220.0,32.0,210.0,252.0,3289.477
3289487.0,221.0,32.0,215.0,249.0,3289.487
3289497.0,212.0,32.0,200.0,242.0,3289.497
3289507.0,215.0,31.0,206.0,248.0,3289.507
3289517.0,218.0,32.0,210.0,252.0,3289.517
3289527.0,220.0,33.0,209.0,253.0,3289.527
3289537.0,220.0,32.0,211.0,250.0,3289.537
3289547.0,211.0,31.0,198.0,242.0,3289.547
3289558.0,216.0,32.0,205.0,249.0,3289.558
3289568.0,224.0,31.0,214.0,254.0,3289.568
3289578.0,218.0,32.0,203.0,249.0,3289.578
3289588.0,218.0,32.0,205.0,248.0,3289.588
3289598.0,211.0,33.0,199.0,245.0,3289.598
3289608.0,217.0,32.0,205.0,250.0,3289.608
3289618.0,223.0,32.0,212.0,256.0,3289.618
3289628.0,217.0,31.0,201.0,249.0,3289.628
3289638.0,217.0,33.0,202.0,248.0,3289.638
3289648.0,211.0,32.0,194.0,241.0,3289.648
3289658.0,218.0,33.0,205.0,252.0,3289.658
3289668.0,223.0,32.0,212.0,254.0,3289.668
3289678.0,216.0,32.0,202.0,248.0,3289.678
3289688.0,219.0,32.0,207.0,249.0,3289.688
3289698.0,212.0,32.0,196.0,240.0,3289.698
3289708.0,219.0,33.0,206.0,249.0,3289.708
3289718.0,224.0,33.0,213.0,253.0,3289.718
3289728.0,219.0,33.0,204.0,249.0,3289.728
3289738.0,220.0,32.0,207.0,247.0,3289.738
3289748.0,212.0,32.0,197.0,241.0,3289.748
3289758.0,221.0,33.0,207.0,251.0,3289.758
3289768.0,224.0,33.0,214.0,255.0,3289.768
3289778.0,219.0,33.0,202.0,249.0,3289.778
3289788.0,219.0,34.0,206.0,249.0,3289.788
3289798.0,213.0,32.0,196.0,244.0,3289.798
3289808.0,221.0,33.0,205.0,253.0,3289.808
3289818.0,224.0,33.0,214.0,254.0,3289.818
3289828.0,219.0,32.0,200.0,249.0,3289.828
3289838.0,218.0,33.0,205.0,247.0,3289.838
3289848.0,214.0,33.0,198.0,246.0,3289.848
3289858.0,220.0,33.0,204.0,251.0,3289.858
3289868.0,224.0,33.0,213.0,254.0,3289.868
3289878.0,218.0,33.0,198.0,248.0,3289.878
3289888.0,219.0,33.0,204.0,247.0,3289.888
3289899.0,214.0,33.0,198.0,245.0,3289.899
3289909.0,222.0,33.0,204.0,253.0,3289.909
3289919.0,223.0,35.0,211.0,252.0,3289.919
3289929.0,215.0,32.0,195.0,244.0,3289.929
3289939.0,216.0,33.0,201.0,247.0,3289.939
3289949.0,217.0,33.0,203.0,249.0,3289.949
3289959.0,222.0,33.0,206.0,253.0,3289.959
3289969.0,222.0,33.0,210.0,249.0,3289.969
3289979.0,215.0,33.0,195.0,243.0,3289.979
3289989.0,218.0,33.0,202.0,246.0,3289.989
3289999.0,218.0,33.0,201.0,248.0,3289.999
3290009.0,223.0,33.0,205.0,253.0,3290.009
3290019.0,223.0,33.0,210.0,250.0,3290.019
3290029.0,218.0,32.0,197.0,245.0,3290.029
3290039.0,217.0,33.0,202.0,246.0,3290.039
3290049.0,218.0,33.0,203.0,248.0,3290.049
3290059.0,223.0,32.0,204.0,252.0,3290.059
3290070.0,221.0,33.0,209.0,250.0,3290.07
3290080.0,216.0,33.0,194.0,241.0,3290.08
3290090.0,218.0,33.0,200.0,247.0,3290.09
3290100.0,224.0,33.0,211.0,253.0,3290.1
3290110.0,221.0,34.0,200.0,249.0,3290.11
3290120.0,222.0,32.0,210.0,248.0,3290.12
3290130.0,214.0,33.0,193.0,241.0,3290.13
3290140.0,220.0,32.0,203.0,247.0,3290.14
3290150.0,224.0,33.0,212.0,253.0,3290.15
3290160.0,222.0,32.0,203.0,251.0,3290.16
3290170.0,221.0,33.0,208.0,249.0,3290.17
3290180.0,215.0,32.0,194.0,240.0,3290.18
3290190.0,219.0,32.0,201.0,247.0,3290.19
3290200.0,221.0,33.0,207.0,251.0,3290.2
3290210.0,222.0,32.0,202.0,249.0,3290.21
3290220.0,220.0,33.0,206.0,248.0,3290.22
3290230.0,213.0,32.0,192.0,240.0,3290.23
3290240.0,218.0,33.0,200.0,247.0,3290.24
3290250.0,223.0,32.0,210.0,252.0,3290.25
3290260.0,222.0,32.0,201.0,250.0,3290.26
3290270.0,221.0,32.0,207.0,248.0,3290.27
3290280.0,214.0,32.0,192.0,241.0,3290.28
3290290.0,219.0,32.0,200.0,247.0,3290.29
3290300.0,225.0,33.0,210.0,255.0,3290.3
3290310.0,223.0,32.0,203.0,250.0,3290.31
3290320.0,221.0,33.0,206.0,250.0,3290.32
3290330.0,217.0,32.0,197.0,243.0,3290.33
3290340.0,221.0,32.0,203.0,249.0,3290.34
3290350.0,226.0,32.0,211.0,256.0,3290.35
3290360.0,223.0,32.0,204.0,252.0,3290.36
3290370.0,223.0,33.0,207.0,251.0,3290.37
3290380.0,216.0,32.0,197.0,242.0,3290.38
3290390.0,221.0,32.0,204.0,251.0,3290.39
3290400.0,226.0,32.0,212.0,255.0,3290.4
3290411.0,222.0,32.0,203.0,250.0,3290.411
3290421.0,221.0,32.0,206.0,249.0,3290.421
3290431.0,217.0,33.0,200.0,246.0,3290.431
3290441.0,225.0,32.0,210.0,254.0,3290.441
3290451.0,225.0,32.0,212.0,254.0,3290.451
3290461.0,222.0,32.0,205.0,248.0,3290.461
3290471.0,220.0,33.0,205.0,249.0,3290.471
3290481.0,217.0,32.0,202.0,247.0,3290.481
3290491.0,225.0,32.0,211.0,256.0,3290.491
3290501.0,225.0,33.0,215.0,256.0,3290.501
3290511.0,220.0,32.0,205.0,249.0,3290.511
3290521.0,220.0,32.0,207.0,249.0,3290.521
3290531.0,218.0,31.0,205.0,249.0,3290.531
3290541.0,221.0,32.0,208.0,253.0,3290.541
3290551.0,225.0,32.0,215.0,255.0,3290.551
3290561.0,218.0,32.0,204.0,246.0,3290.561
3290571.0,219.0,32.0,205.0,247.0,3290.571
3290582.0,218.0,32.0,205.0,249.0,3290.582
3290592.0,224.0,32.0,211.0,253.0,3290.592
3290602.0,222.0,32.0,211.0,250.0,3290.602
3290612.0,215.0,32.0,201.0,242.0,3290.612
3290622.0,218.0,33.0,203.0,246.0,3290.622
3290632.0,219.0,32.0,208.0,248.0,3290.632
3290642.0,222.0,32.0,211.0,252.0,3290.642
3290652.0,221.0,32.0,210.0,249.0,3290.652
3290662.0,214.0,31.0,200.0,242.0,3290.662
3290672.0,218.0,32.0,204.0,246.0,3290.672
3290682.0,220.0,32.0,210.0,251.0,3290.682
3290692.0,222.0,32.0,210.0,252.0,3290.692
3290702.0,221.0,32.0,210.0,248.0,3290.702
3290712.0,215.0,32.0,201.0,245.0,3290.712
3290722.0,217.0,32.0,204.0,247.0,3290.722
3290732.0,220.0,32.0,209.0,252.0,3290.732
3290742.0,221.0,31.0,209.0,253.0,3290.742
3290752.0,223.0,33.0,211.0,253.0,3290.752
3290762.0,214.0,32.0,201.0,244.0,3290.762
3290772.0,216.0,32.0,202.0,247.0,3290.772
3290782.0,220.0,32.0,210.0,254.0,3290.782
3290792.0,220.0,31.0,206.0,253.0,3290.792
3290802.0,221.0,32.0,210.0,252.0,3290.802
3290812.0,214.0,32.0,198.0,246.0,3290.812
3290822.0,215.0,32.0,202.0,248.0,3290.822
3290832.0,221.0,32.0,210.0,254.0,3290.832
3290842.0,221.0,32.0,209.0,255.0,3290.842
3290852.0,221.0,31.0,209.0,250.0,3290.852
3290862.0,213.0,32.0,200.0,243.0,3290.862
3290872.0,215.0,32.0,201.0,246.0,3290.872
3290882.0,217.0,32.0,206.0,249.0,3290.882
3290892.0,221.0,32.0,209.0,252.0,3290.892
3290902.0,219.0,32.0,207.0,249.0,3290.902
3290912.0,213.0,31.0,201.0,242.0,3290.912
3290923.0,216.0,31.0,204.0,248.0,3290.923
3290933.0,223.0,32.0,214.0,253.0,3290.933
3290943.0,220.0,32.0,211.0,251.0,3290.943
3290953.0,218.0,32.0,209.0,247.0,3290.953
3290963.0,213.0,31.0,205.0,243.0,3290.963
3290973.0,218.0,32.0,212.0,249.0,3290.973
3290983.0,224.0,31.0,218.0,255.0,3290.983
3290993.0,219.0,32.0,215.0,249.0,3290.993
3291003.0,219.0,32.0,211.0,249.0,3291.003
3291013.0,213.0,32.0,209.0,242.0,3291.013
3291023.0,219.0,32.0,216.0,250.0,3291.023
3291033.0,223.0,32.0,220.0,255.0,3291.033
3291043.0,220.0,31.0,218.0,250.0,3291.043
3291053.0,220.0,32.0,215.0,251.0,3291.053
3291063.0,213.0,31.0,211.0,241.0,3291.063
3291073.0,220.0,32.0,219.0,252.0,3291.073
3291083.0,225.0,32.0,223.0,254.0,3291.083
3291094.0,218.0,32.0,219.0,248.0,3291.094
3291104.0,219.0,32.0,217.0,247.0,3291.104
3291114.0,215.0,31.0,215.0,247.0,3291.114
3291124.0,222.0,31.0,224.0,253.0,3291.124
3291134.0,223.0,33.0,221.0,253.0,3291.134
3291144.0,218.0,31.0,220.0,248.0,3291.144
3291154.0,218.0,32.0,217.0,248.0,3291.154
3291164.0,217.0,32.0,221.0,249.0,3291.164
3291174.0,223.0,31.0,227.0,254.0,3291.174
3291184.0,224.0,32.0,225.0,255.0,3291.184
3291194.0,218.0,31.0,222.0,248.0,3291.194
3291204.0,219.0,32.0,219.0,248.0,3291.204
3291214.0,219.0,32.0,223.0,250.0,3291.214
3291224.0,222.0,31.0,227.0,255.0,3291.224
3291234.0,224.0,32.0,226.0,254.0,3291.234
3291244.0,218.0,31.0,220.0,249.0,3291.244
3291254.0,219.0,32.0,219.0,249.0,3291.254
3291264.0,215.0,32.0,218.0,249.0,3291.264
3291274.0,223.0,32.0,227.0,254.0,3291.274
3291284.0,224.0,32.0,223.0,253.0,3291.284
3291294.0,217.0,32.0,220.0,246.0,3291.294
3291304.0,219.0,31.0,216.0,246.0,3291.304
3291314.0,216.0,32.0,218.0,246.0,3291.314
3291324.0,223.0,31.0,227.0,255.0,3291.324
3291334.0,223.0,33.0,222.0,253.0,3291.334
3291344.0,217.0,30.0,221.0,246.0,3291.344
3291354.0,219.0,31.0,220.0,249.0,3291.354
3291364.0,218.0,31.0,223.0,249.0,3291.364
3291374.0,223.0,31.0,230.0,256.0,3291.374
3291384.0,222.0,32.0,225.0,251.0,3291.384
3291394.0,219.0,31.0,226.0,248.0,3291.394
3291404.0,219.0,32.0,222.0,247.0,3291.404
3291414.0,219.0,32.0,227.0,250.0,3291.414
3291424.0,225.0,31.0,235.0,255.0,3291.424
3291435.0,224.0,31.0,228.0,251.0,3291.435
3291445.0,217.0,31.0,227.0,245.0,3291.445
3291455.0,219.0,32.0,227.0,249.0,3291.455
3291465.0,225.0,32.0,235.0,255.0,3291.465
3291475.0,223.0,32.0,237.0,253.0,3291.475
3291485.0,223.0,31.0,230.0,252.0,3291.485
3291495.0,217.0,31.0,232.0,246.0,3291.495
3291505.0,218.0,32.0,231.0,252.0,3291.505
3291515.0,225.0,32.0,238.0,258.0,3291.515
3291525.0,224.0,32.0,242.0,257.0,3291.525
3291535.0,223.0,30.0,234.0,252.0,3291.535
3291545.0,215.0,31.0,237.0,246.0,3291.545
3291555.0,221.0,31.0,240.0,253.0,3291.555
3291565.0,223.0,31.0,243.0,256.0,3291.565
3291575.0,224.0,31.0,248.0,257.0,3291.575
3291585.0,223.0,31.0,238.0,252.0,3291.585
3291595.0,215.0,31.0,240.0,246.0,3291.595
3291606.0,220.0,32.0,244.0,254.0,3291.606
3291616.0,225.0,32.0,248.0,259.0,3291.616
3291626.0,221.0,31.0,249.0,255.0,3291.626
3291636.0,220.0,32.0,240.0,253.0,3291.636
3291646.0,216.0,32.0,241.0,252.0,3291.646
3291656.0,221.0,32.0,244.0,255.0,3291.656
3291666.0,225.0,32.0,245.0,258.0,3291.666
3291676.0,219.0,32.0,247.0,255.0,3291.676
3291686.0,220.0,31.0,240.0,253.0,3291.686
3291696.0,213.0,31.0,239.0,248.0,3291.696
3291706.0,221.0,31.0,247.0,259.0,3291.706
3291716.0,225.0,33.0,246.0,261.0,3291.716
3291726.0,219.0,32.0,246.0,255.0,3291.726
3291736.0,220.0,32.0,240.0,255.0,3291.736
3291746.0,214.0,31.0,240.0,250.0,3291.746
3291756.0,222.0,31.0,247.0,260.0,3291.756
3291766.0,225.0,32.0,245.0,260.0,3291.766
3291776.0,221.0,32.0,248.0,260.0,3291.776
3291786.0,219.0,32.0,239.0,255.0,3291.786
3291796.0,214.0,32.0,240.0,252.0,3291.796
3291806.0,222.0,32.0,249.0,261.0,3291.806
3291816.0,225.0,32.0,244.0,259.0,3291.816
3291826.0,220.0,31.0,249.0,256.0,3291.826
3291836.0,220.0,32.0,241.0,255.0,3291.836
3291846.0,214.0,33.0,244.0,253.0,3291.846
3291856.0,223.0,32.0,254.0,260.0,3291.856
3291866.0,224.0,32.0,250.0,261.0,3291.866
3291876.0,221.0,31.0,255.0,256.0,3291.876
3291886.0,219.0,32.0,246.0,255.0,3291.886
3291896.0,216.0,32.0,252.0,254.0,3291.896
3291906.0,221.0,33.0,255.0,260.0,3291.906
3291916.0,225.0,32.0,254.0,260.0,3291.916
3291926.0,217.0,32.0,261.0,255.0,3291.926
3291936.0,218.0,32.0,252.0,253.0,3291.936
3291947.0,217.0,31.0,257.0,252.0,3291.947
3291957.0,222.0,32.0,267.0,259.0,3291.957
3291967.0,222.0,33.0,256.0,256.0,3291.967
3291977.0,214.0,32.0,265.0,249.0,3291.977
3291987.0,217.0,32.0,260.0,251.0,3291.987
3291997.0,217.0,32.0,266.0,253.0,3291.997
3292007.0,223.0,31.0,274.0,258.0,3292.007
3292017.0,222.0,33.0,261.0,254.0,3292.017
3292027.0,214.0,32.0,271.0,249.0,3292.027
3292037.0,217.0,33.0,264.0,253.0,3292.037
3292047.0,218.0,32.0,272.0,255.0,3292.047
3292057.0,221.0,32.0,278.0,258.0,3292.057
3292067.0,222.0,32.0,266.0,254.0,3292.067
3292077.0,215.0,31.0,276.0,251.0,3292.077
3292087.0,217.0,32.0,268.0,251.0,3292.087
3292097.0,219.0,32.0,276.0,256.0,3292.097
3292107.0,221.0,32.0,280.0,257.0,3292.107
3292118.0,221.0,32.0,267.0,253.0,3292.118
3292128.0,213.0,32.0,276.0,247.0,3292.128
3292138.0,218.0,31.0,272.0,253.0,3292.138
3292148.0,223.0,32.0,276.0,258.0,3292.148
3292158.0,218.0,32.0,280.0,254.0,3292.158
3292168.0,219.0,33.0,267.0,251.0,3292.168
3292178.0,212.0,30.0,273.0,245.0,3292.178
3292188.0,217.0,32.0,273.0,254.0,3292.188
3292198.0,222.0,32.0,274.0,257.0,3292.198
3292208.0,220.0,32.0,280.0,256.0,3292.208
3292218.0,219.0,32.0,267.0,252.0,3292.218
3292228.0,210.0,33.0,271.0,246.0,3292.228
3292238.0,218.0,32.0,274.0,254.0,3292.238
3292248.0,221.0,32.0,275.0,258.0,3292.248
3292258.0,220.0,32.0,279.0,256.0,3292.258
3292268.0,219.0,31.0,266.0,253.0,3292.268
3292278.0,210.0,32.0,270.0,245.0,3292.278
3292288.0,215.0,32.0,267.0,252.0,3292.288
3292298.0,221.0,33.0,272.0,256.0,3292.298
3292308.0,219.0,31.0,275.0,254.0,3292.308
3292318.0,218.0,32.0,262.0,251.0,3292.318
3292328.0,212.0,31.0,267.0,246.0,3292.328
3292338.0,216.0,32.0,267.0,253.0,3292.338
3292348.0,223.0,32.0,272.0,257.0,3292.348
3292358.0,217.0,33.0,274.0,253.0,3292.358
3292368.0,218.0,32.0,263.0,250.0,3292.368
3292378.0,211.0,32.0,268.0,244.0,3292.378
3292388.0,217.0,32.0,268.0,252.0,3292.388
3292398.0,222.0,33.0,270.0,257.0,3292.398
3292408.0,217.0,31.0,275.0,252.0,3292.408
3292418.0,219.0,33.0,264.0,253.0,3292.418
3292428.0,210.0,32.0,270.0,244.0,3292.428
3292438.0,217.0,32.0,272.0,251.0,3292.438
3292448.0,223.0,33.0,271.0,254.0,3292.448
3292459.0,217.0,31.0,280.0,249.0,3292.459
3292469.0,217.0,32.0,268.0,248.0,3292.469
3292479.0,213.0,32.0,276.0,247.0,3292.479
3292489.0,219.0,32.0,283.0,254.0,3292.489
3292499.0,222.0,32.0,272.0,251.0,3292.499
3292509.0,214.0,32.0,284.0,249.0,3292.509
3292519.0,217.0,32.0,273.0,249.0,3292.519
3292529.0,214.0,32.0,281.0,249.0,3292.529
3292539.0,219.0,32.0,290.0,255.0,3292.539
3292549.0,224.0,34.0,280.0,256.0,3292.549
3292559.0,214.0,32.0,287.0,248.0,3292.559
3292569.0,218.0,32.0,277.0,248.0,3292.569
3292579.0,216.0,32.0,287.0,250.0,3292.579
3292589.0,220.0,31.0,289.0,255.0,3292.589
3292599.0,224.0,33.0,281.0,255.0,3292.599
3292609.0,214.0,32.0,293.0,250.0,3292.609
3292619.0,217.0,32.0,283.0,250.0,3292.619
3292630.0,218.0,32.0,291.0,252.0,3292.63
3292640.0,220.0,32.0,299.0,256.0,3292.64
3292650.0,223.0,32.0,284.0,253.0,3292.65
3292660.0,212.0,32.0,294.0,245.0,3292.66
3292670.0,216.0,32.0,288.0,249.0,3292.67
3292680.0,219.0,33.0,295.0,254.0,3292.68
3292690.0,220.0,32.0,302.0,255.0,3292.69
3292700.0,222.0,32.0,286.0,252.0,3292.7
3292710.0,212.0,31.0,301.0,244.0,3292.71
3292720.0,217.0,32.0,291.0,247.0,3292.72
3292730.0,220.0,32.0,300.0,252.0,3292.73
3292740.0,219.0,33.0,307.0,253.0,3292.74
3292750.0,221.0,32.0,292.0,249.0,3292.75
3292760.0,213.0,31.0,308.0,244.0,3292.76
3292770.0,216.0,32.0,300.0,246.0,3292.77
3292780.0,220.0,31.0,308.0,253.0,3292.78
3292790.0,218.0,32.0,316.0,252.0,3292.79
3292800.0,223.0,32.0,300.0,251.0,3292.8
3292810.0,211.0,33.0,316.0,243.0,3292.81
3292820.0,215.0,32.0,308.0,246.0,3292.82
3292830.0,221.0,32.0,315.0,253.0,3292.83
3292840.0,218.0,32.0,329.0,249.0,3292.84
3292850.0,222.0,33.0,312.0,250.0,3292.85
3292860.0,212.0,32.0,332.0,241.0,3292.86
3292870.0,217.0,33.0,323.0,248.0,3292.87
3292880.0,224.0,32.0,330.0,253.0,3292.88
3292890.0,221.0,32.0,342.0,252.0,3292.89
3292900.0,223.0,32.0,326.0,249.0,3292.9
3292910.0,213.0,31.0,344.0,241.0,3292.91
3292920.0,217.0,32.0,336.0,248.0,3292.92
3292930.0,221.0,32.0,342.0,250.0,3292.93
3292940.0,221.0,32.0,351.0,251.0,3292.94
3292950.0,222.0,32.0,332.0,248.0,3292.95
3292960.0,212.0,31.0,349.0,240.0,3292.96
3292971.0,218.0,33.0,342.0,247.0,3292.971
3292981.0,224.0,32.0,340.0,252.0,3292.981
3292991.0,218.0,32.0,353.0,247.0,3292.991
3293001.0,220.0,33.0,335.0,248.0,3293.001
3293011.0,213.0,32.0,347.0,242.0,3293.011
3293021.0,218.0,32.0,345.0,249.0,3293.021
3293031.0,225.0,33.0,341.0,253.0,3293.031
3293041.0,217.0,32.0,353.0,247.0,3293.041
3293051.0,220.0,32.0,337.0,246.0,3293.051
3293061.0,211.0,33.0,349.0,241.0,3293.061
3293071.0,219.0,33.0,346.0,250.0,3293.071
3293081.0,225.0,33.0,338.0,255.0,3293.081
3293091.0,217.0,32.0,353.0,247.0,3293.091
3293101.0,222.0,32.0,335.0,249.0,3293.101
3293111.0,211.0,32.0,348.0,241.0,3293.111
3293121.0,220.0,32.0,348.0,252.0,3293.121
3293131.0,224.0,33.0,338.0,254.0,3293.131
3293142.0,215.0,32.0,354.0,246.0,3293.142
3293152.0,218.0,32.0,338.0,247.0,3293.152
3293162.0,218.0,33.0,349.0,248.0,3293.162
3293172.0,221.0,33.0,354.0,252.0,3293.172
3293182.0,223.0,33.0,336.0,250.0,3293.182
3293192.0,215.0,32.0,356.0,245.0,3293.192
3293202.0,218.0,32.0,341.0,246.0,3293.202
3293212.0,217.0,33.0,352.0,248.0,3293.212
3293222.0,221.0,33.0,361.0,252.0,3293.222
3293232.0,225.0,32.0,342.0,253.0,3293.232
3293242.0,214.0,33.0,361.0,243.0,3293.242
3293252.0,218.0,33.0,346.0,247.0,3293.252
3293262.0,219.0,33.0,355.0,249.0,3293.262
3293272.0,221.0,32.0,363.0,252.0,3293.272
3293282.0,224.0,32.0,346.0,251.0,3293.282
3293292.0,214.0,32.0,366.0,242.0,3293.292
3293302.0,216.0,32.0,350.0,244.0,3293.302
3293312.0,214.0,32.0,360.0,244.0,3293.312
3293322.0,220.0,33.0,367.0,253.0,3293.322
3293332.0,223.0,32.0,348.0,250.0,3293.332
3293342.0,213.0,32.0,366.0,241.0,3293.342
3293352.0,217.0,33.0,352.0,245.0,3293.352
3293362.0,215.0,33.0,361.0,247.0,3293.362
3293372.0,220.0,32.0,368.0,252.0,3293.372
3293382.0,221.0,33.0,348.0,251.0,3293.382
3293392.0,212.0,32.0,367.0,242.0,3293.392
3293402.0,217.0,32.0,351.0,246.0,3293.402
3293412.0,216.0,33.0,363.0,250.0,3293.412
3293422.0,221.0,31.0,367.0,253.0,3293.422
3293432.0,220.0,33.0,346.0,250.0,3293.432
3293442.0,214.0,32.0,363.0,245.0,3293.442
3293452.0,216.0,34.0,345.0,246.0,3293.452
3293462.0,218.0,32.0,354.0,249.0,3293.462
3293472.0,221.0,33.0,359.0,252.0,3293.472
3293483.0,222.0,33.0,339.0,250.0,3293.483
3293493.0,212.0,32.0,351.0,241.0,3293.493
3293503.0,215.0,33.0,340.0,247.0,3293.503
3293513.0,222.0,34.0,341.0,254.0,3293.513
3293523.0,219.0,32.0,349.0,249.0,3293.523
3293533.0,220.0,32.0,329.0,250.0,3293.533
3293543.0,212.0,33.0,342.0,241.0,3293.543
3293553.0,217.0,33.0,334.0,249.0,3293.553
3293563.0,223.0,33.0,332.0,254.0,3293.563
3293573.0,221.0,33.0,340.0,251.0,3293.573
3293583.0,220.0,34.0,321.0,248.0,3293.583
3293593.0,212.0,32.0,332.0,239.0,3293.593
3293603.0,218.0,33.0,328.0,249.0,3293.603
3293613.0,221.0,33.0,328.0,252.0,3293.613
3293623.0,221.0,33.0,334.0,249.0,3293.623
3293633.0,219.0,33.0,315.0,247.0,3293.633
3293643.0,211.0,34.0,325.0,240.0,3293.643
3293654.0,219.0,32.0,322.0,249.0,3293.654
3293664.0,224.0,33.0,319.0,253.0,3293.664
3293674.0,218.0,33.0,329.0,247.0,3293.674
3293684.0,218.0,34.0,314.0,247.0,3293.684
3293694.0,216.0,33.0,322.0,245.0,3293.694
3293704.0,220.0,34.0,324.0,253.0,3293.704
3293714.0,224.0,34.0,316.0,254.0,3293.714
3293724.0,217.0,32.0,328.0,247.0,3293.724
3293734.0,218.0,33.0,313.0,248.0,3293.734
3293744.0,213.0,34.0,321.0,243.0,3293.744
3293754.0,221.0,34.0,323.0,253.0,3293.754
3293764.0,225.0,33.0,312.0,255.0,3293.764
3293774.0,217.0,33.0,324.0,247.0,3293.774
3293784.0,219.0,34.0,309.0,248.0,3293.784
3293794.0,212.0,34.0,317.0,244.0,3293.794
3293804.0,221.0,34.0,323.0,252.0,3293.804
3293814.0,223.0,34.0,308.0,253.0,3293.814
3293824.0,217.0,34.0,321.0,249.0,3293.824
3293834.0,219.0,35.0,306.0,249.0,3293.834
3293844.0,213.0,34.0,311.0,244.0,3293.844
3293854.0,220.0,34.0,316.0,254.0,3293.854
3293864.0,224.0,34.0,303.0,253.0,3293.864
3293874.0,218.0,34.0,312.0,248.0,3293.874
3293884.0,218.0,34.0,296.0,248.0,3293.884
3293894.0,214.0,34.0,301.0,247.0,3293.894
3293904.0,221.0,34.0,305.0,254.0,3293.904
3293914.0,224.0,34.0,295.0,255.0,3293.914
3293924.0,216.0,33.0,299.0,247.0,3293.924
3293934.0,219.0,34.0,286.0,248.0,3293.934
3293944.0,216.0,34.0,290.0,248.0,3293.944
3293954.0,220.0,33.0,291.0,252.0,3293.954
3293964.0,223.0,35.0,283.0,254.0,3293.964
3293974.0,216.0,32.0,288.0,244.0,3293.974
3293984.0,218.0,33.0,276.0,247.0,3293.984
3293995.0,217.0,33.0,283.0,248.0,3293.995
3294005.0,221.0,33.0,286.0,253.0,3294.005
3294015.0,222.0,33.0,272.0,250.0,3294.015
3294025.0,213.0,33.0,278.0,244.0,3294.025
3294035.0,217.0,32.0,272.0,246.0,3294.035
3294045.0,218.0,33.0,276.0,249.0,3294.045
3294055.0,222.0,33.0,281.0,252.0,3294.055
3294065.0,223.0,33.0,269.0,249.0,3294.065
3294075.0,214.0,32.0,275.0,241.0,3294.075
3294085.0,217.0,33.0,268.0,247.0,3294.085
3294095.0,219.0,34.0,274.0,250.0,3294.095
3294105.0,221.0,33.0,279.0,252.0,3294.105
3294115.0,221.0,33.0,266.0,250.0,3294.115
3294125.0,216.0,32.0,276.0,243.0,3294.125
3294135.0,217.0,33.0,266.0,244.0,3294.135
3294145.0,220.0,32.0,274.0,250.0,3294.145
3294155.0,221.0,33.0,279.0,251.0,3294.155
3294166.0,220.0,32.0,266.0,247.0,3294.166
3294176.0,213.0,33.0,273.0,239.0,3294.176
3294186.0,219.0,32.0,272.0,248.0,3294.186
3294196.0,224.0,33.0,272.0,253.0,3294.196
3294206.0,218.0,32.0,278.0,247.0,3294.206
3294216.0,219.0,33.0,266.0,249.0,3294.216
3294226.0,210.0,33.0,270.0,239.0,3294.226
3294236.0,218.0,32.0,273.0,249.0,3294.236
3294246.0,223.0,32.0,272.0,253.0,3294.246
3294256.0,221.0,31.0,279.0,248.0,3294.256
3294266.0,219.0,33.0,265.0,248.0,3294.266
3294276.0,211.0,32.0,270.0,241.0,3294.276
3294286.0,219.0,33.0,275.0,252.0,3294.286
3294296.0,222.0,32.0,274.0,254.0,3294.296
3294306.0,220.0,32.0,277.0,250.0,3294.306
3294316.0,220.0,33.0,266.0,248.0,3294.316
3294326.0,212.0,32.0,268.0,241.0,3294.326
3294336.0,217.0,33.0,269.0,248.0,3294.336
3294346.0,223.0,33.0,272.0,254.0,3294.346
3294356.0,219.0,32.0,275.0,246.0,3294.356
3294366.0,219.0,32.0,264.0,247.0,3294.366
3294376.0,212.0,32.0,267.0,241.0,3294.376
3294386.0,218.0,32.0,266.0,247.0,3294.386
3294396.0,223.0,32.0,270.0,252.0,3294.396
3294406.0,218.0,33.0,273.0,245.0,3294.406
3294416.0,218.0,34.0,262.0,246.0,3294.416
3294426.0,211.0,32.0,268.0,237.0,3294.426
3294436.0,217.0,33.0,269.0,248.0,3294.436
3294446.0,223.0,33.0,270.0,251.0,3294.446
3294456.0,218.0,32.0,275.0,247.0,3294.456
3294466.0,219.0,33.0,264.0,249.0,3294.466
3294476.0,211.0,33.0,266.0,241.0,3294.476
3294486.0,219.0,32.0,269.0,250.0,3294.486
3294496.0,223.0,32.0,266.0,253.0,3294.496
3294507.0,217.0,32.0,270.0,244.0,3294.507
3294517.0,218.0,32.0,259.0,245.0,3294.517
3294527.0,216.0,33.0,263.0,246.0,3294.527
3294537.0,221.0,32.0,269.0,252.0,3294.537
3294547.0,223.0,32.0,258.0,250.0,3294.547
3294557.0,216.0,32.0,265.0,244.0,3294.557
3294567.0,217.0,33.0,256.0,246.0,3294.567
3294577.0,217.0,31.0,261.0,247.0,3294.577
3294587.0,220.0,32.0,267.0,251.0,3294.587
3294597.0,223.0,32.0,258.0,252.0,3294.597
3294607.0,215.0,32.0,261.0,243.0,3294.607
3294617.0,216.0,32.0,253.0,244.0,3294.617
3294627.0,216.0,33.0,260.0,246.0,3294.627
3294637.0,220.0,32.0,265.0,249.0,3294.637
3294647.0,222.0,32.0,256.0,250.0,3294.647
3294657.0,214.0,32.0,262.0,241.0,3294.657
3294667.0,217.0,33.0,254.0,245.0,3294.667
3294678.0,219.0,32.0,261.0,247.0,3294.678
3294688.0,222.0,32.0,266.0,248.0,3294.688
3294698.0,221.0,32.0,255.0,246.0,3294.698
3294708.0,212.0,31.0,258.0,237.0,3294.708
3294718.0,217.0,32.0,256.0,243.0,3294.718
3294728.0,220.0,32.0,261.0,248.0,3294.728
3294738.0,221.0,32.0,266.0,248.0,3294.738
3294748.0,220.0,32.0,254.0,246.0,3294.748
3294758.0,211.0,32.0,259.0,238.0,3294.758
3294768.0,217.0,31.0,257.0,243.0,3294.768
3294778.0,220.0,32.0,263.0,249.0,3294.778
3294788.0,220.0,31.0,268.0,248.0,3294.788
3294798.0,219.0,33.0,255.0,247.0,3294.798
3294808.0,213.0,31.0,262.0,240.0,3294.808
3294818.0,216.0,32.0,256.0,243.0,3294.818
3294828.0,222.0,32.0,265.0,251.0,3294.828
3294838.0,221.0,31.0,268.0,249.0,3294.838
3294848.0,221.0,34.0,256.0,249.0,3294.848
3294858.0,213.0,32.0,261.0,241.0,3294.858
3294868.0,216.0,32.0,257.0,245.0,3294.868
3294878.0,222.0,32.0,263.0,252.0,3294.878
3294888.0,220.0,32.0,266.0,249.0,3294.888
3294898.0,221.0,32.0,255.0,248.0,3294.898
3294908.0,213.0,31.0,259.0,240.0,3294.908
3294918.0,218.0,32.0,257.0,247.0,3294.918
3294928.0,223.0,33.0,262.0,253.0,3294.928
3294938.0,223.0,31.0,267.0,250.0,3294.938
3294948.0,220.0,32.0,253.0,248.0,3294.948
3294958.0,213.0,31.0,260.0,239.0,3294.958
3294968.0,218.0,31.0,260.0,248.0,3294.968
3294978.0,221.0,32.0,262.0,250.0,3294.978
3294988.0,221.0,32.0,267.0,250.0,3294.988
3294998.0,219.0,32.0,255.0,247.0,3294.998
3295008.0,212.0,32.0,259.0,238.0,3295.008
3295019.0,219.0,32.0,263.0,249.0,3295.019
3295029.0,223.0,31.0,263.0,252.0,3295.029
3295039.0,219.0,32.0,267.0,246.0,3295.039
3295049.0,220.0,32.0,257.0,246.0,3295.049
3295059.0,215.0,32.0,263.0,243.0,3295.059
3295069.0,221.0,32.0,266.0,248.0,3295.069
3295079.0,224.0,32.0,263.0,251.0,3295.079
3295089.0,219.0,31.0,269.0,244.0,3295.089
