time (ms),signal 0,signal 1,signal 2,signal 3,time (sec)
246047.0,349.0,426.0,3.0,415.0,246.047
246057.0,342.0,415.0,4.0,404.0,246.057
246067.0,344.0,420.0,3.0,407.0,246.067
246077.0,346.0,423.0,4.0,414.0,246.077
246087.0,351.0,431.0,3.0,418.0,246.087
246097.0,352.0,426.0,3.0,415.0,246.097
246107.0,345.0,419.0,3.0,409.0,246.107
246117.0,344.0,419.0,5.0,406.0,246.117
246127.0,346.0,425.0,3.0,414.0,246.127
246137.0,350.0,430.0,4.0,417.0,246.137
246147.0,355.0,432.0,3.0,419.0,246.147
246157.0,343.0,418.0,4.0,406.0,246.157
246167.0,337.0,419.0,3.0,405.0,246.167
246177.0,343.0,425.0,5.0,415.0,246.177
246187.0,344.0,430.0,3.0,416.0,246.187
246197.0,349.0,430.0,4.0,417.0,246.197
246207.0,338.0,419.0,3.0,406.0,246.207
246217.0,339.0,420.0,3.0,406.0,246.217
246227.0,345.0,429.0,3.0,417.0,246.227
246237.0,347.0,432.0,4.0,417.0,246.237
246247.0,350.0,430.0,2.0,416.0,246.247
246257.0,338.0,418.0,3.0,404.0,246.257
246267.0,341.0,423.0,4.0,407.0,246.267
246277.0,342.0,425.0,3.0,410.0,246.277
246287.0,349.0,433.0,4.0,417.0,246.287
246297.0,351.0,431.0,4.0,415.0,246.297
246307.0,339.0,419.0,3.0,404.0,246.307
246317.0,342.0,425.0,4.0,407.0,246.317
246327.0,345.0,427.0,4.0,413.0,246.327
246337.0,350.0,435.0,3.0,417.0,246.337
246347.0,351.0,432.0,4.0,414.0,246.347
246358.0,340.0,419.0,4.0,401.0,246.358
246368.0,343.0,427.0,3.0,408.0,246.368
246378.0,352.0,435.0,3.0,419.0,246.378
246388.0,350.0,433.0,4.0,415.0,246.388
246398.0,347.0,429.0,3.0,410.0,246.398
246408.0,342.0,418.0,4.0,401.0,246.408
246418.0,345.0,428.0,3.0,409.0,246.418
246428.0,356.0,437.0,4.0,420.0,246.428
246438.0,351.0,434.0,3.0,414.0,246.438
246448.0,352.0,431.0,4.0,413.0,246.448
246458.0,341.0,419.0,3.0,401.0,246.458
246468.0,347.0,430.0,3.0,410.0,246.468
246478.0,356.0,438.0,4.0,420.0,246.478
246488.0,354.0,436.0,4.0,416.0,246.488
246498.0,351.0,431.0,4.0,412.0,246.498
246508.0,338.0,417.0,4.0,400.0,246.508
246518.0,345.0,432.0,3.0,412.0,246.518
246528.0,351.0,436.0,3.0,419.0,246.528
246538.0,352.0,437.0,3.0,419.0,246.538
246548.0,351.0,431.0,5.0,414.0,246.548
246558.0,340.0,418.0,4.0,402.0,246.558
246568.0,349.0,434.0,3.0,415.0,246.568
246578.0,355.0,437.0,2.0,420.0,246.578
246588.0,354.0,438.0,3.0,418.0,246.588
246598.0,351.0,432.0,3.0,413.0,246.598
246608.0,341.0,420.0,4.0,404.0,246.608
246618.0,344.0,429.0,4.0,410.0,246.618
246628.0,353.0,437.0,3.0,421.0,246.628
246638.0,351.0,435.0,3.0,419.0,246.638
246648.0,349.0,430.0,3.0,415.0,246.648
246658.0,341.0,420.0,3.0,405.0,246.658
246668.0,344.0,429.0,4.0,413.0,246.668
246678.0,354.0,438.0,4.0,422.0,246.678
246688.0,350.0,434.0,3.0,418.0,246.688
246699.0,348.0,430.0,4.0,413.0,246.699
246709.0,339.0,422.0,3.0,408.0,246.709
246719.0,349.0,436.0,4.0,419.0,246.719
246729.0,357.0,439.0,4.0,425.0,246.729
246739.0,346.0,428.0,4.0,412.0,246.739
246749.0,346.0,429.0,4.0,412.0,246.749
246759.0,339.0,421.0,4.0,408.0,246.759
246769.0,349.0,437.0,3.0,420.0,246.769
246779.0,356.0,438.0,3.0,423.0,246.779
246789.0,348.0,432.0,3.0,414.0,246.789
246799.0,347.0,429.0,4.0,411.0,246.799
246809.0,340.0,423.0,3.0,407.0,246.809
246819.0,350.0,437.0,4.0,417.0,246.819
246829.0,355.0,440.0,3.0,423.0,246.829
246839.0,347.0,432.0,3.0,413.0,246.839
246849.0,346.0,429.0,4.0,410.0,246.849
246859.0,342.0,425.0,4.0,410.0,246.859
246870.0,349.0,438.0,4.0,418.0,246.87
246880.0,354.0,436.0,3.0,417.0,246.88
246890.0,341.0,424.0,3.0,406.0,246.89
246900.0,342.0,426.0,3.0,407.0,246.9
246910.0,349.0,434.0,4.0,417.0,246.91
246920.0,349.0,437.0,5.0,419.0,246.92
246930.0,354.0,434.0,4.0,418.0,246.93
246940.0,341.0,422.0,4.0,405.0,246.94
246950.0,342.0,426.0,3.0,409.0,246.95
246960.0,342.0,428.0,3.0,410.0,246.96
246970.0,346.0,436.0,3.0,415.0,246.97
246980.0,350.0,433.0,3.0,414.0,246.98
246990.0,338.0,421.0,4.0,402.0,246.99
247000.0,341.0,427.0,3.0,405.0,247.0
247010.0,342.0,429.0,4.0,411.0,247.01
247020.0,347.0,438.0,3.0,416.0,247.02
247030.0,350.0,433.0,3.0,414.0,247.03
247040.0,342.0,426.0,3.0,407.0,247.04
247050.0,342.0,427.0,4.0,406.0,247.05
247060.0,348.0,431.0,4.0,414.0,247.06
247070.0,352.0,439.0,4.0,419.0,247.07
247080.0,352.0,435.0,3.0,416.0,247.08
247090.0,344.0,426.0,4.0,406.0,247.09
247100.0,344.0,428.0,3.0,407.0,247.1
247110.0,349.0,434.0,5.0,415.0,247.11
247120.0,351.0,439.0,2.0,418.0,247.12
247130.0,356.0,436.0,3.0,418.0,247.13
247140.0,345.0,425.0,3.0,406.0,247.14
247150.0,345.0,427.0,3.0,407.0,247.15
247160.0,351.0,433.0,3.0,415.0,247.16
247170.0,353.0,436.0,5.0,416.0,247.17
247180.0,356.0,433.0,4.0,416.0,247.18
247190.0,344.0,422.0,3.0,404.0,247.19
247200.0,344.0,426.0,3.0,408.0,247.2
247211.0,350.0,432.0,3.0,416.0,247.211
247221.0,351.0,432.0,4.0,414.0,247.221
247231.0,350.0,427.0,4.0,409.0,247.231
247241.0,342.0,417.0,4.0,401.0,247.241
247251.0,352.0,435.0,4.0,416.0,247.251
247261.0,357.0,437.0,4.0,421.0,247.261
247271.0,353.0,434.0,3.0,412.0,247.271
247281.0,353.0,428.0,3.0,409.0,247.281
247291.0,343.0,419.0,4.0,402.0,247.291
247301.0,355.0,432.0,4.0,411.0,247.301
247311.0,366.0,444.0,2.0,424.0,247.311
247321.0,364.0,440.0,4.0,418.0,247.321
247331.0,351.0,430.0,3.0,410.0,247.331
247341.0,350.0,433.0,4.0,407.0,247.341
247351.0,353.0,441.0,3.0,412.0,247.351
247361.0,367.0,453.0,4.0,421.0,247.361
247371.0,363.0,443.0,2.0,412.0,247.371
247382.0,357.0,434.0,3.0,408.0,247.382
247392.0,350.0,426.0,3.0,401.0,247.392
247402.0,353.0,433.0,4.0,410.0,247.402
247412.0,359.0,439.0,4.0,415.0,247.412
247422.0,348.0,425.0,4.0,403.0,247.422
247432.0,352.0,432.0,2.0,411.0,247.432
247442.0,349.0,430.0,3.0,407.0,247.442
247452.0,362.0,447.0,3.0,422.0,247.452
247462.0,387.0,460.0,3.0,432.0,247.462
247472.0,375.0,447.0,3.0,426.0,247.472
247482.0,374.0,442.0,4.0,423.0,247.482
247492.0,375.0,444.0,3.0,421.0,247.492
247502.0,385.0,464.0,3.0,432.0,247.502
247512.0,386.0,467.0,3.0,435.0,247.512
247522.0,381.0,464.0,3.0,430.0,247.522
247532.0,393.0,467.0,3.0,430.0,247.532
247542.0,389.0,456.0,4.0,427.0,247.542
247552.0,394.0,465.0,3.0,433.0,247.552
247562.0,394.0,468.0,3.0,438.0,247.562
247572.0,385.0,454.0,3.0,429.0,247.572
247582.0,379.0,448.0,3.0,424.0,247.582
247592.0,376.0,439.0,4.0,424.0,247.592
247602.0,389.0,458.0,4.0,435.0,247.602
247612.0,401.0,473.0,3.0,442.0,247.612
247622.0,382.0,455.0,2.0,430.0,247.622
247632.0,372.0,449.0,4.0,426.0,247.632
247642.0,374.0,443.0,3.0,424.0,247.642
247652.0,390.0,461.0,3.0,438.0,247.652
247662.0,404.0,468.0,3.0,448.0,247.662
247672.0,386.0,444.0,5.0,431.0,247.672
247682.0,390.0,451.0,4.0,434.0,247.682
247692.0,387.0,451.0,4.0,433.0,247.692
247702.0,391.0,465.0,3.0,443.0,247.702
247712.0,404.0,476.0,4.0,448.0,247.712
247723.0,392.0,461.0,3.0,440.0,247.723
247733.0,392.0,454.0,5.0,433.0,247.733
247743.0,395.0,460.0,3.0,442.0,247.743
247753.0,407.0,469.0,3.0,448.0,247.753
247763.0,406.0,468.0,3.0,444.0,247.763
247773.0,396.0,459.0,3.0,436.0,247.773
247783.0,392.0,459.0,3.0,434.0,247.783
247793.0,393.0,462.0,4.0,439.0,247.793
247803.0,393.0,466.0,3.0,441.0,247.803
247813.0,402.0,467.0,4.0,444.0,247.813
247823.0,388.0,454.0,3.0,433.0,247.823
247833.0,387.0,459.0,3.0,434.0,247.833
247843.0,390.0,465.0,3.0,444.0,247.843
247853.0,397.0,474.0,4.0,444.0,247.853
247863.0,405.0,476.0,4.0,445.0,247.863
247873.0,385.0,460.0,4.0,433.0,247.873
247883.0,380.0,457.0,3.0,433.0,247.883
247894.0,391.0,466.0,3.0,444.0,247.894
247904.0,399.0,471.0,4.0,443.0,247.904
247914.0,398.0,468.0,3.0,436.0,247.914
247924.0,382.0,451.0,4.0,421.0,247.924
247934.0,387.0,465.0,4.0,434.0,247.934
247944.0,385.0,461.0,3.0,436.0,247.944
247954.0,389.0,465.0,3.0,436.0,247.954
247964.0,380.0,453.0,3.0,430.0,247.964
247974.0,367.0,440.0,3.0,422.0,247.974
247984.0,377.0,454.0,4.0,429.0,247.984
247994.0,390.0,467.0,2.0,440.0,247.994
248004.0,392.0,466.0,3.0,435.0,248.004
248014.0,391.0,463.0,3.0,433.0,248.014
248024.0,384.0,455.0,4.0,424.0,248.024
248034.0,390.0,466.0,3.0,436.0,248.034
248044.0,400.0,474.0,4.0,445.0,248.044
248054.0,395.0,471.0,4.0,439.0,248.054
248064.0,391.0,467.0,5.0,439.0,248.064
248074.0,379.0,454.0,3.0,428.0,248.074
248084.0,385.0,464.0,3.0,437.0,248.084
248094.0,393.0,474.0,3.0,444.0,248.094
248104.0,380.0,466.0,4.0,434.0,248.104
248114.0,381.0,464.0,4.0,433.0,248.114
248124.0,367.0,450.0,3.0,421.0,248.124
248134.0,372.0,460.0,4.0,431.0,248.134
248144.0,381.0,469.0,3.0,443.0,248.144
248154.0,375.0,465.0,3.0,436.0,248.154
248164.0,377.0,458.0,3.0,432.0,248.164
248174.0,367.0,445.0,4.0,420.0,248.174
248184.0,375.0,458.0,4.0,430.0,248.184
248194.0,383.0,464.0,3.0,436.0,248.194
248204.0,381.0,464.0,3.0,435.0,248.204
248214.0,382.0,457.0,4.0,429.0,248.214
248224.0,368.0,442.0,4.0,419.0,248.224
248235.0,376.0,455.0,5.0,430.0,248.235
248245.0,381.0,461.0,4.0,437.0,248.245
248255.0,373.0,450.0,4.0,425.0,248.255
248265.0,372.0,452.0,3.0,424.0,248.265
248275.0,375.0,453.0,4.0,430.0,248.275
248285.0,382.0,464.0,4.0,433.0,248.285
248295.0,392.0,469.0,4.0,440.0,248.295
248305.0,383.0,460.0,3.0,428.0,248.305
248315.0,381.0,455.0,3.0,427.0,248.315
248325.0,373.0,448.0,3.0,425.0,248.325
248335.0,386.0,466.0,3.0,436.0,248.335
248345.0,403.0,474.0,3.0,445.0,248.345
248355.0,390.0,460.0,5.0,428.0,248.355
248365.0,392.0,462.0,2.0,429.0,248.365
248375.0,380.0,452.0,4.0,424.0,248.375
248385.0,390.0,468.0,3.0,436.0,248.385
248395.0,405.0,472.0,3.0,440.0,248.395
248406.0,389.0,457.0,3.0,425.0,248.406
248416.0,384.0,457.0,4.0,426.0,248.416
248426.0,392.0,464.0,3.0,432.0,248.426
248436.0,393.0,467.0,3.0,433.0,248.436
248446.0,393.0,463.0,3.0,431.0,248.446
248456.0,385.0,459.0,3.0,424.0,248.456
248466.0,385.0,460.0,4.0,423.0,248.466
248476.0,392.0,469.0,4.0,433.0,248.476
248486.0,392.0,472.0,3.0,434.0,248.486
248496.0,395.0,471.0,4.0,435.0,248.496
248506.0,382.0,459.0,4.0,423.0,248.506
248516.0,382.0,461.0,3.0,425.0,248.516
248526.0,390.0,469.0,4.0,435.0,248.526
248536.0,390.0,473.0,4.0,437.0,248.536
248546.0,395.0,470.0,4.0,438.0,248.546
248556.0,380.0,458.0,4.0,425.0,248.556
248566.0,381.0,461.0,4.0,428.0,248.566
248576.0,384.0,464.0,2.0,436.0,248.576
248586.0,390.0,474.0,4.0,442.0,248.586
248596.0,392.0,469.0,3.0,438.0,248.596
248606.0,381.0,457.0,5.0,427.0,248.606
248616.0,372.0,458.0,2.0,420.0,248.616
248626.0,370.0,456.0,3.0,419.0,248.626
248636.0,376.0,466.0,3.0,427.0,248.636
248646.0,381.0,463.0,4.0,429.0,248.646
248656.0,365.0,449.0,3.0,416.0,248.656
248666.0,369.0,454.0,4.0,418.0,248.666
248676.0,372.0,457.0,4.0,430.0,248.676
248686.0,382.0,471.0,3.0,440.0,248.686
248696.0,385.0,467.0,3.0,442.0,248.696
248706.0,383.0,462.0,3.0,438.0,248.706
248716.0,385.0,461.0,4.0,435.0,248.716
248726.0,382.0,461.0,4.0,440.0,248.726
248736.0,380.0,465.0,4.0,433.0,248.736
248747.0,379.0,454.0,4.0,418.0,248.747
248757.0,364.0,440.0,3.0,401.0,248.757
248767.0,367.0,449.0,3.0,408.0,248.767
248777.0,371.0,455.0,4.0,422.0,248.777
248787.0,363.0,453.0,4.0,420.0,248.787
248797.0,370.0,450.0,4.0,426.0,248.797
248807.0,357.0,441.0,4.0,422.0,248.807
248817.0,360.0,452.0,3.0,431.0,248.817
248827.0,369.0,458.0,3.0,437.0,248.827
248837.0,363.0,457.0,4.0,426.0,248.837
248847.0,360.0,447.0,3.0,421.0,248.847
248857.0,351.0,437.0,5.0,403.0,248.857
248867.0,359.0,448.0,2.0,408.0,248.867
248877.0,360.0,449.0,4.0,413.0,248.877
248887.0,354.0,451.0,3.0,410.0,248.887
248897.0,351.0,440.0,3.0,402.0,248.897
248907.0,341.0,430.0,4.0,387.0,248.907
248918.0,351.0,447.0,5.0,407.0,248.918
248928.0,359.0,450.0,3.0,414.0,248.928
248938.0,351.0,446.0,4.0,401.0,248.938
248948.0,350.0,443.0,4.0,404.0,248.948
248958.0,348.0,441.0,4.0,405.0,248.958
248968.0,352.0,450.0,4.0,413.0,248.968
248978.0,360.0,451.0,4.0,421.0,248.978
248988.0,351.0,443.0,3.0,404.0,248.988
248998.0,348.0,439.0,4.0,403.0,248.998
249008.0,346.0,435.0,3.0,398.0,249.008
249018.0,356.0,451.0,3.0,406.0,249.018
249028.0,363.0,451.0,4.0,418.0,249.028
249038.0,353.0,443.0,4.0,399.0,249.038
249048.0,354.0,440.0,4.0,402.0,249.048
249058.0,347.0,434.0,3.0,397.0,249.058
249068.0,358.0,450.0,4.0,407.0,249.068
249078.0,365.0,450.0,3.0,416.0,249.078
249088.0,357.0,447.0,4.0,405.0,249.088
249098.0,354.0,442.0,4.0,406.0,249.098
249108.0,349.0,438.0,3.0,400.0,249.108
249118.0,356.0,452.0,2.0,410.0,249.118
249128.0,360.0,448.0,3.0,416.0,249.128
249138.0,357.0,448.0,3.0,409.0,249.138
249148.0,351.0,439.0,3.0,407.0,249.148
249158.0,347.0,435.0,4.0,404.0,249.158
249168.0,356.0,449.0,5.0,413.0,249.168
249178.0,360.0,450.0,2.0,418.0,249.178
249188.0,353.0,443.0,4.0,404.0,249.188
249198.0,349.0,438.0,3.0,404.0,249.198
249208.0,349.0,436.0,4.0,406.0,249.208
249218.0,354.0,445.0,3.0,413.0,249.218
249228.0,362.0,446.0,5.0,418.0,249.228
249238.0,352.0,438.0,4.0,402.0,249.238
249248.0,349.0,435.0,3.0,402.0,249.248
249259.0,349.0,435.0,3.0,408.0,249.259
249269.0,356.0,446.0,3.0,413.0,249.269
249279.0,358.0,440.0,4.0,411.0,249.279
249289.0,346.0,430.0,4.0,395.0,249.289
249299.0,346.0,434.0,3.0,402.0,249.299
249309.0,349.0,435.0,3.0,405.0,249.309
249319.0,355.0,445.0,3.0,408.0,249.319
249329.0,358.0,438.0,3.0,407.0,249.329
249339.0,348.0,428.0,3.0,399.0,249.339
249349.0,349.0,434.0,4.0,405.0,249.349
249359.0,352.0,437.0,4.0,410.0,249.359
249369.0,355.0,445.0,3.0,415.0,249.369
249379.0,355.0,437.0,3.0,412.0,249.379
249389.0,348.0,434.0,3.0,408.0,249.389
249399.0,347.0,434.0,4.0,409.0,249.399
249409.0,351.0,437.0,4.0,416.0,249.409
249419.0,351.0,442.0,4.0,417.0,249.419
249430.0,350.0,435.0,4.0,413.0,249.43
249440.0,339.0,423.0,4.0,399.0,249.44
249450.0,345.0,434.0,3.0,410.0,249.45
249460.0,354.0,441.0,5.0,419.0,249.46
249470.0,349.0,438.0,4.0,411.0,249.47
249480.0,352.0,434.0,4.0,410.0,249.48
249490.0,339.0,421.0,4.0,395.0,249.49
249500.0,346.0,435.0,4.0,409.0,249.5
249510.0,356.0,444.0,3.0,424.0,249.51
249520.0,353.0,442.0,3.0,417.0,249.52
249530.0,350.0,433.0,3.0,411.0,249.53
249540.0,341.0,422.0,5.0,397.0,249.54
249550.0,348.0,436.0,2.0,413.0,249.55
249560.0,352.0,440.0,3.0,417.0,249.56
249570.0,352.0,441.0,3.0,413.0,249.57
249580.0,349.0,433.0,3.0,410.0,249.58
249590.0,340.0,422.0,3.0,398.0,249.59
249600.0,344.0,430.0,4.0,404.0,249.6
249610.0,353.0,438.0,4.0,414.0,249.61
249620.0,355.0,439.0,3.0,412.0,249.62
249630.0,352.0,433.0,3.0,413.0,249.63
249640.0,341.0,422.0,3.0,400.0,249.64
249650.0,346.0,431.0,3.0,408.0,249.65
249660.0,355.0,438.0,4.0,416.0,249.66
249670.0,352.0,436.0,4.0,409.0,249.67
249680.0,349.0,430.0,4.0,405.0,249.68
249690.0,342.0,420.0,4.0,397.0,249.69
249700.0,347.0,431.0,3.0,410.0,249.7
249710.0,356.0,438.0,4.0,420.0,249.71
249720.0,351.0,435.0,3.0,411.0,249.72
249730.0,352.0,431.0,4.0,410.0,249.73
249740.0,340.0,418.0,2.0,397.0,249.74
249750.0,346.0,431.0,4.0,408.0,249.75
249760.0,357.0,439.0,3.0,418.0,249.76
249771.0,353.0,432.0,3.0,407.0,249.771
249781.0,349.0,429.0,3.0,404.0,249.781
249791.0,344.0,423.0,4.0,401.0,249.791
249801.0,352.0,437.0,3.0,411.0,249.801
249811.0,357.0,437.0,3.0,414.0,249.811
249821.0,350.0,432.0,3.0,409.0,249.821
249831.0,346.0,428.0,3.0,405.0,249.831
249841.0,345.0,425.0,3.0,404.0,249.841
249851.0,353.0,437.0,5.0,413.0,249.851
249861.0,357.0,439.0,3.0,419.0,249.861
249871.0,348.0,430.0,4.0,408.0,249.871
249881.0,345.0,429.0,3.0,407.0,249.881
249891.0,343.0,426.0,3.0,406.0,249.891
249901.0,347.0,434.0,3.0,410.0,249.901
249911.0,355.0,438.0,4.0,417.0,249.911
249921.0,348.0,428.0,3.0,404.0,249.921
249931.0,345.0,427.0,3.0,403.0,249.931
249942.0,344.0,428.0,4.0,409.0,249.942
249952.0,350.0,437.0,3.0,412.0,249.952
249962.0,352.0,432.0,4.0,410.0,249.962
249972.0,341.0,420.0,4.0,398.0,249.972
249982.0,342.0,426.0,3.0,404.0,249.982
249992.0,345.0,427.0,3.0,407.0,249.992
250002.0,350.0,437.0,4.0,413.0,250.002
250012.0,351.0,431.0,3.0,411.0,250.012
250022.0,341.0,419.0,4.0,399.0,250.022
250032.0,343.0,425.0,4.0,404.0,250.032
250042.0,347.0,428.0,4.0,409.0,250.042
250052.0,349.0,434.0,3.0,409.0,250.052
250062.0,349.0,428.0,4.0,407.0,250.062
250072.0,344.0,424.0,3.0,402.0,250.072
250082.0,343.0,424.0,3.0,401.0,250.082
250092.0,347.0,431.0,4.0,409.0,250.092
250102.0,350.0,436.0,4.0,412.0,250.102
250112.0,353.0,434.0,4.0,412.0,250.112
250122.0,342.0,423.0,4.0,400.0,250.122
250132.0,341.0,426.0,3.0,405.0,250.132
250142.0,350.0,433.0,4.0,412.0,250.142
250152.0,351.0,436.0,4.0,412.0,250.152
250162.0,355.0,434.0,4.0,413.0,250.162
250172.0,342.0,422.0,3.0,402.0,250.172
250182.0,343.0,425.0,3.0,405.0,250.182
250192.0,350.0,434.0,4.0,415.0,250.192
250202.0,350.0,436.0,3.0,415.0,250.202
250212.0,356.0,432.0,3.0,415.0,250.212
250222.0,344.0,421.0,4.0,405.0,250.222
250232.0,345.0,427.0,4.0,409.0,250.232
250242.0,347.0,427.0,4.0,414.0,250.242
250252.0,352.0,436.0,4.0,418.0,250.252
250262.0,351.0,432.0,3.0,415.0,250.262
250272.0,340.0,418.0,4.0,402.0,250.272
250283.0,342.0,425.0,4.0,406.0,250.283
250293.0,356.0,436.0,3.0,419.0,250.293
250303.0,353.0,434.0,3.0,414.0,250.303
250313.0,350.0,429.0,3.0,411.0,250.313
250323.0,340.0,418.0,3.0,403.0,250.323
250333.0,346.0,429.0,3.0,410.0,250.333
250343.0,354.0,437.0,4.0,424.0,250.343
250353.0,351.0,432.0,4.0,416.0,250.353
250363.0,348.0,429.0,4.0,412.0,250.363
250373.0,338.0,418.0,3.0,402.0,250.373
250383.0,344.0,431.0,3.0,413.0,250.383
250393.0,354.0,439.0,3.0,421.0,250.393
250403.0,349.0,433.0,3.0,413.0,250.403
250413.0,349.0,431.0,5.0,413.0,250.413
250423.0,338.0,417.0,2.0,400.0,250.423
250433.0,344.0,429.0,4.0,407.0,250.433
250443.0,352.0,437.0,4.0,417.0,250.443
250454.0,345.0,428.0,4.0,409.0,250.454
250464.0,343.0,427.0,3.0,409.0,250.464
250474.0,339.0,421.0,4.0,405.0,250.474
250484.0,346.0,434.0,3.0,416.0,250.484
250494.0,352.0,435.0,3.0,416.0,250.494
250504.0,344.0,427.0,3.0,408.0,250.504
250514.0,341.0,425.0,3.0,405.0,250.514
250524.0,338.0,420.0,4.0,405.0,250.524
250534.0,347.0,433.0,4.0,416.0,250.534
250544.0,353.0,436.0,4.0,419.0,250.544
250554.0,343.0,427.0,3.0,408.0,250.554
250564.0,342.0,426.0,4.0,407.0,250.564
250574.0,341.0,424.0,3.0,407.0,250.574
250584.0,347.0,432.0,3.0,414.0,250.584
250594.0,359.0,438.0,4.0,421.0,250.594
250604.0,349.0,425.0,4.0,408.0,250.604
250614.0,346.0,426.0,3.0,407.0,250.614
250624.0,341.0,418.0,4.0,403.0,250.624
250634.0,350.0,434.0,3.0,415.0,250.634
250644.0,357.0,437.0,5.0,420.0,250.644
250654.0,346.0,426.0,3.0,408.0,250.654
250664.0,342.0,424.0,4.0,407.0,250.664
250674.0,336.0,418.0,2.0,405.0,250.674
250684.0,347.0,433.0,3.0,416.0,250.684
250694.0,355.0,439.0,3.0,421.0,250.694
250704.0,344.0,425.0,3.0,407.0,250.704
250714.0,344.0,427.0,3.0,409.0,250.714
250724.0,340.0,420.0,5.0,404.0,250.724
250734.0,348.0,435.0,2.0,415.0,250.734
250744.0,354.0,435.0,3.0,419.0,250.744
250754.0,347.0,429.0,3.0,412.0,250.754
250764.0,349.0,426.0,4.0,407.0,250.764
250774.0,344.0,423.0,3.0,408.0,250.774
250784.0,352.0,436.0,4.0,416.0,250.784
250795.0,355.0,434.0,3.0,416.0,250.795
250805.0,342.0,421.0,4.0,401.0,250.805
250815.0,343.0,426.0,3.0,404.0,250.815
250825.0,349.0,433.0,3.0,414.0,250.825
250835.0,351.0,436.0,5.0,415.0,250.835
250845.0,351.0,434.0,4.0,414.0,250.845
250855.0,336.0,421.0,4.0,402.0,250.855
250865.0,336.0,426.0,3.0,406.0,250.865
250875.0,345.0,434.0,4.0,416.0,250.875
250885.0,346.0,437.0,3.0,416.0,250.885
250895.0,348.0,433.0,4.0,412.0,250.895
250905.0,336.0,420.0,3.0,399.0,250.905
250915.0,339.0,426.0,4.0,404.0,250.915
250925.0,340.0,428.0,2.0,409.0,250.925
250935.0,344.0,434.0,3.0,415.0,250.935
250945.0,346.0,431.0,3.0,412.0,250.945
250955.0,334.0,418.0,3.0,401.0,250.955
250966.0,336.0,426.0,3.0,409.0,250.966
250976.0,347.0,435.0,5.0,420.0,250.976
250986.0,343.0,431.0,4.0,416.0,250.986
250996.0,342.0,428.0,4.0,410.0,250.996
251006.0,332.0,418.0,3.0,402.0,251.006
251016.0,339.0,427.0,4.0,408.0,251.016
251026.0,349.0,436.0,3.0,419.0,251.026
251036.0,346.0,431.0,4.0,413.0,251.036
251046.0,343.0,427.0,2.0,407.0,251.046
251056.0,333.0,413.0,3.0,397.0,251.056
251066.0,338.0,427.0,3.0,410.0,251.066
251076.0,348.0,434.0,4.0,419.0,251.076
251086.0,344.0,427.0,4.0,412.0,251.086
251096.0,347.0,428.0,4.0,410.0,251.096
251106.0,334.0,412.0,4.0,398.0,251.106
251116.0,340.0,425.0,3.0,407.0,251.116
251126.0,350.0,434.0,3.0,418.0,251.126
251136.0,346.0,430.0,3.0,415.0,251.136
251146.0,343.0,425.0,4.0,410.0,251.146
251156.0,332.0,410.0,4.0,399.0,251.156
251166.0,344.0,426.0,4.0,411.0,251.166
251176.0,352.0,433.0,3.0,421.0,251.176
251186.0,346.0,427.0,4.0,414.0,251.186
251196.0,345.0,426.0,3.0,410.0,251.196
251206.0,334.0,412.0,3.0,399.0,251.206
251216.0,344.0,428.0,3.0,413.0,251.216
251226.0,350.0,432.0,4.0,416.0,251.226
251236.0,348.0,430.0,3.0,415.0,251.236
251246.0,345.0,428.0,3.0,412.0,251.246
251256.0,334.0,417.0,3.0,405.0,251.256
251266.0,340.0,427.0,4.0,413.0,251.266
251276.0,349.0,437.0,3.0,422.0,251.276
251286.0,347.0,431.0,5.0,415.0,251.286
251296.0,344.0,428.0,2.0,412.0,251.296
251307.0,335.0,417.0,4.0,405.0,251.307
251317.0,346.0,434.0,4.0,419.0,251.317
251327.0,358.0,438.0,4.0,423.0,251.327
251337.0,345.0,423.0,4.0,411.0,251.337
251347.0,343.0,424.0,3.0,410.0,251.347
251357.0,338.0,417.0,4.0,406.0,251.357
251367.0,348.0,432.0,4.0,416.0,251.367
251377.0,354.0,437.0,3.0,420.0,251.377
251387.0,341.0,420.0,3.0,406.0,251.387
251397.0,343.0,425.0,3.0,407.0,251.397
251407.0,338.0,418.0,5.0,404.0,251.407
251417.0,348.0,431.0,4.0,416.0,251.417
251427.0,352.0,434.0,4.0,418.0,251.427
251437.0,342.0,425.0,3.0,413.0,251.437
251447.0,341.0,425.0,3.0,410.0,251.447
251457.0,337.0,420.0,4.0,409.0,251.457
251467.0,344.0,429.0,4.0,413.0,251.467
251478.0,350.0,432.0,4.0,414.0,251.478
251488.0,336.0,416.0,3.0,402.0,251.488
251498.0,337.0,420.0,3.0,404.0,251.498
251508.0,343.0,428.0,3.0,412.0,251.508
251518.0,341.0,429.0,4.0,413.0,251.518
251528.0,345.0,431.0,4.0,414.0,251.528
251538.0,333.0,415.0,5.0,401.0,251.538
251548.0,334.0,422.0,4.0,405.0,251.548
251558.0,343.0,431.0,4.0,417.0,251.558
251568.0,344.0,433.0,3.0,419.0,251.568
251578.0,347.0,430.0,3.0,418.0,251.578
251588.0,336.0,416.0,3.0,405.0,251.588
251598.0,340.0,422.0,4.0,408.0,251.598
251608.0,341.0,425.0,3.0,412.0,251.608
251618.0,346.0,432.0,4.0,417.0,251.618
251628.0,349.0,431.0,3.0,416.0,251.628
251638.0,336.0,416.0,3.0,404.0,251.638
251648.0,340.0,424.0,3.0,409.0,251.648
251658.0,343.0,427.0,5.0,415.0,251.658
251668.0,348.0,431.0,2.0,418.0,251.668
251678.0,351.0,429.0,3.0,413.0,251.678
251688.0,338.0,415.0,3.0,401.0,251.688
251698.0,342.0,423.0,3.0,406.0,251.698
251708.0,346.0,429.0,3.0,414.0,251.708
251718.0,349.0,432.0,4.0,418.0,251.718
251728.0,348.0,428.0,3.0,414.0,251.728
251738.0,339.0,417.0,3.0,405.0,251.738
251748.0,341.0,421.0,3.0,408.0,251.748
251758.0,346.0,430.0,3.0,417.0,251.758
251768.0,348.0,431.0,4.0,417.0,251.768
251778.0,351.0,431.0,3.0,416.0,251.778
251788.0,339.0,416.0,4.0,404.0,251.788
251798.0,339.0,422.0,4.0,406.0,251.798
251808.0,347.0,431.0,4.0,416.0,251.808
251819.0,348.0,430.0,3.0,413.0,251.819
251829.0,350.0,426.0,4.0,410.0,251.829
251839.0,336.0,412.0,3.0,399.0,251.839
251849.0,345.0,428.0,3.0,413.0,251.849
251859.0,354.0,436.0,4.0,420.0,251.859
251869.0,348.0,430.0,4.0,412.0,251.869
251879.0,346.0,427.0,3.0,408.0,251.879
251889.0,334.0,413.0,4.0,398.0,251.889
251899.0,343.0,430.0,3.0,412.0,251.899
251909.0,349.0,435.0,5.0,416.0,251.909
251919.0,342.0,431.0,3.0,413.0,251.919
251929.0,341.0,428.0,4.0,408.0,251.929
251939.0,330.0,417.0,3.0,399.0,251.939
251949.0,336.0,426.0,4.0,408.0,251.949
251959.0,347.0,435.0,4.0,419.0,251.959
251969.0,343.0,430.0,5.0,412.0,251.969
251979.0,341.0,427.0,3.0,409.0,251.979
251990.0,331.0,418.0,3.0,404.0,251.99
252000.0,341.0,433.0,3.0,418.0,252.0
252010.0,352.0,437.0,3.0,421.0,252.01
252020.0,339.0,422.0,3.0,408.0,252.02
252030.0,338.0,424.0,4.0,407.0,252.03
252040.0,333.0,418.0,4.0,404.0,252.04
252050.0,343.0,433.0,3.0,416.0,252.05
252060.0,351.0,436.0,3.0,421.0,252.06
252070.0,338.0,422.0,3.0,408.0,252.07
252080.0,341.0,426.0,3.0,409.0,252.08
252090.0,337.0,422.0,4.0,407.0,252.09
252100.0,347.0,435.0,4.0,418.0,252.1
252110.0,353.0,437.0,4.0,421.0,252.11
252120.0,342.0,427.0,3.0,412.0,252.12
252130.0,341.0,428.0,3.0,410.0,252.13
252140.0,336.0,422.0,4.0,408.0,252.14
252150.0,344.0,434.0,3.0,416.0,252.15
252160.0,351.0,438.0,4.0,423.0,252.16
252170.0,341.0,426.0,2.0,412.0,252.17
252180.0,341.0,425.0,4.0,409.0,252.18
252190.0,337.0,424.0,4.0,411.0,252.19
252200.0,344.0,434.0,4.0,418.0,252.2
252210.0,350.0,438.0,3.0,423.0,252.21
252220.0,340.0,424.0,4.0,411.0,252.22
252230.0,339.0,425.0,4.0,409.0,252.23
252240.0,339.0,425.0,3.0,411.0,252.24
252250.0,346.0,434.0,3.0,416.0,252.25
252260.0,353.0,438.0,4.0,418.0,252.26
252270.0,340.0,424.0,3.0,407.0,252.27
252280.0,340.0,426.0,5.0,406.0,252.28
252290.0,334.0,420.0,4.0,403.0,252.29
252300.0,344.0,436.0,3.0,416.0,252.3
252310.0,352.0,439.0,4.0,419.0,252.31
252320.0,338.0,424.0,3.0,406.0,252.32
252331.0,338.0,426.0,3.0,405.0,252.331
252341.0,339.0,429.0,4.0,411.0,252.341
252351.0,344.0,432.0,3.0,415.0,252.351
252361.0,344.0,429.0,4.0,411.0,252.361
252371.0,331.0,414.0,3.0,400.0,252.371
252381.0,337.0,424.0,3.0,406.0,252.381
252391.0,342.0,430.0,4.0,416.0,252.391
252401.0,345.0,432.0,4.0,417.0,252.401
252411.0,345.0,429.0,4.0,415.0,252.411
252421.0,334.0,419.0,2.0,405.0,252.421
252431.0,335.0,423.0,3.0,407.0,252.431
252441.0,341.0,432.0,3.0,416.0,252.441
252451.0,343.0,434.0,4.0,418.0,252.451
252461.0,348.0,435.0,3.0,419.0,252.461
252471.0,334.0,419.0,4.0,404.0,252.471
252481.0,336.0,424.0,3.0,404.0,252.481
252491.0,346.0,433.0,4.0,414.0,252.491
252502.0,345.0,434.0,3.0,414.0,252.502
252512.0,345.0,429.0,4.0,408.0,252.512
252522.0,331.0,415.0,4.0,397.0,252.522
252532.0,341.0,430.0,5.0,410.0,252.532
252542.0,350.0,438.0,3.0,419.0,252.542
252552.0,343.0,431.0,4.0,412.0,252.552
252562.0,342.0,429.0,3.0,409.0,252.562
252572.0,332.0,416.0,3.0,399.0,252.572
252582.0,342.0,432.0,3.0,413.0,252.582
252592.0,347.0,435.0,4.0,417.0,252.592
252602.0,344.0,431.0,4.0,413.0,252.602
252612.0,343.0,428.0,3.0,407.0,252.612
252622.0,333.0,417.0,3.0,400.0,252.622
252632.0,338.0,426.0,3.0,405.0,252.632
252642.0,347.0,435.0,4.0,417.0,252.642
252652.0,338.0,427.0,3.0,409.0,252.652
252662.0,338.0,425.0,3.0,406.0,252.662
252672.0,328.0,414.0,3.0,396.0,252.672
252682.0,336.0,426.0,3.0,407.0,252.682
252692.0,346.0,435.0,3.0,418.0,252.692
252702.0,341.0,428.0,4.0,412.0,252.702
252712.0,341.0,426.0,3.0,409.0,252.712
252722.0,331.0,413.0,4.0,399.0,252.722
252732.0,340.0,427.0,4.0,411.0,252.732
252742.0,348.0,435.0,4.0,419.0,252.742
252752.0,341.0,427.0,3.0,410.0,252.752
252762.0,343.0,428.0,4.0,409.0,252.762
252772.0,331.0,414.0,3.0,399.0,252.772
252782.0,342.0,430.0,5.0,413.0,252.782
252792.0,351.0,437.0,2.0,422.0,252.792
252802.0,345.0,432.0,4.0,413.0,252.802
252812.0,344.0,429.0,3.0,412.0,252.812
252822.0,333.0,415.0,3.0,400.0,252.822
252832.0,343.0,431.0,3.0,413.0,252.832
252843.0,352.0,438.0,4.0,421.0,252.843
252853.0,341.0,425.0,4.0,408.0,252.853
252863.0,340.0,425.0,3.0,405.0,252.863
252873.0,339.0,424.0,3.0,408.0,252.873
252883.0,347.0,434.0,3.0,417.0,252.883
252893.0,353.0,437.0,4.0,422.0,252.893
252903.0,344.0,425.0,4.0,411.0,252.903
252913.0,344.0,426.0,4.0,409.0,252.913
252923.0,342.0,427.0,3.0,411.0,252.923
252933.0,346.0,434.0,4.0,415.0,252.933
252943.0,353.0,438.0,3.0,420.0,252.943
252953.0,342.0,423.0,3.0,407.0,252.953
252963.0,341.0,425.0,4.0,406.0,252.963
252973.0,337.0,420.0,4.0,403.0,252.973
252983.0,346.0,434.0,4.0,414.0,252.983
252993.0,357.0,438.0,4.0,417.0,252.993
253003.0,342.0,424.0,3.0,404.0,253.003
253014.0,342.0,425.0,4.0,404.0,253.014
253024.0,344.0,430.0,3.0,411.0,253.024
253034.0,349.0,434.0,4.0,412.0,253.034
253044.0,348.0,430.0,3.0,410.0,253.044
253054.0,335.0,416.0,4.0,398.0,253.054
253064.0,339.0,425.0,3.0,402.0,253.064
253074.0,345.0,432.0,4.0,412.0,253.074
253084.0,344.0,434.0,3.0,412.0,253.084
253094.0,345.0,429.0,4.0,408.0,253.094
253104.0,337.0,421.0,4.0,401.0,253.104
253114.0,338.0,425.0,4.0,402.0,253.114
253124.0,345.0,434.0,3.0,415.0,253.124
253134.0,346.0,434.0,3.0,414.0,253.134
253144.0,351.0,434.0,3.0,416.0,253.144
253154.0,339.0,421.0,5.0,405.0,253.154
253164.0,341.0,426.0,4.0,409.0,253.164
253174.0,350.0,436.0,3.0,421.0,253.174
253184.0,350.0,438.0,4.0,419.0,253.184
253194.0,351.0,434.0,3.0,417.0,253.194
253204.0,339.0,420.0,4.0,404.0,253.204
253214.0,341.0,427.0,4.0,409.0,253.214
253224.0,352.0,436.0,4.0,421.0,253.224
253234.0,350.0,436.0,3.0,420.0,253.234
253244.0,350.0,432.0,3.0,416.0,253.244
253254.0,337.0,419.0,3.0,403.0,253.254
253264.0,341.0,428.0,4.0,411.0,253.264
253274.0,345.0,431.0,4.0,416.0,253.274
253284.0,349.0,435.0,4.0,418.0,253.284
253294.0,347.0,432.0,2.0,415.0,253.294
253304.0,336.0,417.0,4.0,401.0,253.304
253314.0,340.0,426.0,3.0,406.0,253.314
253324.0,345.0,432.0,3.0,414.0,253.324
253334.0,349.0,436.0,4.0,416.0,253.334
253344.0,353.0,431.0,5.0,414.0,253.344
253355.0,338.0,416.0,3.0,400.0,253.355
253365.0,343.0,429.0,4.0,410.0,253.365
253375.0,353.0,439.0,3.0,424.0,253.375
253385.0,348.0,431.0,4.0,415.0,253.385
253395.0,345.0,428.0,4.0,412.0,253.395
253405.0,337.0,416.0,4.0,403.0,253.405
253415.0,346.0,433.0,3.0,416.0,253.415
253425.0,354.0,439.0,3.0,424.0,253.425
253435.0,345.0,431.0,3.0,414.0,253.435
253445.0,346.0,433.0,3.0,414.0,253.445
253455.0,335.0,420.0,3.0,402.0,253.455
253465.0,348.0,437.0,4.0,417.0,253.465
253475.0,354.0,442.0,2.0,422.0,253.475
253485.0,350.0,437.0,4.0,416.0,253.485
253495.0,347.0,433.0,3.0,413.0,253.495
253505.0,337.0,420.0,3.0,402.0,253.505
253515.0,349.0,437.0,4.0,416.0,253.515
253526.0,360.0,443.0,3.0,423.0,253.526
253536.0,350.0,431.0,3.0,411.0,253.536
253546.0,348.0,431.0,3.0,409.0,253.546
253556.0,347.0,431.0,4.0,412.0,253.556
253566.0,354.0,441.0,3.0,422.0,253.566
253576.0,359.0,444.0,4.0,426.0,253.576
253586.0,348.0,430.0,3.0,412.0,253.586
253596.0,347.0,431.0,4.0,410.0,253.596
253606.0,346.0,432.0,4.0,415.0,253.606
253616.0,348.0,437.0,3.0,417.0,253.616
253626.0,355.0,441.0,3.0,423.0,253.626
253636.0,343.0,428.0,4.0,408.0,253.636
253646.0,341.0,429.0,3.0,407.0,253.646
253656.0,339.0,424.0,4.0,405.0,253.656
253666.0,347.0,438.0,4.0,417.0,253.666
253676.0,353.0,439.0,4.0,420.0,253.676
253686.0,341.0,426.0,3.0,408.0,253.686
253696.0,343.0,429.0,4.0,409.0,253.696
253706.0,337.0,423.0,3.0,406.0,253.706
253716.0,347.0,436.0,4.0,416.0,253.716
253726.0,353.0,437.0,2.0,417.0,253.726
253736.0,341.0,423.0,4.0,405.0,253.736
253746.0,344.0,428.0,4.0,408.0,253.746
253756.0,341.0,426.0,3.0,407.0,253.756
253766.0,347.0,436.0,3.0,416.0,253.766
253776.0,355.0,435.0,3.0,417.0,253.776
253786.0,345.0,427.0,4.0,409.0,253.786
253796.0,343.0,426.0,3.0,407.0,253.796
253806.0,341.0,425.0,3.0,409.0,253.806
253816.0,347.0,435.0,3.0,418.0,253.816
253826.0,354.0,438.0,3.0,424.0,253.826
253836.0,343.0,425.0,3.0,410.0,253.836
253846.0,343.0,425.0,4.0,407.0,253.846
253856.0,342.0,427.0,3.0,410.0,253.856
253867.0,350.0,436.0,4.0,417.0,253.867
253877.0,352.0,434.0,3.0,415.0,253.877
253887.0,338.0,420.0,3.0,403.0,253.887
253897.0,341.0,428.0,4.0,408.0,253.897
253907.0,351.0,436.0,4.0,418.0,253.907
253917.0,349.0,438.0,2.0,417.0,253.917
253927.0,350.0,433.0,4.0,413.0,253.927
253937.0,337.0,422.0,3.0,401.0,253.937
253947.0,342.0,430.0,3.0,409.0,253.947
253957.0,349.0,434.0,3.0,416.0,253.957
253967.0,353.0,439.0,4.0,419.0,253.967
253977.0,352.0,434.0,2.0,416.0,253.977
253987.0,339.0,420.0,4.0,401.0,253.987
253997.0,344.0,429.0,3.0,409.0,253.997
254007.0,350.0,435.0,3.0,418.0,254.007
254017.0,351.0,439.0,3.0,420.0,254.017
254027.0,351.0,433.0,4.0,416.0,254.027
254038.0,339.0,421.0,3.0,404.0,254.038
254048.0,345.0,433.0,3.0,414.0,254.048
254058.0,354.0,442.0,3.0,425.0,254.058
254068.0,347.0,434.0,4.0,415.0,254.068
254078.0,345.0,430.0,3.0,411.0,254.078
254088.0,335.0,418.0,5.0,400.0,254.088
254098.0,346.0,435.0,4.0,416.0,254.098
254108.0,353.0,441.0,4.0,424.0,254.108
254118.0,344.0,433.0,3.0,413.0,254.118
254128.0,347.0,432.0,4.0,411.0,254.128
254138.0,335.0,419.0,4.0,399.0,254.138
254148.0,344.0,435.0,4.0,413.0,254.148
254158.0,354.0,441.0,4.0,420.0,254.158
254168.0,348.0,436.0,3.0,414.0,254.168
254178.0,346.0,431.0,4.0,411.0,254.178
254188.0,335.0,421.0,3.0,400.0,254.188
254198.0,345.0,435.0,4.0,412.0,254.198
254208.0,351.0,438.0,4.0,417.0,254.208
254218.0,351.0,436.0,4.0,410.0,254.218
254228.0,348.0,432.0,3.0,408.0,254.228
254238.0,338.0,421.0,4.0,400.0,254.238
254248.0,348.0,437.0,3.0,413.0,254.248
254258.0,353.0,439.0,4.0,418.0,254.258
254268.0,349.0,435.0,3.0,411.0,254.268
254278.0,348.0,431.0,5.0,407.0,254.278
254288.0,338.0,423.0,2.0,401.0,254.288
254298.0,341.0,431.0,3.0,407.0,254.298
254308.0,350.0,439.0,3.0,417.0,254.308
254318.0,345.0,433.0,3.0,407.0,254.318
254328.0,343.0,430.0,3.0,406.0,254.328
254338.0,334.0,418.0,3.0,395.0,254.338
254348.0,342.0,431.0,3.0,407.0,254.348
254358.0,351.0,438.0,3.0,418.0,254.358
254368.0,344.0,430.0,4.0,409.0,254.368
254379.0,343.0,428.0,3.0,407.0,254.379
254389.0,338.0,423.0,3.0,405.0,254.389
254399.0,348.0,436.0,4.0,415.0,254.399
254409.0,353.0,436.0,4.0,418.0,254.409
254419.0,340.0,423.0,4.0,403.0,254.419
254429.0,342.0,428.0,4.0,407.0,254.429
254439.0,339.0,427.0,4.0,407.0,254.439
254449.0,347.0,439.0,4.0,416.0,254.449
254459.0,352.0,436.0,4.0,414.0,254.459
254469.0,345.0,429.0,4.0,405.0,254.469
254479.0,343.0,428.0,4.0,403.0,254.479
254489.0,342.0,427.0,4.0,405.0,254.489
254499.0,349.0,438.0,3.0,414.0,254.499
254509.0,354.0,439.0,4.0,418.0,254.509
254519.0,343.0,429.0,3.0,405.0,254.519
254529.0,344.0,428.0,5.0,404.0,254.529
254539.0,344.0,430.0,3.0,409.0,254.539
254550.0,349.0,439.0,4.0,414.0,254.55
254560.0,351.0,435.0,3.0,412.0,254.56
254570.0,339.0,424.0,3.0,400.0,254.57
254580.0,342.0,430.0,4.0,406.0,254.58
254590.0,356.0,440.0,5.0,417.0,254.59
254600.0,353.0,441.0,3.0,416.0,254.6
254610.0,353.0,435.0,4.0,412.0,254.61
254620.0,339.0,424.0,3.0,398.0,254.62
254630.0,344.0,433.0,3.0,406.0,254.63
254640.0,348.0,436.0,3.0,412.0,254.64
254650.0,352.0,442.0,4.0,414.0,254.65
254660.0,351.0,436.0,4.0,409.0,254.66
254670.0,338.0,424.0,4.0,396.0,254.67
254680.0,340.0,432.0,3.0,404.0,254.68
254690.0,346.0,439.0,4.0,412.0,254.69
254700.0,347.0,441.0,3.0,412.0,254.7
254710.0,346.0,435.0,4.0,408.0,254.71
254720.0,339.0,427.0,4.0,402.0,254.72
254730.0,340.0,431.0,4.0,406.0,254.73
254740.0,348.0,438.0,4.0,416.0,254.74
254750.0,348.0,439.0,3.0,414.0,254.75
254760.0,344.0,433.0,3.0,410.0,254.76
254770.0,336.0,423.0,3.0,400.0,254.77
254780.0,339.0,429.0,4.0,404.0,254.78
254790.0,347.0,437.0,4.0,414.0,254.79
254800.0,347.0,437.0,4.0,413.0,254.8
254810.0,350.0,435.0,3.0,413.0,254.81
254820.0,338.0,423.0,3.0,401.0,254.82
254830.0,340.0,430.0,3.0,407.0,254.83
254840.0,349.0,438.0,5.0,416.0,254.84
254850.0,346.0,438.0,2.0,415.0,254.85
254860.0,348.0,433.0,4.0,412.0,254.86
254870.0,337.0,421.0,3.0,400.0,254.87
254880.0,340.0,429.0,3.0,406.0,254.88
254891.0,350.0,438.0,4.0,416.0,254.891
254901.0,347.0,434.0,4.0,410.0,254.901
254911.0,344.0,431.0,3.0,407.0,254.911
254921.0,336.0,420.0,3.0,398.0,254.921
254931.0,345.0,437.0,3.0,414.0,254.931
254941.0,350.0,440.0,3.0,418.0,254.941
254951.0,345.0,433.0,4.0,412.0,254.951
254961.0,342.0,429.0,4.0,407.0,254.961
254971.0,334.0,421.0,3.0,400.0,254.971
254981.0,342.0,432.0,3.0,408.0,254.981
254991.0,351.0,440.0,3.0,417.0,254.991
255001.0,345.0,432.0,3.0,408.0,255.001
255011.0,344.0,430.0,3.0,406.0,255.011
255021.0,333.0,419.0,3.0,398.0,255.021
255031.0,343.0,433.0,4.0,409.0,255.031
255041.0,352.0,441.0,3.0,419.0,255.041
255051.0,345.0,431.0,4.0,409.0,255.051
255062.0,343.0,429.0,4.0,406.0,255.062
255072.0,340.0,424.0,4.0,405.0,255.072
255082.0,349.0,437.0,4.0,416.0,255.082
255092.0,355.0,437.0,3.0,416.0,255.092
255102.0,344.0,425.0,3.0,402.0,255.102
255112.0,348.0,428.0,4.0,405.0,255.112
255122.0,345.0,428.0,3.0,406.0,255.122
255132.0,353.0,439.0,3.0,416.0,255.132
255142.0,356.0,437.0,3.0,416.0,255.142
255152.0,349.0,431.0,3.0,408.0,255.152
255162.0,346.0,430.0,3.0,406.0,255.162
255172.0,348.0,431.0,4.0,409.0,255.172
255182.0,352.0,441.0,3.0,416.0,255.182
255192.0,357.0,440.0,3.0,420.0,255.192
255202.0,344.0,430.0,3.0,406.0,255.202
255212.0,343.0,429.0,4.0,404.0,255.212
255222.0,344.0,431.0,4.0,409.0,255.222
255232.0,348.0,437.0,4.0,412.0,255.232
255242.0,355.0,440.0,3.0,419.0,255.242
255252.0,344.0,427.0,3.0,405.0,255.252
255262.0,342.0,427.0,3.0,405.0,255.262
255272.0,350.0,432.0,4.0,413.0,255.272
255282.0,353.0,438.0,4.0,416.0,255.282
255292.0,358.0,438.0,4.0,420.0,255.292
255302.0,347.0,427.0,4.0,408.0,255.302
255312.0,346.0,428.0,3.0,406.0,255.312
255322.0,344.0,425.0,4.0,406.0,255.322
255332.0,352.0,438.0,4.0,415.0,255.332
255342.0,356.0,437.0,3.0,416.0,255.342
255352.0,344.0,425.0,4.0,402.0,255.352
255362.0,344.0,430.0,3.0,406.0,255.362
255372.0,340.0,428.0,3.0,407.0,255.372
255382.0,348.0,439.0,4.0,415.0,255.382
255392.0,352.0,436.0,4.0,416.0,255.392
255403.0,340.0,423.0,3.0,402.0,255.403
255413.0,340.0,428.0,3.0,405.0,255.413
255423.0,348.0,436.0,4.0,416.0,255.423
255433.0,349.0,439.0,3.0,415.0,255.433
255443.0,348.0,431.0,3.0,410.0,255.443
255453.0,342.0,424.0,3.0,400.0,255.453
255463.0,345.0,429.0,5.0,406.0,255.463
255473.0,352.0,439.0,3.0,418.0,255.473
255483.0,351.0,438.0,3.0,414.0,255.483
255493.0,353.0,436.0,3.0,415.0,255.493
255503.0,339.0,423.0,4.0,399.0,255.503
255513.0,343.0,430.0,3.0,407.0,255.513
255523.0,353.0,439.0,5.0,417.0,255.523
255533.0,352.0,439.0,4.0,414.0,255.533
255543.0,352.0,435.0,3.0,411.0,255.543
255553.0,339.0,422.0,3.0,398.0,255.553
255563.0,343.0,431.0,3.0,405.0,255.563
255574.0,352.0,439.0,3.0,416.0,255.574
255584.0,347.0,434.0,3.0,408.0,255.584
255594.0,346.0,430.0,4.0,406.0,255.594
255604.0,337.0,420.0,3.0,399.0,255.604
255614.0,347.0,436.0,4.0,411.0,255.614
255624.0,352.0,438.0,3.0,417.0,255.624
255634.0,346.0,433.0,4.0,410.0,255.634
255644.0,344.0,431.0,3.0,406.0,255.644
255654.0,339.0,422.0,4.0,400.0,255.654
255664.0,343.0,432.0,4.0,407.0,255.664
255674.0,353.0,440.0,4.0,417.0,255.674
255684.0,346.0,433.0,3.0,407.0,255.684
255694.0,344.0,430.0,3.0,406.0,255.694
255704.0,335.0,419.0,3.0,397.0,255.704
255714.0,346.0,434.0,5.0,409.0,255.714
255724.0,358.0,443.0,3.0,418.0,255.724
255734.0,350.0,433.0,3.0,408.0,255.734
255744.0,351.0,434.0,3.0,410.0,255.744
255754.0,338.0,420.0,3.0,398.0,255.754
255764.0,347.0,435.0,3.0,411.0,255.764
255774.0,356.0,441.0,4.0,420.0,255.774
255784.0,346.0,432.0,4.0,408.0,255.784
255794.0,347.0,432.0,3.0,409.0,255.794
255804.0,338.0,421.0,4.0,402.0,255.804
255814.0,346.0,437.0,4.0,413.0,255.814
255824.0,353.0,442.0,3.0,422.0,255.824
255834.0,346.0,435.0,3.0,414.0,255.834
255844.0,344.0,432.0,4.0,411.0,255.844
255854.0,336.0,422.0,4.0,404.0,255.854
255864.0,347.0,438.0,3.0,416.0,255.864
255874.0,352.0,442.0,3.0,421.0,255.874
255884.0,347.0,435.0,4.0,414.0,255.884
255894.0,345.0,432.0,4.0,410.0,255.894
255904.0,340.0,424.0,4.0,405.0,255.904
255915.0,350.0,437.0,4.0,415.0,255.915
255925.0,357.0,440.0,3.0,420.0,255.925
255935.0,344.0,427.0,3.0,406.0,255.935
255945.0,344.0,428.0,4.0,407.0,255.945
255955.0,347.0,434.0,3.0,414.0,255.955
255965.0,350.0,438.0,4.0,416.0,255.965
255975.0,356.0,439.0,2.0,419.0,255.975
255985.0,343.0,426.0,4.0,405.0,255.985
255995.0,343.0,429.0,3.0,408.0,255.995
256005.0,343.0,428.0,4.0,408.0,256.005
256015.0,352.0,439.0,3.0,416.0,256.015
256025.0,357.0,438.0,4.0,416.0,256.025
256035.0,343.0,425.0,4.0,403.0,256.035
256045.0,346.0,430.0,5.0,406.0,256.045
256055.0,344.0,428.0,3.0,407.0,256.055
256065.0,351.0,438.0,4.0,414.0,256.065
256075.0,356.0,435.0,4.0,414.0,256.075
