time (ms),signal 0,signal 1,signal 2,signal 3,time (sec)
286920.0,340.0,417.0,4.0,401.0,286.92
286930.0,351.0,434.0,3.0,416.0,286.93
286940.0,356.0,436.0,3.0,420.0,286.94
286950.0,349.0,430.0,4.0,411.0,286.95
286960.0,348.0,425.0,4.0,407.0,286.96
286970.0,343.0,421.0,4.0,405.0,286.97
286980.0,348.0,430.0,3.0,412.0,286.98
286990.0,358.0,437.0,4.0,419.0,286.99
287000.0,350.0,429.0,3.0,409.0,287.0
287010.0,348.0,426.0,4.0,407.0,287.01
287020.0,340.0,416.0,3.0,400.0,287.02
287030.0,350.0,432.0,5.0,413.0,287.03
287040.0,358.0,438.0,4.0,422.0,287.04
287050.0,349.0,428.0,4.0,409.0,287.05
287060.0,342.0,426.0,3.0,409.0,287.06
287070.0,335.0,417.0,3.0,402.0,287.07
287080.0,346.0,433.0,3.0,414.0,287.08
287090.0,356.0,437.0,4.0,421.0,287.09
287100.0,346.0,428.0,2.0,409.0,287.1
287110.0,347.0,428.0,3.0,410.0,287.11
287120.0,340.0,421.0,3.0,405.0,287.12
287130.0,349.0,436.0,3.0,416.0,287.13
287140.0,357.0,438.0,3.0,422.0,287.14
287150.0,350.0,433.0,4.0,414.0,287.15
287160.0,348.0,429.0,4.0,411.0,287.16
287170.0,343.0,422.0,3.0,407.0,287.17
287180.0,353.0,437.0,4.0,419.0,287.18
287190.0,357.0,441.0,3.0,423.0,287.19
287200.0,351.0,433.0,4.0,414.0,287.2
287210.0,349.0,430.0,4.0,412.0,287.21
287220.0,345.0,425.0,4.0,410.0,287.22
287230.0,353.0,439.0,3.0,420.0,287.23
287240.0,359.0,440.0,4.0,425.0,287.24
287250.0,350.0,433.0,3.0,416.0,287.25
287260.0,348.0,429.0,3.0,412.0,287.26
287270.0,348.0,426.0,3.0,412.0,287.27
287280.0,355.0,435.0,5.0,419.0,287.28
287290.0,361.0,440.0,4.0,426.0,287.29
287300.0,352.0,431.0,4.0,413.0,287.3
287310.0,350.0,430.0,3.0,412.0,287.31
287320.0,343.0,420.0,4.0,405.0,287.32
287330.0,354.0,438.0,4.0,420.0,287.33
287340.0,361.0,441.0,4.0,426.0,287.34
287350.0,350.0,430.0,4.0,415.0,287.35
287360.0,350.0,431.0,3.0,417.0,287.36
287370.0,344.0,423.0,3.0,411.0,287.37
287380.0,354.0,439.0,3.0,422.0,287.38
287390.0,361.0,442.0,5.0,427.0,287.39
287400.0,349.0,429.0,4.0,414.0,287.4
287410.0,350.0,430.0,4.0,414.0,287.41
287420.0,342.0,424.0,4.0,409.0,287.42
287430.0,353.0,439.0,3.0,421.0,287.43
287440.0,360.0,442.0,3.0,425.0,287.44
287450.0,352.0,434.0,4.0,418.0,287.45
287460.0,350.0,431.0,4.0,414.0,287.46
287470.0,346.0,426.0,4.0,412.0,287.47
287480.0,355.0,440.0,4.0,423.0,287.48
287490.0,360.0,442.0,3.0,428.0,287.49
287500.0,352.0,434.0,3.0,418.0,287.5
287510.0,351.0,431.0,4.0,413.0,287.51
287520.0,347.0,427.0,4.0,413.0,287.52
287531.0,357.0,439.0,4.0,421.0,287.531
287541.0,359.0,438.0,2.0,423.0,287.541
287551.0,347.0,426.0,3.0,409.0,287.551
287561.0,347.0,429.0,3.0,411.0,287.561
287571.0,355.0,436.0,3.0,420.0,287.571
287581.0,356.0,438.0,4.0,420.0,287.581
287591.0,359.0,436.0,4.0,419.0,287.591
287601.0,348.0,424.0,4.0,407.0,287.601
287611.0,348.0,429.0,3.0,409.0,287.611
287621.0,351.0,431.0,3.0,414.0,287.621
287631.0,358.0,440.0,3.0,419.0,287.631
287641.0,360.0,436.0,3.0,418.0,287.641
287651.0,349.0,424.0,4.0,405.0,287.651
287661.0,353.0,430.0,4.0,409.0,287.661
287671.0,354.0,433.0,4.0,415.0,287.671
287681.0,359.0,441.0,3.0,421.0,287.681
287691.0,359.0,436.0,3.0,418.0,287.691
287702.0,349.0,424.0,4.0,405.0,287.702
287712.0,351.0,432.0,4.0,412.0,287.712
287722.0,361.0,441.0,4.0,423.0,287.722
287732.0,356.0,439.0,4.0,420.0,287.732
287742.0,354.0,433.0,3.0,415.0,287.742
287752.0,346.0,424.0,3.0,406.0,287.752
287762.0,351.0,433.0,4.0,414.0,287.762
287772.0,359.0,441.0,4.0,424.0,287.772
287782.0,356.0,437.0,4.0,417.0,287.782
287792.0,356.0,435.0,4.0,416.0,287.792
287802.0,345.0,422.0,3.0,404.0,287.802
287812.0,350.0,434.0,3.0,415.0,287.812
287822.0,360.0,441.0,4.0,423.0,287.822
287832.0,356.0,441.0,3.0,420.0,287.832
287842.0,355.0,434.0,4.0,416.0,287.842
287852.0,343.0,422.0,2.0,405.0,287.852
287862.0,352.0,435.0,4.0,418.0,287.862
287872.0,357.0,439.0,3.0,425.0,287.872
287882.0,357.0,441.0,3.0,421.0,287.882
287892.0,354.0,435.0,3.0,417.0,287.892
287902.0,342.0,422.0,2.0,406.0,287.902
287912.0,352.0,438.0,4.0,419.0,287.912
287922.0,357.0,441.0,4.0,425.0,287.922
287932.0,357.0,440.0,3.0,423.0,287.932
287942.0,354.0,434.0,3.0,417.0,287.942
287952.0,345.0,423.0,4.0,407.0,287.952
287962.0,351.0,434.0,4.0,415.0,287.962
287972.0,362.0,443.0,4.0,426.0,287.972
287982.0,358.0,442.0,4.0,421.0,287.982
287992.0,356.0,436.0,4.0,416.0,287.992
288002.0,348.0,426.0,4.0,407.0,288.002
288012.0,352.0,434.0,4.0,415.0,288.012
288022.0,361.0,443.0,4.0,425.0,288.022
288032.0,359.0,439.0,4.0,419.0,288.032
288043.0,355.0,433.0,3.0,415.0,288.043
288053.0,348.0,425.0,4.0,409.0,288.053
288063.0,357.0,442.0,3.0,421.0,288.063
288073.0,362.0,442.0,4.0,426.0,288.073
288083.0,350.0,431.0,3.0,414.0,288.083
288093.0,352.0,433.0,4.0,415.0,288.093
288103.0,346.0,426.0,4.0,410.0,288.103
288113.0,356.0,441.0,4.0,421.0,288.113
288123.0,362.0,443.0,3.0,424.0,288.123
288133.0,354.0,436.0,3.0,415.0,288.133
288143.0,352.0,432.0,3.0,413.0,288.143
288153.0,349.0,428.0,5.0,411.0,288.153
288163.0,357.0,441.0,4.0,420.0,288.163
288173.0,361.0,443.0,4.0,426.0,288.173
288183.0,352.0,435.0,3.0,416.0,288.183
288193.0,349.0,432.0,3.0,412.0,288.193
288203.0,348.0,428.0,3.0,413.0,288.203
288214.0,356.0,441.0,4.0,422.0,288.214
288224.0,361.0,439.0,4.0,421.0,288.224
288234.0,350.0,428.0,3.0,409.0,288.234
288244.0,350.0,431.0,3.0,410.0,288.244
288254.0,358.0,439.0,4.0,420.0,288.254
288264.0,359.0,442.0,4.0,420.0,288.264
288274.0,361.0,438.0,3.0,420.0,288.274
288284.0,353.0,428.0,4.0,408.0,288.284
288294.0,352.0,432.0,3.0,412.0,288.294
288304.0,355.0,434.0,4.0,416.0,288.304
288314.0,360.0,444.0,3.0,423.0,288.314
288324.0,361.0,437.0,4.0,418.0,288.324
288334.0,351.0,426.0,4.0,407.0,288.334
288344.0,353.0,432.0,4.0,411.0,288.344
288354.0,355.0,435.0,3.0,418.0,288.354
288364.0,360.0,443.0,4.0,421.0,288.364
288374.0,359.0,438.0,3.0,419.0,288.374
288384.0,354.0,431.0,4.0,411.0,288.384
288394.0,354.0,431.0,3.0,411.0,288.394
288404.0,358.0,436.0,4.0,418.0,288.404
288414.0,361.0,442.0,4.0,421.0,288.414
288424.0,360.0,436.0,4.0,417.0,288.424
288434.0,355.0,430.0,3.0,411.0,288.434
288444.0,354.0,430.0,3.0,409.0,288.444
288454.0,360.0,438.0,3.0,419.0,288.454
288464.0,362.0,442.0,4.0,419.0,288.464
288474.0,364.0,439.0,4.0,420.0,288.474
288484.0,352.0,429.0,3.0,408.0,288.484
288494.0,348.0,431.0,4.0,409.0,288.494
288504.0,354.0,439.0,4.0,419.0,288.504
288514.0,355.0,442.0,4.0,419.0,288.514
288524.0,357.0,438.0,3.0,418.0,288.524
288534.0,348.0,427.0,4.0,406.0,288.534
288544.0,347.0,430.0,3.0,409.0,288.544
288555.0,355.0,439.0,3.0,421.0,288.555
288565.0,356.0,441.0,3.0,420.0,288.565
288575.0,354.0,433.0,3.0,415.0,288.575
288585.0,344.0,422.0,4.0,404.0,288.585
288595.0,350.0,437.0,4.0,417.0,288.595
288605.0,354.0,441.0,3.0,422.0,288.605
288615.0,353.0,440.0,3.0,417.0,288.615
288625.0,351.0,435.0,3.0,414.0,288.625
288635.0,341.0,424.0,3.0,404.0,288.635
288645.0,346.0,433.0,3.0,412.0,288.645
288655.0,358.0,442.0,5.0,423.0,288.655
288665.0,354.0,440.0,3.0,418.0,288.665
288675.0,351.0,434.0,3.0,414.0,288.675
288685.0,347.0,427.0,3.0,406.0,288.685
288695.0,351.0,435.0,4.0,414.0,288.695
288705.0,361.0,443.0,4.0,424.0,288.705
288715.0,357.0,439.0,4.0,417.0,288.715
288726.0,353.0,434.0,4.0,413.0,288.726
288736.0,346.0,427.0,4.0,406.0,288.736
288746.0,355.0,443.0,3.0,420.0,288.746
288756.0,362.0,443.0,4.0,424.0,288.756
288766.0,351.0,432.0,3.0,410.0,288.766
288776.0,353.0,434.0,4.0,412.0,288.776
288786.0,348.0,428.0,4.0,409.0,288.786
288796.0,358.0,442.0,4.0,420.0,288.796
288806.0,363.0,443.0,4.0,424.0,288.806
288816.0,355.0,438.0,3.0,415.0,288.816
288826.0,353.0,433.0,4.0,413.0,288.826
288836.0,349.0,429.0,4.0,411.0,288.836
288846.0,359.0,442.0,4.0,420.0,288.846
288856.0,361.0,443.0,4.0,424.0,288.856
288866.0,351.0,434.0,3.0,413.0,288.866
288876.0,348.0,433.0,3.0,411.0,288.876
288886.0,346.0,430.0,4.0,411.0,288.886
288896.0,351.0,440.0,3.0,418.0,288.896
288906.0,361.0,443.0,4.0,424.0,288.906
288916.0,351.0,433.0,4.0,412.0,288.916
288926.0,349.0,432.0,3.0,411.0,288.926
288936.0,350.0,433.0,3.0,415.0,288.936
288946.0,354.0,441.0,4.0,419.0,288.946
288956.0,361.0,444.0,4.0,426.0,288.956
288966.0,350.0,434.0,3.0,413.0,288.966
288976.0,349.0,432.0,4.0,411.0,288.976
288986.0,344.0,427.0,3.0,408.0,288.986
288996.0,355.0,443.0,3.0,420.0,288.996
289006.0,363.0,444.0,3.0,424.0,289.006
289016.0,352.0,432.0,3.0,411.0,289.016
289026.0,353.0,434.0,4.0,413.0,289.026
289036.0,348.0,428.0,4.0,408.0,289.036
289046.0,356.0,442.0,4.0,418.0,289.046
289056.0,367.0,444.0,3.0,423.0,289.056
289067.0,353.0,432.0,3.0,410.0,289.067
289077.0,352.0,432.0,3.0,409.0,289.077
289087.0,356.0,437.0,4.0,418.0,289.087
289097.0,360.0,443.0,4.0,420.0,289.097
289107.0,358.0,436.0,3.0,416.0,289.107
289117.0,352.0,429.0,4.0,409.0,289.117
289127.0,351.0,432.0,3.0,409.0,289.127
289137.0,357.0,439.0,3.0,420.0,289.137
289147.0,361.0,443.0,4.0,421.0,289.147
289157.0,367.0,440.0,5.0,421.0,289.157
289167.0,352.0,428.0,3.0,408.0,289.167
289177.0,352.0,432.0,3.0,409.0,289.177
289187.0,359.0,440.0,3.0,423.0,289.187
289197.0,359.0,441.0,4.0,423.0,289.197
289207.0,360.0,438.0,3.0,421.0,289.207
289217.0,350.0,427.0,5.0,410.0,289.217
289227.0,345.0,431.0,4.0,413.0,289.227
289238.0,355.0,442.0,3.0,424.0,289.238
289248.0,355.0,443.0,3.0,422.0,289.248
289258.0,353.0,436.0,3.0,416.0,289.258
289268.0,341.0,423.0,3.0,406.0,289.268
289278.0,352.0,438.0,4.0,419.0,289.278
289288.0,357.0,441.0,4.0,424.0,289.288
289298.0,358.0,439.0,4.0,418.0,289.298
289308.0,356.0,434.0,3.0,414.0,289.308
289318.0,346.0,423.0,3.0,405.0,289.318
289328.0,349.0,432.0,4.0,413.0,289.328
289338.0,359.0,443.0,4.0,424.0,289.338
289348.0,357.0,440.0,4.0,421.0,289.348
289358.0,354.0,435.0,3.0,415.0,289.358
289368.0,349.0,425.0,4.0,406.0,289.368
289378.0,353.0,437.0,3.0,414.0,289.378
289388.0,363.0,444.0,3.0,426.0,289.388
289398.0,358.0,439.0,4.0,420.0,289.398
289408.0,358.0,437.0,4.0,418.0,289.408
289418.0,347.0,422.0,2.0,407.0,289.418
289428.0,352.0,435.0,4.0,417.0,289.428
289438.0,359.0,442.0,3.0,427.0,289.438
289448.0,351.0,432.0,3.0,419.0,289.448
289458.0,352.0,431.0,4.0,418.0,289.458
289468.0,342.0,418.0,5.0,408.0,289.468
289478.0,348.0,432.0,2.0,420.0,289.478
289488.0,357.0,438.0,4.0,428.0,289.488
289498.0,352.0,436.0,3.0,422.0,289.498
289508.0,350.0,430.0,3.0,416.0,289.508
289518.0,340.0,416.0,4.0,405.0,289.518
289528.0,349.0,432.0,5.0,417.0,289.528
289538.0,355.0,435.0,4.0,423.0,289.538
289548.0,354.0,434.0,4.0,420.0,289.548
289558.0,352.0,430.0,3.0,416.0,289.558
289568.0,342.0,418.0,3.0,406.0,289.568
289579.0,351.0,434.0,4.0,418.0,289.579
289589.0,360.0,438.0,3.0,425.0,289.589
289599.0,350.0,428.0,4.0,414.0,289.599
289609.0,348.0,427.0,4.0,413.0,289.609
289619.0,347.0,427.0,4.0,415.0,289.619
289629.0,354.0,435.0,3.0,418.0,289.629
289639.0,361.0,438.0,3.0,424.0,289.639
289649.0,351.0,427.0,4.0,411.0,289.649
289659.0,350.0,427.0,4.0,410.0,289.659
289669.0,344.0,421.0,2.0,407.0,289.669
289679.0,355.0,437.0,3.0,420.0,289.679
289689.0,362.0,440.0,3.0,426.0,289.689
289699.0,351.0,427.0,4.0,412.0,289.699
289709.0,352.0,429.0,3.0,413.0,289.709
289719.0,347.0,425.0,4.0,410.0,289.719
289729.0,355.0,439.0,2.0,420.0,289.729
289739.0,359.0,438.0,3.0,423.0,289.739
289750.0,347.0,427.0,3.0,412.0,289.75
289760.0,345.0,427.0,4.0,410.0,289.76
289770.0,352.0,432.0,4.0,418.0,289.77
289780.0,355.0,438.0,4.0,421.0,289.78
289790.0,354.0,432.0,4.0,417.0,289.79
289800.0,346.0,425.0,4.0,410.0,289.8
289810.0,346.0,427.0,3.0,412.0,289.81
289820.0,351.0,433.0,3.0,420.0,289.82
289830.0,348.0,435.0,3.0,418.0,289.83
289840.0,352.0,433.0,3.0,418.0,289.84
289850.0,341.0,421.0,4.0,407.0,289.85
289860.0,342.0,424.0,3.0,410.0,289.86
289870.0,351.0,433.0,3.0,422.0,289.87
289880.0,351.0,437.0,3.0,422.0,289.88
289890.0,353.0,431.0,3.0,420.0,289.89
289900.0,342.0,420.0,4.0,408.0,289.9
289910.0,344.0,425.0,4.0,413.0,289.91
289920.0,347.0,427.0,3.0,417.0,289.92
289930.0,348.0,435.0,4.0,423.0,289.93
289940.0,350.0,432.0,3.0,421.0,289.94
289950.0,341.0,420.0,4.0,407.0,289.95
289960.0,343.0,426.0,3.0,413.0,289.96
289970.0,348.0,430.0,4.0,418.0,289.97
289980.0,353.0,436.0,3.0,422.0,289.98
289990.0,353.0,431.0,4.0,418.0,289.99
290000.0,344.0,420.0,3.0,406.0,290.0
290010.0,346.0,426.0,4.0,409.0,290.01
290020.0,351.0,432.0,4.0,418.0,290.02
290030.0,357.0,437.0,4.0,421.0,290.03
290040.0,358.0,431.0,4.0,417.0,290.04
290050.0,351.0,423.0,4.0,408.0,290.05
290060.0,349.0,426.0,3.0,410.0,290.06
290070.0,357.0,433.0,3.0,418.0,290.07
290080.0,359.0,437.0,3.0,421.0,290.08
290091.0,357.0,431.0,3.0,416.0,290.091
290101.0,346.0,417.0,4.0,405.0,290.101
290111.0,354.0,431.0,3.0,417.0,290.111
290121.0,361.0,439.0,3.0,426.0,290.121
290131.0,355.0,431.0,3.0,416.0,290.131
290141.0,356.0,429.0,5.0,416.0,290.141
290151.0,345.0,417.0,4.0,405.0,290.151
290161.0,354.0,432.0,4.0,417.0,290.161
290171.0,364.0,439.0,4.0,425.0,290.171
290181.0,359.0,437.0,4.0,421.0,290.181
290191.0,355.0,431.0,3.0,416.0,290.191
290201.0,348.0,418.0,3.0,407.0,290.201
290211.0,356.0,434.0,3.0,421.0,290.211
290221.0,362.0,438.0,5.0,425.0,290.221
290231.0,358.0,438.0,3.0,422.0,290.231
290241.0,355.0,432.0,4.0,417.0,290.241
290251.0,346.0,421.0,3.0,408.0,290.251
290262.0,354.0,436.0,4.0,420.0,290.262
290272.0,362.0,441.0,3.0,428.0,290.272
290282.0,352.0,431.0,4.0,416.0,290.282
290292.0,345.0,429.0,4.0,413.0,290.292
290302.0,345.0,428.0,4.0,416.0,290.302
290312.0,350.0,437.0,3.0,420.0,290.312
290322.0,360.0,440.0,3.0,428.0,290.322
290332.0,348.0,430.0,4.0,416.0,290.332
290342.0,347.0,429.0,5.0,414.0,290.342
290352.0,343.0,423.0,3.0,412.0,290.352
290362.0,353.0,440.0,4.0,424.0,290.362
290372.0,360.0,441.0,3.0,431.0,290.372
290382.0,349.0,428.0,4.0,416.0,290.382
290392.0,352.0,430.0,4.0,416.0,290.392
290402.0,346.0,424.0,4.0,414.0,290.402
290412.0,356.0,438.0,4.0,423.0,290.412
290422.0,360.0,437.0,3.0,426.0,290.422
290432.0,353.0,432.0,4.0,418.0,290.432
290442.0,350.0,428.0,3.0,416.0,290.442
290452.0,347.0,423.0,4.0,414.0,290.452
290462.0,358.0,437.0,3.0,423.0,290.462
290472.0,362.0,434.0,4.0,424.0,290.472
290482.0,351.0,430.0,4.0,417.0,290.482
290492.0,351.0,428.0,4.0,413.0,290.492
290502.0,349.0,428.0,3.0,415.0,290.502
290512.0,355.0,439.0,3.0,422.0,290.512
290522.0,360.0,440.0,4.0,426.0,290.522
290532.0,352.0,431.0,5.0,414.0,290.532
290542.0,350.0,430.0,3.0,411.0,290.542
290552.0,348.0,429.0,4.0,413.0,290.552
290562.0,352.0,439.0,3.0,420.0,290.562
290572.0,359.0,441.0,3.0,426.0,290.572
290582.0,349.0,430.0,3.0,415.0,290.582
290592.0,348.0,429.0,4.0,414.0,290.592
290603.0,349.0,431.0,3.0,419.0,290.603
290613.0,355.0,438.0,3.0,425.0,290.613
290623.0,357.0,433.0,4.0,421.0,290.623
290633.0,349.0,422.0,3.0,410.0,290.633
290643.0,351.0,429.0,4.0,416.0,290.643
290653.0,354.0,432.0,2.0,421.0,290.653
290663.0,358.0,439.0,4.0,425.0,290.663
290673.0,358.0,434.0,4.0,420.0,290.673
290683.0,347.0,424.0,3.0,410.0,290.683
290693.0,350.0,431.0,3.0,414.0,290.693
290703.0,355.0,435.0,3.0,422.0,290.703
290713.0,357.0,441.0,4.0,424.0,290.713
290723.0,356.0,433.0,4.0,419.0,290.723
290733.0,349.0,426.0,4.0,413.0,290.733
290743.0,350.0,427.0,4.0,413.0,290.743
290753.0,356.0,435.0,3.0,423.0,290.753
290763.0,358.0,438.0,4.0,422.0,290.763
290774.0,358.0,433.0,3.0,418.0,290.774
290784.0,346.0,420.0,4.0,407.0,290.784
290794.0,352.0,433.0,3.0,416.0,290.794
290804.0,360.0,440.0,4.0,425.0,290.804
290814.0,353.0,434.0,3.0,417.0,290.814
290824.0,353.0,431.0,3.0,416.0,290.824
290834.0,341.0,419.0,3.0,406.0,290.834
290844.0,349.0,433.0,3.0,418.0,290.844
290854.0,357.0,440.0,4.0,427.0,290.854
290864.0,353.0,437.0,4.0,422.0,290.864
290874.0,350.0,431.0,3.0,418.0,290.874
290884.0,339.0,418.0,4.0,408.0,290.884
290894.0,348.0,435.0,4.0,420.0,290.894
290904.0,353.0,438.0,4.0,425.0,290.904
290914.0,351.0,436.0,4.0,422.0,290.914
290924.0,348.0,430.0,3.0,417.0,290.924
290934.0,340.0,419.0,3.0,410.0,290.934
290944.0,346.0,429.0,4.0,415.0,290.944
290954.0,355.0,438.0,4.0,425.0,290.954
290964.0,353.0,435.0,4.0,420.0,290.964
290974.0,354.0,428.0,4.0,415.0,290.974
290984.0,346.0,422.0,3.0,408.0,290.984
290994.0,351.0,431.0,4.0,415.0,290.994
291004.0,360.0,439.0,3.0,424.0,291.004
291014.0,354.0,432.0,4.0,416.0,291.014
291024.0,352.0,429.0,4.0,413.0,291.024
291034.0,344.0,417.0,5.0,403.0,291.034
291044.0,350.0,431.0,4.0,415.0,291.044
291054.0,359.0,438.0,4.0,425.0,291.054
291064.0,352.0,433.0,3.0,418.0,291.064
291074.0,353.0,431.0,3.0,416.0,291.074
291084.0,342.0,418.0,3.0,406.0,291.084
291094.0,351.0,433.0,5.0,419.0,291.094
291104.0,360.0,439.0,4.0,427.0,291.104
291115.0,352.0,430.0,4.0,417.0,291.115
291125.0,350.0,430.0,3.0,416.0,291.125
291135.0,346.0,424.0,4.0,414.0,291.135
291145.0,355.0,437.0,4.0,423.0,291.145
291155.0,360.0,436.0,5.0,425.0,291.155
291165.0,351.0,428.0,4.0,418.0,291.165
291175.0,348.0,428.0,4.0,414.0,291.175
291185.0,347.0,427.0,3.0,417.0,291.185
291195.0,354.0,438.0,3.0,425.0,291.195
291205.0,360.0,440.0,3.0,432.0,291.205
291215.0,350.0,428.0,4.0,421.0,291.215
291225.0,348.0,427.0,4.0,419.0,291.225
291235.0,344.0,426.0,3.0,420.0,291.235
291245.0,349.0,434.0,4.0,425.0,291.245
291255.0,357.0,438.0,3.0,429.0,291.255
291265.0,346.0,425.0,4.0,416.0,291.265
291275.0,345.0,426.0,3.0,414.0,291.275
291286.0,347.0,428.0,4.0,419.0,291.286
291296.0,352.0,437.0,4.0,424.0,291.296
291306.0,353.0,432.0,4.0,421.0,291.306
291316.0,342.0,422.0,3.0,412.0,291.316
291326.0,345.0,430.0,4.0,418.0,291.326
291336.0,349.0,432.0,4.0,422.0,291.336
291346.0,355.0,438.0,5.0,425.0,291.346
291356.0,354.0,433.0,4.0,421.0,291.356
291366.0,342.0,420.0,4.0,410.0,291.366
291376.0,345.0,428.0,3.0,413.0,291.376
291386.0,351.0,436.0,3.0,422.0,291.386
291396.0,353.0,440.0,3.0,426.0,291.396
291406.0,353.0,433.0,4.0,420.0,291.406
291416.0,345.0,424.0,4.0,413.0,291.416
291426.0,345.0,426.0,3.0,414.0,291.426
291436.0,352.0,436.0,4.0,425.0,291.436
291446.0,354.0,439.0,3.0,426.0,291.446
291456.0,358.0,436.0,4.0,424.0,291.456
291466.0,348.0,426.0,4.0,412.0,291.466
291476.0,348.0,430.0,4.0,414.0,291.476
291486.0,356.0,439.0,4.0,425.0,291.486
291496.0,356.0,440.0,3.0,425.0,291.496
291506.0,358.0,438.0,3.0,423.0,291.506
291516.0,347.0,425.0,4.0,412.0,291.516
291526.0,348.0,430.0,3.0,416.0,291.526
291536.0,357.0,438.0,4.0,427.0,291.536
291546.0,357.0,440.0,2.0,425.0,291.546
291556.0,360.0,436.0,4.0,421.0,291.556
291566.0,346.0,425.0,3.0,411.0,291.566
291576.0,349.0,431.0,4.0,415.0,291.576
291586.0,352.0,433.0,3.0,421.0,291.586
291596.0,357.0,441.0,5.0,425.0,291.596
291606.0,356.0,435.0,3.0,422.0,291.606
291616.0,345.0,423.0,4.0,411.0,291.616
291627.0,349.0,433.0,3.0,419.0,291.627
291637.0,359.0,442.0,3.0,430.0,291.637
291647.0,356.0,439.0,3.0,426.0,291.647
291657.0,354.0,435.0,5.0,421.0,291.657
291667.0,344.0,426.0,4.0,416.0,291.667
291677.0,352.0,437.0,3.0,424.0,291.677
291687.0,361.0,444.0,3.0,433.0,291.687
291697.0,356.0,438.0,4.0,424.0,291.697
291707.0,354.0,434.0,4.0,420.0,291.707
291717.0,346.0,423.0,4.0,411.0,291.717
291727.0,353.0,435.0,3.0,422.0,291.727
291737.0,365.0,445.0,4.0,433.0,291.737
291747.0,361.0,438.0,4.0,426.0,291.747
291757.0,361.0,437.0,3.0,422.0,291.757
291767.0,348.0,422.0,4.0,409.0,291.767
291777.0,356.0,437.0,4.0,422.0,291.777
291787.0,366.0,444.0,4.0,429.0,291.787
291798.0,358.0,435.0,3.0,421.0,291.798
291808.0,356.0,433.0,4.0,417.0,291.808
291818.0,352.0,430.0,3.0,417.0,291.818
291828.0,360.0,442.0,3.0,427.0,291.828
291838.0,364.0,441.0,4.0,427.0,291.838
291848.0,355.0,433.0,4.0,418.0,291.848
291858.0,353.0,432.0,2.0,416.0,291.858
291868.0,354.0,431.0,3.0,419.0,291.868
291878.0,361.0,443.0,3.0,427.0,291.878
291888.0,366.0,445.0,4.0,431.0,291.888
291898.0,354.0,433.0,3.0,418.0,291.898
291908.0,353.0,432.0,5.0,416.0,291.908
291918.0,352.0,433.0,4.0,419.0,291.918
291928.0,357.0,441.0,4.0,423.0,291.928
291938.0,363.0,445.0,3.0,430.0,291.938
291948.0,352.0,433.0,3.0,416.0,291.948
291958.0,351.0,432.0,4.0,414.0,291.958
291968.0,347.0,426.0,4.0,412.0,291.968
291978.0,356.0,440.0,4.0,422.0,291.978
291988.0,363.0,442.0,4.0,427.0,291.988
291998.0,351.0,431.0,4.0,415.0,291.998
292008.0,351.0,430.0,3.0,413.0,292.008
292018.0,347.0,426.0,4.0,413.0,292.018
292028.0,356.0,440.0,3.0,422.0,292.028
292038.0,362.0,441.0,4.0,424.0,292.038
292048.0,348.0,428.0,3.0,414.0,292.048
292058.0,351.0,431.0,4.0,415.0,292.058
292068.0,348.0,429.0,3.0,414.0,292.068
292078.0,358.0,441.0,4.0,424.0,292.078
292088.0,363.0,440.0,4.0,425.0,292.088
292098.0,354.0,434.0,4.0,417.0,292.098
292108.0,352.0,433.0,3.0,415.0,292.108
292118.0,350.0,431.0,3.0,416.0,292.118
292128.0,357.0,444.0,4.0,425.0,292.128
292139.0,360.0,439.0,4.0,423.0,292.139
292149.0,348.0,427.0,3.0,410.0,292.149
292159.0,350.0,431.0,5.0,411.0,292.159
292169.0,358.0,441.0,3.0,424.0,292.169
292179.0,357.0,441.0,4.0,421.0,292.179
292189.0,360.0,440.0,3.0,423.0,292.189
292199.0,347.0,427.0,3.0,408.0,292.199
292209.0,350.0,432.0,4.0,413.0,292.209
292219.0,360.0,441.0,2.0,425.0,292.219
292229.0,359.0,443.0,3.0,424.0,292.229
292239.0,359.0,438.0,4.0,420.0,292.239
292249.0,347.0,425.0,3.0,407.0,292.249
292259.0,347.0,431.0,3.0,412.0,292.259
292269.0,351.0,435.0,3.0,418.0,292.269
292279.0,356.0,441.0,4.0,422.0,292.279
292289.0,357.0,436.0,4.0,418.0,292.289
292299.0,345.0,423.0,4.0,405.0,292.299
292310.0,349.0,433.0,4.0,414.0,292.31
292320.0,359.0,442.0,4.0,424.0,292.32
292330.0,356.0,438.0,4.0,417.0,292.33
292340.0,353.0,434.0,4.0,414.0,292.34
292350.0,346.0,424.0,4.0,407.0,292.35
292360.0,350.0,435.0,2.0,415.0,292.36
292370.0,359.0,442.0,4.0,425.0,292.37
292380.0,354.0,438.0,3.0,418.0,292.38
292390.0,352.0,435.0,4.0,414.0,292.39
292400.0,343.0,424.0,3.0,405.0,292.4
292410.0,351.0,438.0,4.0,417.0,292.41
292420.0,360.0,445.0,3.0,427.0,292.42
292430.0,353.0,438.0,4.0,417.0,292.43
292440.0,354.0,438.0,3.0,418.0,292.44
292450.0,342.0,423.0,4.0,406.0,292.45
292460.0,352.0,439.0,3.0,418.0,292.46
292470.0,362.0,445.0,5.0,427.0,292.47
292480.0,355.0,442.0,4.0,420.0,292.48
292490.0,354.0,437.0,3.0,417.0,292.49
292500.0,343.0,426.0,3.0,406.0,292.5
292510.0,353.0,441.0,3.0,419.0,292.51
292520.0,362.0,446.0,4.0,428.0,292.52
292530.0,357.0,441.0,4.0,420.0,292.53
292540.0,354.0,436.0,4.0,416.0,292.54
292550.0,343.0,424.0,3.0,409.0,292.55
292560.0,356.0,443.0,4.0,425.0,292.56
292570.0,360.0,445.0,3.0,428.0,292.57
292580.0,356.0,440.0,4.0,422.0,292.58
292590.0,353.0,436.0,4.0,418.0,292.59
292600.0,345.0,426.0,4.0,411.0,292.6
292610.0,346.0,434.0,4.0,416.0,292.61
292620.0,356.0,443.0,4.0,427.0,292.62
292630.0,351.0,437.0,3.0,419.0,292.63
292640.0,350.0,433.0,4.0,416.0,292.64
292651.0,341.0,425.0,4.0,412.0,292.651
292661.0,353.0,440.0,4.0,423.0,292.661
292671.0,360.0,442.0,4.0,427.0,292.671
292681.0,347.0,429.0,3.0,414.0,292.681
292691.0,346.0,431.0,3.0,413.0,292.691
292701.0,343.0,426.0,4.0,413.0,292.701
292711.0,353.0,440.0,4.0,422.0,292.711
292721.0,361.0,441.0,5.0,425.0,292.721
292731.0,350.0,429.0,3.0,413.0,292.731
292741.0,353.0,433.0,3.0,414.0,292.741
292751.0,348.0,430.0,3.0,413.0,292.751
292761.0,356.0,442.0,4.0,422.0,292.761
292771.0,361.0,441.0,4.0,424.0,292.771
292781.0,352.0,433.0,4.0,416.0,292.781
292791.0,351.0,432.0,3.0,414.0,292.791
292801.0,348.0,430.0,3.0,417.0,292.801
292811.0,355.0,441.0,4.0,426.0,292.811
292822.0,360.0,438.0,3.0,424.0,292.822
292832.0,346.0,425.0,3.0,412.0,292.832
292842.0,344.0,428.0,4.0,413.0,292.842
292852.0,353.0,437.0,4.0,424.0,292.852
292862.0,352.0,438.0,3.0,423.0,292.862
292872.0,355.0,437.0,4.0,422.0,292.872
292882.0,342.0,423.0,3.0,410.0,292.882
292892.0,344.0,430.0,3.0,414.0,292.892
292902.0,353.0,439.0,4.0,426.0,292.902
292912.0,353.0,440.0,4.0,424.0,292.912
292922.0,354.0,436.0,3.0,421.0,292.922
292932.0,341.0,423.0,3.0,408.0,292.932
292942.0,345.0,432.0,3.0,414.0,292.942
292952.0,349.0,434.0,4.0,419.0,292.952
292962.0,353.0,440.0,3.0,423.0,292.962
292972.0,354.0,436.0,5.0,419.0,292.972
292982.0,341.0,422.0,3.0,406.0,292.982
292992.0,346.0,430.0,4.0,411.0,292.992
293002.0,350.0,437.0,3.0,420.0,293.002
293012.0,353.0,440.0,3.0,422.0,293.012
293022.0,352.0,435.0,3.0,418.0,293.022
293032.0,340.0,420.0,5.0,405.0,293.032
293042.0,345.0,429.0,3.0,412.0,293.042
293052.0,351.0,437.0,3.0,422.0,293.052
293062.0,353.0,440.0,3.0,423.0,293.062
293072.0,353.0,434.0,3.0,418.0,293.072
293082.0,344.0,424.0,3.0,411.0,293.082
293092.0,344.0,429.0,3.0,415.0,293.092
293102.0,353.0,438.0,4.0,424.0,293.102
293112.0,352.0,438.0,4.0,423.0,293.112
293122.0,357.0,437.0,4.0,422.0,293.122
293132.0,342.0,424.0,3.0,409.0,293.132
293142.0,344.0,430.0,4.0,414.0,293.142
293152.0,353.0,439.0,4.0,425.0,293.152
293163.0,351.0,438.0,3.0,422.0,293.163
293173.0,350.0,433.0,4.0,418.0,293.173
293183.0,337.0,420.0,3.0,408.0,293.183
293193.0,347.0,437.0,3.0,421.0,293.193
293203.0,357.0,442.0,3.0,428.0,293.203
293213.0,350.0,436.0,4.0,420.0,293.213
293223.0,349.0,432.0,4.0,416.0,293.223
293233.0,338.0,421.0,4.0,408.0,293.233
293243.0,349.0,438.0,3.0,420.0,293.243
293253.0,354.0,442.0,3.0,426.0,293.253
293263.0,350.0,436.0,3.0,419.0,293.263
293273.0,348.0,432.0,3.0,416.0,293.273
293283.0,342.0,422.0,4.0,410.0,293.283
293293.0,348.0,432.0,4.0,416.0,293.293
293303.0,357.0,440.0,3.0,427.0,293.303
293313.0,351.0,435.0,3.0,420.0,293.313
293323.0,350.0,431.0,3.0,416.0,293.323
293334.0,341.0,424.0,3.0,411.0,293.334
293344.0,351.0,439.0,4.0,423.0,293.344
293354.0,359.0,442.0,4.0,427.0,293.354
293364.0,345.0,428.0,3.0,413.0,293.364
293374.0,345.0,431.0,4.0,412.0,293.374
293384.0,342.0,426.0,3.0,412.0,293.384
293394.0,353.0,442.0,4.0,423.0,293.394
293404.0,359.0,443.0,4.0,426.0,293.404
293414.0,347.0,429.0,4.0,413.0,293.414
293424.0,345.0,433.0,4.0,415.0,293.424
293434.0,341.0,429.0,3.0,415.0,293.434
293444.0,351.0,443.0,3.0,425.0,293.444
293454.0,357.0,442.0,4.0,425.0,293.454
293464.0,347.0,434.0,4.0,418.0,293.464
293474.0,348.0,434.0,4.0,416.0,293.474
293484.0,346.0,432.0,2.0,417.0,293.484
293494.0,354.0,443.0,4.0,426.0,293.494
293504.0,360.0,448.0,3.0,431.0,293.504
293514.0,350.0,435.0,4.0,418.0,293.514
293524.0,348.0,434.0,4.0,415.0,293.524
293534.0,349.0,435.0,5.0,419.0,293.534
293544.0,355.0,445.0,4.0,427.0,293.544
293554.0,362.0,447.0,3.0,431.0,293.554
293564.0,350.0,434.0,3.0,420.0,293.564
293574.0,349.0,434.0,3.0,417.0,293.574
293584.0,350.0,437.0,3.0,422.0,293.584
293594.0,352.0,443.0,5.0,426.0,293.594
293604.0,359.0,446.0,4.0,430.0,293.604
293614.0,345.0,431.0,3.0,416.0,293.614
293624.0,346.0,432.0,4.0,415.0,293.624
293634.0,342.0,427.0,3.0,415.0,293.634
293644.0,353.0,441.0,4.0,424.0,293.644
293654.0,360.0,443.0,4.0,427.0,293.654
293664.0,347.0,429.0,4.0,414.0,293.664
293675.0,347.0,431.0,4.0,413.0,293.675
293685.0,352.0,437.0,3.0,423.0,293.685
293695.0,355.0,441.0,3.0,425.0,293.695
293705.0,354.0,436.0,4.0,421.0,293.705
293715.0,341.0,421.0,3.0,408.0,293.715
293725.0,348.0,430.0,5.0,413.0,293.725
293735.0,353.0,439.0,3.0,424.0,293.735
293745.0,354.0,441.0,4.0,424.0,293.745
293755.0,353.0,436.0,3.0,420.0,293.755
293765.0,344.0,428.0,4.0,412.0,293.765
293775.0,345.0,431.0,3.0,414.0,293.775
293785.0,353.0,440.0,4.0,425.0,293.785
293795.0,353.0,440.0,3.0,424.0,293.795
293805.0,357.0,439.0,3.0,422.0,293.805
293815.0,343.0,427.0,3.0,411.0,293.815
293825.0,345.0,432.0,3.0,413.0,293.825
293835.0,355.0,441.0,4.0,424.0,293.835
293846.0,353.0,440.0,3.0,422.0,293.846
293856.0,352.0,434.0,3.0,417.0,293.856
293866.0,339.0,422.0,3.0,408.0,293.866
293876.0,350.0,439.0,4.0,422.0,293.876
293886.0,357.0,444.0,4.0,429.0,293.886
293896.0,349.0,438.0,3.0,423.0,293.896
293906.0,348.0,433.0,5.0,418.0,293.906
293916.0,338.0,422.0,3.0,409.0,293.916
293926.0,348.0,439.0,3.0,422.0,293.926
293936.0,354.0,442.0,4.0,428.0,293.936
293946.0,350.0,437.0,3.0,421.0,293.946
293956.0,350.0,433.0,3.0,418.0,293.956
293966.0,340.0,423.0,3.0,411.0,293.966
293976.0,347.0,433.0,4.0,417.0,293.976
293986.0,357.0,442.0,3.0,427.0,293.986
293996.0,354.0,437.0,4.0,421.0,293.996
294006.0,353.0,435.0,3.0,418.0,294.006
294016.0,342.0,422.0,3.0,407.0,294.016
294026.0,350.0,436.0,3.0,419.0,294.026
294036.0,360.0,444.0,4.0,427.0,294.036
294046.0,352.0,437.0,2.0,418.0,294.046
294056.0,351.0,433.0,4.0,415.0,294.056
294066.0,342.0,423.0,3.0,406.0,294.066
294076.0,350.0,437.0,4.0,418.0,294.076
294086.0,360.0,445.0,3.0,427.0,294.086
294096.0,351.0,435.0,4.0,416.0,294.096
294106.0,353.0,434.0,4.0,416.0,294.106
294116.0,345.0,422.0,4.0,405.0,294.116
294126.0,355.0,438.0,3.0,419.0,294.126
294136.0,364.0,444.0,4.0,426.0,294.136
294146.0,357.0,439.0,3.0,419.0,294.146
294156.0,355.0,435.0,5.0,414.0,294.156
294166.0,344.0,423.0,4.0,406.0,294.166
294176.0,354.0,439.0,4.0,420.0,294.176
294187.0,363.0,444.0,4.0,427.0,294.187
294197.0,351.0,432.0,3.0,414.0,294.197
294207.0,349.0,432.0,3.0,413.0,294.207
294217.0,348.0,432.0,4.0,415.0,294.217
294227.0,355.0,440.0,4.0,421.0,294.227
294237.0,360.0,443.0,4.0,426.0,294.237
294247.0,347.0,429.0,4.0,412.0,294.247
294257.0,346.0,431.0,3.0,411.0,294.257
294267.0,349.0,433.0,3.0,415.0,294.267
294277.0,352.0,440.0,3.0,419.0,294.277
294287.0,361.0,443.0,5.0,425.0,294.287
294297.0,347.0,430.0,3.0,412.0,294.297
294307.0,346.0,431.0,4.0,412.0,294.307
294317.0,343.0,428.0,3.0,412.0,294.317
294327.0,352.0,442.0,4.0,421.0,294.327
294337.0,356.0,443.0,3.0,424.0,294.337
294347.0,341.0,428.0,4.0,410.0,294.347
294358.0,341.0,431.0,3.0,410.0,294.358
294368.0,348.0,437.0,4.0,419.0,294.368
294378.0,352.0,443.0,3.0,422.0,294.378
294388.0,352.0,437.0,4.0,417.0,294.388
294398.0,340.0,424.0,3.0,406.0,294.398
294408.0,344.0,431.0,3.0,411.0,294.408
294418.0,352.0,440.0,4.0,421.0,294.418
294428.0,353.0,441.0,3.0,422.0,294.428
294438.0,352.0,437.0,4.0,418.0,294.438
294448.0,344.0,427.0,3.0,409.0,294.448
294458.0,346.0,431.0,3.0,411.0,294.458
294468.0,356.0,440.0,4.0,421.0,294.468
294478.0,356.0,440.0,4.0,420.0,294.478
294488.0,358.0,438.0,4.0,420.0,294.488
294498.0,345.0,425.0,4.0,408.0,294.498
294508.0,347.0,431.0,3.0,413.0,294.508
294518.0,356.0,440.0,4.0,423.0,294.518
294528.0,355.0,441.0,3.0,421.0,294.528
294538.0,358.0,438.0,4.0,419.0,294.538
294548.0,343.0,423.0,2.0,407.0,294.548
294558.0,349.0,431.0,3.0,413.0,294.558
294568.0,358.0,443.0,3.0,425.0,294.568
294578.0,355.0,441.0,3.0,423.0,294.578
294588.0,356.0,437.0,4.0,419.0,294.588
294598.0,344.0,423.0,4.0,407.0,294.598
294608.0,348.0,433.0,4.0,415.0,294.608
294618.0,353.0,437.0,4.0,420.0,294.618
294628.0,356.0,441.0,3.0,424.0,294.628
294638.0,356.0,437.0,3.0,419.0,294.638
294648.0,343.0,421.0,3.0,406.0,294.648
294658.0,348.0,429.0,4.0,412.0,294.658
294668.0,355.0,438.0,4.0,422.0,294.668
294678.0,356.0,439.0,3.0,424.0,294.678
294688.0,353.0,436.0,3.0,420.0,294.688
294699.0,337.0,419.0,3.0,406.0,294.699
294709.0,346.0,433.0,3.0,418.0,294.709
294719.0,357.0,443.0,4.0,427.0,294.719
294729.0,350.0,433.0,4.0,419.0,294.729
294739.0,348.0,433.0,3.0,416.0,294.739
294749.0,340.0,419.0,4.0,407.0,294.749
294759.0,348.0,434.0,3.0,420.0,294.759
294769.0,358.0,443.0,4.0,428.0,294.769
294779.0,350.0,432.0,4.0,418.0,294.779
294789.0,352.0,433.0,4.0,417.0,294.789
294799.0,339.0,420.0,2.0,407.0,294.799
294809.0,349.0,436.0,4.0,421.0,294.809
294819.0,358.0,443.0,3.0,429.0,294.819
294829.0,350.0,435.0,3.0,422.0,294.829
294839.0,348.0,432.0,3.0,417.0,294.839
294849.0,339.0,421.0,5.0,408.0,294.849
294859.0,349.0,437.0,2.0,422.0,294.859
294870.0,358.0,443.0,4.0,428.0,294.87
294880.0,347.0,431.0,3.0,417.0,294.88
294890.0,347.0,430.0,3.0,414.0,294.89
294900.0,346.0,431.0,3.0,417.0,294.9
294910.0,353.0,440.0,5.0,423.0,294.91
294920.0,359.0,444.0,4.0,428.0,294.92
294930.0,348.0,430.0,3.0,415.0,294.93
294940.0,347.0,431.0,3.0,414.0,294.94
294950.0,352.0,433.0,3.0,418.0,294.95
294960.0,355.0,440.0,4.0,420.0,294.96
294970.0,362.0,444.0,4.0,425.0,294.97
294980.0,349.0,429.0,3.0,411.0,294.98
294990.0,348.0,431.0,4.0,410.0,294.99
295000.0,345.0,427.0,4.0,409.0,295.0
295010.0,354.0,440.0,3.0,420.0,295.01
295020.0,360.0,442.0,4.0,423.0,295.02
295030.0,348.0,427.0,4.0,410.0,295.03
295040.0,351.0,432.0,4.0,412.0,295.04
295050.0,346.0,427.0,4.0,411.0,295.05
295060.0,355.0,440.0,3.0,421.0,295.06
295070.0,359.0,441.0,3.0,422.0,295.07
295080.0,344.0,426.0,3.0,409.0,295.08
295090.0,347.0,431.0,3.0,412.0,295.09
295100.0,345.0,429.0,5.0,413.0,295.1
295110.0,352.0,440.0,2.0,421.0,295.11
295120.0,357.0,439.0,4.0,422.0,295.12
295130.0,349.0,432.0,4.0,414.0,295.13
295140.0,348.0,431.0,3.0,414.0,295.14
295150.0,347.0,431.0,4.0,418.0,295.15
295160.0,354.0,441.0,4.0,425.0,295.16
295170.0,360.0,445.0,2.0,429.0,295.17
295180.0,348.0,431.0,3.0,415.0,295.18
295190.0,348.0,433.0,3.0,415.0,295.19
295200.0,349.0,434.0,3.0,418.0,295.2
295211.0,352.0,442.0,3.0,423.0,295.211
295221.0,353.0,439.0,4.0,420.0,295.221
295231.0,342.0,424.0,3.0,408.0,295.231
295241.0,344.0,432.0,4.0,415.0,295.241
295251.0,355.0,441.0,4.0,426.0,295.251
295261.0,353.0,440.0,3.0,423.0,295.261
295271.0,355.0,436.0,3.0,420.0,295.271
295281.0,342.0,421.0,4.0,407.0,295.281
295291.0,347.0,431.0,4.0,415.0,295.291
295301.0,351.0,435.0,4.0,420.0,295.301
295311.0,354.0,440.0,4.0,423.0,295.311
295321.0,354.0,436.0,3.0,419.0,295.321
295331.0,343.0,421.0,3.0,406.0,295.331
295341.0,347.0,430.0,4.0,411.0,295.341
295351.0,355.0,437.0,5.0,421.0,295.351
295361.0,356.0,441.0,4.0,422.0,295.361
295371.0,357.0,435.0,4.0,417.0,295.371
295382.0,343.0,422.0,3.0,406.0,295.382
295392.0,351.0,434.0,4.0,416.0,295.392
295402.0,360.0,443.0,3.0,427.0,295.402
295412.0,356.0,435.0,5.0,418.0,295.412
295422.0,352.0,433.0,2.0,414.0,295.422
295432.0,344.0,421.0,4.0,404.0,295.432
295442.0,353.0,438.0,3.0,418.0,295.442
295452.0,363.0,444.0,3.0,426.0,295.452
295462.0,354.0,434.0,4.0,416.0,295.462
295472.0,356.0,435.0,5.0,415.0,295.472
295482.0,346.0,421.0,4.0,405.0,295.482
295492.0,355.0,436.0,3.0,418.0,295.492
295502.0,364.0,444.0,3.0,428.0,295.502
295512.0,357.0,437.0,3.0,419.0,295.512
295522.0,355.0,434.0,3.0,416.0,295.522
295532.0,345.0,421.0,4.0,406.0,295.532
295542.0,356.0,437.0,4.0,419.0,295.542
295552.0,361.0,441.0,4.0,424.0,295.552
295562.0,358.0,436.0,3.0,418.0,295.562
295572.0,355.0,433.0,3.0,414.0,295.572
295582.0,346.0,423.0,3.0,408.0,295.582
295592.0,356.0,439.0,3.0,419.0,295.592
295602.0,363.0,443.0,4.0,425.0,295.602
295612.0,356.0,436.0,2.0,418.0,295.612
295622.0,353.0,433.0,4.0,415.0,295.622
295632.0,343.0,425.0,3.0,411.0,295.632
295642.0,350.0,434.0,4.0,417.0,295.642
295652.0,360.0,443.0,3.0,426.0,295.652
295662.0,355.0,434.0,4.0,417.0,295.662
295672.0,352.0,433.0,4.0,414.0,295.672
295682.0,344.0,421.0,3.0,405.0,295.682
295692.0,353.0,437.0,3.0,418.0,295.692
295702.0,363.0,444.0,4.0,426.0,295.702
295712.0,355.0,435.0,3.0,416.0,295.712
295723.0,353.0,433.0,4.0,413.0,295.723
295733.0,349.0,429.0,4.0,412.0,295.733
295743.0,352.0,441.0,3.0,420.0,295.743
295753.0,359.0,442.0,3.0,423.0,295.753
295763.0,347.0,428.0,4.0,409.0,295.763
295773.0,349.0,433.0,4.0,412.0,295.773
295783.0,348.0,430.0,4.0,414.0,295.783
295793.0,356.0,441.0,3.0,422.0,295.793
295803.0,359.0,440.0,3.0,421.0,295.803
295813.0,352.0,433.0,4.0,415.0,295.813
295823.0,350.0,433.0,3.0,412.0,295.823
295833.0,351.0,432.0,4.0,415.0,295.833
295843.0,357.0,443.0,3.0,423.0,295.843
295853.0,362.0,445.0,4.0,427.0,295.853
295863.0,348.0,431.0,3.0,414.0,295.863
295873.0,348.0,432.0,3.0,413.0,295.873
295883.0,350.0,435.0,3.0,419.0,295.883
295894.0,357.0,443.0,4.0,424.0,295.894
295904.0,359.0,439.0,4.0,421.0,295.904
295914.0,347.0,426.0,5.0,407.0,295.914
295924.0,349.0,434.0,4.0,414.0,295.924
295934.0,359.0,442.0,3.0,425.0,295.934
295944.0,358.0,443.0,3.0,424.0,295.944
295954.0,358.0,438.0,3.0,419.0,295.954
295964.0,347.0,424.0,3.0,407.0,295.964
295974.0,349.0,432.0,5.0,416.0,295.974
295984.0,352.0,436.0,4.0,421.0,295.984
295994.0,355.0,440.0,3.0,424.0,295.994
296004.0,356.0,435.0,3.0,420.0,296.004
296014.0,343.0,420.0,3.0,407.0,296.014
296024.0,348.0,429.0,3.0,412.0,296.024
296034.0,355.0,437.0,4.0,422.0,296.034
296044.0,357.0,440.0,3.0,424.0,296.044
296054.0,355.0,435.0,3.0,419.0,296.054
296064.0,348.0,425.0,4.0,412.0,296.064
296074.0,349.0,430.0,3.0,414.0,296.074
296084.0,359.0,440.0,3.0,425.0,296.084
296094.0,359.0,440.0,4.0,423.0,296.094
296104.0,357.0,435.0,3.0,419.0,296.104
296114.0,350.0,425.0,3.0,410.0,296.114
296124.0,351.0,431.0,4.0,414.0,296.124
296134.0,360.0,442.0,3.0,425.0,296.134
296144.0,359.0,439.0,4.0,423.0,296.144
296154.0,361.0,438.0,4.0,423.0,296.154
296164.0,350.0,423.0,5.0,410.0,296.164
296174.0,350.0,432.0,4.0,416.0,296.174
296184.0,361.0,441.0,4.0,426.0,296.184
296194.0,359.0,441.0,3.0,424.0,296.194
296204.0,359.0,436.0,4.0,420.0,296.204
296214.0,346.0,422.0,3.0,407.0,296.214
296224.0,351.0,431.0,4.0,415.0,296.224
296235.0,360.0,442.0,3.0,425.0,296.235
296245.0,357.0,436.0,4.0,419.0,296.245
296255.0,355.0,434.0,3.0,418.0,296.255
296265.0,346.0,422.0,3.0,409.0,296.265
296275.0,356.0,438.0,4.0,421.0,296.275
296285.0,362.0,443.0,4.0,426.0,296.285
296295.0,357.0,434.0,4.0,419.0,296.295
296305.0,355.0,433.0,3.0,416.0,296.305
296315.0,348.0,424.0,4.0,411.0,296.315
296325.0,354.0,434.0,3.0,418.0,296.325
296335.0,364.0,443.0,4.0,429.0,296.335
296345.0,358.0,433.0,4.0,421.0,296.345
296355.0,356.0,432.0,3.0,417.0,296.355
296365.0,346.0,420.0,2.0,409.0,296.365
296375.0,354.0,435.0,4.0,422.0,296.375
296385.0,363.0,445.0,3.0,431.0,296.385
296395.0,356.0,432.0,4.0,420.0,296.395
296406.0,354.0,432.0,3.0,417.0,296.406
296416.0,351.0,428.0,4.0,416.0,296.416
296426.0,359.0,440.0,4.0,427.0,296.426
296436.0,362.0,440.0,4.0,426.0,296.436
296446.0,348.0,426.0,3.0,414.0,296.446
296456.0,350.0,430.0,3.0,416.0,296.456
296466.0,349.0,429.0,3.0,416.0,296.466
296476.0,359.0,439.0,4.0,424.0,296.476
296486.0,362.0,439.0,4.0,423.0,296.486
296496.0,354.0,429.0,3.0,416.0,296.496
296506.0,353.0,430.0,3.0,415.0,296.506
296516.0,353.0,430.0,4.0,417.0,296.516
296526.0,360.0,439.0,4.0,424.0,296.526
296536.0,366.0,444.0,4.0,429.0,296.536
296546.0,355.0,429.0,4.0,416.0,296.546
296556.0,353.0,431.0,3.0,414.0,296.556
296566.0,354.0,433.0,3.0,420.0,296.566
296576.0,355.0,438.0,3.0,422.0,296.576
296586.0,363.0,443.0,4.0,427.0,296.586
296596.0,352.0,429.0,4.0,414.0,296.596
296606.0,351.0,431.0,4.0,414.0,296.606
296616.0,354.0,435.0,3.0,421.0,296.616
296626.0,357.0,440.0,3.0,423.0,296.626
296636.0,363.0,443.0,3.0,427.0,296.636
296646.0,352.0,428.0,4.0,415.0,296.646
296656.0,351.0,430.0,4.0,414.0,296.656
296666.0,349.0,428.0,4.0,415.0,296.666
296676.0,359.0,441.0,4.0,425.0,296.676
296686.0,365.0,441.0,4.0,425.0,296.686
296696.0,353.0,429.0,3.0,415.0,296.696
296706.0,355.0,433.0,3.0,417.0,296.706
296716.0,353.0,430.0,3.0,417.0,296.716
296726.0,362.0,439.0,4.0,425.0,296.726
296736.0,365.0,439.0,4.0,424.0,296.736
296747.0,355.0,426.0,5.0,411.0,296.747
296757.0,353.0,429.0,3.0,414.0,296.757
296767.0,361.0,438.0,4.0,424.0,296.767
296777.0,362.0,439.0,3.0,424.0,296.777
296787.0,361.0,435.0,4.0,419.0,296.787
296797.0,353.0,425.0,4.0,411.0,296.797
296807.0,354.0,432.0,3.0,414.0,296.807
296817.0,363.0,441.0,3.0,427.0,296.817
296827.0,362.0,440.0,3.0,423.0,296.827
296837.0,363.0,438.0,4.0,423.0,296.837
296847.0,353.0,426.0,4.0,411.0,296.847
296857.0,354.0,433.0,4.0,416.0,296.857
296867.0,363.0,443.0,3.0,427.0,296.867
296877.0,362.0,443.0,4.0,425.0,296.877
296887.0,361.0,439.0,3.0,421.0,296.887
296897.0,350.0,425.0,3.0,409.0,296.897
296907.0,353.0,434.0,4.0,416.0,296.907
296918.0,363.0,444.0,4.0,426.0,296.918
296928.0,360.0,440.0,3.0,420.0,296.928
296938.0,357.0,436.0,4.0,416.0,296.938
296948.0,349.0,427.0,3.0,410.0,296.948
