time (ms),signal 0,signal 1,signal 2,signal 3,time (sec)
302022.0,353.0,439.0,2.0,418.0,302.022
302032.0,361.0,444.0,3.0,425.0,302.032
302042.0,357.0,441.0,4.0,418.0,302.042
302052.0,355.0,435.0,3.0,414.0,302.052
302062.0,344.0,422.0,4.0,401.0,302.062
302072.0,353.0,436.0,4.0,413.0,302.072
302082.0,358.0,439.0,3.0,420.0,302.082
302092.0,356.0,440.0,3.0,418.0,302.092
302102.0,355.0,435.0,3.0,413.0,302.102
302112.0,346.0,421.0,3.0,403.0,302.112
302123.0,357.0,436.0,5.0,416.0,302.123
302133.0,364.0,443.0,4.0,425.0,302.133
302143.0,356.0,435.0,4.0,413.0,302.143
302153.0,353.0,432.0,4.0,412.0,302.153
302163.0,350.0,432.0,4.0,410.0,302.163
302173.0,355.0,441.0,3.0,416.0,302.173
302183.0,363.0,444.0,4.0,423.0,302.183
302193.0,353.0,435.0,4.0,410.0,302.193
302203.0,351.0,434.0,4.0,408.0,302.203
302213.0,345.0,426.0,2.0,404.0,302.213
302223.0,357.0,443.0,3.0,417.0,302.223
302233.0,365.0,447.0,4.0,424.0,302.233
302243.0,353.0,435.0,4.0,410.0,302.243
302253.0,355.0,437.0,3.0,412.0,302.253
302263.0,347.0,429.0,4.0,408.0,302.263
302273.0,357.0,444.0,4.0,420.0,302.273
302283.0,365.0,446.0,3.0,425.0,302.283
302294.0,352.0,434.0,3.0,412.0,302.294
302304.0,350.0,434.0,4.0,412.0,302.304
302314.0,353.0,438.0,5.0,419.0,302.314
302324.0,358.0,445.0,4.0,423.0,302.324
302334.0,357.0,440.0,3.0,420.0,302.334
302344.0,350.0,432.0,4.0,411.0,302.344
302354.0,348.0,434.0,3.0,410.0,302.354
302364.0,353.0,440.0,3.0,419.0,302.364
302374.0,357.0,445.0,4.0,421.0,302.374
302384.0,361.0,443.0,4.0,423.0,302.384
302394.0,349.0,431.0,3.0,410.0,302.394
302404.0,349.0,433.0,4.0,411.0,302.404
302414.0,355.0,441.0,3.0,421.0,302.414
302424.0,356.0,445.0,3.0,423.0,302.424
302434.0,361.0,445.0,3.0,421.0,302.434
302444.0,350.0,428.0,4.0,408.0,302.444
302454.0,347.0,434.0,4.0,412.0,302.454
302464.0,348.0,435.0,4.0,416.0,302.464
302474.0,356.0,442.0,3.0,422.0,302.474
302484.0,359.0,442.0,4.0,420.0,302.484
302494.0,348.0,427.0,4.0,407.0,302.494
302504.0,349.0,433.0,4.0,412.0,302.504
302514.0,353.0,435.0,4.0,417.0,302.514
302524.0,358.0,444.0,3.0,424.0,302.524
302534.0,360.0,441.0,4.0,420.0,302.534
302544.0,348.0,428.0,3.0,409.0,302.544
302554.0,351.0,434.0,4.0,414.0,302.554
302564.0,353.0,438.0,3.0,420.0,302.564
302574.0,355.0,446.0,3.0,423.0,302.574
302584.0,357.0,439.0,3.0,421.0,302.584
302594.0,349.0,433.0,3.0,412.0,302.594
302604.0,348.0,435.0,3.0,412.0,302.604
302614.0,353.0,440.0,3.0,421.0,302.614
302624.0,357.0,447.0,3.0,423.0,302.624
302635.0,357.0,441.0,4.0,419.0,302.635
302645.0,346.0,428.0,2.0,405.0,302.645
302655.0,350.0,439.0,3.0,415.0,302.655
302665.0,360.0,446.0,4.0,426.0,302.665
302675.0,353.0,443.0,4.0,418.0,302.675
302685.0,354.0,439.0,3.0,417.0,302.685
302695.0,343.0,427.0,4.0,404.0,302.695
302705.0,350.0,440.0,3.0,415.0,302.705
302715.0,360.0,448.0,4.0,424.0,302.715
302725.0,356.0,447.0,3.0,421.0,302.725
302735.0,355.0,440.0,3.0,415.0,302.735
302745.0,344.0,427.0,4.0,404.0,302.745
302755.0,352.0,442.0,3.0,416.0,302.755
302765.0,358.0,445.0,3.0,423.0,302.765
302775.0,357.0,446.0,3.0,421.0,302.775
302785.0,355.0,439.0,3.0,416.0,302.785
302795.0,345.0,427.0,4.0,406.0,302.795
302806.0,352.0,442.0,4.0,419.0,302.806
302816.0,363.0,447.0,4.0,427.0,302.816
302826.0,354.0,439.0,4.0,415.0,302.826
302836.0,352.0,436.0,4.0,413.0,302.836
302846.0,350.0,434.0,4.0,414.0,302.846
302856.0,355.0,445.0,3.0,420.0,302.856
302866.0,364.0,448.0,4.0,427.0,302.866
302876.0,354.0,438.0,3.0,415.0,302.876
302886.0,352.0,436.0,4.0,413.0,302.886
302896.0,346.0,429.0,4.0,408.0,302.896
302906.0,356.0,446.0,3.0,420.0,302.906
302916.0,362.0,448.0,3.0,427.0,302.916
302926.0,348.0,438.0,3.0,413.0,302.926
302936.0,351.0,438.0,3.0,414.0,302.936
302946.0,344.0,431.0,4.0,408.0,302.946
302956.0,353.0,446.0,4.0,421.0,302.956
302966.0,362.0,448.0,3.0,426.0,302.966
302976.0,354.0,443.0,3.0,417.0,302.976
302986.0,352.0,438.0,4.0,414.0,302.986
302996.0,346.0,431.0,4.0,412.0,302.996
303006.0,356.0,445.0,3.0,423.0,303.006
303016.0,363.0,446.0,4.0,427.0,303.016
303026.0,354.0,439.0,4.0,419.0,303.026
303036.0,353.0,436.0,3.0,416.0,303.036
303046.0,347.0,432.0,4.0,414.0,303.046
303056.0,355.0,445.0,3.0,424.0,303.056
303066.0,361.0,447.0,5.0,429.0,303.066
303076.0,353.0,437.0,3.0,418.0,303.076
303086.0,351.0,435.0,4.0,415.0,303.086
303096.0,349.0,433.0,4.0,416.0,303.096
303106.0,353.0,442.0,4.0,421.0,303.106
303116.0,363.0,447.0,4.0,429.0,303.116
303126.0,355.0,436.0,4.0,417.0,303.126
303136.0,354.0,435.0,4.0,414.0,303.136
303147.0,354.0,435.0,5.0,416.0,303.147
303157.0,359.0,446.0,3.0,424.0,303.157
303167.0,362.0,442.0,4.0,423.0,303.167
303177.0,349.0,431.0,3.0,409.0,303.177
303187.0,351.0,435.0,3.0,413.0,303.187
303197.0,353.0,436.0,3.0,418.0,303.197
303207.0,359.0,445.0,3.0,423.0,303.207
303217.0,361.0,440.0,4.0,421.0,303.217
303227.0,349.0,430.0,3.0,408.0,303.227
303237.0,354.0,435.0,4.0,412.0,303.237
303247.0,356.0,439.0,4.0,418.0,303.247
303257.0,360.0,447.0,3.0,423.0,303.257
303267.0,361.0,441.0,4.0,419.0,303.267
303277.0,353.0,435.0,4.0,412.0,303.277
303287.0,352.0,436.0,4.0,412.0,303.287
303297.0,357.0,442.0,4.0,420.0,303.297
303307.0,360.0,448.0,4.0,422.0,303.307
303318.0,359.0,441.0,4.0,418.0,303.318
303328.0,347.0,429.0,3.0,404.0,303.328
303338.0,353.0,440.0,4.0,414.0,303.338
303348.0,362.0,447.0,4.0,426.0,303.348
303358.0,358.0,444.0,4.0,420.0,303.358
303368.0,362.0,441.0,3.0,419.0,303.368
303378.0,348.0,428.0,3.0,408.0,303.378
303388.0,355.0,440.0,4.0,418.0,303.388
303398.0,365.0,448.0,4.0,429.0,303.398
303408.0,360.0,449.0,4.0,424.0,303.408
303418.0,358.0,440.0,4.0,420.0,303.418
303428.0,346.0,428.0,3.0,407.0,303.428
303438.0,356.0,445.0,3.0,422.0,303.438
303448.0,362.0,446.0,3.0,426.0,303.448
303458.0,363.0,448.0,3.0,424.0,303.458
303468.0,361.0,441.0,4.0,420.0,303.468
303478.0,350.0,429.0,3.0,409.0,303.478
303488.0,356.0,440.0,4.0,417.0,303.488
303498.0,365.0,448.0,4.0,427.0,303.498
303508.0,363.0,448.0,4.0,424.0,303.508
303518.0,360.0,441.0,2.0,420.0,303.518
303528.0,349.0,430.0,3.0,410.0,303.528
303538.0,355.0,442.0,4.0,419.0,303.538
303548.0,369.0,451.0,4.0,428.0,303.548
303558.0,365.0,449.0,3.0,422.0,303.558
303568.0,363.0,444.0,4.0,418.0,303.568
303578.0,352.0,433.0,4.0,409.0,303.578
303588.0,358.0,446.0,3.0,421.0,303.588
303598.0,366.0,453.0,3.0,429.0,303.598
303608.0,362.0,446.0,3.0,419.0,303.608
303618.0,362.0,442.0,4.0,417.0,303.618
303628.0,349.0,427.0,4.0,404.0,303.628
303638.0,354.0,440.0,4.0,415.0,303.638
303648.0,364.0,448.0,4.0,424.0,303.648
303659.0,358.0,441.0,3.0,415.0,303.659
303669.0,355.0,436.0,3.0,414.0,303.669
303679.0,351.0,429.0,4.0,410.0,303.679
303689.0,361.0,443.0,4.0,419.0,303.689
303699.0,368.0,444.0,4.0,425.0,303.699
303709.0,360.0,438.0,4.0,416.0,303.709
303719.0,357.0,435.0,3.0,415.0,303.719
303729.0,352.0,431.0,4.0,413.0,303.729
303739.0,358.0,443.0,4.0,423.0,303.739
303749.0,372.0,445.0,3.0,427.0,303.749
303759.0,363.0,436.0,5.0,416.0,303.759
303769.0,359.0,434.0,2.0,414.0,303.769
303779.0,357.0,431.0,3.0,414.0,303.779
303789.0,361.0,440.0,4.0,419.0,303.789
303799.0,369.0,447.0,3.0,425.0,303.799
303809.0,359.0,435.0,3.0,412.0,303.809
303819.0,360.0,434.0,3.0,412.0,303.819
303830.0,356.0,432.0,4.0,412.0,303.83
303840.0,363.0,442.0,3.0,418.0,303.84
303850.0,368.0,438.0,4.0,418.0,303.85
303860.0,358.0,427.0,3.0,405.0,303.86
303870.0,354.0,430.0,4.0,407.0,303.87
303880.0,359.0,432.0,3.0,410.0,303.88
303890.0,364.0,440.0,4.0,417.0,303.89
303900.0,363.0,436.0,3.0,415.0,303.9
303910.0,352.0,423.0,3.0,403.0,303.91
303920.0,353.0,430.0,4.0,409.0,303.92
303930.0,358.0,432.0,4.0,415.0,303.93
303940.0,362.0,440.0,2.0,419.0,303.94
303950.0,361.0,434.0,3.0,416.0,303.95
303960.0,353.0,427.0,4.0,409.0,303.96
303970.0,350.0,427.0,3.0,407.0,303.97
303980.0,354.0,432.0,3.0,414.0,303.98
303990.0,354.0,435.0,4.0,416.0,303.99
304000.0,358.0,436.0,4.0,419.0,304.0
304010.0,349.0,425.0,3.0,406.0,304.01
304020.0,349.0,427.0,4.0,407.0,304.02
304030.0,355.0,433.0,4.0,415.0,304.03
304040.0,357.0,436.0,3.0,417.0,304.04
304050.0,359.0,435.0,3.0,418.0,304.05
304060.0,347.0,422.0,4.0,406.0,304.06
304070.0,347.0,427.0,3.0,408.0,304.07
304080.0,353.0,434.0,3.0,416.0,304.08
304090.0,349.0,437.0,4.0,416.0,304.09
304100.0,354.0,434.0,5.0,412.0,304.1
304110.0,340.0,420.0,2.0,398.0,304.11
304120.0,342.0,424.0,3.0,405.0,304.12
304130.0,346.0,427.0,3.0,410.0,304.13
304140.0,354.0,435.0,3.0,416.0,304.14
304150.0,356.0,432.0,3.0,415.0,304.15
304160.0,347.0,419.0,4.0,403.0,304.16
304171.0,351.0,425.0,4.0,410.0,304.171
304181.0,357.0,435.0,3.0,419.0,304.181
304191.0,355.0,432.0,3.0,415.0,304.191
304201.0,352.0,427.0,3.0,410.0,304.201
304211.0,341.0,416.0,3.0,401.0,304.211
304221.0,348.0,427.0,4.0,410.0,304.221
304231.0,358.0,437.0,4.0,419.0,304.231
304241.0,356.0,433.0,4.0,413.0,304.241
304251.0,361.0,431.0,3.0,412.0,304.251
304261.0,352.0,420.0,3.0,402.0,304.261
304271.0,357.0,432.0,3.0,413.0,304.271
304281.0,366.0,442.0,3.0,424.0,304.281
304291.0,360.0,436.0,4.0,416.0,304.291
304301.0,360.0,435.0,3.0,416.0,304.301
304311.0,347.0,421.0,3.0,403.0,304.311
304321.0,351.0,434.0,3.0,415.0,304.321
304331.0,359.0,440.0,4.0,425.0,304.331
304342.0,353.0,433.0,3.0,416.0,304.342
304352.0,351.0,430.0,4.0,410.0,304.352
304362.0,342.0,423.0,3.0,406.0,304.362
304372.0,353.0,437.0,3.0,418.0,304.372
304382.0,361.0,440.0,3.0,424.0,304.382
304392.0,351.0,431.0,4.0,414.0,304.392
304402.0,349.0,428.0,3.0,411.0,304.402
304412.0,344.0,423.0,5.0,409.0,304.412
304422.0,346.0,435.0,3.0,417.0,304.422
304432.0,352.0,437.0,4.0,423.0,304.432
304442.0,343.0,428.0,3.0,414.0,304.442
304452.0,342.0,425.0,4.0,409.0,304.452
304462.0,340.0,424.0,3.0,409.0,304.462
304472.0,349.0,435.0,4.0,413.0,304.472
304482.0,357.0,438.0,4.0,420.0,304.482
304492.0,347.0,427.0,3.0,408.0,304.492
304502.0,346.0,428.0,3.0,408.0,304.502
304512.0,343.0,421.0,3.0,402.0,304.512
304522.0,354.0,437.0,3.0,415.0,304.522
304532.0,362.0,441.0,4.0,422.0,304.532
304542.0,351.0,429.0,4.0,410.0,304.542
304552.0,348.0,428.0,3.0,409.0,304.552
304562.0,342.0,421.0,4.0,407.0,304.562
304572.0,352.0,436.0,3.0,417.0,304.572
304582.0,359.0,438.0,3.0,422.0,304.582
304592.0,349.0,426.0,3.0,409.0,304.592
304602.0,351.0,428.0,3.0,411.0,304.602
304612.0,343.0,423.0,2.0,409.0,304.612
304622.0,353.0,436.0,4.0,419.0,304.622
304632.0,360.0,437.0,4.0,423.0,304.632
304642.0,351.0,430.0,4.0,414.0,304.642
304652.0,349.0,428.0,3.0,411.0,304.652
304662.0,345.0,423.0,5.0,409.0,304.662
304672.0,352.0,435.0,4.0,421.0,304.672
304683.0,357.0,434.0,5.0,424.0,304.683
304693.0,341.0,422.0,3.0,411.0,304.693
304703.0,342.0,423.0,4.0,412.0,304.703
304713.0,348.0,430.0,3.0,422.0,304.713
304723.0,349.0,435.0,5.0,423.0,304.723
304733.0,353.0,434.0,3.0,423.0,304.733
304743.0,340.0,421.0,4.0,409.0,304.743
304753.0,343.0,426.0,3.0,412.0,304.753
304763.0,351.0,435.0,4.0,421.0,304.763
304773.0,347.0,436.0,4.0,420.0,304.773
304783.0,351.0,434.0,4.0,419.0,304.783
304793.0,338.0,421.0,3.0,406.0,304.793
304803.0,340.0,426.0,3.0,409.0,304.803
304813.0,342.0,429.0,4.0,414.0,304.813
304823.0,348.0,437.0,3.0,420.0,304.823
304833.0,352.0,433.0,4.0,417.0,304.833
304843.0,339.0,422.0,4.0,406.0,304.843
304854.0,344.0,428.0,4.0,412.0,304.854
304864.0,356.0,439.0,4.0,424.0,304.864
304874.0,353.0,436.0,4.0,419.0,304.874
304884.0,351.0,431.0,3.0,415.0,304.884
304894.0,340.0,420.0,4.0,404.0,304.894
304904.0,346.0,431.0,3.0,411.0,304.904
304914.0,356.0,439.0,3.0,421.0,304.914
304924.0,350.0,435.0,4.0,417.0,304.924
304934.0,348.0,428.0,4.0,412.0,304.934
304944.0,337.0,417.0,3.0,402.0,304.944
304954.0,343.0,428.0,4.0,412.0,304.954
304964.0,353.0,437.0,3.0,422.0,304.964
304974.0,349.0,432.0,5.0,415.0,304.974
304984.0,351.0,430.0,4.0,415.0,304.984
304994.0,338.0,417.0,3.0,403.0,304.994
305004.0,345.0,431.0,3.0,415.0,305.004
305014.0,355.0,437.0,4.0,424.0,305.014
305024.0,351.0,436.0,3.0,418.0,305.024
305034.0,350.0,430.0,4.0,414.0,305.034
305044.0,339.0,418.0,3.0,405.0,305.044
305054.0,347.0,433.0,3.0,417.0,305.054
305064.0,356.0,440.0,4.0,425.0,305.064
305074.0,348.0,438.0,3.0,418.0,305.074
305084.0,347.0,431.0,4.0,414.0,305.084
305094.0,336.0,418.0,4.0,403.0,305.094
305104.0,345.0,434.0,4.0,416.0,305.104
305114.0,350.0,438.0,2.0,423.0,305.114
305124.0,348.0,437.0,4.0,419.0,305.124
305134.0,347.0,431.0,3.0,414.0,305.134
305144.0,336.0,420.0,4.0,404.0,305.144
305154.0,341.0,429.0,3.0,411.0,305.154
305164.0,355.0,439.0,3.0,429.0,305.164
305174.0,352.0,436.0,2.0,421.0,305.174
305184.0,353.0,433.0,4.0,416.0,305.184
305195.0,340.0,422.0,3.0,405.0,305.195
305205.0,351.0,439.0,3.0,420.0,305.205
305215.0,359.0,443.0,3.0,426.0,305.215
305225.0,349.0,434.0,5.0,418.0,305.225
305235.0,344.0,426.0,2.0,400.0,305.235
305245.0,337.0,417.0,3.0,399.0,305.245
305255.0,348.0,434.0,3.0,415.0,305.255
305265.0,355.0,437.0,4.0,420.0,305.265
305275.0,342.0,428.0,3.0,407.0,305.275
305285.0,346.0,430.0,4.0,408.0,305.285
305295.0,340.0,426.0,2.0,407.0,305.295
305305.0,349.0,440.0,4.0,416.0,305.305
305315.0,355.0,440.0,3.0,420.0,305.315
305325.0,349.0,437.0,3.0,418.0,305.325
305335.0,351.0,435.0,4.0,413.0,305.335
305345.0,345.0,433.0,3.0,412.0,305.345
305355.0,352.0,439.0,4.0,418.0,305.355
305366.0,357.0,439.0,3.0,422.0,305.366
305376.0,343.0,429.0,4.0,412.0,305.376
305386.0,346.0,435.0,3.0,416.0,305.386
305396.0,352.0,441.0,4.0,424.0,305.396
305406.0,354.0,444.0,3.0,423.0,305.406
305416.0,361.0,442.0,4.0,424.0,305.416
305426.0,346.0,434.0,3.0,418.0,305.426
305436.0,348.0,437.0,4.0,420.0,305.436
305446.0,354.0,446.0,2.0,429.0,305.446
305456.0,355.0,449.0,4.0,429.0,305.456
305466.0,356.0,444.0,4.0,425.0,305.466
305476.0,343.0,431.0,4.0,414.0,305.476
305486.0,347.0,438.0,3.0,419.0,305.486
305496.0,347.0,438.0,4.0,422.0,305.496
305506.0,352.0,448.0,3.0,430.0,305.506
305516.0,355.0,442.0,4.0,425.0,305.516
305526.0,343.0,430.0,3.0,414.0,305.526
305536.0,350.0,437.0,4.0,418.0,305.536
305546.0,352.0,441.0,3.0,426.0,305.546
305556.0,356.0,449.0,3.0,432.0,305.556
305566.0,358.0,442.0,4.0,425.0,305.566
305576.0,345.0,432.0,3.0,414.0,305.576
305586.0,352.0,441.0,3.0,419.0,305.586
305596.0,355.0,447.0,3.0,427.0,305.596
305606.0,359.0,451.0,4.0,432.0,305.606
305616.0,359.0,445.0,4.0,430.0,305.616
305626.0,351.0,438.0,3.0,421.0,305.626
305636.0,351.0,441.0,3.0,422.0,305.636
305646.0,357.0,449.0,4.0,432.0,305.646
305656.0,361.0,454.0,4.0,434.0,305.656
305666.0,369.0,454.0,5.0,435.0,305.666
305676.0,353.0,442.0,3.0,422.0,305.676
305686.0,354.0,444.0,3.0,425.0,305.686
305696.0,362.0,456.0,3.0,437.0,305.696
305707.0,359.0,454.0,4.0,434.0,305.707
305717.0,354.0,447.0,3.0,429.0,305.717
305727.0,341.0,431.0,5.0,416.0,305.727
305737.0,350.0,446.0,4.0,429.0,305.737
305747.0,361.0,454.0,3.0,440.0,305.747
305757.0,356.0,451.0,3.0,434.0,305.757
305767.0,355.0,445.0,3.0,427.0,305.767
305777.0,343.0,430.0,3.0,416.0,305.777
305787.0,354.0,446.0,5.0,429.0,305.787
305797.0,361.0,450.0,4.0,434.0,305.797
305807.0,358.0,448.0,4.0,431.0,305.807
305817.0,354.0,444.0,3.0,428.0,305.817
305827.0,340.0,431.0,4.0,416.0,305.827
305837.0,347.0,440.0,3.0,424.0,305.837
305847.0,358.0,450.0,4.0,434.0,305.847
305857.0,354.0,446.0,3.0,429.0,305.857
305867.0,354.0,441.0,4.0,425.0,305.867
305878.0,344.0,432.0,4.0,418.0,305.878
305888.0,352.0,446.0,3.0,428.0,305.888
305898.0,362.0,450.0,4.0,434.0,305.898
305908.0,350.0,438.0,4.0,421.0,305.908
305918.0,350.0,437.0,4.0,419.0,305.918
305928.0,346.0,431.0,4.0,418.0,305.928
305938.0,357.0,447.0,4.0,430.0,305.938
305948.0,365.0,448.0,3.0,434.0,305.948
305958.0,351.0,436.0,4.0,419.0,305.958
305968.0,354.0,438.0,3.0,420.0,305.968
305978.0,348.0,433.0,5.0,417.0,305.978
305988.0,355.0,447.0,2.0,427.0,305.988
305998.0,363.0,447.0,4.0,430.0,305.998
306008.0,354.0,442.0,2.0,423.0,306.008
306018.0,352.0,439.0,4.0,419.0,306.018
306028.0,349.0,435.0,3.0,418.0,306.028
306038.0,360.0,448.0,4.0,427.0,306.038
306048.0,366.0,450.0,4.0,433.0,306.048
306058.0,357.0,442.0,5.0,422.0,306.058
306068.0,356.0,441.0,4.0,421.0,306.068
306078.0,350.0,437.0,4.0,420.0,306.078
306088.0,358.0,449.0,4.0,428.0,306.088
306098.0,363.0,450.0,3.0,433.0,306.098
306108.0,354.0,440.0,4.0,421.0,306.108
306118.0,352.0,438.0,3.0,419.0,306.118
306128.0,351.0,439.0,4.0,424.0,306.128
306138.0,356.0,448.0,3.0,429.0,306.138
306148.0,365.0,450.0,4.0,434.0,306.148
306158.0,354.0,439.0,3.0,420.0,306.158
306168.0,353.0,439.0,4.0,417.0,306.168
306178.0,348.0,433.0,3.0,416.0,306.178
306188.0,358.0,449.0,4.0,427.0,306.188
306198.0,366.0,451.0,4.0,432.0,306.198
306208.0,353.0,438.0,4.0,418.0,306.208
306219.0,353.0,440.0,3.0,419.0,306.219
306229.0,357.0,443.0,4.0,425.0,306.229
306239.0,361.0,451.0,3.0,431.0,306.239
306249.0,365.0,446.0,4.0,427.0,306.249
306259.0,350.0,433.0,3.0,414.0,306.259
306269.0,354.0,440.0,4.0,419.0,306.269
306279.0,359.0,446.0,3.0,429.0,306.279
306289.0,361.0,450.0,3.0,431.0,306.289
306299.0,360.0,444.0,2.0,426.0,306.299
306309.0,352.0,436.0,3.0,418.0,306.309
306319.0,353.0,438.0,4.0,418.0,306.319
306329.0,359.0,446.0,3.0,428.0,306.329
306339.0,359.0,449.0,3.0,430.0,306.339
306349.0,362.0,446.0,3.0,428.0,306.349
306359.0,348.0,433.0,4.0,415.0,306.359
306369.0,349.0,438.0,4.0,419.0,306.369
306379.0,357.0,447.0,3.0,432.0,306.379
306390.0,358.0,448.0,3.0,430.0,306.39
306400.0,357.0,441.0,4.0,424.0,306.4
306410.0,345.0,428.0,4.0,414.0,306.41
306420.0,354.0,443.0,4.0,426.0,306.42
306430.0,362.0,449.0,3.0,435.0,306.43
306440.0,358.0,446.0,4.0,427.0,306.44
306450.0,354.0,439.0,3.0,423.0,306.45
306460.0,340.0,426.0,4.0,413.0,306.46
306470.0,351.0,443.0,4.0,426.0,306.47
306480.0,358.0,446.0,4.0,430.0,306.48
306490.0,357.0,446.0,4.0,427.0,306.49
306500.0,354.0,440.0,4.0,423.0,306.5
306510.0,344.0,430.0,2.0,415.0,306.51
306520.0,351.0,439.0,4.0,420.0,306.52
306530.0,360.0,448.0,4.0,431.0,306.53
306540.0,357.0,446.0,4.0,425.0,306.54
306550.0,358.0,440.0,4.0,421.0,306.55
306560.0,349.0,429.0,3.0,412.0,306.56
306570.0,355.0,441.0,3.0,421.0,306.57
306580.0,364.0,449.0,3.0,431.0,306.58
306590.0,359.0,446.0,3.0,425.0,306.59
306600.0,357.0,441.0,4.0,421.0,306.6
306610.0,348.0,430.0,3.0,411.0,306.61
306620.0,355.0,444.0,4.0,423.0,306.62
306630.0,364.0,452.0,4.0,434.0,306.63
306640.0,358.0,447.0,3.0,424.0,306.64
306650.0,361.0,442.0,4.0,424.0,306.65
306660.0,348.0,431.0,4.0,412.0,306.66
306670.0,357.0,445.0,4.0,424.0,306.67
306680.0,365.0,451.0,4.0,433.0,306.68
306690.0,361.0,448.0,4.0,427.0,306.69
306700.0,358.0,442.0,3.0,422.0,306.7
306710.0,346.0,430.0,4.0,412.0,306.71
306720.0,357.0,447.0,4.0,425.0,306.72
306731.0,366.0,450.0,4.0,432.0,306.731
306741.0,356.0,442.0,3.0,420.0,306.741
306751.0,352.0,439.0,4.0,416.0,306.751
306761.0,348.0,438.0,3.0,419.0,306.761
306771.0,355.0,449.0,4.0,426.0,306.771
306781.0,361.0,449.0,3.0,430.0,306.781
306791.0,351.0,439.0,3.0,418.0,306.791
306801.0,350.0,438.0,2.0,415.0,306.801
306811.0,350.0,438.0,4.0,419.0,306.811
306821.0,355.0,447.0,3.0,426.0,306.821
306831.0,364.0,450.0,4.0,432.0,306.831
306841.0,353.0,439.0,4.0,418.0,306.841
306851.0,350.0,437.0,4.0,416.0,306.851
306861.0,346.0,432.0,4.0,414.0,306.861
306871.0,356.0,448.0,4.0,426.0,306.871
306881.0,363.0,448.0,4.0,432.0,306.881
306891.0,352.0,437.0,3.0,417.0,306.891
306902.0,352.0,438.0,3.0,418.0,306.902
306912.0,357.0,441.0,4.0,424.0,306.912
306922.0,362.0,449.0,3.0,428.0,306.922
306932.0,361.0,443.0,4.0,424.0,306.932
306942.0,350.0,430.0,3.0,412.0,306.942
306952.0,353.0,438.0,3.0,417.0,306.952
306962.0,360.0,445.0,4.0,427.0,306.962
306972.0,363.0,451.0,3.0,429.0,306.972
306982.0,363.0,443.0,5.0,424.0,306.982
306992.0,354.0,435.0,3.0,416.0,306.992
307002.0,354.0,438.0,4.0,417.0,307.002
307012.0,362.0,445.0,3.0,428.0,307.012
307022.0,363.0,447.0,3.0,428.0,307.022
307032.0,366.0,445.0,3.0,428.0,307.032
307042.0,355.0,433.0,5.0,416.0,307.042
307052.0,353.0,436.0,4.0,418.0,307.052
307062.0,362.0,445.0,4.0,429.0,307.062
307072.0,363.0,449.0,3.0,430.0,307.072
307082.0,364.0,443.0,3.0,426.0,307.082
307092.0,352.0,430.0,3.0,413.0,307.092
307102.0,354.0,436.0,4.0,418.0,307.102
307112.0,364.0,444.0,3.0,429.0,307.112
307122.0,363.0,447.0,3.0,426.0,307.122
307132.0,364.0,442.0,4.0,426.0,307.132
307142.0,352.0,429.0,3.0,412.0,307.142
307152.0,355.0,437.0,4.0,420.0,307.152
307162.0,359.0,440.0,3.0,425.0,307.162
307172.0,363.0,446.0,4.0,428.0,307.172
307182.0,360.0,440.0,4.0,425.0,307.182
307192.0,347.0,427.0,3.0,412.0,307.192
307202.0,351.0,436.0,3.0,418.0,307.202
307212.0,356.0,441.0,4.0,427.0,307.212
307222.0,360.0,443.0,3.0,428.0,307.222
307232.0,360.0,439.0,4.0,424.0,307.232
307243.0,347.0,424.0,3.0,411.0,307.243
307253.0,353.0,437.0,4.0,423.0,307.253
307263.0,363.0,446.0,3.0,434.0,307.263
307273.0,358.0,439.0,4.0,425.0,307.273
307283.0,357.0,436.0,4.0,423.0,307.283
307293.0,347.0,424.0,4.0,412.0,307.293
307303.0,355.0,439.0,4.0,426.0,307.303
307313.0,368.0,447.0,3.0,435.0,307.313
307323.0,361.0,439.0,3.0,426.0,307.323
307333.0,361.0,438.0,4.0,424.0,307.333
307343.0,350.0,424.0,4.0,412.0,307.343
307353.0,359.0,440.0,4.0,426.0,307.353
307363.0,368.0,447.0,4.0,433.0,307.363
307373.0,362.0,443.0,3.0,427.0,307.373
307383.0,359.0,437.0,3.0,424.0,307.383
307393.0,349.0,426.0,3.0,414.0,307.393
307403.0,359.0,441.0,3.0,427.0,307.403
307414.0,368.0,446.0,3.0,435.0,307.414
307424.0,357.0,435.0,3.0,423.0,307.424
307434.0,355.0,434.0,3.0,420.0,307.434
307444.0,355.0,433.0,4.0,423.0,307.444
307454.0,362.0,445.0,3.0,430.0,307.454
307464.0,368.0,448.0,4.0,434.0,307.464
307474.0,357.0,435.0,3.0,421.0,307.474
307484.0,356.0,435.0,4.0,419.0,307.484
307494.0,356.0,437.0,3.0,421.0,307.494
307504.0,362.0,445.0,3.0,427.0,307.504
307514.0,369.0,449.0,3.0,433.0,307.514
307524.0,357.0,435.0,3.0,418.0,307.524
307534.0,355.0,436.0,4.0,417.0,307.534
307544.0,352.0,431.0,5.0,415.0,307.544
307554.0,361.0,445.0,2.0,426.0,307.554
307564.0,368.0,448.0,3.0,430.0,307.564
307574.0,356.0,434.0,3.0,418.0,307.574
307584.0,358.0,437.0,3.0,419.0,307.584
307594.0,353.0,431.0,3.0,417.0,307.594
307604.0,362.0,444.0,4.0,426.0,307.604
307614.0,367.0,445.0,3.0,429.0,307.614
307624.0,356.0,431.0,3.0,416.0,307.624
307634.0,357.0,437.0,3.0,419.0,307.634
307644.0,354.0,433.0,3.0,418.0,307.644
307654.0,360.0,444.0,3.0,426.0,307.654
307664.0,363.0,444.0,4.0,425.0,307.664
307674.0,356.0,434.0,4.0,418.0,307.674
307684.0,353.0,435.0,3.0,415.0,307.684
307694.0,352.0,433.0,4.0,418.0,307.694
307704.0,360.0,444.0,3.0,425.0,307.704
307714.0,366.0,447.0,4.0,430.0,307.714
307724.0,357.0,434.0,3.0,417.0,307.724
307734.0,356.0,434.0,4.0,416.0,307.734
307744.0,356.0,436.0,3.0,422.0,307.744
307755.0,365.0,444.0,3.0,427.0,307.755
307765.0,368.0,443.0,3.0,427.0,307.765
307775.0,355.0,428.0,3.0,414.0,307.775
307785.0,357.0,436.0,3.0,419.0,307.785
307795.0,366.0,445.0,5.0,431.0,307.795
307805.0,365.0,445.0,2.0,430.0,307.805
307815.0,365.0,442.0,4.0,428.0,307.815
307825.0,354.0,429.0,3.0,413.0,307.825
307835.0,357.0,436.0,3.0,421.0,307.835
307845.0,361.0,439.0,4.0,426.0,307.845
307855.0,364.0,445.0,4.0,429.0,307.855
307865.0,364.0,439.0,4.0,424.0,307.865
307875.0,351.0,423.0,3.0,410.0,307.875
307885.0,354.0,432.0,3.0,418.0,307.885
307895.0,360.0,439.0,3.0,426.0,307.895
307905.0,363.0,442.0,4.0,427.0,307.905
307915.0,361.0,438.0,4.0,423.0,307.915
307926.0,349.0,424.0,4.0,411.0,307.926
307936.0,355.0,438.0,4.0,423.0,307.936
307946.0,366.0,446.0,4.0,433.0,307.946
307956.0,359.0,439.0,3.0,426.0,307.956
307966.0,358.0,436.0,4.0,422.0,307.966
307976.0,347.0,423.0,4.0,412.0,307.976
307986.0,357.0,439.0,4.0,424.0,307.986
307996.0,366.0,447.0,2.0,434.0,307.996
308006.0,358.0,436.0,4.0,424.0,308.006
308016.0,359.0,439.0,3.0,424.0,308.016
308026.0,347.0,423.0,4.0,412.0,308.026
308036.0,357.0,439.0,4.0,425.0,308.036
308046.0,366.0,448.0,4.0,434.0,308.046
308056.0,361.0,442.0,4.0,426.0,308.056
308066.0,359.0,437.0,3.0,421.0,308.066
308076.0,351.0,426.0,3.0,414.0,308.076
308086.0,363.0,441.0,3.0,426.0,308.086
308096.0,368.0,446.0,3.0,433.0,308.096
308106.0,365.0,441.0,5.0,426.0,308.106
308116.0,361.0,437.0,4.0,422.0,308.116
308126.0,352.0,426.0,3.0,414.0,308.126
308136.0,362.0,443.0,3.0,427.0,308.136
308146.0,367.0,446.0,3.0,432.0,308.146
308156.0,362.0,438.0,3.0,424.0,308.156
308166.0,359.0,436.0,4.0,421.0,308.166
308176.0,352.0,428.0,4.0,415.0,308.176
308186.0,354.0,436.0,3.0,422.0,308.186
308196.0,363.0,445.0,4.0,431.0,308.196
308206.0,358.0,438.0,3.0,422.0,308.206
308216.0,356.0,435.0,4.0,417.0,308.216
308226.0,348.0,423.0,3.0,409.0,308.226
308236.0,356.0,439.0,4.0,422.0,308.236
308246.0,366.0,447.0,3.0,432.0,308.246
308256.0,359.0,437.0,4.0,423.0,308.256
308267.0,356.0,436.0,3.0,420.0,308.267
308277.0,352.0,431.0,4.0,418.0,308.277
308287.0,357.0,444.0,4.0,427.0,308.287
308297.0,363.0,444.0,5.0,429.0,308.297
308307.0,351.0,430.0,4.0,416.0,308.307
308317.0,353.0,434.0,3.0,419.0,308.317
308327.0,351.0,433.0,4.0,420.0,308.327
308337.0,360.0,444.0,4.0,429.0,308.337
308347.0,364.0,443.0,3.0,428.0,308.347
308357.0,357.0,435.0,5.0,421.0,308.357
308367.0,355.0,434.0,4.0,419.0,308.367
308377.0,355.0,434.0,4.0,421.0,308.377
308387.0,363.0,444.0,4.0,429.0,308.387
308397.0,370.0,448.0,3.0,433.0,308.397
308407.0,359.0,433.0,4.0,420.0,308.407
308417.0,356.0,434.0,4.0,418.0,308.417
308427.0,358.0,435.0,4.0,422.0,308.427
308438.0,363.0,444.0,4.0,428.0,308.438
308448.0,364.0,441.0,4.0,425.0,308.448
308458.0,352.0,427.0,3.0,412.0,308.458
308468.0,354.0,435.0,4.0,418.0,308.468
308478.0,364.0,445.0,4.0,432.0,308.478
308488.0,363.0,444.0,4.0,431.0,308.488
308498.0,359.0,439.0,3.0,427.0,308.498
308508.0,345.0,425.0,4.0,413.0,308.508
308518.0,352.0,437.0,3.0,423.0,308.518
308528.0,356.0,439.0,4.0,429.0,308.528
308538.0,360.0,443.0,4.0,431.0,308.538
308548.0,361.0,439.0,5.0,426.0,308.548
308558.0,348.0,425.0,4.0,413.0,308.558
308568.0,353.0,433.0,4.0,418.0,308.568
308578.0,360.0,443.0,3.0,430.0,308.578
308588.0,362.0,444.0,4.0,430.0,308.588
308598.0,361.0,439.0,3.0,424.0,308.598
308608.0,352.0,430.0,4.0,416.0,308.608
308618.0,353.0,435.0,4.0,418.0,308.618
308628.0,361.0,444.0,3.0,429.0,308.628
308638.0,362.0,446.0,3.0,430.0,308.638
308648.0,359.0,440.0,3.0,423.0,308.648
308658.0,352.0,430.0,4.0,414.0,308.658
308668.0,354.0,435.0,4.0,417.0,308.668
308678.0,363.0,445.0,3.0,429.0,308.678
308688.0,361.0,444.0,3.0,426.0,308.688
308698.0,363.0,442.0,3.0,425.0,308.698
308708.0,351.0,428.0,3.0,413.0,308.708
308718.0,355.0,435.0,4.0,419.0,308.718
308728.0,363.0,444.0,4.0,430.0,308.728
308738.0,363.0,444.0,4.0,428.0,308.738
308748.0,361.0,439.0,3.0,425.0,308.748
308758.0,349.0,426.0,4.0,413.0,308.758
308768.0,354.0,436.0,3.0,421.0,308.768
308779.0,364.0,445.0,3.0,431.0,308.779
308789.0,359.0,440.0,3.0,423.0,308.789
308799.0,359.0,436.0,4.0,420.0,308.799
308809.0,349.0,427.0,4.0,414.0,308.809
308819.0,359.0,442.0,4.0,426.0,308.819
308829.0,367.0,446.0,3.0,431.0,308.829
308839.0,362.0,439.0,3.0,423.0,308.839
308849.0,359.0,436.0,4.0,419.0,308.849
308859.0,352.0,428.0,5.0,415.0,308.859
308869.0,357.0,438.0,4.0,422.0,308.869
308879.0,366.0,446.0,4.0,431.0,308.879
308889.0,359.0,439.0,3.0,423.0,308.889
308899.0,357.0,436.0,3.0,419.0,308.899
308909.0,348.0,425.0,4.0,411.0,308.909
308919.0,357.0,440.0,4.0,424.0,308.919
308929.0,366.0,448.0,4.0,433.0,308.929
308939.0,358.0,439.0,3.0,421.0,308.939
308950.0,356.0,438.0,4.0,419.0,308.95
308960.0,350.0,433.0,3.0,417.0,308.96
308970.0,358.0,446.0,4.0,427.0,308.97
308980.0,365.0,444.0,5.0,430.0,308.98
308990.0,352.0,432.0,4.0,417.0,308.99
309000.0,354.0,436.0,3.0,420.0,309.0
309010.0,353.0,435.0,3.0,420.0,309.01
309020.0,360.0,446.0,3.0,429.0,309.02
309030.0,364.0,443.0,4.0,428.0,309.03
309040.0,358.0,436.0,4.0,421.0,309.04
309050.0,359.0,437.0,4.0,420.0,309.05
309060.0,358.0,437.0,3.0,423.0,309.06
309070.0,364.0,445.0,4.0,429.0,309.07
309080.0,369.0,449.0,3.0,434.0,309.08
309090.0,357.0,435.0,3.0,419.0,309.09
309100.0,356.0,435.0,4.0,418.0,309.1
309110.0,359.0,437.0,5.0,424.0,309.11
309120.0,362.0,444.0,4.0,428.0,309.12
309130.0,368.0,447.0,4.0,431.0,309.13
309140.0,357.0,434.0,3.0,420.0,309.14
309150.0,356.0,436.0,3.0,417.0,309.15
309160.0,359.0,441.0,4.0,426.0,309.16
309170.0,361.0,445.0,4.0,429.0,309.17
309180.0,367.0,447.0,4.0,432.0,309.18
309190.0,354.0,433.0,3.0,419.0,309.19
309200.0,352.0,435.0,4.0,418.0,309.2
309210.0,350.0,433.0,3.0,419.0,309.21
309220.0,358.0,444.0,4.0,427.0,309.22
309230.0,363.0,444.0,4.0,429.0,309.23
309240.0,351.0,431.0,4.0,416.0,309.24
309250.0,353.0,436.0,4.0,419.0,309.25
309260.0,352.0,435.0,3.0,421.0,309.26
309270.0,360.0,446.0,3.0,430.0,309.27
309280.0,364.0,444.0,4.0,429.0,309.28
309291.0,352.0,430.0,3.0,416.0,309.291
309301.0,354.0,434.0,4.0,418.0,309.301
309311.0,362.0,443.0,2.0,428.0,309.311
309321.0,362.0,443.0,4.0,427.0,309.321
309331.0,359.0,439.0,3.0,424.0,309.331
309341.0,349.0,428.0,4.0,414.0,309.341
309351.0,351.0,435.0,3.0,418.0,309.351
309361.0,361.0,445.0,4.0,429.0,309.361
309371.0,359.0,444.0,4.0,426.0,309.371
309381.0,361.0,441.0,4.0,425.0,309.381
309391.0,349.0,429.0,3.0,414.0,309.391
309401.0,352.0,436.0,3.0,418.0,309.401
309411.0,362.0,445.0,3.0,430.0,309.411
309421.0,361.0,446.0,4.0,428.0,309.421
309431.0,361.0,440.0,4.0,425.0,309.431
309441.0,349.0,427.0,4.0,413.0,309.441
309451.0,354.0,437.0,4.0,423.0,309.451
309462.0,364.0,447.0,3.0,433.0,309.462
309472.0,360.0,441.0,4.0,427.0,309.472
309482.0,358.0,437.0,4.0,422.0,309.482
309492.0,350.0,428.0,4.0,416.0,309.492
309502.0,361.0,444.0,4.0,428.0,309.502
309512.0,366.0,447.0,4.0,434.0,309.512
309522.0,360.0,440.0,3.0,426.0,309.522
309532.0,357.0,437.0,3.0,421.0,309.532
309542.0,354.0,430.0,3.0,419.0,309.542
309552.0,362.0,440.0,4.0,426.0,309.552
309562.0,370.0,448.0,4.0,435.0,309.562
309572.0,362.0,440.0,4.0,426.0,309.572
309582.0,360.0,438.0,3.0,423.0,309.582
309592.0,350.0,426.0,4.0,413.0,309.592
309602.0,358.0,442.0,4.0,425.0,309.602
309612.0,368.0,449.0,5.0,433.0,309.612
309622.0,359.0,440.0,4.0,422.0,309.622
309632.0,361.0,440.0,5.0,422.0,309.632
309642.0,352.0,429.0,3.0,414.0,309.642
309652.0,363.0,445.0,3.0,426.0,309.652
309662.0,371.0,450.0,3.0,433.0,309.662
309672.0,361.0,440.0,4.0,421.0,309.672
309682.0,361.0,440.0,4.0,421.0,309.682
309692.0,352.0,430.0,4.0,413.0,309.692
309702.0,361.0,446.0,4.0,427.0,309.702
309712.0,369.0,451.0,3.0,433.0,309.712
309722.0,363.0,445.0,4.0,425.0,309.722
309732.0,359.0,440.0,4.0,422.0,309.732
309742.0,351.0,432.0,4.0,416.0,309.742
309752.0,361.0,447.0,3.0,427.0,309.752
309762.0,366.0,449.0,4.0,433.0,309.762
309772.0,361.0,445.0,3.0,424.0,309.772
309782.0,358.0,440.0,4.0,420.0,309.782
309792.0,353.0,434.0,4.0,416.0,309.792
309803.0,363.0,448.0,5.0,428.0,309.803
309813.0,368.0,450.0,3.0,432.0,309.813
309823.0,357.0,437.0,4.0,418.0,309.823
309833.0,355.0,439.0,3.0,419.0,309.833
309843.0,360.0,443.0,4.0,426.0,309.843
309853.0,363.0,449.0,4.0,428.0,309.853
309863.0,369.0,447.0,5.0,431.0,309.863
309873.0,356.0,436.0,4.0,419.0,309.873
309883.0,355.0,437.0,3.0,417.0,309.883
309893.0,354.0,437.0,3.0,421.0,309.893
309903.0,358.0,446.0,3.0,429.0,309.903
309913.0,362.0,444.0,4.0,428.0,309.913
309923.0,352.0,431.0,4.0,416.0,309.923
309933.0,354.0,436.0,4.0,418.0,309.933
309943.0,354.0,436.0,3.0,421.0,309.943
309953.0,361.0,447.0,3.0,430.0,309.953
309963.0,364.0,443.0,3.0,429.0,309.963
309974.0,353.0,432.0,4.0,418.0,309.974
309984.0,354.0,437.0,4.0,420.0,309.984
309994.0,363.0,445.0,4.0,432.0,309.994
310004.0,362.0,446.0,3.0,430.0,310.004
310014.0,360.0,440.0,3.0,425.0,310.014
310024.0,352.0,432.0,3.0,416.0,310.024
310034.0,355.0,438.0,5.0,420.0,310.034
310044.0,364.0,448.0,4.0,431.0,310.044
310054.0,364.0,447.0,4.0,428.0,310.054
310064.0,364.0,443.0,3.0,427.0,310.064
310074.0,351.0,432.0,4.0,415.0,310.074
310084.0,355.0,441.0,3.0,423.0,310.084
310094.0,365.0,449.0,3.0,433.0,310.094
310104.0,363.0,451.0,3.0,430.0,310.104
310114.0,364.0,444.0,5.0,426.0,310.114
310124.0,352.0,432.0,2.0,414.0,310.124
310134.0,357.0,443.0,4.0,423.0,310.134
310144.0,362.0,447.0,3.0,430.0,310.144
310154.0,365.0,450.0,3.0,431.0,310.154
310164.0,363.0,443.0,3.0,424.0,310.164
310174.0,353.0,431.0,5.0,413.0,310.174
310184.0,358.0,444.0,3.0,424.0,310.184
310194.0,363.0,448.0,3.0,430.0,310.194
310204.0,367.0,451.0,3.0,430.0,310.204
310214.0,363.0,443.0,3.0,425.0,310.214
310224.0,351.0,430.0,4.0,414.0,310.224
310234.0,355.0,439.0,4.0,419.0,310.234
310244.0,365.0,448.0,3.0,431.0,310.244
310254.0,364.0,450.0,3.0,428.0,310.254
310264.0,362.0,443.0,4.0,424.0,310.264
310274.0,354.0,436.0,3.0,415.0,310.274
310284.0,356.0,441.0,4.0,419.0,310.284
310294.0,364.0,450.0,4.0,431.0,310.294
310304.0,363.0,451.0,4.0,427.0,310.304
310315.0,360.0,446.0,2.0,425.0,310.315
310325.0,352.0,435.0,3.0,416.0,310.325
310335.0,363.0,453.0,3.0,431.0,310.335
310345.0,371.0,456.0,4.0,436.0,310.345
310355.0,360.0,446.0,3.0,424.0,310.355
310365.0,361.0,445.0,4.0,424.0,310.365
310375.0,352.0,435.0,4.0,416.0,310.375
310385.0,362.0,452.0,4.0,428.0,310.385
310395.0,369.0,455.0,3.0,436.0,310.395
310405.0,362.0,450.0,3.0,427.0,310.405
310415.0,359.0,444.0,3.0,423.0,310.415
310425.0,352.0,435.0,4.0,417.0,310.425
310435.0,361.0,452.0,3.0,430.0,310.435
310445.0,366.0,452.0,4.0,434.0,310.445
310455.0,360.0,448.0,4.0,426.0,310.455
310465.0,358.0,443.0,3.0,422.0,310.465
310475.0,352.0,437.0,4.0,418.0,310.475
310486.0,361.0,452.0,3.0,429.0,310.486
310496.0,368.0,451.0,4.0,433.0,310.496
310506.0,358.0,441.0,3.0,420.0,310.506
310516.0,357.0,442.0,3.0,420.0,310.516
310526.0,361.0,447.0,3.0,428.0,310.526
310536.0,364.0,453.0,4.0,429.0,310.536
310546.0,369.0,449.0,4.0,431.0,310.546
310556.0,358.0,440.0,4.0,419.0,310.556
310566.0,357.0,442.0,3.0,420.0,310.566
310576.0,357.0,441.0,4.0,422.0,310.576
310586.0,366.0,454.0,3.0,430.0,310.586
310596.0,373.0,450.0,4.0,431.0,310.596
310606.0,359.0,439.0,4.0,417.0,310.606
310616.0,361.0,442.0,4.0,420.0,310.616
310626.0,359.0,442.0,2.0,422.0,310.626
310636.0,366.0,453.0,3.0,430.0,310.636
310646.0,369.0,450.0,3.0,427.0,310.646
310656.0,361.0,443.0,4.0,419.0,310.656
310666.0,358.0,441.0,3.0,417.0,310.666
310676.0,360.0,443.0,5.0,423.0,310.676
310686.0,360.0,452.0,3.0,428.0,310.686
310696.0,362.0,446.0,3.0,427.0,310.696
310706.0,355.0,441.0,3.0,420.0,310.706
310716.0,355.0,441.0,3.0,418.0,310.716
310726.0,359.0,444.0,4.0,425.0,310.726
310736.0,363.0,453.0,4.0,429.0,310.736
310746.0,370.0,452.0,4.0,432.0,310.746
310756.0,356.0,440.0,3.0,418.0,310.756
310766.0,355.0,440.0,4.0,418.0,310.766
310776.0,358.0,446.0,3.0,426.0,310.776
310786.0,358.0,449.0,4.0,426.0,310.786
310796.0,364.0,447.0,3.0,428.0,310.796
310806.0,353.0,436.0,5.0,415.0,310.806
310816.0,352.0,439.0,4.0,417.0,310.816
310827.0,360.0,446.0,4.0,426.0,310.827
310837.0,361.0,452.0,3.0,427.0,310.837
310847.0,360.0,443.0,4.0,422.0,310.847
310857.0,348.0,431.0,3.0,411.0,310.857
310867.0,356.0,444.0,4.0,422.0,310.867
310877.0,362.0,447.0,4.0,427.0,310.877
310887.0,363.0,450.0,4.0,427.0,310.887
310897.0,365.0,443.0,4.0,424.0,310.897
310907.0,351.0,430.0,4.0,413.0,310.907
310917.0,356.0,440.0,3.0,420.0,310.917
310927.0,365.0,449.0,5.0,431.0,310.927
310937.0,363.0,450.0,2.0,428.0,310.937
310947.0,360.0,443.0,4.0,423.0,310.947
310957.0,352.0,435.0,3.0,414.0,310.957
310967.0,354.0,441.0,3.0,419.0,310.967
310977.0,364.0,449.0,4.0,430.0,310.977
310987.0,362.0,449.0,4.0,426.0,310.987
310998.0,359.0,443.0,3.0,421.0,310.998
311008.0,350.0,433.0,4.0,413.0,311.008
311018.0,362.0,449.0,4.0,427.0,311.018
311028.0,370.0,453.0,4.0,433.0,311.028
311038.0,358.0,442.0,4.0,421.0,311.038
311048.0,359.0,442.0,4.0,421.0,311.048
311058.0,350.0,433.0,3.0,415.0,311.058
311068.0,359.0,450.0,3.0,428.0,311.068
311078.0,368.0,452.0,4.0,434.0,311.078
311088.0,360.0,448.0,3.0,425.0,311.088
311098.0,357.0,442.0,4.0,420.0,311.098
311108.0,352.0,435.0,4.0,415.0,311.108
311118.0,363.0,451.0,4.0,426.0,311.118
311128.0,368.0,452.0,4.0,432.0,311.128
311138.0,361.0,447.0,3.0,423.0,311.138
311148.0,359.0,443.0,3.0,420.0,311.148
311158.0,353.0,436.0,4.0,416.0,311.158
311168.0,358.0,446.0,3.0,424.0,311.168
311178.0,368.0,452.0,5.0,433.0,311.178
311188.0,359.0,444.0,2.0,422.0,311.188
311198.0,356.0,442.0,3.0,420.0,311.198
311208.0,349.0,438.0,4.0,419.0,311.208
311218.0,355.0,447.0,3.0,424.0,311.218
311228.0,365.0,452.0,4.0,431.0,311.228
311238.0,356.0,443.0,4.0,420.0,311.238
311248.0,354.0,440.0,3.0,419.0,311.248
311258.0,346.0,431.0,3.0,413.0,311.258
311268.0,357.0,447.0,4.0,427.0,311.268
311278.0,366.0,452.0,3.0,433.0,311.278
311288.0,356.0,442.0,4.0,419.0,311.288
311298.0,354.0,440.0,4.0,420.0,311.298
311308.0,344.0,431.0,4.0,412.0,311.308
311318.0,354.0,448.0,4.0,424.0,311.318
311328.0,362.0,451.0,4.0,432.0,311.328
311339.0,351.0,440.0,3.0,417.0,311.339
311349.0,351.0,439.0,3.0,415.0,311.349
311359.0,354.0,441.0,3.0,421.0,311.359
311369.0,360.0,450.0,4.0,426.0,311.369
311379.0,364.0,443.0,2.0,424.0,311.379
311389.0,354.0,438.0,3.0,416.0,311.389
311399.0,354.0,439.0,3.0,417.0,311.399
311409.0,357.0,443.0,3.0,423.0,311.409
311419.0,361.0,450.0,3.0,426.0,311.419
311429.0,367.0,448.0,4.0,429.0,311.429
311439.0,353.0,437.0,4.0,416.0,311.439
311449.0,354.0,439.0,3.0,415.0,311.449
311459.0,358.0,447.0,3.0,426.0,311.459
311469.0,361.0,451.0,3.0,427.0,311.469
311479.0,366.0,448.0,3.0,428.0,311.479
311489.0,353.0,438.0,4.0,413.0,311.489
311499.0,353.0,439.0,3.0,415.0,311.499
311510.0,360.0,446.0,4.0,426.0,311.51
311520.0,361.0,451.0,4.0,426.0,311.52
311530.0,360.0,444.0,3.0,421.0,311.53
311540.0,347.0,431.0,4.0,409.0,311.54
311550.0,356.0,447.0,4.0,423.0,311.55
311560.0,364.0,449.0,4.0,428.0,311.56
311570.0,364.0,451.0,4.0,426.0,311.57
311580.0,362.0,444.0,4.0,422.0,311.58
311590.0,350.0,433.0,3.0,411.0,311.59
311600.0,355.0,443.0,3.0,417.0,311.6
311610.0,365.0,451.0,4.0,430.0,311.61
311620.0,363.0,452.0,4.0,426.0,311.62
311630.0,360.0,445.0,2.0,423.0,311.63
311640.0,352.0,436.0,4.0,413.0,311.64
311650.0,355.0,445.0,3.0,421.0,311.65
311660.0,363.0,452.0,4.0,431.0,311.66
311670.0,359.0,451.0,4.0,425.0,311.67
311680.0,361.0,447.0,4.0,425.0,311.68
311690.0,348.0,435.0,3.0,410.0,311.69
311700.0,354.0,444.0,4.0,420.0,311.7
311710.0,364.0,453.0,3.0,432.0,311.71
311720.0,360.0,450.0,4.0,424.0,311.72
311730.0,361.0,446.0,3.0,424.0,311.73
311740.0,350.0,434.0,4.0,411.0,311.74
311750.0,355.0,446.0,3.0,421.0,311.75
311760.0,370.0,455.0,3.0,433.0,311.76
311770.0,366.0,454.0,4.0,428.0,311.77
311780.0,364.0,447.0,3.0,423.0,311.78
311790.0,351.0,434.0,3.0,410.0,311.79
311800.0,359.0,448.0,4.0,422.0,311.8
311810.0,365.0,451.0,4.0,429.0,311.81
311820.0,364.0,454.0,4.0,427.0,311.82
311830.0,362.0,446.0,4.0,423.0,311.83
311840.0,349.0,435.0,3.0,411.0,311.84
311851.0,359.0,449.0,4.0,425.0,311.851
311861.0,367.0,455.0,4.0,434.0,311.861
311871.0,358.0,447.0,4.0,422.0,311.871
311881.0,355.0,444.0,3.0,419.0,311.881
311891.0,353.0,441.0,3.0,419.0,311.891
311901.0,359.0,451.0,3.0,426.0,311.901
311911.0,368.0,455.0,4.0,434.0,311.911
311921.0,358.0,446.0,3.0,421.0,311.921
311931.0,358.0,444.0,5.0,419.0,311.931
311941.0,351.0,436.0,4.0,413.0,311.941
311951.0,362.0,452.0,3.0,426.0,311.951
311961.0,373.0,457.0,3.0,434.0,311.961
311971.0,362.0,445.0,3.0,420.0,311.971
311981.0,363.0,447.0,3.0,422.0,311.981
311991.0,355.0,437.0,5.0,415.0,311.991
312001.0,364.0,453.0,3.0,427.0,312.001
312011.0,372.0,456.0,3.0,432.0,312.011
312022.0,361.0,446.0,4.0,419.0,312.022
312032.0,360.0,445.0,4.0,418.0,312.032
312042.0,363.0,448.0,3.0,425.0,312.042
312052.0,367.0,456.0,4.0,430.0,312.052
