time (ms),signal 0,signal 1,signal 2,signal 3,time (sec)
317011.0,360.0,442.0,2.0,421.0,317.011
317021.0,357.0,437.0,4.0,418.0,317.021
317031.0,366.0,453.0,4.0,430.0,317.031
317041.0,375.0,456.0,4.0,436.0,317.041
317051.0,366.0,446.0,3.0,423.0,317.051
317061.0,367.0,446.0,4.0,423.0,317.061
317071.0,358.0,437.0,4.0,416.0,317.071
317081.0,368.0,452.0,4.0,428.0,317.081
317091.0,375.0,456.0,3.0,435.0,317.091
317101.0,367.0,450.0,4.0,424.0,317.101
317111.0,364.0,445.0,3.0,421.0,317.111
317121.0,357.0,438.0,5.0,415.0,317.121
317131.0,368.0,454.0,3.0,428.0,317.131
317142.0,374.0,455.0,3.0,433.0,317.142
317152.0,361.0,444.0,2.0,420.0,317.152
317162.0,358.0,444.0,4.0,420.0,317.162
317172.0,361.0,449.0,3.0,429.0,317.172
317182.0,366.0,455.0,4.0,431.0,317.182
317192.0,370.0,454.0,2.0,433.0,317.192
317202.0,358.0,442.0,5.0,419.0,317.202
317212.0,358.0,445.0,3.0,421.0,317.212
317222.0,364.0,451.0,3.0,431.0,317.222
317232.0,366.0,456.0,3.0,433.0,317.232
317242.0,371.0,453.0,3.0,434.0,317.242
317252.0,362.0,442.0,4.0,422.0,317.252
317262.0,362.0,445.0,4.0,424.0,317.262
317272.0,363.0,446.0,4.0,427.0,317.272
317282.0,370.0,458.0,3.0,434.0,317.282
317292.0,372.0,453.0,3.0,434.0,317.292
317302.0,359.0,442.0,4.0,419.0,317.302
317312.0,363.0,446.0,4.0,423.0,317.312
317322.0,362.0,447.0,3.0,426.0,317.322
317332.0,370.0,459.0,4.0,434.0,317.332
317342.0,372.0,452.0,4.0,431.0,317.342
317352.0,358.0,441.0,4.0,419.0,317.352
317362.0,361.0,446.0,4.0,423.0,317.362
317372.0,364.0,450.0,4.0,429.0,317.372
317382.0,368.0,458.0,3.0,434.0,317.382
317392.0,370.0,451.0,4.0,430.0,317.392
317402.0,361.0,446.0,2.0,422.0,317.402
317412.0,360.0,446.0,4.0,422.0,317.412
317422.0,365.0,452.0,3.0,431.0,317.422
317432.0,369.0,458.0,5.0,433.0,317.432
317442.0,372.0,456.0,4.0,437.0,317.442
317452.0,358.0,444.0,4.0,423.0,317.452
317462.0,358.0,446.0,3.0,425.0,317.462
317472.0,364.0,453.0,3.0,435.0,317.472
317483.0,367.0,458.0,3.0,437.0,317.483
317493.0,366.0,449.0,4.0,432.0,317.493
317503.0,355.0,436.0,4.0,417.0,317.503
317513.0,360.0,449.0,3.0,428.0,317.513
317523.0,370.0,457.0,4.0,439.0,317.523
317533.0,369.0,457.0,3.0,433.0,317.533
317543.0,369.0,450.0,4.0,429.0,317.543
317553.0,356.0,438.0,4.0,416.0,317.553
317563.0,364.0,453.0,4.0,429.0,317.563
317573.0,370.0,456.0,4.0,435.0,317.573
317583.0,370.0,457.0,3.0,433.0,317.583
317593.0,366.0,451.0,3.0,430.0,317.593
317603.0,354.0,437.0,3.0,417.0,317.603
317613.0,359.0,449.0,4.0,426.0,317.613
317623.0,370.0,457.0,4.0,437.0,317.623
317633.0,368.0,457.0,4.0,433.0,317.633
317643.0,369.0,451.0,4.0,429.0,317.643
317654.0,357.0,439.0,3.0,419.0,317.654
317664.0,367.0,456.0,4.0,431.0,317.664
317674.0,376.0,460.0,3.0,439.0,317.674
317684.0,364.0,450.0,4.0,426.0,317.684
317694.0,362.0,448.0,4.0,424.0,317.694
317704.0,355.0,440.0,3.0,420.0,317.704
317714.0,367.0,457.0,3.0,433.0,317.714
317724.0,380.0,460.0,3.0,438.0,317.724
317734.0,367.0,449.0,3.0,425.0,317.734
317744.0,368.0,449.0,3.0,427.0,317.744
317754.0,360.0,441.0,4.0,420.0,317.754
317764.0,369.0,457.0,4.0,432.0,317.764
317774.0,376.0,459.0,4.0,438.0,317.774
317784.0,367.0,452.0,3.0,429.0,317.784
317794.0,364.0,448.0,4.0,427.0,317.794
317804.0,359.0,441.0,4.0,424.0,317.804
317814.0,370.0,456.0,4.0,435.0,317.814
317824.0,374.0,459.0,4.0,441.0,317.824
317834.0,366.0,449.0,3.0,430.0,317.834
317844.0,363.0,448.0,3.0,427.0,317.844
317854.0,360.0,442.0,4.0,426.0,317.854
317864.0,368.0,458.0,4.0,438.0,317.864
317874.0,373.0,460.0,4.0,441.0,317.874
317884.0,362.0,449.0,4.0,429.0,317.884
317894.0,360.0,447.0,4.0,425.0,317.894
317904.0,356.0,447.0,4.0,428.0,317.904
317914.0,362.0,454.0,4.0,434.0,317.914
317924.0,370.0,460.0,3.0,443.0,317.924
317934.0,362.0,448.0,5.0,430.0,317.934
317944.0,360.0,446.0,3.0,428.0,317.944
317954.0,353.0,438.0,4.0,423.0,317.954
317964.0,366.0,454.0,4.0,436.0,317.964
317974.0,373.0,458.0,3.0,440.0,317.974
317984.0,358.0,442.0,4.0,427.0,317.984
317995.0,357.0,440.0,4.0,425.0,317.995
318005.0,357.0,442.0,4.0,429.0,318.005
318015.0,361.0,450.0,3.0,434.0,318.015
318025.0,363.0,445.0,3.0,432.0,318.025
318035.0,352.0,433.0,3.0,417.0,318.035
318045.0,357.0,439.0,4.0,422.0,318.045
318055.0,359.0,443.0,4.0,427.0,318.055
318065.0,364.0,450.0,4.0,432.0,318.065
318075.0,364.0,445.0,3.0,428.0,318.075
318085.0,355.0,436.0,4.0,419.0,318.085
318095.0,353.0,438.0,3.0,419.0,318.095
318105.0,356.0,442.0,3.0,425.0,318.105
318115.0,358.0,445.0,4.0,427.0,318.115
318125.0,367.0,446.0,4.0,430.0,318.125
318135.0,353.0,433.0,2.0,419.0,318.135
318145.0,352.0,435.0,3.0,417.0,318.145
318155.0,356.0,442.0,2.0,424.0,318.155
318166.0,356.0,442.0,3.0,423.0,318.166
318176.0,355.0,436.0,4.0,422.0,318.176
318186.0,343.0,421.0,4.0,411.0,318.186
318196.0,355.0,436.0,3.0,422.0,318.196
318206.0,362.0,443.0,4.0,437.0,318.206
318216.0,357.0,439.0,3.0,428.0,318.216
318226.0,352.0,432.0,3.0,418.0,318.226
318236.0,339.0,419.0,3.0,408.0,318.236
318246.0,352.0,437.0,4.0,426.0,318.246
318256.0,356.0,441.0,4.0,421.0,318.256
318266.0,369.0,474.0,3.0,436.0,318.266
318276.0,384.0,480.0,3.0,446.0,318.276
318286.0,358.0,454.0,3.0,434.0,318.286
318296.0,364.0,455.0,4.0,439.0,318.296
318306.0,370.0,461.0,3.0,445.0,318.306
318316.0,360.0,453.0,4.0,435.0,318.316
318326.0,362.0,451.0,4.0,425.0,318.326
318336.0,351.0,434.0,5.0,412.0,318.336
318346.0,359.0,444.0,3.0,413.0,318.346
318356.0,375.0,458.0,4.0,416.0,318.356
318366.0,371.0,450.0,3.0,407.0,318.366
318376.0,373.0,443.0,4.0,400.0,318.376
318386.0,358.0,428.0,2.0,396.0,318.386
318396.0,365.0,441.0,5.0,419.0,318.396
318406.0,374.0,452.0,3.0,435.0,318.406
318416.0,370.0,449.0,3.0,430.0,318.416
318426.0,371.0,450.0,3.0,432.0,318.426
318436.0,361.0,442.0,5.0,425.0,318.436
318446.0,371.0,453.0,3.0,436.0,318.446
318456.0,378.0,452.0,4.0,442.0,318.456
318466.0,370.0,448.0,4.0,437.0,318.466
318476.0,365.0,448.0,4.0,426.0,318.476
318486.0,347.0,426.0,4.0,409.0,318.486
318496.0,359.0,446.0,4.0,427.0,318.496
318507.0,362.0,448.0,4.0,444.0,318.507
318517.0,348.0,432.0,3.0,427.0,318.517
318527.0,349.0,429.0,3.0,415.0,318.527
318537.0,342.0,435.0,3.0,415.0,318.537
318547.0,351.0,448.0,4.0,420.0,318.547
318557.0,362.0,456.0,4.0,425.0,318.557
318567.0,353.0,443.0,4.0,410.0,318.567
318577.0,350.0,439.0,3.0,406.0,318.577
318587.0,349.0,436.0,3.0,406.0,318.587
318597.0,356.0,445.0,3.0,416.0,318.597
318607.0,366.0,453.0,4.0,432.0,318.607
318617.0,351.0,438.0,3.0,413.0,318.617
318627.0,349.0,436.0,4.0,412.0,318.627
318637.0,344.0,434.0,4.0,407.0,318.637
318647.0,354.0,452.0,3.0,424.0,318.647
318657.0,366.0,455.0,3.0,431.0,318.657
318667.0,351.0,438.0,4.0,416.0,318.667
318678.0,352.0,440.0,3.0,418.0,318.678
318688.0,360.0,448.0,5.0,429.0,318.688
318698.0,358.0,453.0,4.0,429.0,318.698
318708.0,361.0,446.0,4.0,434.0,318.708
318718.0,343.0,429.0,3.0,416.0,318.718
318728.0,350.0,433.0,3.0,418.0,318.728
318738.0,347.0,437.0,4.0,422.0,318.738
318748.0,352.0,441.0,4.0,416.0,318.748
318758.0,357.0,439.0,4.0,406.0,318.758
318768.0,347.0,426.0,3.0,398.0,318.768
318778.0,350.0,431.0,4.0,410.0,318.778
318788.0,350.0,436.0,3.0,416.0,318.788
318798.0,350.0,433.0,4.0,408.0,318.798
318808.0,354.0,432.0,4.0,411.0,318.808
318818.0,341.0,418.0,4.0,398.0,318.818
318828.0,342.0,421.0,3.0,405.0,318.828
318838.0,352.0,431.0,3.0,416.0,318.838
318848.0,353.0,435.0,3.0,423.0,318.848
318858.0,356.0,434.0,4.0,422.0,318.858
318868.0,341.0,423.0,3.0,416.0,318.868
318878.0,350.0,431.0,4.0,423.0,318.878
318888.0,360.0,441.0,2.0,427.0,318.888
318898.0,357.0,435.0,4.0,416.0,318.898
318908.0,362.0,434.0,3.0,409.0,318.908
318918.0,349.0,419.0,3.0,386.0,318.918
318928.0,353.0,427.0,3.0,393.0,318.928
318938.0,359.0,429.0,4.0,397.0,318.938
318948.0,367.0,439.0,4.0,405.0,318.948
318958.0,368.0,432.0,3.0,406.0,318.958
318968.0,352.0,422.0,4.0,393.0,318.968
318978.0,351.0,425.0,3.0,400.0,318.978
318988.0,355.0,426.0,4.0,417.0,318.988
318998.0,354.0,430.0,3.0,417.0,318.998
319008.0,356.0,422.0,4.0,417.0,319.008
319019.0,342.0,409.0,4.0,403.0,319.019
319029.0,350.0,422.0,4.0,405.0,319.029
319039.0,361.0,432.0,3.0,411.0,319.039
319049.0,354.0,426.0,3.0,404.0,319.049
319059.0,349.0,422.0,4.0,400.0,319.059
319069.0,341.0,413.0,4.0,387.0,319.069
319079.0,346.0,428.0,2.0,398.0,319.079
319089.0,358.0,436.0,4.0,408.0,319.089
319099.0,353.0,430.0,3.0,404.0,319.099
319109.0,356.0,435.0,4.0,405.0,319.109
319119.0,339.0,422.0,3.0,393.0,319.119
319129.0,351.0,438.0,4.0,410.0,319.129
319139.0,358.0,445.0,2.0,414.0,319.139
319149.0,357.0,449.0,3.0,417.0,319.149
319159.0,355.0,445.0,4.0,420.0,319.159
319169.0,341.0,428.0,4.0,415.0,319.169
319179.0,346.0,440.0,3.0,423.0,319.179
319190.0,359.0,446.0,3.0,425.0,319.19
319200.0,349.0,438.0,4.0,414.0,319.2
319210.0,350.0,440.0,3.0,419.0,319.21
319220.0,350.0,445.0,3.0,423.0,319.22
319230.0,354.0,457.0,3.0,428.0,319.23
319240.0,364.0,460.0,4.0,430.0,319.24
319250.0,351.0,445.0,4.0,412.0,319.25
319260.0,349.0,441.0,3.0,407.0,319.26
319270.0,351.0,440.0,4.0,413.0,319.27
319280.0,353.0,446.0,4.0,418.0,319.28
319290.0,363.0,449.0,3.0,419.0,319.29
319300.0,349.0,440.0,3.0,410.0,319.3
319310.0,353.0,442.0,3.0,416.0,319.31
319320.0,347.0,435.0,4.0,409.0,319.32
319330.0,358.0,451.0,3.0,422.0,319.33
319340.0,365.0,455.0,4.0,425.0,319.34
319350.0,348.0,441.0,3.0,405.0,319.35
319360.0,351.0,439.0,3.0,410.0,319.36
319370.0,345.0,432.0,3.0,411.0,319.37
319380.0,351.0,448.0,5.0,422.0,319.38
319390.0,357.0,449.0,4.0,429.0,319.39
319400.0,343.0,433.0,3.0,411.0,319.4
319410.0,346.0,439.0,3.0,411.0,319.41
319420.0,339.0,434.0,3.0,404.0,319.42
319430.0,348.0,449.0,3.0,423.0,319.43
319440.0,358.0,449.0,3.0,428.0,319.44
319450.0,351.0,444.0,4.0,426.0,319.45
319460.0,350.0,442.0,4.0,426.0,319.46
319470.0,352.0,442.0,4.0,426.0,319.47
319480.0,354.0,456.0,3.0,434.0,319.48
319490.0,368.0,459.0,4.0,443.0,319.49
319500.0,358.0,442.0,3.0,422.0,319.5
319510.0,351.0,435.0,4.0,426.0,319.51
319520.0,350.0,441.0,4.0,431.0,319.52
319531.0,356.0,448.0,4.0,432.0,319.531
319541.0,357.0,438.0,3.0,432.0,319.541
319551.0,344.0,421.0,4.0,416.0,319.551
319561.0,345.0,424.0,4.0,415.0,319.561
319571.0,356.0,437.0,3.0,420.0,319.571
319581.0,354.0,439.0,3.0,416.0,319.581
319591.0,356.0,433.0,4.0,417.0,319.591
319601.0,340.0,419.0,3.0,407.0,319.601
319611.0,345.0,433.0,4.0,412.0,319.611
319621.0,360.0,442.0,3.0,432.0,319.621
319631.0,365.0,450.0,5.0,433.0,319.631
319641.0,362.0,447.0,3.0,441.0,319.641
319651.0,349.0,437.0,3.0,430.0,319.651
319661.0,356.0,447.0,3.0,431.0,319.661
319671.0,364.0,455.0,4.0,432.0,319.671
319681.0,363.0,454.0,3.0,423.0,319.681
319691.0,365.0,447.0,4.0,430.0,319.691
319702.0,351.0,430.0,3.0,408.0,319.702
319712.0,354.0,437.0,3.0,409.0,319.712
319722.0,362.0,442.0,3.0,422.0,319.722
319732.0,352.0,429.0,4.0,407.0,319.732
319742.0,352.0,429.0,3.0,418.0,319.742
319752.0,344.0,422.0,3.0,415.0,319.752
319762.0,353.0,437.0,4.0,425.0,319.762
319772.0,365.0,445.0,4.0,437.0,319.772
319782.0,360.0,441.0,4.0,420.0,319.782
319792.0,360.0,437.0,3.0,423.0,319.792
319802.0,348.0,428.0,4.0,413.0,319.802
319812.0,357.0,440.0,3.0,420.0,319.812
319822.0,362.0,440.0,4.0,425.0,319.822
319832.0,356.0,437.0,4.0,416.0,319.832
319842.0,358.0,433.0,3.0,411.0,319.842
319852.0,343.0,422.0,3.0,395.0,319.852
319862.0,349.0,432.0,4.0,396.0,319.862
319872.0,352.0,433.0,3.0,402.0,319.872
319882.0,345.0,427.0,3.0,398.0,319.882
319892.0,345.0,423.0,2.0,401.0,319.892
319902.0,339.0,414.0,4.0,393.0,319.902
319912.0,351.0,434.0,3.0,413.0,319.912
319922.0,358.0,434.0,3.0,421.0,319.922
319932.0,355.0,433.0,3.0,412.0,319.932
319942.0,356.0,430.0,4.0,410.0,319.942
319952.0,348.0,423.0,3.0,405.0,319.952
319962.0,357.0,436.0,4.0,414.0,319.962
319972.0,360.0,441.0,4.0,425.0,319.972
319982.0,353.0,435.0,4.0,417.0,319.982
319992.0,351.0,432.0,3.0,412.0,319.992
320002.0,339.0,420.0,4.0,402.0,320.002
320012.0,348.0,435.0,4.0,416.0,320.012
320022.0,357.0,441.0,3.0,425.0,320.022
320032.0,349.0,435.0,4.0,415.0,320.032
320043.0,348.0,431.0,3.0,411.0,320.043
320053.0,345.0,429.0,3.0,412.0,320.053
320063.0,355.0,443.0,4.0,418.0,320.063
320073.0,360.0,440.0,4.0,418.0,320.073
320083.0,345.0,431.0,2.0,410.0,320.083
320093.0,349.0,433.0,4.0,412.0,320.093
320103.0,346.0,434.0,3.0,415.0,320.103
320113.0,353.0,446.0,4.0,423.0,320.113
320123.0,358.0,440.0,4.0,421.0,320.123
320133.0,352.0,439.0,4.0,421.0,320.133
320143.0,352.0,436.0,2.0,417.0,320.143
320153.0,358.0,441.0,3.0,420.0,320.153
320163.0,362.0,450.0,3.0,428.0,320.163
320173.0,367.0,448.0,4.0,429.0,320.173
320183.0,353.0,441.0,3.0,421.0,320.183
320193.0,351.0,438.0,4.0,418.0,320.193
320203.0,351.0,441.0,3.0,428.0,320.203
320214.0,354.0,451.0,3.0,434.0,320.214
320224.0,362.0,446.0,3.0,431.0,320.224
320234.0,351.0,437.0,3.0,418.0,320.234
320244.0,351.0,440.0,4.0,419.0,320.244
320254.0,358.0,447.0,4.0,429.0,320.254
320264.0,356.0,450.0,4.0,428.0,320.264
320274.0,355.0,441.0,4.0,424.0,320.274
320284.0,342.0,431.0,4.0,414.0,320.284
320294.0,347.0,440.0,3.0,421.0,320.294
320304.0,354.0,445.0,3.0,429.0,320.304
320314.0,357.0,453.0,4.0,433.0,320.314
320324.0,359.0,445.0,4.0,429.0,320.324
320334.0,344.0,435.0,2.0,419.0,320.334
320344.0,348.0,437.0,5.0,420.0,320.344
320354.0,355.0,449.0,3.0,433.0,320.354
320364.0,356.0,451.0,4.0,430.0,320.364
320374.0,352.0,443.0,4.0,424.0,320.374
320384.0,346.0,439.0,4.0,419.0,320.384
320394.0,346.0,440.0,2.0,421.0,320.394
320404.0,356.0,450.0,4.0,433.0,320.404
320414.0,356.0,453.0,3.0,435.0,320.414
320424.0,354.0,444.0,3.0,427.0,320.424
320434.0,345.0,438.0,3.0,421.0,320.434
320444.0,348.0,443.0,4.0,424.0,320.444
320454.0,357.0,453.0,3.0,437.0,320.454
320464.0,354.0,454.0,3.0,434.0,320.464
320474.0,356.0,448.0,3.0,431.0,320.474
320484.0,345.0,439.0,3.0,421.0,320.484
320494.0,352.0,444.0,4.0,426.0,320.494
320504.0,360.0,452.0,4.0,437.0,320.504
320514.0,359.0,454.0,4.0,438.0,320.514
320524.0,357.0,448.0,3.0,433.0,320.524
320534.0,347.0,435.0,4.0,422.0,320.534
320544.0,352.0,445.0,3.0,429.0,320.544
320555.0,364.0,452.0,4.0,439.0,320.555
320565.0,360.0,450.0,4.0,433.0,320.565
320575.0,358.0,443.0,4.0,428.0,320.575
320585.0,350.0,436.0,2.0,423.0,320.585
320595.0,359.0,452.0,3.0,433.0,320.595
320605.0,365.0,453.0,3.0,437.0,320.605
320615.0,360.0,448.0,4.0,428.0,320.615
320625.0,356.0,443.0,4.0,425.0,320.625
320635.0,353.0,439.0,4.0,423.0,320.635
320645.0,362.0,452.0,4.0,432.0,320.645
320655.0,368.0,454.0,4.0,438.0,320.655
320665.0,362.0,450.0,3.0,428.0,320.665
320675.0,359.0,444.0,3.0,423.0,320.675
320685.0,350.0,434.0,4.0,415.0,320.685
320695.0,357.0,446.0,4.0,425.0,320.695
320705.0,366.0,451.0,3.0,430.0,320.705
320715.0,358.0,444.0,3.0,422.0,320.715
320726.0,355.0,441.0,3.0,418.0,320.726
320736.0,353.0,438.0,3.0,418.0,320.736
320746.0,357.0,449.0,3.0,427.0,320.746
320756.0,362.0,446.0,4.0,427.0,320.756
320766.0,352.0,437.0,4.0,415.0,320.766
320776.0,354.0,441.0,3.0,418.0,320.776
320786.0,354.0,441.0,3.0,421.0,320.786
320796.0,361.0,451.0,3.0,428.0,320.796
320806.0,362.0,446.0,4.0,426.0,320.806
320816.0,352.0,440.0,3.0,418.0,320.816
320826.0,352.0,438.0,4.0,417.0,320.826
320836.0,354.0,439.0,4.0,422.0,320.836
320846.0,357.0,447.0,3.0,427.0,320.846
320856.0,366.0,449.0,2.0,432.0,320.856
320866.0,356.0,436.0,4.0,419.0,320.866
320876.0,355.0,437.0,3.0,418.0,320.876
320886.0,358.0,441.0,4.0,424.0,320.886
320896.0,357.0,445.0,4.0,425.0,320.896
320906.0,365.0,446.0,4.0,426.0,320.906
320916.0,353.0,433.0,3.0,413.0,320.916
320926.0,353.0,435.0,3.0,412.0,320.926
320936.0,360.0,441.0,3.0,423.0,320.936
320946.0,362.0,446.0,4.0,426.0,320.946
320956.0,367.0,445.0,3.0,427.0,320.956
320966.0,357.0,432.0,3.0,414.0,320.966
320976.0,353.0,435.0,3.0,415.0,320.976
320986.0,353.0,434.0,4.0,416.0,320.986
320996.0,361.0,445.0,3.0,424.0,320.996
321006.0,365.0,443.0,4.0,424.0,321.006
321016.0,353.0,430.0,4.0,412.0,321.016
321026.0,355.0,436.0,3.0,415.0,321.026
321036.0,356.0,435.0,4.0,418.0,321.036
321046.0,363.0,446.0,3.0,425.0,321.046
321056.0,365.0,442.0,4.0,423.0,321.056
321067.0,356.0,428.0,4.0,411.0,321.067
321077.0,358.0,435.0,4.0,417.0,321.077
321087.0,366.0,445.0,4.0,427.0,321.087
321097.0,366.0,443.0,4.0,424.0,321.097
321107.0,363.0,439.0,3.0,418.0,321.107
321117.0,355.0,426.0,3.0,409.0,321.117
321127.0,357.0,435.0,4.0,416.0,321.127
321137.0,367.0,444.0,5.0,427.0,321.137
321147.0,360.0,439.0,2.0,422.0,321.147
321157.0,361.0,439.0,4.0,421.0,321.157
321167.0,351.0,424.0,3.0,408.0,321.167
321177.0,355.0,434.0,4.0,417.0,321.177
321187.0,365.0,444.0,4.0,428.0,321.187
321197.0,362.0,440.0,4.0,425.0,321.197
321207.0,361.0,437.0,4.0,421.0,321.207
321217.0,349.0,421.0,3.0,409.0,321.217
321227.0,357.0,434.0,4.0,420.0,321.227
321238.0,370.0,446.0,3.0,430.0,321.238
321248.0,364.0,435.0,3.0,420.0,321.248
321258.0,361.0,435.0,4.0,418.0,321.258
321268.0,353.0,426.0,4.0,412.0,321.268
321278.0,362.0,439.0,3.0,423.0,321.278
321288.0,367.0,445.0,4.0,428.0,321.288
321298.0,361.0,433.0,3.0,419.0,321.298
321308.0,358.0,433.0,4.0,415.0,321.308
321318.0,353.0,428.0,3.0,414.0,321.318
321328.0,356.0,435.0,4.0,420.0,321.328
321338.0,364.0,445.0,4.0,429.0,321.338
321348.0,356.0,431.0,3.0,417.0,321.348
321358.0,351.0,433.0,3.0,415.0,321.358
321368.0,344.0,421.0,4.0,407.0,321.368
321378.0,355.0,436.0,3.0,421.0,321.378
321388.0,365.0,446.0,4.0,429.0,321.388
321398.0,355.0,429.0,4.0,416.0,321.398
321408.0,355.0,434.0,3.0,416.0,321.408
321418.0,348.0,423.0,3.0,409.0,321.418
321428.0,357.0,436.0,3.0,420.0,321.428
321438.0,365.0,445.0,3.0,427.0,321.438
321448.0,355.0,427.0,4.0,417.0,321.448
321458.0,355.0,432.0,3.0,418.0,321.458
321468.0,347.0,424.0,4.0,412.0,321.468
321478.0,359.0,438.0,3.0,423.0,321.478
321488.0,366.0,445.0,3.0,426.0,321.488
321498.0,358.0,431.0,4.0,420.0,321.498
321508.0,355.0,432.0,4.0,416.0,321.508
321518.0,350.0,425.0,4.0,413.0,321.518
321528.0,359.0,438.0,3.0,424.0,321.528
321538.0,364.0,445.0,4.0,429.0,321.538
321548.0,357.0,431.0,3.0,420.0,321.548
321558.0,355.0,433.0,3.0,416.0,321.558
321568.0,350.0,427.0,3.0,415.0,321.568
321579.0,361.0,439.0,5.0,425.0,321.579
321589.0,362.0,443.0,3.0,425.0,321.589
321599.0,347.0,423.0,4.0,411.0,321.599
321609.0,347.0,430.0,4.0,411.0,321.609
321619.0,355.0,438.0,4.0,421.0,321.619
321629.0,356.0,436.0,3.0,422.0,321.629
321639.0,361.0,440.0,5.0,421.0,321.639
321649.0,349.0,423.0,4.0,411.0,321.649
321659.0,350.0,430.0,4.0,413.0,321.659
321669.0,352.0,432.0,3.0,417.0,321.669
321679.0,359.0,438.0,3.0,422.0,321.679
321689.0,364.0,439.0,3.0,421.0,321.689
321699.0,350.0,420.0,5.0,409.0,321.699
321709.0,352.0,429.0,4.0,412.0,321.709
321719.0,354.0,430.0,4.0,416.0,321.719
321729.0,360.0,436.0,3.0,422.0,321.729
321739.0,361.0,438.0,3.0,419.0,321.739
321750.0,349.0,420.0,3.0,407.0,321.75
321760.0,354.0,430.0,4.0,414.0,321.76
321770.0,364.0,443.0,3.0,426.0,321.77
321780.0,361.0,433.0,4.0,421.0,321.78
321790.0,358.0,436.0,3.0,417.0,321.79
321800.0,350.0,421.0,3.0,407.0,321.8
321810.0,355.0,432.0,4.0,416.0,321.81
321820.0,364.0,444.0,4.0,427.0,321.82
321830.0,359.0,433.0,4.0,420.0,321.83
321840.0,360.0,437.0,2.0,421.0,321.84
321850.0,351.0,419.0,4.0,407.0,321.85
321860.0,358.0,433.0,4.0,419.0,321.86
321870.0,367.0,443.0,4.0,428.0,321.87
321880.0,362.0,435.0,3.0,424.0,321.88
321890.0,362.0,436.0,4.0,419.0,321.89
321900.0,348.0,418.0,3.0,407.0,321.9
321910.0,356.0,432.0,3.0,418.0,321.91
321920.0,361.0,440.0,3.0,423.0,321.92
321930.0,363.0,436.0,4.0,421.0,321.93
321940.0,363.0,436.0,3.0,419.0,321.94
321950.0,350.0,419.0,4.0,407.0,321.95
321960.0,358.0,435.0,3.0,421.0,321.96
321970.0,363.0,441.0,3.0,427.0,321.97
321980.0,362.0,435.0,3.0,424.0,321.98
321990.0,358.0,435.0,3.0,418.0,321.99
322000.0,347.0,420.0,4.0,407.0,322.0
322010.0,353.0,431.0,3.0,414.0,322.01
322020.0,363.0,442.0,4.0,426.0,322.02
322030.0,355.0,433.0,3.0,421.0,322.03
322040.0,353.0,434.0,4.0,418.0,322.04
322050.0,345.0,420.0,3.0,408.0,322.05
322060.0,350.0,431.0,3.0,417.0,322.06
322070.0,361.0,443.0,4.0,428.0,322.07
322080.0,357.0,432.0,4.0,421.0,322.08
322091.0,355.0,434.0,3.0,418.0,322.091
322101.0,348.0,422.0,4.0,412.0,322.101
322111.0,359.0,438.0,3.0,425.0,322.111
322121.0,370.0,444.0,4.0,430.0,322.121
322131.0,356.0,425.0,4.0,417.0,322.131
322141.0,358.0,432.0,5.0,418.0,322.141
322151.0,350.0,424.0,3.0,416.0,322.151
322161.0,361.0,437.0,3.0,426.0,322.161
322171.0,366.0,445.0,3.0,430.0,322.171
322181.0,358.0,429.0,3.0,420.0,322.181
322191.0,356.0,431.0,3.0,417.0,322.191
322201.0,352.0,426.0,5.0,415.0,322.201
322211.0,362.0,438.0,4.0,424.0,322.211
322221.0,369.0,445.0,3.0,429.0,322.221
322231.0,360.0,430.0,4.0,419.0,322.231
322241.0,359.0,432.0,3.0,416.0,322.241
322251.0,353.0,429.0,4.0,417.0,322.251
322262.0,361.0,439.0,4.0,425.0,322.262
322272.0,365.0,442.0,4.0,424.0,322.272
322282.0,351.0,423.0,3.0,412.0,322.282
322292.0,352.0,429.0,3.0,414.0,322.292
322302.0,361.0,440.0,3.0,425.0,322.302
322312.0,362.0,439.0,4.0,425.0,322.312
322322.0,362.0,441.0,4.0,424.0,322.322
322332.0,349.0,424.0,4.0,411.0,322.332
322342.0,350.0,429.0,4.0,415.0,322.342
322352.0,356.0,433.0,4.0,420.0,322.352
322362.0,361.0,440.0,3.0,427.0,322.362
322372.0,363.0,439.0,4.0,422.0,322.372
322382.0,351.0,422.0,3.0,410.0,322.382
322392.0,355.0,430.0,4.0,414.0,322.392
322402.0,357.0,434.0,4.0,421.0,322.402
322412.0,365.0,439.0,4.0,426.0,322.412
322422.0,364.0,440.0,3.0,424.0,322.422
322432.0,356.0,427.0,3.0,417.0,322.432
322442.0,355.0,431.0,3.0,417.0,322.442
322452.0,361.0,438.0,5.0,426.0,322.452
322462.0,363.0,440.0,2.0,429.0,322.462
322472.0,362.0,439.0,4.0,423.0,322.472
322482.0,355.0,426.0,3.0,416.0,322.482
322492.0,355.0,431.0,3.0,418.0,322.492
322502.0,362.0,439.0,3.0,427.0,322.502
322512.0,364.0,439.0,4.0,428.0,322.512
322522.0,367.0,442.0,4.0,427.0,322.522
322532.0,356.0,425.0,3.0,414.0,322.532
322542.0,357.0,431.0,4.0,418.0,322.542
322552.0,364.0,442.0,3.0,428.0,322.552
322562.0,364.0,442.0,4.0,427.0,322.562
322572.0,365.0,442.0,3.0,425.0,322.572
322582.0,355.0,426.0,5.0,413.0,322.582
322592.0,355.0,433.0,4.0,418.0,322.592
322603.0,363.0,444.0,3.0,430.0,322.603
322613.0,363.0,440.0,3.0,427.0,322.613
322623.0,360.0,437.0,4.0,421.0,322.623
322633.0,349.0,422.0,3.0,411.0,322.633
322643.0,360.0,438.0,5.0,425.0,322.643
322653.0,363.0,444.0,4.0,430.0,322.653
322663.0,361.0,438.0,3.0,425.0,322.663
322673.0,359.0,439.0,3.0,422.0,322.673
322683.0,350.0,425.0,4.0,412.0,322.683
322693.0,356.0,436.0,4.0,420.0,322.693
322703.0,366.0,447.0,5.0,429.0,322.703
322713.0,362.0,438.0,4.0,423.0,322.713
322723.0,360.0,437.0,4.0,418.0,322.723
322733.0,351.0,422.0,3.0,408.0,322.733
322743.0,356.0,435.0,3.0,420.0,322.743
322753.0,366.0,447.0,3.0,429.0,322.753
322763.0,361.0,435.0,4.0,420.0,322.763
322774.0,359.0,436.0,4.0,417.0,322.774
322784.0,352.0,428.0,3.0,413.0,322.784
322794.0,362.0,442.0,4.0,423.0,322.794
322804.0,369.0,447.0,3.0,428.0,322.804
322814.0,359.0,430.0,3.0,414.0,322.814
322824.0,360.0,436.0,3.0,416.0,322.824
322834.0,355.0,430.0,5.0,413.0,322.834
322844.0,364.0,441.0,3.0,424.0,322.844
322854.0,368.0,445.0,4.0,426.0,322.854
322864.0,360.0,432.0,3.0,418.0,322.864
322874.0,358.0,433.0,3.0,416.0,322.874
322884.0,355.0,430.0,4.0,416.0,322.884
322894.0,365.0,440.0,5.0,424.0,322.894
322904.0,370.0,447.0,4.0,430.0,322.904
322914.0,362.0,431.0,4.0,417.0,322.914
322924.0,359.0,435.0,3.0,417.0,322.924
322934.0,358.0,432.0,3.0,418.0,322.934
322944.0,362.0,439.0,3.0,423.0,322.944
322954.0,371.0,447.0,3.0,428.0,322.954
322964.0,360.0,430.0,3.0,416.0,322.964
322974.0,358.0,432.0,3.0,414.0,322.974
322984.0,360.0,436.0,4.0,420.0,322.984
322994.0,364.0,441.0,3.0,423.0,322.994
323004.0,370.0,447.0,4.0,428.0,323.004
323014.0,359.0,429.0,4.0,415.0,323.014
323024.0,358.0,433.0,4.0,414.0,323.024
323034.0,354.0,428.0,3.0,414.0,323.034
323044.0,363.0,441.0,4.0,425.0,323.044
323054.0,369.0,447.0,3.0,430.0,323.054
323064.0,358.0,428.0,3.0,414.0,323.064
323074.0,359.0,435.0,3.0,417.0,323.074
323084.0,357.0,429.0,4.0,415.0,323.084
323094.0,364.0,442.0,2.0,425.0,323.094
323104.0,368.0,445.0,4.0,426.0,323.104
323115.0,357.0,427.0,4.0,413.0,323.115
323125.0,352.0,431.0,3.0,413.0,323.125
323135.0,360.0,439.0,3.0,423.0,323.135
323145.0,363.0,440.0,5.0,424.0,323.145
323155.0,360.0,437.0,3.0,420.0,323.155
323165.0,354.0,425.0,4.0,412.0,323.165
323175.0,353.0,432.0,3.0,416.0,323.175
323185.0,362.0,440.0,3.0,427.0,323.185
323195.0,363.0,438.0,4.0,426.0,323.195
323205.0,365.0,440.0,4.0,425.0,323.205
323215.0,354.0,424.0,3.0,413.0,323.215
323225.0,351.0,430.0,4.0,417.0,323.225
323235.0,362.0,441.0,4.0,428.0,323.235
323245.0,361.0,439.0,3.0,426.0,323.245
323255.0,362.0,438.0,4.0,423.0,323.255
323265.0,352.0,423.0,4.0,411.0,323.265
323275.0,355.0,432.0,4.0,418.0,323.275
323286.0,365.0,443.0,3.0,431.0,323.286
323296.0,363.0,437.0,4.0,426.0,323.296
323306.0,360.0,436.0,3.0,421.0,323.306
323316.0,352.0,423.0,4.0,412.0,323.316
323326.0,362.0,439.0,4.0,424.0,323.326
323336.0,368.0,444.0,4.0,428.0,323.336
323346.0,364.0,436.0,2.0,423.0,323.346
323356.0,361.0,435.0,4.0,418.0,323.356
323366.0,354.0,425.0,3.0,412.0,323.366
323376.0,359.0,435.0,3.0,420.0,323.376
323386.0,369.0,446.0,4.0,429.0,323.386
323396.0,365.0,436.0,5.0,422.0,323.396
323406.0,361.0,437.0,3.0,417.0,323.406
323416.0,353.0,423.0,3.0,408.0,323.416
323426.0,362.0,440.0,3.0,423.0,323.426
323436.0,371.0,446.0,4.0,429.0,323.436
323446.0,364.0,435.0,3.0,421.0,323.446
323456.0,365.0,438.0,4.0,420.0,323.456
323466.0,354.0,424.0,4.0,409.0,323.466
323476.0,364.0,443.0,3.0,424.0,323.476
323486.0,371.0,450.0,3.0,433.0,323.486
323496.0,365.0,436.0,4.0,422.0,323.496
323506.0,365.0,440.0,3.0,422.0,323.506
323516.0,356.0,426.0,4.0,412.0,323.516
323526.0,368.0,444.0,4.0,428.0,323.526
323536.0,372.0,450.0,3.0,433.0,323.536
323546.0,364.0,440.0,4.0,425.0,323.546
323556.0,361.0,439.0,3.0,421.0,323.556
323566.0,354.0,428.0,4.0,414.0,323.566
323576.0,365.0,445.0,3.0,427.0,323.576
323586.0,370.0,449.0,5.0,430.0,323.586
323596.0,366.0,442.0,2.0,423.0,323.596
323606.0,363.0,439.0,4.0,420.0,323.606
323616.0,357.0,431.0,3.0,415.0,323.616
323627.0,366.0,446.0,4.0,426.0,323.627
323637.0,369.0,449.0,3.0,430.0,323.637
323647.0,357.0,432.0,5.0,413.0,323.647
323657.0,354.0,435.0,3.0,412.0,323.657
323667.0,358.0,438.0,4.0,420.0,323.667
323677.0,362.0,446.0,3.0,426.0,323.677
323687.0,368.0,447.0,4.0,428.0,323.687
323697.0,357.0,430.0,3.0,414.0,323.697
323707.0,356.0,434.0,4.0,414.0,323.707
323717.0,355.0,431.0,4.0,414.0,323.717
323727.0,364.0,444.0,4.0,424.0,323.727
323737.0,373.0,447.0,4.0,428.0,323.737
323747.0,360.0,431.0,3.0,413.0,323.747
323757.0,361.0,436.0,4.0,417.0,323.757
323767.0,360.0,434.0,4.0,417.0,323.767
323777.0,368.0,445.0,4.0,424.0,323.777
323787.0,370.0,445.0,4.0,425.0,323.787
323798.0,359.0,429.0,4.0,412.0,323.798
323808.0,359.0,434.0,3.0,414.0,323.808
323818.0,367.0,442.0,4.0,424.0,323.818
323828.0,367.0,442.0,3.0,423.0,323.828
323838.0,368.0,438.0,4.0,418.0,323.838
323848.0,359.0,426.0,3.0,409.0,323.848
323858.0,359.0,433.0,3.0,414.0,323.858
323868.0,368.0,444.0,3.0,425.0,323.868
323878.0,366.0,440.0,4.0,422.0,323.878
323888.0,366.0,440.0,3.0,422.0,323.888
323898.0,355.0,425.0,5.0,410.0,323.898
323908.0,357.0,433.0,4.0,417.0,323.908
323918.0,367.0,443.0,4.0,429.0,323.918
323928.0,363.0,443.0,3.0,426.0,323.928
323938.0,362.0,439.0,3.0,421.0,323.938
323948.0,351.0,424.0,3.0,406.0,323.948
323958.0,355.0,434.0,4.0,416.0,323.958
323968.0,362.0,440.0,4.0,421.0,323.968
323978.0,364.0,443.0,3.0,424.0,323.978
323988.0,362.0,438.0,3.0,419.0,323.988
323998.0,350.0,423.0,3.0,404.0,323.998
324008.0,357.0,435.0,4.0,416.0,324.008
324018.0,363.0,441.0,4.0,424.0,324.018
324028.0,364.0,442.0,3.0,424.0,324.028
324038.0,361.0,438.0,3.0,420.0,324.038
324048.0,350.0,423.0,4.0,407.0,324.048
324058.0,354.0,434.0,3.0,415.0,324.058
324068.0,364.0,443.0,4.0,425.0,324.068
324078.0,364.0,442.0,3.0,424.0,324.078
324088.0,362.0,438.0,5.0,419.0,324.088
324098.0,355.0,428.0,4.0,410.0,324.098
324108.0,356.0,434.0,4.0,415.0,324.108
324118.0,367.0,445.0,3.0,430.0,324.118
324128.0,365.0,441.0,4.0,423.0,324.128
324139.0,361.0,437.0,4.0,420.0,324.139
324149.0,353.0,424.0,5.0,409.0,324.149
324159.0,361.0,441.0,4.0,422.0,324.159
324169.0,370.0,449.0,3.0,431.0,324.169
324179.0,361.0,434.0,3.0,417.0,324.179
324189.0,361.0,437.0,3.0,417.0,324.189
324199.0,353.0,426.0,3.0,409.0,324.199
324209.0,363.0,444.0,5.0,423.0,324.209
324219.0,369.0,448.0,4.0,429.0,324.219
324229.0,362.0,440.0,4.0,421.0,324.229
324239.0,360.0,438.0,3.0,418.0,324.239
324249.0,354.0,430.0,3.0,412.0,324.249
324259.0,365.0,445.0,3.0,425.0,324.259
324269.0,369.0,449.0,4.0,429.0,324.269
324279.0,365.0,440.0,4.0,420.0,324.279
324289.0,362.0,438.0,3.0,417.0,324.289
324299.0,356.0,432.0,3.0,413.0,324.299
324310.0,366.0,446.0,3.0,425.0,324.31
324320.0,371.0,449.0,3.0,428.0,324.32
324330.0,359.0,434.0,4.0,413.0,324.33
324340.0,359.0,436.0,5.0,413.0,324.34
324350.0,362.0,443.0,3.0,422.0,324.35
324360.0,365.0,448.0,4.0,424.0,324.36
324370.0,369.0,450.0,3.0,427.0,324.37
324380.0,358.0,433.0,4.0,412.0,324.38
324390.0,357.0,436.0,4.0,415.0,324.39
324400.0,362.0,437.0,5.0,418.0,324.4
324410.0,368.0,448.0,3.0,428.0,324.41
324420.0,372.0,448.0,4.0,427.0,324.42
324430.0,359.0,433.0,3.0,414.0,324.43
324440.0,361.0,437.0,4.0,416.0,324.44
324450.0,360.0,437.0,4.0,419.0,324.45
324460.0,366.0,445.0,4.0,426.0,324.46
324470.0,368.0,443.0,3.0,423.0,324.47
324480.0,363.0,434.0,5.0,414.0,324.48
324490.0,362.0,436.0,4.0,414.0,324.49
324500.0,362.0,438.0,3.0,418.0,324.5
324510.0,367.0,446.0,3.0,423.0,324.51
324520.0,367.0,443.0,4.0,422.0,324.52
324530.0,360.0,433.0,4.0,413.0,324.53
324540.0,358.0,435.0,4.0,413.0,324.54
324550.0,360.0,439.0,3.0,420.0,324.55
324560.0,365.0,444.0,3.0,423.0,324.56
324570.0,373.0,445.0,4.0,425.0,324.57
324580.0,359.0,430.0,4.0,410.0,324.58
324590.0,358.0,433.0,4.0,410.0,324.59
324600.0,362.0,439.0,4.0,420.0,324.6
324610.0,364.0,443.0,3.0,421.0,324.61
324620.0,368.0,445.0,3.0,423.0,324.62
324630.0,356.0,429.0,3.0,407.0,324.63
324640.0,356.0,432.0,4.0,408.0,324.64
324651.0,363.0,442.0,5.0,420.0,324.651
324661.0,364.0,443.0,3.0,420.0,324.661
324671.0,359.0,438.0,3.0,416.0,324.671
324681.0,345.0,422.0,4.0,402.0,324.681
324691.0,356.0,439.0,3.0,417.0,324.691
324701.0,361.0,442.0,3.0,422.0,324.701
324711.0,361.0,442.0,5.0,420.0,324.711
324721.0,359.0,438.0,4.0,416.0,324.721
324731.0,347.0,423.0,3.0,405.0,324.731
324741.0,353.0,435.0,3.0,414.0,324.741
324751.0,363.0,444.0,3.0,424.0,324.751
324761.0,362.0,440.0,3.0,422.0,324.761
324771.0,359.0,438.0,4.0,418.0,324.771
324781.0,352.0,426.0,4.0,409.0,324.781
324791.0,354.0,435.0,4.0,416.0,324.791
324801.0,365.0,445.0,4.0,427.0,324.801
324811.0,361.0,441.0,3.0,421.0,324.811
324822.0,358.0,438.0,4.0,416.0,324.822
324832.0,348.0,426.0,3.0,409.0,324.832
324842.0,359.0,441.0,4.0,422.0,324.842
324852.0,366.0,448.0,3.0,429.0,324.852
324862.0,357.0,433.0,4.0,416.0,324.862
324872.0,359.0,438.0,3.0,417.0,324.872
324882.0,350.0,428.0,3.0,410.0,324.882
324892.0,360.0,443.0,3.0,421.0,324.892
324902.0,368.0,448.0,4.0,427.0,324.902
324912.0,359.0,438.0,2.0,417.0,324.912
324922.0,357.0,437.0,3.0,414.0,324.922
324932.0,351.0,431.0,3.0,410.0,324.932
324942.0,361.0,444.0,3.0,419.0,324.942
324952.0,366.0,448.0,3.0,426.0,324.952
324962.0,358.0,438.0,4.0,416.0,324.962
324972.0,356.0,437.0,3.0,413.0,324.972
324982.0,351.0,432.0,4.0,412.0,324.982
324992.0,357.0,442.0,4.0,419.0,324.992
325002.0,366.0,448.0,3.0,427.0,325.002
325012.0,357.0,436.0,3.0,416.0,325.012
325022.0,355.0,435.0,4.0,414.0,325.022
325032.0,353.0,433.0,4.0,416.0,325.032
325042.0,358.0,441.0,3.0,422.0,325.042
325052.0,371.0,449.0,4.0,429.0,325.052
325062.0,359.0,436.0,3.0,416.0,325.062
325072.0,358.0,435.0,3.0,415.0,325.072
325082.0,350.0,427.0,3.0,410.0,325.082
325092.0,361.0,442.0,5.0,422.0,325.092
325102.0,367.0,448.0,2.0,429.0,325.102
325112.0,356.0,434.0,3.0,414.0,325.112
325122.0,357.0,437.0,3.0,416.0,325.122
325132.0,349.0,428.0,3.0,409.0,325.132
325142.0,357.0,444.0,3.0,421.0,325.142
325152.0,366.0,448.0,4.0,425.0,325.152
325163.0,353.0,433.0,4.0,411.0,325.163
325173.0,352.0,435.0,3.0,411.0,325.173
325183.0,357.0,441.0,3.0,420.0,325.183
325193.0,360.0,446.0,4.0,422.0,325.193
325203.0,361.0,441.0,4.0,420.0,325.203
325213.0,354.0,433.0,4.0,410.0,325.213
325223.0,353.0,434.0,4.0,412.0,325.223
325233.0,362.0,443.0,3.0,422.0,325.233
325243.0,364.0,447.0,4.0,424.0,325.243
325253.0,369.0,447.0,3.0,423.0,325.253
325263.0,355.0,433.0,3.0,409.0,325.263
325273.0,355.0,436.0,4.0,411.0,325.273
325283.0,363.0,444.0,4.0,421.0,325.283
325293.0,363.0,447.0,4.0,421.0,325.293
325303.0,367.0,445.0,4.0,422.0,325.303
325313.0,353.0,432.0,3.0,408.0,325.313
325323.0,355.0,436.0,4.0,411.0,325.323
325334.0,363.0,446.0,3.0,423.0,325.334
325344.0,364.0,446.0,5.0,420.0,325.344
325354.0,362.0,440.0,3.0,417.0,325.354
325364.0,349.0,426.0,4.0,405.0,325.364
325374.0,359.0,443.0,3.0,419.0,325.374
325384.0,364.0,446.0,4.0,425.0,325.384
325394.0,361.0,445.0,3.0,422.0,325.394
325404.0,360.0,440.0,4.0,418.0,325.404
325414.0,348.0,428.0,4.0,408.0,325.414
325424.0,350.0,438.0,4.0,415.0,325.424
325434.0,360.0,448.0,3.0,426.0,325.434
325444.0,357.0,444.0,4.0,420.0,325.444
325454.0,355.0,438.0,3.0,417.0,325.454
325464.0,347.0,428.0,5.0,407.0,325.464
325474.0,352.0,440.0,4.0,418.0,325.474
325484.0,362.0,449.0,3.0,428.0,325.484
325494.0,357.0,444.0,3.0,421.0,325.494
325504.0,359.0,442.0,3.0,420.0,325.504
325514.0,347.0,429.0,3.0,407.0,325.514
325524.0,355.0,443.0,4.0,418.0,325.524
325534.0,365.0,449.0,4.0,427.0,325.534
325544.0,357.0,443.0,3.0,420.0,325.544
325554.0,358.0,440.0,4.0,419.0,325.554
325564.0,345.0,428.0,3.0,406.0,325.564
325574.0,354.0,442.0,4.0,418.0,325.574
325584.0,364.0,449.0,3.0,428.0,325.584
325594.0,360.0,447.0,5.0,421.0,325.594
325604.0,356.0,440.0,2.0,417.0,325.604
325614.0,345.0,427.0,3.0,405.0,325.614
325624.0,356.0,444.0,3.0,419.0,325.624
325634.0,363.0,447.0,3.0,426.0,325.634
325644.0,359.0,445.0,3.0,421.0,325.644
325654.0,358.0,440.0,4.0,417.0,325.654
325664.0,347.0,429.0,4.0,408.0,325.664
325675.0,358.0,445.0,4.0,420.0,325.675
325685.0,366.0,451.0,4.0,429.0,325.685
325695.0,357.0,440.0,4.0,416.0,325.695
325705.0,356.0,439.0,4.0,413.0,325.705
325715.0,356.0,440.0,5.0,417.0,325.715
325725.0,358.0,448.0,4.0,422.0,325.725
325735.0,365.0,451.0,3.0,428.0,325.735
325745.0,354.0,439.0,3.0,414.0,325.745
325755.0,353.0,439.0,3.0,412.0,325.755
325765.0,349.0,432.0,4.0,410.0,325.765
325775.0,360.0,448.0,4.0,421.0,325.775
325785.0,367.0,451.0,4.0,427.0,325.785
325795.0,355.0,439.0,3.0,413.0,325.795
325805.0,354.0,440.0,4.0,416.0,325.805
325815.0,347.0,435.0,4.0,413.0,325.815
325825.0,357.0,448.0,4.0,422.0,325.825
325835.0,364.0,448.0,4.0,425.0,325.835
325846.0,352.0,436.0,4.0,412.0,325.846
325856.0,352.0,437.0,3.0,412.0,325.856
325866.0,358.0,444.0,3.0,421.0,325.866
325876.0,361.0,450.0,3.0,424.0,325.876
325886.0,360.0,443.0,4.0,418.0,325.886
325896.0,354.0,436.0,3.0,411.0,325.896
325906.0,357.0,438.0,4.0,413.0,325.906
325916.0,363.0,446.0,3.0,424.0,325.916
325926.0,364.0,449.0,4.0,423.0,325.926
325936.0,367.0,446.0,3.0,424.0,325.936
325946.0,354.0,435.0,3.0,411.0,325.946
325956.0,355.0,438.0,3.0,415.0,325.956
325966.0,364.0,448.0,4.0,426.0,325.966
325976.0,363.0,451.0,3.0,425.0,325.976
325986.0,370.0,446.0,3.0,423.0,325.986
325996.0,357.0,435.0,3.0,411.0,325.996
326006.0,359.0,440.0,3.0,416.0,326.006
326016.0,362.0,442.0,4.0,420.0,326.016
326026.0,367.0,451.0,3.0,423.0,326.026
326036.0,367.0,444.0,4.0,421.0,326.036
326046.0,354.0,433.0,3.0,407.0,326.046
326056.0,357.0,441.0,3.0,416.0,326.056
326066.0,362.0,445.0,4.0,422.0,326.066
326076.0,365.0,452.0,4.0,423.0,326.076
326086.0,368.0,444.0,3.0,419.0,326.086
326096.0,356.0,432.0,4.0,406.0,326.096
326106.0,359.0,440.0,4.0,411.0,326.106
326116.0,364.0,447.0,4.0,422.0,326.116
326126.0,366.0,454.0,3.0,425.0,326.126
326136.0,364.0,445.0,4.0,421.0,326.136
326146.0,357.0,438.0,4.0,413.0,326.146
326156.0,357.0,441.0,4.0,413.0,326.156
326166.0,365.0,449.0,4.0,424.0,326.166
326176.0,366.0,452.0,4.0,423.0,326.176
326187.0,363.0,444.0,3.0,420.0,326.187
326197.0,351.0,431.0,4.0,406.0,326.197
326207.0,359.0,446.0,3.0,421.0,326.207
326217.0,368.0,452.0,4.0,430.0,326.217
326227.0,360.0,445.0,3.0,419.0,326.227
326237.0,361.0,443.0,4.0,419.0,326.237
326247.0,350.0,431.0,4.0,409.0,326.247
326257.0,355.0,445.0,3.0,420.0,326.257
326267.0,364.0,450.0,4.0,429.0,326.267
326277.0,359.0,447.0,3.0,422.0,326.277
326287.0,358.0,441.0,4.0,418.0,326.287
326297.0,348.0,431.0,4.0,410.0,326.297
326307.0,359.0,448.0,4.0,424.0,326.307
326317.0,364.0,451.0,3.0,428.0,326.317
326327.0,363.0,448.0,4.0,421.0,326.327
326337.0,360.0,442.0,3.0,418.0,326.337
326347.0,352.0,433.0,4.0,411.0,326.347
326358.0,361.0,450.0,4.0,422.0,326.358
326368.0,370.0,452.0,4.0,429.0,326.368
326378.0,359.0,442.0,3.0,416.0,326.378
326388.0,357.0,440.0,3.0,414.0,326.388
326398.0,360.0,442.0,3.0,420.0,326.398
326408.0,366.0,450.0,2.0,424.0,326.408
326418.0,372.0,451.0,2.0,430.0,326.418
326428.0,363.0,441.0,3.0,417.0,326.428
326438.0,362.0,441.0,3.0,417.0,326.438
326448.0,358.0,436.0,4.0,417.0,326.448
326458.0,368.0,450.0,4.0,427.0,326.458
326468.0,373.0,450.0,5.0,430.0,326.468
326478.0,361.0,439.0,4.0,417.0,326.478
326488.0,362.0,441.0,3.0,420.0,326.488
326498.0,359.0,437.0,3.0,420.0,326.498
326508.0,367.0,450.0,3.0,430.0,326.508
326518.0,368.0,448.0,4.0,430.0,326.518
326528.0,357.0,443.0,3.0,421.0,326.528
326538.0,357.0,440.0,4.0,418.0,326.538
326548.0,355.0,439.0,4.0,419.0,326.548
326558.0,363.0,450.0,4.0,427.0,326.558
326568.0,366.0,447.0,3.0,426.0,326.568
326578.0,360.0,443.0,4.0,419.0,326.578
326588.0,358.0,441.0,3.0,417.0,326.588
326598.0,359.0,443.0,4.0,421.0,326.598
326608.0,364.0,453.0,2.0,428.0,326.608
326618.0,369.0,452.0,4.0,431.0,326.618
326628.0,357.0,442.0,3.0,419.0,326.628
326638.0,354.0,440.0,3.0,418.0,326.638
326648.0,357.0,443.0,3.0,425.0,326.648
326658.0,363.0,450.0,4.0,428.0,326.658
326668.0,369.0,450.0,4.0,431.0,326.668
326678.0,358.0,439.0,3.0,419.0,326.678
326688.0,356.0,440.0,3.0,418.0,326.688
326699.0,362.0,445.0,3.0,426.0,326.699
326709.0,367.0,453.0,3.0,431.0,326.709
326719.0,364.0,445.0,4.0,426.0,326.719
326729.0,351.0,433.0,4.0,413.0,326.729
326739.0,356.0,443.0,3.0,421.0,326.739
326749.0,361.0,447.0,4.0,428.0,326.749
326759.0,364.0,452.0,3.0,429.0,326.759
326769.0,363.0,444.0,4.0,424.0,326.769
326779.0,351.0,432.0,3.0,413.0,326.779
326789.0,356.0,441.0,4.0,418.0,326.789
326799.0,363.0,449.0,3.0,428.0,326.799
326809.0,364.0,453.0,4.0,428.0,326.809
326819.0,362.0,445.0,3.0,424.0,326.819
326829.0,355.0,437.0,4.0,415.0,326.829
326839.0,355.0,441.0,3.0,418.0,326.839
326849.0,366.0,450.0,5.0,429.0,326.849
326859.0,364.0,453.0,4.0,427.0,326.859
326870.0,363.0,445.0,4.0,422.0,326.87
326880.0,352.0,435.0,3.0,412.0,326.88
326890.0,361.0,450.0,3.0,424.0,326.89
326900.0,368.0,454.0,4.0,432.0,326.9
326910.0,360.0,447.0,4.0,421.0,326.91
326920.0,362.0,444.0,4.0,421.0,326.92
326930.0,351.0,434.0,4.0,413.0,326.93
326940.0,362.0,451.0,3.0,427.0,326.94
326950.0,370.0,454.0,4.0,433.0,326.95
326960.0,363.0,450.0,4.0,426.0,326.96
326970.0,361.0,445.0,4.0,422.0,326.97
326980.0,352.0,436.0,4.0,415.0,326.98
326990.0,357.0,451.0,4.0,428.0,326.99
327000.0,364.0,452.0,4.0,433.0,327.0
327010.0,358.0,449.0,3.0,425.0,327.01
327020.0,356.0,442.0,4.0,420.0,327.02
327030.0,350.0,435.0,4.0,416.0,327.03
327040.0,357.0,447.0,4.0,424.0,327.04
