time (ms),signal 0,signal 1,signal 2,signal 3,time (sec)
331353.0,358.0,444.0,3.0,419.0,331.353
331363.0,367.0,449.0,4.0,427.0,331.363
331373.0,360.0,443.0,3.0,418.0,331.373
331383.0,357.0,439.0,3.0,414.0,331.383
331393.0,348.0,429.0,3.0,407.0,331.393
331403.0,357.0,443.0,4.0,419.0,331.403
331413.0,366.0,449.0,4.0,428.0,331.413
331423.0,357.0,442.0,4.0,417.0,331.423
331433.0,354.0,438.0,4.0,413.0,331.433
331443.0,350.0,429.0,4.0,407.0,331.443
331453.0,360.0,446.0,3.0,420.0,331.453
331463.0,368.0,451.0,4.0,428.0,331.463
331473.0,359.0,442.0,4.0,416.0,331.473
331483.0,360.0,440.0,4.0,416.0,331.483
331493.0,350.0,432.0,3.0,409.0,331.493
331503.0,359.0,448.0,4.0,421.0,331.503
331513.0,368.0,451.0,3.0,430.0,331.513
331523.0,362.0,448.0,4.0,422.0,331.523
331533.0,359.0,441.0,3.0,417.0,331.533
331543.0,352.0,433.0,5.0,411.0,331.543
331553.0,355.0,449.0,3.0,424.0,331.553
331563.0,362.0,450.0,5.0,428.0,331.563
331573.0,356.0,447.0,3.0,422.0,331.573
331583.0,354.0,440.0,3.0,417.0,331.583
331593.0,349.0,434.0,4.0,414.0,331.593
331603.0,359.0,449.0,5.0,424.0,331.603
331613.0,364.0,450.0,4.0,430.0,331.613
331623.0,358.0,444.0,3.0,420.0,331.623
331633.0,355.0,441.0,4.0,417.0,331.633
331643.0,351.0,436.0,3.0,415.0,331.643
331653.0,357.0,445.0,5.0,421.0,331.653
331663.0,367.0,450.0,4.0,430.0,331.663
331673.0,359.0,443.0,3.0,419.0,331.673
331683.0,354.0,439.0,4.0,416.0,331.683
331693.0,345.0,429.0,4.0,409.0,331.693
331703.0,355.0,446.0,3.0,422.0,331.703
331713.0,364.0,450.0,4.0,430.0,331.713
331723.0,356.0,442.0,4.0,417.0,331.723
331734.0,355.0,439.0,4.0,414.0,331.734
331744.0,355.0,440.0,2.0,418.0,331.744
331754.0,362.0,452.0,3.0,426.0,331.754
331764.0,364.0,448.0,3.0,425.0,331.764
331774.0,354.0,436.0,4.0,413.0,331.774
331784.0,356.0,441.0,4.0,417.0,331.784
331794.0,359.0,443.0,4.0,422.0,331.794
331804.0,366.0,452.0,4.0,427.0,331.804
331814.0,366.0,446.0,4.0,424.0,331.814
331824.0,358.0,441.0,3.0,418.0,331.824
331834.0,356.0,440.0,4.0,416.0,331.834
331844.0,359.0,444.0,3.0,424.0,331.844
331854.0,365.0,452.0,4.0,428.0,331.854
331864.0,369.0,450.0,4.0,430.0,331.864
331874.0,356.0,439.0,4.0,417.0,331.874
331884.0,355.0,440.0,3.0,417.0,331.884
331894.0,361.0,446.0,4.0,424.0,331.894
331904.0,362.0,450.0,5.0,426.0,331.904
331914.0,366.0,448.0,4.0,427.0,331.914
331924.0,355.0,437.0,4.0,415.0,331.924
331934.0,354.0,439.0,3.0,416.0,331.934
331944.0,361.0,446.0,4.0,426.0,331.944
331954.0,361.0,451.0,3.0,428.0,331.954
331964.0,364.0,445.0,3.0,427.0,331.964
331974.0,352.0,435.0,3.0,415.0,331.974
331984.0,354.0,439.0,4.0,418.0,331.984
331994.0,355.0,440.0,3.0,421.0,331.994
332004.0,361.0,450.0,4.0,427.0,332.004
332014.0,364.0,447.0,3.0,425.0,332.014
332024.0,355.0,435.0,3.0,413.0,332.024
332034.0,358.0,441.0,3.0,417.0,332.034
332044.0,360.0,443.0,4.0,423.0,332.044
332054.0,363.0,451.0,4.0,427.0,332.054
332064.0,363.0,445.0,4.0,424.0,332.064
332075.0,352.0,435.0,3.0,414.0,332.075
332085.0,355.0,441.0,4.0,420.0,332.085
332095.0,364.0,450.0,3.0,431.0,332.095
332105.0,361.0,448.0,4.0,427.0,332.105
332115.0,358.0,442.0,4.0,422.0,332.115
332125.0,352.0,432.0,3.0,414.0,332.125
332135.0,358.0,443.0,3.0,422.0,332.135
332145.0,367.0,450.0,3.0,432.0,332.145
332155.0,362.0,446.0,4.0,425.0,332.155
332165.0,362.0,442.0,4.0,425.0,332.165
332175.0,350.0,430.0,4.0,413.0,332.175
332185.0,355.0,442.0,4.0,424.0,332.185
332195.0,365.0,448.0,4.0,434.0,332.195
332205.0,361.0,449.0,3.0,431.0,332.205
332215.0,359.0,440.0,4.0,425.0,332.215
332225.0,349.0,429.0,3.0,414.0,332.225
332235.0,360.0,444.0,5.0,425.0,332.235
332246.0,368.0,451.0,2.0,433.0,332.246
332256.0,360.0,444.0,4.0,423.0,332.256
332266.0,357.0,441.0,3.0,421.0,332.266
332276.0,352.0,436.0,4.0,419.0,332.276
332286.0,359.0,448.0,3.0,428.0,332.286
332296.0,366.0,450.0,5.0,432.0,332.296
332306.0,356.0,441.0,3.0,422.0,332.306
332316.0,354.0,439.0,3.0,419.0,332.316
332326.0,352.0,438.0,3.0,422.0,332.326
332336.0,357.0,447.0,3.0,427.0,332.336
332346.0,370.0,452.0,3.0,434.0,332.346
332356.0,359.0,441.0,3.0,421.0,332.356
332366.0,356.0,439.0,3.0,417.0,332.366
332376.0,350.0,431.0,3.0,413.0,332.376
332386.0,361.0,448.0,3.0,426.0,332.386
332396.0,368.0,451.0,3.0,431.0,332.396
332406.0,357.0,439.0,3.0,417.0,332.406
332416.0,359.0,440.0,3.0,418.0,332.416
332426.0,351.0,429.0,4.0,415.0,332.426
332436.0,358.0,445.0,3.0,427.0,332.436
332446.0,369.0,447.0,3.0,431.0,332.446
332456.0,354.0,436.0,3.0,417.0,332.456
332466.0,356.0,437.0,4.0,418.0,332.466
332476.0,350.0,432.0,4.0,415.0,332.476
332486.0,361.0,447.0,4.0,425.0,332.486
332496.0,367.0,447.0,4.0,428.0,332.496
332506.0,362.0,444.0,4.0,421.0,332.506
332516.0,361.0,441.0,3.0,419.0,332.516
332526.0,355.0,437.0,4.0,418.0,332.526
332536.0,362.0,448.0,3.0,425.0,332.536
332546.0,368.0,449.0,5.0,431.0,332.546
332556.0,357.0,442.0,2.0,419.0,332.556
332566.0,356.0,438.0,4.0,417.0,332.566
332576.0,353.0,439.0,3.0,419.0,332.576
332587.0,358.0,449.0,4.0,425.0,332.587
332597.0,360.0,443.0,4.0,423.0,332.597
332607.0,348.0,433.0,4.0,411.0,332.607
332617.0,347.0,436.0,3.0,414.0,332.617
332627.0,356.0,445.0,3.0,423.0,332.627
332637.0,355.0,447.0,4.0,423.0,332.637
332647.0,356.0,441.0,3.0,420.0,332.647
332657.0,345.0,432.0,4.0,407.0,332.657
332667.0,347.0,438.0,4.0,411.0,332.667
332677.0,350.0,440.0,3.0,416.0,332.677
332687.0,352.0,447.0,3.0,420.0,332.687
332697.0,352.0,440.0,4.0,417.0,332.697
332707.0,341.0,430.0,3.0,404.0,332.707
332717.0,343.0,435.0,3.0,410.0,332.717
332727.0,349.0,440.0,4.0,418.0,332.727
332737.0,354.0,447.0,4.0,422.0,332.737
332747.0,353.0,439.0,3.0,418.0,332.747
332758.0,344.0,429.0,4.0,406.0,332.758
332768.0,349.0,442.0,3.0,417.0,332.768
332778.0,361.0,449.0,4.0,428.0,332.778
332788.0,356.0,446.0,3.0,419.0,332.788
332798.0,353.0,439.0,5.0,414.0,332.798
332808.0,343.0,427.0,2.0,405.0,332.808
332818.0,350.0,440.0,3.0,416.0,332.818
332828.0,360.0,448.0,3.0,426.0,332.828
332838.0,354.0,444.0,3.0,415.0,332.838
332848.0,354.0,441.0,3.0,417.0,332.848
332858.0,343.0,428.0,4.0,403.0,332.858
332868.0,352.0,441.0,4.0,418.0,332.868
332878.0,360.0,448.0,4.0,426.0,332.878
332888.0,355.0,443.0,4.0,421.0,332.888
332898.0,353.0,435.0,3.0,416.0,332.898
332908.0,343.0,425.0,3.0,404.0,332.908
332918.0,352.0,440.0,4.0,416.0,332.918
332928.0,357.0,442.0,3.0,420.0,332.928
332938.0,356.0,443.0,3.0,414.0,332.938
332948.0,356.0,436.0,4.0,411.0,332.948
332958.0,347.0,429.0,3.0,403.0,332.958
332968.0,356.0,444.0,4.0,414.0,332.968
332978.0,360.0,445.0,3.0,421.0,332.978
332988.0,357.0,443.0,4.0,415.0,332.988
332998.0,353.0,437.0,4.0,411.0,332.998
333008.0,347.0,430.0,4.0,404.0,333.008
333018.0,352.0,441.0,3.0,412.0,333.018
333028.0,363.0,447.0,4.0,422.0,333.028
333038.0,357.0,443.0,3.0,413.0,333.038
333048.0,354.0,436.0,5.0,411.0,333.048
333058.0,344.0,426.0,3.0,402.0,333.058
333068.0,350.0,437.0,3.0,415.0,333.068
333078.0,361.0,446.0,3.0,428.0,333.078
333088.0,355.0,441.0,3.0,417.0,333.088
333099.0,352.0,437.0,3.0,415.0,333.099
333109.0,348.0,433.0,5.0,410.0,333.109
333119.0,356.0,446.0,3.0,421.0,333.119
333129.0,359.0,443.0,3.0,423.0,333.129
333139.0,347.0,432.0,3.0,410.0,333.139
333149.0,349.0,435.0,3.0,412.0,333.149
333159.0,344.0,432.0,4.0,411.0,333.159
333169.0,352.0,444.0,4.0,416.0,333.169
333179.0,358.0,440.0,4.0,416.0,333.179
333189.0,349.0,434.0,4.0,407.0,333.189
333199.0,346.0,432.0,4.0,406.0,333.199
333209.0,350.0,432.0,3.0,410.0,333.209
333219.0,356.0,444.0,3.0,418.0,333.219
333229.0,362.0,446.0,3.0,423.0,333.229
333239.0,351.0,435.0,4.0,410.0,333.239
333249.0,350.0,434.0,2.0,408.0,333.249
333259.0,350.0,436.0,4.0,412.0,333.259
333270.0,355.0,445.0,4.0,418.0,333.27
333280.0,355.0,439.0,4.0,415.0,333.28
333290.0,347.0,428.0,3.0,403.0,333.29
333300.0,351.0,434.0,4.0,409.0,333.3
333310.0,358.0,442.0,4.0,422.0,333.31
333320.0,356.0,443.0,4.0,421.0,333.32
333330.0,357.0,438.0,3.0,420.0,333.33
333340.0,346.0,426.0,3.0,404.0,333.34
333350.0,348.0,434.0,3.0,412.0,333.35
333360.0,352.0,436.0,4.0,417.0,333.36
333370.0,353.0,441.0,4.0,419.0,333.37
333380.0,356.0,436.0,3.0,416.0,333.38
333390.0,343.0,424.0,3.0,403.0,333.39
333400.0,346.0,431.0,3.0,408.0,333.4
333410.0,352.0,438.0,3.0,416.0,333.41
333420.0,353.0,443.0,4.0,419.0,333.42
333430.0,352.0,435.0,4.0,414.0,333.43
333440.0,345.0,428.0,2.0,406.0,333.44
333450.0,346.0,432.0,4.0,409.0,333.45
333460.0,355.0,441.0,3.0,420.0,333.46
333470.0,359.0,442.0,4.0,418.0,333.47
333480.0,356.0,437.0,3.0,415.0,333.48
333490.0,349.0,429.0,4.0,406.0,333.49
333500.0,350.0,435.0,3.0,411.0,333.5
333510.0,359.0,443.0,4.0,423.0,333.51
333520.0,359.0,445.0,3.0,423.0,333.52
333530.0,361.0,443.0,4.0,420.0,333.53
333540.0,350.0,432.0,4.0,410.0,333.54
333550.0,351.0,442.0,4.0,419.0,333.55
333560.0,364.0,450.0,3.0,428.0,333.56
333570.0,362.0,449.0,3.0,426.0,333.57
333580.0,360.0,443.0,3.0,423.0,333.58
333590.0,348.0,432.0,3.0,409.0,333.59
333600.0,353.0,442.0,3.0,419.0,333.6
333611.0,363.0,449.0,5.0,426.0,333.611
333621.0,358.0,445.0,4.0,420.0,333.621
333631.0,353.0,440.0,3.0,417.0,333.631
333641.0,344.0,431.0,3.0,411.0,333.641
333651.0,351.0,446.0,3.0,421.0,333.651
333661.0,358.0,449.0,4.0,425.0,333.661
333671.0,351.0,441.0,4.0,417.0,333.671
333681.0,349.0,436.0,4.0,414.0,333.681
333691.0,342.0,429.0,4.0,410.0,333.691
333701.0,348.0,439.0,4.0,418.0,333.701
333711.0,357.0,447.0,3.0,427.0,333.711
333721.0,351.0,437.0,4.0,417.0,333.721
333731.0,345.0,434.0,3.0,415.0,333.731
333741.0,336.0,423.0,5.0,405.0,333.741
333751.0,347.0,440.0,2.0,419.0,333.751
333761.0,357.0,445.0,4.0,426.0,333.761
333771.0,349.0,436.0,3.0,415.0,333.771
333782.0,347.0,433.0,3.0,412.0,333.782
333792.0,346.0,431.0,3.0,412.0,333.792
333802.0,354.0,442.0,5.0,420.0,333.802
333812.0,357.0,440.0,4.0,421.0,333.812
333822.0,345.0,429.0,3.0,408.0,333.822
333832.0,347.0,433.0,2.0,412.0,333.832
333842.0,347.0,432.0,3.0,414.0,333.842
333852.0,355.0,443.0,4.0,421.0,333.852
333862.0,358.0,438.0,5.0,418.0,333.862
333872.0,350.0,433.0,4.0,411.0,333.872
333882.0,348.0,432.0,3.0,411.0,333.882
333892.0,349.0,435.0,4.0,415.0,333.892
333902.0,354.0,444.0,3.0,421.0,333.902
333912.0,361.0,444.0,4.0,424.0,333.912
333922.0,349.0,433.0,4.0,411.0,333.922
333932.0,348.0,432.0,3.0,411.0,333.932
333942.0,350.0,436.0,3.0,418.0,333.942
333952.0,353.0,441.0,4.0,420.0,333.952
333962.0,359.0,442.0,3.0,423.0,333.962
333972.0,347.0,430.0,4.0,410.0,333.972
333982.0,346.0,432.0,3.0,410.0,333.982
333992.0,353.0,438.0,4.0,419.0,333.992
334002.0,354.0,444.0,4.0,421.0,334.002
334012.0,360.0,442.0,4.0,423.0,334.012
334022.0,347.0,432.0,3.0,412.0,334.022
334032.0,348.0,434.0,4.0,413.0,334.032
334042.0,348.0,434.0,3.0,416.0,334.042
334052.0,354.0,446.0,3.0,424.0,334.052
334062.0,358.0,442.0,4.0,424.0,334.062
334072.0,347.0,432.0,4.0,412.0,334.072
334082.0,347.0,431.0,3.0,413.0,334.082
334092.0,346.0,432.0,3.0,416.0,334.092
334102.0,351.0,440.0,3.0,423.0,334.102
334112.0,355.0,437.0,4.0,420.0,334.112
334123.0,344.0,427.0,4.0,412.0,334.123
334133.0,347.0,434.0,3.0,417.0,334.133
334143.0,355.0,442.0,3.0,428.0,334.143
334153.0,355.0,442.0,3.0,426.0,334.153
334163.0,353.0,436.0,4.0,420.0,334.163
334173.0,345.0,427.0,4.0,413.0,334.173
334183.0,348.0,434.0,4.0,418.0,334.183
334193.0,358.0,444.0,3.0,429.0,334.193
334203.0,356.0,443.0,3.0,426.0,334.203
334213.0,356.0,439.0,3.0,423.0,334.213
334223.0,345.0,427.0,3.0,412.0,334.223
334233.0,351.0,439.0,4.0,421.0,334.233
334243.0,362.0,448.0,4.0,432.0,334.243
334253.0,360.0,448.0,4.0,430.0,334.253
334263.0,358.0,441.0,4.0,424.0,334.263
334273.0,348.0,430.0,3.0,415.0,334.273
334283.0,355.0,443.0,4.0,425.0,334.283
334294.0,366.0,452.0,4.0,435.0,334.294
334304.0,362.0,447.0,5.0,429.0,334.304
334314.0,358.0,443.0,2.0,423.0,334.314
334324.0,352.0,436.0,4.0,420.0,334.324
334334.0,363.0,451.0,3.0,431.0,334.334
334344.0,368.0,452.0,3.0,435.0,334.344
334354.0,361.0,445.0,4.0,426.0,334.354
334364.0,358.0,441.0,4.0,422.0,334.364
334374.0,355.0,438.0,3.0,422.0,334.374
334384.0,360.0,447.0,3.0,427.0,334.384
334394.0,370.0,453.0,3.0,436.0,334.394
334404.0,361.0,446.0,3.0,426.0,334.404
334414.0,360.0,442.0,3.0,422.0,334.414
334424.0,352.0,433.0,3.0,417.0,334.424
334434.0,363.0,450.0,4.0,429.0,334.434
334444.0,371.0,454.0,4.0,436.0,334.444
334454.0,362.0,447.0,4.0,426.0,334.454
334464.0,363.0,448.0,2.0,427.0,334.464
334474.0,355.0,438.0,4.0,420.0,334.474
334484.0,365.0,455.0,3.0,433.0,334.484
334494.0,374.0,457.0,4.0,438.0,334.494
334504.0,362.0,446.0,4.0,426.0,334.504
334514.0,364.0,446.0,5.0,426.0,334.514
334524.0,356.0,441.0,3.0,422.0,334.524
334534.0,366.0,455.0,4.0,433.0,334.534
334544.0,372.0,456.0,4.0,437.0,334.544
334554.0,365.0,451.0,4.0,429.0,334.554
334564.0,362.0,447.0,4.0,424.0,334.564
334574.0,356.0,441.0,4.0,421.0,334.574
334584.0,365.0,456.0,3.0,432.0,334.584
334594.0,371.0,456.0,3.0,435.0,334.594
334604.0,363.0,449.0,3.0,425.0,334.604
334614.0,360.0,445.0,4.0,422.0,334.614
334624.0,358.0,442.0,4.0,421.0,334.624
334635.0,366.0,455.0,3.0,429.0,334.635
334645.0,370.0,452.0,4.0,429.0,334.645
334655.0,358.0,441.0,3.0,416.0,334.655
334665.0,358.0,443.0,3.0,417.0,334.665
334675.0,365.0,452.0,3.0,428.0,334.675
334685.0,367.0,455.0,4.0,429.0,334.685
334695.0,369.0,451.0,4.0,428.0,334.695
334705.0,358.0,440.0,4.0,416.0,334.705
334715.0,358.0,445.0,3.0,419.0,334.715
334725.0,361.0,446.0,4.0,423.0,334.725
334735.0,367.0,455.0,3.0,430.0,334.735
334745.0,370.0,451.0,4.0,427.0,334.745
334755.0,357.0,439.0,4.0,416.0,334.755
334765.0,360.0,444.0,4.0,419.0,334.765
334775.0,363.0,448.0,3.0,427.0,334.775
334785.0,368.0,457.0,4.0,432.0,334.785
334795.0,368.0,451.0,3.0,428.0,334.795
334806.0,357.0,438.0,4.0,415.0,334.806
334816.0,360.0,446.0,4.0,422.0,334.816
334826.0,369.0,454.0,4.0,432.0,334.826
334836.0,366.0,452.0,3.0,428.0,334.836
334846.0,364.0,445.0,4.0,423.0,334.846
334856.0,356.0,435.0,3.0,413.0,334.856
334866.0,360.0,446.0,4.0,422.0,334.866
334876.0,371.0,454.0,3.0,432.0,334.876
334886.0,366.0,449.0,4.0,425.0,334.886
334896.0,367.0,446.0,4.0,424.0,334.896
334906.0,355.0,433.0,3.0,412.0,334.906
334916.0,361.0,446.0,4.0,423.0,334.916
334926.0,371.0,454.0,4.0,433.0,334.926
334936.0,369.0,451.0,4.0,428.0,334.936
334946.0,366.0,445.0,4.0,424.0,334.946
334956.0,356.0,432.0,4.0,412.0,334.956
334966.0,363.0,448.0,3.0,423.0,334.966
334976.0,369.0,451.0,4.0,429.0,334.976
334986.0,369.0,451.0,3.0,427.0,334.986
334996.0,367.0,445.0,4.0,423.0,334.996
335006.0,355.0,433.0,4.0,412.0,335.006
335016.0,365.0,448.0,3.0,426.0,335.016
335026.0,369.0,452.0,3.0,432.0,335.026
335036.0,368.0,450.0,3.0,426.0,335.036
335046.0,364.0,444.0,4.0,422.0,335.046
335056.0,355.0,434.0,5.0,412.0,335.056
335066.0,361.0,443.0,4.0,419.0,335.066
335076.0,370.0,453.0,4.0,430.0,335.076
335086.0,367.0,449.0,3.0,424.0,335.086
335096.0,363.0,445.0,3.0,419.0,335.096
335106.0,356.0,432.0,3.0,410.0,335.106
335116.0,361.0,445.0,4.0,420.0,335.116
335126.0,371.0,454.0,4.0,431.0,335.126
335136.0,365.0,446.0,4.0,422.0,335.136
335147.0,363.0,442.0,4.0,419.0,335.147
335157.0,355.0,435.0,3.0,415.0,335.157
335167.0,365.0,449.0,4.0,426.0,335.167
335177.0,372.0,452.0,4.0,431.0,335.177
335187.0,361.0,437.0,4.0,417.0,335.187
335197.0,360.0,441.0,2.0,420.0,335.197
335207.0,356.0,435.0,4.0,417.0,335.207
335217.0,366.0,451.0,3.0,427.0,335.217
335227.0,371.0,451.0,3.0,428.0,335.227
335237.0,363.0,442.0,3.0,420.0,335.237
335247.0,361.0,441.0,4.0,418.0,335.247
335257.0,358.0,438.0,2.0,418.0,335.257
335267.0,366.0,450.0,3.0,426.0,335.267
335277.0,372.0,454.0,3.0,432.0,335.277
335287.0,362.0,440.0,4.0,417.0,335.287
335297.0,360.0,439.0,4.0,415.0,335.297
335307.0,359.0,439.0,4.0,418.0,335.307
335318.0,365.0,449.0,3.0,425.0,335.318
335328.0,368.0,447.0,4.0,425.0,335.328
335338.0,356.0,434.0,3.0,412.0,335.338
335348.0,357.0,439.0,3.0,416.0,335.348
335358.0,366.0,448.0,4.0,427.0,335.358
335368.0,365.0,449.0,4.0,425.0,335.368
335378.0,367.0,446.0,4.0,423.0,335.378
335388.0,354.0,432.0,3.0,410.0,335.388
335398.0,356.0,439.0,4.0,417.0,335.398
335408.0,361.0,444.0,3.0,422.0,335.408
335418.0,366.0,449.0,4.0,426.0,335.418
335428.0,365.0,446.0,4.0,423.0,335.428
335438.0,355.0,431.0,4.0,410.0,335.438
335448.0,357.0,439.0,3.0,416.0,335.448
335458.0,363.0,445.0,4.0,424.0,335.458
335468.0,366.0,450.0,3.0,427.0,335.468
335478.0,365.0,445.0,4.0,422.0,335.478
335488.0,357.0,436.0,3.0,415.0,335.488
335498.0,358.0,439.0,4.0,415.0,335.498
335508.0,364.0,447.0,4.0,425.0,335.508
335518.0,366.0,449.0,3.0,426.0,335.518
335528.0,363.0,445.0,3.0,422.0,335.528
335538.0,356.0,434.0,4.0,412.0,335.538
335548.0,357.0,439.0,3.0,415.0,335.548
335558.0,365.0,447.0,5.0,426.0,335.558
335568.0,365.0,448.0,4.0,425.0,335.568
335578.0,367.0,446.0,3.0,425.0,335.578
335588.0,356.0,433.0,4.0,413.0,335.588
335598.0,357.0,439.0,3.0,416.0,335.598
335608.0,367.0,448.0,4.0,427.0,335.608
335618.0,366.0,450.0,4.0,426.0,335.618
335628.0,367.0,446.0,4.0,424.0,335.628
335638.0,354.0,433.0,3.0,411.0,335.638
335648.0,357.0,441.0,3.0,417.0,335.648
335659.0,367.0,450.0,3.0,429.0,335.659
335669.0,365.0,447.0,4.0,424.0,335.669
335679.0,361.0,442.0,3.0,420.0,335.679
335689.0,354.0,431.0,4.0,411.0,335.689
335699.0,363.0,448.0,2.0,424.0,335.699
335709.0,368.0,452.0,3.0,429.0,335.709
335719.0,364.0,448.0,3.0,424.0,335.719
335729.0,362.0,442.0,4.0,419.0,335.729
335739.0,354.0,434.0,3.0,413.0,335.739
335749.0,360.0,444.0,5.0,420.0,335.749
335759.0,369.0,453.0,2.0,431.0,335.759
335769.0,363.0,445.0,4.0,421.0,335.769
335779.0,361.0,443.0,3.0,419.0,335.779
335789.0,353.0,432.0,3.0,411.0,335.789
335799.0,362.0,447.0,3.0,423.0,335.799
335809.0,372.0,453.0,4.0,431.0,335.809
335819.0,364.0,444.0,2.0,421.0,335.819
335830.0,362.0,442.0,3.0,419.0,335.83
335840.0,358.0,437.0,3.0,416.0,335.84
335850.0,366.0,450.0,3.0,426.0,335.85
335860.0,371.0,449.0,3.0,427.0,335.86
335870.0,358.0,435.0,4.0,415.0,335.87
335880.0,361.0,440.0,4.0,418.0,335.88
335890.0,358.0,437.0,4.0,418.0,335.89
335900.0,365.0,448.0,4.0,427.0,335.9
335910.0,369.0,448.0,3.0,426.0,335.91
335920.0,361.0,439.0,4.0,419.0,335.92
335930.0,359.0,439.0,3.0,416.0,335.93
335940.0,359.0,439.0,5.0,419.0,335.94
335950.0,365.0,450.0,3.0,427.0,335.95
335960.0,371.0,452.0,4.0,431.0,335.96
335970.0,360.0,440.0,3.0,419.0,335.97
335980.0,358.0,441.0,4.0,417.0,335.98
335990.0,361.0,443.0,4.0,422.0,335.99
336000.0,366.0,450.0,5.0,426.0,336.0
336010.0,372.0,453.0,2.0,431.0,336.01
336020.0,360.0,439.0,4.0,416.0,336.02
336030.0,359.0,441.0,3.0,416.0,336.03
336040.0,363.0,445.0,3.0,422.0,336.04
336050.0,366.0,451.0,3.0,425.0,336.05
336060.0,372.0,451.0,5.0,428.0,336.06
336070.0,360.0,438.0,3.0,414.0,336.07
336080.0,358.0,439.0,4.0,415.0,336.08
336090.0,357.0,437.0,4.0,416.0,336.09
336100.0,365.0,450.0,3.0,426.0,336.1
336110.0,371.0,449.0,4.0,427.0,336.11
336120.0,359.0,435.0,4.0,414.0,336.12
336130.0,361.0,439.0,4.0,416.0,336.13
336140.0,359.0,438.0,4.0,417.0,336.14
336150.0,367.0,449.0,4.0,426.0,336.15
336160.0,370.0,449.0,3.0,427.0,336.16
336171.0,359.0,435.0,4.0,414.0,336.171
336181.0,359.0,439.0,3.0,416.0,336.181
336191.0,370.0,449.0,5.0,427.0,336.191
336201.0,369.0,450.0,4.0,428.0,336.201
336211.0,366.0,444.0,4.0,423.0,336.211
336221.0,359.0,436.0,3.0,415.0,336.221
336231.0,360.0,441.0,4.0,419.0,336.231
336241.0,370.0,451.0,4.0,429.0,336.241
336251.0,369.0,450.0,5.0,426.0,336.251
336261.0,369.0,448.0,4.0,425.0,336.261
336271.0,358.0,435.0,4.0,412.0,336.271
336281.0,360.0,444.0,3.0,420.0,336.281
336291.0,370.0,453.0,3.0,430.0,336.291
336301.0,368.0,453.0,3.0,427.0,336.301
336311.0,367.0,447.0,3.0,424.0,336.311
336321.0,356.0,433.0,3.0,411.0,336.321
336331.0,360.0,444.0,3.0,420.0,336.331
336342.0,371.0,453.0,4.0,431.0,336.342
336352.0,367.0,448.0,3.0,423.0,336.352
336362.0,364.0,443.0,3.0,419.0,336.362
336372.0,357.0,435.0,4.0,414.0,336.372
336382.0,368.0,450.0,4.0,426.0,336.382
336392.0,372.0,452.0,3.0,432.0,336.392
336402.0,366.0,446.0,4.0,424.0,336.402
336412.0,363.0,443.0,3.0,419.0,336.412
336422.0,358.0,435.0,3.0,415.0,336.422
336432.0,362.0,445.0,3.0,421.0,336.432
336442.0,374.0,452.0,5.0,431.0,336.442
336452.0,366.0,445.0,4.0,422.0,336.452
336462.0,363.0,442.0,3.0,418.0,336.462
336472.0,355.0,432.0,3.0,412.0,336.472
336482.0,365.0,448.0,3.0,424.0,336.482
336492.0,373.0,453.0,3.0,432.0,336.492
336502.0,366.0,444.0,5.0,421.0,336.502
336512.0,366.0,444.0,3.0,421.0,336.512
336522.0,356.0,432.0,4.0,412.0,336.522
336532.0,366.0,450.0,3.0,426.0,336.532
336542.0,373.0,454.0,3.0,434.0,336.542
336552.0,364.0,442.0,3.0,421.0,336.552
336562.0,364.0,443.0,4.0,421.0,336.562
336572.0,356.0,434.0,4.0,414.0,336.572
336582.0,366.0,450.0,3.0,426.0,336.582
336592.0,373.0,453.0,3.0,433.0,336.592
336602.0,366.0,447.0,3.0,424.0,336.602
336612.0,362.0,443.0,3.0,420.0,336.612
336622.0,356.0,435.0,4.0,415.0,336.622
336632.0,366.0,451.0,4.0,427.0,336.632
336642.0,371.0,453.0,4.0,432.0,336.642
336652.0,366.0,446.0,4.0,421.0,336.652
336662.0,362.0,443.0,3.0,419.0,336.662
336672.0,358.0,437.0,3.0,415.0,336.672
336683.0,367.0,451.0,3.0,426.0,336.683
336693.0,374.0,450.0,5.0,429.0,336.693
336703.0,361.0,438.0,3.0,414.0,336.703
336713.0,359.0,439.0,4.0,415.0,336.713
336723.0,366.0,447.0,3.0,424.0,336.723
336733.0,368.0,451.0,3.0,425.0,336.733
336743.0,371.0,448.0,4.0,427.0,336.743
336753.0,361.0,437.0,4.0,414.0,336.753
336763.0,359.0,441.0,4.0,416.0,336.763
336773.0,361.0,441.0,4.0,419.0,336.773
336783.0,368.0,454.0,4.0,428.0,336.783
336793.0,370.0,449.0,3.0,427.0,336.793
336803.0,360.0,438.0,4.0,415.0,336.803
336813.0,362.0,442.0,3.0,418.0,336.813
336823.0,364.0,443.0,4.0,422.0,336.823
336833.0,368.0,454.0,4.0,428.0,336.833
336843.0,369.0,448.0,4.0,427.0,336.843
336854.0,358.0,437.0,3.0,412.0,336.854
336864.0,359.0,442.0,4.0,417.0,336.864
336874.0,368.0,451.0,4.0,428.0,336.874
336884.0,368.0,450.0,4.0,423.0,336.884
336894.0,363.0,444.0,2.0,419.0,336.894
336904.0,355.0,434.0,3.0,409.0,336.904
336914.0,358.0,443.0,3.0,418.0,336.914
336924.0,369.0,452.0,3.0,429.0,336.924
336934.0,366.0,450.0,4.0,423.0,336.934
336944.0,367.0,446.0,5.0,422.0,336.944
336954.0,355.0,434.0,2.0,409.0,336.954
336964.0,360.0,445.0,3.0,418.0,336.964
336974.0,371.0,455.0,3.0,429.0,336.974
336984.0,368.0,454.0,3.0,425.0,336.984
336994.0,367.0,447.0,4.0,421.0,336.994
337004.0,355.0,434.0,4.0,409.0,337.004
337014.0,362.0,448.0,4.0,420.0,337.014
337024.0,367.0,451.0,4.0,426.0,337.024
337034.0,368.0,455.0,3.0,426.0,337.034
337044.0,364.0,447.0,3.0,421.0,337.044
337054.0,353.0,435.0,4.0,408.0,337.054
337064.0,361.0,450.0,4.0,420.0,337.064
337074.0,369.0,453.0,4.0,425.0,337.074
337084.0,367.0,454.0,3.0,423.0,337.084
337094.0,364.0,447.0,4.0,419.0,337.094
337104.0,354.0,436.0,3.0,410.0,337.104
337114.0,358.0,445.0,3.0,417.0,337.114
337124.0,368.0,453.0,4.0,428.0,337.124
337134.0,368.0,452.0,5.0,423.0,337.134
337144.0,364.0,447.0,2.0,419.0,337.144
337154.0,357.0,437.0,3.0,409.0,337.154
337164.0,361.0,447.0,3.0,418.0,337.164
337174.0,371.0,454.0,4.0,429.0,337.174
337184.0,366.0,451.0,3.0,422.0,337.184
337195.0,364.0,445.0,4.0,419.0,337.195
337205.0,356.0,436.0,2.0,412.0,337.205
337215.0,366.0,452.0,3.0,425.0,337.215
337225.0,373.0,455.0,3.0,432.0,337.225
337235.0,361.0,443.0,4.0,417.0,337.235
337245.0,363.0,445.0,4.0,418.0,337.245
337255.0,357.0,437.0,5.0,414.0,337.255
337265.0,366.0,452.0,3.0,425.0,337.265
337275.0,372.0,454.0,4.0,429.0,337.275
337285.0,365.0,446.0,3.0,421.0,337.285
337295.0,362.0,443.0,3.0,418.0,337.295
337305.0,358.0,438.0,4.0,417.0,337.305
337315.0,367.0,451.0,4.0,428.0,337.315
337325.0,372.0,453.0,4.0,432.0,337.325
337335.0,364.0,444.0,4.0,421.0,337.335
337345.0,360.0,441.0,3.0,418.0,337.345
337355.0,357.0,438.0,3.0,418.0,337.355
337366.0,365.0,450.0,4.0,426.0,337.366
337376.0,369.0,448.0,4.0,427.0,337.376
337386.0,358.0,436.0,4.0,415.0,337.386
337396.0,357.0,440.0,3.0,417.0,337.396
337406.0,365.0,448.0,3.0,429.0,337.406
337416.0,365.0,452.0,3.0,429.0,337.416
337426.0,368.0,448.0,3.0,426.0,337.426
337436.0,357.0,437.0,3.0,413.0,337.436
337446.0,358.0,442.0,5.0,417.0,337.446
337456.0,361.0,444.0,4.0,423.0,337.456
337466.0,366.0,453.0,4.0,428.0,337.466
337476.0,368.0,448.0,3.0,426.0,337.476
337486.0,357.0,436.0,4.0,412.0,337.486
337496.0,359.0,442.0,3.0,418.0,337.496
337506.0,363.0,447.0,3.0,425.0,337.506
337516.0,368.0,455.0,4.0,430.0,337.516
337526.0,367.0,449.0,3.0,426.0,337.526
337536.0,361.0,443.0,3.0,418.0,337.536
337546.0,360.0,443.0,3.0,417.0,337.546
337556.0,365.0,449.0,3.0,426.0,337.556
337566.0,367.0,453.0,4.0,427.0,337.566
337576.0,367.0,446.0,3.0,423.0,337.576
337586.0,360.0,440.0,4.0,414.0,337.586
337596.0,358.0,442.0,3.0,416.0,337.596
337606.0,366.0,449.0,3.0,426.0,337.606
337616.0,368.0,452.0,4.0,426.0,337.616
337626.0,369.0,449.0,4.0,426.0,337.626
337636.0,359.0,437.0,5.0,413.0,337.636
337646.0,358.0,440.0,3.0,416.0,337.646
337656.0,367.0,449.0,3.0,427.0,337.656
337666.0,367.0,452.0,3.0,427.0,337.666
337676.0,370.0,448.0,4.0,426.0,337.676
337686.0,357.0,436.0,4.0,413.0,337.686
337696.0,359.0,442.0,4.0,418.0,337.696
337707.0,368.0,452.0,4.0,429.0,337.707
337717.0,367.0,452.0,4.0,425.0,337.717
337727.0,364.0,446.0,3.0,422.0,337.727
337737.0,353.0,433.0,4.0,411.0,337.737
337747.0,363.0,449.0,3.0,425.0,337.747
337757.0,369.0,452.0,4.0,430.0,337.757
337767.0,367.0,451.0,3.0,426.0,337.767
337777.0,364.0,446.0,3.0,421.0,337.777
337787.0,355.0,436.0,4.0,413.0,337.787
337797.0,361.0,447.0,3.0,422.0,337.797
337807.0,370.0,455.0,4.0,432.0,337.807
337817.0,366.0,451.0,4.0,424.0,337.817
337827.0,363.0,445.0,4.0,420.0,337.827
337837.0,354.0,434.0,2.0,410.0,337.837
337847.0,360.0,446.0,4.0,420.0,337.847
337857.0,370.0,455.0,4.0,430.0,337.857
337867.0,364.0,449.0,4.0,421.0,337.867
337878.0,361.0,445.0,4.0,418.0,337.878
337888.0,356.0,439.0,4.0,414.0,337.888
337898.0,365.0,454.0,2.0,425.0,337.898
337908.0,372.0,453.0,4.0,429.0,337.908
337918.0,360.0,443.0,3.0,415.0,337.918
337928.0,361.0,444.0,3.0,417.0,337.928
337938.0,357.0,440.0,3.0,415.0,337.938
337948.0,367.0,454.0,5.0,424.0,337.948
337958.0,371.0,452.0,4.0,426.0,337.958
337968.0,362.0,447.0,4.0,418.0,337.968
337978.0,360.0,445.0,3.0,418.0,337.978
337988.0,357.0,442.0,4.0,417.0,337.988
337998.0,365.0,455.0,4.0,427.0,337.998
338008.0,372.0,456.0,5.0,431.0,338.008
338018.0,361.0,446.0,3.0,418.0,338.018
338028.0,359.0,444.0,3.0,416.0,338.028
338038.0,360.0,444.0,4.0,421.0,338.038
338048.0,363.0,453.0,3.0,426.0,338.048
338058.0,372.0,455.0,3.0,432.0,338.058
338068.0,361.0,444.0,4.0,418.0,338.068
338078.0,360.0,442.0,4.0,418.0,338.078
338088.0,360.0,444.0,4.0,423.0,338.088
338098.0,364.0,451.0,4.0,427.0,338.098
338108.0,371.0,454.0,3.0,432.0,338.108
338118.0,359.0,441.0,4.0,417.0,338.118
338128.0,358.0,441.0,4.0,417.0,338.128
338138.0,356.0,437.0,5.0,416.0,338.138
338148.0,364.0,451.0,3.0,427.0,338.148
338158.0,371.0,452.0,3.0,430.0,338.158
338168.0,358.0,440.0,3.0,417.0,338.168
338178.0,360.0,442.0,4.0,419.0,338.178
338188.0,356.0,438.0,4.0,418.0,338.188
338198.0,365.0,451.0,5.0,428.0,338.198
338208.0,369.0,449.0,2.0,429.0,338.208
338219.0,356.0,437.0,3.0,416.0,338.219
338229.0,356.0,441.0,3.0,419.0,338.229
338239.0,363.0,448.0,4.0,428.0,338.239
338249.0,365.0,451.0,3.0,429.0,338.249
338259.0,363.0,445.0,4.0,424.0,338.259
338269.0,355.0,437.0,4.0,415.0,338.269
338279.0,356.0,441.0,3.0,419.0,338.279
338289.0,364.0,450.0,3.0,431.0,338.289
338299.0,363.0,452.0,3.0,429.0,338.299
338309.0,366.0,448.0,4.0,427.0,338.309
338319.0,353.0,436.0,4.0,414.0,338.319
338329.0,356.0,442.0,4.0,418.0,338.329
338339.0,364.0,451.0,3.0,429.0,338.339
338349.0,362.0,453.0,4.0,428.0,338.349
338359.0,364.0,448.0,3.0,425.0,338.359
338369.0,352.0,435.0,5.0,412.0,338.369
338379.0,355.0,444.0,3.0,419.0,338.379
338390.0,367.0,453.0,5.0,430.0,338.39
338400.0,362.0,451.0,4.0,425.0,338.4
338410.0,360.0,445.0,4.0,421.0,338.41
338420.0,350.0,436.0,3.0,415.0,338.42
338430.0,360.0,451.0,4.0,428.0,338.43
338440.0,366.0,454.0,3.0,433.0,338.44
338450.0,361.0,449.0,4.0,426.0,338.45
338460.0,359.0,445.0,4.0,423.0,338.46
338470.0,351.0,436.0,4.0,417.0,338.47
338480.0,358.0,448.0,3.0,424.0,338.48
338490.0,367.0,454.0,3.0,433.0,338.49
338500.0,360.0,448.0,3.0,425.0,338.5
338510.0,359.0,445.0,4.0,422.0,338.51
338520.0,350.0,434.0,4.0,413.0,338.52
338530.0,358.0,449.0,4.0,425.0,338.53
338540.0,368.0,456.0,4.0,435.0,338.54
338550.0,360.0,448.0,3.0,423.0,338.55
338560.0,362.0,446.0,4.0,423.0,338.56
338570.0,350.0,434.0,4.0,413.0,338.57
338580.0,361.0,450.0,4.0,427.0,338.58
338590.0,370.0,455.0,4.0,435.0,338.59
338600.0,359.0,446.0,3.0,423.0,338.6
338610.0,360.0,446.0,4.0,424.0,338.61
338620.0,350.0,434.0,4.0,414.0,338.62
338630.0,360.0,451.0,4.0,427.0,338.63
338640.0,370.0,455.0,5.0,435.0,338.64
338650.0,361.0,451.0,2.0,428.0,338.65
338660.0,358.0,445.0,3.0,423.0,338.66
338670.0,349.0,437.0,3.0,418.0,338.67
338680.0,360.0,452.0,3.0,430.0,338.68
338690.0,366.0,454.0,4.0,435.0,338.69
338700.0,361.0,450.0,5.0,429.0,338.7
338710.0,358.0,446.0,4.0,424.0,338.71
338720.0,351.0,439.0,3.0,421.0,338.72
338731.0,363.0,456.0,3.0,434.0,338.731
338741.0,370.0,456.0,3.0,436.0,338.741
338751.0,357.0,444.0,3.0,424.0,338.751
338761.0,356.0,445.0,4.0,423.0,338.761
338771.0,360.0,450.0,4.0,431.0,338.771
338781.0,363.0,457.0,3.0,435.0,338.781
338791.0,370.0,456.0,4.0,437.0,338.791
338801.0,355.0,444.0,3.0,425.0,338.801
338811.0,356.0,446.0,4.0,425.0,338.811
338821.0,354.0,445.0,4.0,427.0,338.821
338831.0,365.0,459.0,4.0,437.0,338.831
338841.0,369.0,456.0,4.0,436.0,338.841
338851.0,354.0,443.0,4.0,424.0,338.851
338861.0,358.0,447.0,3.0,426.0,338.861
338871.0,355.0,447.0,4.0,429.0,338.871
338881.0,364.0,457.0,4.0,438.0,338.881
338891.0,368.0,454.0,4.0,435.0,338.891
338902.0,352.0,442.0,2.0,423.0,338.902
338912.0,355.0,448.0,4.0,427.0,338.912
338922.0,364.0,457.0,3.0,438.0,338.922
338932.0,363.0,456.0,3.0,436.0,338.932
338942.0,361.0,450.0,4.0,430.0,338.942
338952.0,352.0,441.0,4.0,422.0,338.952
338962.0,356.0,448.0,4.0,429.0,338.962
338972.0,365.0,457.0,4.0,438.0,338.972
338982.0,363.0,456.0,3.0,436.0,338.982
338992.0,365.0,452.0,3.0,432.0,338.992
339002.0,350.0,439.0,4.0,420.0,339.002
339012.0,357.0,448.0,4.0,430.0,339.012
339022.0,366.0,455.0,4.0,438.0,339.022
339032.0,362.0,457.0,3.0,437.0,339.032
339042.0,363.0,450.0,4.0,432.0,339.042
339052.0,348.0,438.0,3.0,419.0,339.052
339062.0,356.0,450.0,4.0,430.0,339.062
339072.0,360.0,452.0,5.0,434.0,339.072
339082.0,361.0,457.0,4.0,436.0,339.082
339092.0,360.0,449.0,2.0,431.0,339.092
339102.0,346.0,436.0,4.0,420.0,339.102
339112.0,354.0,450.0,3.0,432.0,339.112
339122.0,360.0,453.0,4.0,437.0,339.122
339132.0,359.0,455.0,3.0,436.0,339.132
339142.0,360.0,448.0,3.0,430.0,339.142
339152.0,342.0,436.0,2.0,419.0,339.152
339162.0,349.0,445.0,4.0,425.0,339.162
339172.0,359.0,454.0,3.0,438.0,339.172
339182.0,356.0,454.0,4.0,434.0,339.182
339192.0,355.0,447.0,3.0,429.0,339.192
339202.0,345.0,438.0,5.0,421.0,339.202
339212.0,350.0,446.0,3.0,427.0,339.212
339222.0,359.0,455.0,3.0,437.0,339.222
339232.0,356.0,453.0,4.0,433.0,339.232
339243.0,356.0,447.0,3.0,428.0,339.243
339253.0,343.0,437.0,4.0,420.0,339.253
339263.0,355.0,453.0,4.0,433.0,339.263
339273.0,365.0,456.0,4.0,438.0,339.273
339283.0,350.0,446.0,3.0,425.0,339.283
339293.0,356.0,446.0,4.0,426.0,339.293
339303.0,343.0,438.0,3.0,420.0,339.303
339313.0,356.0,455.0,4.0,433.0,339.313
339323.0,365.0,455.0,4.0,438.0,339.323
339333.0,354.0,451.0,5.0,429.0,339.333
339343.0,354.0,446.0,4.0,425.0,339.343
339353.0,345.0,439.0,3.0,422.0,339.353
339363.0,355.0,455.0,3.0,432.0,339.363
339373.0,361.0,455.0,4.0,438.0,339.373
339383.0,351.0,449.0,3.0,429.0,339.383
339393.0,352.0,444.0,4.0,425.0,339.393
339403.0,345.0,440.0,4.0,422.0,339.403
339414.0,355.0,454.0,4.0,432.0,339.414
339424.0,363.0,453.0,3.0,435.0,339.424
339434.0,346.0,442.0,4.0,421.0,339.434
339444.0,348.0,443.0,3.0,421.0,339.444
339454.0,355.0,450.0,4.0,431.0,339.454
339464.0,355.0,455.0,4.0,431.0,339.464
339474.0,362.0,452.0,4.0,431.0,339.474
339484.0,345.0,441.0,4.0,419.0,339.484
339494.0,348.0,443.0,3.0,420.0,339.494
339504.0,349.0,444.0,3.0,423.0,339.504
339514.0,356.0,455.0,4.0,430.0,339.514
339524.0,361.0,450.0,4.0,428.0,339.524
339534.0,344.0,440.0,4.0,416.0,339.534
339544.0,350.0,444.0,4.0,420.0,339.544
339554.0,349.0,447.0,3.0,424.0,339.554
339564.0,355.0,455.0,4.0,430.0,339.564
339574.0,359.0,449.0,3.0,427.0,339.574
339584.0,349.0,444.0,4.0,419.0,339.584
339594.0,349.0,443.0,4.0,418.0,339.594
339604.0,351.0,448.0,4.0,425.0,339.604
339614.0,355.0,456.0,3.0,429.0,339.614
339624.0,358.0,448.0,4.0,426.0,339.624
339634.0,348.0,443.0,3.0,417.0,339.634
339644.0,350.0,443.0,4.0,417.0,339.644
339654.0,354.0,449.0,2.0,426.0,339.654
339664.0,357.0,454.0,4.0,428.0,339.664
339674.0,362.0,451.0,3.0,430.0,339.674
339684.0,346.0,440.0,3.0,416.0,339.684
339694.0,348.0,441.0,3.0,417.0,339.694
339704.0,355.0,449.0,5.0,428.0,339.704
339714.0,356.0,454.0,4.0,428.0,339.714
339724.0,361.0,450.0,3.0,428.0,339.724
339734.0,347.0,440.0,3.0,416.0,339.734
339744.0,349.0,443.0,4.0,418.0,339.744
339755.0,357.0,451.0,3.0,429.0,339.755
339765.0,359.0,455.0,4.0,429.0,339.765
339775.0,358.0,447.0,4.0,423.0,339.775
339785.0,344.0,436.0,3.0,413.0,339.785
339795.0,357.0,454.0,4.0,428.0,339.795
339805.0,361.0,456.0,3.0,432.0,339.805
339815.0,360.0,458.0,4.0,430.0,339.815
339825.0,358.0,449.0,4.0,425.0,339.825
339835.0,347.0,439.0,5.0,416.0,339.835
339845.0,355.0,451.0,2.0,426.0,339.845
339855.0,364.0,458.0,3.0,435.0,339.855
339865.0,362.0,458.0,3.0,431.0,339.865
339875.0,359.0,449.0,4.0,426.0,339.875
339885.0,350.0,441.0,3.0,417.0,339.885
339895.0,358.0,453.0,4.0,428.0,339.895
339905.0,366.0,459.0,4.0,438.0,339.905
339915.0,362.0,457.0,4.0,431.0,339.915
339926.0,360.0,451.0,3.0,427.0,339.926
339936.0,352.0,444.0,4.0,421.0,339.936
339946.0,364.0,461.0,3.0,434.0,339.946
339956.0,372.0,460.0,5.0,438.0,339.956
339966.0,359.0,452.0,4.0,425.0,339.966
339976.0,362.0,452.0,3.0,426.0,339.976
339986.0,356.0,447.0,4.0,424.0,339.986
339996.0,366.0,463.0,3.0,435.0,339.996
340006.0,372.0,460.0,4.0,437.0,340.006
340016.0,363.0,458.0,3.0,430.0,340.016
340026.0,361.0,452.0,4.0,425.0,340.026
340036.0,356.0,450.0,4.0,425.0,340.036
340046.0,366.0,464.0,4.0,436.0,340.046
340056.0,371.0,464.0,4.0,440.0,340.056
340066.0,362.0,458.0,3.0,430.0,340.066
340076.0,359.0,452.0,3.0,425.0,340.076
340086.0,358.0,452.0,4.0,426.0,340.086
340096.0,364.0,463.0,4.0,433.0,340.096
340106.0,371.0,464.0,4.0,439.0,340.106
340116.0,360.0,458.0,3.0,429.0,340.116
340126.0,360.0,452.0,4.0,424.0,340.126
340136.0,358.0,454.0,3.0,428.0,340.136
340146.0,366.0,464.0,4.0,434.0,340.146
340156.0,372.0,465.0,4.0,439.0,340.156
340166.0,361.0,458.0,4.0,425.0,340.166
340176.0,359.0,454.0,3.0,424.0,340.176
340186.0,354.0,450.0,3.0,420.0,340.186
340196.0,366.0,466.0,4.0,433.0,340.196
340206.0,372.0,464.0,5.0,436.0,340.206
340216.0,360.0,455.0,4.0,423.0,340.216
340226.0,361.0,455.0,4.0,425.0,340.226
340236.0,355.0,452.0,4.0,423.0,340.236
340246.0,366.0,467.0,3.0,434.0,340.246
340256.0,373.0,463.0,5.0,436.0,340.256
340267.0,359.0,455.0,4.0,423.0,340.267
340277.0,359.0,452.0,4.0,423.0,340.277
340287.0,364.0,460.0,3.0,433.0,340.287
340297.0,369.0,467.0,4.0,436.0,340.297
340307.0,367.0,458.0,3.0,430.0,340.307
340317.0,359.0,453.0,4.0,422.0,340.317
340327.0,359.0,454.0,4.0,424.0,340.327
340337.0,368.0,461.0,4.0,433.0,340.337
340347.0,369.0,467.0,3.0,434.0,340.347
340357.0,372.0,460.0,3.0,433.0,340.357
340367.0,360.0,453.0,3.0,422.0,340.367
340377.0,360.0,454.0,3.0,425.0,340.377
340387.0,369.0,462.0,3.0,435.0,340.387
340397.0,369.0,466.0,4.0,435.0,340.397
340407.0,370.0,458.0,4.0,432.0,340.407
340417.0,358.0,448.0,4.0,420.0,340.417
340427.0,361.0,454.0,3.0,428.0,340.427
340438.0,370.0,461.0,3.0,437.0,340.438
340448.0,370.0,463.0,4.0,434.0,340.448
340458.0,367.0,454.0,5.0,428.0,340.458
340468.0,356.0,444.0,3.0,419.0,340.468
340478.0,367.0,463.0,3.0,434.0,340.478
340488.0,371.0,462.0,4.0,438.0,340.488
340498.0,369.0,462.0,3.0,432.0,340.498
340508.0,366.0,454.0,4.0,427.0,340.508
340518.0,356.0,445.0,4.0,420.0,340.518
340528.0,363.0,456.0,4.0,430.0,340.528
340538.0,372.0,462.0,3.0,439.0,340.538
340548.0,367.0,460.0,3.0,432.0,340.548
340558.0,365.0,453.0,3.0,427.0,340.558
340568.0,355.0,442.0,3.0,419.0,340.568
340578.0,363.0,457.0,3.0,432.0,340.578
340588.0,373.0,461.0,4.0,440.0,340.588
340598.0,366.0,457.0,4.0,433.0,340.598
340608.0,366.0,453.0,3.0,432.0,340.608
340618.0,354.0,442.0,3.0,421.0,340.618
340628.0,365.0,459.0,4.0,436.0,340.628
340638.0,372.0,461.0,4.0,442.0,340.638
340648.0,367.0,457.0,5.0,432.0,340.648
340658.0,366.0,453.0,3.0,432.0,340.658
340668.0,355.0,443.0,3.0,421.0,340.668
340678.0,367.0,462.0,3.0,436.0,340.678
340688.0,374.0,463.0,3.0,443.0,340.688
340698.0,370.0,462.0,4.0,436.0,340.698
340708.0,365.0,453.0,4.0,429.0,340.708
340718.0,356.0,444.0,4.0,422.0,340.718
340728.0,368.0,462.0,4.0,436.0,340.728
340738.0,372.0,462.0,3.0,440.0,340.738
340748.0,369.0,461.0,3.0,435.0,340.748
340758.0,366.0,452.0,3.0,429.0,340.758
340768.0,358.0,444.0,4.0,423.0,340.768
340779.0,371.0,462.0,5.0,437.0,340.779
340789.0,376.0,462.0,3.0,441.0,340.789
340799.0,365.0,453.0,3.0,429.0,340.799
340809.0,362.0,451.0,3.0,425.0,340.809
340819.0,365.0,454.0,3.0,432.0,340.819
340829.0,370.0,463.0,3.0,437.0,340.829
340839.0,377.0,462.0,4.0,440.0,340.839
340849.0,364.0,451.0,2.0,427.0,340.849
340859.0,362.0,450.0,4.0,425.0,340.859
340869.0,360.0,448.0,3.0,426.0,340.869
340879.0,371.0,462.0,4.0,437.0,340.879
340889.0,376.0,459.0,3.0,438.0,340.889
340899.0,365.0,449.0,4.0,425.0,340.899
340909.0,365.0,450.0,4.0,426.0,340.909
340919.0,362.0,448.0,4.0,426.0,340.919
340929.0,371.0,462.0,3.0,436.0,340.929
340939.0,374.0,457.0,3.0,436.0,340.939
340950.0,363.0,447.0,3.0,424.0,340.95
340960.0,362.0,449.0,4.0,426.0,340.96
340970.0,371.0,457.0,4.0,436.0,340.97
340980.0,372.0,461.0,3.0,436.0,340.98
340990.0,369.0,453.0,3.0,431.0,340.99
341000.0,363.0,446.0,3.0,422.0,341.0
341010.0,363.0,450.0,3.0,427.0,341.01
341020.0,372.0,458.0,4.0,437.0,341.02
341030.0,373.0,460.0,4.0,436.0,341.03
341040.0,373.0,454.0,4.0,434.0,341.04
341050.0,362.0,444.0,4.0,422.0,341.05
341060.0,363.0,451.0,3.0,428.0,341.06
341070.0,372.0,458.0,4.0,437.0,341.07
341080.0,370.0,460.0,3.0,434.0,341.08
341090.0,371.0,452.0,4.0,430.0,341.09
341100.0,359.0,440.0,4.0,418.0,341.1
341110.0,362.0,448.0,4.0,425.0,341.11
341120.0,367.0,452.0,4.0,431.0,341.12
341130.0,371.0,459.0,3.0,434.0,341.13
341140.0,370.0,450.0,4.0,428.0,341.14
341150.0,359.0,438.0,4.0,415.0,341.15
341160.0,363.0,449.0,3.0,425.0,341.16
341170.0,368.0,453.0,3.0,431.0,341.17
341180.0,371.0,459.0,4.0,432.0,341.18
341190.0,368.0,450.0,3.0,427.0,341.19
341200.0,358.0,437.0,3.0,415.0,341.2
341210.0,361.0,445.0,4.0,422.0,341.21
341220.0,371.0,454.0,4.0,433.0,341.22
341230.0,372.0,457.0,3.0,432.0,341.23
341240.0,368.0,449.0,4.0,427.0,341.24
341250.0,361.0,443.0,3.0,420.0,341.25
341260.0,362.0,446.0,4.0,422.0,341.26
341270.0,371.0,455.0,4.0,433.0,341.27
341280.0,371.0,457.0,5.0,431.0,341.28
341291.0,367.0,449.0,4.0,427.0,341.291
341301.0,357.0,439.0,4.0,418.0,341.301
341311.0,367.0,455.0,4.0,430.0,341.311
341321.0,376.0,459.0,4.0,438.0,341.321
341331.0,366.0,451.0,3.0,427.0,341.331
341341.0,367.0,448.0,4.0,426.0,341.341
341351.0,357.0,439.0,4.0,419.0,341.351
341361.0,367.0,455.0,4.0,431.0,341.361
341371.0,375.0,459.0,3.0,438.0,341.371
341381.0,369.0,454.0,3.0,429.0,341.381
