time (ms),signal 0,signal 1,signal 2,signal 3,time (sec)
401119.0,358.0,435.0,5.0,418.0,401.119
401129.0,352.0,427.0,4.0,415.0,401.129
401139.0,362.0,437.0,4.0,424.0,401.139
401149.0,369.0,451.0,4.0,430.0,401.149
401159.0,360.0,430.0,4.0,421.0,401.159
401169.0,358.0,438.0,3.0,418.0,401.169
401179.0,353.0,430.0,4.0,414.0,401.179
401189.0,361.0,439.0,4.0,424.0,401.189
401199.0,369.0,453.0,4.0,430.0,401.199
401209.0,358.0,430.0,4.0,418.0,401.209
401219.0,357.0,438.0,4.0,415.0,401.219
401229.0,354.0,433.0,3.0,416.0,401.229
401239.0,360.0,440.0,3.0,422.0,401.239
401249.0,368.0,457.0,3.0,430.0,401.249
401259.0,359.0,428.0,5.0,417.0,401.259
401269.0,357.0,439.0,4.0,415.0,401.269
401280.0,356.0,438.0,5.0,417.0,401.28
401290.0,362.0,438.0,3.0,424.0,401.29
401300.0,367.0,458.0,3.0,424.0,401.3
401310.0,353.0,427.0,4.0,411.0,401.31
401320.0,354.0,438.0,5.0,416.0,401.32
401330.0,358.0,445.0,4.0,421.0,401.33
401340.0,364.0,443.0,4.0,428.0,401.34
401350.0,367.0,464.0,4.0,426.0,401.35
401360.0,354.0,434.0,3.0,414.0,401.36
401370.0,358.0,450.0,4.0,418.0,401.37
401380.0,361.0,457.0,4.0,426.0,401.38
401390.0,368.0,450.0,4.0,431.0,401.39
401400.0,369.0,472.0,3.0,427.0,401.4
401410.0,360.0,442.0,4.0,419.0,401.41
401420.0,359.0,457.0,3.0,419.0,401.42
401430.0,365.0,469.0,4.0,428.0,401.43
401440.0,368.0,456.0,3.0,432.0,401.44
401451.0,369.0,483.0,4.0,428.0,401.451
401461.0,356.0,453.0,4.0,415.0,401.461
401471.0,365.0,476.0,3.0,429.0,401.471
401481.0,373.0,501.0,3.0,437.0,401.481
401491.0,368.0,471.0,3.0,429.0,401.491
401501.0,369.0,508.0,4.0,427.0,401.501
401511.0,357.0,478.0,4.0,415.0,401.511
401521.0,368.0,504.0,4.0,431.0,401.521
401531.0,374.0,529.0,4.0,438.0,401.531
401541.0,371.0,497.0,3.0,433.0,401.541
401551.0,369.0,532.0,3.0,428.0,401.551
401561.0,355.0,502.0,3.0,415.0,401.561
401571.0,369.0,525.0,4.0,431.0,401.571
401581.0,372.0,542.0,4.0,434.0,401.581
401591.0,369.0,515.0,4.0,432.0,401.591
401601.0,367.0,548.0,3.0,427.0,401.601
401611.0,355.0,521.0,3.0,418.0,401.611
401622.0,367.0,538.0,3.0,432.0,401.622
401632.0,375.0,571.0,3.0,438.0,401.632
401642.0,365.0,532.0,4.0,425.0,401.642
401652.0,362.0,565.0,4.0,421.0,401.652
401662.0,362.0,558.0,4.0,423.0,401.662
401672.0,368.0,559.0,3.0,431.0,401.672
401682.0,375.0,589.0,4.0,435.0,401.682
401692.0,364.0,547.0,4.0,420.0,401.692
401702.0,363.0,580.0,4.0,418.0,401.702
401712.0,358.0,566.0,4.0,417.0,401.712
401722.0,370.0,574.0,3.0,431.0,401.722
401732.0,376.0,610.0,3.0,436.0,401.732
401742.0,364.0,568.0,4.0,422.0,401.742
401752.0,365.0,607.0,4.0,425.0,401.752
401762.0,359.0,590.0,4.0,422.0,401.762
401772.0,370.0,594.0,4.0,434.0,401.772
401782.0,375.0,633.0,3.0,436.0,401.782
401792.0,365.0,590.0,4.0,429.0,401.792
401802.0,363.0,626.0,3.0,425.0,401.802
401812.0,360.0,610.0,4.0,424.0,401.812
401822.0,368.0,607.0,3.0,432.0,401.822
401832.0,374.0,643.0,4.0,432.0,401.832
401842.0,363.0,593.0,4.0,425.0,401.842
401852.0,362.0,616.0,3.0,422.0,401.852
401862.0,360.0,600.0,3.0,425.0,401.862
401872.0,366.0,586.0,4.0,431.0,401.872
401882.0,372.0,616.0,3.0,436.0,401.882
401892.0,360.0,568.0,4.0,422.0,401.892
401902.0,358.0,590.0,2.0,421.0,401.902
401912.0,358.0,577.0,4.0,424.0,401.912
401922.0,362.0,568.0,3.0,427.0,401.922
401932.0,370.0,587.0,4.0,431.0,401.932
401942.0,358.0,538.0,4.0,417.0,401.942
401952.0,357.0,553.0,5.0,417.0,401.952
401963.0,359.0,547.0,4.0,423.0,401.963
401973.0,364.0,528.0,3.0,427.0,401.973
401983.0,366.0,551.0,3.0,425.0,401.983
401993.0,353.0,508.0,3.0,412.0,401.993
402003.0,358.0,520.0,3.0,419.0,402.003
402013.0,362.0,525.0,4.0,425.0,402.013
402023.0,366.0,505.0,4.0,429.0,402.023
402033.0,367.0,525.0,4.0,426.0,402.033
402043.0,353.0,485.0,2.0,412.0,402.043
402053.0,358.0,496.0,3.0,418.0,402.053
402063.0,364.0,504.0,4.0,428.0,402.063
402073.0,365.0,484.0,4.0,428.0,402.073
402083.0,366.0,500.0,4.0,424.0,402.083
402093.0,356.0,468.0,2.0,415.0,402.093
402103.0,356.0,478.0,3.0,417.0,402.103
402113.0,365.0,490.0,3.0,429.0,402.113
402123.0,364.0,466.0,3.0,426.0,402.123
402134.0,363.0,482.0,4.0,421.0,402.134
402144.0,352.0,453.0,4.0,410.0,402.144
402154.0,359.0,463.0,3.0,422.0,402.154
402164.0,369.0,479.0,3.0,432.0,402.164
402174.0,360.0,448.0,3.0,421.0,402.174
402184.0,361.0,464.0,3.0,420.0,402.184
402194.0,349.0,441.0,4.0,410.0,402.194
402204.0,360.0,454.0,4.0,422.0,402.204
402214.0,369.0,471.0,4.0,431.0,402.214
402224.0,362.0,445.0,4.0,423.0,402.224
402234.0,361.0,457.0,4.0,418.0,402.234
402244.0,351.0,439.0,3.0,411.0,402.244
402254.0,364.0,452.0,3.0,427.0,402.254
402264.0,369.0,464.0,4.0,432.0,402.264
402274.0,365.0,441.0,4.0,426.0,402.274
402284.0,362.0,453.0,4.0,422.0,402.284
402294.0,354.0,439.0,4.0,417.0,402.294
402304.0,360.0,448.0,3.0,423.0,402.304
402314.0,371.0,464.0,4.0,433.0,402.314
402324.0,364.0,441.0,3.0,427.0,402.324
402334.0,363.0,449.0,4.0,421.0,402.334
402344.0,355.0,437.0,3.0,417.0,402.344
402354.0,361.0,444.0,3.0,424.0,402.354
402364.0,370.0,461.0,3.0,433.0,402.364
402374.0,363.0,437.0,4.0,422.0,402.374
402384.0,360.0,445.0,4.0,418.0,402.384
402394.0,352.0,428.0,4.0,411.0,402.394
402404.0,362.0,443.0,4.0,423.0,402.404
402414.0,372.0,456.0,4.0,432.0,402.414
402424.0,362.0,433.0,3.0,421.0,402.424
402434.0,364.0,446.0,3.0,420.0,402.434
402444.0,353.0,429.0,3.0,410.0,402.444
402454.0,363.0,444.0,4.0,423.0,402.454
402464.0,373.0,457.0,3.0,431.0,402.464
402475.0,361.0,432.0,4.0,420.0,402.475
402485.0,360.0,438.0,4.0,418.0,402.485
402495.0,359.0,438.0,3.0,422.0,402.495
402505.0,367.0,442.0,4.0,430.0,402.505
402515.0,370.0,448.0,4.0,431.0,402.515
402525.0,361.0,431.0,4.0,421.0,402.525
402535.0,359.0,436.0,3.0,420.0,402.535
402545.0,361.0,439.0,4.0,426.0,402.545
402555.0,366.0,444.0,4.0,430.0,402.555
402565.0,373.0,450.0,4.0,433.0,402.565
402575.0,360.0,432.0,3.0,418.0,402.575
402585.0,359.0,436.0,4.0,417.0,402.585
402595.0,362.0,441.0,2.0,426.0,402.595
402605.0,364.0,444.0,4.0,427.0,402.605
402615.0,370.0,448.0,3.0,429.0,402.615
402625.0,355.0,431.0,3.0,413.0,402.625
402635.0,355.0,434.0,3.0,414.0,402.635
402646.0,363.0,442.0,4.0,423.0,402.646
402656.0,364.0,443.0,4.0,424.0,402.656
402666.0,363.0,440.0,4.0,421.0,402.666
402676.0,349.0,423.0,3.0,409.0,402.676
402686.0,357.0,438.0,3.0,421.0,402.686
402696.0,363.0,443.0,3.0,427.0,402.696
402706.0,363.0,441.0,4.0,424.0,402.706
402716.0,362.0,438.0,3.0,419.0,402.716
402726.0,349.0,425.0,3.0,406.0,402.726
402736.0,356.0,435.0,4.0,414.0,402.736
402746.0,364.0,447.0,3.0,428.0,402.746
402756.0,363.0,444.0,4.0,424.0,402.756
402766.0,361.0,440.0,3.0,421.0,402.766
402776.0,352.0,429.0,4.0,411.0,402.776
402786.0,354.0,436.0,2.0,415.0,402.786
402796.0,364.0,444.0,3.0,424.0,402.796
402806.0,363.0,441.0,4.0,419.0,402.806
402816.0,369.0,442.0,3.0,419.0,402.816
402826.0,368.0,435.0,3.0,407.0,402.826
402836.0,378.0,447.0,5.0,417.0,402.836
402846.0,388.0,456.0,10.0,432.0,402.846
402856.0,378.0,447.0,15.0,421.0,402.856
402866.0,378.0,448.0,16.0,423.0,402.866
402876.0,364.0,432.0,41.0,406.0,402.876
402886.0,370.0,447.0,35.0,421.0,402.886
402896.0,387.0,457.0,63.0,435.0,402.896
402906.0,381.0,454.0,86.0,428.0,402.906
402916.0,379.0,445.0,88.0,422.0,402.916
402926.0,362.0,431.0,129.0,405.0,402.926
402936.0,368.0,445.0,125.0,422.0,402.936
402946.0,373.0,449.0,161.0,427.0,402.946
402956.0,369.0,453.0,207.0,427.0,402.956
402966.0,369.0,449.0,198.0,429.0,402.966
402976.0,354.0,436.0,249.0,409.0,402.976
402987.0,365.0,448.0,257.0,419.0,402.987
402997.0,377.0,457.0,282.0,432.0,402.997
403007.0,365.0,445.0,333.0,416.0,403.007
403017.0,363.0,443.0,316.0,417.0,403.017
403027.0,357.0,437.0,368.0,413.0,403.027
403037.0,359.0,442.0,386.0,414.0,403.037
403047.0,368.0,450.0,395.0,428.0,403.047
403057.0,357.0,440.0,452.0,415.0,403.057
403067.0,356.0,438.0,430.0,417.0,403.067
403077.0,348.0,428.0,484.0,412.0,403.077
403087.0,361.0,444.0,494.0,422.0,403.087
403097.0,367.0,446.0,492.0,428.0,403.097
403107.0,350.0,426.0,539.0,405.0,403.107
403117.0,356.0,432.0,512.0,411.0,403.117
403127.0,348.0,429.0,558.0,406.0,403.127
403137.0,362.0,445.0,569.0,417.0,403.137
403147.0,370.0,451.0,556.0,424.0,403.147
403158.0,360.0,438.0,611.0,409.0,403.158
403168.0,357.0,442.0,583.0,412.0,403.168
403178.0,362.0,449.0,609.0,422.0,403.178
403188.0,363.0,451.0,629.0,420.0,403.188
403198.0,366.0,448.0,601.0,420.0,403.198
403208.0,361.0,444.0,651.0,411.0,403.208
403218.0,365.0,447.0,622.0,411.0,403.218
403228.0,369.0,456.0,637.0,424.0,403.228
403238.0,372.0,455.0,661.0,423.0,403.238
403248.0,376.0,456.0,630.0,425.0,403.248
403258.0,361.0,438.0,668.0,408.0,403.258
403268.0,364.0,445.0,642.0,414.0,403.268
403278.0,373.0,453.0,657.0,423.0,403.278
403288.0,369.0,453.0,667.0,418.0,403.288
403298.0,374.0,453.0,637.0,417.0,403.298
403308.0,359.0,438.0,667.0,404.0,403.308
403318.0,364.0,448.0,654.0,415.0,403.318
403328.0,366.0,450.0,664.0,420.0,403.328
403338.0,376.0,459.0,668.0,428.0,403.338
403348.0,381.0,462.0,647.0,428.0,403.348
403358.0,363.0,441.0,667.0,406.0,403.358
403368.0,368.0,450.0,656.0,416.0,403.368
403378.0,376.0,456.0,663.0,421.0,403.378
403388.0,379.0,455.0,668.0,418.0,403.388
403398.0,378.0,451.0,636.0,415.0,403.398
403408.0,365.0,438.0,668.0,402.0,403.408
403418.0,368.0,446.0,632.0,411.0,403.418
403428.0,371.0,453.0,650.0,426.0,403.428
403438.0,371.0,451.0,657.0,428.0,403.438
403448.0,370.0,447.0,618.0,420.0,403.448
403458.0,359.0,434.0,653.0,407.0,403.458
403468.0,363.0,437.0,621.0,411.0,403.468
403478.0,369.0,447.0,639.0,424.0,403.478
403488.0,371.0,449.0,652.0,421.0,403.488
403499.0,368.0,448.0,613.0,419.0,403.499
403509.0,357.0,434.0,644.0,412.0,403.509
403519.0,369.0,452.0,637.0,438.0,403.519
403529.0,384.0,465.0,628.0,448.0,403.529
403539.0,373.0,450.0,643.0,436.0,403.539
403549.0,374.0,452.0,604.0,436.0,403.549
403559.0,361.0,439.0,626.0,427.0,403.559
403569.0,372.0,456.0,620.0,442.0,403.569
403579.0,381.0,464.0,611.0,448.0,403.579
403589.0,375.0,457.0,630.0,445.0,403.589
403599.0,375.0,455.0,596.0,444.0,403.599
403609.0,363.0,446.0,617.0,436.0,403.609
403619.0,375.0,463.0,612.0,450.0,403.619
403629.0,378.0,460.0,607.0,451.0,403.629
403639.0,374.0,451.0,614.0,451.0,403.639
403649.0,372.0,447.0,586.0,454.0,403.649
403659.0,361.0,436.0,591.0,440.0,403.659
403670.0,365.0,447.0,578.0,442.0,403.67
403680.0,374.0,453.0,570.0,446.0,403.68
403690.0,363.0,441.0,586.0,438.0,403.69
403700.0,365.0,447.0,566.0,441.0,403.7
403710.0,368.0,453.0,583.0,456.0,403.71
403720.0,372.0,460.0,584.0,459.0,403.72
403730.0,378.0,462.0,560.0,456.0,403.73
403740.0,362.0,443.0,563.0,442.0,403.74
403750.0,361.0,445.0,535.0,443.0,403.75
403760.0,358.0,439.0,549.0,443.0,403.76
403770.0,368.0,453.0,549.0,447.0,403.77
403780.0,377.0,459.0,542.0,457.0,403.78
403790.0,362.0,435.0,539.0,437.0,403.79
403800.0,364.0,440.0,518.0,436.0,403.8
403810.0,356.0,434.0,513.0,430.0,403.81
403820.0,365.0,445.0,511.0,438.0,403.82
403830.0,376.0,450.0,506.0,445.0,403.83
403840.0,366.0,442.0,509.0,441.0,403.84
403850.0,367.0,442.0,489.0,434.0,403.85
403860.0,363.0,441.0,487.0,431.0,403.86
403870.0,370.0,447.0,485.0,437.0,403.87
403880.0,373.0,449.0,471.0,435.0,403.88
403890.0,364.0,439.0,478.0,432.0,403.89
403900.0,364.0,442.0,467.0,434.0,403.9
403910.0,364.0,441.0,471.0,438.0,403.91
403920.0,370.0,450.0,470.0,438.0,403.92
403930.0,377.0,458.0,471.0,441.0,403.93
403940.0,362.0,441.0,462.0,435.0,403.94
403950.0,358.0,438.0,445.0,429.0,403.95
403960.0,361.0,444.0,453.0,438.0,403.96
403970.0,366.0,448.0,454.0,444.0,403.97
403980.0,376.0,452.0,463.0,457.0,403.98
403990.0,361.0,438.0,447.0,441.0,403.99
404000.0,362.0,443.0,445.0,443.0,404.0
404011.0,366.0,450.0,447.0,448.0,404.011
404021.0,370.0,455.0,448.0,455.0,404.021
404031.0,371.0,456.0,443.0,448.0,404.031
404041.0,363.0,442.0,429.0,442.0,404.041
404051.0,372.0,460.0,437.0,458.0,404.051
404061.0,380.0,465.0,440.0,465.0,404.061
404071.0,380.0,467.0,434.0,460.0,404.071
404081.0,379.0,459.0,434.0,451.0,404.081
404091.0,365.0,444.0,408.0,439.0,404.091
404101.0,370.0,453.0,410.0,443.0,404.101
404111.0,378.0,463.0,421.0,458.0,404.111
404121.0,378.0,462.0,409.0,451.0,404.121
404131.0,374.0,454.0,403.0,441.0,404.131
404141.0,365.0,443.0,382.0,428.0,404.141
404151.0,366.0,448.0,388.0,436.0,404.151
404161.0,376.0,457.0,396.0,442.0,404.161
404171.0,372.0,454.0,384.0,436.0,404.171
404182.0,368.0,446.0,389.0,429.0,404.182
404192.0,356.0,436.0,368.0,417.0,404.192
404202.0,367.0,454.0,386.0,429.0,404.202
404212.0,375.0,458.0,405.0,440.0,404.212
404222.0,362.0,447.0,385.0,436.0,404.222
404232.0,364.0,446.0,400.0,437.0,404.232
404242.0,356.0,436.0,378.0,432.0,404.242
404252.0,367.0,452.0,394.0,445.0,404.252
404262.0,375.0,454.0,402.0,443.0,404.262
404272.0,367.0,444.0,376.0,434.0,404.272
404282.0,367.0,442.0,391.0,431.0,404.282
404292.0,360.0,432.0,370.0,432.0,404.292
404302.0,368.0,449.0,390.0,450.0,404.302
404312.0,377.0,456.0,415.0,466.0,404.312
404322.0,368.0,453.0,404.0,459.0,404.322
404332.0,367.0,448.0,423.0,452.0,404.332
404342.0,368.0,447.0,408.0,449.0,404.342
404352.0,371.0,452.0,415.0,450.0,404.352
404362.0,381.0,459.0,432.0,461.0,404.362
404372.0,371.0,446.0,407.0,452.0,404.372
404382.0,370.0,444.0,429.0,446.0,404.382
404392.0,365.0,435.0,406.0,440.0,404.392
404402.0,365.0,439.0,410.0,438.0,404.402
404412.0,372.0,445.0,427.0,446.0,404.412
404422.0,361.0,431.0,402.0,432.0,404.422
404432.0,360.0,435.0,423.0,431.0,404.432
404442.0,356.0,426.0,395.0,430.0,404.442
404452.0,368.0,445.0,413.0,436.0,404.452
404462.0,377.0,452.0,432.0,437.0,404.462
404472.0,365.0,436.0,402.0,421.0,404.472
404482.0,367.0,441.0,437.0,422.0,404.482
404492.0,360.0,435.0,411.0,422.0,404.492
404502.0,371.0,447.0,432.0,429.0,404.502
404512.0,382.0,456.0,449.0,439.0,404.512
404523.0,371.0,440.0,429.0,425.0,404.523
404533.0,368.0,441.0,455.0,422.0,404.533
404543.0,371.0,442.0,441.0,424.0,404.543
404553.0,372.0,443.0,444.0,420.0,404.553
404563.0,372.0,441.0,472.0,418.0,404.563
404573.0,366.0,435.0,444.0,419.0,404.573
404583.0,366.0,443.0,474.0,424.0,404.583
404593.0,372.0,449.0,459.0,434.0,404.593
404603.0,373.0,448.0,457.0,429.0,404.603
404613.0,380.0,453.0,475.0,431.0,404.613
404623.0,365.0,434.0,442.0,412.0,404.623
404633.0,364.0,437.0,467.0,412.0,404.633
404643.0,371.0,448.0,459.0,421.0,404.643
404653.0,372.0,447.0,464.0,424.0,404.653
404663.0,377.0,449.0,475.0,427.0,404.663
404673.0,365.0,432.0,451.0,413.0,404.673
404683.0,365.0,438.0,480.0,418.0,404.683
404694.0,376.0,449.0,472.0,433.0,404.694
404704.0,375.0,448.0,469.0,428.0,404.704
404714.0,373.0,446.0,488.0,425.0,404.714
404724.0,361.0,431.0,464.0,415.0,404.724
404734.0,372.0,445.0,490.0,428.0,404.734
404744.0,377.0,451.0,477.0,436.0,404.744
404754.0,375.0,445.0,473.0,431.0,404.754
404764.0,373.0,448.0,487.0,429.0,404.764
404774.0,362.0,431.0,466.0,420.0,404.774
404784.0,367.0,443.0,492.0,430.0,404.784
404794.0,378.0,453.0,477.0,442.0,404.794
404804.0,374.0,443.0,472.0,437.0,404.804
404814.0,372.0,445.0,485.0,433.0,404.814
404824.0,364.0,433.0,475.0,425.0,404.824
404834.0,369.0,444.0,494.0,435.0,404.834
404844.0,379.0,457.0,496.0,449.0,404.844
404854.0,374.0,445.0,506.0,438.0,404.854
404864.0,374.0,443.0,511.0,430.0,404.864
404874.0,360.0,427.0,516.0,413.0,404.874
404884.0,367.0,443.0,516.0,427.0,404.884
404894.0,377.0,451.0,515.0,438.0,404.894
404904.0,372.0,446.0,511.0,433.0,404.904
404914.0,372.0,445.0,505.0,434.0,404.914
404924.0,361.0,433.0,501.0,423.0,404.924
404934.0,368.0,448.0,491.0,435.0,404.934
404944.0,379.0,457.0,484.0,444.0,404.944
404954.0,373.0,451.0,475.0,434.0,404.954
404964.0,370.0,448.0,464.0,427.0,404.964
404974.0,360.0,432.0,455.0,422.0,404.974
404984.0,372.0,450.0,445.0,436.0,404.984
404994.0,375.0,455.0,435.0,441.0,404.994
405004.0,373.0,452.0,423.0,437.0,405.004
405014.0,371.0,450.0,412.0,435.0,405.014
405024.0,362.0,440.0,402.0,437.0,405.024
405035.0,372.0,456.0,389.0,454.0,405.035
405045.0,382.0,462.0,380.0,461.0,405.045
405055.0,371.0,446.0,368.0,447.0,405.055
405065.0,368.0,446.0,356.0,442.0,405.065
405075.0,369.0,447.0,347.0,452.0,405.075
405085.0,373.0,454.0,336.0,455.0,405.085
405095.0,381.0,460.0,326.0,459.0,405.095
405105.0,369.0,446.0,315.0,452.0,405.105
405115.0,367.0,447.0,305.0,448.0,405.115
405125.0,361.0,440.0,296.0,446.0,405.125
405135.0,371.0,453.0,285.0,456.0,405.135
405145.0,378.0,460.0,275.0,459.0,405.145
405155.0,366.0,440.0,266.0,447.0,405.155
405165.0,367.0,447.0,256.0,446.0,405.165
405175.0,364.0,440.0,249.0,447.0,405.175
405185.0,372.0,452.0,238.0,455.0,405.185
405195.0,378.0,457.0,230.0,454.0,405.195
405206.0,365.0,437.0,221.0,442.0,405.206
405216.0,364.0,440.0,212.0,441.0,405.216
405226.0,371.0,447.0,204.0,450.0,405.226
405236.0,373.0,447.0,197.0,452.0,405.236
405246.0,372.0,445.0,187.0,446.0,405.246
405256.0,365.0,433.0,182.0,441.0,405.256
405266.0,365.0,439.0,173.0,442.0,405.266
405276.0,373.0,450.0,167.0,450.0,405.276
405286.0,375.0,448.0,159.0,452.0,405.286
405296.0,377.0,451.0,153.0,450.0,405.296
405306.0,365.0,434.0,147.0,437.0,405.306
405316.0,366.0,441.0,140.0,443.0,405.316
405326.0,376.0,452.0,134.0,452.0,405.326
405336.0,375.0,449.0,128.0,451.0,405.336
405346.0,376.0,447.0,122.0,446.0,405.346
405356.0,364.0,429.0,117.0,433.0,405.356
405366.0,367.0,439.0,112.0,437.0,405.366
405376.0,371.0,443.0,106.0,443.0,405.376
405386.0,374.0,445.0,101.0,446.0,405.386
405396.0,373.0,445.0,96.0,441.0,405.396
405406.0,362.0,426.0,92.0,428.0,405.406
405416.0,365.0,437.0,87.0,432.0,405.416
405426.0,372.0,443.0,84.0,439.0,405.426
405436.0,374.0,444.0,79.0,438.0,405.436
405446.0,372.0,444.0,75.0,432.0,405.446
405456.0,362.0,428.0,70.0,425.0,405.456
405466.0,365.0,436.0,68.0,428.0,405.466
405476.0,373.0,447.0,64.0,440.0,405.476
405486.0,374.0,446.0,61.0,440.0,405.486
405496.0,372.0,443.0,57.0,433.0,405.496
405506.0,365.0,433.0,54.0,427.0,405.506
405516.0,366.0,439.0,52.0,430.0,405.516
405526.0,374.0,451.0,49.0,440.0,405.526
405536.0,375.0,448.0,46.0,440.0,405.536
405547.0,372.0,446.0,42.0,435.0,405.547
405557.0,363.0,431.0,41.0,425.0,405.557
405567.0,370.0,446.0,37.0,438.0,405.567
405577.0,380.0,456.0,34.0,446.0,405.577
405587.0,372.0,440.0,32.0,433.0,405.587
405597.0,372.0,443.0,30.0,431.0,405.597
405607.0,361.0,430.0,28.0,422.0,405.607
405617.0,372.0,446.0,26.0,436.0,405.617
405627.0,380.0,455.0,23.0,445.0,405.627
405637.0,373.0,442.0,22.0,436.0,405.637
405647.0,370.0,443.0,20.0,431.0,405.647
405657.0,362.0,431.0,19.0,428.0,405.657
405667.0,371.0,447.0,17.0,440.0,405.667
405677.0,378.0,453.0,16.0,443.0,405.677
405687.0,372.0,441.0,14.0,438.0,405.687
405697.0,369.0,443.0,13.0,434.0,405.697
405707.0,363.0,433.0,11.0,430.0,405.707
405718.0,372.0,446.0,11.0,439.0,405.718
405728.0,379.0,452.0,10.0,442.0,405.728
405738.0,365.0,432.0,10.0,425.0,405.738
405748.0,365.0,436.0,9.0,424.0,405.748
405758.0,369.0,442.0,8.0,432.0,405.758
405768.0,372.0,444.0,8.0,435.0,405.768
405778.0,379.0,454.0,7.0,439.0,405.778
405788.0,365.0,430.0,7.0,424.0,405.788
405798.0,363.0,438.0,5.0,425.0,405.798
405808.0,366.0,439.0,7.0,431.0,405.808
405818.0,373.0,450.0,6.0,440.0,405.818
405828.0,377.0,453.0,6.0,439.0,405.828
405838.0,363.0,434.0,6.0,426.0,405.838
405848.0,365.0,442.0,6.0,428.0,405.848
405858.0,365.0,440.0,5.0,433.0,405.858
405868.0,372.0,448.0,6.0,439.0,405.868
405878.0,374.0,448.0,4.0,436.0,405.878
405888.0,366.0,436.0,5.0,430.0,405.888
405898.0,364.0,441.0,5.0,428.0,405.898
405908.0,366.0,442.0,5.0,431.0,405.908
405918.0,371.0,448.0,4.0,438.0,405.918
405928.0,372.0,450.0,5.0,435.0,405.928
405938.0,365.0,435.0,4.0,427.0,405.938
405948.0,363.0,441.0,4.0,425.0,405.948
405958.0,367.0,447.0,4.0,435.0,405.958
405968.0,371.0,449.0,4.0,437.0,405.968
405978.0,377.0,454.0,5.0,438.0,405.978
405988.0,364.0,433.0,5.0,426.0,405.988
405998.0,364.0,439.0,5.0,426.0,405.998
406008.0,369.0,447.0,4.0,434.0,406.008
406018.0,371.0,447.0,5.0,436.0,406.018
406028.0,376.0,455.0,3.0,439.0,406.028
406038.0,363.0,433.0,4.0,424.0,406.038
406048.0,362.0,439.0,4.0,424.0,406.048
406059.0,370.0,450.0,5.0,434.0,406.059
406069.0,371.0,445.0,4.0,434.0,406.069
406079.0,371.0,446.0,5.0,430.0,406.079
406089.0,357.0,429.0,3.0,420.0,406.089
406099.0,366.0,442.0,4.0,431.0,406.099
406109.0,371.0,451.0,4.0,437.0,406.109
406119.0,371.0,442.0,5.0,431.0,406.119
406129.0,367.0,444.0,4.0,424.0,406.129
406139.0,354.0,425.0,4.0,412.0,406.139
406149.0,359.0,436.0,4.0,420.0,406.149
406159.0,369.0,449.0,4.0,432.0,406.159
406169.0,367.0,439.0,3.0,429.0,406.169
406179.0,365.0,441.0,5.0,424.0,406.179
406189.0,358.0,425.0,4.0,415.0,406.189
406199.0,361.0,437.0,4.0,424.0,406.199
406209.0,372.0,451.0,4.0,437.0,406.209
406219.0,368.0,437.0,4.0,430.0,406.219
406230.0,365.0,441.0,4.0,425.0,406.23
406240.0,356.0,428.0,4.0,418.0,406.24
406250.0,369.0,444.0,4.0,433.0,406.25
406260.0,376.0,454.0,4.0,439.0,406.26
406270.0,364.0,433.0,4.0,425.0,406.27
406280.0,365.0,442.0,3.0,427.0,406.28
406290.0,359.0,432.0,4.0,424.0,406.29
406300.0,369.0,446.0,3.0,435.0,406.3
406310.0,377.0,453.0,4.0,440.0,406.31
406320.0,368.0,438.0,3.0,430.0,406.32
406330.0,365.0,438.0,4.0,425.0,406.33
406340.0,360.0,433.0,3.0,421.0,406.34
406350.0,369.0,445.0,4.0,431.0,406.35
406360.0,375.0,452.0,3.0,436.0,406.36
406370.0,367.0,436.0,5.0,422.0,406.37
406380.0,364.0,439.0,4.0,419.0,406.38
406390.0,360.0,435.0,4.0,420.0,406.39
406400.0,366.0,443.0,4.0,427.0,406.4
406410.0,376.0,454.0,3.0,438.0,406.41
406420.0,366.0,436.0,4.0,423.0,406.42
406430.0,364.0,439.0,4.0,421.0,406.43
406440.0,362.0,437.0,4.0,424.0,406.44
406450.0,368.0,444.0,4.0,434.0,406.45
406460.0,376.0,456.0,3.0,439.0,406.46
406470.0,364.0,436.0,4.0,425.0,406.47
406480.0,363.0,439.0,4.0,423.0,406.48
406490.0,359.0,434.0,4.0,422.0,406.49
406500.0,369.0,448.0,5.0,433.0,406.5
406510.0,376.0,456.0,3.0,438.0,406.51
406520.0,365.0,434.0,5.0,423.0,406.52
406530.0,365.0,443.0,2.0,425.0,406.53
406540.0,359.0,434.0,3.0,420.0,406.54
406550.0,368.0,445.0,4.0,431.0,406.55
406560.0,376.0,452.0,5.0,435.0,406.56
406571.0,362.0,429.0,4.0,420.0,406.571
406581.0,362.0,436.0,4.0,420.0,406.581
406591.0,367.0,444.0,3.0,431.0,406.591
406601.0,370.0,443.0,4.0,433.0,406.601
406611.0,369.0,445.0,4.0,429.0,406.611
406621.0,361.0,429.0,4.0,418.0,406.621
406631.0,361.0,437.0,4.0,420.0,406.631
406641.0,368.0,446.0,4.0,431.0,406.641
406651.0,369.0,442.0,4.0,430.0,406.651
406661.0,373.0,450.0,3.0,429.0,406.661
406671.0,360.0,430.0,4.0,416.0,406.671
406681.0,360.0,437.0,4.0,419.0,406.681
406691.0,370.0,448.0,4.0,431.0,406.691
406701.0,370.0,446.0,4.0,431.0,406.701
406711.0,372.0,449.0,4.0,430.0,406.711
406721.0,359.0,430.0,4.0,415.0,406.721
406731.0,361.0,438.0,4.0,420.0,406.731
406742.0,371.0,451.0,4.0,433.0,406.742
406752.0,369.0,439.0,5.0,428.0,406.752
406762.0,366.0,441.0,2.0,424.0,406.762
406772.0,355.0,425.0,4.0,413.0,406.772
406782.0,366.0,442.0,3.0,431.0,406.782
406792.0,371.0,450.0,4.0,436.0,406.792
406802.0,369.0,435.0,4.0,430.0,406.802
406812.0,367.0,441.0,4.0,427.0,406.812
406822.0,357.0,427.0,4.0,419.0,406.822
406832.0,362.0,436.0,4.0,426.0,406.832
406842.0,373.0,449.0,4.0,436.0,406.842
406852.0,368.0,436.0,3.0,428.0,406.852
406862.0,366.0,442.0,4.0,425.0,406.862
406872.0,357.0,425.0,4.0,415.0,406.872
406882.0,364.0,440.0,4.0,426.0,406.882
406892.0,373.0,451.0,3.0,435.0,406.892
406902.0,366.0,437.0,3.0,425.0,406.902
406912.0,367.0,443.0,3.0,425.0,406.912
406922.0,356.0,424.0,4.0,410.0,406.922
406932.0,365.0,440.0,4.0,424.0,406.932
406942.0,377.0,451.0,5.0,435.0,406.942
406952.0,368.0,437.0,4.0,424.0,406.952
406962.0,369.0,442.0,4.0,422.0,406.962
406972.0,358.0,429.0,3.0,410.0,406.972
406982.0,367.0,444.0,4.0,423.0,406.982
406992.0,377.0,454.0,3.0,433.0,406.992
407002.0,370.0,444.0,4.0,424.0,407.002
407012.0,368.0,443.0,4.0,421.0,407.012
407022.0,359.0,428.0,5.0,412.0,407.022
407032.0,369.0,445.0,4.0,426.0,407.032
407042.0,375.0,450.0,3.0,430.0,407.042
407052.0,371.0,440.0,4.0,424.0,407.052
407062.0,368.0,442.0,4.0,422.0,407.062
407072.0,361.0,431.0,4.0,414.0,407.072
407083.0,370.0,446.0,4.0,428.0,407.083
407093.0,378.0,453.0,4.0,434.0,407.093
407103.0,367.0,435.0,3.0,419.0,407.103
407113.0,364.0,436.0,4.0,418.0,407.113
407123.0,367.0,439.0,4.0,424.0,407.123
407133.0,371.0,445.0,4.0,425.0,407.133
407143.0,376.0,450.0,4.0,430.0,407.143
407153.0,365.0,432.0,3.0,416.0,407.153
407163.0,363.0,437.0,4.0,416.0,407.163
407173.0,363.0,433.0,4.0,417.0,407.173
407183.0,370.0,445.0,3.0,427.0,407.183
407193.0,375.0,449.0,3.0,430.0,407.193
407203.0,364.0,432.0,4.0,418.0,407.203
407213.0,366.0,437.0,4.0,420.0,407.213
407223.0,364.0,437.0,3.0,421.0,407.223
407233.0,372.0,445.0,3.0,428.0,407.233
407243.0,376.0,448.0,4.0,429.0,407.243
407254.0,364.0,430.0,3.0,415.0,407.254
407264.0,363.0,438.0,4.0,417.0,407.264
407274.0,373.0,448.0,3.0,430.0,407.274
407284.0,374.0,446.0,4.0,429.0,407.284
407294.0,371.0,445.0,3.0,425.0,407.294
407304.0,364.0,431.0,4.0,416.0,407.304
407314.0,365.0,440.0,4.0,422.0,407.314
407324.0,375.0,450.0,4.0,432.0,407.324
407334.0,372.0,444.0,4.0,429.0,407.334
407344.0,373.0,448.0,4.0,430.0,407.344
407354.0,362.0,429.0,4.0,415.0,407.354
407364.0,365.0,441.0,4.0,423.0,407.364
407374.0,375.0,452.0,4.0,434.0,407.374
407384.0,374.0,448.0,4.0,431.0,407.384
407394.0,372.0,446.0,4.0,426.0,407.394
407404.0,361.0,428.0,4.0,413.0,407.404
407414.0,365.0,441.0,3.0,422.0,407.414
407424.0,371.0,444.0,4.0,426.0,407.424
407434.0,373.0,445.0,4.0,427.0,407.434
407444.0,373.0,443.0,5.0,424.0,407.444
407454.0,360.0,427.0,4.0,411.0,407.454
407464.0,367.0,441.0,4.0,423.0,407.464
407474.0,373.0,448.0,3.0,431.0,407.474
407484.0,374.0,446.0,3.0,429.0,407.484
407494.0,371.0,445.0,4.0,425.0,407.494
407504.0,360.0,427.0,5.0,411.0,407.504
407514.0,364.0,438.0,4.0,418.0,407.514
407524.0,374.0,447.0,4.0,430.0,407.524
407534.0,372.0,443.0,3.0,426.0,407.534
407544.0,369.0,442.0,3.0,421.0,407.544
407554.0,363.0,428.0,4.0,412.0,407.554
407564.0,365.0,439.0,4.0,420.0,407.564
407574.0,376.0,451.0,4.0,432.0,407.574
407584.0,373.0,446.0,4.0,427.0,407.584
407595.0,371.0,444.0,4.0,423.0,407.595
407605.0,361.0,431.0,3.0,417.0,407.605
407615.0,371.0,446.0,4.0,429.0,407.615
407625.0,380.0,454.0,4.0,436.0,407.625
407635.0,369.0,438.0,4.0,421.0,407.635
407645.0,370.0,444.0,4.0,422.0,407.645
407655.0,362.0,431.0,4.0,416.0,407.655
407665.0,371.0,447.0,3.0,427.0,407.665
407675.0,379.0,451.0,4.0,431.0,407.675
407685.0,371.0,441.0,3.0,424.0,407.685
407695.0,368.0,441.0,4.0,418.0,407.695
407705.0,361.0,432.0,4.0,414.0,407.705
407715.0,370.0,448.0,4.0,427.0,407.715
407725.0,376.0,453.0,3.0,434.0,407.725
407735.0,369.0,441.0,3.0,424.0,407.735
407745.0,367.0,440.0,4.0,421.0,407.745
407755.0,362.0,434.0,4.0,418.0,407.755
407766.0,371.0,448.0,4.0,428.0,407.766
407776.0,376.0,448.0,4.0,430.0,407.776
407786.0,365.0,435.0,4.0,418.0,407.786
407796.0,363.0,439.0,3.0,416.0,407.796
407806.0,371.0,446.0,4.0,426.0,407.806
407816.0,372.0,447.0,3.0,427.0,407.816
407826.0,376.0,445.0,4.0,427.0,407.826
407836.0,363.0,430.0,4.0,414.0,407.836
407846.0,364.0,435.0,4.0,418.0,407.846
407856.0,366.0,437.0,2.0,422.0,407.856
407866.0,371.0,448.0,3.0,429.0,407.866
407876.0,374.0,446.0,3.0,430.0,407.876
407886.0,363.0,433.0,5.0,417.0,407.886
407896.0,365.0,438.0,4.0,420.0,407.896
407906.0,367.0,440.0,4.0,425.0,407.906
407916.0,372.0,450.0,3.0,430.0,407.916
407926.0,373.0,445.0,4.0,426.0,407.926
407936.0,366.0,437.0,3.0,421.0,407.936
407946.0,365.0,436.0,4.0,419.0,407.946
407956.0,370.0,443.0,3.0,430.0,407.956
407966.0,374.0,449.0,5.0,433.0,407.966
407976.0,374.0,444.0,4.0,430.0,407.976
407986.0,367.0,439.0,3.0,421.0,407.986
407996.0,366.0,440.0,4.0,421.0,407.996
408006.0,372.0,448.0,4.0,431.0,408.006
408016.0,376.0,452.0,4.0,433.0,408.016
408026.0,379.0,452.0,2.0,434.0,408.026
408036.0,366.0,437.0,4.0,420.0,408.036
408046.0,366.0,442.0,3.0,422.0,408.046
408056.0,374.0,451.0,4.0,433.0,408.056
408066.0,375.0,453.0,3.0,434.0,408.066
408076.0,378.0,450.0,4.0,432.0,408.076
408086.0,365.0,435.0,4.0,420.0,408.086
408096.0,365.0,441.0,3.0,423.0,408.096
408107.0,374.0,451.0,3.0,435.0,408.107
408117.0,373.0,446.0,3.0,432.0,408.117
408127.0,371.0,445.0,4.0,428.0,408.127
408137.0,361.0,431.0,4.0,419.0,408.137
408147.0,369.0,446.0,2.0,431.0,408.147
408157.0,375.0,450.0,3.0,438.0,408.157
408167.0,373.0,448.0,4.0,434.0,408.167
408177.0,369.0,443.0,4.0,428.0,408.177
408187.0,361.0,432.0,4.0,419.0,408.187
408197.0,365.0,442.0,5.0,426.0,408.197
408207.0,377.0,453.0,4.0,436.0,408.207
408217.0,373.0,449.0,3.0,431.0,408.217
408227.0,369.0,444.0,4.0,424.0,408.227
408237.0,361.0,430.0,3.0,414.0,408.237
408247.0,366.0,441.0,4.0,424.0,408.247
408257.0,376.0,450.0,3.0,436.0,408.257
408267.0,372.0,442.0,4.0,428.0,408.267
408278.0,368.0,439.0,4.0,423.0,408.278
408288.0,361.0,433.0,4.0,419.0,408.288
408298.0,371.0,447.0,3.0,431.0,408.298
408308.0,378.0,450.0,4.0,435.0,408.308
408318.0,365.0,435.0,4.0,419.0,408.318
408328.0,368.0,440.0,4.0,422.0,408.328
408338.0,363.0,435.0,2.0,421.0,408.338
408348.0,371.0,448.0,3.0,430.0,408.348
408358.0,377.0,451.0,3.0,434.0,408.358
408368.0,369.0,438.0,3.0,427.0,408.368
408378.0,367.0,439.0,4.0,424.0,408.378
408388.0,365.0,435.0,4.0,424.0,408.388
408398.0,372.0,446.0,3.0,433.0,408.398
408408.0,378.0,453.0,4.0,438.0,408.408
408418.0,368.0,437.0,3.0,428.0,408.418
408428.0,366.0,438.0,3.0,424.0,408.428
408438.0,366.0,436.0,4.0,425.0,408.438
408448.0,369.0,443.0,4.0,429.0,408.448
408458.0,378.0,451.0,4.0,436.0,408.458
408468.0,368.0,435.0,3.0,425.0,408.468
408478.0,365.0,439.0,4.0,423.0,408.478
408488.0,367.0,441.0,3.0,427.0,408.488
408498.0,372.0,446.0,4.0,431.0,408.498
408508.0,379.0,450.0,3.0,437.0,408.508
408518.0,368.0,433.0,4.0,424.0,408.518
408528.0,365.0,435.0,3.0,423.0,408.528
408538.0,362.0,431.0,4.0,423.0,408.538
408548.0,372.0,445.0,3.0,434.0,408.548
408558.0,378.0,449.0,4.0,437.0,408.558
408568.0,367.0,430.0,5.0,423.0,408.568
408578.0,367.0,438.0,4.0,425.0,408.578
408588.0,364.0,432.0,4.0,424.0,408.588
408598.0,372.0,444.0,4.0,433.0,408.598
408608.0,377.0,450.0,3.0,436.0,408.608
408619.0,365.0,430.0,4.0,423.0,408.619
408629.0,364.0,435.0,3.0,425.0,408.629
408639.0,373.0,447.0,4.0,437.0,408.639
408649.0,375.0,447.0,4.0,436.0,408.649
408659.0,372.0,444.0,3.0,431.0,408.659
408669.0,365.0,432.0,4.0,423.0,408.669
408679.0,365.0,437.0,3.0,425.0,408.679
408689.0,374.0,448.0,3.0,437.0,408.689
408699.0,374.0,444.0,3.0,435.0,408.699
408709.0,377.0,448.0,4.0,433.0,408.709
408719.0,364.0,429.0,4.0,421.0,408.719
408729.0,365.0,437.0,4.0,426.0,408.729
408739.0,375.0,450.0,3.0,438.0,408.739
408749.0,373.0,443.0,3.0,435.0,408.749
408759.0,373.0,445.0,3.0,432.0,408.759
408769.0,363.0,427.0,4.0,419.0,408.769
408779.0,365.0,436.0,4.0,427.0,408.779
408790.0,376.0,449.0,5.0,438.0,408.79
408800.0,372.0,443.0,3.0,433.0,408.8
408810.0,369.0,441.0,3.0,429.0,408.81
408820.0,361.0,429.0,3.0,422.0,408.82
408830.0,371.0,444.0,5.0,434.0,408.83
408840.0,376.0,449.0,4.0,438.0,408.84
408850.0,371.0,441.0,4.0,429.0,408.85
408860.0,368.0,440.0,4.0,426.0,408.86
408870.0,360.0,432.0,3.0,420.0,408.87
408880.0,365.0,441.0,3.0,426.0,408.88
408890.0,376.0,451.0,4.0,437.0,408.89
408900.0,370.0,444.0,4.0,429.0,408.9
408910.0,367.0,442.0,3.0,427.0,408.91
408920.0,359.0,430.0,4.0,418.0,408.92
408930.0,367.0,446.0,3.0,430.0,408.93
408940.0,376.0,453.0,3.0,439.0,408.94
408950.0,369.0,443.0,4.0,428.0,408.95
408960.0,371.0,443.0,4.0,428.0,408.96
408970.0,359.0,432.0,4.0,417.0,408.97
408980.0,369.0,447.0,3.0,432.0,408.98
408990.0,379.0,455.0,3.0,440.0,408.99
409000.0,369.0,441.0,4.0,428.0,409.0
409010.0,369.0,446.0,3.0,428.0,409.01
409020.0,361.0,433.0,5.0,419.0,409.02
409030.0,371.0,449.0,3.0,432.0,409.03
409040.0,380.0,456.0,5.0,439.0,409.04
409050.0,372.0,444.0,4.0,430.0,409.05
409060.0,369.0,444.0,3.0,427.0,409.06
409070.0,361.0,432.0,4.0,419.0,409.07
409080.0,371.0,447.0,3.0,432.0,409.08
409090.0,377.0,454.0,4.0,437.0,409.09
409100.0,371.0,440.0,3.0,427.0,409.1
409110.0,368.0,442.0,4.0,423.0,409.11
409120.0,362.0,434.0,3.0,419.0,409.12
409131.0,372.0,448.0,3.0,432.0,409.131
409141.0,379.0,453.0,3.0,438.0,409.141
409151.0,367.0,434.0,4.0,423.0,409.151
409161.0,364.0,438.0,4.0,422.0,409.161
409171.0,370.0,445.0,4.0,432.0,409.171
409181.0,372.0,448.0,3.0,433.0,409.181
409191.0,378.0,450.0,7.0,434.0,409.191
409201.0,364.0,432.0,9.0,419.0,409.201
409211.0,364.0,435.0,9.0,419.0,409.211
409221.0,364.0,436.0,12.0,423.0,409.221
409231.0,373.0,446.0,11.0,431.0,409.231
409241.0,376.0,449.0,15.0,431.0,409.241
409251.0,362.0,429.0,20.0,417.0,409.251
409261.0,364.0,437.0,19.0,421.0,409.261
409271.0,365.0,437.0,27.0,426.0,409.271
409281.0,373.0,445.0,23.0,433.0,409.281
409291.0,375.0,447.0,30.0,431.0,409.291
409302.0,362.0,428.0,37.0,419.0,409.302
409312.0,363.0,437.0,33.0,423.0,409.312
409322.0,373.0,449.0,41.0,434.0,409.322
409332.0,371.0,441.0,45.0,432.0,409.332
409342.0,369.0,443.0,45.0,429.0,409.342
409352.0,360.0,428.0,55.0,418.0,409.352
409362.0,364.0,440.0,48.0,427.0,409.362
409372.0,374.0,451.0,58.0,437.0,409.372
409382.0,371.0,442.0,63.0,431.0,409.382
409392.0,372.0,445.0,60.0,430.0,409.392
409402.0,363.0,429.0,72.0,416.0,409.402
409412.0,366.0,441.0,62.0,427.0,409.412
409422.0,376.0,451.0,72.0,436.0,409.422
409432.0,373.0,450.0,76.0,431.0,409.432
409442.0,372.0,445.0,74.0,428.0,409.442
409452.0,360.0,429.0,87.0,415.0,409.452
409462.0,368.0,443.0,77.0,425.0,409.462
409472.0,372.0,448.0,90.0,431.0,409.472
409482.0,374.0,447.0,96.0,429.0,409.482
409492.0,372.0,445.0,90.0,427.0,409.492
409502.0,359.0,430.0,107.0,415.0,409.502
409512.0,369.0,447.0,93.0,428.0,409.512
409522.0,375.0,453.0,109.0,434.0,409.522
409532.0,375.0,450.0,115.0,431.0,409.532
409542.0,371.0,447.0,107.0,427.0,409.542
409552.0,361.0,433.0,122.0,416.0,409.552
409562.0,366.0,443.0,108.0,422.0,409.562
409572.0,376.0,452.0,122.0,434.0,409.572
409582.0,373.0,447.0,134.0,429.0,409.582
409592.0,370.0,445.0,123.0,425.0,409.592
409602.0,362.0,430.0,140.0,414.0,409.602
409612.0,366.0,441.0,125.0,422.0,409.612
409622.0,376.0,453.0,141.0,434.0,409.622
409632.0,371.0,443.0,153.0,427.0,409.632
409643.0,368.0,442.0,141.0,423.0,409.643
409653.0,361.0,430.0,159.0,415.0,409.653
409663.0,369.0,443.0,152.0,428.0,409.663
409673.0,379.0,451.0,159.0,436.0,409.673
409683.0,367.0,433.0,174.0,425.0,409.683
409693.0,368.0,440.0,161.0,427.0,409.693
409703.0,362.0,431.0,177.0,422.0,409.703
409713.0,372.0,444.0,177.0,433.0,409.713
409723.0,379.0,451.0,178.0,439.0,409.723
409733.0,370.0,437.0,194.0,428.0,409.733
409743.0,368.0,439.0,178.0,426.0,409.743
409753.0,365.0,433.0,195.0,424.0,409.753
409763.0,373.0,444.0,197.0,433.0,409.763
409773.0,379.0,451.0,197.0,438.0,409.773
409783.0,372.0,435.0,213.0,427.0,409.783
409793.0,368.0,438.0,198.0,423.0,409.793
409803.0,366.0,434.0,212.0,423.0,409.803
409814.0,372.0,443.0,219.0,429.0,409.814
409824.0,377.0,445.0,212.0,429.0,409.824
409834.0,364.0,429.0,229.0,417.0,409.834
409844.0,365.0,435.0,213.0,419.0,409.844
409854.0,373.0,447.0,230.0,431.0,409.854
409864.0,374.0,445.0,243.0,430.0,409.864
409874.0,376.0,450.0,234.0,430.0,409.874
409884.0,363.0,430.0,253.0,417.0,409.884
409894.0,363.0,435.0,236.0,419.0,409.894
409904.0,368.0,439.0,254.0,424.0,409.904
409914.0,373.0,444.0,264.0,429.0,409.914
409924.0,373.0,443.0,253.0,426.0,409.924
409934.0,361.0,426.0,270.0,414.0,409.934
409944.0,365.0,435.0,253.0,418.0,409.944
409954.0,370.0,441.0,272.0,427.0,409.954
409964.0,374.0,444.0,286.0,430.0,409.964
409974.0,373.0,445.0,273.0,427.0,409.974
409984.0,366.0,431.0,293.0,422.0,409.984
409994.0,365.0,437.0,273.0,423.0,409.994
410004.0,371.0,447.0,290.0,432.0,410.004
410014.0,373.0,445.0,304.0,434.0,410.014
410024.0,372.0,446.0,289.0,430.0,410.024
410034.0,365.0,431.0,308.0,421.0,410.034
410044.0,362.0,438.0,289.0,422.0,410.044
410054.0,372.0,449.0,306.0,433.0,410.054
410064.0,373.0,447.0,319.0,431.0,410.064
410074.0,375.0,450.0,304.0,430.0,410.074
410084.0,362.0,433.0,319.0,417.0,410.084
410094.0,364.0,438.0,304.0,420.0,410.094
410104.0,372.0,449.0,316.0,432.0,410.104
410114.0,372.0,446.0,331.0,431.0,410.114
410124.0,374.0,449.0,317.0,429.0,410.124
410134.0,361.0,429.0,330.0,418.0,410.134
410144.0,364.0,436.0,317.0,424.0,410.144
410155.0,374.0,448.0,331.0,436.0,410.155
410165.0,371.0,439.0,345.0,431.0,410.165
410175.0,369.0,440.0,329.0,426.0,410.175
410185.0,360.0,427.0,339.0,419.0,410.185
410195.0,370.0,443.0,343.0,431.0,410.195
410205.0,375.0,449.0,341.0,436.0,410.205
410215.0,372.0,439.0,358.0,431.0,410.215
410225.0,370.0,441.0,341.0,427.0,410.225
410235.0,360.0,429.0,352.0,422.0,410.235
410245.0,366.0,439.0,349.0,428.0,410.245
410255.0,376.0,452.0,352.0,438.0,410.255
410265.0,370.0,439.0,369.0,432.0,410.265
410275.0,367.0,441.0,349.0,427.0,410.275
410285.0,360.0,426.0,365.0,419.0,410.285
410295.0,367.0,443.0,363.0,432.0,410.295
410305.0,377.0,453.0,364.0,439.0,410.305
410315.0,369.0,440.0,379.0,431.0,410.315
410326.0,367.0,440.0,363.0,427.0,410.326
410336.0,362.0,435.0,373.0,426.0,410.336
410346.0,372.0,446.0,383.0,434.0,410.346
410356.0,377.0,450.0,373.0,438.0,410.356
410366.0,364.0,433.0,386.0,425.0,410.366
410376.0,366.0,442.0,371.0,428.0,410.376
410386.0,364.0,438.0,381.0,425.0,410.386
410396.0,371.0,447.0,391.0,433.0,410.396
410406.0,377.0,449.0,382.0,433.0,410.406
410416.0,369.0,438.0,395.0,427.0,410.416
410426.0,366.0,440.0,377.0,424.0,410.426
410436.0,365.0,439.0,389.0,428.0,410.436
410446.0,372.0,448.0,401.0,434.0,410.446
410456.0,379.0,453.0,393.0,439.0,410.456
410466.0,367.0,437.0,403.0,427.0,410.466
410476.0,365.0,439.0,388.0,425.0,410.476
410486.0,367.0,441.0,398.0,431.0,410.486
410496.0,371.0,447.0,406.0,435.0,410.496
410506.0,379.0,454.0,401.0,440.0,410.506
410516.0,367.0,434.0,409.0,426.0,410.516
410526.0,365.0,438.0,395.0,424.0,410.526
410536.0,370.0,443.0,407.0,433.0,410.536
410546.0,372.0,447.0,417.0,437.0,410.546
410556.0,379.0,454.0,411.0,439.0,410.556
410566.0,366.0,437.0,417.0,427.0,410.566
410576.0,365.0,441.0,404.0,425.0,410.576
410586.0,364.0,439.0,413.0,427.0,410.586
410596.0,372.0,449.0,425.0,436.0,410.596
410606.0,378.0,453.0,417.0,438.0,410.606
410616.0,363.0,432.0,423.0,424.0,410.616
410626.0,364.0,439.0,409.0,424.0,410.626
410636.0,363.0,438.0,418.0,426.0,410.636
410646.0,370.0,447.0,430.0,435.0,410.646
410656.0,375.0,448.0,426.0,436.0,410.656
410667.0,363.0,431.0,429.0,423.0,410.667
410677.0,362.0,437.0,416.0,423.0,410.677
410687.0,371.0,448.0,425.0,436.0,410.687
410697.0,371.0,445.0,436.0,434.0,410.697
410707.0,369.0,445.0,421.0,428.0,410.707
410717.0,360.0,430.0,429.0,420.0,410.717
410727.0,363.0,438.0,422.0,425.0,410.727
410737.0,373.0,449.0,429.0,437.0,410.737
410747.0,371.0,443.0,441.0,433.0,410.747
410757.0,372.0,447.0,428.0,431.0,410.757
410767.0,360.0,428.0,433.0,418.0,410.767
410777.0,363.0,438.0,426.0,425.0,410.777
410787.0,375.0,450.0,434.0,436.0,410.787
410797.0,372.0,447.0,444.0,434.0,410.797
410807.0,371.0,444.0,430.0,431.0,410.807
410817.0,359.0,430.0,435.0,420.0,410.817
410827.0,363.0,440.0,432.0,427.0,410.827
410838.0,374.0,452.0,438.0,438.0,410.838
410848.0,369.0,441.0,446.0,429.0,410.848
410858.0,367.0,441.0,431.0,425.0,410.858
410868.0,359.0,431.0,437.0,422.0,410.868
410878.0,369.0,446.0,448.0,435.0,410.878
410888.0,374.0,451.0,444.0,440.0,410.888
410898.0,368.0,437.0,450.0,430.0,410.898
410908.0,365.0,440.0,435.0,427.0,410.908
410918.0,361.0,432.0,439.0,425.0,410.918
410928.0,365.0,441.0,443.0,431.0,410.928
410938.0,376.0,452.0,446.0,441.0,410.938
410948.0,368.0,438.0,452.0,433.0,410.948
410958.0,366.0,439.0,437.0,430.0,410.958
410968.0,358.0,428.0,441.0,424.0,410.968
410978.0,368.0,444.0,449.0,437.0,410.978
410988.0,377.0,454.0,451.0,445.0,410.988
410998.0,368.0,436.0,453.0,435.0,410.998
411008.0,368.0,442.0,438.0,433.0,411.008
411018.0,357.0,428.0,440.0,423.0,411.018
411028.0,368.0,443.0,448.0,436.0,411.028
411038.0,377.0,452.0,451.0,445.0,411.038
411048.0,366.0,435.0,449.0,432.0,411.048
411058.0,366.0,441.0,438.0,431.0,411.058
411068.0,358.0,430.0,443.0,428.0,411.068
411078.0,368.0,445.0,453.0,439.0,411.078
411088.0,377.0,453.0,454.0,445.0,411.088
411098.0,368.0,439.0,456.0,438.0,411.098
411108.0,367.0,441.0,443.0,432.0,411.108
411118.0,360.0,432.0,445.0,429.0,411.118
411128.0,369.0,446.0,456.0,440.0,411.128
411138.0,376.0,455.0,457.0,447.0,411.138
411148.0,368.0,438.0,458.0,435.0,411.148
