time (ms),signal 0,signal 1,signal 2,signal 3,time (sec)
488779.0,360.0,449.0,3.0,428.0,488.779
488790.0,349.0,421.0,4.0,411.0,488.79
488800.0,347.0,430.0,3.0,411.0,488.8
488810.0,350.0,435.0,3.0,418.0,488.81
488820.0,354.0,433.0,3.0,422.0,488.82
488830.0,355.0,442.0,4.0,418.0,488.83
488840.0,345.0,422.0,3.0,410.0,488.84
488850.0,346.0,430.0,4.0,412.0,488.85
488860.0,351.0,438.0,4.0,423.0,488.86
488870.0,354.0,437.0,4.0,423.0,488.87
488880.0,359.0,444.0,3.0,428.0,488.88
488890.0,346.0,422.0,3.0,411.0,488.89
488900.0,346.0,427.0,4.0,412.0,488.9
488910.0,353.0,435.0,5.0,422.0,488.91
488920.0,353.0,436.0,4.0,421.0,488.92
488930.0,358.0,436.0,3.0,422.0,488.93
488940.0,344.0,423.0,4.0,409.0,488.94
488950.0,346.0,427.0,3.0,412.0,488.95
488960.0,348.0,429.0,4.0,417.0,488.96
488970.0,354.0,440.0,3.0,423.0,488.97
488980.0,358.0,436.0,4.0,420.0,488.98
488990.0,344.0,426.0,4.0,407.0,488.99
489000.0,346.0,433.0,4.0,413.0,489.0
489010.0,349.0,437.0,3.0,419.0,489.01
489020.0,355.0,448.0,4.0,424.0,489.02
489030.0,357.0,442.0,3.0,421.0,489.03
489040.0,345.0,438.0,4.0,406.0,489.04
489050.0,348.0,442.0,4.0,411.0,489.05
489060.0,352.0,451.0,4.0,419.0,489.06
489070.0,355.0,465.0,3.0,423.0,489.07
489080.0,357.0,454.0,4.0,419.0,489.08
489090.0,348.0,460.0,3.0,410.0,489.09
489100.0,349.0,458.0,4.0,410.0,489.1
489110.0,355.0,468.0,4.0,419.0,489.11
489120.0,357.0,476.0,4.0,419.0,489.12
489131.0,356.0,463.0,4.0,416.0,489.131
489141.0,343.0,459.0,3.0,405.0,489.141
489151.0,350.0,468.0,3.0,417.0,489.151
489161.0,361.0,473.0,4.0,427.0,489.161
489171.0,354.0,472.0,4.0,417.0,489.171
489181.0,356.0,465.0,3.0,418.0,489.181
489191.0,343.0,458.0,4.0,407.0,489.191
489201.0,351.0,469.0,3.0,415.0,489.201
489211.0,361.0,473.0,3.0,427.0,489.211
489221.0,356.0,475.0,4.0,421.0,489.221
489231.0,357.0,464.0,4.0,418.0,489.231
489241.0,344.0,459.0,4.0,406.0,489.241
489251.0,352.0,469.0,3.0,418.0,489.251
489261.0,358.0,470.0,3.0,425.0,489.261
489271.0,356.0,470.0,3.0,420.0,489.271
489281.0,355.0,460.0,3.0,418.0,489.281
489291.0,345.0,451.0,5.0,413.0,489.291
489302.0,355.0,465.0,3.0,426.0,489.302
489312.0,364.0,466.0,4.0,433.0,489.312
489322.0,353.0,460.0,3.0,420.0,489.322
489332.0,352.0,455.0,3.0,418.0,489.332
489342.0,352.0,456.0,3.0,422.0,489.342
489352.0,357.0,464.0,4.0,427.0,489.352
489362.0,364.0,466.0,3.0,433.0,489.362
489372.0,352.0,452.0,4.0,419.0,489.372
489382.0,351.0,449.0,4.0,415.0,489.382
489392.0,345.0,442.0,3.0,409.0,489.392
489402.0,355.0,457.0,4.0,422.0,489.402
489412.0,363.0,455.0,4.0,427.0,489.412
489422.0,351.0,452.0,4.0,414.0,489.422
489432.0,352.0,450.0,3.0,417.0,489.432
489442.0,346.0,451.0,4.0,413.0,489.442
489452.0,355.0,470.0,3.0,423.0,489.452
489462.0,362.0,464.0,4.0,429.0,489.462
489472.0,353.0,474.0,3.0,421.0,489.472
489482.0,352.0,464.0,4.0,417.0,489.482
489492.0,348.0,469.0,4.0,416.0,489.492
489502.0,356.0,481.0,3.0,426.0,489.502
489512.0,362.0,474.0,3.0,429.0,489.512
489522.0,353.0,476.0,3.0,418.0,489.522
489532.0,351.0,468.0,3.0,416.0,489.532
489542.0,350.0,468.0,5.0,418.0,489.542
489552.0,357.0,481.0,3.0,428.0,489.552
489562.0,363.0,478.0,4.0,435.0,489.562
489572.0,353.0,473.0,3.0,421.0,489.572
489582.0,352.0,465.0,4.0,418.0,489.582
489592.0,352.0,467.0,3.0,422.0,489.592
489602.0,356.0,472.0,3.0,427.0,489.602
489612.0,365.0,470.0,4.0,433.0,489.612
489622.0,352.0,461.0,4.0,420.0,489.622
489632.0,350.0,455.0,4.0,418.0,489.632
489643.0,352.0,456.0,3.0,424.0,489.643
489653.0,358.0,464.0,4.0,428.0,489.653
489663.0,359.0,455.0,4.0,423.0,489.663
489673.0,347.0,445.0,3.0,411.0,489.673
489683.0,350.0,450.0,3.0,419.0,489.683
489693.0,355.0,452.0,4.0,425.0,489.693
489703.0,359.0,463.0,3.0,430.0,489.703
489713.0,360.0,451.0,3.0,426.0,489.713
489723.0,348.0,439.0,4.0,412.0,489.723
489733.0,351.0,446.0,4.0,418.0,489.733
489743.0,357.0,451.0,4.0,425.0,489.743
489753.0,359.0,456.0,4.0,422.0,489.753
489763.0,359.0,448.0,4.0,420.0,489.763
489773.0,351.0,442.0,3.0,411.0,489.773
489783.0,352.0,442.0,4.0,413.0,489.783
489793.0,359.0,450.0,3.0,424.0,489.793
489803.0,361.0,453.0,4.0,423.0,489.803
489814.0,358.0,445.0,3.0,419.0,489.814
489824.0,348.0,433.0,4.0,411.0,489.824
489834.0,355.0,448.0,3.0,424.0,489.834
489844.0,367.0,454.0,4.0,433.0,489.844
489854.0,359.0,451.0,3.0,423.0,489.854
489864.0,361.0,446.0,4.0,424.0,489.864
489874.0,350.0,435.0,4.0,413.0,489.874
489884.0,359.0,451.0,3.0,427.0,489.884
489894.0,368.0,456.0,3.0,437.0,489.894
489904.0,363.0,453.0,4.0,430.0,489.904
489914.0,359.0,445.0,3.0,424.0,489.914
489924.0,350.0,435.0,4.0,414.0,489.924
489934.0,360.0,450.0,4.0,429.0,489.934
489944.0,365.0,452.0,4.0,435.0,489.944
489954.0,362.0,450.0,4.0,430.0,489.954
489964.0,359.0,444.0,3.0,426.0,489.964
489974.0,352.0,433.0,3.0,420.0,489.974
489984.0,356.0,443.0,3.0,427.0,489.984
489994.0,366.0,451.0,5.0,437.0,489.994
490004.0,362.0,445.0,3.0,431.0,490.004
490014.0,358.0,439.0,4.0,428.0,490.014
490024.0,352.0,432.0,3.0,424.0,490.024
490034.0,357.0,439.0,3.0,431.0,490.034
490044.0,367.0,447.0,3.0,441.0,490.044
490054.0,364.0,441.0,5.0,433.0,490.054
490064.0,361.0,440.0,4.0,430.0,490.064
490074.0,352.0,427.0,3.0,422.0,490.074
490084.0,357.0,441.0,3.0,430.0,490.084
490094.0,367.0,447.0,4.0,438.0,490.094
490104.0,362.0,437.0,3.0,428.0,490.104
490114.0,363.0,441.0,4.0,428.0,490.114
490124.0,352.0,423.0,4.0,419.0,490.124
490134.0,361.0,438.0,3.0,430.0,490.134
490144.0,370.0,449.0,4.0,440.0,490.144
490155.0,360.0,430.0,4.0,424.0,490.155
490165.0,357.0,435.0,4.0,422.0,490.165
490175.0,357.0,433.0,4.0,428.0,490.175
490185.0,366.0,439.0,5.0,434.0,490.185
490195.0,370.0,445.0,3.0,435.0,490.195
490205.0,361.0,428.0,3.0,428.0,490.205
490215.0,359.0,432.0,3.0,424.0,490.215
490225.0,359.0,431.0,4.0,426.0,490.225
490235.0,361.0,439.0,4.0,429.0,490.235
490245.0,368.0,442.0,5.0,433.0,490.245
490255.0,357.0,434.0,4.0,423.0,490.255
490265.0,358.0,435.0,3.0,423.0,490.265
490275.0,359.0,439.0,3.0,428.0,490.275
490285.0,363.0,445.0,3.0,430.0,490.285
490295.0,371.0,447.0,4.0,436.0,490.295
490305.0,362.0,438.0,5.0,426.0,490.305
490315.0,362.0,438.0,3.0,426.0,490.315
490326.0,365.0,443.0,4.0,432.0,490.326
490336.0,371.0,453.0,4.0,440.0,490.336
490346.0,373.0,449.0,3.0,435.0,490.346
490356.0,363.0,435.0,4.0,420.0,490.356
490366.0,364.0,443.0,3.0,421.0,490.366
490376.0,367.0,447.0,4.0,427.0,490.376
490386.0,370.0,452.0,4.0,425.0,490.386
490396.0,369.0,446.0,3.0,422.0,490.396
490406.0,358.0,437.0,3.0,415.0,490.406
490416.0,362.0,444.0,4.0,419.0,490.416
490426.0,371.0,455.0,4.0,444.0,490.426
490436.0,375.0,459.0,4.0,446.0,490.436
490446.0,371.0,451.0,4.0,438.0,490.446
490456.0,364.0,444.0,4.0,435.0,490.456
490466.0,359.0,449.0,3.0,441.0,490.466
490476.0,370.0,456.0,4.0,477.0,490.476
490486.0,371.0,456.0,4.0,466.0,490.486
490496.0,373.0,454.0,4.0,460.0,490.496
490506.0,362.0,440.0,4.0,441.0,490.506
490516.0,364.0,447.0,4.0,445.0,490.516
490526.0,374.0,456.0,3.0,460.0,490.526
490536.0,372.0,456.0,3.0,449.0,490.536
490546.0,372.0,451.0,4.0,449.0,490.546
490556.0,363.0,439.0,3.0,437.0,490.556
490566.0,367.0,445.0,4.0,441.0,490.566
490576.0,376.0,457.0,3.0,455.0,490.576
490586.0,376.0,457.0,4.0,450.0,490.586
490596.0,374.0,450.0,3.0,441.0,490.596
490606.0,365.0,436.0,4.0,426.0,490.606
490616.0,369.0,449.0,3.0,436.0,490.616
490626.0,377.0,455.0,5.0,442.0,490.626
490636.0,381.0,462.0,2.0,449.0,490.636
490646.0,380.0,456.0,5.0,448.0,490.646
490656.0,369.0,441.0,3.0,433.0,490.656
490667.0,372.0,450.0,4.0,437.0,490.667
490677.0,382.0,460.0,4.0,450.0,490.677
490687.0,380.0,456.0,3.0,451.0,490.687
490697.0,377.0,454.0,4.0,448.0,490.697
490707.0,371.0,444.0,5.0,443.0,490.707
490717.0,377.0,452.0,4.0,448.0,490.717
490727.0,385.0,458.0,3.0,456.0,490.727
490737.0,377.0,445.0,4.0,440.0,490.737
490747.0,375.0,445.0,5.0,435.0,490.747
490757.0,367.0,435.0,4.0,427.0,490.757
490767.0,375.0,452.0,3.0,441.0,490.767
490777.0,385.0,462.0,4.0,449.0,490.777
490787.0,375.0,443.0,3.0,436.0,490.787
490797.0,374.0,446.0,3.0,435.0,490.797
490807.0,365.0,433.0,4.0,427.0,490.807
490817.0,375.0,449.0,4.0,438.0,490.817
490827.0,382.0,458.0,3.0,444.0,490.827
490838.0,376.0,442.0,4.0,430.0,490.838
490848.0,374.0,443.0,3.0,427.0,490.848
490858.0,371.0,440.0,4.0,424.0,490.858
490868.0,377.0,444.0,3.0,431.0,490.868
490878.0,382.0,449.0,4.0,433.0,490.878
490888.0,376.0,435.0,4.0,425.0,490.888
490898.0,374.0,441.0,3.0,425.0,490.898
490908.0,375.0,444.0,3.0,428.0,490.908
490918.0,378.0,445.0,3.0,426.0,490.918
490928.0,383.0,455.0,4.0,429.0,490.928
490938.0,370.0,432.0,4.0,416.0,490.938
490948.0,368.0,438.0,4.0,417.0,490.948
490958.0,375.0,445.0,3.0,430.0,490.958
490968.0,378.0,449.0,4.0,439.0,490.968
490978.0,383.0,458.0,3.0,442.0,490.978
490988.0,370.0,437.0,4.0,424.0,490.988
490998.0,369.0,442.0,3.0,425.0,490.998
491008.0,368.0,440.0,4.0,432.0,491.008
491018.0,377.0,451.0,3.0,445.0,491.018
491028.0,382.0,456.0,4.0,445.0,491.028
491038.0,368.0,437.0,3.0,428.0,491.038
491048.0,367.0,440.0,4.0,425.0,491.048
491058.0,368.0,441.0,4.0,430.0,491.058
491068.0,377.0,452.0,4.0,438.0,491.068
491078.0,381.0,453.0,4.0,443.0,491.078
491088.0,370.0,434.0,5.0,429.0,491.088
491098.0,369.0,443.0,4.0,434.0,491.098
491108.0,368.0,442.0,4.0,436.0,491.108
491118.0,374.0,450.0,3.0,442.0,491.118
491128.0,375.0,450.0,4.0,436.0,491.128
491138.0,368.0,436.0,3.0,431.0,491.138
491148.0,366.0,442.0,4.0,426.0,491.148
491158.0,372.0,443.0,4.0,434.0,491.158
491168.0,378.0,449.0,3.0,447.0,491.168
491179.0,379.0,451.0,4.0,445.0,491.179
491189.0,368.0,433.0,3.0,432.0,491.189
491199.0,371.0,442.0,4.0,439.0,491.199
491209.0,380.0,455.0,4.0,448.0,491.209
491219.0,377.0,448.0,4.0,443.0,491.219
491229.0,378.0,451.0,3.0,441.0,491.229
491239.0,367.0,432.0,4.0,424.0,491.239
491249.0,372.0,442.0,4.0,432.0,491.249
491259.0,381.0,453.0,5.0,446.0,491.259
491269.0,374.0,446.0,2.0,438.0,491.269
491279.0,374.0,444.0,5.0,435.0,491.279
491289.0,362.0,428.0,3.0,423.0,491.289
491299.0,368.0,440.0,3.0,426.0,491.299
491309.0,374.0,447.0,3.0,436.0,491.309
491319.0,376.0,446.0,5.0,438.0,491.319
491329.0,375.0,446.0,3.0,437.0,491.329
491339.0,363.0,429.0,4.0,424.0,491.339
491350.0,371.0,445.0,4.0,436.0,491.35
491360.0,382.0,460.0,4.0,448.0,491.36
491370.0,375.0,440.0,4.0,437.0,491.37
491380.0,371.0,447.0,3.0,434.0,491.38
491390.0,370.0,442.0,3.0,430.0,491.39
491400.0,375.0,447.0,4.0,437.0,491.4
491410.0,384.0,474.0,4.0,448.0,491.41
491420.0,374.0,443.0,3.0,435.0,491.42
491430.0,371.0,471.0,4.0,432.0,491.43
491440.0,363.0,452.0,3.0,421.0,491.44
491450.0,375.0,473.0,5.0,437.0,491.45
491460.0,382.0,508.0,3.0,444.0,491.46
491470.0,372.0,470.0,4.0,427.0,491.47
491480.0,372.0,503.0,3.0,429.0,491.48
491490.0,364.0,477.0,4.0,422.0,491.49
491500.0,373.0,489.0,3.0,435.0,491.5
491510.0,382.0,518.0,4.0,443.0,491.51
491520.0,375.0,480.0,4.0,437.0,491.52
491530.0,370.0,503.0,4.0,439.0,491.53
491540.0,363.0,481.0,3.0,430.0,491.54
491550.0,373.0,487.0,4.0,441.0,491.55
491560.0,381.0,509.0,4.0,447.0,491.56
491570.0,373.0,470.0,4.0,435.0,491.57
491580.0,369.0,485.0,4.0,427.0,491.58
491590.0,362.0,469.0,2.0,420.0,491.59
491600.0,371.0,474.0,4.0,431.0,491.6
491610.0,378.0,492.0,3.0,439.0,491.61
491620.0,373.0,462.0,4.0,425.0,491.62
491630.0,370.0,471.0,4.0,421.0,491.63
491640.0,366.0,459.0,5.0,420.0,491.64
491650.0,372.0,465.0,3.0,429.0,491.65
491660.0,382.0,476.0,4.0,437.0,491.66
491670.0,373.0,454.0,3.0,427.0,491.67
491680.0,371.0,457.0,3.0,422.0,491.68
491691.0,368.0,451.0,3.0,421.0,491.691
491701.0,375.0,458.0,4.0,428.0,491.701
491711.0,378.0,461.0,4.0,431.0,491.711
491721.0,367.0,444.0,3.0,418.0,491.721
491731.0,367.0,449.0,3.0,424.0,491.731
491741.0,368.0,449.0,3.0,427.0,491.741
491751.0,376.0,458.0,4.0,436.0,491.751
491761.0,381.0,457.0,4.0,438.0,491.761
491771.0,369.0,444.0,4.0,426.0,491.771
491781.0,371.0,450.0,4.0,430.0,491.781
491791.0,372.0,451.0,4.0,434.0,491.791
491801.0,376.0,460.0,3.0,440.0,491.801
491811.0,375.0,453.0,4.0,438.0,491.811
491821.0,365.0,441.0,4.0,423.0,491.821
491831.0,366.0,444.0,5.0,423.0,491.831
491841.0,369.0,450.0,2.0,438.0,491.841
491851.0,374.0,455.0,3.0,439.0,491.851
491862.0,374.0,449.0,4.0,435.0,491.862
491872.0,365.0,436.0,3.0,419.0,491.872
491882.0,369.0,447.0,3.0,430.0,491.882
491892.0,379.0,456.0,5.0,444.0,491.892
491902.0,376.0,458.0,4.0,441.0,491.902
491912.0,379.0,454.0,3.0,445.0,491.912
491922.0,364.0,448.0,3.0,430.0,491.922
491932.0,370.0,460.0,3.0,438.0,491.932
491942.0,379.0,468.0,4.0,451.0,491.942
491952.0,375.0,479.0,4.0,447.0,491.952
491962.0,374.0,467.0,3.0,443.0,491.962
491972.0,364.0,471.0,4.0,431.0,491.972
491982.0,373.0,483.0,4.0,446.0,491.982
491992.0,379.0,488.0,3.0,451.0,491.992
492002.0,377.0,498.0,3.0,445.0,492.002
492012.0,376.0,486.0,4.0,445.0,492.012
492022.0,363.0,488.0,4.0,430.0,492.022
492032.0,367.0,493.0,3.0,437.0,492.032
492042.0,375.0,505.0,4.0,448.0,492.042
492052.0,375.0,513.0,3.0,446.0,492.052
492062.0,376.0,497.0,4.0,437.0,492.062
492072.0,364.0,497.0,4.0,426.0,492.072
492082.0,368.0,500.0,5.0,432.0,492.082
492092.0,378.0,507.0,3.0,448.0,492.092
492102.0,374.0,512.0,4.0,444.0,492.102
492112.0,374.0,500.0,4.0,443.0,492.112
492122.0,366.0,496.0,3.0,428.0,492.122
492132.0,372.0,502.0,3.0,441.0,492.132
492142.0,381.0,505.0,4.0,451.0,492.142
492152.0,376.0,505.0,4.0,444.0,492.152
492162.0,382.0,496.0,4.0,447.0,492.162
492172.0,367.0,486.0,4.0,432.0,492.172
492182.0,373.0,494.0,3.0,440.0,492.182
492192.0,383.0,498.0,4.0,451.0,492.192
492203.0,375.0,498.0,3.0,440.0,492.203
492213.0,375.0,487.0,5.0,437.0,492.213
492223.0,368.0,486.0,4.0,434.0,492.223
492233.0,377.0,497.0,4.0,442.0,492.233
492243.0,383.0,489.0,3.0,449.0,492.243
492253.0,374.0,495.0,4.0,438.0,492.253
492263.0,372.0,485.0,3.0,436.0,492.263
492273.0,367.0,488.0,4.0,433.0,492.273
492283.0,375.0,502.0,3.0,446.0,492.283
492293.0,380.0,498.0,4.0,449.0,492.293
492303.0,369.0,503.0,3.0,436.0,492.303
492313.0,365.0,492.0,4.0,434.0,492.313
492323.0,364.0,500.0,4.0,435.0,492.323
492333.0,370.0,511.0,4.0,446.0,492.333
492343.0,381.0,511.0,4.0,456.0,492.343
492353.0,369.0,511.0,4.0,441.0,492.353
492363.0,368.0,501.0,3.0,439.0,492.363
492374.0,366.0,504.0,3.0,441.0,492.374
492384.0,374.0,508.0,3.0,446.0,492.384
492394.0,377.0,498.0,4.0,446.0,492.394
492404.0,367.0,486.0,4.0,435.0,492.404
492414.0,367.0,484.0,4.0,439.0,492.414
492424.0,369.0,484.0,3.0,444.0,492.424
492434.0,376.0,487.0,3.0,448.0,492.434
492444.0,376.0,477.0,4.0,444.0,492.444
492454.0,364.0,460.0,4.0,435.0,492.454
492464.0,371.0,466.0,5.0,443.0,492.464
492474.0,370.0,468.0,2.0,446.0,492.474
492484.0,374.0,470.0,4.0,448.0,492.484
492494.0,376.0,466.0,3.0,447.0,492.494
492504.0,366.0,451.0,3.0,436.0,492.504
492514.0,365.0,453.0,4.0,437.0,492.514
492524.0,371.0,460.0,4.0,446.0,492.524
492534.0,374.0,463.0,4.0,446.0,492.534
492544.0,382.0,461.0,4.0,446.0,492.544
492554.0,367.0,448.0,4.0,430.0,492.554
492564.0,365.0,450.0,3.0,431.0,492.564
492574.0,373.0,460.0,3.0,443.0,492.574
492584.0,374.0,463.0,3.0,443.0,492.584
492594.0,379.0,460.0,4.0,445.0,492.594
492604.0,364.0,448.0,2.0,434.0,492.604
492614.0,367.0,452.0,4.0,436.0,492.614
492624.0,375.0,462.0,3.0,445.0,492.624
492634.0,373.0,461.0,4.0,441.0,492.634
492644.0,374.0,456.0,3.0,440.0,492.644
492654.0,363.0,443.0,5.0,428.0,492.654
492664.0,362.0,447.0,4.0,428.0,492.664
492674.0,365.0,451.0,4.0,434.0,492.674
492684.0,369.0,458.0,3.0,438.0,492.684
492694.0,370.0,451.0,4.0,435.0,492.694
492704.0,358.0,438.0,3.0,420.0,492.704
492715.0,360.0,444.0,3.0,424.0,492.715
492725.0,372.0,451.0,4.0,435.0,492.725
492735.0,368.0,459.0,3.0,431.0,492.735
492745.0,365.0,451.0,3.0,431.0,492.745
492755.0,355.0,448.0,3.0,421.0,492.755
492765.0,361.0,457.0,4.0,427.0,492.765
492775.0,370.0,464.0,4.0,438.0,492.775
492785.0,366.0,465.0,4.0,430.0,492.785
492795.0,362.0,456.0,4.0,426.0,492.795
492805.0,353.0,448.0,4.0,416.0,492.805
492815.0,358.0,458.0,3.0,427.0,492.815
492825.0,370.0,464.0,3.0,440.0,492.825
492835.0,364.0,460.0,3.0,430.0,492.835
492845.0,366.0,455.0,5.0,432.0,492.845
492855.0,355.0,442.0,2.0,417.0,492.855
492865.0,362.0,454.0,4.0,423.0,492.865
492875.0,370.0,462.0,3.0,433.0,492.875
492886.0,363.0,450.0,3.0,422.0,492.886
492896.0,359.0,446.0,4.0,419.0,492.896
492906.0,355.0,439.0,4.0,419.0,492.906
492916.0,363.0,446.0,4.0,427.0,492.916
492926.0,369.0,453.0,4.0,432.0,492.926
492936.0,361.0,434.0,4.0,424.0,492.936
492946.0,358.0,437.0,3.0,424.0,492.946
492956.0,356.0,432.0,4.0,423.0,492.956
492966.0,363.0,440.0,4.0,432.0,492.966
492976.0,369.0,450.0,4.0,435.0,492.976
492986.0,358.0,429.0,3.0,420.0,492.986
492996.0,356.0,435.0,4.0,417.0,492.996
493006.0,355.0,435.0,3.0,420.0,493.006
493016.0,359.0,439.0,4.0,426.0,493.016
493026.0,367.0,454.0,4.0,436.0,493.026
493036.0,357.0,428.0,4.0,422.0,493.036
493046.0,354.0,436.0,2.0,419.0,493.046
493056.0,351.0,427.0,5.0,416.0,493.056
493066.0,359.0,440.0,3.0,428.0,493.066
493076.0,367.0,454.0,3.0,432.0,493.076
493086.0,356.0,428.0,3.0,420.0,493.086
493096.0,351.0,436.0,4.0,419.0,493.096
493106.0,347.0,429.0,3.0,418.0,493.106
493116.0,357.0,440.0,3.0,428.0,493.116
493126.0,364.0,453.0,3.0,433.0,493.126
493136.0,353.0,424.0,3.0,419.0,493.136
493146.0,355.0,436.0,4.0,421.0,493.146
493156.0,351.0,430.0,4.0,419.0,493.156
493166.0,361.0,437.0,4.0,430.0,493.166
493176.0,366.0,454.0,4.0,433.0,493.176
493186.0,359.0,429.0,4.0,428.0,493.186
493196.0,356.0,441.0,3.0,425.0,493.196
493206.0,353.0,436.0,4.0,425.0,493.206
493216.0,362.0,441.0,3.0,434.0,493.216
493227.0,368.0,460.0,5.0,434.0,493.227
493237.0,354.0,429.0,4.0,420.0,493.237
493247.0,354.0,440.0,4.0,421.0,493.247
493257.0,362.0,455.0,3.0,433.0,493.257
493267.0,362.0,437.0,4.0,431.0,493.267
493277.0,365.0,462.0,4.0,431.0,493.277
493287.0,353.0,429.0,2.0,418.0,493.287
493297.0,353.0,443.0,4.0,421.0,493.297
493307.0,363.0,458.0,4.0,436.0,493.307
493317.0,362.0,444.0,3.0,436.0,493.317
493327.0,364.0,462.0,3.0,433.0,493.327
493337.0,352.0,430.0,4.0,419.0,493.337
493347.0,355.0,441.0,4.0,426.0,493.347
493357.0,360.0,449.0,4.0,433.0,493.357
493367.0,363.0,442.0,3.0,434.0,493.367
493377.0,363.0,457.0,4.0,431.0,493.377
493387.0,353.0,432.0,3.0,422.0,493.387
493398.0,357.0,445.0,4.0,431.0,493.398
493408.0,367.0,461.0,4.0,442.0,493.408
493418.0,363.0,439.0,4.0,433.0,493.418
493428.0,359.0,450.0,4.0,426.0,493.428
493438.0,349.0,433.0,3.0,417.0,493.438
493448.0,354.0,441.0,3.0,425.0,493.448
493458.0,365.0,459.0,4.0,434.0,493.458
493468.0,358.0,434.0,3.0,425.0,493.468
493478.0,357.0,448.0,5.0,421.0,493.478
493488.0,347.0,428.0,2.0,414.0,493.488
493498.0,355.0,443.0,4.0,424.0,493.498
493508.0,365.0,468.0,3.0,437.0,493.508
493518.0,358.0,437.0,3.0,426.0,493.518
493528.0,360.0,472.0,4.0,425.0,493.528
493538.0,348.0,445.0,4.0,416.0,493.538
493548.0,360.0,466.0,4.0,430.0,493.548
493558.0,366.0,491.0,3.0,436.0,493.558
493568.0,360.0,459.0,4.0,428.0,493.568
493578.0,359.0,487.0,3.0,419.0,493.578
493588.0,347.0,461.0,4.0,406.0,493.588
493598.0,360.0,476.0,4.0,424.0,493.598
493608.0,369.0,495.0,4.0,433.0,493.608
493618.0,361.0,463.0,3.0,425.0,493.618
493628.0,358.0,477.0,4.0,418.0,493.628
493638.0,349.0,456.0,3.0,413.0,493.638
493648.0,362.0,470.0,4.0,428.0,493.648
493658.0,365.0,478.0,3.0,430.0,493.658
493668.0,361.0,456.0,4.0,422.0,493.668
493678.0,360.0,464.0,4.0,421.0,493.678
493688.0,350.0,448.0,4.0,415.0,493.688
493698.0,358.0,456.0,4.0,423.0,493.698
493708.0,366.0,468.0,4.0,431.0,493.708
493718.0,358.0,444.0,4.0,421.0,493.718
493728.0,356.0,452.0,4.0,418.0,493.728
493739.0,349.0,440.0,4.0,415.0,493.739
493749.0,359.0,450.0,4.0,426.0,493.749
493759.0,365.0,463.0,3.0,431.0,493.759
493769.0,352.0,433.0,3.0,414.0,493.769
493779.0,352.0,442.0,4.0,414.0,493.779
493789.0,349.0,437.0,4.0,414.0,493.789
493799.0,357.0,445.0,4.0,425.0,493.799
493809.0,363.0,457.0,4.0,429.0,493.809
493819.0,349.0,429.0,4.0,414.0,493.819
493829.0,353.0,442.0,3.0,415.0,493.829
493839.0,350.0,436.0,3.0,414.0,493.839
493849.0,357.0,443.0,4.0,424.0,493.849
493859.0,365.0,454.0,4.0,428.0,493.859
493869.0,354.0,431.0,4.0,418.0,493.869
493879.0,353.0,438.0,3.0,415.0,493.879
493889.0,351.0,437.0,3.0,420.0,493.889
493899.0,359.0,439.0,3.0,429.0,493.899
493910.0,363.0,456.0,3.0,428.0,493.91
493920.0,351.0,427.0,4.0,416.0,493.92
493930.0,354.0,439.0,4.0,422.0,493.93
493940.0,362.0,453.0,3.0,430.0,493.94
493950.0,360.0,439.0,3.0,426.0,493.95
493960.0,362.0,452.0,3.0,425.0,493.96
493970.0,349.0,427.0,4.0,410.0,493.97
493980.0,352.0,436.0,3.0,417.0,493.98
493990.0,362.0,450.0,4.0,429.0,493.99
494000.0,358.0,440.0,4.0,428.0,494.0
494010.0,360.0,447.0,3.0,427.0,494.01
494020.0,346.0,424.0,3.0,412.0,494.02
494030.0,351.0,434.0,4.0,422.0,494.03
494040.0,355.0,441.0,3.0,428.0,494.04
494050.0,359.0,438.0,5.0,430.0,494.05
494060.0,359.0,442.0,4.0,427.0,494.06
494070.0,346.0,422.0,3.0,412.0,494.07
494080.0,350.0,435.0,3.0,418.0,494.08
494090.0,357.0,443.0,3.0,426.0,494.09
494100.0,359.0,439.0,3.0,431.0,494.1
494110.0,358.0,445.0,5.0,428.0,494.11
494120.0,345.0,422.0,4.0,415.0,494.12
494130.0,349.0,433.0,3.0,423.0,494.13
494140.0,358.0,446.0,4.0,434.0,494.14
494150.0,359.0,438.0,3.0,431.0,494.15
494160.0,358.0,443.0,4.0,429.0,494.16
494170.0,348.0,424.0,4.0,417.0,494.17
494180.0,351.0,433.0,5.0,420.0,494.18
494190.0,359.0,446.0,4.0,429.0,494.19
494200.0,357.0,435.0,4.0,423.0,494.2
494210.0,360.0,446.0,3.0,424.0,494.21
494220.0,346.0,423.0,4.0,410.0,494.22
494230.0,349.0,431.0,3.0,413.0,494.23
494240.0,361.0,452.0,5.0,425.0,494.24
494251.0,356.0,429.0,3.0,421.0,494.251
494261.0,355.0,451.0,4.0,417.0,494.261
494271.0,344.0,430.0,3.0,410.0,494.271
494281.0,354.0,444.0,3.0,423.0,494.281
494291.0,364.0,467.0,4.0,432.0,494.291
494301.0,356.0,435.0,5.0,425.0,494.301
494311.0,355.0,457.0,3.0,422.0,494.311
494321.0,345.0,440.0,4.0,414.0,494.321
494331.0,356.0,452.0,3.0,427.0,494.331
494341.0,361.0,471.0,3.0,431.0,494.341
494351.0,355.0,442.0,4.0,421.0,494.351
494361.0,353.0,457.0,4.0,418.0,494.361
494371.0,346.0,441.0,4.0,415.0,494.371
494381.0,351.0,448.0,2.0,420.0,494.381
494391.0,362.0,459.0,4.0,429.0,494.391
494401.0,355.0,441.0,4.0,420.0,494.401
494411.0,353.0,444.0,3.0,417.0,494.411
494422.0,348.0,434.0,4.0,412.0,494.422
494432.0,358.0,446.0,4.0,423.0,494.432
494442.0,363.0,445.0,4.0,424.0,494.442
494452.0,350.0,430.0,4.0,409.0,494.452
494462.0,350.0,435.0,3.0,412.0,494.462
494472.0,349.0,433.0,3.0,416.0,494.472
494482.0,357.0,447.0,4.0,425.0,494.482
494492.0,364.0,443.0,4.0,428.0,494.492
494502.0,349.0,437.0,4.0,415.0,494.502
494512.0,353.0,440.0,4.0,420.0,494.512
494522.0,351.0,442.0,4.0,422.0,494.522
494532.0,359.0,453.0,3.0,428.0,494.532
494542.0,363.0,449.0,4.0,429.0,494.542
494552.0,353.0,442.0,4.0,420.0,494.552
494562.0,353.0,439.0,4.0,415.0,494.562
494572.0,352.0,439.0,3.0,416.0,494.572
494582.0,358.0,443.0,4.0,423.0,494.582
494592.0,366.0,452.0,4.0,429.0,494.592
494602.0,353.0,432.0,4.0,413.0,494.602
494612.0,352.0,437.0,3.0,413.0,494.612
494622.0,355.0,442.0,5.0,419.0,494.622
494632.0,359.0,450.0,4.0,424.0,494.632
494642.0,366.0,450.0,4.0,428.0,494.642
494652.0,352.0,438.0,4.0,413.0,494.652
494662.0,351.0,438.0,4.0,413.0,494.662
494672.0,357.0,444.0,3.0,423.0,494.672
494682.0,358.0,448.0,4.0,421.0,494.682
494692.0,365.0,451.0,4.0,424.0,494.692
494702.0,351.0,430.0,4.0,407.0,494.702
494712.0,351.0,436.0,3.0,411.0,494.712
494722.0,351.0,434.0,3.0,413.0,494.722
494732.0,359.0,440.0,4.0,420.0,494.732
494742.0,364.0,446.0,4.0,423.0,494.742
494752.0,350.0,425.0,4.0,409.0,494.752
494763.0,350.0,431.0,4.0,412.0,494.763
494773.0,358.0,440.0,4.0,423.0,494.773
494783.0,358.0,438.0,3.0,425.0,494.783
494793.0,357.0,436.0,4.0,421.0,494.793
494803.0,344.0,422.0,4.0,406.0,494.803
494813.0,351.0,432.0,5.0,415.0,494.813
494823.0,362.0,446.0,4.0,432.0,494.823
494833.0,360.0,435.0,4.0,428.0,494.833
494843.0,358.0,441.0,3.0,427.0,494.843
494853.0,350.0,423.0,3.0,413.0,494.853
494863.0,353.0,432.0,3.0,419.0,494.863
494873.0,363.0,446.0,5.0,429.0,494.873
494883.0,360.0,429.0,4.0,424.0,494.883
494893.0,362.0,443.0,3.0,424.0,494.893
494903.0,348.0,422.0,3.0,413.0,494.903
494913.0,354.0,435.0,3.0,424.0,494.913
494923.0,364.0,450.0,3.0,434.0,494.923
494934.0,359.0,434.0,4.0,428.0,494.934
494944.0,358.0,438.0,4.0,427.0,494.944
494954.0,348.0,424.0,4.0,416.0,494.954
494964.0,358.0,437.0,4.0,429.0,494.964
494974.0,368.0,449.0,7.0,437.0,494.974
494984.0,360.0,432.0,7.0,428.0,494.984
494994.0,357.0,436.0,7.0,424.0,494.994
495004.0,351.0,426.0,11.0,417.0,495.004
495014.0,360.0,438.0,9.0,428.0,495.014
495024.0,367.0,449.0,15.0,435.0,495.024
495034.0,359.0,432.0,17.0,426.0,495.034
495044.0,356.0,436.0,17.0,421.0,495.044
495054.0,351.0,428.0,20.0,417.0,495.054
495064.0,358.0,436.0,19.0,421.0,495.064
495074.0,367.0,446.0,21.0,431.0,495.074
495084.0,358.0,430.0,23.0,420.0,495.084
495094.0,355.0,433.0,23.0,417.0,495.094
495104.0,347.0,418.0,28.0,409.0,495.104
495114.0,357.0,435.0,25.0,424.0,495.114
495124.0,367.0,447.0,33.0,435.0,495.124
495134.0,357.0,426.0,35.0,421.0,495.134
495144.0,356.0,431.0,32.0,421.0,495.144
495154.0,349.0,420.0,38.0,414.0,495.154
495164.0,359.0,435.0,32.0,427.0,495.164
495174.0,368.0,447.0,38.0,433.0,495.174
495184.0,357.0,425.0,43.0,420.0,495.184
495194.0,359.0,435.0,40.0,421.0,495.194
495204.0,350.0,423.0,46.0,416.0,495.204
495214.0,361.0,435.0,41.0,425.0,495.214
495224.0,367.0,447.0,48.0,431.0,495.224
495234.0,359.0,430.0,55.0,420.0,495.234
495244.0,357.0,434.0,51.0,419.0,495.244
495254.0,352.0,425.0,59.0,414.0,495.254
495264.0,361.0,438.0,49.0,427.0,495.264
495275.0,368.0,445.0,60.0,433.0,495.275
495285.0,354.0,427.0,67.0,419.0,495.285
495295.0,354.0,430.0,59.0,416.0,495.295
495305.0,360.0,437.0,69.0,428.0,495.305
495315.0,364.0,440.0,70.0,429.0,495.315
495325.0,368.0,446.0,69.0,429.0,495.325
495335.0,356.0,427.0,79.0,415.0,495.335
495345.0,355.0,430.0,69.0,417.0,495.345
495355.0,361.0,440.0,78.0,426.0,495.355
495365.0,364.0,438.0,77.0,426.0,495.365
495375.0,368.0,447.0,80.0,429.0,495.375
495385.0,356.0,423.0,91.0,414.0,495.385
495395.0,355.0,432.0,79.0,419.0,495.395
495405.0,357.0,433.0,93.0,420.0,495.405
495415.0,363.0,439.0,88.0,427.0,495.415
495425.0,367.0,443.0,91.0,428.0,495.425
495435.0,354.0,423.0,101.0,414.0,495.435
495446.0,356.0,431.0,90.0,418.0,495.446
495456.0,365.0,442.0,99.0,429.0,495.456
495466.0,364.0,435.0,107.0,424.0,495.466
495476.0,361.0,438.0,99.0,422.0,495.476
495486.0,351.0,421.0,112.0,413.0,495.486
495496.0,356.0,432.0,101.0,419.0,495.496
495506.0,366.0,445.0,110.0,430.0,495.506
495516.0,364.0,434.0,118.0,427.0,495.516
495526.0,361.0,441.0,109.0,423.0,495.526
495536.0,353.0,422.0,120.0,413.0,495.536
495546.0,356.0,435.0,107.0,419.0,495.546
495556.0,367.0,447.0,120.0,433.0,495.556
495566.0,363.0,435.0,127.0,425.0,495.566
495576.0,364.0,441.0,119.0,424.0,495.576
495586.0,352.0,423.0,131.0,410.0,495.586
495596.0,357.0,437.0,119.0,422.0,495.596
495606.0,367.0,451.0,130.0,433.0,495.606
495616.0,364.0,439.0,140.0,430.0,495.616
495626.0,364.0,440.0,133.0,430.0,495.626
495636.0,352.0,420.0,143.0,415.0,495.636
495646.0,358.0,435.0,130.0,426.0,495.646
495656.0,368.0,450.0,141.0,436.0,495.656
495666.0,364.0,436.0,150.0,430.0,495.666
495676.0,362.0,442.0,142.0,428.0,495.676
495686.0,351.0,421.0,153.0,414.0,495.686
495696.0,359.0,436.0,142.0,427.0,495.696
495706.0,364.0,444.0,152.0,430.0,495.706
495716.0,361.0,432.0,162.0,424.0,495.716
495726.0,359.0,437.0,153.0,420.0,495.726
495736.0,347.0,422.0,163.0,409.0,495.736
495746.0,353.0,431.0,153.0,416.0,495.746
495756.0,363.0,443.0,163.0,428.0,495.756
495766.0,361.0,433.0,174.0,423.0,495.766
495776.0,359.0,437.0,162.0,420.0,495.776
495787.0,349.0,423.0,173.0,413.0,495.787
495797.0,359.0,439.0,168.0,427.0,495.797
495807.0,368.0,451.0,172.0,438.0,495.807
495817.0,357.0,427.0,187.0,424.0,495.817
495827.0,357.0,435.0,177.0,423.0,495.827
495837.0,351.0,425.0,184.0,418.0,495.837
495847.0,360.0,439.0,182.0,430.0,495.847
495857.0,369.0,452.0,183.0,436.0,495.857
495867.0,357.0,427.0,195.0,421.0,495.867
495877.0,358.0,439.0,183.0,421.0,495.877
495887.0,351.0,426.0,194.0,418.0,495.887
495897.0,361.0,440.0,194.0,427.0,495.897
495907.0,368.0,450.0,190.0,431.0,495.907
495917.0,360.0,427.0,206.0,424.0,495.917
495927.0,358.0,437.0,193.0,421.0,495.927
495937.0,353.0,432.0,201.0,419.0,495.937
495947.0,361.0,440.0,201.0,429.0,495.947
495958.0,369.0,450.0,198.0,432.0,495.958
495968.0,354.0,425.0,208.0,420.0,495.968
495978.0,354.0,435.0,196.0,420.0,495.978
495988.0,360.0,444.0,204.0,430.0,495.988
495998.0,361.0,438.0,213.0,429.0,495.998
496008.0,366.0,451.0,203.0,429.0,496.008
496018.0,352.0,424.0,213.0,413.0,496.018
496028.0,352.0,433.0,200.0,416.0,496.028
496038.0,360.0,445.0,208.0,427.0,496.038
496048.0,359.0,437.0,213.0,425.0,496.048
496058.0,363.0,451.0,204.0,424.0,496.058
496068.0,349.0,422.0,211.0,411.0,496.068
496078.0,351.0,433.0,201.0,417.0,496.078
496088.0,354.0,439.0,206.0,422.0,496.088
496098.0,360.0,436.0,211.0,427.0,496.098
496108.0,362.0,458.0,202.0,426.0,496.108
496118.0,347.0,425.0,207.0,410.0,496.118
496128.0,352.0,442.0,199.0,418.0,496.128
496138.0,353.0,448.0,202.0,423.0,496.138
496148.0,359.0,439.0,209.0,429.0,496.148
496158.0,360.0,464.0,197.0,427.0,496.158
496168.0,346.0,431.0,199.0,412.0,496.168
496178.0,351.0,449.0,193.0,418.0,496.178
496188.0,355.0,456.0,193.0,426.0,496.188
496198.0,358.0,442.0,198.0,425.0,496.198
496208.0,360.0,464.0,189.0,421.0,496.208
496218.0,349.0,434.0,190.0,413.0,496.218
496228.0,349.0,447.0,183.0,415.0,496.228
496238.0,356.0,462.0,184.0,428.0,496.238
496248.0,357.0,445.0,188.0,425.0,496.248
496258.0,362.0,468.0,177.0,425.0,496.258
496268.0,347.0,434.0,180.0,414.0,496.268
496278.0,349.0,443.0,173.0,417.0,496.278
496288.0,356.0,457.0,170.0,428.0,496.288
496299.0,357.0,442.0,174.0,428.0,496.299
496309.0,356.0,456.0,163.0,424.0,496.309
496319.0,343.0,430.0,160.0,414.0,496.319
496329.0,353.0,444.0,157.0,427.0,496.329
496339.0,364.0,463.0,154.0,435.0,496.339
496349.0,357.0,439.0,156.0,431.0,496.349
496359.0,356.0,455.0,146.0,425.0,496.359
496369.0,343.0,432.0,141.0,418.0,496.369
496379.0,353.0,446.0,139.0,431.0,496.379
496389.0,360.0,459.0,133.0,438.0,496.389
496399.0,357.0,438.0,132.0,434.0,496.399
496409.0,355.0,453.0,124.0,427.0,496.409
496419.0,344.0,433.0,118.0,421.0,496.419
496429.0,351.0,445.0,118.0,429.0,496.429
496439.0,362.0,466.0,110.0,446.0,496.439
496449.0,357.0,439.0,108.0,437.0,496.449
496459.0,356.0,458.0,104.0,431.0,496.459
496470.0,345.0,440.0,97.0,425.0,496.47
496480.0,355.0,450.0,98.0,437.0,496.48
496490.0,364.0,475.0,93.0,444.0,496.49
496500.0,351.0,439.0,91.0,431.0,496.5
496510.0,351.0,453.0,89.0,429.0,496.51
496520.0,346.0,444.0,88.0,426.0,496.52
496530.0,356.0,452.0,86.0,438.0,496.53
496540.0,364.0,473.0,82.0,441.0,496.54
496550.0,351.0,437.0,81.0,430.0,496.55
496560.0,353.0,455.0,78.0,432.0,496.56
496570.0,347.0,444.0,76.0,431.0,496.57
496580.0,357.0,451.0,73.0,441.0,496.58
496590.0,365.0,468.0,71.0,443.0,496.59
496600.0,354.0,440.0,68.0,435.0,496.6
496610.0,354.0,451.0,65.0,431.0,496.61
496620.0,349.0,445.0,63.0,434.0,496.62
496630.0,358.0,448.0,60.0,442.0,496.63
496640.0,365.0,468.0,58.0,447.0,496.64
496650.0,354.0,440.0,57.0,435.0,496.65
496660.0,353.0,449.0,52.0,432.0,496.66
496670.0,351.0,444.0,50.0,433.0,496.67
496680.0,358.0,449.0,48.0,440.0,496.68
496690.0,364.0,459.0,45.0,443.0,496.69
496700.0,352.0,437.0,43.0,433.0,496.7
496710.0,352.0,442.0,41.0,429.0,496.71
496720.0,352.0,442.0,38.0,434.0,496.72
496730.0,355.0,446.0,36.0,440.0,496.73
496740.0,366.0,454.0,33.0,446.0,496.74
496750.0,350.0,434.0,31.0,432.0,496.75
496760.0,351.0,438.0,29.0,430.0,496.76
496770.0,345.0,433.0,27.0,430.0,496.77
496780.0,356.0,445.0,26.0,439.0,496.78
496790.0,364.0,455.0,21.0,445.0,496.79
496800.0,350.0,431.0,21.0,431.0,496.8
496811.0,350.0,438.0,18.0,430.0,496.811
496821.0,355.0,443.0,18.0,439.0,496.821
496831.0,357.0,440.0,16.0,439.0,496.831
496841.0,359.0,443.0,15.0,433.0,496.841
496851.0,344.0,423.0,13.0,422.0,496.851
496861.0,350.0,433.0,12.0,426.0,496.861
496871.0,355.0,442.0,11.0,438.0,496.871
496881.0,356.0,437.0,10.0,438.0,496.881
496891.0,357.0,441.0,9.0,432.0,496.891
496901.0,347.0,422.0,9.0,427.0,496.901
496911.0,348.0,430.0,8.0,427.0,496.911
496921.0,356.0,443.0,7.0,441.0,496.921
496931.0,356.0,435.0,7.0,439.0,496.931
496941.0,360.0,447.0,7.0,436.0,496.941
496951.0,347.0,424.0,7.0,424.0,496.951
496961.0,349.0,435.0,5.0,428.0,496.961
496971.0,359.0,449.0,7.0,440.0,496.971
496982.0,356.0,434.0,5.0,439.0,496.982
496992.0,356.0,441.0,6.0,435.0,496.992
497002.0,343.0,422.0,6.0,428.0,497.002
497012.0,354.0,436.0,5.0,437.0,497.012
497022.0,363.0,450.0,4.0,444.0,497.022
497032.0,356.0,432.0,6.0,438.0,497.032
497042.0,355.0,439.0,4.0,432.0,497.042
497052.0,344.0,424.0,4.0,425.0,497.052
497062.0,354.0,438.0,4.0,436.0,497.062
497072.0,360.0,451.0,4.0,439.0,497.072
497082.0,354.0,431.0,5.0,433.0,497.082
497092.0,353.0,440.0,4.0,428.0,497.092
497102.0,344.0,426.0,4.0,427.0,497.102
497112.0,350.0,435.0,4.0,428.0,497.112
497122.0,361.0,450.0,5.0,441.0,497.122
497132.0,355.0,432.0,3.0,437.0,497.132
497142.0,355.0,443.0,5.0,429.0,497.142
497152.0,344.0,424.0,3.0,421.0,497.152
497162.0,352.0,440.0,5.0,431.0,497.162
497172.0,362.0,454.0,4.0,442.0,497.172
497182.0,355.0,432.0,4.0,435.0,497.182
497192.0,354.0,442.0,3.0,431.0,497.192
497202.0,344.0,426.0,4.0,424.0,497.202
497212.0,353.0,440.0,4.0,435.0,497.212
497222.0,364.0,455.0,5.0,442.0,497.222
497232.0,355.0,432.0,4.0,436.0,497.232
497242.0,358.0,445.0,4.0,437.0,497.242
497252.0,345.0,427.0,3.0,428.0,497.252
497262.0,357.0,441.0,3.0,436.0,497.262
497272.0,365.0,457.0,4.0,442.0,497.272
497282.0,358.0,434.0,4.0,436.0,497.282
497292.0,357.0,444.0,4.0,433.0,497.292
497302.0,346.0,428.0,4.0,425.0,497.302
497312.0,357.0,441.0,4.0,437.0,497.312
497323.0,366.0,453.0,4.0,443.0,497.323
497333.0,354.0,430.0,4.0,431.0,497.333
497343.0,353.0,435.0,4.0,428.0,497.343
497353.0,354.0,437.0,5.0,432.0,497.353
497363.0,358.0,438.0,4.0,437.0,497.363
497373.0,366.0,453.0,4.0,441.0,497.373
497383.0,352.0,429.0,3.0,428.0,497.383
497393.0,352.0,433.0,4.0,423.0,497.393
497403.0,355.0,437.0,3.0,431.0,497.403
497413.0,358.0,439.0,4.0,432.0,497.413
497423.0,366.0,450.0,3.0,436.0,497.423
497433.0,352.0,426.0,3.0,425.0,497.433
497443.0,351.0,432.0,4.0,423.0,497.443
497453.0,349.0,428.0,4.0,426.0,497.453
497463.0,359.0,437.0,3.0,435.0,497.463
497473.0,364.0,454.0,4.0,437.0,497.473
497483.0,351.0,423.0,4.0,425.0,497.483
497494.0,351.0,433.0,4.0,425.0,497.494
497504.0,358.0,443.0,4.0,436.0,497.504
497514.0,360.0,439.0,3.0,440.0,497.514
497524.0,359.0,444.0,4.0,434.0,497.524
497534.0,346.0,422.0,4.0,422.0,497.534
497544.0,352.0,432.0,5.0,425.0,497.544
497554.0,359.0,444.0,4.0,436.0,497.554
497564.0,361.0,440.0,4.0,436.0,497.564
497574.0,358.0,440.0,3.0,430.0,497.574
497584.0,350.0,424.0,4.0,422.0,497.584
497594.0,351.0,430.0,4.0,424.0,497.594
497604.0,360.0,442.0,4.0,436.0,497.604
497614.0,358.0,434.0,4.0,434.0,497.614
497624.0,361.0,440.0,4.0,431.0,497.624
497634.0,349.0,421.0,3.0,419.0,497.634
497644.0,350.0,429.0,3.0,422.0,497.644
497654.0,361.0,444.0,4.0,435.0,497.654
497664.0,359.0,435.0,4.0,434.0,497.664
497674.0,360.0,443.0,4.0,430.0,497.674
497684.0,350.0,424.0,4.0,421.0,497.684
497694.0,354.0,434.0,3.0,428.0,497.694
497704.0,364.0,449.0,3.0,439.0,497.704
497714.0,362.0,438.0,4.0,437.0,497.714
497724.0,361.0,443.0,3.0,431.0,497.724
497734.0,351.0,421.0,4.0,421.0,497.734
497744.0,355.0,436.0,4.0,429.0,497.744
497754.0,362.0,443.0,4.0,436.0,497.754
497764.0,364.0,439.0,3.0,440.0,497.764
497774.0,362.0,443.0,4.0,432.0,497.774
497784.0,349.0,422.0,4.0,419.0,497.784
497794.0,355.0,435.0,4.0,427.0,497.794
497804.0,364.0,448.0,4.0,438.0,497.804
497814.0,363.0,437.0,3.0,435.0,497.814
497824.0,362.0,444.0,3.0,430.0,497.824
497835.0,350.0,423.0,4.0,417.0,497.835
497845.0,360.0,438.0,4.0,430.0,497.845
497855.0,370.0,454.0,4.0,440.0,497.855
497865.0,361.0,430.0,4.0,432.0,497.865
497875.0,359.0,441.0,4.0,428.0,497.875
497885.0,350.0,425.0,4.0,421.0,497.885
497895.0,360.0,439.0,3.0,433.0,497.895
497905.0,369.0,456.0,4.0,441.0,497.905
497915.0,360.0,433.0,4.0,430.0,497.915
497925.0,362.0,448.0,4.0,431.0,497.925
497935.0,351.0,430.0,2.0,422.0,497.935
497945.0,362.0,443.0,4.0,433.0,497.945
497955.0,371.0,464.0,3.0,443.0,497.955
497965.0,362.0,437.0,3.0,433.0,497.965
497975.0,360.0,446.0,3.0,428.0,497.975
497985.0,353.0,431.0,4.0,422.0,497.985
497995.0,363.0,445.0,4.0,437.0,497.995
498006.0,371.0,460.0,4.0,441.0,498.006
498016.0,358.0,434.0,3.0,427.0,498.016
498026.0,356.0,440.0,3.0,424.0,498.026
498036.0,357.0,444.0,4.0,431.0,498.036
498046.0,362.0,439.0,5.0,435.0,498.046
498056.0,368.0,457.0,4.0,438.0,498.056
498066.0,354.0,429.0,4.0,424.0,498.066
498076.0,354.0,437.0,4.0,426.0,498.076
498086.0,358.0,447.0,3.0,434.0,498.086
498096.0,361.0,443.0,4.0,435.0,498.096
498106.0,366.0,459.0,4.0,436.0,498.106
498116.0,354.0,431.0,4.0,424.0,498.116
498126.0,353.0,439.0,4.0,424.0,498.126
498136.0,353.0,437.0,4.0,426.0,498.136
498146.0,361.0,445.0,3.0,435.0,498.146
498156.0,367.0,454.0,4.0,436.0,498.156
498166.0,353.0,429.0,4.0,424.0,498.166
498176.0,355.0,439.0,3.0,425.0,498.176
498186.0,355.0,442.0,4.0,428.0,498.186
498196.0,361.0,442.0,3.0,435.0,498.196
498206.0,364.0,463.0,3.0,433.0,498.206
498216.0,352.0,432.0,3.0,418.0,498.216
498226.0,355.0,446.0,3.0,423.0,498.226
498236.0,357.0,447.0,4.0,430.0,498.236
498246.0,363.0,448.0,4.0,434.0,498.246
498256.0,363.0,452.0,4.0,429.0,498.256
498266.0,356.0,435.0,4.0,424.0,498.266
498276.0,355.0,442.0,4.0,421.0,498.276
498286.0,359.0,446.0,3.0,427.0,498.286
498296.0,363.0,442.0,4.0,432.0,498.296
498306.0,370.0,458.0,5.0,435.0,498.306
498316.0,356.0,431.0,2.0,421.0,498.316
498326.0,355.0,438.0,4.0,421.0,498.326
498336.0,361.0,447.0,3.0,434.0,498.336
498347.0,364.0,442.0,4.0,436.0,498.347
498357.0,362.0,449.0,4.0,430.0,498.357
498367.0,350.0,424.0,4.0,415.0,498.367
498377.0,355.0,439.0,4.0,425.0,498.377
498387.0,365.0,453.0,3.0,436.0,498.387
498397.0,362.0,441.0,3.0,432.0,498.397
498407.0,360.0,443.0,3.0,427.0,498.407
498417.0,348.0,423.0,4.0,416.0,498.417
498427.0,356.0,436.0,4.0,428.0,498.427
498437.0,361.0,444.0,4.0,432.0,498.437
498447.0,361.0,433.0,3.0,430.0,498.447
498457.0,360.0,440.0,3.0,425.0,498.457
498467.0,347.0,420.0,3.0,411.0,498.467
498477.0,353.0,431.0,4.0,418.0,498.477
498487.0,363.0,445.0,4.0,430.0,498.487
498497.0,362.0,434.0,4.0,427.0,498.497
498507.0,358.0,441.0,3.0,422.0,498.507
498518.0,348.0,423.0,4.0,412.0,498.518
498528.0,358.0,439.0,3.0,425.0,498.528
498538.0,367.0,448.0,4.0,433.0,498.538
498548.0,357.0,427.0,3.0,422.0,498.548
498558.0,356.0,435.0,5.0,419.0,498.558
498568.0,348.0,425.0,4.0,415.0,498.568
498578.0,359.0,440.0,4.0,429.0,498.578
498588.0,368.0,452.0,3.0,443.0,498.588
498598.0,357.0,428.0,3.0,428.0,498.598
498608.0,358.0,437.0,3.0,431.0,498.608
498618.0,349.0,424.0,4.0,423.0,498.618
498628.0,360.0,438.0,4.0,434.0,498.628
498638.0,368.0,445.0,3.0,439.0,498.638
498648.0,358.0,432.0,4.0,431.0,498.648
498658.0,356.0,435.0,3.0,427.0,498.658
498668.0,349.0,426.0,4.0,421.0,498.668
498678.0,357.0,438.0,4.0,430.0,498.678
498688.0,364.0,444.0,4.0,435.0,498.688
498698.0,356.0,432.0,3.0,426.0,498.698
498708.0,354.0,435.0,4.0,423.0,498.708
498718.0,350.0,430.0,3.0,423.0,498.718
498728.0,358.0,439.0,3.0,430.0,498.728
498738.0,364.0,449.0,3.0,436.0,498.738
498748.0,356.0,430.0,5.0,426.0,498.748
498758.0,354.0,434.0,4.0,422.0,498.758
498768.0,352.0,428.0,4.0,425.0,498.768
498778.0,357.0,437.0,3.0,432.0,498.778
498788.0,366.0,447.0,3.0,437.0,498.788
498798.0,355.0,427.0,3.0,423.0,498.798
498808.0,354.0,433.0,5.0,420.0,498.808
