time (ms),signal 0,signal 1,signal 2,signal 3,time (sec)
459211.0,354.0,531.0,380.0,414.0,459.211
459222.0,360.0,537.0,389.0,421.0,459.222
459232.0,368.0,526.0,398.0,429.0,459.232
459242.0,356.0,534.0,379.0,413.0,459.242
459252.0,354.0,520.0,378.0,412.0,459.252
459262.0,357.0,530.0,379.0,417.0,459.262
459272.0,360.0,539.0,385.0,420.0,459.272
459282.0,367.0,526.0,394.0,425.0,459.282
459292.0,355.0,537.0,375.0,409.0,459.292
459302.0,353.0,525.0,375.0,407.0,459.302
459312.0,352.0,531.0,373.0,408.0,459.312
459322.0,362.0,541.0,387.0,420.0,459.322
459332.0,367.0,525.0,395.0,423.0,459.332
459342.0,355.0,534.0,374.0,409.0,459.342
459352.0,356.0,522.0,379.0,412.0,459.352
459362.0,354.0,527.0,375.0,416.0,459.362
459372.0,361.0,536.0,385.0,423.0,459.372
459382.0,365.0,519.0,391.0,423.0,459.382
459392.0,357.0,528.0,375.0,413.0,459.392
459402.0,356.0,513.0,377.0,412.0,459.402
459412.0,355.0,524.0,374.0,417.0,459.412
459422.0,361.0,537.0,384.0,422.0,459.422
459432.0,364.0,521.0,389.0,422.0,459.432
459442.0,355.0,536.0,373.0,414.0,459.442
459452.0,353.0,520.0,373.0,414.0,459.452
459462.0,355.0,528.0,373.0,417.0,459.462
459472.0,360.0,540.0,379.0,420.0,459.472
459482.0,367.0,526.0,389.0,426.0,459.482
459492.0,354.0,537.0,368.0,413.0,459.492
459502.0,353.0,524.0,371.0,412.0,459.502
459512.0,356.0,533.0,373.0,420.0,459.512
459522.0,359.0,544.0,379.0,423.0,459.522
459532.0,366.0,529.0,388.0,425.0,459.532
459542.0,353.0,547.0,366.0,409.0,459.542
459552.0,352.0,535.0,370.0,414.0,459.552
459563.0,357.0,548.0,374.0,421.0,459.563
459573.0,360.0,561.0,380.0,423.0,459.573
459583.0,360.0,538.0,384.0,419.0,459.583
459593.0,350.0,556.0,364.0,408.0,459.593
459603.0,354.0,554.0,376.0,420.0,459.603
459613.0,362.0,557.0,380.0,426.0,459.613
459623.0,363.0,570.0,383.0,427.0,459.623
459633.0,361.0,546.0,385.0,421.0,459.633
459643.0,349.0,557.0,364.0,410.0,459.643
459653.0,354.0,549.0,373.0,417.0,459.653
459663.0,362.0,558.0,379.0,428.0,459.663
459673.0,363.0,571.0,383.0,428.0,459.673
459683.0,361.0,548.0,385.0,425.0,459.683
459693.0,352.0,561.0,368.0,415.0,459.693
459703.0,354.0,553.0,374.0,418.0,459.703
459713.0,364.0,561.0,383.0,428.0,459.713
459723.0,362.0,572.0,380.0,423.0,459.723
459734.0,360.0,550.0,382.0,420.0,459.734
459744.0,349.0,560.0,364.0,410.0,459.744
459754.0,359.0,564.0,380.0,424.0,459.754
459764.0,368.0,556.0,389.0,432.0,459.764
459774.0,358.0,568.0,374.0,419.0,459.774
459784.0,359.0,549.0,378.0,419.0,459.784
459794.0,350.0,554.0,361.0,410.0,459.794
459804.0,360.0,561.0,378.0,423.0,459.804
459814.0,368.0,552.0,387.0,430.0,459.814
459824.0,361.0,562.0,376.0,420.0,459.824
459834.0,357.0,542.0,377.0,417.0,459.834
459844.0,351.0,549.0,366.0,412.0,459.844
459854.0,359.0,556.0,379.0,423.0,459.854
459864.0,366.0,549.0,383.0,431.0,459.864
459874.0,360.0,556.0,377.0,424.0,459.874
459884.0,358.0,536.0,380.0,422.0,459.884
459894.0,352.0,543.0,367.0,416.0,459.894
459904.0,357.0,545.0,376.0,421.0,459.904
459914.0,367.0,545.0,383.0,433.0,459.914
459924.0,359.0,550.0,374.0,421.0,459.924
459934.0,357.0,533.0,375.0,418.0,459.934
459944.0,351.0,535.0,366.0,416.0,459.944
459954.0,356.0,538.0,377.0,423.0,459.954
459964.0,366.0,534.0,384.0,433.0,459.964
459974.0,357.0,536.0,374.0,420.0,459.974
459984.0,354.0,520.0,374.0,416.0,459.984
459994.0,348.0,522.0,367.0,413.0,459.994
460004.0,358.0,531.0,382.0,427.0,460.004
460014.0,366.0,526.0,388.0,435.0,460.014
460024.0,356.0,530.0,376.0,421.0,460.024
460034.0,357.0,516.0,382.0,423.0,460.034
460044.0,348.0,519.0,368.0,416.0,460.044
460054.0,358.0,529.0,383.0,429.0,460.054
460064.0,367.0,523.0,390.0,438.0,460.064
460075.0,355.0,525.0,376.0,423.0,460.075
460085.0,353.0,513.0,376.0,422.0,460.085
460095.0,356.0,520.0,377.0,426.0,460.095
460105.0,362.0,530.0,385.0,430.0,460.105
460115.0,363.0,513.0,389.0,428.0,460.115
460125.0,355.0,524.0,374.0,420.0,460.125
460135.0,354.0,513.0,376.0,422.0,460.135
460145.0,357.0,520.0,376.0,430.0,460.145
460155.0,361.0,530.0,386.0,433.0,460.155
460165.0,367.0,517.0,390.0,435.0,460.165
460175.0,354.0,520.0,373.0,420.0,460.175
460185.0,354.0,510.0,374.0,420.0,460.185
460195.0,358.0,518.0,377.0,427.0,460.195
460205.0,360.0,523.0,384.0,428.0,460.205
460215.0,367.0,511.0,390.0,430.0,460.215
460225.0,354.0,513.0,373.0,415.0,460.225
460235.0,352.0,504.0,374.0,415.0,460.235
460246.0,360.0,512.0,379.0,429.0,460.246
460256.0,362.0,522.0,386.0,430.0,460.256
460266.0,361.0,504.0,385.0,425.0,460.266
460276.0,348.0,502.0,368.0,413.0,460.276
460286.0,356.0,506.0,381.0,423.0,460.286
460296.0,361.0,508.0,381.0,430.0,460.296
460306.0,362.0,517.0,387.0,429.0,460.306
460316.0,361.0,501.0,385.0,426.0,460.316
460326.0,349.0,500.0,372.0,415.0,460.326
460336.0,354.0,501.0,380.0,424.0,460.336
460346.0,364.0,509.0,387.0,436.0,460.346
460356.0,363.0,517.0,392.0,432.0,460.356
460366.0,359.0,500.0,387.0,425.0,460.366
460376.0,352.0,509.0,377.0,421.0,460.376
460386.0,353.0,505.0,379.0,424.0,460.386
460396.0,363.0,511.0,386.0,435.0,460.396
460406.0,360.0,520.0,387.0,431.0,460.406
460416.0,361.0,504.0,388.0,429.0,460.416
460426.0,351.0,511.0,373.0,418.0,460.426
460436.0,356.0,511.0,381.0,429.0,460.436
460446.0,368.0,520.0,387.0,440.0,460.446
460456.0,362.0,521.0,386.0,429.0,460.456
460466.0,364.0,509.0,387.0,428.0,460.466
460476.0,352.0,496.0,374.0,415.0,460.476
460486.0,356.0,496.0,379.0,422.0,460.486
460496.0,367.0,499.0,391.0,435.0,460.496
460506.0,364.0,494.0,396.0,431.0,460.506
460516.0,363.0,481.0,394.0,430.0,460.516
460526.0,350.0,465.0,378.0,416.0,460.526
460536.0,358.0,474.0,389.0,427.0,460.536
460546.0,363.0,475.0,391.0,437.0,460.546
460556.0,362.0,474.0,396.0,436.0,460.556
460566.0,360.0,463.0,391.0,433.0,460.566
460576.0,347.0,450.0,379.0,420.0,460.576
460587.0,358.0,463.0,390.0,430.0,460.587
460597.0,367.0,467.0,395.0,440.0,460.597
460607.0,360.0,458.0,392.0,428.0,460.607
460617.0,358.0,453.0,388.0,428.0,460.617
460627.0,354.0,450.0,386.0,425.0,460.627
460637.0,359.0,459.0,395.0,430.0,460.637
460647.0,369.0,462.0,402.0,440.0,460.647
460657.0,359.0,456.0,394.0,425.0,460.657
460667.0,357.0,448.0,385.0,412.0,460.667
460677.0,347.0,438.0,377.0,404.0,460.677
460687.0,359.0,455.0,392.0,419.0,460.687
460697.0,370.0,460.0,398.0,429.0,460.697
460707.0,359.0,449.0,390.0,417.0,460.707
460717.0,360.0,448.0,390.0,421.0,460.717
460727.0,352.0,440.0,388.0,419.0,460.727
460737.0,362.0,456.0,400.0,436.0,460.737
460747.0,370.0,458.0,404.0,439.0,460.747
460758.0,357.0,447.0,395.0,427.0,460.758
460768.0,355.0,446.0,391.0,426.0,460.768
460778.0,357.0,448.0,393.0,427.0,460.778
460788.0,363.0,456.0,399.0,420.0,460.788
460798.0,364.0,449.0,397.0,418.0,460.798
460808.0,356.0,445.0,392.0,411.0,460.808
460818.0,358.0,447.0,392.0,414.0,460.818
460828.0,363.0,452.0,393.0,419.0,460.828
460838.0,367.0,458.0,402.0,425.0,460.838
460848.0,373.0,456.0,402.0,427.0,460.848
460858.0,358.0,444.0,391.0,410.0,460.858
460868.0,356.0,442.0,385.0,410.0,460.868
460878.0,364.0,452.0,398.0,430.0,460.878
460888.0,366.0,455.0,410.0,436.0,460.888
460898.0,371.0,454.0,411.0,437.0,460.898
460908.0,356.0,439.0,400.0,421.0,460.908
460918.0,356.0,442.0,392.0,417.0,460.918
460928.0,359.0,447.0,401.0,424.0,460.928
460938.0,367.0,458.0,415.0,433.0,460.938
460948.0,373.0,454.0,415.0,436.0,460.948
460958.0,361.0,441.0,407.0,418.0,460.958
460968.0,362.0,444.0,405.0,425.0,460.968
460978.0,364.0,445.0,410.0,427.0,460.978
460988.0,370.0,451.0,420.0,433.0,460.988
460998.0,370.0,447.0,414.0,430.0,460.998
461008.0,357.0,433.0,404.0,411.0,461.008
461018.0,361.0,441.0,404.0,419.0,461.018
461028.0,367.0,446.0,412.0,427.0,461.028
461038.0,371.0,452.0,418.0,426.0,461.038
461048.0,377.0,450.0,422.0,434.0,461.048
461058.0,366.0,438.0,416.0,427.0,461.058
461068.0,366.0,440.0,412.0,428.0,461.068
461078.0,370.0,445.0,420.0,441.0,461.078
461088.0,372.0,446.0,432.0,446.0,461.088
461099.0,372.0,446.0,422.0,439.0,461.099
461109.0,361.0,430.0,418.0,430.0,461.109
461119.0,366.0,442.0,424.0,443.0,461.119
461129.0,374.0,449.0,431.0,448.0,461.129
461139.0,368.0,439.0,426.0,437.0,461.139
461149.0,369.0,441.0,422.0,437.0,461.149
461159.0,357.0,425.0,417.0,426.0,461.159
461169.0,365.0,439.0,422.0,435.0,461.169
461179.0,376.0,457.0,431.0,450.0,461.179
461189.0,371.0,439.0,435.0,449.0,461.189
461199.0,369.0,449.0,422.0,440.0,461.199
461209.0,356.0,423.0,420.0,428.0,461.209
461219.0,365.0,439.0,427.0,441.0,461.219
461229.0,375.0,455.0,431.0,445.0,461.229
461239.0,374.0,440.0,437.0,442.0,461.239
461249.0,371.0,455.0,424.0,435.0,461.249
461259.0,359.0,429.0,421.0,426.0,461.259
461270.0,366.0,442.0,428.0,437.0,461.27
461280.0,376.0,465.0,436.0,445.0,461.28
461290.0,368.0,435.0,434.0,434.0,461.29
461300.0,366.0,452.0,425.0,431.0,461.3
461310.0,363.0,446.0,428.0,433.0,461.31
461320.0,362.0,444.0,428.0,430.0,461.32
461330.0,372.0,467.0,433.0,438.0,461.33
461340.0,364.0,435.0,432.0,424.0,461.34
461350.0,363.0,449.0,425.0,424.0,461.35
461360.0,358.0,440.0,426.0,426.0,461.36
461370.0,369.0,452.0,442.0,444.0,461.37
461380.0,378.0,472.0,447.0,452.0,461.38
461390.0,367.0,441.0,437.0,433.0,461.39
461400.0,369.0,455.0,431.0,435.0,461.4
461410.0,362.0,441.0,429.0,427.0,461.41
461420.0,367.0,448.0,435.0,433.0,461.42
461430.0,375.0,461.0,434.0,434.0,461.43
461440.0,366.0,437.0,430.0,422.0,461.44
461450.0,362.0,445.0,419.0,418.0,461.45
461460.0,357.0,436.0,419.0,416.0,461.46
461470.0,367.0,447.0,432.0,427.0,461.47
461480.0,374.0,459.0,433.0,432.0,461.48
461490.0,365.0,438.0,432.0,423.0,461.49
461500.0,362.0,438.0,420.0,417.0,461.5
461510.0,359.0,432.0,424.0,414.0,461.51
461520.0,368.0,443.0,434.0,426.0,461.52
461530.0,373.0,451.0,437.0,431.0,461.53
461540.0,367.0,434.0,437.0,427.0,461.54
461550.0,368.0,437.0,426.0,423.0,461.55
461560.0,365.0,434.0,428.0,423.0,461.56
461570.0,369.0,441.0,433.0,429.0,461.57
461580.0,377.0,451.0,437.0,435.0,461.58
461590.0,367.0,431.0,435.0,425.0,461.59
461600.0,365.0,438.0,426.0,427.0,461.6
461611.0,366.0,439.0,431.0,431.0,461.611
461621.0,374.0,447.0,443.0,439.0,461.621
461631.0,376.0,449.0,437.0,438.0,461.631
461641.0,364.0,429.0,432.0,424.0,461.641
461651.0,359.0,435.0,424.0,421.0,461.651
461661.0,362.0,438.0,428.0,424.0,461.661
461671.0,367.0,440.0,436.0,426.0,461.671
461681.0,370.0,445.0,429.0,425.0,461.681
461691.0,358.0,426.0,424.0,413.0,461.691
461701.0,361.0,434.0,421.0,417.0,461.701
461711.0,366.0,442.0,435.0,431.0,461.711
461721.0,369.0,443.0,438.0,427.0,461.721
461731.0,370.0,441.0,430.0,427.0,461.731
461741.0,363.0,434.0,430.0,420.0,461.741
461751.0,363.0,436.0,423.0,422.0,461.751
461761.0,368.0,442.0,433.0,431.0,461.761
461771.0,368.0,447.0,439.0,434.0,461.771
461782.0,368.0,443.0,431.0,431.0,461.782
461792.0,356.0,428.0,425.0,416.0,461.792
461802.0,362.0,441.0,429.0,426.0,461.802
461812.0,375.0,454.0,443.0,440.0,461.812
461822.0,369.0,446.0,442.0,434.0,461.822
461832.0,370.0,445.0,434.0,433.0,461.832
461842.0,358.0,433.0,427.0,422.0,461.842
461852.0,365.0,445.0,432.0,430.0,461.852
461862.0,375.0,453.0,441.0,441.0,461.862
461872.0,371.0,452.0,441.0,439.0,461.872
461882.0,369.0,444.0,431.0,435.0,461.882
461892.0,357.0,434.0,425.0,425.0,461.892
461902.0,362.0,451.0,432.0,440.0,461.902
461912.0,369.0,454.0,439.0,445.0,461.912
461922.0,367.0,454.0,437.0,437.0,461.922
461932.0,365.0,446.0,428.0,433.0,461.932
461942.0,355.0,439.0,423.0,427.0,461.942
461952.0,361.0,449.0,424.0,430.0,461.952
461962.0,372.0,460.0,437.0,447.0,461.962
461972.0,369.0,463.0,434.0,438.0,461.972
461982.0,367.0,454.0,425.0,433.0,461.982
461992.0,356.0,448.0,418.0,424.0,461.992
462002.0,361.0,454.0,415.0,421.0,462.002
462012.0,371.0,463.0,426.0,431.0,462.012
462022.0,367.0,467.0,423.0,427.0,462.022
462032.0,365.0,460.0,417.0,428.0,462.032
462042.0,357.0,455.0,413.0,422.0,462.042
462052.0,363.0,465.0,419.0,433.0,462.052
462062.0,376.0,472.0,429.0,440.0,462.062
462072.0,368.0,469.0,422.0,434.0,462.072
462082.0,369.0,462.0,419.0,435.0,462.082
462092.0,356.0,456.0,406.0,421.0,462.092
462102.0,367.0,470.0,419.0,436.0,462.102
462112.0,376.0,474.0,428.0,445.0,462.112
462123.0,367.0,472.0,419.0,435.0,462.123
462133.0,366.0,464.0,414.0,434.0,462.133
462143.0,362.0,464.0,410.0,435.0,462.143
462153.0,372.0,480.0,422.0,450.0,462.153
462163.0,379.0,475.0,423.0,448.0,462.163
462173.0,371.0,474.0,411.0,436.0,462.173
462183.0,371.0,466.0,406.0,432.0,462.183
462193.0,367.0,465.0,403.0,431.0,462.193
462203.0,375.0,479.0,414.0,442.0,462.203
462213.0,382.0,476.0,420.0,444.0,462.213
462223.0,369.0,473.0,405.0,433.0,462.223
462233.0,368.0,466.0,404.0,432.0,462.233
462243.0,367.0,468.0,404.0,440.0,462.243
462253.0,372.0,475.0,410.0,443.0,462.253
462263.0,380.0,477.0,419.0,450.0,462.263
462273.0,368.0,470.0,398.0,433.0,462.273
462283.0,367.0,465.0,396.0,432.0,462.283
462294.0,367.0,466.0,396.0,434.0,462.294
462304.0,369.0,471.0,400.0,436.0,462.304
462314.0,372.0,463.0,407.0,439.0,462.314
462324.0,359.0,454.0,382.0,426.0,462.324
462334.0,359.0,457.0,386.0,426.0,462.334
462344.0,365.0,461.0,390.0,434.0,462.344
462354.0,369.0,469.0,394.0,437.0,462.354
462364.0,371.0,460.0,400.0,432.0,462.364
462374.0,359.0,448.0,373.0,418.0,462.374
462384.0,360.0,450.0,380.0,416.0,462.384
462394.0,367.0,457.0,384.0,427.0,462.394
462404.0,373.0,466.0,389.0,432.0,462.404
462414.0,374.0,459.0,397.0,431.0,462.414
462424.0,365.0,450.0,373.0,421.0,462.424
462434.0,363.0,449.0,380.0,422.0,462.434
462444.0,372.0,456.0,387.0,433.0,462.444
462454.0,373.0,462.0,387.0,435.0,462.454
462464.0,378.0,456.0,404.0,436.0,462.464
462474.0,365.0,450.0,373.0,426.0,462.474
462484.0,365.0,450.0,384.0,427.0,462.484
462494.0,373.0,458.0,389.0,439.0,462.494
462504.0,375.0,466.0,390.0,438.0,462.504
462514.0,377.0,459.0,408.0,438.0,462.514
462524.0,364.0,456.0,376.0,428.0,462.524
462534.0,364.0,459.0,389.0,432.0,462.534
462544.0,374.0,469.0,396.0,441.0,462.544
462554.0,373.0,474.0,393.0,437.0,462.554
462564.0,374.0,464.0,410.0,434.0,462.564
462574.0,361.0,456.0,373.0,424.0,462.574
462584.0,363.0,458.0,391.0,432.0,462.584
462594.0,368.0,463.0,389.0,436.0,462.594
462604.0,371.0,472.0,395.0,439.0,462.604
462614.0,372.0,463.0,412.0,434.0,462.614
462624.0,359.0,452.0,377.0,420.0,462.624
462635.0,364.0,459.0,399.0,430.0,462.635
462645.0,374.0,467.0,405.0,441.0,462.645
462655.0,369.0,464.0,396.0,428.0,462.655
462665.0,367.0,457.0,417.0,426.0,462.665
462675.0,357.0,446.0,389.0,418.0,462.675
462685.0,362.0,455.0,408.0,426.0,462.685
462695.0,373.0,463.0,411.0,436.0,462.695
462705.0,367.0,460.0,402.0,431.0,462.705
462715.0,366.0,455.0,427.0,431.0,462.715
462725.0,356.0,445.0,397.0,421.0,462.725
462735.0,365.0,457.0,422.0,432.0,462.735
462745.0,376.0,464.0,423.0,440.0,462.745
462755.0,366.0,459.0,413.0,428.0,462.755
462765.0,367.0,453.0,436.0,423.0,462.765
462775.0,354.0,439.0,406.0,411.0,462.775
462785.0,365.0,455.0,431.0,427.0,462.785
462795.0,374.0,461.0,429.0,437.0,462.795
462806.0,367.0,460.0,422.0,427.0,462.806
462816.0,364.0,455.0,446.0,424.0,462.816
462826.0,363.0,459.0,424.0,428.0,462.826
462836.0,370.0,475.0,440.0,440.0,462.836
462846.0,376.0,468.0,439.0,444.0,462.846
462856.0,366.0,474.0,428.0,437.0,462.856
462866.0,364.0,467.0,449.0,435.0,462.866
462876.0,362.0,471.0,429.0,434.0,462.876
462886.0,371.0,485.0,442.0,442.0,462.886
462896.0,376.0,482.0,437.0,447.0,462.896
462906.0,365.0,483.0,426.0,432.0,462.906
462916.0,364.0,478.0,442.0,432.0,462.916
462926.0,364.0,484.0,424.0,437.0,462.926
462936.0,368.0,494.0,434.0,440.0,462.936
462946.0,375.0,490.0,424.0,441.0,462.946
462956.0,363.0,497.0,411.0,423.0,462.956
462966.0,361.0,490.0,424.0,420.0,462.966
462976.0,357.0,495.0,404.0,416.0,462.976
462986.0,365.0,507.0,413.0,421.0,462.986
462996.0,371.0,500.0,402.0,428.0,462.996
463006.0,358.0,511.0,391.0,416.0,463.006
463016.0,360.0,504.0,400.0,420.0,463.016
463026.0,356.0,509.0,385.0,417.0,463.026
463036.0,366.0,522.0,395.0,429.0,463.036
463046.0,373.0,513.0,384.0,436.0,463.046
463056.0,359.0,516.0,383.0,420.0,463.056
463066.0,362.0,509.0,385.0,424.0,463.066
463076.0,360.0,512.0,380.0,423.0,463.076
463086.0,368.0,525.0,382.0,435.0,463.086
463096.0,374.0,512.0,377.0,437.0,463.096
463106.0,366.0,520.0,376.0,429.0,463.106
463116.0,364.0,507.0,373.0,430.0,463.116
463126.0,362.0,512.0,370.0,429.0,463.126
463136.0,364.0,521.0,366.0,434.0,463.136
463147.0,368.0,506.0,360.0,435.0,463.147
463157.0,355.0,506.0,353.0,420.0,463.157
463167.0,357.0,502.0,347.0,425.0,463.167
463177.0,366.0,510.0,340.0,439.0,463.177
463187.0,368.0,517.0,331.0,436.0,463.187
463197.0,370.0,502.0,323.0,437.0,463.197
463207.0,358.0,503.0,316.0,423.0,463.207
463217.0,361.0,502.0,307.0,426.0,463.217
463227.0,370.0,510.0,299.0,436.0,463.227
463237.0,368.0,516.0,290.0,435.0,463.237
463247.0,369.0,499.0,281.0,433.0,463.247
463257.0,358.0,500.0,273.0,419.0,463.257
463267.0,360.0,500.0,265.0,425.0,463.267
463277.0,364.0,505.0,256.0,432.0,463.277
463287.0,368.0,515.0,248.0,435.0,463.287
463297.0,367.0,499.0,239.0,432.0,463.297
463307.0,357.0,500.0,231.0,416.0,463.307
463318.0,361.0,503.0,223.0,427.0,463.318
463328.0,374.0,511.0,216.0,439.0,463.328
463338.0,370.0,519.0,208.0,431.0,463.338
463348.0,366.0,503.0,199.0,428.0,463.348
463358.0,358.0,502.0,193.0,420.0,463.358
463368.0,364.0,508.0,185.0,427.0,463.368
463378.0,374.0,511.0,179.0,436.0,463.378
463388.0,368.0,515.0,172.0,426.0,463.388
463398.0,365.0,500.0,165.0,422.0,463.398
463408.0,355.0,502.0,159.0,413.0,463.408
463418.0,364.0,510.0,153.0,425.0,463.418
463428.0,373.0,512.0,146.0,436.0,463.428
463438.0,366.0,521.0,140.0,426.0,463.438
463448.0,367.0,509.0,134.0,427.0,463.448
463458.0,357.0,511.0,130.0,413.0,463.458
463468.0,365.0,521.0,123.0,428.0,463.468
463478.0,374.0,520.0,118.0,437.0,463.478
463488.0,369.0,531.0,114.0,430.0,463.488
463498.0,365.0,513.0,108.0,428.0,463.498
463508.0,356.0,514.0,104.0,415.0,463.508
463518.0,367.0,527.0,99.0,429.0,463.518
463528.0,374.0,520.0,94.0,436.0,463.528
463538.0,369.0,533.0,91.0,426.0,463.538
463548.0,365.0,516.0,86.0,420.0,463.548
463558.0,356.0,520.0,82.0,410.0,463.558
463568.0,368.0,532.0,78.0,420.0,463.568
463578.0,372.0,527.0,75.0,426.0,463.578
463588.0,369.0,538.0,71.0,420.0,463.588
463598.0,365.0,521.0,66.0,417.0,463.598
463608.0,359.0,527.0,64.0,412.0,463.608
463618.0,365.0,534.0,61.0,424.0,463.618
463628.0,373.0,530.0,58.0,431.0,463.628
463638.0,367.0,538.0,55.0,423.0,463.638
463648.0,363.0,521.0,52.0,419.0,463.648
463659.0,358.0,527.0,50.0,417.0,463.659
463669.0,368.0,537.0,47.0,429.0,463.669
463679.0,373.0,523.0,43.0,432.0,463.679
463689.0,361.0,529.0,42.0,416.0,463.689
463699.0,359.0,517.0,38.0,417.0,463.699
463709.0,360.0,521.0,37.0,419.0,463.709
463719.0,367.0,533.0,33.0,430.0,463.719
463729.0,374.0,519.0,31.0,437.0,463.729
463739.0,360.0,530.0,30.0,421.0,463.739
463749.0,362.0,521.0,27.0,425.0,463.749
463759.0,360.0,529.0,26.0,426.0,463.759
463769.0,367.0,541.0,24.0,433.0,463.769
463779.0,370.0,524.0,21.0,433.0,463.779
463789.0,362.0,541.0,20.0,423.0,463.789
463799.0,360.0,527.0,19.0,421.0,463.799
463809.0,360.0,535.0,17.0,422.0,463.809
463819.0,366.0,546.0,16.0,431.0,463.819
463830.0,368.0,528.0,13.0,430.0,463.83
463840.0,358.0,538.0,14.0,417.0,463.84
463850.0,358.0,533.0,12.0,423.0,463.85
463860.0,367.0,541.0,11.0,434.0,463.86
463870.0,367.0,552.0,10.0,429.0,463.87
463880.0,368.0,531.0,9.0,428.0,463.88
463890.0,356.0,542.0,9.0,413.0,463.89
463900.0,358.0,537.0,8.0,420.0,463.9
463910.0,368.0,541.0,7.0,433.0,463.91
463920.0,365.0,553.0,7.0,430.0,463.92
463930.0,366.0,534.0,7.0,431.0,463.93
463940.0,354.0,544.0,7.0,414.0,463.94
463950.0,358.0,542.0,6.0,423.0,463.95
463960.0,364.0,548.0,5.0,429.0,463.96
463970.0,367.0,563.0,6.0,430.0,463.97
463980.0,366.0,542.0,6.0,429.0,463.98
463990.0,354.0,557.0,6.0,414.0,463.99
464000.0,358.0,550.0,5.0,420.0,464.0
464010.0,366.0,562.0,5.0,431.0,464.01
464020.0,366.0,581.0,5.0,430.0,464.02
464030.0,365.0,558.0,5.0,424.0,464.03
464040.0,352.0,568.0,4.0,411.0,464.04
464050.0,357.0,558.0,4.0,418.0,464.05
464060.0,366.0,565.0,5.0,432.0,464.06
464070.0,366.0,574.0,5.0,428.0,464.07
464080.0,363.0,550.0,4.0,425.0,464.08
464090.0,356.0,562.0,5.0,416.0,464.09
464100.0,357.0,552.0,4.0,423.0,464.1
464110.0,365.0,557.0,4.0,433.0,464.11
464120.0,365.0,567.0,4.0,430.0,464.12
464130.0,365.0,544.0,3.0,429.0,464.13
464140.0,352.0,551.0,4.0,413.0,464.14
464150.0,356.0,544.0,5.0,420.0,464.15
464160.0,366.0,549.0,4.0,433.0,464.16
464171.0,362.0,556.0,4.0,427.0,464.171
464181.0,361.0,536.0,4.0,423.0,464.181
464191.0,351.0,540.0,3.0,416.0,464.191
464201.0,362.0,546.0,4.0,428.0,464.201
464211.0,369.0,536.0,4.0,433.0,464.211
464221.0,363.0,547.0,4.0,421.0,464.221
464231.0,359.0,528.0,4.0,418.0,464.231
464241.0,351.0,535.0,4.0,412.0,464.241
464251.0,361.0,546.0,3.0,425.0,464.251
464261.0,366.0,539.0,4.0,430.0,464.261
464271.0,361.0,548.0,3.0,421.0,464.271
464281.0,359.0,531.0,5.0,420.0,464.281
464291.0,352.0,534.0,4.0,415.0,464.291
464301.0,358.0,539.0,4.0,425.0,464.301
464311.0,368.0,539.0,3.0,437.0,464.311
464321.0,361.0,545.0,3.0,425.0,464.321
464331.0,359.0,527.0,4.0,422.0,464.331
464342.0,354.0,533.0,5.0,421.0,464.342
464352.0,364.0,544.0,4.0,432.0,464.352
464362.0,368.0,529.0,4.0,432.0,464.362
464372.0,355.0,538.0,3.0,417.0,464.372
464382.0,355.0,527.0,3.0,417.0,464.382
464392.0,355.0,532.0,4.0,418.0,464.392
464402.0,363.0,543.0,4.0,427.0,464.402
464412.0,368.0,526.0,4.0,428.0,464.412
464422.0,355.0,535.0,4.0,419.0,464.422
464432.0,358.0,524.0,4.0,422.0,464.432
464442.0,356.0,530.0,3.0,424.0,464.442
464452.0,364.0,543.0,4.0,430.0,464.452
464462.0,368.0,526.0,4.0,428.0,464.462
464472.0,360.0,540.0,4.0,420.0,464.472
464482.0,357.0,526.0,4.0,419.0,464.482
464492.0,357.0,535.0,4.0,424.0,464.492
464502.0,364.0,549.0,4.0,433.0,464.502
464512.0,369.0,530.0,4.0,434.0,464.512
464522.0,358.0,549.0,3.0,423.0,464.522
464532.0,358.0,535.0,5.0,421.0,464.532
464542.0,360.0,549.0,4.0,426.0,464.542
464552.0,364.0,568.0,4.0,429.0,464.552
464562.0,369.0,548.0,4.0,432.0,464.562
464572.0,358.0,573.0,4.0,421.0,464.572
464582.0,357.0,559.0,4.0,421.0,464.582
464592.0,361.0,575.0,4.0,429.0,464.592
464602.0,364.0,590.0,5.0,430.0,464.602
464612.0,368.0,572.0,4.0,434.0,464.612
464622.0,357.0,606.0,4.0,422.0,464.622
464632.0,357.0,593.0,4.0,424.0,464.632
464642.0,357.0,611.0,4.0,423.0,464.642
464652.0,364.0,625.0,4.0,433.0,464.652
464662.0,370.0,601.0,5.0,433.0,464.662
464672.0,356.0,632.0,4.0,420.0,464.672
464683.0,356.0,615.0,5.0,421.0,464.683
464693.0,364.0,625.0,3.0,432.0,464.693
464703.0,365.0,639.0,4.0,429.0,464.703
464713.0,362.0,609.0,4.0,424.0,464.713
464723.0,351.0,626.0,5.0,413.0,464.723
464733.0,355.0,609.0,4.0,416.0,464.733
464743.0,364.0,614.0,4.0,427.0,464.743
464753.0,362.0,629.0,3.0,426.0,464.753
464763.0,361.0,601.0,3.0,422.0,464.763
464773.0,352.0,621.0,4.0,414.0,464.773
464783.0,355.0,606.0,4.0,420.0,464.783
464793.0,366.0,610.0,4.0,433.0,464.793
464803.0,364.0,621.0,3.0,430.0,464.803
464813.0,364.0,592.0,4.0,429.0,464.813
464823.0,352.0,604.0,3.0,415.0,464.823
464833.0,356.0,591.0,4.0,422.0,464.833
464843.0,367.0,591.0,4.0,434.0,464.843
464854.0,363.0,597.0,5.0,428.0,464.854
464864.0,360.0,573.0,4.0,424.0,464.864
464874.0,352.0,570.0,4.0,418.0,464.874
464884.0,362.0,571.0,4.0,431.0,464.884
464894.0,370.0,557.0,4.0,438.0,464.894
464904.0,361.0,547.0,4.0,428.0,464.904
464914.0,360.0,527.0,5.0,425.0,464.914
464924.0,353.0,511.0,4.0,419.0,464.924
464934.0,362.0,515.0,4.0,429.0,464.934
464944.0,368.0,510.0,3.0,438.0,464.944
464954.0,361.0,496.0,4.0,429.0,464.954
464964.0,359.0,484.0,4.0,426.0,464.964
464974.0,354.0,473.0,5.0,425.0,464.974
464984.0,358.0,477.0,4.0,429.0,464.984
464994.0,368.0,479.0,4.0,438.0,464.994
465004.0,361.0,466.0,4.0,430.0,465.004
465014.0,359.0,467.0,3.0,428.0,465.014
465024.0,351.0,447.0,4.0,419.0,465.024
465034.0,360.0,460.0,4.0,430.0,465.034
465044.0,370.0,475.0,5.0,439.0,465.044
465054.0,360.0,446.0,4.0,428.0,465.054
465064.0,358.0,454.0,4.0,424.0,465.064
465074.0,351.0,440.0,3.0,421.0,465.074
465084.0,361.0,452.0,4.0,432.0,465.084
465094.0,369.0,468.0,4.0,439.0,465.094
465104.0,359.0,438.0,5.0,424.0,465.104
465114.0,359.0,451.0,4.0,425.0,465.114
465124.0,351.0,434.0,4.0,419.0,465.124
465134.0,361.0,446.0,4.0,430.0,465.134
465144.0,370.0,460.0,4.0,434.0,465.144
465154.0,361.0,438.0,4.0,426.0,465.154
465164.0,359.0,442.0,4.0,423.0,465.164
465174.0,353.0,429.0,4.0,419.0,465.174
465184.0,363.0,443.0,4.0,430.0,465.184
465195.0,370.0,451.0,4.0,434.0,465.195
465205.0,358.0,431.0,3.0,421.0,465.205
465215.0,357.0,435.0,4.0,422.0,465.215
465225.0,360.0,439.0,4.0,430.0,465.225
465235.0,364.0,440.0,4.0,434.0,465.235
465245.0,369.0,448.0,4.0,436.0,465.245
465255.0,357.0,426.0,4.0,425.0,465.255
465265.0,355.0,431.0,3.0,425.0,465.265
465275.0,361.0,439.0,4.0,434.0,465.275
465285.0,363.0,439.0,4.0,436.0,465.285
465295.0,369.0,446.0,5.0,438.0,465.295
465305.0,355.0,426.0,4.0,426.0,465.305
465315.0,354.0,430.0,4.0,421.0,465.315
465325.0,354.0,431.0,3.0,425.0,465.325
465335.0,362.0,439.0,4.0,432.0,465.335
465345.0,367.0,442.0,4.0,432.0,465.345
465355.0,354.0,424.0,5.0,420.0,465.355
465366.0,354.0,430.0,4.0,422.0,465.366
465376.0,363.0,439.0,4.0,433.0,465.376
465386.0,363.0,439.0,3.0,435.0,465.386
465396.0,362.0,435.0,4.0,434.0,465.396
465406.0,350.0,420.0,4.0,423.0,465.406
465416.0,355.0,431.0,4.0,429.0,465.416
465426.0,366.0,442.0,4.0,440.0,465.426
465436.0,363.0,437.0,4.0,436.0,465.436
465446.0,360.0,436.0,4.0,431.0,465.446
465456.0,353.0,425.0,3.0,422.0,465.456
465466.0,355.0,433.0,4.0,425.0,465.466
465476.0,365.0,445.0,4.0,436.0,465.476
465486.0,363.0,436.0,5.0,433.0,465.486
465496.0,363.0,442.0,3.0,432.0,465.496
465506.0,351.0,425.0,4.0,419.0,465.506
465516.0,356.0,435.0,3.0,428.0,465.516
465526.0,366.0,448.0,4.0,440.0,465.526
465536.0,364.0,442.0,3.0,437.0,465.536
465546.0,364.0,441.0,5.0,431.0,465.546
465556.0,352.0,423.0,4.0,420.0,465.556
465566.0,358.0,437.0,4.0,431.0,465.566
465576.0,368.0,447.0,3.0,441.0,465.576
465586.0,364.0,441.0,4.0,435.0,465.586
465596.0,362.0,442.0,3.0,431.0,465.596
465606.0,350.0,424.0,3.0,418.0,465.606
465616.0,358.0,438.0,4.0,430.0,465.616
465626.0,364.0,443.0,3.0,438.0,465.626
465636.0,363.0,440.0,4.0,432.0,465.636
465646.0,361.0,439.0,3.0,427.0,465.646
465656.0,350.0,424.0,4.0,418.0,465.656
465666.0,356.0,434.0,4.0,425.0,465.666
465676.0,366.0,444.0,5.0,435.0,465.676
465686.0,363.0,440.0,4.0,432.0,465.686
465696.0,361.0,439.0,4.0,426.0,465.696
465707.0,352.0,425.0,4.0,420.0,465.707
465717.0,360.0,440.0,4.0,432.0,465.717
465727.0,369.0,448.0,4.0,437.0,465.727
465737.0,359.0,433.0,5.0,423.0,465.737
465747.0,357.0,434.0,3.0,421.0,465.747
465757.0,350.0,428.0,4.0,416.0,465.757
465767.0,361.0,446.0,3.0,430.0,465.767
465777.0,369.0,447.0,3.0,434.0,465.777
465787.0,357.0,442.0,4.0,419.0,465.787
465797.0,358.0,440.0,4.0,420.0,465.797
465807.0,351.0,440.0,4.0,416.0,465.807
465817.0,362.0,458.0,3.0,427.0,465.817
465827.0,369.0,456.0,4.0,433.0,465.827
465837.0,361.0,465.0,3.0,425.0,465.837
465847.0,359.0,456.0,4.0,422.0,465.847
465857.0,353.0,460.0,4.0,417.0,465.857
465867.0,364.0,477.0,4.0,428.0,465.867
465878.0,370.0,473.0,4.0,434.0,465.878
465888.0,357.0,478.0,4.0,420.0,465.888
465898.0,357.0,475.0,3.0,419.0,465.898
465908.0,362.0,485.0,4.0,428.0,465.908
465918.0,364.0,497.0,4.0,432.0,465.918
465928.0,369.0,484.0,4.0,434.0,465.928
465938.0,355.0,487.0,3.0,422.0,465.938
465948.0,354.0,481.0,4.0,420.0,465.948
465958.0,361.0,491.0,3.0,431.0,465.958
465968.0,362.0,497.0,3.0,430.0,465.968
465978.0,367.0,486.0,4.0,429.0,465.978
465988.0,353.0,488.0,5.0,417.0,465.988
465998.0,354.0,485.0,4.0,421.0,465.998
466008.0,355.0,494.0,4.0,426.0,466.008
466018.0,362.0,507.0,4.0,430.0,466.018
466028.0,365.0,495.0,3.0,426.0,466.028
466038.0,353.0,496.0,4.0,412.0,466.038
466048.0,356.0,492.0,3.0,418.0,466.048
466058.0,359.0,498.0,4.0,424.0,466.058
466068.0,364.0,507.0,4.0,428.0,466.068
466078.0,365.0,491.0,4.0,425.0,466.078
466088.0,352.0,490.0,3.0,414.0,466.088
466098.0,357.0,487.0,4.0,420.0,466.098
466108.0,360.0,494.0,4.0,429.0,466.108
466118.0,365.0,505.0,5.0,433.0,466.118
466128.0,364.0,490.0,4.0,428.0,466.128
466138.0,356.0,498.0,4.0,421.0,466.138
466148.0,355.0,492.0,3.0,422.0,466.148
466158.0,359.0,498.0,4.0,430.0,466.158
466168.0,363.0,508.0,3.0,433.0,466.168
466178.0,367.0,494.0,4.0,432.0,466.178
466188.0,354.0,490.0,4.0,420.0,466.188
466198.0,354.0,484.0,4.0,421.0,466.198
466208.0,361.0,488.0,3.0,432.0,466.208
466219.0,363.0,489.0,3.0,433.0,466.219
466229.0,361.0,475.0,4.0,429.0,466.229
466239.0,348.0,462.0,4.0,417.0,466.239
466249.0,357.0,473.0,4.0,431.0,466.249
466259.0,366.0,476.0,3.0,439.0,466.259
466269.0,363.0,477.0,4.0,433.0,466.269
466279.0,361.0,466.0,3.0,429.0,466.279
466289.0,349.0,455.0,4.0,416.0,466.289
466299.0,358.0,468.0,4.0,429.0,466.299
466309.0,364.0,469.0,5.0,434.0,466.309
466319.0,362.0,472.0,4.0,433.0,466.319
466329.0,360.0,461.0,3.0,428.0,466.329
466339.0,347.0,450.0,3.0,419.0,466.339
466349.0,352.0,457.0,4.0,426.0,466.349
466359.0,363.0,463.0,4.0,438.0,466.359
466369.0,360.0,461.0,4.0,432.0,466.369
466379.0,357.0,452.0,3.0,428.0,466.379
466390.0,348.0,443.0,5.0,421.0,466.39
466400.0,358.0,458.0,4.0,432.0,466.4
466410.0,366.0,462.0,3.0,437.0,466.41
466420.0,355.0,444.0,4.0,425.0,466.42
466430.0,353.0,445.0,4.0,422.0,466.43
466440.0,348.0,434.0,4.0,418.0,466.44
466450.0,358.0,449.0,3.0,431.0,466.45
466460.0,367.0,455.0,4.0,438.0,466.46
466470.0,354.0,436.0,3.0,423.0,466.47
466480.0,356.0,437.0,4.0,421.0,466.48
466490.0,347.0,431.0,4.0,417.0,466.49
466500.0,358.0,445.0,4.0,427.0,466.5
466510.0,365.0,449.0,2.0,431.0,466.51
466520.0,356.0,437.0,4.0,424.0,466.52
466530.0,355.0,438.0,3.0,423.0,466.53
466540.0,350.0,431.0,4.0,419.0,466.54
466550.0,360.0,444.0,4.0,429.0,466.55
466560.0,366.0,447.0,5.0,433.0,466.56
466570.0,357.0,437.0,4.0,421.0,466.57
466580.0,355.0,436.0,3.0,419.0,466.58
466590.0,351.0,435.0,3.0,422.0,466.59
466600.0,360.0,447.0,3.0,430.0,466.6
466610.0,366.0,448.0,3.0,434.0,466.61
466620.0,355.0,438.0,4.0,421.0,466.62
466630.0,354.0,436.0,4.0,419.0,466.63
466640.0,352.0,437.0,4.0,423.0,466.64
466650.0,357.0,446.0,4.0,429.0,466.65
466660.0,365.0,452.0,3.0,436.0,466.66
466670.0,354.0,435.0,3.0,423.0,466.67
466680.0,352.0,436.0,4.0,419.0,466.68
466690.0,347.0,428.0,5.0,414.0,466.69
466700.0,357.0,441.0,4.0,425.0,466.7
466710.0,366.0,451.0,4.0,435.0,466.71
466720.0,353.0,430.0,3.0,421.0,466.72
466731.0,353.0,433.0,4.0,420.0,466.731
466741.0,355.0,437.0,3.0,426.0,466.741
466751.0,360.0,442.0,4.0,431.0,466.751
466761.0,360.0,439.0,4.0,426.0,466.761
466771.0,346.0,423.0,4.0,410.0,466.771
466781.0,351.0,433.0,3.0,417.0,466.781
466791.0,355.0,438.0,3.0,424.0,466.791
466801.0,358.0,445.0,3.0,427.0,466.801
466811.0,359.0,438.0,5.0,424.0,466.811
466821.0,350.0,436.0,4.0,417.0,466.821
466831.0,350.0,438.0,3.0,418.0,466.831
466841.0,356.0,447.0,4.0,427.0,466.841
466851.0,358.0,457.0,3.0,427.0,466.851
466861.0,364.0,450.0,4.0,428.0,466.861
466871.0,350.0,449.0,4.0,417.0,466.871
466881.0,351.0,450.0,4.0,420.0,466.881
466891.0,358.0,459.0,4.0,429.0,466.891
466902.0,360.0,467.0,4.0,424.0,466.902
466912.0,358.0,457.0,3.0,420.0,466.912
466922.0,346.0,451.0,4.0,410.0,466.922
466932.0,355.0,465.0,4.0,422.0,466.932
466942.0,366.0,471.0,5.0,433.0,466.942
466952.0,360.0,477.0,4.0,431.0,466.952
466962.0,358.0,465.0,3.0,425.0,466.962
466972.0,346.0,464.0,3.0,419.0,466.972
466982.0,357.0,478.0,4.0,430.0,466.982
466992.0,362.0,481.0,4.0,435.0,466.992
467002.0,360.0,486.0,4.0,431.0,467.002
467012.0,358.0,473.0,4.0,427.0,467.012
467022.0,348.0,471.0,5.0,417.0,467.022
467032.0,354.0,478.0,3.0,423.0,467.032
467042.0,363.0,485.0,3.0,435.0,467.042
467052.0,359.0,488.0,4.0,429.0,467.052
467062.0,357.0,475.0,3.0,425.0,467.062
467072.0,348.0,471.0,4.0,414.0,467.072
467082.0,353.0,478.0,4.0,425.0,467.082
467092.0,364.0,486.0,4.0,435.0,467.092
467102.0,359.0,475.0,3.0,428.0,467.102
467112.0,356.0,467.0,4.0,425.0,467.112
467122.0,348.0,452.0,3.0,416.0,467.122
467132.0,357.0,460.0,4.0,429.0,467.132
467142.0,365.0,462.0,4.0,438.0,467.142
467152.0,358.0,457.0,4.0,426.0,467.152
467162.0,359.0,453.0,3.0,427.0,467.162
467172.0,347.0,442.0,4.0,412.0,467.172
467182.0,356.0,456.0,4.0,425.0,467.182
467192.0,366.0,464.0,4.0,436.0,467.192
467202.0,360.0,457.0,4.0,427.0,467.202
467212.0,359.0,452.0,4.0,424.0,467.212
467222.0,347.0,434.0,4.0,414.0,467.222
467232.0,357.0,448.0,4.0,427.0,467.232
467243.0,367.0,459.0,4.0,438.0,467.243
467253.0,357.0,438.0,4.0,426.0,467.253
467263.0,356.0,441.0,4.0,422.0,467.263
467273.0,352.0,437.0,3.0,423.0,467.273
467283.0,360.0,443.0,3.0,433.0,467.283
467293.0,366.0,453.0,3.0,438.0,467.293
467303.0,356.0,431.0,4.0,423.0,467.303
467313.0,353.0,435.0,4.0,421.0,467.313
467323.0,355.0,436.0,5.0,424.0,467.323
467333.0,359.0,443.0,4.0,430.0,467.333
467343.0,367.0,452.0,4.0,436.0,467.343
467353.0,355.0,433.0,3.0,422.0,467.353
467363.0,354.0,436.0,3.0,418.0,467.363
467373.0,349.0,429.0,4.0,415.0,467.373
467383.0,359.0,442.0,4.0,427.0,467.383
467393.0,367.0,450.0,4.0,430.0,467.393
467403.0,352.0,427.0,3.0,414.0,467.403
467414.0,352.0,433.0,3.0,415.0,467.414
467424.0,355.0,436.0,4.0,420.0,467.424
467434.0,358.0,444.0,4.0,422.0,467.434
467444.0,359.0,438.0,4.0,418.0,467.444
467454.0,347.0,428.0,4.0,406.0,467.454
467464.0,351.0,435.0,4.0,410.0,467.464
467474.0,357.0,441.0,4.0,421.0,467.474
467484.0,359.0,447.0,3.0,423.0,467.484
467494.0,359.0,440.0,4.0,418.0,467.494
467504.0,350.0,437.0,4.0,410.0,467.504
467514.0,353.0,439.0,5.0,412.0,467.514
467524.0,358.0,448.0,3.0,423.0,467.524
467534.0,360.0,458.0,4.0,420.0,467.534
467544.0,365.0,451.0,3.0,424.0,467.544
467554.0,352.0,450.0,3.0,410.0,467.554
467564.0,353.0,453.0,4.0,416.0,467.564
467574.0,362.0,466.0,4.0,427.0,467.574
467584.0,362.0,473.0,2.0,426.0,467.584
467594.0,364.0,464.0,4.0,425.0,467.594
467604.0,351.0,464.0,4.0,411.0,467.604
467614.0,353.0,464.0,3.0,417.0,467.614
467624.0,363.0,474.0,4.0,427.0,467.624
467634.0,362.0,483.0,4.0,425.0,467.634
467644.0,363.0,472.0,4.0,421.0,467.644
467654.0,350.0,475.0,4.0,406.0,467.654
467664.0,354.0,479.0,3.0,413.0,467.664
467674.0,357.0,484.0,4.0,417.0,467.674
467684.0,362.0,497.0,4.0,423.0,467.684
467694.0,362.0,483.0,4.0,420.0,467.694
467704.0,350.0,486.0,4.0,408.0,467.704
467714.0,354.0,487.0,4.0,414.0,467.714
467724.0,359.0,499.0,4.0,422.0,467.724
467734.0,362.0,512.0,3.0,426.0,467.734
467744.0,362.0,496.0,4.0,422.0,467.744
467755.0,348.0,505.0,3.0,408.0,467.755
467765.0,355.0,509.0,5.0,419.0,467.765
467775.0,364.0,514.0,4.0,432.0,467.775
467785.0,358.0,529.0,4.0,425.0,467.785
467795.0,356.0,514.0,3.0,421.0,467.795
467805.0,346.0,525.0,3.0,412.0,467.805
467815.0,355.0,531.0,4.0,424.0,467.815
467825.0,365.0,529.0,4.0,432.0,467.825
467835.0,358.0,549.0,3.0,425.0,467.835
467845.0,359.0,531.0,4.0,424.0,467.845
467855.0,347.0,549.0,4.0,415.0,467.855
467865.0,356.0,555.0,3.0,425.0,467.865
467875.0,366.0,552.0,3.0,434.0,467.875
467885.0,360.0,571.0,4.0,427.0,467.885
467895.0,359.0,549.0,4.0,423.0,467.895
467905.0,347.0,563.0,4.0,412.0,467.905
467915.0,357.0,568.0,3.0,428.0,467.915
467926.0,366.0,560.0,3.0,439.0,467.926
467936.0,357.0,574.0,3.0,423.0,467.936
467946.0,356.0,558.0,4.0,423.0,467.946
467956.0,356.0,568.0,5.0,424.0,467.956
467966.0,362.0,579.0,3.0,430.0,467.966
467976.0,368.0,561.0,4.0,436.0,467.976
467986.0,358.0,579.0,3.0,423.0,467.986
467996.0,357.0,559.0,4.0,421.0,467.996
468006.0,357.0,569.0,4.0,425.0,468.006
468016.0,362.0,576.0,5.0,428.0,468.016
468026.0,370.0,563.0,4.0,435.0,468.026
468036.0,358.0,576.0,4.0,426.0,468.036
468046.0,357.0,560.0,3.0,426.0,468.046
468056.0,353.0,565.0,3.0,423.0,468.056
468066.0,363.0,572.0,4.0,433.0,468.066
468076.0,369.0,555.0,4.0,437.0,468.076
468086.0,357.0,566.0,4.0,422.0,468.086
468096.0,358.0,550.0,4.0,424.0,468.096
468106.0,354.0,555.0,4.0,423.0,468.106
468116.0,363.0,563.0,3.0,433.0,468.116
468126.0,370.0,547.0,4.0,440.0,468.126
468136.0,357.0,551.0,4.0,424.0,468.136
468146.0,359.0,536.0,4.0,426.0,468.146
468156.0,355.0,538.0,4.0,424.0,468.156
468166.0,364.0,546.0,4.0,432.0,468.166
468176.0,369.0,530.0,3.0,433.0,468.176
468186.0,360.0,536.0,4.0,424.0,468.186
468196.0,357.0,521.0,3.0,420.0,468.196
468206.0,357.0,525.0,5.0,423.0,468.206
468216.0,363.0,533.0,3.0,429.0,468.216
468226.0,369.0,522.0,3.0,433.0,468.226
468236.0,358.0,521.0,3.0,421.0,468.236
468246.0,356.0,509.0,3.0,419.0,468.246
468256.0,357.0,511.0,4.0,424.0,468.256
468267.0,363.0,519.0,3.0,429.0,468.267
468277.0,366.0,504.0,4.0,428.0,468.277
468287.0,354.0,502.0,3.0,415.0,468.287
468297.0,355.0,499.0,4.0,423.0,468.297
468307.0,366.0,503.0,3.0,438.0,468.307
468317.0,364.0,509.0,4.0,435.0,468.317
468327.0,364.0,493.0,3.0,432.0,468.327
468337.0,353.0,494.0,4.0,416.0,468.337
468347.0,356.0,494.0,3.0,425.0,468.347
468357.0,360.0,498.0,4.0,430.0,468.357
468367.0,364.0,509.0,3.0,433.0,468.367
468377.0,364.0,492.0,4.0,428.0,468.377
468387.0,351.0,491.0,4.0,414.0,468.387
468397.0,357.0,492.0,5.0,422.0,468.397
468407.0,363.0,501.0,3.0,432.0,468.407
468417.0,364.0,508.0,3.0,431.0,468.417
468427.0,362.0,493.0,3.0,429.0,468.427
468438.0,350.0,492.0,3.0,415.0,468.438
468448.0,358.0,499.0,3.0,425.0,468.448
468458.0,369.0,503.0,5.0,436.0,468.458
468468.0,362.0,506.0,4.0,428.0,468.468
468478.0,359.0,493.0,4.0,424.0,468.478
468488.0,351.0,494.0,4.0,418.0,468.488
468498.0,359.0,501.0,3.0,430.0,468.498
468508.0,369.0,501.0,4.0,439.0,468.508
468518.0,361.0,509.0,4.0,429.0,468.518
468528.0,363.0,496.0,4.0,429.0,468.528
468538.0,351.0,497.0,4.0,418.0,468.538
468548.0,361.0,506.0,4.0,431.0,468.548
468558.0,369.0,505.0,3.0,440.0,468.558
468568.0,364.0,511.0,4.0,432.0,468.568
468578.0,361.0,496.0,4.0,428.0,468.578
468588.0,352.0,496.0,5.0,420.0,468.588
468598.0,361.0,507.0,2.0,434.0,468.598
468608.0,367.0,504.0,3.0,440.0,468.608
468618.0,363.0,512.0,3.0,433.0,468.618
468628.0,360.0,496.0,4.0,427.0,468.628
468638.0,351.0,501.0,3.0,420.0,468.638
468648.0,361.0,513.0,5.0,430.0,468.648
468658.0,367.0,511.0,4.0,436.0,468.658
468668.0,361.0,522.0,4.0,429.0,468.668
468678.0,359.0,507.0,4.0,423.0,468.678
468688.0,352.0,516.0,3.0,418.0,468.688
468698.0,359.0,522.0,4.0,425.0,468.698
468708.0,369.0,526.0,4.0,439.0,468.708
468718.0,364.0,541.0,5.0,429.0,468.718
468728.0,360.0,525.0,4.0,426.0,468.728
468738.0,352.0,533.0,3.0,419.0,468.738
468748.0,361.0,541.0,3.0,431.0,468.748
468758.0,371.0,537.0,3.0,438.0,468.758
468768.0,362.0,549.0,3.0,427.0,468.768
468779.0,360.0,530.0,5.0,423.0,468.779
468789.0,357.0,539.0,4.0,425.0,468.789
468799.0,364.0,552.0,4.0,435.0,468.799
468809.0,369.0,536.0,3.0,436.0,468.809
468819.0,357.0,549.0,3.0,423.0,468.819
468829.0,358.0,535.0,3.0,425.0,468.829
468839.0,357.0,546.0,4.0,425.0,468.839
468849.0,365.0,559.0,4.0,434.0,468.849
468859.0,369.0,540.0,3.0,433.0,468.859
468869.0,360.0,562.0,3.0,427.0,468.869
468879.0,358.0,546.0,3.0,421.0,468.879
468889.0,357.0,560.0,4.0,424.0,468.889
468899.0,363.0,577.0,4.0,432.0,468.899
468909.0,369.0,559.0,4.0,439.0,468.909
468919.0,357.0,581.0,3.0,424.0,468.919
468929.0,356.0,563.0,3.0,422.0,468.929
468939.0,358.0,577.0,3.0,429.0,468.939
468950.0,363.0,591.0,4.0,434.0,468.95
468960.0,364.0,567.0,4.0,430.0,468.96
468970.0,353.0,585.0,5.0,419.0,468.97
468980.0,355.0,576.0,4.0,426.0,468.98
468990.0,364.0,578.0,4.0,438.0,468.99
469000.0,363.0,592.0,3.0,436.0,469.0
469010.0,364.0,568.0,3.0,432.0,469.01
469020.0,351.0,573.0,3.0,419.0,469.02
469030.0,356.0,565.0,5.0,427.0,469.03
469040.0,360.0,565.0,4.0,432.0,469.04
469050.0,363.0,573.0,3.0,433.0,469.05
469060.0,363.0,550.0,4.0,429.0,469.06
469070.0,350.0,556.0,4.0,416.0,469.07
469080.0,355.0,549.0,4.0,422.0,469.08
469090.0,362.0,558.0,4.0,431.0,469.09
469100.0,363.0,568.0,4.0,430.0,469.1
469110.0,361.0,545.0,4.0,425.0,469.11
469120.0,353.0,560.0,4.0,418.0,469.12
469130.0,354.0,551.0,4.0,421.0,469.13
469140.0,363.0,558.0,4.0,434.0,469.14
469150.0,363.0,570.0,4.0,433.0,469.15
469160.0,362.0,547.0,5.0,428.0,469.16
469170.0,353.0,558.0,4.0,420.0,469.17
469180.0,355.0,549.0,3.0,426.0,469.18
469190.0,365.0,555.0,4.0,438.0,469.19
469200.0,363.0,566.0,3.0,435.0,469.2
469210.0,365.0,545.0,4.0,434.0,469.21
469220.0,355.0,553.0,5.0,422.0,469.22
469230.0,357.0,547.0,4.0,427.0,469.23
469240.0,368.0,552.0,4.0,440.0,469.24
