time (ms),signal 0,signal 1,signal 2,signal 3,time (sec)
623971.0,223.0,31.0,4.0,251.0,623.971
623981.0,227.0,32.0,4.0,253.0,623.981
623991.0,219.0,32.0,4.0,244.0,623.991
624001.0,222.0,32.0,4.0,246.0,624.001
624011.0,217.0,31.0,4.0,242.0,624.011
624021.0,224.0,32.0,4.0,249.0,624.021
624031.0,227.0,33.0,4.0,252.0,624.031
624041.0,219.0,32.0,3.0,242.0,624.041
624051.0,222.0,32.0,4.0,246.0,624.051
624061.0,217.0,32.0,4.0,243.0,624.061
624071.0,225.0,31.0,4.0,250.0,624.071
624081.0,227.0,33.0,2.0,251.0,624.081
624091.0,221.0,32.0,4.0,244.0,624.091
624101.0,223.0,33.0,3.0,246.0,624.101
624111.0,219.0,32.0,4.0,244.0,624.111
624121.0,225.0,32.0,4.0,251.0,624.121
624131.0,229.0,32.0,5.0,252.0,624.131
624141.0,222.0,31.0,3.0,245.0,624.141
624151.0,223.0,32.0,3.0,245.0,624.151
624161.0,221.0,33.0,3.0,247.0,624.161
624171.0,225.0,32.0,3.0,251.0,624.171
624181.0,229.0,32.0,4.0,253.0,624.181
624191.0,222.0,32.0,5.0,244.0,624.191
624201.0,224.0,31.0,3.0,245.0,624.201
624211.0,222.0,32.0,4.0,248.0,624.211
624221.0,227.0,32.0,4.0,252.0,624.221
624231.0,231.0,33.0,3.0,256.0,624.231
624241.0,223.0,32.0,4.0,246.0,624.241
624251.0,224.0,31.0,4.0,248.0,624.251
624261.0,221.0,31.0,5.0,245.0,624.261
624271.0,228.0,33.0,2.0,256.0,624.271
624281.0,231.0,32.0,4.0,257.0,624.281
624291.0,223.0,33.0,3.0,248.0,624.291
624301.0,226.0,32.0,3.0,251.0,624.301
624311.0,221.0,32.0,4.0,248.0,624.311
624321.0,229.0,32.0,5.0,255.0,624.321
624331.0,232.0,32.0,4.0,257.0,624.331
624342.0,224.0,32.0,3.0,247.0,624.342
624352.0,225.0,33.0,3.0,251.0,624.352
624362.0,229.0,32.0,4.0,255.0,624.362
624372.0,230.0,31.0,3.0,255.0,624.372
624382.0,229.0,33.0,5.0,253.0,624.382
624392.0,225.0,31.0,4.0,246.0,624.392
624402.0,226.0,32.0,3.0,249.0,624.402
624412.0,230.0,32.0,4.0,255.0,624.412
624422.0,231.0,32.0,3.0,255.0,624.422
624432.0,234.0,32.0,4.0,256.0,624.432
624442.0,225.0,32.0,4.0,247.0,624.442
624452.0,228.0,31.0,4.0,251.0,624.452
624462.0,232.0,32.0,4.0,258.0,624.462
624472.0,233.0,32.0,3.0,258.0,624.472
624482.0,233.0,33.0,3.0,259.0,624.482
624492.0,226.0,30.0,4.0,248.0,624.492
624502.0,228.0,32.0,3.0,253.0,624.502
624512.0,229.0,32.0,5.0,256.0,624.512
624522.0,233.0,31.0,4.0,258.0,624.522
624532.0,233.0,32.0,4.0,257.0,624.532
624542.0,226.0,33.0,3.0,249.0,624.542
624552.0,228.0,32.0,4.0,252.0,624.552
624562.0,230.0,32.0,4.0,256.0,624.562
624572.0,233.0,32.0,4.0,257.0,624.572
624582.0,233.0,31.0,4.0,257.0,624.582
624592.0,225.0,32.0,4.0,247.0,624.592
624602.0,228.0,32.0,3.0,252.0,624.602
624612.0,231.0,32.0,3.0,257.0,624.612
624622.0,233.0,32.0,4.0,258.0,624.622
624632.0,233.0,33.0,3.0,256.0,624.632
624642.0,228.0,31.0,5.0,250.0,624.642
624652.0,228.0,32.0,4.0,254.0,624.652
624662.0,232.0,32.0,4.0,259.0,624.662
624672.0,233.0,33.0,4.0,259.0,624.672
624683.0,232.0,32.0,4.0,256.0,624.683
624693.0,224.0,32.0,3.0,247.0,624.693
624703.0,230.0,32.0,5.0,256.0,624.703
624713.0,235.0,31.0,4.0,262.0,624.713
624723.0,230.0,32.0,4.0,256.0,624.723
624733.0,231.0,33.0,3.0,258.0,624.733
624743.0,223.0,32.0,4.0,248.0,624.743
624753.0,230.0,32.0,3.0,258.0,624.753
624763.0,236.0,33.0,4.0,263.0,624.763
624773.0,233.0,31.0,4.0,259.0,624.773
624783.0,231.0,33.0,4.0,257.0,624.783
624793.0,224.0,32.0,4.0,250.0,624.793
624803.0,231.0,33.0,3.0,258.0,624.803
624813.0,235.0,32.0,3.0,261.0,624.813
624823.0,232.0,32.0,4.0,258.0,624.823
624833.0,233.0,33.0,4.0,257.0,624.833
624843.0,224.0,32.0,2.0,251.0,624.843
624854.0,232.0,32.0,4.0,260.0,624.854
624864.0,236.0,33.0,3.0,263.0,624.864
624874.0,230.0,32.0,4.0,256.0,624.874
624884.0,231.0,32.0,4.0,257.0,624.884
624894.0,231.0,32.0,5.0,259.0,624.894
624904.0,233.0,32.0,4.0,263.0,624.904
624914.0,237.0,33.0,4.0,264.0,624.914
624924.0,229.0,33.0,3.0,257.0,624.924
624934.0,230.0,32.0,4.0,256.0,624.934
624944.0,225.0,32.0,4.0,254.0,624.944
624954.0,234.0,32.0,5.0,263.0,624.954
624964.0,238.0,32.0,4.0,264.0,624.964
624974.0,230.0,32.0,4.0,255.0,624.974
624984.0,231.0,33.0,3.0,259.0,624.984
624994.0,225.0,32.0,3.0,253.0,624.994
625004.0,231.0,32.0,4.0,259.0,625.004
625014.0,233.0,32.0,4.0,258.0,625.014
625024.0,229.0,31.0,4.0,256.0,625.024
625034.0,230.0,32.0,2.0,258.0,625.034
625044.0,224.0,32.0,3.0,254.0,625.044
625054.0,231.0,32.0,3.0,261.0,625.054
625064.0,234.0,32.0,4.0,261.0,625.064
625074.0,229.0,32.0,3.0,258.0,625.074
625084.0,232.0,32.0,4.0,257.0,625.084
625094.0,228.0,32.0,3.0,256.0,625.094
625104.0,236.0,32.0,3.0,260.0,625.104
625114.0,238.0,33.0,3.0,263.0,625.114
625124.0,231.0,32.0,3.0,256.0,625.124
625134.0,233.0,32.0,4.0,257.0,625.134
625144.0,230.0,32.0,4.0,257.0,625.144
625154.0,234.0,31.0,3.0,260.0,625.154
625164.0,237.0,32.0,3.0,260.0,625.164
625174.0,228.0,32.0,3.0,255.0,625.174
625184.0,229.0,32.0,3.0,256.0,625.184
625195.0,226.0,32.0,4.0,258.0,625.195
625205.0,231.0,32.0,4.0,261.0,625.205
625215.0,233.0,31.0,4.0,259.0,625.215
625225.0,224.0,32.0,4.0,253.0,625.225
625235.0,228.0,32.0,3.0,257.0,625.235
625245.0,230.0,33.0,3.0,261.0,625.245
625255.0,233.0,32.0,4.0,263.0,625.255
625265.0,235.0,32.0,3.0,262.0,625.265
625275.0,226.0,31.0,4.0,253.0,625.275
625285.0,230.0,32.0,2.0,253.0,625.285
625295.0,231.0,32.0,4.0,257.0,625.295
625305.0,235.0,32.0,3.0,266.0,625.305
625315.0,236.0,32.0,3.0,267.0,625.315
625325.0,230.0,31.0,3.0,262.0,625.325
625335.0,233.0,32.0,5.0,263.0,625.335
625345.0,235.0,32.0,4.0,268.0,625.345
625355.0,236.0,32.0,4.0,268.0,625.355
625366.0,237.0,33.0,3.0,268.0,625.366
625376.0,227.0,32.0,3.0,257.0,625.376
625386.0,231.0,32.0,4.0,261.0,625.386
625396.0,237.0,32.0,4.0,268.0,625.396
625406.0,232.0,31.0,4.0,262.0,625.406
625416.0,234.0,32.0,3.0,262.0,625.416
625426.0,228.0,32.0,4.0,260.0,625.426
625436.0,234.0,32.0,3.0,265.0,625.436
625446.0,239.0,32.0,3.0,267.0,625.446
625456.0,236.0,31.0,3.0,263.0,625.456
625466.0,242.0,31.0,4.0,263.0,625.466
625476.0,230.0,31.0,2.0,255.0,625.476
625486.0,238.0,32.0,4.0,271.0,625.486
625496.0,240.0,32.0,3.0,273.0,625.496
625506.0,238.0,32.0,4.0,266.0,625.506
625516.0,236.0,32.0,3.0,264.0,625.516
625526.0,226.0,31.0,5.0,252.0,625.526
625536.0,232.0,31.0,4.0,259.0,625.536
625546.0,238.0,32.0,4.0,264.0,625.546
625556.0,236.0,32.0,3.0,263.0,625.556
625566.0,236.0,32.0,3.0,263.0,625.566
625576.0,228.0,32.0,4.0,253.0,625.576
625586.0,233.0,32.0,4.0,262.0,625.586
625596.0,242.0,31.0,4.0,276.0,625.596
625606.0,238.0,32.0,3.0,269.0,625.606
625616.0,241.0,32.0,4.0,273.0,625.616
625626.0,233.0,32.0,3.0,264.0,625.626
625636.0,237.0,32.0,4.0,270.0,625.636
625646.0,243.0,32.0,3.0,276.0,625.646
625656.0,240.0,31.0,5.0,269.0,625.656
625666.0,242.0,32.0,4.0,270.0,625.666
625676.0,235.0,32.0,3.0,261.0,625.676
625686.0,240.0,33.0,3.0,272.0,625.686
625696.0,245.0,32.0,4.0,277.0,625.696
625707.0,239.0,31.0,3.0,267.0,625.707
625717.0,239.0,32.0,3.0,264.0,625.717
625727.0,234.0,31.0,4.0,263.0,625.727
625737.0,239.0,31.0,4.0,271.0,625.737
625747.0,243.0,33.0,3.0,277.0,625.747
625757.0,237.0,32.0,3.0,267.0,625.757
625767.0,237.0,32.0,3.0,265.0,625.767
625777.0,231.0,32.0,5.0,263.0,625.777
625787.0,239.0,31.0,3.0,275.0,625.787
625797.0,240.0,32.0,4.0,276.0,625.797
625807.0,234.0,31.0,4.0,267.0,625.807
625817.0,234.0,32.0,3.0,264.0,625.817
625827.0,229.0,32.0,4.0,258.0,625.827
625837.0,231.0,32.0,3.0,262.0,625.837
625847.0,238.0,32.0,4.0,262.0,625.847
625857.0,229.0,31.0,3.0,254.0,625.857
625867.0,232.0,32.0,4.0,255.0,625.867
625878.0,230.0,33.0,3.0,258.0,625.878
625888.0,239.0,30.0,4.0,267.0,625.888
625898.0,244.0,33.0,4.0,274.0,625.898
625908.0,235.0,32.0,5.0,264.0,625.908
625918.0,236.0,31.0,4.0,267.0,625.918
625928.0,238.0,32.0,4.0,271.0,625.928
625938.0,241.0,32.0,3.0,274.0,625.938
625948.0,243.0,32.0,4.0,272.0,625.948
625958.0,232.0,31.0,3.0,262.0,625.958
625968.0,235.0,32.0,4.0,263.0,625.968
625978.0,234.0,32.0,4.0,265.0,625.978
625988.0,237.0,32.0,3.0,267.0,625.988
625998.0,240.0,32.0,4.0,265.0,625.998
626008.0,235.0,32.0,3.0,262.0,626.008
626018.0,238.0,32.0,4.0,263.0,626.018
626028.0,239.0,32.0,4.0,266.0,626.028
626038.0,240.0,31.0,4.0,265.0,626.038
626048.0,242.0,31.0,4.0,265.0,626.048
626058.0,232.0,31.0,3.0,253.0,626.058
626068.0,232.0,33.0,3.0,255.0,626.068
626078.0,237.0,31.0,3.0,258.0,626.078
626088.0,239.0,31.0,4.0,261.0,626.088
626098.0,242.0,31.0,5.0,259.0,626.098
626108.0,230.0,31.0,4.0,248.0,626.108
626118.0,232.0,31.0,4.0,250.0,626.118
626128.0,235.0,32.0,3.0,257.0,626.128
626138.0,240.0,32.0,4.0,261.0,626.138
626148.0,241.0,32.0,4.0,261.0,626.148
626158.0,232.0,32.0,4.0,255.0,626.158
626168.0,236.0,31.0,3.0,264.0,626.168
626178.0,236.0,31.0,4.0,266.0,626.178
626188.0,241.0,32.0,4.0,270.0,626.188
626198.0,242.0,32.0,3.0,266.0,626.198
626208.0,231.0,30.0,4.0,256.0,626.208
626219.0,237.0,31.0,4.0,260.0,626.219
626229.0,241.0,31.0,4.0,265.0,626.229
626239.0,238.0,31.0,4.0,264.0,626.239
626249.0,238.0,32.0,4.0,265.0,626.249
626259.0,227.0,32.0,3.0,257.0,626.259
626269.0,228.0,30.0,4.0,258.0,626.269
626279.0,234.0,31.0,4.0,264.0,626.279
626289.0,234.0,31.0,5.0,263.0,626.289
626299.0,234.0,31.0,4.0,262.0,626.299
626309.0,228.0,31.0,4.0,255.0,626.309
626319.0,234.0,33.0,3.0,264.0,626.319
626329.0,240.0,32.0,4.0,268.0,626.329
626339.0,238.0,31.0,4.0,263.0,626.339
626349.0,242.0,31.0,4.0,264.0,626.349
626359.0,234.0,31.0,4.0,256.0,626.359
626369.0,238.0,32.0,3.0,264.0,626.369
626379.0,245.0,32.0,4.0,271.0,626.379
626390.0,239.0,32.0,3.0,266.0,626.39
626400.0,236.0,30.0,4.0,262.0,626.4
626410.0,228.0,31.0,4.0,258.0,626.41
626420.0,239.0,31.0,4.0,270.0,626.42
626430.0,244.0,32.0,4.0,270.0,626.43
626440.0,237.0,31.0,4.0,264.0,626.44
626450.0,237.0,33.0,3.0,263.0,626.45
626460.0,231.0,32.0,4.0,258.0,626.46
626470.0,240.0,32.0,4.0,269.0,626.47
626480.0,243.0,31.0,4.0,270.0,626.48
626490.0,239.0,31.0,4.0,267.0,626.49
626500.0,240.0,31.0,4.0,264.0,626.5
626510.0,234.0,32.0,3.0,260.0,626.51
626520.0,238.0,31.0,4.0,263.0,626.52
626530.0,244.0,32.0,3.0,268.0,626.53
626540.0,238.0,32.0,5.0,260.0,626.54
626550.0,238.0,31.0,3.0,262.0,626.55
626560.0,230.0,32.0,4.0,253.0,626.56
626570.0,238.0,32.0,3.0,265.0,626.57
626580.0,244.0,32.0,4.0,271.0,626.58
626590.0,239.0,31.0,4.0,263.0,626.59
626600.0,239.0,32.0,4.0,264.0,626.6
626610.0,232.0,31.0,4.0,259.0,626.61
626620.0,240.0,32.0,4.0,272.0,626.62
626630.0,245.0,32.0,4.0,273.0,626.63
626640.0,237.0,32.0,3.0,264.0,626.64
626650.0,239.0,32.0,4.0,264.0,626.65
626660.0,233.0,32.0,4.0,256.0,626.66
626670.0,243.0,31.0,4.0,268.0,626.67
626680.0,249.0,32.0,2.0,269.0,626.68
626690.0,243.0,31.0,3.0,260.0,626.69
626700.0,241.0,32.0,3.0,258.0,626.7
626710.0,234.0,32.0,4.0,254.0,626.71
626720.0,243.0,31.0,3.0,265.0,626.72
626731.0,246.0,32.0,4.0,265.0,626.731
626741.0,240.0,31.0,4.0,259.0,626.741
626751.0,243.0,31.0,4.0,264.0,626.751
626761.0,246.0,32.0,4.0,269.0,626.761
626771.0,247.0,31.0,3.0,266.0,626.771
626781.0,249.0,32.0,3.0,266.0,626.781
626791.0,239.0,31.0,4.0,255.0,626.791
626801.0,240.0,32.0,4.0,259.0,626.801
626811.0,242.0,31.0,3.0,261.0,626.811
626821.0,245.0,31.0,4.0,262.0,626.821
626831.0,248.0,33.0,3.0,264.0,626.831
626841.0,240.0,31.0,3.0,256.0,626.841
626851.0,241.0,32.0,3.0,260.0,626.851
626861.0,241.0,31.0,4.0,261.0,626.861
626871.0,245.0,31.0,4.0,260.0,626.871
626881.0,245.0,32.0,4.0,262.0,626.881
626891.0,237.0,32.0,3.0,254.0,626.891
626902.0,238.0,31.0,4.0,256.0,626.902
626912.0,246.0,32.0,3.0,266.0,626.912
626922.0,245.0,31.0,4.0,263.0,626.922
626932.0,242.0,31.0,4.0,261.0,626.932
626942.0,235.0,31.0,4.0,252.0,626.942
626952.0,236.0,32.0,3.0,260.0,626.952
626962.0,240.0,32.0,4.0,266.0,626.962
626972.0,239.0,31.0,4.0,264.0,626.972
626982.0,239.0,32.0,4.0,265.0,626.982
626992.0,235.0,31.0,4.0,258.0,626.992
627002.0,235.0,32.0,3.0,261.0,627.002
627012.0,241.0,32.0,4.0,265.0,627.012
627022.0,238.0,32.0,3.0,260.0,627.022
627032.0,239.0,32.0,4.0,262.0,627.032
627042.0,231.0,31.0,3.0,253.0,627.042
627052.0,236.0,31.0,5.0,257.0,627.052
627062.0,241.0,31.0,2.0,262.0,627.062
627072.0,240.0,31.0,4.0,259.0,627.072
627082.0,242.0,32.0,3.0,261.0,627.082
627092.0,233.0,31.0,4.0,250.0,627.092
627102.0,236.0,31.0,3.0,258.0,627.102
627112.0,244.0,31.0,5.0,265.0,627.112
627122.0,241.0,31.0,4.0,264.0,627.122
627132.0,241.0,31.0,4.0,265.0,627.132
627142.0,233.0,31.0,3.0,256.0,627.142
627152.0,238.0,31.0,3.0,262.0,627.152
627162.0,243.0,31.0,4.0,265.0,627.162
627172.0,242.0,31.0,4.0,265.0,627.172
627182.0,241.0,31.0,4.0,265.0,627.182
627192.0,231.0,31.0,3.0,253.0,627.192
627202.0,236.0,31.0,3.0,260.0,627.202
627212.0,242.0,32.0,4.0,269.0,627.212
627222.0,241.0,30.0,4.0,268.0,627.222
627232.0,240.0,31.0,4.0,265.0,627.232
627243.0,233.0,30.0,5.0,255.0,627.243
627253.0,238.0,31.0,3.0,265.0,627.253
627263.0,244.0,31.0,4.0,271.0,627.263
627273.0,239.0,32.0,3.0,267.0,627.273
627283.0,240.0,31.0,3.0,266.0,627.283
627293.0,232.0,31.0,4.0,262.0,627.293
627303.0,241.0,31.0,5.0,271.0,627.303
627313.0,245.0,31.0,2.0,274.0,627.313
627323.0,238.0,31.0,3.0,264.0,627.323
627333.0,240.0,32.0,3.0,266.0,627.333
627343.0,233.0,31.0,3.0,258.0,627.343
627353.0,241.0,31.0,4.0,268.0,627.353
627363.0,245.0,32.0,5.0,269.0,627.363
627373.0,241.0,31.0,3.0,265.0,627.373
627383.0,239.0,32.0,3.0,264.0,627.383
627393.0,233.0,31.0,4.0,260.0,627.393
627403.0,242.0,31.0,3.0,271.0,627.403
627414.0,246.0,31.0,4.0,274.0,627.414
627424.0,239.0,31.0,3.0,266.0,627.424
627434.0,241.0,31.0,5.0,267.0,627.434
627444.0,241.0,31.0,3.0,271.0,627.444
627454.0,244.0,31.0,4.0,273.0,627.454
627464.0,246.0,33.0,3.0,274.0,627.464
627474.0,239.0,30.0,4.0,264.0,627.474
627484.0,239.0,31.0,4.0,263.0,627.484
627494.0,241.0,31.0,4.0,265.0,627.494
627504.0,242.0,31.0,4.0,266.0,627.504
627514.0,242.0,32.0,4.0,261.0,627.514
627524.0,233.0,32.0,3.0,252.0,627.524
627534.0,232.0,32.0,3.0,252.0,627.534
627544.0,230.0,31.0,3.0,254.0,627.544
627554.0,237.0,32.0,5.0,262.0,627.554
627564.0,239.0,31.0,3.0,261.0,627.564
627574.0,230.0,32.0,3.0,253.0,627.574
627584.0,231.0,32.0,4.0,256.0,627.584
627594.0,227.0,32.0,3.0,256.0,627.594
627604.0,232.0,31.0,4.0,262.0,627.604
627614.0,236.0,32.0,4.0,264.0,627.614
627624.0,228.0,31.0,4.0,255.0,627.624
627634.0,231.0,32.0,4.0,260.0,627.634
627644.0,231.0,31.0,4.0,261.0,627.644
627654.0,236.0,33.0,3.0,265.0,627.654
627664.0,237.0,32.0,3.0,262.0,627.664
627674.0,233.0,31.0,4.0,258.0,627.674
627684.0,235.0,32.0,4.0,258.0,627.684
627694.0,238.0,31.0,3.0,262.0,627.694
627704.0,243.0,32.0,4.0,269.0,627.704
627714.0,245.0,33.0,3.0,271.0,627.714
627724.0,237.0,32.0,3.0,261.0,627.724
627734.0,239.0,32.0,3.0,263.0,627.734
627744.0,240.0,32.0,5.0,266.0,627.744
627755.0,242.0,31.0,4.0,268.0,627.755
627765.0,241.0,32.0,4.0,263.0,627.765
627775.0,234.0,32.0,4.0,253.0,627.775
627785.0,237.0,32.0,3.0,259.0,627.785
627795.0,245.0,32.0,3.0,267.0,627.795
627805.0,242.0,32.0,4.0,266.0,627.805
627815.0,242.0,31.0,4.0,259.0,627.815
627825.0,232.0,31.0,4.0,250.0,627.825
627835.0,238.0,32.0,3.0,257.0,627.835
627845.0,240.0,31.0,3.0,268.0,627.845
627855.0,238.0,30.0,4.0,265.0,627.855
627865.0,239.0,31.0,4.0,266.0,627.865
627875.0,231.0,31.0,4.0,258.0,627.875
627885.0,235.0,32.0,4.0,263.0,627.885
627895.0,240.0,32.0,3.0,272.0,627.895
627905.0,241.0,32.0,3.0,270.0,627.905
627915.0,240.0,32.0,3.0,268.0,627.915
627926.0,233.0,32.0,3.0,263.0,627.926
627936.0,239.0,32.0,5.0,276.0,627.936
627946.0,246.0,31.0,4.0,282.0,627.946
627956.0,240.0,31.0,4.0,274.0,627.956
627966.0,238.0,32.0,4.0,269.0,627.966
627976.0,231.0,32.0,3.0,259.0,627.976
627986.0,240.0,32.0,3.0,275.0,627.986
627996.0,245.0,32.0,4.0,281.0,627.996
628006.0,239.0,31.0,4.0,269.0,628.006
628016.0,240.0,32.0,3.0,269.0,628.016
628026.0,232.0,31.0,4.0,262.0,628.026
628036.0,241.0,33.0,3.0,274.0,628.036
628046.0,244.0,32.0,4.0,274.0,628.046
628056.0,239.0,32.0,3.0,267.0,628.056
628066.0,239.0,31.0,5.0,265.0,628.066
628076.0,230.0,31.0,3.0,258.0,628.076
628086.0,238.0,31.0,4.0,269.0,628.086
628096.0,241.0,32.0,3.0,272.0,628.096
628106.0,236.0,30.0,4.0,264.0,628.106
628116.0,235.0,32.0,3.0,264.0,628.116
628126.0,230.0,32.0,4.0,259.0,628.126
628136.0,238.0,31.0,4.0,269.0,628.136
628146.0,240.0,32.0,4.0,268.0,628.146
628156.0,235.0,32.0,3.0,257.0,628.156
628166.0,233.0,32.0,3.0,254.0,628.166
628176.0,228.0,32.0,3.0,247.0,628.176
628186.0,233.0,32.0,4.0,253.0,628.186
628196.0,238.0,31.0,4.0,256.0,628.196
628206.0,230.0,32.0,3.0,250.0,628.206
628216.0,230.0,32.0,3.0,251.0,628.216
628226.0,225.0,32.0,3.0,246.0,628.226
628236.0,233.0,32.0,3.0,258.0,628.236
628246.0,237.0,31.0,4.0,266.0,628.246
628256.0,233.0,31.0,4.0,257.0,628.256
628267.0,231.0,31.0,3.0,258.0,628.267
628277.0,229.0,31.0,4.0,255.0,628.277
628287.0,236.0,32.0,3.0,258.0,628.287
628297.0,235.0,32.0,4.0,256.0,628.297
628307.0,229.0,31.0,3.0,246.0,628.307
628317.0,231.0,32.0,5.0,250.0,628.317
628327.0,229.0,31.0,3.0,249.0,628.327
628337.0,234.0,32.0,3.0,255.0,628.337
628347.0,235.0,33.0,3.0,256.0,628.347
628357.0,231.0,32.0,3.0,249.0,628.357
628367.0,231.0,32.0,4.0,250.0,628.367
628377.0,230.0,31.0,4.0,251.0,628.377
628387.0,234.0,31.0,4.0,252.0,628.387
628397.0,236.0,32.0,4.0,255.0,628.397
628407.0,230.0,31.0,4.0,248.0,628.407
628417.0,229.0,33.0,3.0,251.0,628.417
628427.0,230.0,31.0,4.0,253.0,628.427
628438.0,233.0,31.0,4.0,258.0,628.438
628448.0,233.0,32.0,4.0,257.0,628.448
628458.0,224.0,31.0,4.0,248.0,628.458
628468.0,227.0,31.0,4.0,249.0,628.468
628478.0,233.0,33.0,3.0,256.0,628.478
628488.0,232.0,32.0,4.0,253.0,628.488
628498.0,231.0,32.0,4.0,252.0,628.498
628508.0,224.0,32.0,4.0,245.0,628.508
628518.0,227.0,31.0,2.0,253.0,628.518
628528.0,230.0,32.0,3.0,256.0,628.528
628538.0,231.0,32.0,3.0,257.0,628.538
628548.0,231.0,32.0,3.0,254.0,628.548
628558.0,224.0,31.0,3.0,246.0,628.558
628568.0,227.0,32.0,4.0,250.0,628.568
628578.0,232.0,31.0,4.0,256.0,628.578
628588.0,231.0,31.0,4.0,255.0,628.588
628598.0,231.0,32.0,3.0,255.0,628.598
628608.0,226.0,32.0,3.0,251.0,628.608
628618.0,228.0,32.0,4.0,254.0,628.618
628628.0,233.0,31.0,4.0,260.0,628.628
628638.0,233.0,31.0,5.0,257.0,628.638
628648.0,231.0,32.0,4.0,255.0,628.648
628658.0,227.0,31.0,4.0,248.0,628.658
628668.0,228.0,33.0,3.0,254.0,628.668
628678.0,234.0,32.0,4.0,260.0,628.678
628688.0,232.0,32.0,3.0,258.0,628.688
628698.0,233.0,32.0,4.0,259.0,628.698
628708.0,225.0,31.0,4.0,251.0,628.708
628718.0,228.0,32.0,3.0,255.0,628.718
628728.0,234.0,32.0,4.0,263.0,628.728
628738.0,233.0,32.0,3.0,260.0,628.738
628748.0,232.0,32.0,3.0,258.0,628.748
628758.0,225.0,31.0,4.0,248.0,628.758
628768.0,228.0,31.0,4.0,253.0,628.768
628779.0,234.0,32.0,3.0,259.0,628.779
628789.0,232.0,31.0,3.0,255.0,628.789
628799.0,230.0,33.0,3.0,254.0,628.799
628809.0,224.0,30.0,3.0,247.0,628.809
628819.0,231.0,31.0,4.0,257.0,628.819
628829.0,235.0,31.0,5.0,259.0,628.829
628839.0,231.0,31.0,4.0,253.0,628.839
628849.0,230.0,31.0,4.0,254.0,628.849
628859.0,224.0,32.0,3.0,249.0,628.859
628869.0,229.0,32.0,4.0,254.0,628.869
628879.0,233.0,31.0,3.0,259.0,628.879
628889.0,229.0,32.0,5.0,251.0,628.889
628899.0,229.0,31.0,2.0,253.0,628.899
628909.0,224.0,32.0,4.0,246.0,628.909
628919.0,229.0,32.0,4.0,257.0,628.919
628929.0,235.0,32.0,4.0,262.0,628.929
628939.0,230.0,31.0,3.0,257.0,628.939
628950.0,229.0,32.0,4.0,255.0,628.95
628960.0,225.0,31.0,4.0,253.0,628.96
628970.0,232.0,31.0,3.0,260.0,628.97
628980.0,233.0,32.0,4.0,258.0,628.98
628990.0,226.0,31.0,3.0,250.0,628.99
629000.0,229.0,31.0,4.0,255.0,629.0
629010.0,226.0,32.0,4.0,254.0,629.01
629020.0,233.0,31.0,4.0,262.0,629.02
629030.0,234.0,32.0,4.0,260.0,629.03
629040.0,229.0,31.0,4.0,255.0,629.04
629050.0,229.0,32.0,3.0,256.0,629.05
629060.0,228.0,32.0,3.0,259.0,629.06
629070.0,232.0,32.0,3.0,264.0,629.07
629080.0,237.0,32.0,4.0,269.0,629.08
629090.0,228.0,31.0,4.0,260.0,629.09
629100.0,230.0,32.0,3.0,261.0,629.1
629110.0,229.0,33.0,3.0,263.0,629.11
629120.0,232.0,32.0,3.0,265.0,629.12
629130.0,235.0,32.0,4.0,266.0,629.13
629140.0,227.0,31.0,4.0,258.0,629.14
629150.0,228.0,31.0,4.0,259.0,629.15
629160.0,228.0,32.0,3.0,262.0,629.16
629170.0,231.0,32.0,4.0,264.0,629.17
629180.0,233.0,32.0,3.0,264.0,629.18
629190.0,224.0,32.0,4.0,255.0,629.19
629200.0,225.0,32.0,4.0,254.0,629.2
629210.0,224.0,31.0,4.0,252.0,629.21
629220.0,230.0,31.0,3.0,259.0,629.22
629230.0,232.0,31.0,4.0,259.0,629.23
629240.0,225.0,31.0,3.0,253.0,629.24
629250.0,228.0,31.0,3.0,256.0,629.25
629260.0,224.0,31.0,4.0,254.0,629.26
629270.0,231.0,31.0,5.0,261.0,629.27
629280.0,232.0,31.0,4.0,260.0,629.28
629291.0,223.0,31.0,4.0,252.0,629.291
629301.0,225.0,32.0,3.0,255.0,629.301
629311.0,229.0,32.0,3.0,259.0,629.311
629321.0,229.0,31.0,3.0,258.0,629.321
629331.0,228.0,32.0,4.0,256.0,629.331
629341.0,223.0,31.0,4.0,252.0,629.341
629351.0,225.0,31.0,3.0,255.0,629.351
629361.0,229.0,32.0,3.0,263.0,629.361
629371.0,228.0,31.0,3.0,261.0,629.371
629381.0,231.0,32.0,4.0,261.0,629.381
629391.0,221.0,30.0,4.0,254.0,629.391
629401.0,225.0,31.0,4.0,256.0,629.401
629411.0,230.0,31.0,4.0,263.0,629.411
629421.0,229.0,31.0,4.0,263.0,629.421
629431.0,230.0,32.0,3.0,260.0,629.431
629441.0,221.0,30.0,3.0,252.0,629.441
629451.0,224.0,31.0,3.0,256.0,629.451
629462.0,231.0,31.0,4.0,262.0,629.462
629472.0,228.0,31.0,2.0,260.0,629.472
629482.0,228.0,31.0,3.0,260.0,629.482
629492.0,219.0,32.0,3.0,253.0,629.492
629502.0,227.0,30.0,4.0,260.0,629.502
629512.0,231.0,31.0,4.0,262.0,629.512
629522.0,228.0,31.0,4.0,258.0,629.522
629532.0,227.0,31.0,4.0,258.0,629.532
629542.0,220.0,30.0,4.0,252.0,629.542
629552.0,225.0,31.0,3.0,259.0,629.552
629562.0,231.0,31.0,3.0,264.0,629.562
629572.0,227.0,30.0,3.0,260.0,629.572
629582.0,227.0,31.0,4.0,259.0,629.582
629592.0,221.0,30.0,4.0,252.0,629.592
629602.0,225.0,31.0,3.0,260.0,629.602
629612.0,232.0,31.0,3.0,265.0,629.612
629622.0,226.0,32.0,3.0,259.0,629.622
629632.0,228.0,31.0,3.0,259.0,629.632
629642.0,218.0,30.0,4.0,251.0,629.642
629652.0,226.0,31.0,5.0,260.0,629.652
629662.0,231.0,31.0,4.0,265.0,629.662
629672.0,224.0,31.0,3.0,259.0,629.672
629682.0,226.0,33.0,3.0,260.0,629.682
629692.0,217.0,30.0,4.0,252.0,629.692
629702.0,225.0,31.0,4.0,262.0,629.702
629712.0,232.0,32.0,3.0,264.0,629.712
629722.0,224.0,31.0,4.0,258.0,629.722
629732.0,225.0,31.0,3.0,256.0,629.732
629742.0,217.0,32.0,4.0,252.0,629.742
629752.0,225.0,31.0,3.0,262.0,629.752
629762.0,228.0,31.0,4.0,263.0,629.762
629772.0,224.0,31.0,4.0,260.0,629.772
629782.0,226.0,31.0,4.0,258.0,629.782
629792.0,216.0,31.0,3.0,253.0,629.792
629803.0,226.0,31.0,3.0,263.0,629.803
629813.0,231.0,32.0,3.0,265.0,629.813
629823.0,222.0,30.0,3.0,258.0,629.823
629833.0,225.0,32.0,3.0,258.0,629.833
629843.0,225.0,31.0,4.0,259.0,629.843
629853.0,226.0,31.0,4.0,263.0,629.853
629863.0,231.0,32.0,4.0,263.0,629.863
629873.0,221.0,33.0,3.0,257.0,629.873
629883.0,223.0,31.0,3.0,256.0,629.883
629893.0,218.0,31.0,3.0,255.0,629.893
629903.0,227.0,32.0,4.0,263.0,629.903
629913.0,230.0,31.0,4.0,263.0,629.913
629923.0,221.0,32.0,4.0,257.0,629.923
629933.0,225.0,32.0,4.0,261.0,629.933
629943.0,220.0,32.0,3.0,257.0,629.943
629953.0,227.0,32.0,3.0,263.0,629.953
629963.0,231.0,32.0,4.0,263.0,629.963
629974.0,220.0,31.0,4.0,257.0,629.974
629984.0,223.0,32.0,3.0,257.0,629.984
629994.0,226.0,32.0,4.0,263.0,629.994
630004.0,226.0,32.0,3.0,263.0,630.004
630014.0,229.0,32.0,4.0,261.0,630.014
630024.0,220.0,32.0,4.0,257.0,630.024
630034.0,224.0,32.0,4.0,258.0,630.034
630044.0,227.0,32.0,4.0,264.0,630.044
630054.0,225.0,32.0,4.0,263.0,630.054
630064.0,230.0,33.0,3.0,263.0,630.064
630074.0,219.0,32.0,4.0,254.0,630.074
630084.0,223.0,32.0,4.0,257.0,630.084
630094.0,228.0,31.0,5.0,263.0,630.094
630104.0,227.0,32.0,4.0,263.0,630.104
630114.0,230.0,33.0,3.0,261.0,630.114
630124.0,218.0,32.0,3.0,254.0,630.124
630134.0,222.0,32.0,3.0,257.0,630.134
630144.0,223.0,32.0,3.0,260.0,630.144
630154.0,226.0,32.0,4.0,264.0,630.154
630164.0,228.0,31.0,4.0,260.0,630.164
630174.0,215.0,32.0,3.0,253.0,630.174
630184.0,222.0,33.0,4.0,258.0,630.184
630194.0,224.0,33.0,3.0,261.0,630.194
630204.0,225.0,32.0,3.0,263.0,630.204
630214.0,228.0,32.0,4.0,260.0,630.214
630224.0,218.0,31.0,4.0,253.0,630.224
630234.0,222.0,32.0,4.0,259.0,630.234
630244.0,225.0,32.0,4.0,263.0,630.244
630254.0,226.0,33.0,3.0,266.0,630.254
630264.0,228.0,32.0,3.0,262.0,630.264
630274.0,219.0,32.0,3.0,257.0,630.274
630284.0,223.0,32.0,5.0,257.0,630.284
630294.0,226.0,33.0,3.0,264.0,630.294
630304.0,225.0,32.0,3.0,264.0,630.304
630315.0,228.0,33.0,3.0,261.0,630.315
630325.0,216.0,32.0,3.0,251.0,630.325
630335.0,223.0,32.0,3.0,259.0,630.335
630345.0,229.0,33.0,4.0,266.0,630.345
630355.0,221.0,32.0,3.0,260.0,630.355
630365.0,226.0,32.0,3.0,260.0,630.365
630375.0,215.0,32.0,4.0,252.0,630.375
630385.0,223.0,32.0,3.0,261.0,630.385
630395.0,230.0,32.0,4.0,266.0,630.395
630405.0,224.0,32.0,3.0,263.0,630.405
630415.0,227.0,31.0,5.0,260.0,630.415
630425.0,215.0,32.0,4.0,253.0,630.425
630435.0,224.0,32.0,4.0,261.0,630.435
630445.0,228.0,34.0,3.0,265.0,630.445
630455.0,224.0,32.0,3.0,261.0,630.455
630465.0,227.0,32.0,4.0,259.0,630.465
630475.0,218.0,32.0,5.0,252.0,630.475
630486.0,226.0,32.0,4.0,262.0,630.486
630496.0,231.0,32.0,4.0,265.0,630.496
630506.0,222.0,32.0,3.0,260.0,630.506
630516.0,225.0,32.0,4.0,259.0,630.516
630526.0,222.0,32.0,4.0,262.0,630.526
630536.0,226.0,32.0,5.0,264.0,630.536
630546.0,231.0,31.0,4.0,266.0,630.546
630556.0,222.0,32.0,4.0,258.0,630.556
630566.0,225.0,32.0,3.0,260.0,630.566
630576.0,219.0,32.0,3.0,256.0,630.576
630586.0,226.0,32.0,4.0,264.0,630.586
630596.0,231.0,32.0,3.0,265.0,630.596
630606.0,222.0,31.0,3.0,257.0,630.606
630616.0,226.0,33.0,3.0,260.0,630.616
630626.0,220.0,32.0,4.0,256.0,630.626
630636.0,227.0,32.0,3.0,264.0,630.636
630646.0,231.0,32.0,3.0,263.0,630.646
630656.0,223.0,32.0,3.0,258.0,630.656
630666.0,225.0,32.0,5.0,258.0,630.666
630676.0,219.0,31.0,4.0,256.0,630.676
630686.0,226.0,31.0,3.0,263.0,630.686
630696.0,230.0,33.0,3.0,263.0,630.696
630706.0,222.0,32.0,3.0,257.0,630.706
630716.0,224.0,31.0,4.0,257.0,630.716
630726.0,221.0,32.0,5.0,255.0,630.726
630736.0,227.0,31.0,4.0,262.0,630.736
630746.0,230.0,32.0,3.0,265.0,630.746
630756.0,222.0,32.0,3.0,257.0,630.756
630766.0,225.0,32.0,3.0,257.0,630.766
630776.0,222.0,32.0,4.0,256.0,630.776
630786.0,225.0,31.0,4.0,259.0,630.786
630796.0,231.0,31.0,4.0,261.0,630.796
630806.0,222.0,32.0,2.0,255.0,630.806
630816.0,224.0,31.0,4.0,255.0,630.816
630827.0,223.0,33.0,3.0,258.0,630.827
630837.0,227.0,32.0,3.0,261.0,630.837
630847.0,229.0,32.0,3.0,260.0,630.847
630857.0,219.0,31.0,5.0,252.0,630.857
630867.0,222.0,32.0,3.0,257.0,630.867
630877.0,224.0,31.0,3.0,260.0,630.877
630887.0,226.0,33.0,3.0,263.0,630.887
630897.0,228.0,32.0,4.0,259.0,630.897
630907.0,218.0,32.0,3.0,252.0,630.907
630917.0,224.0,32.0,5.0,255.0,630.917
630927.0,225.0,31.0,4.0,259.0,630.927
630937.0,226.0,32.0,4.0,260.0,630.937
630947.0,228.0,32.0,3.0,258.0,630.947
630957.0,219.0,32.0,3.0,252.0,630.957
630967.0,223.0,32.0,5.0,255.0,630.967
630977.0,225.0,32.0,4.0,260.0,630.977
630987.0,227.0,31.0,4.0,260.0,630.987
630998.0,228.0,32.0,4.0,257.0,630.998
631008.0,219.0,31.0,4.0,249.0,631.008
631018.0,224.0,32.0,3.0,257.0,631.018
631028.0,230.0,31.0,4.0,261.0,631.028
631038.0,224.0,32.0,3.0,257.0,631.038
631048.0,228.0,31.0,5.0,257.0,631.048
631058.0,216.0,31.0,4.0,247.0,631.058
631068.0,223.0,31.0,3.0,257.0,631.068
631078.0,230.0,32.0,3.0,263.0,631.078
631088.0,225.0,32.0,3.0,258.0,631.088
631098.0,227.0,31.0,4.0,257.0,631.098
631108.0,218.0,31.0,4.0,248.0,631.108
631118.0,224.0,31.0,4.0,258.0,631.118
631128.0,229.0,32.0,4.0,261.0,631.128
631138.0,226.0,32.0,3.0,258.0,631.138
631148.0,227.0,32.0,3.0,255.0,631.148
631158.0,218.0,31.0,4.0,248.0,631.158
631168.0,224.0,31.0,4.0,254.0,631.168
631178.0,231.0,31.0,4.0,261.0,631.178
631188.0,226.0,31.0,3.0,257.0,631.188
631198.0,227.0,32.0,4.0,256.0,631.198
631208.0,218.0,32.0,3.0,249.0,631.208
631218.0,224.0,30.0,4.0,255.0,631.218
631228.0,230.0,32.0,4.0,262.0,631.228
631238.0,227.0,31.0,4.0,256.0,631.238
631248.0,227.0,31.0,3.0,256.0,631.248
631258.0,219.0,31.0,4.0,249.0,631.258
631268.0,225.0,33.0,3.0,257.0,631.268
631278.0,231.0,31.0,4.0,262.0,631.278
631288.0,226.0,31.0,4.0,257.0,631.288
631298.0,229.0,32.0,5.0,257.0,631.298
631308.0,219.0,31.0,3.0,251.0,631.308
631318.0,226.0,31.0,3.0,259.0,631.318
631328.0,233.0,32.0,3.0,267.0,631.328
631339.0,226.0,31.0,3.0,260.0,631.339
631349.0,228.0,31.0,4.0,259.0,631.349
631359.0,222.0,32.0,4.0,255.0,631.359
631369.0,230.0,31.0,4.0,263.0,631.369
631379.0,233.0,32.0,3.0,264.0,631.379
631389.0,226.0,31.0,3.0,257.0,631.389
631399.0,227.0,32.0,3.0,258.0,631.399
631409.0,223.0,31.0,3.0,255.0,631.409
631419.0,229.0,31.0,4.0,260.0,631.419
631429.0,232.0,31.0,4.0,262.0,631.429
631439.0,224.0,31.0,4.0,256.0,631.439
631449.0,227.0,31.0,4.0,256.0,631.449
631459.0,223.0,32.0,4.0,256.0,631.459
631469.0,228.0,31.0,3.0,260.0,631.469
631479.0,233.0,31.0,5.0,264.0,631.479
631489.0,224.0,31.0,4.0,257.0,631.489
631499.0,226.0,31.0,4.0,258.0,631.499
631510.0,225.0,31.0,4.0,257.0,631.51
631520.0,230.0,31.0,3.0,263.0,631.52
631530.0,233.0,31.0,3.0,259.0,631.53
631540.0,223.0,31.0,3.0,252.0,631.54
631550.0,227.0,31.0,4.0,256.0,631.55
631560.0,227.0,31.0,4.0,258.0,631.56
631570.0,231.0,31.0,3.0,262.0,631.57
631580.0,233.0,31.0,4.0,261.0,631.58
631590.0,223.0,31.0,3.0,252.0,631.59
631600.0,228.0,31.0,4.0,256.0,631.6
631610.0,228.0,31.0,4.0,260.0,631.61
631620.0,232.0,31.0,4.0,262.0,631.62
631630.0,232.0,31.0,2.0,260.0,631.63
631640.0,225.0,31.0,4.0,255.0,631.64
631650.0,227.0,32.0,3.0,257.0,631.65
631660.0,229.0,31.0,3.0,260.0,631.66
631670.0,231.0,31.0,4.0,260.0,631.67
631680.0,235.0,31.0,4.0,263.0,631.68
631690.0,224.0,31.0,3.0,253.0,631.69
631700.0,227.0,31.0,4.0,255.0,631.7
631710.0,230.0,32.0,3.0,262.0,631.71
631720.0,231.0,30.0,3.0,262.0,631.72
631730.0,234.0,31.0,4.0,262.0,631.73
631740.0,225.0,31.0,4.0,253.0,631.74
631750.0,228.0,31.0,3.0,257.0,631.75
631760.0,232.0,31.0,4.0,263.0,631.76
631770.0,233.0,31.0,4.0,263.0,631.77
631780.0,235.0,31.0,3.0,263.0,631.78
631790.0,226.0,30.0,4.0,253.0,631.79
631800.0,227.0,31.0,4.0,256.0,631.8
631810.0,229.0,31.0,4.0,258.0,631.81
631820.0,233.0,31.0,4.0,263.0,631.82
631830.0,235.0,31.0,4.0,263.0,631.83
631840.0,226.0,31.0,3.0,255.0,631.84
631851.0,229.0,30.0,4.0,258.0,631.851
631861.0,234.0,31.0,3.0,266.0,631.861
631871.0,233.0,31.0,5.0,262.0,631.871
631881.0,232.0,32.0,2.0,260.0,631.881
631891.0,225.0,31.0,3.0,252.0,631.891
631901.0,230.0,32.0,3.0,258.0,631.901
631911.0,237.0,32.0,3.0,265.0,631.911
631921.0,234.0,31.0,4.0,261.0,631.921
631931.0,234.0,31.0,4.0,259.0,631.931
631941.0,228.0,31.0,4.0,252.0,631.941
631951.0,231.0,31.0,3.0,260.0,631.951
631961.0,239.0,31.0,4.0,266.0,631.961
631971.0,235.0,31.0,3.0,260.0,631.971
631981.0,236.0,32.0,4.0,261.0,631.981
631991.0,228.0,31.0,3.0,252.0,631.991
632001.0,233.0,31.0,4.0,259.0,632.001
632011.0,238.0,31.0,3.0,266.0,632.011
632022.0,235.0,31.0,3.0,260.0,632.022
632032.0,234.0,32.0,3.0,260.0,632.032
632042.0,228.0,32.0,3.0,254.0,632.042
632052.0,236.0,31.0,4.0,264.0,632.052
632062.0,241.0,32.0,5.0,265.0,632.062
632072.0,235.0,31.0,4.0,259.0,632.072
632082.0,234.0,31.0,4.0,259.0,632.082
632092.0,230.0,32.0,3.0,257.0,632.092
632102.0,237.0,31.0,3.0,263.0,632.102
632112.0,239.0,32.0,4.0,264.0,632.112
632122.0,235.0,31.0,5.0,256.0,632.122
632132.0,234.0,31.0,4.0,256.0,632.132
632142.0,230.0,31.0,4.0,254.0,632.142
632152.0,235.0,31.0,4.0,260.0,632.152
632162.0,239.0,32.0,3.0,264.0,632.162
632172.0,234.0,30.0,4.0,255.0,632.172
632182.0,234.0,31.0,4.0,256.0,632.182
632192.0,229.0,31.0,4.0,250.0,632.192
632202.0,234.0,31.0,3.0,260.0,632.202
632212.0,239.0,31.0,4.0,264.0,632.212
632222.0,232.0,32.0,3.0,256.0,632.222
632232.0,232.0,32.0,3.0,257.0,632.232
632242.0,226.0,31.0,4.0,252.0,632.242
632252.0,235.0,31.0,4.0,263.0,632.252
632262.0,238.0,31.0,4.0,266.0,632.262
632272.0,232.0,31.0,3.0,257.0,632.272
632282.0,233.0,32.0,3.0,262.0,632.282
632292.0,226.0,31.0,3.0,255.0,632.292
632302.0,235.0,31.0,3.0,264.0,632.302
632312.0,238.0,32.0,4.0,266.0,632.312
632322.0,233.0,31.0,4.0,259.0,632.322
632332.0,232.0,31.0,3.0,259.0,632.332
632342.0,227.0,30.0,4.0,254.0,632.342
632352.0,234.0,32.0,3.0,262.0,632.352
632363.0,238.0,32.0,3.0,265.0,632.363
632373.0,229.0,31.0,3.0,254.0,632.373
632383.0,231.0,31.0,4.0,257.0,632.383
632393.0,232.0,31.0,2.0,261.0,632.393
632403.0,234.0,31.0,4.0,263.0,632.403
632413.0,236.0,33.0,3.0,263.0,632.413
632423.0,228.0,31.0,3.0,254.0,632.423
632433.0,229.0,31.0,3.0,256.0,632.433
632443.0,233.0,31.0,5.0,261.0,632.443
632453.0,234.0,31.0,4.0,263.0,632.453
632463.0,236.0,31.0,4.0,263.0,632.463
632473.0,227.0,32.0,3.0,254.0,632.473
632483.0,230.0,31.0,4.0,256.0,632.483
632493.0,229.0,32.0,3.0,258.0,632.493
632503.0,235.0,31.0,4.0,262.0,632.503
632513.0,236.0,31.0,3.0,262.0,632.513
632523.0,227.0,31.0,4.0,253.0,632.523
632534.0,229.0,32.0,3.0,257.0,632.534
632544.0,235.0,31.0,3.0,263.0,632.544
632554.0,234.0,30.0,4.0,262.0,632.554
632564.0,233.0,31.0,4.0,260.0,632.564
632574.0,226.0,31.0,4.0,252.0,632.574
632584.0,230.0,31.0,4.0,258.0,632.584
632594.0,236.0,31.0,3.0,265.0,632.594
632604.0,234.0,31.0,3.0,260.0,632.604
632614.0,233.0,32.0,4.0,259.0,632.614
632624.0,227.0,31.0,3.0,252.0,632.624
632634.0,231.0,31.0,4.0,256.0,632.634
632644.0,236.0,31.0,4.0,263.0,632.644
632654.0,234.0,31.0,4.0,259.0,632.654
632664.0,235.0,33.0,3.0,260.0,632.664
632674.0,226.0,30.0,4.0,252.0,632.674
632684.0,230.0,31.0,3.0,259.0,632.684
632694.0,236.0,32.0,2.0,266.0,632.694
632704.0,235.0,31.0,4.0,264.0,632.704
632714.0,234.0,31.0,3.0,261.0,632.714
632724.0,227.0,31.0,4.0,254.0,632.724
632734.0,231.0,32.0,3.0,262.0,632.734
632744.0,238.0,32.0,3.0,268.0,632.744
632754.0,236.0,32.0,4.0,264.0,632.754
632764.0,236.0,31.0,4.0,262.0,632.764
632774.0,226.0,31.0,3.0,253.0,632.774
632784.0,233.0,32.0,4.0,262.0,632.784
632794.0,235.0,32.0,3.0,265.0,632.794
632804.0,236.0,31.0,3.0,262.0,632.804
632814.0,235.0,31.0,3.0,261.0,632.814
632824.0,227.0,31.0,4.0,251.0,632.824
632834.0,230.0,31.0,3.0,258.0,632.834
632844.0,237.0,32.0,4.0,265.0,632.844
632854.0,235.0,32.0,3.0,261.0,632.854
632864.0,235.0,32.0,4.0,260.0,632.864
632875.0,227.0,31.0,3.0,251.0,632.875
632885.0,235.0,32.0,5.0,261.0,632.885
632895.0,238.0,31.0,2.0,266.0,632.895
632905.0,234.0,31.0,3.0,257.0,632.905
632915.0,233.0,32.0,4.0,259.0,632.915
632925.0,228.0,31.0,4.0,252.0,632.925
632935.0,236.0,31.0,3.0,262.0,632.935
632945.0,240.0,32.0,4.0,265.0,632.945
632955.0,234.0,31.0,4.0,256.0,632.955
632965.0,235.0,32.0,3.0,259.0,632.965
632975.0,229.0,32.0,4.0,253.0,632.975
632985.0,237.0,32.0,3.0,262.0,632.985
632995.0,241.0,30.0,4.0,264.0,632.995
633005.0,236.0,31.0,3.0,258.0,633.005
633015.0,236.0,31.0,4.0,257.0,633.015
633025.0,229.0,31.0,4.0,253.0,633.025
633035.0,237.0,31.0,4.0,263.0,633.035
633046.0,240.0,32.0,4.0,265.0,633.046
633056.0,232.0,30.0,4.0,256.0,633.056
633066.0,232.0,32.0,3.0,258.0,633.066
633076.0,234.0,31.0,5.0,262.0,633.076
633086.0,236.0,31.0,3.0,265.0,633.086
633096.0,239.0,32.0,3.0,265.0,633.096
633106.0,231.0,32.0,3.0,257.0,633.106
633116.0,232.0,32.0,3.0,258.0,633.116
633126.0,233.0,31.0,4.0,263.0,633.126
633136.0,236.0,32.0,4.0,265.0,633.136
633146.0,238.0,31.0,4.0,264.0,633.146
633156.0,230.0,31.0,3.0,255.0,633.156
633166.0,232.0,31.0,4.0,257.0,633.166
633176.0,230.0,32.0,3.0,258.0,633.176
633186.0,237.0,31.0,4.0,265.0,633.186
633196.0,237.0,32.0,4.0,264.0,633.196
633206.0,230.0,31.0,3.0,256.0,633.206
633216.0,233.0,31.0,2.0,260.0,633.216
633226.0,231.0,31.0,4.0,260.0,633.226
633236.0,237.0,33.0,3.0,267.0,633.236
633246.0,238.0,32.0,4.0,265.0,633.246
633256.0,229.0,31.0,3.0,256.0,633.256
633266.0,233.0,32.0,4.0,259.0,633.266
633276.0,232.0,31.0,4.0,262.0,633.276
633286.0,236.0,32.0,4.0,265.0,633.286
633296.0,237.0,33.0,3.0,265.0,633.296
633306.0,231.0,32.0,3.0,260.0,633.306
633316.0,231.0,31.0,3.0,261.0,633.316
633326.0,233.0,32.0,4.0,264.0,633.326
633336.0,236.0,31.0,4.0,267.0,633.336
633346.0,238.0,32.0,3.0,268.0,633.346
633356.0,231.0,31.0,4.0,260.0,633.356
633366.0,232.0,32.0,3.0,259.0,633.366
633376.0,233.0,32.0,4.0,263.0,633.376
633387.0,236.0,32.0,4.0,266.0,633.387
633397.0,236.0,31.0,4.0,263.0,633.397
633407.0,226.0,31.0,2.0,255.0,633.407
633417.0,231.0,32.0,4.0,261.0,633.417
633427.0,238.0,33.0,3.0,268.0,633.427
633437.0,236.0,31.0,3.0,266.0,633.437
633447.0,235.0,32.0,3.0,264.0,633.447
633457.0,229.0,31.0,5.0,257.0,633.457
633467.0,234.0,31.0,4.0,266.0,633.467
633477.0,236.0,32.0,4.0,268.0,633.477
633487.0,237.0,32.0,3.0,268.0,633.487
633497.0,236.0,32.0,3.0,264.0,633.497
633507.0,228.0,32.0,4.0,255.0,633.507
633517.0,233.0,32.0,4.0,262.0,633.517
633527.0,238.0,31.0,4.0,268.0,633.527
633537.0,236.0,32.0,3.0,266.0,633.537
633547.0,236.0,32.0,4.0,263.0,633.547
633558.0,227.0,32.0,4.0,254.0,633.558
633568.0,233.0,32.0,3.0,263.0,633.568
633578.0,239.0,32.0,4.0,267.0,633.578
633588.0,234.0,32.0,4.0,262.0,633.588
633598.0,232.0,32.0,4.0,261.0,633.598
633608.0,226.0,32.0,3.0,255.0,633.608
633618.0,235.0,33.0,3.0,266.0,633.618
633628.0,239.0,32.0,3.0,268.0,633.628
633638.0,233.0,32.0,3.0,262.0,633.638
633648.0,235.0,32.0,5.0,263.0,633.648
633658.0,226.0,31.0,4.0,256.0,633.658
633668.0,235.0,32.0,4.0,266.0,633.668
633678.0,239.0,33.0,3.0,269.0,633.678
633688.0,235.0,32.0,3.0,262.0,633.688
633698.0,234.0,32.0,3.0,261.0,633.698
633708.0,227.0,32.0,5.0,255.0,633.708
633718.0,237.0,31.0,4.0,265.0,633.718
633728.0,238.0,32.0,4.0,266.0,633.728
633738.0,234.0,32.0,3.0,262.0,633.738
633748.0,234.0,32.0,3.0,261.0,633.748
633758.0,229.0,32.0,4.0,256.0,633.758
633768.0,237.0,31.0,4.0,266.0,633.768
633778.0,240.0,31.0,4.0,267.0,633.778
633788.0,234.0,31.0,2.0,262.0,633.788
633798.0,234.0,31.0,4.0,261.0,633.798
633808.0,228.0,33.0,3.0,258.0,633.808
633818.0,233.0,32.0,4.0,262.0,633.818
633828.0,237.0,32.0,3.0,268.0,633.828
633838.0,234.0,32.0,5.0,261.0,633.838
633848.0,233.0,31.0,2.0,260.0,633.848
633858.0,226.0,31.0,4.0,254.0,633.858
633868.0,234.0,32.0,3.0,265.0,633.868
633878.0,237.0,32.0,3.0,268.0,633.878
633888.0,232.0,31.0,3.0,262.0,633.888
633899.0,233.0,32.0,4.0,262.0,633.899
633909.0,230.0,31.0,4.0,261.0,633.909
633919.0,236.0,32.0,4.0,268.0,633.919
633929.0,238.0,32.0,3.0,266.0,633.929
633939.0,229.0,30.0,3.0,256.0,633.939
633949.0,232.0,32.0,3.0,260.0,633.949
633959.0,229.0,32.0,3.0,260.0,633.959
633969.0,236.0,31.0,4.0,266.0,633.969
633979.0,236.0,32.0,3.0,264.0,633.979
633989.0,231.0,31.0,4.0,260.0,633.989
633999.0,232.0,32.0,4.0,261.0,633.999
