time (ms),signal 0,signal 1,signal 2,signal 3,time (sec)
608366.0,214.0,32.0,299.0,236.0,608.366
608376.0,214.0,31.0,321.0,237.0,608.376
608386.0,211.0,30.0,312.0,238.0,608.386
608396.0,217.0,31.0,316.0,243.0,608.396
608406.0,220.0,31.0,342.0,244.0,608.406
608416.0,211.0,31.0,315.0,236.0,608.416
608427.0,213.0,31.0,339.0,237.0,608.427
608437.0,217.0,31.0,342.0,244.0,608.437
608447.0,217.0,30.0,329.0,243.0,608.447
608457.0,218.0,32.0,357.0,244.0,608.457
608467.0,212.0,31.0,335.0,235.0,608.467
608477.0,214.0,31.0,357.0,240.0,608.477
608487.0,220.0,31.0,364.0,245.0,608.487
608497.0,218.0,32.0,348.0,244.0,608.497
608507.0,218.0,31.0,380.0,243.0,608.507
608517.0,214.0,31.0,355.0,237.0,608.517
608527.0,216.0,31.0,379.0,240.0,608.527
608537.0,220.0,31.0,386.0,247.0,608.537
608547.0,219.0,30.0,369.0,244.0,608.547
608557.0,221.0,32.0,401.0,246.0,608.557
608567.0,213.0,31.0,374.0,239.0,608.567
608577.0,216.0,30.0,398.0,244.0,608.577
608587.0,222.0,32.0,409.0,251.0,608.587
608598.0,220.0,31.0,390.0,245.0,608.598
608608.0,219.0,31.0,421.0,245.0,608.608
608618.0,211.0,31.0,399.0,237.0,608.618
608628.0,219.0,32.0,412.0,247.0,608.628
608638.0,224.0,32.0,437.0,250.0,608.638
608648.0,220.0,31.0,410.0,245.0,608.648
608658.0,220.0,31.0,442.0,244.0,608.658
608668.0,214.0,31.0,422.0,239.0,608.668
608678.0,221.0,31.0,432.0,248.0,608.678
608688.0,224.0,33.0,454.0,252.0,608.688
608698.0,220.0,31.0,429.0,245.0,608.698
608708.0,222.0,31.0,463.0,246.0,608.708
608718.0,215.0,31.0,446.0,242.0,608.718
608728.0,220.0,31.0,458.0,246.0,608.728
608738.0,225.0,32.0,477.0,251.0,608.738
608748.0,220.0,32.0,452.0,247.0,608.748
608758.0,220.0,32.0,482.0,244.0,608.758
608768.0,214.0,31.0,460.0,238.0,608.768
608778.0,221.0,32.0,477.0,247.0,608.778
608788.0,227.0,31.0,499.0,252.0,608.788
608798.0,220.0,31.0,471.0,246.0,608.798
608808.0,221.0,32.0,503.0,246.0,608.808
608818.0,215.0,32.0,481.0,242.0,608.818
608828.0,222.0,32.0,496.0,251.0,608.828
608838.0,227.0,32.0,519.0,254.0,608.838
608848.0,220.0,32.0,490.0,249.0,608.848
608858.0,223.0,32.0,524.0,249.0,608.858
608868.0,215.0,33.0,504.0,244.0,608.868
608878.0,222.0,32.0,516.0,253.0,608.878
608888.0,227.0,32.0,541.0,256.0,608.888
608898.0,222.0,32.0,513.0,251.0,608.898
608908.0,222.0,32.0,547.0,250.0,608.908
608918.0,216.0,31.0,527.0,245.0,608.918
608928.0,223.0,33.0,534.0,254.0,608.928
608939.0,227.0,32.0,563.0,255.0,608.939
608949.0,219.0,32.0,532.0,246.0,608.949
608959.0,221.0,32.0,560.0,247.0,608.959
608969.0,222.0,33.0,558.0,250.0,608.969
608979.0,224.0,32.0,545.0,253.0,608.979
608989.0,227.0,33.0,580.0,254.0,608.989
608999.0,220.0,31.0,547.0,246.0,608.999
609009.0,219.0,34.0,576.0,248.0,609.009
609019.0,222.0,32.0,573.0,253.0,609.019
609029.0,224.0,32.0,561.0,254.0,609.029
609039.0,227.0,32.0,591.0,252.0,609.039
609049.0,218.0,32.0,559.0,245.0,609.049
609059.0,221.0,32.0,586.0,248.0,609.059
609069.0,219.0,32.0,575.0,249.0,609.069
609079.0,225.0,32.0,569.0,254.0,609.079
609089.0,227.0,33.0,600.0,254.0,609.089
609099.0,219.0,33.0,570.0,246.0,609.099
609110.0,221.0,33.0,595.0,248.0,609.11
609120.0,225.0,33.0,597.0,254.0,609.12
609130.0,226.0,33.0,577.0,254.0,609.13
609140.0,223.0,33.0,607.0,251.0,609.14
609150.0,216.0,32.0,578.0,242.0,609.15
609160.0,219.0,32.0,603.0,248.0,609.16
609170.0,225.0,33.0,607.0,254.0,609.17
609180.0,224.0,33.0,584.0,252.0,609.18
609190.0,223.0,33.0,615.0,249.0,609.19
609200.0,216.0,33.0,585.0,243.0,609.2
609210.0,219.0,32.0,606.0,247.0,609.21
609220.0,226.0,33.0,615.0,253.0,609.22
609230.0,224.0,33.0,590.0,250.0,609.23
609240.0,224.0,33.0,623.0,251.0,609.24
609250.0,216.0,32.0,592.0,242.0,609.25
609260.0,220.0,34.0,613.0,248.0,609.26
609270.0,226.0,32.0,623.0,254.0,609.27
609280.0,225.0,32.0,598.0,252.0,609.28
609290.0,224.0,32.0,628.0,250.0,609.29
609300.0,216.0,33.0,599.0,242.0,609.3
609310.0,221.0,33.0,618.0,249.0,609.31
609320.0,227.0,33.0,630.0,255.0,609.32
609330.0,223.0,33.0,603.0,251.0,609.33
609340.0,224.0,33.0,632.0,250.0,609.34
609350.0,216.0,33.0,601.0,240.0,609.35
609360.0,221.0,32.0,616.0,249.0,609.36
609370.0,224.0,33.0,625.0,252.0,609.37
609380.0,224.0,32.0,602.0,250.0,609.38
609390.0,224.0,33.0,629.0,250.0,609.39
609400.0,217.0,32.0,598.0,241.0,609.4
609410.0,221.0,32.0,618.0,247.0,609.41
609420.0,227.0,32.0,623.0,255.0,609.42
609430.0,226.0,32.0,600.0,252.0,609.43
609440.0,225.0,32.0,630.0,250.0,609.44
609451.0,218.0,33.0,602.0,242.0,609.451
609461.0,225.0,32.0,612.0,250.0,609.461
609471.0,230.0,33.0,631.0,255.0,609.471
609481.0,224.0,32.0,601.0,247.0,609.481
609491.0,223.0,32.0,626.0,246.0,609.491
609501.0,217.0,32.0,603.0,242.0,609.501
609511.0,225.0,32.0,612.0,251.0,609.511
609521.0,229.0,33.0,633.0,252.0,609.521
609531.0,222.0,32.0,602.0,243.0,609.531
609541.0,224.0,32.0,632.0,245.0,609.541
609551.0,218.0,31.0,608.0,241.0,609.551
609561.0,226.0,32.0,613.0,251.0,609.561
609571.0,229.0,32.0,636.0,252.0,609.571
609581.0,225.0,33.0,603.0,248.0,609.581
609591.0,224.0,32.0,631.0,247.0,609.591
609601.0,218.0,32.0,608.0,244.0,609.601
609611.0,226.0,32.0,610.0,251.0,609.611
609622.0,228.0,32.0,635.0,253.0,609.622
609632.0,223.0,32.0,602.0,244.0,609.632
609642.0,223.0,33.0,625.0,246.0,609.642
609652.0,224.0,32.0,614.0,250.0,609.652
609662.0,226.0,32.0,602.0,250.0,609.662
609672.0,229.0,32.0,631.0,252.0,609.672
609682.0,221.0,31.0,597.0,244.0,609.682
609692.0,223.0,32.0,623.0,246.0,609.692
609702.0,224.0,32.0,609.0,251.0,609.702
609712.0,226.0,32.0,598.0,251.0,609.712
609722.0,228.0,32.0,620.0,250.0,609.722
609732.0,221.0,31.0,590.0,242.0,609.732
609742.0,223.0,32.0,613.0,246.0,609.742
609752.0,222.0,32.0,597.0,248.0,609.752
609762.0,228.0,32.0,594.0,252.0,609.762
609772.0,228.0,32.0,614.0,251.0,609.772
609782.0,222.0,30.0,586.0,245.0,609.782
609792.0,224.0,32.0,612.0,251.0,609.792
609802.0,224.0,32.0,592.0,252.0,609.802
609812.0,228.0,31.0,587.0,255.0,609.812
609822.0,228.0,32.0,603.0,252.0,609.822
609832.0,218.0,31.0,581.0,245.0,609.832
609842.0,223.0,32.0,606.0,248.0,609.842
609852.0,224.0,32.0,586.0,252.0,609.852
609862.0,225.0,31.0,583.0,251.0,609.862
609872.0,226.0,31.0,593.0,249.0,609.872
609882.0,220.0,31.0,577.0,244.0,609.882
609892.0,221.0,31.0,596.0,245.0,609.892
609902.0,226.0,32.0,580.0,250.0,609.902
609912.0,227.0,30.0,576.0,252.0,609.912
609922.0,229.0,32.0,580.0,252.0,609.922
609932.0,219.0,30.0,569.0,242.0,609.932
609942.0,222.0,31.0,581.0,245.0,609.942
609952.0,227.0,31.0,570.0,249.0,609.952
609963.0,225.0,32.0,568.0,249.0,609.963
609973.0,225.0,31.0,568.0,245.0,609.973
609983.0,214.0,31.0,562.0,240.0,609.983
609993.0,222.0,31.0,566.0,245.0,609.993
610003.0,229.0,31.0,558.0,251.0,610.003
610013.0,227.0,31.0,557.0,247.0,610.013
610023.0,226.0,31.0,554.0,246.0,610.023
610033.0,218.0,30.0,551.0,239.0,610.033
610043.0,226.0,32.0,547.0,252.0,610.043
610053.0,231.0,31.0,543.0,257.0,610.053
610063.0,230.0,31.0,534.0,260.0,610.063
610073.0,229.0,31.0,526.0,256.0,610.073
610083.0,219.0,30.0,519.0,252.0,610.083
610093.0,224.0,31.0,509.0,259.0,610.093
610103.0,228.0,31.0,500.0,268.0,610.103
610113.0,224.0,31.0,490.0,259.0,610.113
610123.0,226.0,31.0,480.0,259.0,610.123
610134.0,217.0,31.0,469.0,251.0,610.134
610144.0,226.0,31.0,458.0,261.0,610.144
610154.0,234.0,32.0,448.0,269.0,610.154
610164.0,225.0,30.0,436.0,262.0,610.164
610174.0,227.0,31.0,425.0,258.0,610.174
610184.0,223.0,31.0,417.0,254.0,610.184
610194.0,227.0,31.0,405.0,258.0,610.194
610204.0,231.0,31.0,395.0,257.0,610.204
610214.0,225.0,31.0,384.0,251.0,610.214
610224.0,229.0,30.0,375.0,252.0,610.224
610234.0,226.0,30.0,365.0,253.0,610.234
610244.0,234.0,30.0,355.0,262.0,610.244
610254.0,239.0,30.0,345.0,263.0,610.254
610264.0,231.0,29.0,336.0,257.0,610.264
610274.0,229.0,31.0,326.0,257.0,610.274
610284.0,226.0,30.0,317.0,253.0,610.284
610294.0,232.0,30.0,307.0,258.0,610.294
610304.0,237.0,30.0,298.0,258.0,610.304
610314.0,233.0,30.0,290.0,251.0,610.314
610324.0,233.0,30.0,279.0,251.0,610.324
610334.0,231.0,29.0,271.0,252.0,610.334
610344.0,236.0,31.0,262.0,259.0,610.344
610354.0,238.0,30.0,254.0,258.0,610.354
610364.0,227.0,30.0,245.0,249.0,610.364
610374.0,229.0,30.0,237.0,246.0,610.374
610384.0,228.0,30.0,230.0,253.0,610.384
610394.0,233.0,30.0,222.0,258.0,610.394
610404.0,238.0,31.0,215.0,263.0,610.404
610414.0,230.0,30.0,207.0,256.0,610.414
610424.0,231.0,31.0,200.0,259.0,610.424
610434.0,223.0,30.0,195.0,252.0,610.434
610444.0,234.0,30.0,187.0,264.0,610.444
610454.0,238.0,31.0,180.0,265.0,610.454
610464.0,231.0,30.0,174.0,258.0,610.464
610475.0,232.0,31.0,167.0,260.0,610.475
610485.0,232.0,30.0,161.0,262.0,610.485
610495.0,237.0,31.0,155.0,267.0,610.495
610505.0,241.0,30.0,149.0,267.0,610.505
610515.0,231.0,30.0,143.0,258.0,610.515
610525.0,234.0,31.0,138.0,259.0,610.525
610535.0,237.0,31.0,133.0,266.0,610.535
610545.0,240.0,30.0,128.0,265.0,610.545
610555.0,239.0,31.0,121.0,263.0,610.555
610565.0,233.0,31.0,119.0,256.0,610.565
610575.0,233.0,31.0,113.0,257.0,610.575
610585.0,240.0,30.0,109.0,268.0,610.585
610595.0,241.0,29.0,104.0,271.0,610.595
610605.0,243.0,31.0,101.0,273.0,610.605
610615.0,234.0,31.0,96.0,265.0,610.615
610625.0,235.0,31.0,93.0,265.0,610.625
610635.0,238.0,31.0,88.0,269.0,610.635
610646.0,236.0,31.0,84.0,264.0,610.646
610656.0,236.0,31.0,81.0,262.0,610.656
610666.0,230.0,31.0,78.0,254.0,610.666
610676.0,234.0,30.0,74.0,261.0,610.676
610686.0,240.0,31.0,71.0,268.0,610.686
610696.0,237.0,30.0,68.0,261.0,610.696
610706.0,236.0,31.0,64.0,258.0,610.706
610716.0,229.0,29.0,62.0,248.0,610.716
610726.0,233.0,31.0,59.0,255.0,610.726
610736.0,236.0,31.0,57.0,258.0,610.736
610746.0,235.0,31.0,53.0,257.0,610.746
610756.0,236.0,30.0,53.0,257.0,610.756
610766.0,228.0,30.0,49.0,248.0,610.766
610776.0,235.0,30.0,48.0,255.0,610.776
610786.0,239.0,31.0,45.0,260.0,610.786
610796.0,234.0,30.0,42.0,251.0,610.796
610806.0,233.0,30.0,40.0,247.0,610.806
610816.0,225.0,30.0,38.0,238.0,610.816
610826.0,230.0,30.0,36.0,246.0,610.826
610836.0,238.0,30.0,34.0,255.0,610.836
610846.0,234.0,31.0,32.0,252.0,610.846
610856.0,235.0,31.0,30.0,252.0,610.856
610866.0,228.0,30.0,29.0,244.0,610.866
610876.0,231.0,31.0,25.0,251.0,610.876
610886.0,239.0,31.0,24.0,261.0,610.886
610896.0,234.0,30.0,22.0,257.0,610.896
610906.0,236.0,31.0,21.0,256.0,610.906
610916.0,226.0,31.0,19.0,248.0,610.916
610926.0,232.0,30.0,18.0,258.0,610.926
610936.0,236.0,30.0,17.0,263.0,610.936
610946.0,231.0,30.0,16.0,258.0,610.946
610956.0,231.0,30.0,14.0,257.0,610.956
610966.0,224.0,29.0,13.0,248.0,610.966
610976.0,227.0,31.0,12.0,256.0,610.976
610987.0,233.0,30.0,11.0,254.0,610.987
610997.0,227.0,30.0,10.0,248.0,610.997
611007.0,228.0,30.0,10.0,251.0,611.007
611017.0,224.0,31.0,9.0,248.0,611.017
611027.0,230.0,30.0,8.0,253.0,611.027
611037.0,234.0,31.0,8.0,256.0,611.037
611047.0,229.0,30.0,7.0,250.0,611.047
611057.0,230.0,30.0,7.0,252.0,611.057
611067.0,232.0,30.0,7.0,252.0,611.067
611077.0,237.0,29.0,7.0,256.0,611.077
611087.0,239.0,31.0,6.0,258.0,611.087
611097.0,231.0,29.0,6.0,250.0,611.097
611107.0,231.0,30.0,6.0,251.0,611.107
611117.0,227.0,30.0,5.0,252.0,611.117
611127.0,236.0,30.0,5.0,262.0,611.127
611137.0,239.0,30.0,6.0,261.0,611.137
611147.0,230.0,30.0,5.0,254.0,611.147
611158.0,230.0,29.0,5.0,252.0,611.158
611168.0,231.0,31.0,5.0,255.0,611.168
611178.0,234.0,30.0,5.0,254.0,611.178
611188.0,234.0,31.0,4.0,254.0,611.188
611198.0,228.0,30.0,5.0,246.0,611.198
611208.0,231.0,30.0,4.0,252.0,611.208
611218.0,237.0,30.0,4.0,255.0,611.218
611228.0,237.0,30.0,4.0,253.0,611.228
611238.0,237.0,30.0,5.0,252.0,611.238
611248.0,233.0,30.0,4.0,249.0,611.248
611258.0,233.0,31.0,4.0,252.0,611.258
611268.0,238.0,31.0,4.0,255.0,611.268
611278.0,237.0,31.0,4.0,253.0,611.278
611288.0,238.0,31.0,4.0,256.0,611.288
611298.0,229.0,31.0,3.0,245.0,611.298
611308.0,230.0,30.0,4.0,247.0,611.308
611318.0,237.0,31.0,4.0,260.0,611.318
611328.0,239.0,30.0,5.0,262.0,611.328
611338.0,243.0,31.0,4.0,262.0,611.338
611348.0,234.0,31.0,4.0,250.0,611.348
611358.0,235.0,31.0,3.0,255.0,611.358
611368.0,240.0,30.0,4.0,259.0,611.368
611378.0,239.0,31.0,4.0,256.0,611.378
611388.0,240.0,31.0,5.0,253.0,611.388
611398.0,232.0,31.0,4.0,245.0,611.398
611408.0,233.0,31.0,4.0,249.0,611.408
611418.0,235.0,32.0,4.0,255.0,611.418
611428.0,237.0,31.0,4.0,252.0,611.428
611438.0,236.0,31.0,4.0,251.0,611.438
611448.0,227.0,31.0,4.0,242.0,611.448
611458.0,229.0,31.0,4.0,247.0,611.458
611468.0,232.0,31.0,4.0,254.0,611.468
611478.0,236.0,30.0,4.0,257.0,611.478
611488.0,235.0,32.0,3.0,256.0,611.488
611499.0,228.0,30.0,4.0,248.0,611.499
611509.0,232.0,31.0,4.0,255.0,611.509
611519.0,239.0,31.0,4.0,260.0,611.519
611529.0,233.0,31.0,4.0,255.0,611.529
611539.0,233.0,31.0,4.0,255.0,611.539
611549.0,227.0,32.0,4.0,249.0,611.549
611559.0,232.0,30.0,4.0,258.0,611.559
611569.0,238.0,31.0,3.0,265.0,611.569
611579.0,235.0,31.0,5.0,258.0,611.579
611589.0,234.0,31.0,4.0,256.0,611.589
611599.0,227.0,31.0,4.0,249.0,611.599
611609.0,235.0,32.0,3.0,261.0,611.609
611619.0,240.0,32.0,3.0,262.0,611.619
611629.0,238.0,30.0,4.0,260.0,611.629
611639.0,235.0,31.0,4.0,256.0,611.639
611649.0,231.0,31.0,3.0,255.0,611.649
611659.0,235.0,31.0,4.0,259.0,611.659
611670.0,238.0,31.0,4.0,260.0,611.67
611680.0,232.0,31.0,3.0,249.0,611.68
611690.0,231.0,31.0,3.0,249.0,611.69
611700.0,230.0,31.0,4.0,249.0,611.7
611710.0,235.0,31.0,4.0,251.0,611.71
611720.0,236.0,32.0,4.0,254.0,611.72
611730.0,230.0,31.0,4.0,248.0,611.73
611740.0,230.0,32.0,3.0,250.0,611.74
611750.0,229.0,30.0,4.0,254.0,611.75
611760.0,233.0,31.0,4.0,258.0,611.76
611770.0,237.0,31.0,4.0,261.0,611.77
611780.0,230.0,31.0,2.0,254.0,611.78
611790.0,231.0,31.0,4.0,254.0,611.79
611800.0,227.0,32.0,3.0,254.0,611.8
611810.0,235.0,31.0,3.0,261.0,611.81
611820.0,239.0,31.0,4.0,263.0,611.82
611830.0,232.0,31.0,4.0,258.0,611.83
611840.0,233.0,31.0,4.0,258.0,611.84
611850.0,228.0,31.0,4.0,256.0,611.85
611860.0,236.0,31.0,4.0,264.0,611.86
611870.0,238.0,32.0,3.0,264.0,611.87
611880.0,230.0,30.0,4.0,258.0,611.88
611890.0,233.0,31.0,4.0,259.0,611.89
611900.0,231.0,31.0,4.0,259.0,611.9
611910.0,236.0,32.0,4.0,266.0,611.91
611920.0,238.0,32.0,4.0,263.0,611.92
611930.0,233.0,32.0,3.0,261.0,611.93
611940.0,232.0,32.0,4.0,259.0,611.94
611950.0,231.0,31.0,4.0,262.0,611.95
611960.0,236.0,31.0,4.0,265.0,611.96
611970.0,238.0,31.0,3.0,267.0,611.97
611980.0,232.0,31.0,4.0,260.0,611.98
611990.0,232.0,33.0,3.0,260.0,611.99
612000.0,232.0,31.0,4.0,262.0,612.0
612011.0,242.0,30.0,4.0,268.0,612.011
612021.0,241.0,32.0,4.0,262.0,612.021
612031.0,231.0,31.0,4.0,255.0,612.031
612041.0,233.0,31.0,3.0,261.0,612.041
612051.0,239.0,32.0,4.0,267.0,612.051
612061.0,238.0,32.0,3.0,268.0,612.061
612071.0,238.0,32.0,4.0,262.0,612.071
612081.0,229.0,32.0,4.0,254.0,612.081
612091.0,230.0,31.0,4.0,257.0,612.091
612101.0,232.0,32.0,2.0,261.0,612.101
612111.0,234.0,31.0,4.0,261.0,612.111
612121.0,234.0,32.0,3.0,259.0,612.121
612131.0,227.0,30.0,3.0,252.0,612.131
612141.0,231.0,32.0,3.0,255.0,612.141
612151.0,235.0,31.0,5.0,260.0,612.151
612161.0,236.0,31.0,4.0,262.0,612.161
612171.0,231.0,32.0,4.0,254.0,612.171
612182.0,224.0,32.0,3.0,246.0,612.182
612192.0,230.0,32.0,4.0,255.0,612.192
612202.0,236.0,31.0,4.0,263.0,612.202
612212.0,231.0,31.0,5.0,257.0,612.212
612222.0,230.0,31.0,4.0,254.0,612.222
612232.0,224.0,32.0,3.0,248.0,612.232
612242.0,231.0,32.0,3.0,259.0,612.242
612252.0,237.0,32.0,3.0,258.0,612.252
612262.0,231.0,31.0,4.0,249.0,612.262
612272.0,232.0,32.0,4.0,251.0,612.272
612282.0,225.0,31.0,4.0,246.0,612.282
612292.0,231.0,31.0,4.0,255.0,612.292
612302.0,236.0,32.0,4.0,259.0,612.302
612312.0,233.0,32.0,3.0,256.0,612.312
612322.0,232.0,32.0,4.0,254.0,612.322
612332.0,225.0,31.0,4.0,246.0,612.332
612342.0,233.0,31.0,5.0,252.0,612.342
612352.0,234.0,32.0,4.0,255.0,612.352
612362.0,231.0,32.0,3.0,252.0,612.362
612372.0,231.0,32.0,3.0,252.0,612.372
612382.0,225.0,32.0,4.0,246.0,612.382
612392.0,233.0,32.0,3.0,253.0,612.392
612402.0,236.0,32.0,4.0,257.0,612.402
612412.0,233.0,31.0,4.0,252.0,612.412
612422.0,231.0,32.0,4.0,253.0,612.422
612432.0,225.0,32.0,4.0,247.0,612.432
612442.0,229.0,32.0,3.0,250.0,612.442
612452.0,234.0,32.0,3.0,256.0,612.452
612462.0,231.0,32.0,4.0,252.0,612.462
612472.0,230.0,31.0,4.0,251.0,612.472
612482.0,224.0,31.0,4.0,249.0,612.482
612492.0,230.0,31.0,3.0,257.0,612.492
612502.0,235.0,33.0,3.0,261.0,612.502
612512.0,231.0,30.0,4.0,254.0,612.512
612523.0,229.0,32.0,4.0,255.0,612.523
612533.0,227.0,31.0,5.0,251.0,612.533
612543.0,232.0,31.0,3.0,258.0,612.543
612553.0,234.0,32.0,4.0,256.0,612.553
612563.0,228.0,32.0,3.0,250.0,612.563
612573.0,230.0,32.0,4.0,252.0,612.573
612583.0,229.0,32.0,4.0,254.0,612.583
612593.0,234.0,31.0,5.0,259.0,612.593
612603.0,233.0,31.0,3.0,257.0,612.603
612613.0,228.0,31.0,4.0,248.0,612.613
612623.0,226.0,32.0,3.0,252.0,612.623
612633.0,226.0,32.0,3.0,252.0,612.633
612643.0,231.0,32.0,4.0,253.0,612.643
612653.0,233.0,32.0,4.0,254.0,612.653
612663.0,228.0,31.0,4.0,247.0,612.663
612673.0,228.0,32.0,2.0,249.0,612.673
612683.0,228.0,32.0,4.0,253.0,612.683
612694.0,232.0,32.0,3.0,254.0,612.694
612704.0,230.0,31.0,4.0,252.0,612.704
612714.0,222.0,31.0,4.0,242.0,612.714
612724.0,225.0,31.0,5.0,246.0,612.724
612734.0,230.0,31.0,4.0,253.0,612.734
612744.0,229.0,31.0,4.0,248.0,612.744
612754.0,228.0,33.0,3.0,250.0,612.754
612764.0,222.0,31.0,4.0,240.0,612.764
612774.0,225.0,31.0,3.0,244.0,612.774
612784.0,229.0,32.0,5.0,247.0,612.784
612794.0,230.0,31.0,4.0,248.0,612.794
612804.0,228.0,32.0,3.0,247.0,612.804
612814.0,221.0,31.0,3.0,237.0,612.814
612824.0,224.0,32.0,3.0,244.0,612.824
612834.0,229.0,31.0,5.0,251.0,612.834
612844.0,229.0,31.0,4.0,247.0,612.844
612854.0,228.0,32.0,4.0,247.0,612.854
612864.0,222.0,31.0,3.0,238.0,612.864
612874.0,224.0,31.0,4.0,243.0,612.874
612884.0,228.0,32.0,3.0,249.0,612.884
612894.0,227.0,31.0,3.0,246.0,612.894
612904.0,225.0,32.0,4.0,245.0,612.904
612914.0,221.0,31.0,5.0,238.0,612.914
612924.0,221.0,31.0,4.0,243.0,612.924
612934.0,226.0,31.0,4.0,249.0,612.934
612944.0,225.0,32.0,3.0,246.0,612.944
612954.0,225.0,32.0,3.0,247.0,612.954
612964.0,218.0,31.0,3.0,239.0,612.964
612974.0,222.0,31.0,5.0,245.0,612.974
612984.0,227.0,31.0,4.0,252.0,612.984
612994.0,225.0,33.0,3.0,249.0,612.994
613004.0,225.0,32.0,3.0,248.0,613.004
613014.0,218.0,32.0,3.0,239.0,613.014
613024.0,221.0,31.0,4.0,243.0,613.024
613035.0,227.0,32.0,4.0,249.0,613.035
613045.0,224.0,31.0,4.0,245.0,613.045
613055.0,222.0,32.0,4.0,245.0,613.055
613065.0,216.0,32.0,4.0,241.0,613.065
613075.0,224.0,32.0,3.0,250.0,613.075
613085.0,227.0,32.0,4.0,252.0,613.085
613095.0,223.0,31.0,3.0,246.0,613.095
613105.0,223.0,32.0,4.0,246.0,613.105
613115.0,217.0,32.0,4.0,242.0,613.115
613125.0,222.0,31.0,3.0,247.0,613.125
613135.0,227.0,32.0,3.0,252.0,613.135
613145.0,222.0,32.0,4.0,246.0,613.145
613155.0,222.0,32.0,3.0,246.0,613.155
613165.0,216.0,31.0,4.0,239.0,613.165
613175.0,224.0,31.0,4.0,250.0,613.175
613185.0,228.0,32.0,3.0,253.0,613.185
613195.0,222.0,32.0,4.0,247.0,613.195
613206.0,222.0,32.0,3.0,245.0,613.206
613216.0,218.0,31.0,4.0,245.0,613.216
613226.0,225.0,31.0,4.0,251.0,613.226
613236.0,227.0,31.0,4.0,252.0,613.236
613246.0,219.0,31.0,4.0,242.0,613.246
613256.0,222.0,32.0,4.0,247.0,613.256
613266.0,220.0,32.0,3.0,247.0,613.266
613276.0,226.0,30.0,4.0,253.0,613.276
613286.0,225.0,32.0,4.0,251.0,613.286
613296.0,221.0,31.0,4.0,246.0,613.296
613306.0,220.0,32.0,3.0,247.0,613.306
613316.0,221.0,31.0,4.0,248.0,613.316
613326.0,224.0,32.0,3.0,252.0,613.326
613336.0,228.0,32.0,4.0,254.0,613.336
613346.0,221.0,31.0,4.0,245.0,613.346
613356.0,222.0,31.0,5.0,245.0,613.356
613366.0,222.0,31.0,4.0,249.0,613.366
613376.0,225.0,31.0,4.0,252.0,613.376
613386.0,228.0,33.0,3.0,253.0,613.386
613396.0,220.0,32.0,4.0,244.0,613.396
613406.0,221.0,32.0,3.0,245.0,613.406
613416.0,223.0,32.0,4.0,250.0,613.416
613426.0,225.0,31.0,4.0,251.0,613.426
613436.0,226.0,32.0,4.0,253.0,613.436
613446.0,218.0,32.0,4.0,244.0,613.446
613456.0,219.0,32.0,3.0,245.0,613.456
613466.0,218.0,32.0,4.0,246.0,613.466
613476.0,224.0,32.0,4.0,253.0,613.476
613486.0,226.0,31.0,5.0,254.0,613.486
613496.0,218.0,32.0,4.0,245.0,613.496
613506.0,222.0,32.0,3.0,248.0,613.506
613516.0,221.0,32.0,4.0,250.0,613.516
613526.0,226.0,31.0,4.0,253.0,613.526
613536.0,226.0,32.0,4.0,251.0,613.536
613547.0,219.0,31.0,4.0,243.0,613.547
613557.0,220.0,31.0,4.0,247.0,613.557
613567.0,225.0,32.0,4.0,253.0,613.567
613577.0,224.0,33.0,3.0,252.0,613.577
613587.0,223.0,32.0,3.0,249.0,613.587
613597.0,216.0,32.0,3.0,244.0,613.597
613607.0,221.0,32.0,5.0,248.0,613.607
613617.0,226.0,31.0,4.0,254.0,613.617
613627.0,223.0,32.0,3.0,252.0,613.627
613637.0,225.0,32.0,4.0,251.0,613.637
613647.0,217.0,32.0,3.0,244.0,613.647
613657.0,220.0,32.0,4.0,250.0,613.657
613667.0,225.0,32.0,4.0,255.0,613.667
613677.0,224.0,31.0,4.0,254.0,613.677
613687.0,223.0,32.0,3.0,251.0,613.687
613697.0,215.0,31.0,4.0,243.0,613.697
613707.0,219.0,32.0,3.0,252.0,613.707
613718.0,225.0,32.0,4.0,255.0,613.718
613728.0,221.0,31.0,4.0,251.0,613.728
613738.0,222.0,31.0,5.0,250.0,613.738
613748.0,215.0,31.0,2.0,246.0,613.748
613758.0,223.0,31.0,4.0,256.0,613.758
613768.0,225.0,33.0,3.0,258.0,613.768
613778.0,219.0,31.0,3.0,252.0,613.778
613788.0,220.0,32.0,4.0,251.0,613.788
613798.0,216.0,32.0,4.0,251.0,613.798
613808.0,220.0,31.0,4.0,254.0,613.808
613818.0,225.0,32.0,4.0,257.0,613.818
613828.0,219.0,32.0,3.0,251.0,613.828
613838.0,219.0,32.0,3.0,249.0,613.838
613848.0,213.0,31.0,4.0,242.0,613.848
613858.0,220.0,32.0,4.0,251.0,613.858
613868.0,226.0,31.0,4.0,255.0,613.868
613878.0,218.0,32.0,3.0,247.0,613.878
613888.0,221.0,32.0,4.0,248.0,613.888
613898.0,213.0,31.0,3.0,243.0,613.898
613908.0,220.0,32.0,4.0,250.0,613.908
613918.0,224.0,32.0,3.0,254.0,613.918
613928.0,219.0,31.0,4.0,247.0,613.928
613938.0,220.0,32.0,4.0,248.0,613.938
613948.0,213.0,31.0,4.0,245.0,613.948
613958.0,221.0,33.0,3.0,255.0,613.958
613968.0,225.0,32.0,4.0,256.0,613.968
613978.0,219.0,32.0,4.0,251.0,613.978
613988.0,221.0,32.0,5.0,250.0,613.988
613998.0,214.0,31.0,4.0,247.0,613.998
614008.0,221.0,32.0,4.0,256.0,614.008
614018.0,225.0,32.0,4.0,258.0,614.018
614028.0,219.0,32.0,3.0,252.0,614.028
614038.0,221.0,32.0,4.0,251.0,614.038
614048.0,216.0,32.0,5.0,248.0,614.048
614059.0,223.0,31.0,4.0,256.0,614.059
614069.0,226.0,32.0,4.0,256.0,614.069
614079.0,217.0,31.0,4.0,248.0,614.079
614089.0,219.0,33.0,3.0,249.0,614.089
614099.0,222.0,30.0,4.0,254.0,614.099
614109.0,223.0,32.0,4.0,255.0,614.109
614119.0,226.0,32.0,5.0,254.0,614.119
614129.0,216.0,31.0,2.0,247.0,614.129
614139.0,218.0,32.0,3.0,249.0,614.139
614149.0,218.0,33.0,3.0,251.0,614.149
614159.0,224.0,32.0,3.0,256.0,614.159
614169.0,225.0,33.0,3.0,254.0,614.169
614179.0,217.0,31.0,5.0,248.0,614.179
614189.0,220.0,31.0,2.0,251.0,614.189
614199.0,219.0,32.0,3.0,251.0,614.199
614209.0,223.0,32.0,4.0,254.0,614.209
614219.0,224.0,32.0,3.0,252.0,614.219
614230.0,216.0,31.0,3.0,246.0,614.23
614240.0,217.0,32.0,4.0,248.0,614.24
614250.0,224.0,31.0,4.0,256.0,614.25
614260.0,221.0,32.0,4.0,254.0,614.26
614270.0,221.0,32.0,4.0,251.0,614.27
614280.0,214.0,32.0,3.0,246.0,614.28
614290.0,217.0,32.0,3.0,250.0,614.29
614300.0,223.0,32.0,4.0,256.0,614.3
614310.0,221.0,31.0,5.0,253.0,614.31
614320.0,222.0,32.0,4.0,253.0,614.32
614330.0,213.0,31.0,4.0,246.0,614.33
614340.0,217.0,33.0,3.0,252.0,614.34
614350.0,224.0,32.0,3.0,256.0,614.35
614360.0,221.0,32.0,3.0,254.0,614.36
614370.0,222.0,32.0,4.0,251.0,614.37
614380.0,212.0,31.0,2.0,242.0,614.38
614390.0,218.0,31.0,4.0,249.0,614.39
614400.0,220.0,33.0,3.0,254.0,614.4
614410.0,221.0,32.0,3.0,252.0,614.41
614420.0,221.0,32.0,3.0,250.0,614.42
614430.0,211.0,31.0,4.0,242.0,614.43
614440.0,218.0,31.0,4.0,250.0,614.44
614450.0,222.0,31.0,4.0,254.0,614.45
614460.0,220.0,31.0,4.0,253.0,614.46
614470.0,219.0,33.0,3.0,250.0,614.47
614480.0,211.0,31.0,3.0,244.0,614.48
614490.0,216.0,32.0,3.0,249.0,614.49
614500.0,223.0,31.0,4.0,255.0,614.5
614510.0,219.0,31.0,3.0,253.0,614.51
614520.0,220.0,31.0,4.0,250.0,614.52
614530.0,212.0,33.0,3.0,247.0,614.53
614540.0,217.0,31.0,4.0,249.0,614.54
614550.0,224.0,32.0,3.0,256.0,614.55
614560.0,221.0,31.0,4.0,252.0,614.56
614571.0,221.0,31.0,3.0,250.0,614.571
614581.0,213.0,32.0,4.0,244.0,614.581
614591.0,221.0,32.0,3.0,254.0,614.591
614601.0,225.0,33.0,4.0,255.0,614.601
614611.0,218.0,32.0,3.0,249.0,614.611
614621.0,221.0,32.0,4.0,249.0,614.621
614631.0,214.0,31.0,4.0,246.0,614.631
614641.0,222.0,32.0,3.0,255.0,614.641
614651.0,226.0,32.0,4.0,255.0,614.651
614661.0,220.0,32.0,3.0,251.0,614.661
614671.0,220.0,32.0,4.0,249.0,614.671
614681.0,215.0,31.0,5.0,246.0,614.681
614691.0,223.0,31.0,5.0,254.0,614.691
614701.0,224.0,32.0,10.0,256.0,614.701
614711.0,219.0,31.0,16.0,251.0,614.711
614721.0,220.0,32.0,16.0,250.0,614.721
614731.0,215.0,30.0,25.0,246.0,614.731
614742.0,222.0,31.0,24.0,253.0,614.742
614752.0,225.0,31.0,30.0,253.0,614.752
614762.0,214.0,31.0,39.0,246.0,614.762
614772.0,217.0,31.0,36.0,247.0,614.772
614782.0,220.0,33.0,47.0,254.0,614.782
614792.0,221.0,32.0,50.0,254.0,614.792
614802.0,224.0,32.0,52.0,253.0,614.802
614812.0,216.0,31.0,65.0,246.0,614.812
614822.0,218.0,31.0,56.0,249.0,614.822
614832.0,217.0,32.0,70.0,252.0,614.832
614842.0,222.0,32.0,72.0,257.0,614.842
614852.0,224.0,33.0,72.0,254.0,614.852
614862.0,215.0,32.0,84.0,246.0,614.862
614872.0,219.0,32.0,74.0,249.0,614.872
614882.0,218.0,32.0,88.0,251.0,614.882
614892.0,222.0,32.0,92.0,254.0,614.892
614902.0,223.0,32.0,88.0,252.0,614.902
614912.0,216.0,33.0,101.0,247.0,614.912
614922.0,218.0,32.0,90.0,247.0,614.922
614932.0,218.0,32.0,104.0,253.0,614.932
614942.0,222.0,32.0,111.0,254.0,614.942
614952.0,223.0,32.0,106.0,254.0,614.952
614962.0,217.0,32.0,119.0,248.0,614.962
614972.0,219.0,32.0,105.0,250.0,614.972
614982.0,221.0,32.0,119.0,252.0,614.982
614992.0,221.0,33.0,127.0,254.0,614.992
615002.0,225.0,32.0,121.0,254.0,615.002
615012.0,215.0,32.0,133.0,245.0,615.012
615022.0,217.0,32.0,120.0,247.0,615.022
615032.0,221.0,31.0,134.0,253.0,615.032
615042.0,222.0,32.0,139.0,253.0,615.042
615052.0,224.0,33.0,134.0,253.0,615.052
615062.0,214.0,32.0,147.0,245.0,615.062
615072.0,219.0,33.0,134.0,247.0,615.072
615083.0,222.0,33.0,145.0,253.0,615.083
615093.0,222.0,31.0,156.0,252.0,615.093
615103.0,222.0,34.0,145.0,251.0,615.103
615113.0,213.0,32.0,158.0,242.0,615.113
615123.0,219.0,33.0,153.0,252.0,615.123
615133.0,223.0,32.0,159.0,254.0,615.133
615143.0,220.0,32.0,167.0,251.0,615.143
615153.0,221.0,33.0,156.0,249.0,615.153
615163.0,212.0,32.0,168.0,242.0,615.163
615173.0,217.0,32.0,161.0,246.0,615.173
615183.0,223.0,33.0,169.0,254.0,615.183
615193.0,221.0,32.0,180.0,250.0,615.193
615203.0,221.0,32.0,166.0,249.0,615.203
615213.0,213.0,32.0,179.0,243.0,615.213
615223.0,218.0,33.0,172.0,248.0,615.223
615233.0,223.0,33.0,177.0,254.0,615.233
615243.0,219.0,33.0,187.0,249.0,615.243
615254.0,220.0,33.0,174.0,248.0,615.254
615264.0,212.0,32.0,183.0,242.0,615.264
615274.0,220.0,32.0,185.0,252.0,615.274
615284.0,225.0,32.0,181.0,254.0,615.284
615294.0,216.0,32.0,189.0,246.0,615.294
615304.0,219.0,32.0,178.0,248.0,615.304
615314.0,213.0,32.0,185.0,244.0,615.314
615324.0,221.0,32.0,190.0,251.0,615.324
615334.0,225.0,32.0,183.0,252.0,615.334
615344.0,219.0,32.0,192.0,247.0,615.344
615354.0,219.0,33.0,180.0,247.0,615.354
615364.0,214.0,32.0,187.0,243.0,615.364
615374.0,221.0,32.0,192.0,250.0,615.374
615384.0,225.0,33.0,187.0,253.0,615.384
615394.0,218.0,32.0,193.0,248.0,615.394
615404.0,220.0,32.0,183.0,247.0,615.404
615414.0,216.0,31.0,188.0,246.0,615.414
615424.0,219.0,32.0,188.0,250.0,615.424
615434.0,224.0,32.0,186.0,254.0,615.434
615444.0,217.0,32.0,191.0,247.0,615.444
615454.0,219.0,31.0,181.0,247.0,615.454
615464.0,215.0,32.0,184.0,247.0,615.464
615474.0,219.0,31.0,188.0,251.0,615.474
615484.0,223.0,33.0,185.0,254.0,615.484
615494.0,216.0,32.0,190.0,245.0,615.494
615504.0,217.0,32.0,180.0,245.0,615.504
615514.0,213.0,32.0,184.0,240.0,615.514
615524.0,220.0,32.0,188.0,249.0,615.524
615534.0,224.0,32.0,183.0,251.0,615.534
615544.0,216.0,32.0,186.0,243.0,615.544
615554.0,219.0,32.0,179.0,246.0,615.554
615564.0,213.0,32.0,179.0,241.0,615.564
615574.0,222.0,32.0,185.0,250.0,615.574
615584.0,226.0,32.0,180.0,252.0,615.584
615595.0,218.0,32.0,184.0,242.0,615.595
615605.0,219.0,32.0,177.0,246.0,615.605
615615.0,220.0,32.0,178.0,246.0,615.615
615625.0,222.0,32.0,185.0,248.0,615.625
615635.0,223.0,32.0,180.0,246.0,615.635
615645.0,217.0,31.0,181.0,240.0,615.645
615655.0,218.0,32.0,176.0,242.0,615.655
615665.0,222.0,31.0,178.0,246.0,615.665
615675.0,222.0,32.0,185.0,246.0,615.675
615685.0,225.0,32.0,179.0,247.0,615.685
615695.0,215.0,33.0,179.0,239.0,615.695
615705.0,219.0,32.0,175.0,241.0,615.705
615715.0,221.0,32.0,177.0,248.0,615.715
615725.0,224.0,32.0,185.0,249.0,615.725
615735.0,225.0,33.0,179.0,249.0,615.735
615745.0,215.0,32.0,179.0,238.0,615.745
615755.0,217.0,32.0,175.0,243.0,615.755
615766.0,222.0,32.0,176.0,248.0,615.766
615776.0,220.0,31.0,183.0,245.0,615.776
615786.0,222.0,32.0,179.0,245.0,615.786
615796.0,212.0,32.0,174.0,237.0,615.796
615806.0,218.0,31.0,179.0,244.0,615.806
615816.0,223.0,33.0,176.0,250.0,615.816
615826.0,220.0,32.0,182.0,246.0,615.826
615836.0,221.0,32.0,177.0,245.0,615.836
615846.0,212.0,31.0,174.0,237.0,615.846
615856.0,217.0,32.0,174.0,243.0,615.856
615866.0,222.0,32.0,176.0,250.0,615.866
615876.0,219.0,32.0,182.0,245.0,615.876
615886.0,219.0,32.0,177.0,245.0,615.886
615896.0,214.0,30.0,177.0,237.0,615.896
615906.0,216.0,32.0,176.0,243.0,615.906
615916.0,224.0,31.0,178.0,249.0,615.916
615926.0,220.0,32.0,183.0,245.0,615.926
615936.0,223.0,32.0,180.0,246.0,615.936
615946.0,214.0,32.0,177.0,237.0,615.946
615956.0,219.0,32.0,179.0,244.0,615.956
615966.0,225.0,32.0,179.0,251.0,615.966
615976.0,220.0,31.0,183.0,245.0,615.976
615986.0,223.0,32.0,181.0,248.0,615.986
615996.0,214.0,31.0,179.0,238.0,615.996
616006.0,219.0,32.0,182.0,247.0,616.006
616016.0,225.0,32.0,181.0,252.0,616.016
616026.0,222.0,32.0,189.0,247.0,616.026
616036.0,222.0,31.0,182.0,246.0,616.036
616046.0,213.0,31.0,180.0,236.0,616.046
616056.0,219.0,32.0,185.0,246.0,616.056
616066.0,224.0,30.0,184.0,249.0,616.066
616076.0,222.0,32.0,190.0,246.0,616.076
616086.0,223.0,31.0,185.0,245.0,616.086
616096.0,214.0,31.0,183.0,236.0,616.096
616107.0,220.0,32.0,189.0,246.0,616.107
616117.0,224.0,31.0,188.0,250.0,616.117
616127.0,217.0,30.0,193.0,241.0,616.127
616137.0,219.0,32.0,187.0,243.0,616.137
616147.0,216.0,31.0,191.0,241.0,616.147
616157.0,219.0,31.0,194.0,245.0,616.157
616167.0,225.0,32.0,195.0,249.0,616.167
616177.0,217.0,32.0,196.0,241.0,616.177
616187.0,218.0,32.0,191.0,241.0,616.187
616197.0,212.0,32.0,192.0,239.0,616.197
616207.0,221.0,32.0,203.0,247.0,616.207
616217.0,225.0,32.0,199.0,249.0,616.217
616227.0,216.0,31.0,201.0,239.0,616.227
616237.0,220.0,32.0,196.0,243.0,616.237
616247.0,214.0,32.0,196.0,239.0,616.247
616257.0,222.0,31.0,205.0,247.0,616.257
616267.0,225.0,32.0,202.0,249.0,616.267
616278.0,217.0,31.0,204.0,241.0,616.278
616288.0,218.0,31.0,199.0,241.0,616.288
616298.0,220.0,32.0,202.0,246.0,616.298
616308.0,222.0,31.0,212.0,248.0,616.308
616318.0,223.0,32.0,206.0,247.0,616.318
616328.0,217.0,31.0,208.0,242.0,616.328
616338.0,218.0,32.0,206.0,243.0,616.338
616348.0,220.0,32.0,208.0,248.0,616.348
616358.0,222.0,31.0,218.0,247.0,616.358
616368.0,226.0,31.0,212.0,248.0,616.368
616378.0,216.0,31.0,213.0,241.0,616.378
616388.0,218.0,32.0,209.0,244.0,616.388
616398.0,222.0,32.0,214.0,249.0,616.398
616408.0,223.0,31.0,222.0,250.0,616.408
616418.0,225.0,32.0,217.0,248.0,616.418
616428.0,216.0,31.0,219.0,240.0,616.428
616438.0,218.0,31.0,215.0,244.0,616.438
616448.0,218.0,32.0,219.0,245.0,616.448
616458.0,222.0,32.0,228.0,249.0,616.458
616468.0,225.0,32.0,222.0,249.0,616.468
616478.0,214.0,31.0,224.0,241.0,616.478
616488.0,219.0,31.0,222.0,244.0,616.488
616498.0,220.0,31.0,225.0,248.0,616.498
616508.0,223.0,32.0,234.0,251.0,616.508
616518.0,224.0,33.0,226.0,250.0,616.518
616528.0,216.0,31.0,233.0,243.0,616.528
616538.0,219.0,31.0,227.0,248.0,616.538
616548.0,221.0,32.0,232.0,251.0,616.548
616558.0,223.0,32.0,239.0,253.0,616.558
616568.0,223.0,32.0,229.0,249.0,616.568
616578.0,217.0,32.0,234.0,244.0,616.578
616588.0,218.0,32.0,229.0,245.0,616.588
616598.0,221.0,32.0,232.0,250.0,616.598
616608.0,222.0,32.0,240.0,251.0,616.608
616619.0,222.0,31.0,231.0,249.0,616.619
616629.0,212.0,32.0,234.0,240.0,616.629
616639.0,219.0,31.0,234.0,247.0,616.639
616649.0,225.0,32.0,237.0,254.0,616.649
616659.0,220.0,30.0,240.0,247.0,616.659
616669.0,221.0,32.0,233.0,249.0,616.669
616679.0,214.0,31.0,236.0,241.0,616.679
616689.0,220.0,32.0,238.0,248.0,616.689
616699.0,227.0,32.0,241.0,253.0,616.699
616709.0,223.0,32.0,245.0,250.0,616.709
616719.0,223.0,32.0,236.0,248.0,616.719
616729.0,214.0,31.0,238.0,240.0,616.729
616739.0,223.0,31.0,242.0,249.0,616.739
616749.0,225.0,31.0,242.0,252.0,616.749
616759.0,223.0,31.0,248.0,250.0,616.759
616769.0,224.0,31.0,239.0,250.0,616.769
616779.0,215.0,31.0,242.0,242.0,616.779
616790.0,222.0,32.0,246.0,252.0,616.79
616800.0,227.0,33.0,247.0,255.0,616.8
616810.0,221.0,31.0,251.0,248.0,616.81
616820.0,222.0,32.0,245.0,248.0,616.82
616830.0,220.0,31.0,249.0,249.0,616.83
616840.0,223.0,31.0,254.0,252.0,616.84
616850.0,229.0,31.0,252.0,255.0,616.85
616860.0,221.0,32.0,253.0,247.0,616.86
616870.0,222.0,31.0,245.0,247.0,616.87
616880.0,216.0,32.0,248.0,243.0,616.88
616890.0,224.0,31.0,254.0,251.0,616.89
616900.0,228.0,32.0,249.0,253.0,616.9
616910.0,219.0,30.0,255.0,245.0,616.91
616920.0,222.0,31.0,247.0,247.0,616.92
616930.0,217.0,31.0,252.0,243.0,616.93
616940.0,224.0,32.0,258.0,251.0,616.94
616950.0,227.0,31.0,252.0,249.0,616.95
616960.0,221.0,31.0,257.0,246.0,616.96
616970.0,221.0,31.0,249.0,246.0,616.97
616980.0,216.0,31.0,253.0,244.0,616.98
616990.0,223.0,31.0,260.0,252.0,616.99
617000.0,227.0,31.0,252.0,252.0,617.0
617010.0,221.0,31.0,261.0,248.0,617.01
617020.0,222.0,31.0,251.0,248.0,617.02
617030.0,218.0,32.0,257.0,247.0,617.03
617040.0,225.0,31.0,265.0,253.0,617.04
617050.0,226.0,32.0,260.0,255.0,617.05
617060.0,222.0,31.0,264.0,247.0,617.06
617070.0,222.0,32.0,254.0,248.0,617.07
617080.0,220.0,31.0,260.0,246.0,617.08
617090.0,223.0,32.0,262.0,250.0,617.09
617100.0,228.0,31.0,262.0,253.0,617.1
617110.0,221.0,31.0,266.0,245.0,617.11
617120.0,221.0,31.0,257.0,245.0,617.12
617131.0,221.0,31.0,262.0,246.0,617.131
617141.0,225.0,31.0,268.0,249.0,617.141
617151.0,226.0,31.0,257.0,248.0,617.151
617161.0,220.0,31.0,265.0,241.0,617.161
617171.0,221.0,32.0,258.0,246.0,617.171
617181.0,223.0,32.0,264.0,248.0,617.181
617191.0,226.0,32.0,270.0,250.0,617.191
617201.0,226.0,32.0,259.0,248.0,617.201
617211.0,219.0,31.0,265.0,239.0,617.211
617221.0,222.0,32.0,259.0,244.0,617.221
617231.0,224.0,30.0,266.0,249.0,617.231
617241.0,226.0,32.0,270.0,250.0,617.241
617251.0,227.0,31.0,260.0,249.0,617.251
617261.0,222.0,32.0,266.0,243.0,617.261
617271.0,222.0,32.0,258.0,245.0,617.271
617281.0,225.0,32.0,265.0,250.0,617.281
617291.0,226.0,31.0,271.0,250.0,617.291
617302.0,226.0,31.0,260.0,249.0,617.302
617312.0,218.0,31.0,266.0,239.0,617.312
617322.0,222.0,33.0,263.0,247.0,617.322
617332.0,228.0,32.0,268.0,252.0,617.332
617342.0,225.0,32.0,271.0,246.0,617.342
617352.0,226.0,32.0,261.0,248.0,617.352
617362.0,218.0,31.0,264.0,238.0,617.362
617372.0,223.0,31.0,267.0,246.0,617.372
617382.0,229.0,31.0,268.0,252.0,617.382
617392.0,226.0,31.0,273.0,246.0,617.392
617402.0,225.0,32.0,262.0,246.0,617.402
617412.0,217.0,31.0,267.0,235.0,617.412
617422.0,223.0,31.0,268.0,245.0,617.422
617432.0,226.0,32.0,270.0,248.0,617.432
617442.0,226.0,31.0,274.0,244.0,617.442
617452.0,223.0,33.0,262.0,244.0,617.452
617462.0,216.0,32.0,265.0,235.0,617.462
617472.0,220.0,32.0,261.0,241.0,617.472
617482.0,227.0,31.0,269.0,247.0,617.482
617492.0,224.0,31.0,273.0,243.0,617.492
617502.0,224.0,31.0,262.0,243.0,617.502
617512.0,218.0,31.0,266.0,236.0,617.512
617522.0,223.0,32.0,265.0,241.0,617.522
617532.0,229.0,33.0,270.0,250.0,617.532
617542.0,226.0,31.0,275.0,242.0,617.542
617552.0,225.0,32.0,263.0,243.0,617.552
617562.0,219.0,31.0,270.0,235.0,617.562
617572.0,224.0,31.0,268.0,243.0,617.572
617582.0,229.0,33.0,271.0,250.0,617.582
617592.0,225.0,31.0,276.0,243.0,617.592
617602.0,225.0,32.0,264.0,246.0,617.602
617612.0,217.0,31.0,270.0,236.0,617.612
617622.0,222.0,32.0,270.0,244.0,617.622
617632.0,229.0,31.0,272.0,250.0,617.632
617643.0,223.0,32.0,274.0,242.0,617.643
617653.0,223.0,32.0,265.0,241.0,617.653
617663.0,219.0,31.0,270.0,238.0,617.663
617673.0,226.0,32.0,278.0,245.0,617.673
617683.0,228.0,32.0,268.0,247.0,617.683
617693.0,222.0,31.0,277.0,239.0,617.693
617703.0,222.0,31.0,267.0,242.0,617.703
617713.0,220.0,32.0,272.0,240.0,617.713
617723.0,226.0,33.0,277.0,246.0,617.723
617733.0,228.0,32.0,272.0,248.0,617.733
617743.0,221.0,32.0,277.0,239.0,617.743
617753.0,222.0,31.0,265.0,239.0,617.753
617763.0,220.0,31.0,271.0,240.0,617.763
617773.0,222.0,32.0,273.0,244.0,617.773
617783.0,226.0,32.0,270.0,247.0,617.783
617793.0,219.0,32.0,277.0,238.0,617.793
617803.0,221.0,31.0,266.0,240.0,617.803
617814.0,220.0,32.0,273.0,242.0,617.814
617824.0,225.0,31.0,280.0,244.0,617.824
617834.0,224.0,32.0,267.0,243.0,617.834
617844.0,217.0,30.0,276.0,234.0,617.844
617854.0,219.0,32.0,271.0,239.0,617.854
617864.0,221.0,31.0,277.0,243.0,617.864
617874.0,224.0,32.0,281.0,245.0,617.874
617884.0,224.0,32.0,268.0,245.0,617.884
617894.0,217.0,31.0,277.0,236.0,617.894
617904.0,220.0,31.0,268.0,242.0,617.904
617914.0,221.0,32.0,276.0,245.0,617.914
617924.0,225.0,32.0,281.0,246.0,617.924
617934.0,225.0,32.0,269.0,246.0,617.934
617944.0,220.0,31.0,280.0,240.0,617.944
617954.0,222.0,32.0,269.0,244.0,617.954
617964.0,224.0,32.0,276.0,247.0,617.964
617974.0,224.0,31.0,280.0,247.0,617.974
617984.0,227.0,32.0,269.0,249.0,617.984
617994.0,218.0,30.0,276.0,240.0,617.994
618004.0,220.0,32.0,267.0,243.0,618.004
618014.0,223.0,31.0,275.0,248.0,618.014
618024.0,223.0,32.0,279.0,247.0,618.024
618034.0,226.0,32.0,270.0,249.0,618.034
618044.0,218.0,31.0,277.0,241.0,618.044
618054.0,221.0,31.0,269.0,245.0,618.054
618064.0,224.0,32.0,276.0,252.0,618.064
618074.0,225.0,31.0,280.0,251.0,618.074
618084.0,225.0,32.0,267.0,251.0,618.084
618094.0,217.0,31.0,275.0,241.0,618.094
618104.0,219.0,31.0,268.0,245.0,618.104
618114.0,221.0,31.0,275.0,247.0,618.114
618124.0,224.0,31.0,278.0,250.0,618.124
618134.0,224.0,31.0,266.0,249.0,618.134
618144.0,216.0,31.0,273.0,241.0,618.144
618155.0,219.0,32.0,268.0,245.0,618.155
618165.0,226.0,32.0,275.0,252.0,618.165
618175.0,224.0,32.0,278.0,247.0,618.175
618185.0,224.0,31.0,266.0,246.0,618.185
618195.0,215.0,31.0,271.0,240.0,618.195
618205.0,222.0,32.0,271.0,248.0,618.205
618215.0,226.0,32.0,274.0,252.0,618.215
618225.0,224.0,31.0,278.0,247.0,618.225
618235.0,223.0,32.0,267.0,246.0,618.235
618245.0,218.0,31.0,274.0,240.0,618.245
618255.0,220.0,31.0,269.0,247.0,618.255
618265.0,225.0,32.0,272.0,252.0,618.265
618275.0,222.0,31.0,276.0,246.0,618.275
618285.0,224.0,32.0,265.0,247.0,618.285
618295.0,216.0,31.0,270.0,240.0,618.295
618305.0,221.0,31.0,271.0,248.0,618.305
618315.0,227.0,31.0,272.0,252.0,618.315
618326.0,223.0,31.0,276.0,247.0,618.326
618336.0,222.0,32.0,265.0,247.0,618.336
618346.0,217.0,31.0,269.0,244.0,618.346
618356.0,224.0,31.0,273.0,252.0,618.356
618366.0,227.0,32.0,265.0,252.0,618.366
618376.0,221.0,31.0,273.0,248.0,618.376
618386.0,222.0,32.0,263.0,248.0,618.386
618396.0,218.0,31.0,268.0,246.0,618.396
