time (ms),signal 0,signal 1,signal 2,signal 3,time (sec)
696325.0,367.0,31.0,400.0,432.0,696.325
696335.0,368.0,32.0,402.0,435.0,696.335
696345.0,374.0,32.0,412.0,443.0,696.345
696355.0,377.0,32.0,414.0,442.0,696.355
696365.0,382.0,32.0,416.0,443.0,696.365
696375.0,368.0,32.0,400.0,428.0,696.375
696385.0,369.0,32.0,401.0,430.0,696.385
696395.0,378.0,33.0,414.0,442.0,696.395
696406.0,379.0,31.0,415.0,441.0,696.406
696416.0,376.0,32.0,410.0,437.0,696.416
696426.0,364.0,31.0,403.0,430.0,696.426
696436.0,375.0,32.0,416.0,443.0,696.436
696446.0,384.0,32.0,428.0,452.0,696.446
696456.0,378.0,32.0,420.0,446.0,696.456
696466.0,376.0,32.0,415.0,440.0,696.466
696476.0,364.0,31.0,403.0,429.0,696.476
696486.0,375.0,32.0,419.0,445.0,696.486
696496.0,380.0,31.0,425.0,449.0,696.496
696506.0,378.0,32.0,425.0,446.0,696.506
696516.0,376.0,32.0,421.0,445.0,696.516
696526.0,365.0,32.0,411.0,434.0,696.526
696536.0,371.0,32.0,417.0,442.0,696.536
696546.0,382.0,32.0,431.0,456.0,696.546
696556.0,379.0,32.0,427.0,450.0,696.556
696566.0,375.0,32.0,420.0,443.0,696.566
696576.0,367.0,32.0,409.0,432.0,696.576
696586.0,373.0,32.0,418.0,444.0,696.586
696596.0,382.0,32.0,430.0,456.0,696.596
696606.0,378.0,32.0,423.0,449.0,696.606
696616.0,376.0,32.0,416.0,443.0,696.616
696626.0,366.0,32.0,406.0,431.0,696.626
696636.0,374.0,32.0,418.0,442.0,696.636
696646.0,383.0,34.0,430.0,453.0,696.646
696656.0,379.0,32.0,423.0,443.0,696.656
696666.0,378.0,33.0,420.0,442.0,696.666
696676.0,366.0,32.0,407.0,429.0,696.676
696686.0,375.0,32.0,418.0,443.0,696.686
696696.0,383.0,33.0,428.0,450.0,696.696
696706.0,379.0,33.0,421.0,445.0,696.706
696716.0,376.0,32.0,416.0,438.0,696.716
696726.0,366.0,32.0,402.0,427.0,696.726
696736.0,374.0,32.0,415.0,439.0,696.736
696747.0,385.0,31.0,426.0,448.0,696.747
696757.0,377.0,33.0,417.0,437.0,696.757
696767.0,374.0,32.0,411.0,433.0,696.767
696777.0,369.0,32.0,410.0,433.0,696.777
696787.0,379.0,32.0,422.0,443.0,696.787
696797.0,384.0,33.0,428.0,449.0,696.797
696807.0,377.0,32.0,419.0,438.0,696.807
696817.0,372.0,32.0,412.0,435.0,696.817
696827.0,372.0,32.0,415.0,437.0,696.827
696837.0,377.0,33.0,422.0,444.0,696.837
696847.0,386.0,33.0,432.0,453.0,696.847
696857.0,375.0,32.0,421.0,440.0,696.857
696867.0,373.0,32.0,415.0,437.0,696.867
696877.0,368.0,33.0,414.0,435.0,696.877
696887.0,378.0,33.0,428.0,447.0,696.887
696897.0,387.0,32.0,436.0,455.0,696.897
696907.0,376.0,32.0,424.0,440.0,696.907
696918.0,374.0,32.0,419.0,437.0,696.918
696928.0,378.0,32.0,428.0,445.0,696.928
696938.0,385.0,32.0,436.0,451.0,696.938
696948.0,384.0,33.0,432.0,446.0,696.948
696958.0,372.0,32.0,423.0,433.0,696.958
696968.0,375.0,32.0,423.0,436.0,696.968
696978.0,379.0,32.0,432.0,444.0,696.978
696988.0,384.0,32.0,439.0,447.0,696.988
696998.0,383.0,33.0,432.0,443.0,696.998
697008.0,375.0,32.0,429.0,434.0,697.008
697018.0,373.0,32.0,424.0,434.0,697.018
697028.0,378.0,33.0,435.0,443.0,697.028
697038.0,383.0,33.0,442.0,445.0,697.038
697048.0,387.0,33.0,440.0,447.0,697.048
697058.0,375.0,32.0,431.0,433.0,697.058
697068.0,373.0,33.0,426.0,434.0,697.068
697078.0,380.0,33.0,439.0,444.0,697.078
697088.0,382.0,32.0,442.0,446.0,697.088
697098.0,385.0,33.0,440.0,446.0,697.098
697108.0,374.0,32.0,432.0,433.0,697.108
697118.0,373.0,32.0,428.0,436.0,697.118
697128.0,381.0,33.0,442.0,447.0,697.128
697138.0,382.0,33.0,444.0,448.0,697.138
697148.0,384.0,32.0,439.0,445.0,697.148
697158.0,372.0,32.0,432.0,433.0,697.158
697168.0,373.0,32.0,431.0,436.0,697.168
697178.0,376.0,32.0,439.0,442.0,697.178
697188.0,383.0,32.0,448.0,448.0,697.188
697198.0,382.0,33.0,441.0,446.0,697.198
697208.0,370.0,32.0,435.0,432.0,697.208
697218.0,372.0,33.0,433.0,436.0,697.218
697228.0,376.0,32.0,444.0,443.0,697.228
697238.0,381.0,32.0,449.0,446.0,697.238
697248.0,381.0,33.0,442.0,443.0,697.248
697259.0,370.0,31.0,436.0,430.0,697.259
697269.0,372.0,32.0,436.0,437.0,697.269
697279.0,383.0,33.0,450.0,449.0,697.279
697289.0,380.0,32.0,451.0,444.0,697.289
697299.0,377.0,32.0,440.0,439.0,697.299
697309.0,370.0,32.0,438.0,429.0,697.309
697319.0,375.0,31.0,442.0,438.0,697.319
697329.0,384.0,32.0,453.0,449.0,697.329
697339.0,381.0,32.0,453.0,442.0,697.339
697349.0,380.0,33.0,444.0,441.0,697.349
697359.0,369.0,32.0,438.0,427.0,697.359
697369.0,375.0,32.0,443.0,437.0,697.369
697379.0,385.0,32.0,455.0,448.0,697.379
697389.0,381.0,33.0,454.0,445.0,697.389
697399.0,379.0,32.0,443.0,439.0,697.399
697409.0,368.0,32.0,439.0,428.0,697.409
697419.0,376.0,32.0,446.0,440.0,697.419
697430.0,386.0,32.0,455.0,450.0,697.43
697440.0,380.0,32.0,450.0,440.0,697.44
697450.0,376.0,32.0,438.0,435.0,697.45
697460.0,370.0,32.0,436.0,431.0,697.46
697470.0,381.0,32.0,447.0,443.0,697.47
697480.0,387.0,32.0,450.0,448.0,697.48
697490.0,380.0,32.0,446.0,438.0,697.49
697500.0,375.0,32.0,435.0,435.0,697.5
697510.0,372.0,32.0,438.0,434.0,697.51
697520.0,379.0,33.0,442.0,442.0,697.52
697530.0,388.0,32.0,451.0,449.0,697.53
697540.0,379.0,32.0,445.0,437.0,697.54
697550.0,377.0,32.0,438.0,434.0,697.55
697560.0,369.0,31.0,436.0,429.0,697.56
697570.0,381.0,32.0,449.0,444.0,697.57
697580.0,389.0,33.0,455.0,453.0,697.58
697590.0,380.0,32.0,451.0,440.0,697.59
697600.0,379.0,32.0,445.0,440.0,697.6
697610.0,373.0,32.0,443.0,437.0,697.61
697620.0,382.0,31.0,454.0,450.0,697.62
697630.0,390.0,33.0,457.0,454.0,697.63
697640.0,378.0,32.0,446.0,443.0,697.64
697650.0,380.0,33.0,436.0,443.0,697.65
697660.0,373.0,32.0,433.0,439.0,697.66
697670.0,381.0,32.0,444.0,452.0,697.67
697680.0,389.0,33.0,449.0,456.0,697.68
697690.0,381.0,32.0,441.0,447.0,697.69
697700.0,379.0,32.0,431.0,439.0,697.7
697710.0,370.0,32.0,426.0,436.0,697.71
697720.0,380.0,32.0,438.0,445.0,697.72
697730.0,388.0,32.0,444.0,452.0,697.73
697740.0,386.0,32.0,436.0,444.0,697.74
697750.0,380.0,31.0,423.0,434.0,697.75
697760.0,375.0,32.0,420.0,429.0,697.76
697771.0,384.0,32.0,426.0,442.0,697.771
697781.0,390.0,32.0,431.0,441.0,697.781
697791.0,378.0,32.0,420.0,433.0,697.791
697801.0,378.0,32.0,419.0,436.0,697.801
697811.0,390.0,31.0,434.0,448.0,697.811
697821.0,387.0,32.0,435.0,446.0,697.821
697831.0,384.0,31.0,419.0,436.0,697.831
697841.0,367.0,33.0,402.0,420.0,697.841
697851.0,369.0,32.0,405.0,427.0,697.851
697861.0,373.0,32.0,415.0,432.0,697.861
697871.0,384.0,31.0,429.0,441.0,697.871
697881.0,388.0,32.0,430.0,439.0,697.881
697891.0,382.0,31.0,422.0,433.0,697.891
697901.0,388.0,33.0,425.0,439.0,697.901
697911.0,385.0,32.0,429.0,439.0,697.911
697921.0,382.0,32.0,429.0,438.0,697.921
697931.0,384.0,32.0,425.0,435.0,697.931
697942.0,374.0,31.0,416.0,428.0,697.942
697952.0,378.0,32.0,420.0,438.0,697.952
697962.0,388.0,33.0,435.0,452.0,697.962
697972.0,389.0,32.0,444.0,455.0,697.972
697982.0,385.0,32.0,436.0,445.0,697.982
697992.0,374.0,32.0,427.0,435.0,697.992
698002.0,382.0,32.0,432.0,439.0,698.002
698012.0,393.0,32.0,439.0,450.0,698.012
698022.0,392.0,31.0,436.0,447.0,698.022
698032.0,395.0,33.0,446.0,455.0,698.032
698042.0,382.0,32.0,429.0,441.0,698.042
698052.0,384.0,33.0,432.0,449.0,698.052
698062.0,402.0,33.0,453.0,468.0,698.062
698072.0,398.0,33.0,452.0,462.0,698.072
698082.0,395.0,33.0,439.0,454.0,698.082
698092.0,379.0,33.0,418.0,437.0,698.092
698102.0,386.0,32.0,428.0,450.0,698.102
698112.0,395.0,33.0,443.0,462.0,698.112
698122.0,398.0,32.0,455.0,466.0,698.122
698132.0,396.0,32.0,448.0,462.0,698.132
698142.0,387.0,32.0,434.0,447.0,698.142
698152.0,400.0,32.0,453.0,464.0,698.152
698162.0,403.0,32.0,455.0,470.0,698.162
698172.0,404.0,32.0,456.0,463.0,698.172
698182.0,400.0,32.0,450.0,458.0,698.182
698192.0,387.0,32.0,438.0,444.0,698.192
698202.0,394.0,33.0,447.0,456.0,698.202
698212.0,402.0,33.0,457.0,465.0,698.212
698222.0,401.0,33.0,454.0,461.0,698.222
698232.0,396.0,33.0,443.0,455.0,698.232
698242.0,386.0,32.0,438.0,446.0,698.242
698252.0,386.0,32.0,435.0,450.0,698.252
698262.0,396.0,32.0,449.0,463.0,698.262
698272.0,393.0,32.0,441.0,452.0,698.272
698283.0,392.0,33.0,434.0,448.0,698.283
698293.0,385.0,32.0,426.0,441.0,698.293
698303.0,397.0,32.0,437.0,457.0,698.303
698313.0,404.0,32.0,446.0,466.0,698.313
698323.0,393.0,32.0,435.0,454.0,698.323
698333.0,393.0,32.0,434.0,451.0,698.333
698343.0,384.0,31.0,430.0,446.0,698.343
698353.0,393.0,32.0,438.0,456.0,698.353
698363.0,404.0,32.0,440.0,456.0,698.363
698373.0,396.0,32.0,441.0,452.0,698.373
698383.0,393.0,32.0,440.0,449.0,698.383
698393.0,385.0,31.0,432.0,446.0,698.393
698403.0,393.0,31.0,437.0,451.0,698.403
698413.0,401.0,32.0,445.0,458.0,698.413
698423.0,398.0,32.0,438.0,449.0,698.423
698433.0,395.0,32.0,430.0,445.0,698.433
698443.0,391.0,31.0,438.0,447.0,698.443
698454.0,396.0,32.0,449.0,450.0,698.454
698464.0,404.0,32.0,459.0,460.0,698.464
698474.0,388.0,31.0,447.0,447.0,698.474
698484.0,383.0,32.0,433.0,434.0,698.484
698494.0,387.0,32.0,440.0,442.0,698.494
698504.0,387.0,31.0,442.0,444.0,698.504
698514.0,399.0,31.0,452.0,451.0,698.514
698524.0,385.0,31.0,444.0,439.0,698.524
698534.0,388.0,32.0,441.0,442.0,698.534
698544.0,387.0,31.0,437.0,442.0,698.544
698554.0,392.0,32.0,445.0,453.0,698.554
698564.0,391.0,31.0,439.0,448.0,698.564
698574.0,375.0,31.0,424.0,429.0,698.574
698584.0,379.0,31.0,419.0,433.0,698.584
698594.0,380.0,31.0,429.0,443.0,698.594
698604.0,392.0,31.0,447.0,455.0,698.604
698614.0,398.0,30.0,441.0,450.0,698.614
698624.0,385.0,31.0,431.0,438.0,698.624
698634.0,382.0,32.0,432.0,439.0,698.634
698644.0,390.0,31.0,451.0,454.0,698.644
698654.0,402.0,31.0,465.0,469.0,698.654
698664.0,403.0,32.0,459.0,467.0,698.664
698674.0,396.0,31.0,457.0,459.0,698.674
698684.0,396.0,33.0,448.0,454.0,698.684
698694.0,398.0,32.0,459.0,464.0,698.694
698704.0,398.0,32.0,453.0,463.0,698.704
698714.0,405.0,33.0,460.0,472.0,698.714
698724.0,391.0,32.0,454.0,465.0,698.724
698734.0,386.0,32.0,448.0,462.0,698.734
698744.0,392.0,31.0,459.0,472.0,698.744
698754.0,393.0,32.0,460.0,470.0,698.754
698764.0,401.0,33.0,467.0,470.0,698.764
698774.0,384.0,32.0,449.0,452.0,698.774
698784.0,382.0,32.0,440.0,445.0,698.784
698795.0,388.0,32.0,452.0,459.0,698.795
698805.0,395.0,32.0,462.0,464.0,698.805
698815.0,391.0,33.0,451.0,455.0,698.815
698825.0,379.0,32.0,439.0,437.0,698.825
698835.0,388.0,32.0,454.0,447.0,698.835
698845.0,393.0,32.0,454.0,450.0,698.845
698855.0,398.0,33.0,457.0,455.0,698.855
698865.0,395.0,32.0,448.0,451.0,698.865
698875.0,382.0,31.0,438.0,440.0,698.875
698885.0,386.0,32.0,444.0,446.0,698.885
698895.0,398.0,32.0,466.0,463.0,698.895
698905.0,400.0,32.0,467.0,463.0,698.905
698915.0,398.0,31.0,461.0,458.0,698.915
698925.0,392.0,32.0,460.0,450.0,698.925
698935.0,396.0,32.0,456.0,456.0,698.935
698945.0,402.0,32.0,463.0,461.0,698.945
698955.0,399.0,31.0,463.0,460.0,698.955
698966.0,394.0,32.0,448.0,449.0,698.966
698976.0,384.0,31.0,439.0,440.0,698.976
698986.0,396.0,33.0,460.0,463.0,698.986
698996.0,405.0,32.0,468.0,471.0,698.996
699006.0,396.0,31.0,462.0,459.0,699.006
699016.0,396.0,31.0,464.0,457.0,699.016
699026.0,382.0,32.0,452.0,444.0,699.026
699036.0,396.0,31.0,458.0,457.0,699.036
699046.0,406.0,33.0,464.0,469.0,699.046
699056.0,395.0,32.0,459.0,455.0,699.056
699066.0,389.0,33.0,448.0,449.0,699.066
699076.0,380.0,31.0,441.0,439.0,699.076
699086.0,388.0,32.0,450.0,452.0,699.086
699096.0,395.0,32.0,464.0,463.0,699.096
699106.0,388.0,31.0,459.0,455.0,699.106
699116.0,389.0,32.0,454.0,450.0,699.116
699126.0,379.0,32.0,451.0,445.0,699.126
699136.0,388.0,32.0,463.0,455.0,699.136
699146.0,398.0,31.0,463.0,459.0,699.146
699156.0,390.0,31.0,455.0,448.0,699.156
699166.0,389.0,32.0,451.0,446.0,699.166
699176.0,381.0,33.0,442.0,438.0,699.176
699186.0,387.0,31.0,446.0,450.0,699.186
699196.0,398.0,32.0,455.0,458.0,699.196
699206.0,391.0,31.0,456.0,454.0,699.206
699216.0,382.0,31.0,440.0,446.0,699.216
699226.0,375.0,31.0,433.0,439.0,699.226
699236.0,385.0,33.0,444.0,453.0,699.236
699246.0,398.0,32.0,462.0,463.0,699.246
699256.0,390.0,31.0,447.0,450.0,699.256
699266.0,392.0,32.0,444.0,449.0,699.266
699276.0,382.0,31.0,436.0,441.0,699.276
699286.0,394.0,32.0,450.0,451.0,699.286
699296.0,403.0,31.0,461.0,461.0,699.296
699307.0,393.0,32.0,449.0,450.0,699.307
699317.0,396.0,32.0,451.0,453.0,699.317
699327.0,393.0,32.0,457.0,463.0,699.327
699337.0,401.0,32.0,465.0,470.0,699.337
699347.0,406.0,33.0,462.0,463.0,699.347
699357.0,397.0,32.0,457.0,457.0,699.357
699367.0,394.0,32.0,451.0,452.0,699.367
699377.0,395.0,32.0,463.0,467.0,699.377
699387.0,405.0,33.0,469.0,477.0,699.387
699397.0,409.0,33.0,473.0,475.0,699.397
699407.0,393.0,31.0,452.0,460.0,699.407
699417.0,392.0,32.0,449.0,458.0,699.417
699427.0,393.0,33.0,451.0,463.0,699.427
699437.0,395.0,32.0,448.0,462.0,699.437
699447.0,407.0,32.0,459.0,469.0,699.447
699457.0,392.0,32.0,434.0,451.0,699.457
699467.0,393.0,31.0,429.0,444.0,699.467
699478.0,395.0,32.0,432.0,450.0,699.478
699488.0,402.0,32.0,432.0,456.0,699.488
699498.0,402.0,32.0,432.0,448.0,699.498
699508.0,388.0,30.0,411.0,436.0,699.508
699518.0,392.0,33.0,423.0,447.0,699.518
699528.0,394.0,32.0,429.0,449.0,699.528
699538.0,392.0,32.0,424.0,450.0,699.538
699548.0,390.0,32.0,426.0,442.0,699.548
699558.0,376.0,32.0,402.0,429.0,699.558
699568.0,383.0,32.0,414.0,439.0,699.568
699578.0,394.0,33.0,441.0,457.0,699.578
699588.0,396.0,31.0,431.0,453.0,699.588
699598.0,393.0,32.0,433.0,450.0,699.598
699608.0,387.0,32.0,414.0,444.0,699.608
699618.0,386.0,31.0,419.0,445.0,699.618
699628.0,394.0,32.0,431.0,454.0,699.628
699638.0,394.0,32.0,423.0,454.0,699.638
699648.0,397.0,33.0,433.0,451.0,699.648
699658.0,383.0,31.0,404.0,442.0,699.658
699668.0,387.0,32.0,415.0,451.0,699.668
699678.0,397.0,32.0,430.0,462.0,699.678
699688.0,395.0,32.0,414.0,455.0,699.688
699698.0,397.0,32.0,431.0,452.0,699.698
699708.0,383.0,32.0,397.0,439.0,699.708
699718.0,389.0,32.0,412.0,447.0,699.718
699728.0,397.0,32.0,426.0,457.0,699.728
699738.0,395.0,32.0,415.0,451.0,699.738
699748.0,395.0,33.0,431.0,451.0,699.748
699758.0,381.0,30.0,397.0,437.0,699.758
699768.0,385.0,32.0,415.0,446.0,699.768
699778.0,390.0,32.0,427.0,452.0,699.778
699788.0,393.0,31.0,421.0,459.0,699.788
699798.0,393.0,32.0,440.0,454.0,699.798
699808.0,380.0,32.0,402.0,440.0,699.808
699819.0,386.0,32.0,422.0,451.0,699.819
699829.0,397.0,32.0,445.0,465.0,699.829
699839.0,391.0,32.0,420.0,459.0,699.839
699849.0,387.0,31.0,438.0,455.0,699.849
699859.0,379.0,32.0,421.0,448.0,699.859
699869.0,385.0,31.0,432.0,457.0,699.869
699879.0,395.0,32.0,453.0,461.0,699.879
699889.0,390.0,31.0,425.0,455.0,699.889
699899.0,388.0,32.0,447.0,448.0,699.899
699909.0,377.0,32.0,416.0,437.0,699.909
699919.0,383.0,32.0,436.0,445.0,699.919
699929.0,394.0,32.0,461.0,457.0,699.929
699939.0,386.0,33.0,422.0,447.0,699.939
699949.0,384.0,32.0,456.0,443.0,699.949
699959.0,372.0,31.0,428.0,429.0,699.959
699969.0,379.0,32.0,452.0,442.0,699.969
699979.0,385.0,32.0,477.0,451.0,699.979
699990.0,374.0,32.0,439.0,438.0,699.99
700000.0,372.0,32.0,469.0,440.0,700.0
700010.0,370.0,32.0,453.0,439.0,700.01
700020.0,379.0,32.0,460.0,448.0,700.02
700030.0,381.0,32.0,493.0,448.0,700.03
700040.0,375.0,31.0,455.0,443.0,700.04
700050.0,371.0,33.0,486.0,442.0,700.05
700060.0,371.0,32.0,479.0,443.0,700.06
700070.0,379.0,32.0,481.0,450.0,700.07
700080.0,388.0,32.0,514.0,455.0,700.08
700090.0,376.0,33.0,465.0,445.0,700.09
700100.0,375.0,32.0,495.0,440.0,700.1
700110.0,374.0,32.0,486.0,441.0,700.11
700120.0,379.0,32.0,489.0,446.0,700.12
700130.0,386.0,33.0,513.0,451.0,700.13
700140.0,375.0,32.0,468.0,442.0,700.14
700150.0,373.0,32.0,500.0,441.0,700.15
700160.0,370.0,32.0,482.0,440.0,700.16
700170.0,379.0,32.0,495.0,451.0,700.17
700180.0,384.0,33.0,523.0,454.0,700.18
700190.0,374.0,31.0,478.0,441.0,700.19
700200.0,373.0,33.0,507.0,438.0,700.2
700210.0,369.0,32.0,489.0,439.0,700.21
700220.0,378.0,33.0,498.0,448.0,700.22
700230.0,383.0,33.0,527.0,448.0,700.23
700240.0,370.0,33.0,478.0,437.0,700.24
700250.0,372.0,33.0,513.0,439.0,700.25
700260.0,368.0,33.0,492.0,438.0,700.26
700270.0,377.0,33.0,497.0,448.0,700.27
700280.0,381.0,33.0,526.0,452.0,700.28
700290.0,373.0,32.0,482.0,442.0,700.29
700300.0,369.0,33.0,507.0,436.0,700.3
700310.0,366.0,33.0,491.0,437.0,700.31
700320.0,371.0,32.0,489.0,444.0,700.32
700331.0,375.0,32.0,515.0,442.0,700.331
700341.0,364.0,32.0,468.0,432.0,700.341
700351.0,363.0,33.0,488.0,424.0,700.351
700361.0,371.0,32.0,496.0,435.0,700.361
700371.0,372.0,33.0,475.0,436.0,700.371
700381.0,375.0,33.0,510.0,436.0,700.381
700391.0,362.0,33.0,464.0,424.0,700.391
700401.0,364.0,33.0,484.0,430.0,700.401
700411.0,374.0,32.0,496.0,441.0,700.411
700421.0,373.0,32.0,477.0,442.0,700.421
700431.0,373.0,33.0,500.0,441.0,700.431
700441.0,362.0,32.0,455.0,428.0,700.441
700451.0,364.0,33.0,473.0,434.0,700.451
700461.0,369.0,32.0,479.0,444.0,700.461
700471.0,372.0,34.0,471.0,449.0,700.471
700481.0,373.0,33.0,497.0,443.0,700.481
700491.0,359.0,32.0,451.0,429.0,700.491
700502.0,363.0,32.0,470.0,438.0,700.502
700512.0,374.0,33.0,484.0,451.0,700.512
700522.0,370.0,32.0,456.0,444.0,700.522
700532.0,366.0,32.0,475.0,439.0,700.532
700542.0,356.0,33.0,446.0,432.0,700.542
700552.0,362.0,31.0,458.0,438.0,700.552
700562.0,373.0,33.0,475.0,446.0,700.562
700572.0,367.0,32.0,444.0,440.0,700.572
700582.0,365.0,33.0,466.0,435.0,700.582
700592.0,356.0,32.0,433.0,427.0,700.592
700602.0,364.0,32.0,451.0,440.0,700.602
700612.0,375.0,33.0,468.0,452.0,700.612
700622.0,369.0,32.0,437.0,445.0,700.622
700632.0,370.0,32.0,462.0,441.0,700.632
700642.0,358.0,33.0,427.0,431.0,700.642
700652.0,367.0,32.0,446.0,444.0,700.652
700662.0,376.0,32.0,463.0,451.0,700.662
700672.0,371.0,32.0,436.0,445.0,700.672
700682.0,367.0,33.0,452.0,440.0,700.682
700692.0,356.0,32.0,421.0,428.0,700.692
700702.0,366.0,31.0,437.0,443.0,700.702
700712.0,376.0,32.0,456.0,451.0,700.712
700722.0,370.0,32.0,428.0,444.0,700.722
700732.0,369.0,32.0,443.0,438.0,700.732
700742.0,357.0,31.0,413.0,430.0,700.742
700752.0,368.0,32.0,430.0,443.0,700.752
700762.0,374.0,32.0,442.0,448.0,700.762
700772.0,370.0,32.0,421.0,443.0,700.772
700782.0,368.0,32.0,433.0,437.0,700.782
700792.0,358.0,32.0,412.0,431.0,700.792
700802.0,365.0,32.0,425.0,437.0,700.802
700812.0,376.0,33.0,442.0,448.0,700.812
700822.0,371.0,32.0,418.0,442.0,700.822
700832.0,368.0,33.0,428.0,436.0,700.832
700843.0,359.0,32.0,408.0,431.0,700.843
700853.0,371.0,33.0,422.0,445.0,700.853
700863.0,380.0,33.0,439.0,449.0,700.863
700873.0,366.0,32.0,405.0,435.0,700.873
700883.0,365.0,32.0,414.0,434.0,700.883
700893.0,361.0,33.0,405.0,434.0,700.893
700903.0,371.0,32.0,417.0,445.0,700.903
700913.0,378.0,32.0,432.0,448.0,700.913
700923.0,363.0,32.0,401.0,436.0,700.923
700933.0,366.0,31.0,413.0,437.0,700.933
700943.0,359.0,32.0,400.0,432.0,700.943
700953.0,368.0,32.0,410.0,442.0,700.953
700963.0,375.0,33.0,427.0,444.0,700.963
700973.0,364.0,32.0,401.0,437.0,700.973
700983.0,363.0,33.0,407.0,434.0,700.983
700993.0,358.0,32.0,399.0,433.0,700.993
701003.0,367.0,33.0,409.0,443.0,701.003
701014.0,376.0,33.0,422.0,444.0,701.014
701024.0,359.0,33.0,393.0,431.0,701.024
701034.0,360.0,32.0,400.0,432.0,701.034
701044.0,366.0,32.0,410.0,443.0,701.044
701054.0,368.0,32.0,406.0,443.0,701.054
701064.0,372.0,33.0,414.0,442.0,701.064
701074.0,358.0,32.0,387.0,429.0,701.074
701084.0,358.0,33.0,393.0,432.0,701.084
701094.0,367.0,32.0,407.0,444.0,701.094
701104.0,366.0,32.0,404.0,444.0,701.104
701114.0,370.0,32.0,412.0,442.0,701.114
701124.0,356.0,32.0,388.0,430.0,701.124
701134.0,359.0,33.0,397.0,435.0,701.134
701144.0,362.0,32.0,403.0,440.0,701.144
701154.0,368.0,32.0,409.0,446.0,701.154
701164.0,370.0,32.0,413.0,442.0,701.164
701174.0,356.0,33.0,392.0,431.0,701.174
701184.0,361.0,32.0,401.0,435.0,701.184
701194.0,363.0,33.0,406.0,442.0,701.194
701204.0,368.0,32.0,405.0,444.0,701.204
701214.0,369.0,33.0,407.0,440.0,701.214
701224.0,355.0,31.0,388.0,427.0,701.224
701234.0,359.0,33.0,397.0,432.0,701.234
701244.0,365.0,33.0,409.0,442.0,701.244
701254.0,368.0,32.0,411.0,444.0,701.254
701264.0,366.0,32.0,411.0,440.0,701.264
701274.0,355.0,32.0,398.0,432.0,701.274
701284.0,356.0,33.0,400.0,433.0,701.284
701294.0,364.0,32.0,412.0,442.0,701.294
701304.0,366.0,33.0,412.0,441.0,701.304
701314.0,371.0,33.0,415.0,439.0,701.314
701324.0,356.0,32.0,393.0,425.0,701.324
701334.0,358.0,32.0,398.0,428.0,701.334
701344.0,366.0,33.0,411.0,440.0,701.344
701355.0,367.0,32.0,413.0,441.0,701.355
701365.0,366.0,33.0,411.0,435.0,701.365
701375.0,354.0,31.0,397.0,424.0,701.375
701385.0,364.0,32.0,413.0,440.0,701.385
701395.0,375.0,32.0,426.0,448.0,701.395
701405.0,368.0,33.0,418.0,442.0,701.405
701415.0,366.0,32.0,413.0,438.0,701.415
701425.0,352.0,32.0,399.0,427.0,701.425
701435.0,365.0,32.0,416.0,440.0,701.435
701445.0,369.0,31.0,421.0,445.0,701.445
701455.0,366.0,32.0,415.0,439.0,701.455
701465.0,365.0,33.0,411.0,435.0,701.465
701475.0,352.0,32.0,400.0,426.0,701.475
701485.0,360.0,32.0,408.0,435.0,701.485
701495.0,369.0,32.0,421.0,444.0,701.495
701505.0,366.0,32.0,415.0,437.0,701.505
701515.0,364.0,33.0,410.0,434.0,701.515
701526.0,353.0,31.0,401.0,425.0,701.526
701536.0,364.0,33.0,417.0,439.0,701.536
701546.0,372.0,33.0,427.0,446.0,701.546
701556.0,357.0,32.0,412.0,432.0,701.556
701566.0,358.0,32.0,412.0,431.0,701.566
701576.0,351.0,32.0,407.0,427.0,701.576
701586.0,364.0,31.0,422.0,440.0,701.586
701596.0,372.0,34.0,428.0,446.0,701.596
701606.0,358.0,32.0,413.0,430.0,701.606
701616.0,362.0,33.0,416.0,433.0,701.616
701626.0,354.0,32.0,410.0,429.0,701.626
701636.0,366.0,31.0,423.0,442.0,701.636
701646.0,373.0,33.0,430.0,445.0,701.646
701656.0,363.0,32.0,419.0,436.0,701.656
701666.0,362.0,32.0,415.0,432.0,701.666
701676.0,357.0,33.0,408.0,429.0,701.676
701686.0,367.0,32.0,420.0,438.0,701.686
701696.0,373.0,33.0,427.0,444.0,701.696
701706.0,363.0,32.0,410.0,432.0,701.706
701716.0,362.0,32.0,409.0,431.0,701.716
701726.0,356.0,33.0,406.0,431.0,701.726
701736.0,366.0,32.0,413.0,439.0,701.736
701746.0,372.0,32.0,422.0,445.0,701.746
701756.0,363.0,31.0,406.0,432.0,701.756
701766.0,360.0,33.0,406.0,429.0,701.766
701776.0,358.0,32.0,406.0,430.0,701.776
701786.0,364.0,32.0,412.0,437.0,701.786
701796.0,373.0,32.0,426.0,446.0,701.796
701806.0,362.0,31.0,407.0,432.0,701.806
701816.0,360.0,32.0,406.0,430.0,701.816
701826.0,354.0,31.0,396.0,425.0,701.826
701836.0,367.0,32.0,412.0,438.0,701.836
701846.0,375.0,31.0,424.0,445.0,701.846
701856.0,362.0,32.0,402.0,431.0,701.856
701867.0,361.0,32.0,405.0,431.0,701.867
701877.0,362.0,32.0,408.0,434.0,701.877
701887.0,369.0,32.0,412.0,441.0,701.887
701897.0,370.0,33.0,418.0,438.0,701.897
701907.0,357.0,31.0,392.0,424.0,701.907
701917.0,360.0,33.0,402.0,430.0,701.917
701927.0,363.0,32.0,406.0,436.0,701.927
701937.0,368.0,33.0,408.0,440.0,701.937
701947.0,369.0,33.0,415.0,438.0,701.947
701957.0,360.0,31.0,394.0,429.0,701.957
701967.0,359.0,32.0,397.0,427.0,701.967
701977.0,365.0,33.0,405.0,437.0,701.977
701987.0,368.0,32.0,404.0,437.0,701.987
701997.0,373.0,32.0,417.0,440.0,701.997
702007.0,360.0,32.0,389.0,425.0,702.007
702017.0,360.0,32.0,396.0,427.0,702.017
702027.0,366.0,32.0,407.0,438.0,702.027
702038.0,366.0,32.0,403.0,441.0,702.038
702048.0,365.0,32.0,411.0,435.0,702.048
702058.0,351.0,32.0,383.0,421.0,702.058
702068.0,361.0,32.0,402.0,434.0,702.068
702078.0,371.0,32.0,419.0,444.0,702.078
702088.0,368.0,32.0,403.0,439.0,702.088
702098.0,368.0,31.0,415.0,435.0,702.098
702108.0,353.0,32.0,387.0,423.0,702.108
702118.0,363.0,32.0,405.0,435.0,702.118
702128.0,368.0,32.0,415.0,441.0,702.128
702138.0,364.0,32.0,403.0,438.0,702.138
702148.0,363.0,32.0,413.0,434.0,702.148
702158.0,350.0,31.0,388.0,422.0,702.158
702168.0,357.0,33.0,401.0,431.0,702.168
702178.0,368.0,32.0,417.0,441.0,702.178
702188.0,367.0,32.0,404.0,438.0,702.188
702198.0,365.0,32.0,416.0,432.0,702.198
702208.0,355.0,32.0,390.0,421.0,702.208
702218.0,359.0,32.0,404.0,429.0,702.218
702228.0,370.0,32.0,421.0,442.0,702.228
702238.0,367.0,32.0,404.0,437.0,702.238
702248.0,365.0,32.0,418.0,432.0,702.248
702258.0,357.0,32.0,392.0,424.0,702.258
702268.0,365.0,31.0,410.0,433.0,702.268
702278.0,374.0,32.0,426.0,444.0,702.278
702288.0,367.0,32.0,404.0,436.0,702.288
702298.0,368.0,33.0,424.0,436.0,702.298
702308.0,355.0,32.0,393.0,423.0,702.308
702318.0,363.0,31.0,412.0,434.0,702.318
702328.0,373.0,32.0,431.0,445.0,702.328
702338.0,369.0,32.0,413.0,442.0,702.338
702348.0,368.0,33.0,427.0,437.0,702.348
702358.0,354.0,33.0,393.0,426.0,702.358
702368.0,363.0,32.0,412.0,438.0,702.368
702379.0,374.0,32.0,432.0,448.0,702.379
702389.0,366.0,32.0,406.0,438.0,702.389
702399.0,363.0,32.0,413.0,433.0,702.399
702409.0,358.0,32.0,400.0,429.0,702.409
702419.0,368.0,31.0,412.0,441.0,702.419
702429.0,374.0,33.0,429.0,446.0,702.429
702439.0,366.0,32.0,401.0,435.0,702.439
702449.0,363.0,32.0,414.0,431.0,702.449
702459.0,360.0,32.0,403.0,430.0,702.459
702469.0,367.0,33.0,410.0,438.0,702.469
702479.0,376.0,32.0,431.0,446.0,702.479
702489.0,366.0,32.0,402.0,434.0,702.489
702499.0,364.0,32.0,415.0,432.0,702.499
702509.0,356.0,32.0,396.0,426.0,702.509
702519.0,367.0,32.0,414.0,439.0,702.519
702529.0,376.0,32.0,430.0,446.0,702.529
702539.0,365.0,32.0,398.0,431.0,702.539
702550.0,363.0,33.0,411.0,431.0,702.55
702560.0,363.0,32.0,408.0,434.0,702.56
702570.0,370.0,32.0,413.0,442.0,702.57
702580.0,374.0,32.0,430.0,439.0,702.58
702590.0,362.0,31.0,395.0,425.0,702.59
702600.0,365.0,33.0,408.0,429.0,702.6
702610.0,368.0,31.0,410.0,435.0,702.61
702620.0,373.0,33.0,412.0,440.0,702.62
702630.0,375.0,33.0,424.0,437.0,702.63
702640.0,368.0,31.0,397.0,429.0,702.64
702650.0,369.0,32.0,408.0,428.0,702.65
702660.0,370.0,32.0,412.0,436.0,702.66
702670.0,375.0,32.0,411.0,439.0,702.67
702680.0,381.0,33.0,427.0,442.0,702.68
702690.0,366.0,32.0,395.0,426.0,702.69
702700.0,366.0,32.0,404.0,427.0,702.7
702710.0,371.0,32.0,411.0,436.0,702.71
702720.0,372.0,31.0,407.0,438.0,702.72
702730.0,379.0,33.0,425.0,441.0,702.73
702740.0,365.0,32.0,392.0,427.0,702.74
702750.0,364.0,33.0,401.0,427.0,702.75
702760.0,371.0,32.0,412.0,438.0,702.76
702770.0,373.0,32.0,409.0,439.0,702.77
702780.0,377.0,32.0,422.0,440.0,702.78
702790.0,362.0,32.0,391.0,425.0,702.79
702800.0,363.0,32.0,397.0,427.0,702.8
702810.0,364.0,33.0,396.0,430.0,702.81
702820.0,372.0,32.0,405.0,438.0,702.82
702830.0,379.0,34.0,417.0,438.0,702.83
702840.0,364.0,32.0,388.0,424.0,702.84
702850.0,366.0,32.0,401.0,429.0,702.85
702860.0,367.0,32.0,401.0,433.0,702.86
702870.0,372.0,33.0,405.0,441.0,702.87
702880.0,374.0,32.0,414.0,438.0,702.88
702891.0,360.0,32.0,386.0,423.0,702.891
702901.0,365.0,32.0,399.0,432.0,702.901
702911.0,374.0,31.0,411.0,443.0,702.911
702921.0,371.0,31.0,399.0,437.0,702.921
702931.0,368.0,33.0,403.0,434.0,702.931
702941.0,359.0,32.0,384.0,423.0,702.941
702951.0,363.0,32.0,396.0,431.0,702.951
702961.0,374.0,32.0,412.0,442.0,702.961
702971.0,370.0,32.0,401.0,437.0,702.971
702981.0,371.0,32.0,411.0,436.0,702.981
702991.0,358.0,32.0,386.0,422.0,702.991
703001.0,363.0,33.0,399.0,433.0,703.001
703011.0,373.0,32.0,414.0,445.0,703.011
703021.0,370.0,32.0,407.0,441.0,703.021
703031.0,371.0,32.0,411.0,438.0,703.031
703041.0,357.0,31.0,386.0,423.0,703.041
703051.0,364.0,32.0,399.0,434.0,703.051
703062.0,374.0,33.0,413.0,446.0,703.062
703072.0,369.0,32.0,402.0,437.0,703.072
703082.0,367.0,32.0,403.0,433.0,703.082
703092.0,360.0,32.0,394.0,428.0,703.092
703102.0,370.0,31.0,409.0,442.0,703.102
703112.0,375.0,32.0,417.0,447.0,703.112
703122.0,369.0,32.0,404.0,437.0,703.122
703132.0,367.0,32.0,403.0,432.0,703.132
703142.0,362.0,32.0,396.0,430.0,703.142
703152.0,366.0,32.0,404.0,436.0,703.152
703162.0,377.0,31.0,418.0,447.0,703.162
703172.0,368.0,32.0,404.0,434.0,703.172
703182.0,366.0,32.0,404.0,432.0,703.182
703192.0,358.0,33.0,393.0,425.0,703.192
703202.0,368.0,32.0,407.0,437.0,703.202
703212.0,377.0,34.0,420.0,447.0,703.212
703222.0,370.0,32.0,406.0,433.0,703.222
703232.0,370.0,32.0,409.0,435.0,703.232
703242.0,359.0,32.0,396.0,425.0,703.242
703252.0,369.0,33.0,405.0,436.0,703.252
703262.0,378.0,32.0,418.0,442.0,703.262
703272.0,367.0,32.0,404.0,429.0,703.272
703282.0,368.0,32.0,407.0,431.0,703.282
703292.0,359.0,31.0,397.0,423.0,703.292
703302.0,370.0,32.0,414.0,437.0,703.302
703312.0,379.0,33.0,423.0,445.0,703.312
703322.0,371.0,32.0,415.0,435.0,703.322
703332.0,369.0,32.0,413.0,433.0,703.332
703342.0,360.0,32.0,407.0,427.0,703.342
703352.0,372.0,31.0,423.0,440.0,703.352
703362.0,377.0,33.0,429.0,447.0,703.362
703372.0,371.0,31.0,421.0,437.0,703.372
703382.0,368.0,33.0,415.0,434.0,703.382
703392.0,362.0,32.0,408.0,429.0,703.392
703403.0,372.0,33.0,421.0,441.0,703.403
703413.0,380.0,32.0,429.0,446.0,703.413
703423.0,366.0,31.0,415.0,431.0,703.423
703433.0,365.0,32.0,412.0,430.0,703.433
703443.0,369.0,33.0,422.0,441.0,703.443
703453.0,372.0,32.0,427.0,443.0,703.453
703463.0,377.0,32.0,430.0,445.0,703.463
703473.0,365.0,32.0,419.0,430.0,703.473
703483.0,365.0,31.0,413.0,431.0,703.483
703493.0,364.0,32.0,416.0,432.0,703.493
703503.0,373.0,33.0,427.0,442.0,703.503
703513.0,378.0,33.0,429.0,441.0,703.513
703523.0,364.0,32.0,417.0,426.0,703.523
703533.0,367.0,31.0,417.0,430.0,703.533
703543.0,367.0,31.0,423.0,431.0,703.543
703553.0,374.0,32.0,433.0,439.0,703.553
703563.0,376.0,32.0,431.0,439.0,703.563
703574.0,363.0,32.0,423.0,426.0,703.574
703584.0,365.0,32.0,424.0,430.0,703.584
703594.0,374.0,32.0,439.0,442.0,703.594
703604.0,375.0,31.0,442.0,440.0,703.604
703614.0,371.0,33.0,432.0,436.0,703.614
703624.0,363.0,31.0,428.0,426.0,703.624
703634.0,365.0,32.0,428.0,431.0,703.634
703644.0,374.0,32.0,442.0,442.0,703.644
703654.0,373.0,32.0,442.0,437.0,703.654
703664.0,374.0,32.0,437.0,437.0,703.664
703674.0,363.0,31.0,431.0,424.0,703.674
703684.0,366.0,32.0,435.0,434.0,703.684
703694.0,375.0,33.0,448.0,446.0,703.694
703704.0,375.0,32.0,453.0,445.0,703.704
703714.0,374.0,32.0,446.0,441.0,703.714
703724.0,362.0,31.0,440.0,427.0,703.724
703734.0,369.0,31.0,445.0,439.0,703.734
703744.0,373.0,32.0,450.0,445.0,703.744
703754.0,377.0,32.0,457.0,446.0,703.754
703764.0,375.0,32.0,448.0,442.0,703.764
703774.0,363.0,32.0,442.0,427.0,703.774
703784.0,371.0,32.0,449.0,441.0,703.784
703794.0,376.0,32.0,459.0,446.0,703.794
703804.0,378.0,31.0,463.0,446.0,703.804
703814.0,375.0,32.0,452.0,442.0,703.814
703824.0,362.0,32.0,446.0,428.0,703.824
703834.0,368.0,32.0,447.0,435.0,703.834
703844.0,377.0,32.0,460.0,445.0,703.844
703854.0,378.0,32.0,464.0,445.0,703.854
703864.0,376.0,32.0,451.0,440.0,703.864
703874.0,366.0,32.0,451.0,430.0,703.874
703884.0,367.0,32.0,448.0,434.0,703.884
703894.0,376.0,33.0,462.0,447.0,703.894
703904.0,376.0,31.0,467.0,445.0,703.904
703915.0,373.0,32.0,453.0,440.0,703.915
703925.0,362.0,31.0,450.0,428.0,703.925
703935.0,371.0,32.0,459.0,442.0,703.935
703945.0,380.0,32.0,466.0,449.0,703.945
703955.0,371.0,32.0,462.0,439.0,703.955
703965.0,371.0,32.0,453.0,438.0,703.965
703975.0,360.0,32.0,451.0,428.0,703.975
703985.0,372.0,32.0,462.0,443.0,703.985
703995.0,380.0,31.0,468.0,450.0,703.995
704005.0,373.0,32.0,467.0,443.0,704.005
704015.0,370.0,31.0,454.0,438.0,704.015
704025.0,359.0,32.0,455.0,431.0,704.025
704035.0,370.0,32.0,466.0,445.0,704.035
704045.0,376.0,32.0,469.0,448.0,704.045
704055.0,372.0,31.0,470.0,442.0,704.055
704065.0,369.0,32.0,458.0,438.0,704.065
704075.0,361.0,32.0,459.0,433.0,704.075
704086.0,372.0,32.0,471.0,445.0,704.086
704096.0,380.0,32.0,472.0,450.0,704.096
704106.0,367.0,32.0,469.0,438.0,704.106
704116.0,366.0,31.0,460.0,436.0,704.116
704126.0,368.0,32.0,471.0,443.0,704.126
704136.0,373.0,32.0,478.0,447.0,704.136
704146.0,379.0,33.0,475.0,449.0,704.146
704156.0,367.0,32.0,473.0,436.0,704.156
704166.0,365.0,32.0,464.0,436.0,704.166
704176.0,364.0,32.0,470.0,436.0,704.176
704186.0,373.0,32.0,479.0,447.0,704.186
704196.0,380.0,33.0,479.0,449.0,704.196
704206.0,367.0,31.0,476.0,435.0,704.206
704216.0,368.0,32.0,467.0,437.0,704.216
704226.0,366.0,32.0,473.0,437.0,704.226
704236.0,374.0,32.0,481.0,446.0,704.236
704246.0,379.0,33.0,474.0,446.0,704.246
704256.0,370.0,32.0,477.0,439.0,704.256
704266.0,368.0,31.0,466.0,435.0,704.266
704276.0,366.0,33.0,471.0,438.0,704.276
704286.0,374.0,32.0,480.0,446.0,704.286
704296.0,377.0,32.0,469.0,445.0,704.296
704306.0,370.0,32.0,474.0,438.0,704.306
704316.0,367.0,33.0,461.0,436.0,704.316
704326.0,367.0,32.0,470.0,440.0,704.326
704336.0,375.0,32.0,479.0,448.0,704.336
704346.0,380.0,32.0,477.0,452.0,704.346
704356.0,369.0,32.0,476.0,440.0,704.356
704366.0,368.0,32.0,465.0,437.0,704.366
704376.0,370.0,32.0,475.0,444.0,704.376
704386.0,374.0,32.0,482.0,448.0,704.386
704396.0,381.0,33.0,480.0,452.0,704.396
704406.0,368.0,32.0,479.0,438.0,704.406
704416.0,367.0,32.0,468.0,436.0,704.416
704427.0,371.0,32.0,479.0,444.0,704.427
704437.0,376.0,31.0,488.0,448.0,704.437
704447.0,375.0,32.0,475.0,444.0,704.447
704457.0,363.0,32.0,476.0,431.0,704.457
704467.0,368.0,32.0,473.0,438.0,704.467
704477.0,372.0,32.0,481.0,445.0,704.477
704487.0,375.0,32.0,488.0,446.0,704.487
704497.0,374.0,32.0,476.0,440.0,704.497
704507.0,362.0,32.0,477.0,429.0,704.507
704517.0,366.0,32.0,471.0,434.0,704.517
704527.0,372.0,32.0,483.0,446.0,704.527
704537.0,375.0,32.0,490.0,448.0,704.537
704547.0,373.0,33.0,474.0,443.0,704.547
704557.0,366.0,32.0,480.0,436.0,704.557
704567.0,366.0,32.0,471.0,438.0,704.567
704577.0,374.0,33.0,485.0,450.0,704.577
704587.0,376.0,32.0,492.0,452.0,704.587
704598.0,373.0,33.0,478.0,447.0,704.598
704608.0,360.0,32.0,479.0,437.0,704.608
704618.0,369.0,32.0,482.0,445.0,704.618
704628.0,379.0,32.0,487.0,453.0,704.628
704638.0,372.0,32.0,487.0,447.0,704.638
704648.0,372.0,32.0,475.0,445.0,704.648
704658.0,359.0,32.0,477.0,438.0,704.658
704668.0,370.0,32.0,485.0,451.0,704.668
704678.0,379.0,34.0,489.0,459.0,704.678
704688.0,375.0,32.0,495.0,455.0,704.688
704698.0,372.0,32.0,477.0,447.0,704.698
704708.0,363.0,32.0,482.0,441.0,704.708
704718.0,373.0,33.0,489.0,455.0,704.718
704728.0,378.0,32.0,491.0,458.0,704.728
704738.0,376.0,33.0,493.0,456.0,704.738
704748.0,372.0,32.0,477.0,448.0,704.748
704758.0,363.0,32.0,479.0,442.0,704.758
704768.0,369.0,32.0,480.0,448.0,704.768
704778.0,378.0,33.0,491.0,460.0,704.778
704788.0,375.0,32.0,494.0,455.0,704.788
704798.0,372.0,32.0,478.0,449.0,704.798
704808.0,364.0,33.0,482.0,445.0,704.808
704818.0,370.0,32.0,484.0,451.0,704.818
704828.0,380.0,33.0,493.0,461.0,704.828
704838.0,376.0,31.0,495.0,454.0,704.838
704848.0,371.0,33.0,479.0,448.0,704.848
704858.0,362.0,32.0,482.0,440.0,704.858
704868.0,370.0,33.0,485.0,452.0,704.868
704878.0,380.0,32.0,493.0,461.0,704.878
704888.0,372.0,32.0,494.0,455.0,704.888
704898.0,373.0,32.0,480.0,450.0,704.898
704908.0,360.0,31.0,480.0,441.0,704.908
704918.0,372.0,32.0,488.0,456.0,704.918
704928.0,380.0,32.0,492.0,461.0,704.928
704939.0,371.0,32.0,492.0,452.0,704.939
704949.0,369.0,32.0,477.0,446.0,704.949
704959.0,366.0,32.0,485.0,448.0,704.959
704969.0,375.0,32.0,493.0,457.0,704.969
704979.0,380.0,32.0,486.0,456.0,704.979
704989.0,371.0,32.0,491.0,454.0,704.989
704999.0,369.0,32.0,476.0,450.0,704.999
705009.0,367.0,32.0,485.0,452.0,705.009
705019.0,375.0,32.0,494.0,461.0,705.019
705029.0,382.0,32.0,491.0,462.0,705.029
705039.0,371.0,32.0,490.0,453.0,705.039
705049.0,369.0,32.0,477.0,448.0,705.049
705059.0,369.0,33.0,485.0,454.0,705.059
705069.0,375.0,32.0,492.0,459.0,705.069
705079.0,383.0,31.0,492.0,464.0,705.079
705089.0,372.0,32.0,489.0,452.0,705.089
705099.0,369.0,32.0,475.0,447.0,705.099
705110.0,371.0,32.0,485.0,453.0,705.11
705120.0,376.0,32.0,494.0,458.0,705.12
705130.0,377.0,32.0,480.0,451.0,705.13
705140.0,365.0,31.0,481.0,441.0,705.14
705150.0,367.0,32.0,476.0,445.0,705.15
705160.0,371.0,32.0,485.0,451.0,705.16
705170.0,375.0,32.0,493.0,455.0,705.17
705180.0,375.0,32.0,479.0,449.0,705.18
705190.0,362.0,32.0,482.0,440.0,705.19
705200.0,367.0,31.0,476.0,443.0,705.2
705210.0,372.0,32.0,488.0,454.0,705.21
705220.0,375.0,31.0,495.0,457.0,705.22
705230.0,374.0,32.0,479.0,451.0,705.23
705240.0,366.0,32.0,485.0,444.0,705.24
705250.0,365.0,33.0,471.0,442.0,705.25
705260.0,371.0,32.0,485.0,454.0,705.26
705270.0,375.0,32.0,495.0,457.0,705.27
705280.0,378.0,32.0,482.0,453.0,705.28
705290.0,365.0,31.0,482.0,443.0,705.29
705300.0,365.0,32.0,472.0,442.0,705.3
705310.0,373.0,32.0,486.0,453.0,705.31
705320.0,375.0,31.0,494.0,453.0,705.32
705330.0,377.0,31.0,481.0,451.0,705.33
705340.0,363.0,32.0,482.0,440.0,705.34
705350.0,365.0,31.0,474.0,443.0,705.35
705360.0,374.0,32.0,487.0,454.0,705.36
705370.0,374.0,31.0,492.0,454.0,705.37
705380.0,376.0,32.0,480.0,449.0,705.38
705390.0,363.0,30.0,480.0,438.0,705.39
705400.0,365.0,31.0,473.0,442.0,705.4
705410.0,369.0,31.0,482.0,447.0,705.41
705420.0,374.0,32.0,489.0,452.0,705.42
705430.0,375.0,32.0,477.0,446.0,705.43
705440.0,362.0,31.0,476.0,436.0,705.44
705451.0,366.0,31.0,473.0,442.0,705.451
705461.0,376.0,31.0,485.0,455.0,705.461
705471.0,374.0,31.0,489.0,449.0,705.471
705481.0,370.0,32.0,473.0,445.0,705.481
705491.0,360.0,31.0,473.0,436.0,705.491
705501.0,367.0,31.0,472.0,443.0,705.501
705511.0,376.0,32.0,483.0,454.0,705.511
705521.0,373.0,31.0,485.0,448.0,705.521
705531.0,369.0,32.0,468.0,442.0,705.531
705541.0,361.0,31.0,470.0,432.0,705.541
705551.0,367.0,31.0,473.0,445.0,705.551
705561.0,378.0,32.0,483.0,454.0,705.561
705571.0,372.0,31.0,482.0,448.0,705.571
705581.0,373.0,32.0,471.0,446.0,705.581
705591.0,360.0,31.0,471.0,434.0,705.591
705601.0,368.0,31.0,475.0,446.0,705.601
705611.0,378.0,31.0,484.0,456.0,705.611
705622.0,372.0,31.0,486.0,447.0,705.622
705632.0,369.0,32.0,473.0,444.0,705.632
705642.0,364.0,32.0,477.0,442.0,705.642
705652.0,373.0,31.0,484.0,450.0,705.652
705662.0,379.0,32.0,479.0,451.0,705.662
705672.0,371.0,32.0,483.0,447.0,705.672
705682.0,368.0,32.0,468.0,440.0,705.682
705692.0,365.0,31.0,472.0,439.0,705.692
705702.0,373.0,31.0,482.0,447.0,705.702
705712.0,379.0,32.0,483.0,452.0,705.712
705722.0,369.0,31.0,481.0,441.0,705.722
705732.0,367.0,31.0,465.0,437.0,705.732
705742.0,364.0,33.0,471.0,439.0,705.742
705752.0,369.0,32.0,476.0,444.0,705.752
705762.0,378.0,33.0,479.0,453.0,705.762
705772.0,367.0,32.0,477.0,440.0,705.772
705782.0,366.0,31.0,464.0,436.0,705.782
705792.0,361.0,31.0,468.0,432.0,705.792
705802.0,371.0,32.0,477.0,445.0,705.802
705812.0,379.0,32.0,480.0,450.0,705.812
705822.0,368.0,31.0,478.0,437.0,705.822
705832.0,366.0,32.0,467.0,435.0,705.832
705842.0,362.0,31.0,469.0,432.0,705.842
705852.0,372.0,32.0,479.0,446.0,705.852
705862.0,379.0,32.0,478.0,451.0,705.862
705872.0,367.0,32.0,475.0,436.0,705.872
705882.0,369.0,32.0,465.0,437.0,705.882
705892.0,362.0,32.0,468.0,433.0,705.892
705902.0,373.0,31.0,479.0,444.0,705.902
705912.0,379.0,32.0,475.0,448.0,705.912
705922.0,370.0,31.0,478.0,440.0,705.922
705932.0,368.0,32.0,463.0,437.0,705.932
705942.0,365.0,32.0,468.0,435.0,705.942
705952.0,374.0,33.0,478.0,448.0,705.952
705963.0,380.0,32.0,476.0,449.0,705.963
705973.0,367.0,31.0,472.0,436.0,705.973
705983.0,367.0,32.0,462.0,435.0,705.983
705993.0,372.0,33.0,476.0,447.0,705.993
706003.0,375.0,31.0,482.0,448.0,706.003
706013.0,378.0,33.0,472.0,448.0,706.013
706023.0,366.0,32.0,469.0,434.0,706.023
706033.0,366.0,32.0,461.0,436.0,706.033
706043.0,375.0,32.0,477.0,447.0,706.043
706053.0,376.0,32.0,480.0,448.0,706.053
706063.0,378.0,32.0,472.0,446.0,706.063
706073.0,366.0,31.0,472.0,433.0,706.073
706083.0,366.0,32.0,465.0,436.0,706.083
706093.0,370.0,32.0,474.0,440.0,706.093
706103.0,375.0,32.0,482.0,446.0,706.103
706113.0,378.0,32.0,471.0,442.0,706.113
706123.0,366.0,32.0,471.0,430.0,706.123
706134.0,367.0,32.0,465.0,435.0,706.134
706144.0,377.0,32.0,478.0,446.0,706.144
706154.0,376.0,32.0,482.0,444.0,706.154
706164.0,372.0,32.0,467.0,439.0,706.164
706174.0,361.0,32.0,463.0,428.0,706.174
706184.0,366.0,33.0,463.0,437.0,706.184
706194.0,377.0,32.0,477.0,447.0,706.194
706204.0,374.0,32.0,479.0,443.0,706.204
706214.0,371.0,32.0,466.0,437.0,706.214
706224.0,363.0,31.0,466.0,427.0,706.224
706234.0,367.0,32.0,467.0,437.0,706.234
706244.0,377.0,32.0,479.0,449.0,706.244
706254.0,374.0,33.0,479.0,443.0,706.254
706264.0,374.0,32.0,468.0,442.0,706.264
706274.0,361.0,33.0,465.0,429.0,706.274
706284.0,367.0,31.0,465.0,436.0,706.284
706294.0,377.0,32.0,474.0,448.0,706.294
706304.0,375.0,31.0,478.0,445.0,706.304
706314.0,372.0,33.0,462.0,440.0,706.314
706324.0,360.0,32.0,461.0,426.0,706.324
706334.0,368.0,32.0,466.0,439.0,706.334
706344.0,378.0,32.0,476.0,449.0,706.344
706354.0,374.0,31.0,479.0,445.0,706.354
