time (ms),signal 0,signal 1,signal 2,signal 3,time (sec)
642974.0,230.0,32.0,241.0,260.0,642.974
642984.0,231.0,32.0,235.0,259.0,642.984
642994.0,233.0,32.0,255.0,259.0,642.994
643004.0,225.0,32.0,232.0,251.0,643.004
643014.0,226.0,31.0,248.0,252.0,643.014
643024.0,230.0,31.0,254.0,260.0,643.024
643034.0,231.0,31.0,248.0,259.0,643.034
643044.0,232.0,32.0,268.0,258.0,643.044
643054.0,224.0,32.0,244.0,251.0,643.054
643064.0,226.0,33.0,260.0,256.0,643.064
643074.0,227.0,32.0,261.0,258.0,643.074
643084.0,231.0,31.0,262.0,261.0,643.084
643094.0,233.0,32.0,284.0,259.0,643.094
643104.0,225.0,32.0,257.0,253.0,643.104
643115.0,226.0,32.0,276.0,256.0,643.115
643125.0,233.0,32.0,284.0,262.0,643.125
643135.0,231.0,32.0,270.0,259.0,643.135
643145.0,231.0,31.0,294.0,257.0,643.145
643155.0,223.0,32.0,272.0,251.0,643.155
643165.0,227.0,32.0,288.0,256.0,643.165
643175.0,234.0,32.0,296.0,262.0,643.175
643185.0,231.0,32.0,281.0,258.0,643.185
643195.0,230.0,32.0,305.0,257.0,643.195
643205.0,225.0,32.0,282.0,250.0,643.205
643215.0,228.0,32.0,300.0,257.0,643.215
643225.0,234.0,31.0,308.0,263.0,643.225
643235.0,230.0,31.0,292.0,257.0,643.235
643245.0,231.0,32.0,318.0,258.0,643.245
643255.0,223.0,32.0,291.0,250.0,643.255
643265.0,228.0,32.0,307.0,257.0,643.265
643275.0,234.0,31.0,313.0,263.0,643.275
643286.0,231.0,31.0,296.0,257.0,643.286
643296.0,230.0,32.0,320.0,257.0,643.296
643306.0,225.0,31.0,300.0,253.0,643.306
643316.0,232.0,32.0,309.0,262.0,643.316
643326.0,235.0,32.0,321.0,263.0,643.326
643336.0,230.0,31.0,301.0,259.0,643.336
643346.0,230.0,32.0,323.0,259.0,643.346
643356.0,227.0,31.0,306.0,257.0,643.356
643366.0,233.0,32.0,313.0,264.0,643.366
643376.0,237.0,32.0,320.0,267.0,643.376
643386.0,231.0,32.0,306.0,261.0,643.386
643396.0,232.0,31.0,327.0,261.0,643.396
643406.0,229.0,32.0,309.0,260.0,643.406
643416.0,233.0,31.0,319.0,264.0,643.416
643426.0,238.0,33.0,321.0,268.0,643.426
643436.0,232.0,31.0,306.0,260.0,643.436
643446.0,232.0,32.0,325.0,260.0,643.446
643456.0,227.0,31.0,305.0,254.0,643.456
643466.0,232.0,31.0,314.0,264.0,643.466
643476.0,237.0,32.0,314.0,266.0,643.476
643486.0,231.0,31.0,302.0,259.0,643.486
643496.0,232.0,32.0,321.0,258.0,643.496
643506.0,226.0,31.0,301.0,255.0,643.506
643516.0,235.0,32.0,312.0,266.0,643.516
643526.0,238.0,31.0,310.0,267.0,643.526
643536.0,230.0,31.0,299.0,258.0,643.536
643546.0,234.0,31.0,313.0,261.0,643.546
643556.0,227.0,32.0,296.0,257.0,643.556
643566.0,235.0,32.0,306.0,267.0,643.566
643576.0,239.0,32.0,302.0,268.0,643.576
643586.0,234.0,31.0,292.0,263.0,643.586
643596.0,233.0,31.0,302.0,263.0,643.596
643606.0,230.0,31.0,286.0,260.0,643.606
643616.0,238.0,31.0,292.0,268.0,643.616
643627.0,240.0,32.0,288.0,267.0,643.627
643637.0,232.0,32.0,275.0,259.0,643.637
643647.0,234.0,31.0,288.0,261.0,643.647
643657.0,236.0,31.0,272.0,267.0,643.657
643667.0,238.0,31.0,270.0,268.0,643.667
643677.0,240.0,32.0,270.0,268.0,643.677
643687.0,232.0,31.0,258.0,260.0,643.687
643697.0,233.0,32.0,267.0,261.0,643.697
643707.0,237.0,32.0,252.0,268.0,643.707
643717.0,239.0,31.0,253.0,269.0,643.717
643727.0,239.0,32.0,249.0,268.0,643.727
643737.0,232.0,31.0,237.0,260.0,643.737
643747.0,232.0,32.0,244.0,262.0,643.747
643757.0,232.0,31.0,231.0,263.0,643.757
643767.0,238.0,32.0,231.0,268.0,643.767
643777.0,239.0,31.0,227.0,265.0,643.777
643787.0,231.0,31.0,217.0,257.0,643.787
643798.0,232.0,31.0,223.0,261.0,643.798
643808.0,238.0,32.0,210.0,268.0,643.808
643818.0,236.0,32.0,209.0,266.0,643.818
643828.0,236.0,32.0,208.0,264.0,643.828
643838.0,229.0,31.0,200.0,256.0,643.838
643848.0,232.0,31.0,202.0,262.0,643.848
643858.0,239.0,32.0,195.0,270.0,643.858
643868.0,236.0,32.0,190.0,267.0,643.868
643878.0,235.0,32.0,188.0,264.0,643.878
643888.0,228.0,32.0,179.0,258.0,643.888
643898.0,233.0,32.0,182.0,265.0,643.898
643908.0,238.0,32.0,173.0,271.0,643.908
643918.0,235.0,32.0,172.0,265.0,643.918
643928.0,237.0,32.0,168.0,265.0,643.928
643938.0,227.0,32.0,161.0,256.0,643.938
643948.0,232.0,31.0,161.0,263.0,643.948
643958.0,238.0,32.0,154.0,269.0,643.958
643968.0,236.0,31.0,153.0,267.0,643.968
643978.0,236.0,31.0,148.0,265.0,643.978
643988.0,229.0,31.0,143.0,258.0,643.988
643998.0,234.0,31.0,141.0,265.0,643.998
644008.0,240.0,32.0,136.0,271.0,644.008
644018.0,237.0,32.0,135.0,269.0,644.018
644028.0,237.0,32.0,132.0,266.0,644.028
644038.0,228.0,31.0,127.0,257.0,644.038
644048.0,234.0,31.0,125.0,266.0,644.048
644058.0,238.0,33.0,121.0,271.0,644.058
644068.0,238.0,32.0,118.0,268.0,644.068
644078.0,236.0,32.0,113.0,266.0,644.078
644088.0,229.0,32.0,110.0,258.0,644.088
644098.0,233.0,31.0,108.0,263.0,644.098
644108.0,239.0,32.0,104.0,269.0,644.108
644118.0,238.0,31.0,101.0,267.0,644.118
644128.0,236.0,32.0,98.0,265.0,644.128
644139.0,228.0,32.0,94.0,257.0,644.139
644149.0,236.0,32.0,92.0,267.0,644.149
644159.0,241.0,31.0,88.0,271.0,644.159
644169.0,234.0,32.0,84.0,264.0,644.169
644179.0,234.0,32.0,80.0,264.0,644.179
644189.0,228.0,32.0,78.0,257.0,644.189
644199.0,238.0,32.0,75.0,268.0,644.199
644209.0,241.0,32.0,72.0,270.0,644.209
644219.0,235.0,31.0,70.0,264.0,644.219
644229.0,235.0,32.0,65.0,265.0,644.229
644239.0,229.0,32.0,63.0,259.0,644.239
644249.0,238.0,32.0,61.0,269.0,644.249
644259.0,241.0,32.0,58.0,270.0,644.259
644269.0,236.0,32.0,55.0,265.0,644.269
644279.0,236.0,32.0,53.0,264.0,644.279
644289.0,230.0,31.0,50.0,260.0,644.289
644299.0,238.0,32.0,47.0,269.0,644.299
644310.0,241.0,32.0,44.0,270.0,644.31
644320.0,234.0,31.0,42.0,261.0,644.32
644330.0,234.0,32.0,39.0,263.0,644.33
644340.0,236.0,31.0,37.0,267.0,644.34
644350.0,240.0,31.0,34.0,270.0,644.35
644360.0,242.0,32.0,32.0,271.0,644.36
644370.0,233.0,31.0,30.0,263.0,644.37
644380.0,234.0,32.0,27.0,264.0,644.38
644390.0,238.0,32.0,26.0,268.0,644.39
644400.0,240.0,31.0,24.0,271.0,644.4
644410.0,242.0,31.0,22.0,269.0,644.41
644420.0,232.0,31.0,20.0,261.0,644.42
644430.0,233.0,31.0,19.0,263.0,644.43
644440.0,231.0,31.0,16.0,264.0,644.44
644450.0,238.0,30.0,16.0,268.0,644.45
644460.0,240.0,31.0,13.0,269.0,644.46
644470.0,231.0,31.0,14.0,259.0,644.47
644480.0,234.0,31.0,12.0,262.0,644.48
644490.0,233.0,31.0,11.0,264.0,644.49
644500.0,238.0,32.0,10.0,270.0,644.5
644510.0,239.0,31.0,10.0,267.0,644.51
644520.0,229.0,31.0,8.0,258.0,644.52
644530.0,233.0,32.0,8.0,263.0,644.53
644540.0,233.0,31.0,8.0,264.0,644.54
644550.0,236.0,31.0,7.0,269.0,644.55
644560.0,237.0,31.0,7.0,266.0,644.56
644570.0,231.0,31.0,6.0,261.0,644.57
644580.0,232.0,31.0,6.0,260.0,644.58
644590.0,232.0,31.0,5.0,264.0,644.59
644600.0,237.0,31.0,6.0,267.0,644.6
644610.0,238.0,31.0,4.0,267.0,644.61
644620.0,230.0,31.0,5.0,259.0,644.62
644630.0,231.0,32.0,5.0,263.0,644.63
644640.0,234.0,30.0,5.0,266.0,644.64
644651.0,236.0,31.0,5.0,267.0,644.651
644661.0,236.0,31.0,6.0,266.0,644.661
644671.0,228.0,31.0,4.0,257.0,644.671
644681.0,231.0,31.0,4.0,264.0,644.681
644691.0,237.0,32.0,5.0,270.0,644.691
644701.0,234.0,31.0,4.0,266.0,644.701
644711.0,235.0,31.0,4.0,263.0,644.711
644721.0,226.0,31.0,5.0,254.0,644.721
644731.0,232.0,31.0,4.0,263.0,644.731
644741.0,235.0,32.0,4.0,268.0,644.741
644751.0,235.0,31.0,4.0,266.0,644.751
644761.0,235.0,31.0,3.0,264.0,644.761
644771.0,227.0,30.0,4.0,256.0,644.771
644781.0,231.0,31.0,4.0,260.0,644.781
644791.0,237.0,31.0,5.0,267.0,644.791
644801.0,234.0,31.0,4.0,265.0,644.801
644811.0,234.0,31.0,4.0,263.0,644.811
644822.0,226.0,32.0,3.0,255.0,644.822
644832.0,232.0,31.0,4.0,264.0,644.832
644842.0,237.0,31.0,3.0,268.0,644.842
644852.0,233.0,31.0,5.0,262.0,644.852
644862.0,232.0,31.0,4.0,261.0,644.862
644872.0,226.0,32.0,4.0,256.0,644.872
644882.0,233.0,31.0,3.0,265.0,644.882
644892.0,238.0,31.0,3.0,266.0,644.892
644902.0,232.0,30.0,4.0,260.0,644.902
644912.0,232.0,31.0,5.0,262.0,644.912
644922.0,225.0,31.0,4.0,257.0,644.922
644932.0,232.0,31.0,4.0,267.0,644.932
644942.0,237.0,31.0,4.0,270.0,644.942
644952.0,233.0,32.0,3.0,266.0,644.952
644962.0,231.0,31.0,4.0,263.0,644.962
644972.0,224.0,31.0,5.0,258.0,644.972
644982.0,233.0,31.0,4.0,264.0,644.982
644992.0,236.0,31.0,4.0,268.0,644.992
645002.0,234.0,30.0,4.0,263.0,645.002
645012.0,233.0,32.0,3.0,263.0,645.012
645022.0,227.0,30.0,4.0,260.0,645.022
645032.0,231.0,31.0,4.0,268.0,645.032
645042.0,236.0,31.0,5.0,269.0,645.042
645052.0,229.0,31.0,4.0,263.0,645.052
645062.0,230.0,31.0,3.0,261.0,645.062
645072.0,225.0,32.0,5.0,260.0,645.072
645082.0,229.0,31.0,5.0,264.0,645.082
645092.0,235.0,31.0,7.0,270.0,645.092
645102.0,230.0,31.0,10.0,260.0,645.102
645112.0,233.0,31.0,8.0,261.0,645.112
645122.0,226.0,31.0,10.0,255.0,645.122
645132.0,234.0,31.0,10.0,263.0,645.132
645142.0,243.0,32.0,14.0,267.0,645.142
645152.0,235.0,30.0,18.0,257.0,645.152
645163.0,236.0,32.0,17.0,258.0,645.163
645173.0,233.0,31.0,20.0,257.0,645.173
645183.0,236.0,31.0,18.0,262.0,645.183
645193.0,240.0,31.0,22.0,261.0,645.193
645203.0,230.0,32.0,27.0,257.0,645.203
645213.0,233.0,32.0,25.0,262.0,645.213
645223.0,230.0,32.0,29.0,262.0,645.223
645233.0,237.0,31.0,35.0,270.0,645.233
645243.0,238.0,32.0,32.0,267.0,645.243
645253.0,231.0,31.0,37.0,259.0,645.253
645263.0,235.0,32.0,33.0,262.0,645.263
645273.0,237.0,32.0,40.0,263.0,645.273
645283.0,243.0,32.0,40.0,266.0,645.283
645293.0,243.0,32.0,41.0,262.0,645.293
645303.0,232.0,31.0,51.0,254.0,645.303
645313.0,237.0,32.0,46.0,256.0,645.313
645323.0,238.0,32.0,56.0,266.0,645.323
645334.0,238.0,32.0,54.0,268.0,645.334
645344.0,239.0,32.0,50.0,266.0,645.344
645354.0,228.0,32.0,58.0,258.0,645.354
645364.0,229.0,31.0,50.0,263.0,645.364
645374.0,234.0,32.0,53.0,272.0,645.374
645384.0,234.0,32.0,57.0,272.0,645.384
645394.0,235.0,33.0,51.0,270.0,645.394
645404.0,227.0,32.0,60.0,262.0,645.404
645414.0,234.0,32.0,53.0,272.0,645.414
645424.0,242.0,32.0,57.0,279.0,645.424
645434.0,244.0,32.0,55.0,279.0,645.434
645444.0,246.0,32.0,51.0,274.0,645.444
645454.0,233.0,31.0,55.0,260.0,645.454
645464.0,237.0,32.0,49.0,261.0,645.464
645474.0,241.0,32.0,53.0,269.0,645.474
645484.0,236.0,32.0,55.0,261.0,645.484
645494.0,235.0,32.0,48.0,262.0,645.494
645504.0,228.0,31.0,53.0,256.0,645.504
645514.0,232.0,32.0,46.0,257.0,645.514
645524.0,232.0,32.0,49.0,264.0,645.524
645534.0,229.0,31.0,48.0,265.0,645.534
645544.0,229.0,32.0,45.0,268.0,645.544
645554.0,225.0,31.0,49.0,262.0,645.554
645564.0,232.0,32.0,44.0,267.0,645.564
645574.0,238.0,32.0,48.0,275.0,645.574
645584.0,236.0,33.0,49.0,271.0,645.584
645594.0,245.0,32.0,46.0,274.0,645.594
645604.0,236.0,32.0,51.0,268.0,645.604
645614.0,240.0,32.0,46.0,272.0,645.614
645624.0,250.0,32.0,50.0,285.0,645.624
645634.0,243.0,32.0,52.0,278.0,645.634
645644.0,247.0,33.0,47.0,280.0,645.644
645654.0,240.0,32.0,53.0,269.0,645.654
645664.0,245.0,32.0,47.0,280.0,645.664
645675.0,250.0,32.0,53.0,283.0,645.675
645685.0,242.0,31.0,56.0,270.0,645.685
645695.0,242.0,32.0,51.0,271.0,645.695
645705.0,231.0,32.0,56.0,266.0,645.705
645715.0,239.0,32.0,56.0,274.0,645.715
645725.0,245.0,32.0,58.0,279.0,645.725
645735.0,242.0,32.0,69.0,272.0,645.735
645745.0,241.0,32.0,62.0,266.0,645.745
645755.0,230.0,32.0,63.0,258.0,645.755
645765.0,236.0,31.0,60.0,262.0,645.765
645775.0,244.0,32.0,61.0,269.0,645.775
645785.0,238.0,32.0,72.0,262.0,645.785
645795.0,240.0,32.0,65.0,263.0,645.795
645805.0,229.0,31.0,70.0,255.0,645.805
645815.0,238.0,32.0,64.0,269.0,645.815
645825.0,247.0,32.0,69.0,279.0,645.825
645835.0,238.0,33.0,76.0,272.0,645.835
645846.0,244.0,32.0,70.0,272.0,645.846
645856.0,236.0,32.0,77.0,270.0,645.856
645866.0,246.0,32.0,79.0,275.0,645.866
645876.0,246.0,32.0,76.0,272.0,645.876
645886.0,233.0,32.0,84.0,258.0,645.886
645896.0,238.0,33.0,79.0,265.0,645.896
645906.0,239.0,32.0,90.0,270.0,645.906
645916.0,242.0,32.0,89.0,267.0,645.916
645926.0,252.0,33.0,87.0,267.0,645.926
645936.0,241.0,32.0,95.0,261.0,645.936
645946.0,240.0,33.0,89.0,267.0,645.946
645956.0,242.0,32.0,102.0,276.0,645.956
645966.0,246.0,33.0,107.0,279.0,645.966
645976.0,251.0,33.0,101.0,282.0,645.976
645986.0,242.0,32.0,105.0,268.0,645.986
645996.0,245.0,32.0,96.0,269.0,645.996
646006.0,242.0,33.0,104.0,273.0,646.006
646016.0,247.0,32.0,109.0,275.0,646.016
646026.0,250.0,33.0,104.0,274.0,646.026
646036.0,241.0,32.0,117.0,265.0,646.036
646046.0,243.0,33.0,107.0,268.0,646.046
646056.0,243.0,32.0,116.0,270.0,646.056
646066.0,246.0,32.0,124.0,273.0,646.066
646076.0,255.0,33.0,120.0,274.0,646.076
646086.0,247.0,33.0,130.0,266.0,646.086
646096.0,251.0,33.0,122.0,271.0,646.096
646106.0,246.0,32.0,130.0,277.0,646.106
646116.0,253.0,32.0,132.0,282.0,646.116
646126.0,255.0,33.0,129.0,281.0,646.126
646136.0,244.0,32.0,136.0,274.0,646.136
646146.0,247.0,33.0,128.0,281.0,646.146
646156.0,240.0,32.0,136.0,276.0,646.156
646166.0,248.0,32.0,142.0,279.0,646.166
646176.0,252.0,33.0,134.0,278.0,646.176
646187.0,245.0,31.0,142.0,265.0,646.187
646197.0,246.0,32.0,132.0,266.0,646.197
646207.0,252.0,32.0,139.0,273.0,646.207
646217.0,252.0,32.0,153.0,272.0,646.217
646227.0,255.0,32.0,145.0,277.0,646.227
646237.0,244.0,32.0,151.0,264.0,646.237
646247.0,243.0,32.0,142.0,265.0,646.247
646257.0,253.0,32.0,151.0,275.0,646.257
646267.0,248.0,32.0,159.0,265.0,646.267
646277.0,249.0,33.0,152.0,270.0,646.277
646287.0,240.0,32.0,159.0,257.0,646.287
646297.0,242.0,32.0,149.0,258.0,646.297
646307.0,243.0,32.0,154.0,258.0,646.307
646317.0,243.0,31.0,163.0,257.0,646.317
646327.0,253.0,32.0,159.0,263.0,646.327
646337.0,241.0,32.0,163.0,252.0,646.337
646347.0,241.0,32.0,157.0,257.0,646.347
646358.0,246.0,32.0,163.0,260.0,646.358
646368.0,241.0,32.0,170.0,251.0,646.368
646378.0,240.0,31.0,159.0,254.0,646.378
646388.0,233.0,32.0,169.0,250.0,646.388
646398.0,244.0,32.0,174.0,261.0,646.398
646408.0,249.0,33.0,173.0,268.0,646.408
646418.0,245.0,32.0,184.0,260.0,646.418
646428.0,248.0,33.0,174.0,266.0,646.428
646438.0,242.0,32.0,185.0,258.0,646.438
646448.0,245.0,32.0,183.0,265.0,646.448
646458.0,255.0,32.0,185.0,271.0,646.458
646468.0,248.0,31.0,193.0,261.0,646.468
646478.0,247.0,33.0,184.0,265.0,646.478
646488.0,239.0,32.0,193.0,260.0,646.488
646498.0,251.0,32.0,197.0,277.0,646.498
646508.0,257.0,32.0,196.0,286.0,646.508
646518.0,248.0,32.0,203.0,270.0,646.518
646528.0,248.0,31.0,194.0,268.0,646.528
646538.0,237.0,32.0,200.0,256.0,646.538
646548.0,246.0,32.0,200.0,265.0,646.548
646558.0,253.0,32.0,197.0,271.0,646.558
646568.0,244.0,32.0,203.0,260.0,646.568
646578.0,248.0,32.0,197.0,265.0,646.578
646588.0,239.0,31.0,205.0,257.0,646.588
646598.0,247.0,32.0,208.0,268.0,646.598
646608.0,250.0,32.0,203.0,273.0,646.608
646618.0,248.0,32.0,212.0,268.0,646.618
646628.0,258.0,32.0,203.0,266.0,646.628
646638.0,247.0,32.0,212.0,261.0,646.638
646648.0,258.0,32.0,218.0,276.0,646.648
646658.0,262.0,31.0,212.0,280.0,646.658
646668.0,258.0,31.0,216.0,270.0,646.668
646678.0,259.0,33.0,208.0,275.0,646.678
646688.0,252.0,32.0,213.0,268.0,646.688
646699.0,259.0,32.0,217.0,275.0,646.699
646709.0,261.0,32.0,212.0,278.0,646.709
646719.0,252.0,31.0,211.0,266.0,646.719
646729.0,254.0,32.0,204.0,272.0,646.729
646739.0,252.0,32.0,202.0,277.0,646.739
646749.0,254.0,32.0,210.0,281.0,646.749
646759.0,257.0,31.0,203.0,281.0,646.759
646769.0,248.0,31.0,200.0,268.0,646.769
646779.0,250.0,32.0,196.0,273.0,646.779
646789.0,243.0,32.0,191.0,267.0,646.789
646799.0,253.0,31.0,198.0,273.0,646.799
646809.0,252.0,31.0,190.0,272.0,646.809
646819.0,244.0,31.0,188.0,258.0,646.819
646829.0,247.0,31.0,186.0,262.0,646.829
646839.0,242.0,31.0,182.0,260.0,646.839
646849.0,250.0,31.0,194.0,271.0,646.849
646859.0,252.0,32.0,187.0,268.0,646.859
646870.0,242.0,31.0,181.0,258.0,646.87
646880.0,245.0,32.0,179.0,263.0,646.88
646890.0,250.0,31.0,178.0,273.0,646.89
646900.0,250.0,31.0,186.0,272.0,646.9
646910.0,251.0,31.0,182.0,272.0,646.91
646920.0,239.0,31.0,175.0,261.0,646.92
646930.0,242.0,32.0,175.0,258.0,646.93
646940.0,247.0,32.0,169.0,264.0,646.94
646950.0,249.0,31.0,176.0,265.0,646.95
646960.0,253.0,32.0,171.0,267.0,646.96
646970.0,243.0,31.0,169.0,258.0,646.97
646980.0,247.0,32.0,172.0,263.0,646.98
646990.0,253.0,32.0,165.0,275.0,646.99
647000.0,251.0,32.0,167.0,272.0,647.0
647010.0,255.0,31.0,161.0,279.0,647.01
647020.0,245.0,31.0,151.0,267.0,647.02
647030.0,251.0,31.0,156.0,273.0,647.03
647040.0,250.0,32.0,146.0,277.0,647.04
647050.0,255.0,31.0,147.0,280.0,647.05
647060.0,255.0,31.0,143.0,282.0,647.06
647070.0,245.0,31.0,138.0,268.0,647.07
647080.0,249.0,31.0,142.0,275.0,647.08
647090.0,251.0,31.0,133.0,280.0,647.09
647100.0,252.0,31.0,136.0,277.0,647.1
647110.0,252.0,31.0,137.0,278.0,647.11
647120.0,244.0,31.0,138.0,265.0,647.12
647130.0,249.0,31.0,139.0,270.0,647.13
647140.0,252.0,31.0,139.0,279.0,647.14
647150.0,252.0,31.0,138.0,277.0,647.15
647160.0,248.0,32.0,137.0,273.0,647.16
647170.0,240.0,32.0,136.0,262.0,647.17
647180.0,242.0,32.0,133.0,265.0,647.18
647190.0,246.0,31.0,130.0,270.0,647.19
647200.0,247.0,31.0,128.0,267.0,647.2
647211.0,245.0,31.0,124.0,267.0,647.211
647221.0,240.0,31.0,121.0,263.0,647.221
647231.0,246.0,33.0,116.0,274.0,647.231
647241.0,252.0,32.0,112.0,278.0,647.241
647251.0,247.0,31.0,108.0,273.0,647.251
647261.0,249.0,32.0,106.0,275.0,647.261
647271.0,241.0,31.0,101.0,263.0,647.271
647281.0,248.0,31.0,97.0,273.0,647.281
647291.0,253.0,32.0,93.0,279.0,647.291
647301.0,249.0,31.0,89.0,274.0,647.301
647311.0,247.0,31.0,85.0,271.0,647.311
647321.0,239.0,31.0,82.0,265.0,647.321
647331.0,247.0,31.0,78.0,277.0,647.331
647341.0,250.0,31.0,75.0,278.0,647.341
647351.0,246.0,31.0,71.0,273.0,647.351
647361.0,245.0,32.0,67.0,271.0,647.361
647371.0,239.0,31.0,64.0,266.0,647.371
647382.0,247.0,31.0,60.0,277.0,647.382
647392.0,252.0,31.0,59.0,277.0,647.392
647402.0,245.0,31.0,54.0,268.0,647.402
647412.0,244.0,31.0,52.0,268.0,647.412
647422.0,243.0,32.0,48.0,269.0,647.422
647432.0,246.0,30.0,46.0,272.0,647.432
647442.0,249.0,31.0,43.0,273.0,647.442
647452.0,244.0,30.0,42.0,266.0,647.452
647462.0,243.0,31.0,38.0,267.0,647.462
647472.0,243.0,31.0,37.0,264.0,647.472
647482.0,249.0,31.0,33.0,272.0,647.482
647492.0,251.0,32.0,31.0,271.0,647.492
647502.0,246.0,30.0,28.0,261.0,647.502
647512.0,247.0,31.0,26.0,264.0,647.512
647522.0,245.0,31.0,24.0,260.0,647.522
647532.0,251.0,31.0,22.0,267.0,647.532
647542.0,251.0,31.0,20.0,267.0,647.542
647552.0,245.0,31.0,18.0,258.0,647.552
647562.0,243.0,30.0,17.0,258.0,647.562
647572.0,239.0,31.0,15.0,257.0,647.572
647582.0,247.0,30.0,15.0,265.0,647.582
647592.0,247.0,31.0,12.0,262.0,647.592
647602.0,241.0,30.0,12.0,251.0,647.602
647612.0,239.0,32.0,10.0,253.0,647.612
647622.0,238.0,30.0,10.0,254.0,647.622
647632.0,243.0,30.0,9.0,260.0,647.632
647642.0,245.0,30.0,10.0,262.0,647.642
647652.0,239.0,31.0,7.0,254.0,647.652
647662.0,239.0,30.0,7.0,256.0,647.662
647672.0,239.0,31.0,7.0,258.0,647.672
647682.0,243.0,30.0,7.0,263.0,647.682
647692.0,246.0,30.0,5.0,266.0,647.692
647702.0,239.0,31.0,6.0,256.0,647.702
647712.0,240.0,30.0,6.0,258.0,647.712
647723.0,239.0,30.0,5.0,258.0,647.723
647733.0,243.0,30.0,5.0,262.0,647.733
647743.0,242.0,31.0,5.0,260.0,647.743
647753.0,235.0,30.0,4.0,252.0,647.753
647763.0,237.0,30.0,5.0,256.0,647.763
647773.0,240.0,31.0,5.0,259.0,647.773
647783.0,242.0,30.0,4.0,263.0,647.783
647793.0,242.0,30.0,5.0,261.0,647.793
647803.0,235.0,31.0,3.0,251.0,647.803
647813.0,238.0,30.0,5.0,256.0,647.813
647823.0,240.0,30.0,4.0,262.0,647.823
647833.0,242.0,30.0,5.0,261.0,647.833
647843.0,240.0,30.0,4.0,261.0,647.843
647853.0,236.0,30.0,4.0,254.0,647.853
647863.0,237.0,31.0,4.0,258.0,647.863
647873.0,239.0,30.0,4.0,262.0,647.873
647883.0,241.0,30.0,4.0,264.0,647.883
647894.0,239.0,30.0,5.0,263.0,647.894
647904.0,232.0,30.0,4.0,252.0,647.904
647914.0,235.0,31.0,4.0,260.0,647.914
647924.0,241.0,31.0,4.0,266.0,647.924
647934.0,237.0,31.0,3.0,260.0,647.934
647944.0,237.0,30.0,4.0,262.0,647.944
647954.0,230.0,31.0,4.0,252.0,647.954
647964.0,237.0,31.0,4.0,262.0,647.964
647974.0,240.0,31.0,3.0,267.0,647.974
647984.0,239.0,31.0,4.0,263.0,647.984
647994.0,238.0,31.0,3.0,263.0,647.994
648004.0,230.0,30.0,4.0,252.0,648.004
648014.0,237.0,31.0,3.0,263.0,648.014
648024.0,241.0,31.0,4.0,267.0,648.024
648034.0,239.0,31.0,3.0,262.0,648.034
648044.0,238.0,31.0,4.0,260.0,648.044
648054.0,231.0,32.0,3.0,251.0,648.054
648064.0,235.0,31.0,3.0,257.0,648.064
648074.0,241.0,31.0,4.0,264.0,648.074
648084.0,239.0,32.0,4.0,259.0,648.084
648094.0,238.0,31.0,3.0,259.0,648.094
648104.0,231.0,31.0,4.0,252.0,648.104
648114.0,236.0,31.0,4.0,258.0,648.114
648124.0,242.0,32.0,3.0,269.0,648.124
648134.0,238.0,30.0,4.0,260.0,648.134
648144.0,236.0,31.0,4.0,261.0,648.144
648154.0,231.0,31.0,4.0,251.0,648.154
648164.0,234.0,32.0,2.0,259.0,648.164
648174.0,239.0,32.0,4.0,265.0,648.174
648184.0,236.0,32.0,3.0,259.0,648.184
648194.0,237.0,32.0,4.0,260.0,648.194
648204.0,229.0,31.0,3.0,251.0,648.204
648214.0,235.0,32.0,5.0,262.0,648.214
648224.0,240.0,32.0,4.0,268.0,648.224
648235.0,236.0,32.0,4.0,260.0,648.235
648245.0,235.0,32.0,3.0,261.0,648.245
648255.0,232.0,32.0,4.0,254.0,648.255
648265.0,239.0,32.0,3.0,264.0,648.265
648275.0,240.0,32.0,5.0,264.0,648.275
648285.0,236.0,32.0,3.0,258.0,648.285
648295.0,234.0,32.0,3.0,258.0,648.295
648305.0,232.0,33.0,3.0,257.0,648.305
648315.0,238.0,32.0,3.0,262.0,648.315
648325.0,240.0,32.0,4.0,263.0,648.325
648335.0,235.0,32.0,4.0,256.0,648.335
648345.0,236.0,32.0,4.0,256.0,648.345
648355.0,232.0,32.0,4.0,256.0,648.355
648365.0,236.0,32.0,3.0,260.0,648.365
648375.0,240.0,33.0,3.0,264.0,648.375
648385.0,234.0,32.0,4.0,257.0,648.385
648395.0,234.0,32.0,4.0,259.0,648.395
648406.0,233.0,32.0,4.0,260.0,648.406
648416.0,238.0,32.0,2.0,265.0,648.416
648426.0,238.0,32.0,3.0,263.0,648.426
648436.0,230.0,33.0,3.0,255.0,648.436
648446.0,231.0,32.0,4.0,258.0,648.446
648456.0,232.0,32.0,3.0,260.0,648.456
648466.0,237.0,32.0,5.0,263.0,648.466
648476.0,238.0,33.0,3.0,261.0,648.476
648486.0,229.0,32.0,3.0,253.0,648.486
648496.0,233.0,33.0,4.0,259.0,648.496
648506.0,234.0,32.0,3.0,260.0,648.506
648516.0,237.0,32.0,4.0,264.0,648.516
648526.0,237.0,32.0,4.0,264.0,648.526
648536.0,233.0,32.0,4.0,258.0,648.536
648546.0,232.0,33.0,4.0,260.0,648.546
648556.0,236.0,32.0,3.0,266.0,648.556
648566.0,237.0,33.0,3.0,265.0,648.566
648576.0,240.0,32.0,4.0,266.0,648.576
648586.0,231.0,32.0,3.0,260.0,648.586
648596.0,233.0,32.0,5.0,262.0,648.596
648606.0,234.0,32.0,4.0,266.0,648.606
648616.0,235.0,32.0,4.0,265.0,648.616
648626.0,238.0,33.0,3.0,266.0,648.626
648636.0,230.0,32.0,4.0,256.0,648.636
648646.0,231.0,32.0,4.0,258.0,648.646
648656.0,235.0,33.0,3.0,264.0,648.656
648666.0,236.0,32.0,3.0,263.0,648.666
648676.0,238.0,33.0,3.0,262.0,648.676
648686.0,229.0,32.0,3.0,255.0,648.686
648696.0,232.0,32.0,3.0,258.0,648.696
648706.0,232.0,32.0,4.0,259.0,648.706
648716.0,236.0,32.0,4.0,263.0,648.716
648726.0,237.0,33.0,4.0,262.0,648.726
648736.0,227.0,32.0,3.0,253.0,648.736
648747.0,229.0,32.0,4.0,259.0,648.747
648757.0,235.0,33.0,3.0,268.0,648.757
648767.0,233.0,32.0,4.0,263.0,648.767
648777.0,233.0,33.0,3.0,262.0,648.777
648787.0,226.0,31.0,5.0,255.0,648.787
648797.0,230.0,33.0,3.0,261.0,648.797
648807.0,236.0,33.0,4.0,268.0,648.807
648817.0,234.0,33.0,3.0,264.0,648.817
648827.0,233.0,32.0,3.0,262.0,648.827
648837.0,226.0,32.0,4.0,256.0,648.837
648847.0,231.0,33.0,5.0,260.0,648.847
648857.0,237.0,33.0,4.0,266.0,648.857
648867.0,232.0,32.0,4.0,261.0,648.867
648877.0,234.0,32.0,3.0,261.0,648.877
648887.0,226.0,32.0,3.0,250.0,648.887
648897.0,231.0,32.0,3.0,259.0,648.897
648907.0,236.0,33.0,4.0,264.0,648.907
648918.0,232.0,33.0,4.0,258.0,648.918
648928.0,232.0,32.0,4.0,258.0,648.928
648938.0,226.0,33.0,4.0,255.0,648.938
648948.0,233.0,33.0,3.0,263.0,648.948
648958.0,237.0,32.0,4.0,264.0,648.958
648968.0,231.0,32.0,4.0,258.0,648.968
648978.0,232.0,33.0,4.0,258.0,648.978
648988.0,226.0,33.0,4.0,255.0,648.988
648998.0,233.0,32.0,4.0,262.0,648.998
649008.0,235.0,33.0,3.0,265.0,649.008
649018.0,229.0,32.0,3.0,256.0,649.018
649028.0,229.0,32.0,4.0,256.0,649.028
649038.0,227.0,32.0,5.0,255.0,649.038
649048.0,231.0,32.0,3.0,259.0,649.048
649058.0,237.0,32.0,4.0,264.0,649.058
649068.0,230.0,33.0,4.0,255.0,649.068
649078.0,231.0,32.0,3.0,256.0,649.078
649088.0,225.0,32.0,4.0,250.0,649.088
649098.0,232.0,33.0,4.0,259.0,649.098
649108.0,237.0,32.0,4.0,262.0,649.108
649118.0,229.0,32.0,3.0,255.0,649.118
649128.0,230.0,33.0,4.0,257.0,649.128
649138.0,224.0,32.0,3.0,252.0,649.138
649148.0,233.0,32.0,4.0,262.0,649.148
649158.0,237.0,32.0,4.0,264.0,649.158
649168.0,230.0,31.0,4.0,256.0,649.168
649178.0,232.0,32.0,4.0,258.0,649.178
649188.0,225.0,32.0,4.0,252.0,649.188
649198.0,233.0,32.0,3.0,262.0,649.198
649208.0,237.0,32.0,4.0,262.0,649.208
649218.0,230.0,31.0,4.0,256.0,649.218
649228.0,231.0,32.0,5.0,257.0,649.228
649238.0,224.0,31.0,4.0,254.0,649.238
649248.0,232.0,32.0,4.0,262.0,649.248
649259.0,235.0,33.0,3.0,264.0,649.259
649269.0,227.0,31.0,4.0,255.0,649.269
649279.0,228.0,32.0,3.0,256.0,649.279
649289.0,230.0,32.0,4.0,260.0,649.289
649299.0,232.0,31.0,4.0,261.0,649.299
649309.0,235.0,33.0,3.0,262.0,649.309
649319.0,225.0,32.0,3.0,255.0,649.319
649329.0,227.0,32.0,3.0,256.0,649.329
649339.0,231.0,31.0,3.0,262.0,649.339
649349.0,232.0,32.0,4.0,262.0,649.349
649359.0,236.0,31.0,4.0,261.0,649.359
649369.0,225.0,32.0,3.0,253.0,649.369
649379.0,227.0,32.0,4.0,254.0,649.379
649389.0,227.0,31.0,4.0,255.0,649.389
649399.0,232.0,32.0,3.0,260.0,649.399
649409.0,234.0,32.0,4.0,259.0,649.409
649419.0,226.0,31.0,4.0,251.0,649.419
649430.0,227.0,32.0,4.0,254.0,649.43
649440.0,232.0,32.0,3.0,261.0,649.44
649450.0,231.0,33.0,3.0,259.0,649.45
649460.0,231.0,32.0,3.0,256.0,649.46
649470.0,221.0,31.0,4.0,248.0,649.47
649480.0,228.0,31.0,4.0,255.0,649.48
649490.0,233.0,31.0,4.0,263.0,649.49
649500.0,230.0,31.0,4.0,259.0,649.5
649510.0,232.0,33.0,3.0,262.0,649.51
649520.0,223.0,31.0,3.0,253.0,649.52
649530.0,227.0,32.0,4.0,258.0,649.53
649540.0,233.0,32.0,4.0,266.0,649.54
649550.0,231.0,31.0,4.0,261.0,649.55
649560.0,232.0,32.0,4.0,262.0,649.56
649570.0,224.0,31.0,3.0,253.0,649.57
649580.0,227.0,32.0,3.0,260.0,649.58
649590.0,235.0,32.0,3.0,268.0,649.59
649600.0,232.0,31.0,4.0,265.0,649.6
649610.0,234.0,31.0,5.0,263.0,649.61
649620.0,225.0,31.0,3.0,254.0,649.62
649630.0,228.0,32.0,4.0,260.0,649.63
649640.0,234.0,33.0,3.0,267.0,649.64
649650.0,231.0,31.0,3.0,263.0,649.65
649660.0,232.0,32.0,3.0,262.0,649.66
649670.0,224.0,31.0,5.0,253.0,649.67
649680.0,228.0,31.0,4.0,261.0,649.68
649690.0,231.0,32.0,3.0,265.0,649.69
649700.0,230.0,31.0,4.0,264.0,649.7
649710.0,230.0,32.0,3.0,260.0,649.71
649720.0,222.0,31.0,3.0,252.0,649.72
649730.0,227.0,32.0,4.0,258.0,649.73
649740.0,232.0,32.0,5.0,263.0,649.74
649750.0,228.0,31.0,4.0,261.0,649.75
649760.0,230.0,32.0,4.0,259.0,649.76
649771.0,221.0,32.0,3.0,252.0,649.771
649781.0,228.0,31.0,4.0,261.0,649.781
649791.0,233.0,31.0,3.0,264.0,649.791
649801.0,227.0,31.0,4.0,257.0,649.801
649811.0,228.0,31.0,4.0,257.0,649.811
649821.0,220.0,31.0,4.0,250.0,649.821
649831.0,228.0,32.0,3.0,261.0,649.831
649841.0,233.0,32.0,4.0,262.0,649.841
649851.0,224.0,31.0,3.0,254.0,649.851
649861.0,229.0,32.0,4.0,256.0,649.861
649871.0,219.0,31.0,3.0,250.0,649.871
649881.0,228.0,31.0,3.0,260.0,649.881
649891.0,233.0,32.0,3.0,264.0,649.891
649901.0,227.0,31.0,3.0,258.0,649.901
649911.0,228.0,32.0,4.0,257.0,649.911
649921.0,220.0,32.0,4.0,252.0,649.921
649931.0,229.0,31.0,3.0,261.0,649.931
649942.0,232.0,32.0,3.0,263.0,649.942
649952.0,223.0,31.0,4.0,254.0,649.952
649962.0,226.0,32.0,3.0,256.0,649.962
649972.0,227.0,32.0,4.0,258.0,649.972
649982.0,229.0,32.0,3.0,259.0,649.982
649992.0,235.0,32.0,4.0,259.0,649.992
650002.0,224.0,31.0,3.0,251.0,650.002
650012.0,226.0,31.0,3.0,253.0,650.012
650022.0,227.0,33.0,3.0,257.0,650.022
650032.0,228.0,32.0,4.0,259.0,650.032
650042.0,233.0,32.0,4.0,260.0,650.042
650052.0,223.0,31.0,5.0,252.0,650.052
650062.0,225.0,31.0,4.0,254.0,650.062
650072.0,223.0,31.0,4.0,255.0,650.072
650082.0,230.0,32.0,3.0,263.0,650.082
650092.0,232.0,32.0,4.0,263.0,650.092
650102.0,222.0,31.0,3.0,255.0,650.102
650112.0,227.0,32.0,4.0,259.0,650.112
650122.0,224.0,31.0,4.0,258.0,650.122
650132.0,230.0,32.0,4.0,263.0,650.132
650142.0,233.0,32.0,4.0,261.0,650.142
650152.0,223.0,32.0,4.0,252.0,650.152
650162.0,227.0,32.0,4.0,256.0,650.162
650172.0,226.0,32.0,3.0,257.0,650.172
650182.0,232.0,31.0,4.0,262.0,650.182
650192.0,232.0,32.0,3.0,259.0,650.192
650202.0,226.0,31.0,4.0,253.0,650.202
650212.0,227.0,33.0,3.0,256.0,650.212
650222.0,227.0,32.0,3.0,257.0,650.222
650232.0,231.0,31.0,3.0,261.0,650.232
650242.0,234.0,32.0,4.0,262.0,650.242
650252.0,225.0,31.0,4.0,254.0,650.252
650262.0,227.0,31.0,4.0,254.0,650.262
650272.0,228.0,33.0,3.0,260.0,650.272
650283.0,231.0,32.0,4.0,261.0,650.283
650293.0,232.0,32.0,3.0,260.0,650.293
650303.0,223.0,32.0,4.0,252.0,650.303
650313.0,226.0,31.0,3.0,260.0,650.313
650323.0,232.0,33.0,3.0,266.0,650.323
650333.0,231.0,32.0,4.0,265.0,650.333
650343.0,231.0,33.0,3.0,263.0,650.343
650353.0,222.0,32.0,3.0,254.0,650.353
650363.0,227.0,32.0,4.0,260.0,650.363
650373.0,230.0,31.0,5.0,265.0,650.373
650383.0,230.0,32.0,4.0,266.0,650.383
650393.0,231.0,32.0,3.0,263.0,650.393
650403.0,222.0,32.0,3.0,256.0,650.403
650413.0,227.0,32.0,4.0,260.0,650.413
650423.0,231.0,32.0,4.0,266.0,650.423
650433.0,232.0,31.0,5.0,266.0,650.433
650443.0,230.0,31.0,3.0,264.0,650.443
650454.0,222.0,32.0,4.0,255.0,650.454
650464.0,228.0,33.0,3.0,265.0,650.464
650474.0,234.0,32.0,3.0,268.0,650.474
650484.0,228.0,32.0,3.0,263.0,650.484
650494.0,230.0,32.0,5.0,262.0,650.494
650504.0,221.0,31.0,4.0,254.0,650.504
650514.0,228.0,32.0,3.0,264.0,650.514
650524.0,234.0,33.0,4.0,266.0,650.524
650534.0,228.0,32.0,3.0,262.0,650.534
650544.0,230.0,32.0,4.0,262.0,650.544
650554.0,221.0,32.0,4.0,255.0,650.554
650564.0,231.0,31.0,4.0,266.0,650.564
650574.0,235.0,32.0,3.0,268.0,650.574
650584.0,231.0,32.0,4.0,265.0,650.584
650594.0,231.0,33.0,3.0,264.0,650.594
650604.0,223.0,32.0,4.0,258.0,650.604
650614.0,231.0,32.0,4.0,266.0,650.614
650624.0,235.0,32.0,5.0,269.0,650.624
650634.0,230.0,31.0,3.0,265.0,650.634
650644.0,230.0,32.0,3.0,263.0,650.644
650654.0,223.0,33.0,3.0,260.0,650.654
650664.0,231.0,31.0,4.0,268.0,650.664
650674.0,235.0,32.0,4.0,270.0,650.674
650684.0,229.0,32.0,4.0,264.0,650.684
650694.0,229.0,31.0,4.0,262.0,650.694
650704.0,223.0,32.0,3.0,258.0,650.704
650714.0,229.0,32.0,4.0,264.0,650.714
650724.0,234.0,32.0,3.0,268.0,650.724
650734.0,229.0,30.0,4.0,262.0,650.734
650744.0,229.0,32.0,4.0,261.0,650.744
650754.0,222.0,31.0,4.0,256.0,650.754
650764.0,229.0,33.0,3.0,267.0,650.764
650774.0,234.0,32.0,4.0,267.0,650.774
650784.0,227.0,32.0,3.0,262.0,650.784
650795.0,228.0,32.0,4.0,260.0,650.795
650805.0,224.0,32.0,4.0,259.0,650.805
650815.0,233.0,31.0,4.0,266.0,650.815
650825.0,234.0,32.0,4.0,266.0,650.825
650835.0,226.0,31.0,4.0,258.0,650.835
650845.0,229.0,32.0,3.0,261.0,650.845
650855.0,226.0,32.0,3.0,261.0,650.855
650865.0,233.0,32.0,3.0,268.0,650.865
650875.0,235.0,32.0,4.0,266.0,650.875
650885.0,228.0,31.0,4.0,261.0,650.885
650895.0,228.0,32.0,4.0,261.0,650.895
650905.0,226.0,32.0,3.0,262.0,650.905
650915.0,232.0,32.0,4.0,265.0,650.915
650925.0,234.0,32.0,3.0,266.0,650.925
650935.0,227.0,32.0,3.0,258.0,650.935
650945.0,229.0,31.0,4.0,257.0,650.945
650955.0,228.0,33.0,3.0,262.0,650.955
650966.0,232.0,32.0,4.0,265.0,650.966
650976.0,233.0,33.0,3.0,262.0,650.976
650986.0,223.0,32.0,3.0,256.0,650.986
650996.0,226.0,32.0,4.0,258.0,650.996
651006.0,233.0,32.0,4.0,265.0,651.006
651016.0,232.0,32.0,3.0,264.0,651.016
651026.0,233.0,32.0,3.0,261.0,651.026
651036.0,225.0,32.0,3.0,256.0,651.036
651046.0,229.0,32.0,3.0,258.0,651.046
651056.0,231.0,32.0,3.0,263.0,651.056
651066.0,235.0,32.0,5.0,264.0,651.066
651076.0,233.0,32.0,2.0,261.0,651.076
651086.0,225.0,32.0,4.0,252.0,651.086
651096.0,229.0,33.0,3.0,258.0,651.096
651106.0,233.0,32.0,3.0,262.0,651.106
651116.0,235.0,32.0,4.0,262.0,651.116
651126.0,233.0,32.0,4.0,259.0,651.126
651136.0,228.0,31.0,4.0,256.0,651.136
651146.0,228.0,32.0,4.0,258.0,651.146
651156.0,233.0,32.0,4.0,265.0,651.156
651166.0,233.0,33.0,3.0,265.0,651.166
651176.0,233.0,32.0,4.0,261.0,651.176
651186.0,227.0,32.0,4.0,256.0,651.186
651196.0,230.0,31.0,4.0,258.0,651.196
651206.0,235.0,32.0,4.0,265.0,651.206
651216.0,234.0,32.0,4.0,262.0,651.216
651226.0,235.0,33.0,3.0,263.0,651.226
651236.0,227.0,32.0,3.0,256.0,651.236
651246.0,229.0,32.0,3.0,260.0,651.246
651256.0,235.0,32.0,5.0,266.0,651.256
651266.0,234.0,31.0,3.0,265.0,651.266
651276.0,234.0,33.0,3.0,263.0,651.276
651286.0,227.0,32.0,3.0,256.0,651.286
651296.0,230.0,32.0,3.0,258.0,651.296
651307.0,236.0,32.0,3.0,266.0,651.307
651317.0,233.0,32.0,4.0,263.0,651.317
651327.0,233.0,31.0,4.0,262.0,651.327
651337.0,225.0,32.0,4.0,255.0,651.337
651347.0,233.0,32.0,3.0,266.0,651.347
651357.0,236.0,33.0,3.0,268.0,651.357
651367.0,234.0,32.0,3.0,264.0,651.367
651377.0,233.0,32.0,3.0,262.0,651.377
651387.0,227.0,31.0,4.0,255.0,651.387
651397.0,230.0,32.0,2.0,261.0,651.397
651407.0,237.0,32.0,3.0,268.0,651.407
651417.0,233.0,33.0,3.0,263.0,651.417
651427.0,232.0,32.0,4.0,262.0,651.427
651437.0,225.0,32.0,3.0,255.0,651.437
651447.0,232.0,32.0,5.0,263.0,651.447
651457.0,236.0,31.0,3.0,269.0,651.457
651467.0,232.0,32.0,3.0,263.0,651.467
651478.0,231.0,33.0,3.0,262.0,651.478
651488.0,226.0,32.0,3.0,258.0,651.488
651498.0,235.0,32.0,3.0,266.0,651.498
651508.0,237.0,32.0,5.0,265.0,651.508
651518.0,230.0,31.0,3.0,258.0,651.518
651528.0,230.0,32.0,4.0,260.0,651.528
651538.0,227.0,32.0,3.0,260.0,651.538
651548.0,234.0,32.0,3.0,266.0,651.548
651558.0,237.0,32.0,4.0,266.0,651.558
651568.0,232.0,32.0,3.0,262.0,651.568
651578.0,232.0,31.0,4.0,262.0,651.578
651588.0,229.0,32.0,3.0,260.0,651.588
651598.0,235.0,32.0,4.0,267.0,651.598
651608.0,237.0,33.0,3.0,267.0,651.608
651618.0,231.0,32.0,4.0,259.0,651.618
651628.0,231.0,32.0,4.0,259.0,651.628
651638.0,230.0,32.0,5.0,259.0,651.638
651648.0,233.0,31.0,2.0,263.0,651.648
651658.0,237.0,32.0,4.0,265.0,651.658
651668.0,231.0,33.0,3.0,259.0,651.668
651678.0,231.0,32.0,3.0,258.0,651.678
651688.0,231.0,32.0,4.0,258.0,651.688
651698.0,235.0,32.0,4.0,262.0,651.698
651708.0,238.0,31.0,4.0,264.0,651.708
651718.0,231.0,32.0,4.0,255.0,651.718
651728.0,232.0,33.0,4.0,257.0,651.728
651738.0,227.0,32.0,3.0,253.0,651.738
651748.0,236.0,32.0,3.0,262.0,651.748
651758.0,238.0,32.0,4.0,264.0,651.758
651768.0,231.0,31.0,4.0,255.0,651.768
651778.0,233.0,32.0,3.0,259.0,651.778
651788.0,228.0,32.0,4.0,256.0,651.788
651798.0,236.0,33.0,3.0,265.0,651.798
651808.0,239.0,32.0,4.0,264.0,651.808
651819.0,232.0,32.0,4.0,255.0,651.819
651829.0,232.0,32.0,5.0,257.0,651.829
651839.0,234.0,32.0,2.0,262.0,651.839
651849.0,236.0,32.0,3.0,261.0,651.849
651859.0,235.0,33.0,4.0,260.0,651.859
651869.0,230.0,32.0,4.0,250.0,651.869
651879.0,231.0,32.0,4.0,254.0,651.879
651889.0,235.0,32.0,4.0,259.0,651.889
651899.0,236.0,31.0,4.0,258.0,651.899
651909.0,237.0,32.0,4.0,259.0,651.909
651919.0,229.0,32.0,3.0,251.0,651.919
651929.0,230.0,32.0,3.0,253.0,651.929
651939.0,236.0,32.0,4.0,259.0,651.939
651949.0,236.0,32.0,4.0,258.0,651.949
651959.0,238.0,33.0,4.0,258.0,651.959
651969.0,230.0,32.0,4.0,250.0,651.969
651979.0,232.0,32.0,3.0,255.0,651.979
651990.0,237.0,33.0,3.0,262.0,651.99
652000.0,236.0,32.0,3.0,258.0,652.0
652010.0,234.0,32.0,4.0,257.0,652.01
652020.0,228.0,32.0,4.0,250.0,652.02
652030.0,234.0,32.0,3.0,260.0,652.03
652040.0,238.0,32.0,4.0,264.0,652.04
652050.0,235.0,33.0,3.0,260.0,652.05
652060.0,234.0,32.0,4.0,258.0,652.06
652070.0,227.0,32.0,4.0,250.0,652.07
652080.0,231.0,32.0,4.0,255.0,652.08
652090.0,237.0,32.0,4.0,262.0,652.09
652100.0,234.0,32.0,3.0,257.0,652.1
652110.0,234.0,33.0,3.0,258.0,652.11
652120.0,227.0,32.0,3.0,248.0,652.12
652130.0,232.0,32.0,4.0,255.0,652.13
652140.0,237.0,32.0,4.0,262.0,652.14
652150.0,234.0,31.0,4.0,257.0,652.15
652160.0,233.0,32.0,3.0,258.0,652.16
652170.0,226.0,31.0,4.0,248.0,652.17
652180.0,230.0,32.0,3.0,255.0,652.18
652190.0,236.0,32.0,3.0,260.0,652.19
652200.0,232.0,32.0,4.0,253.0,652.2
652210.0,234.0,32.0,5.0,255.0,652.21
652220.0,226.0,31.0,4.0,245.0,652.22
652230.0,232.0,32.0,4.0,255.0,652.23
652240.0,237.0,33.0,3.0,260.0,652.24
652250.0,235.0,32.0,3.0,256.0,652.25
652260.0,233.0,32.0,3.0,254.0,652.26
652270.0,226.0,31.0,5.0,246.0,652.27
652280.0,232.0,32.0,3.0,256.0,652.28
652290.0,236.0,32.0,4.0,259.0,652.29
652300.0,234.0,32.0,3.0,257.0,652.3
652310.0,233.0,32.0,3.0,256.0,652.31
652320.0,226.0,32.0,4.0,248.0,652.32
652331.0,233.0,31.0,2.0,258.0,652.331
652341.0,238.0,31.0,3.0,262.0,652.341
652351.0,230.0,32.0,3.0,253.0,652.351
652361.0,231.0,32.0,3.0,253.0,652.361
652371.0,229.0,33.0,3.0,252.0,652.371
652381.0,232.0,32.0,4.0,254.0,652.381
652391.0,236.0,32.0,4.0,259.0,652.391
652401.0,230.0,31.0,4.0,250.0,652.401
652411.0,230.0,32.0,4.0,252.0,652.411
652421.0,225.0,31.0,4.0,247.0,652.421
652431.0,233.0,33.0,3.0,258.0,652.431
652441.0,236.0,32.0,3.0,261.0,652.441
652451.0,230.0,32.0,4.0,252.0,652.451
652461.0,232.0,32.0,5.0,254.0,652.461
652471.0,226.0,31.0,4.0,249.0,652.471
652481.0,235.0,31.0,3.0,260.0,652.481
652491.0,238.0,32.0,3.0,264.0,652.491
652502.0,231.0,32.0,3.0,252.0,652.502
652512.0,231.0,32.0,3.0,254.0,652.512
652522.0,233.0,32.0,4.0,258.0,652.522
652532.0,236.0,31.0,3.0,259.0,652.532
652542.0,235.0,32.0,3.0,258.0,652.542
652552.0,230.0,32.0,3.0,252.0,652.552
652562.0,231.0,32.0,3.0,255.0,652.562
652572.0,233.0,32.0,4.0,259.0,652.572
652582.0,234.0,32.0,4.0,259.0,652.582
652592.0,237.0,32.0,4.0,262.0,652.592
652602.0,228.0,31.0,4.0,251.0,652.602
652612.0,230.0,31.0,4.0,254.0,652.612
652622.0,233.0,33.0,3.0,261.0,652.622
652632.0,234.0,31.0,4.0,260.0,652.632
652642.0,236.0,32.0,3.0,260.0,652.642
652652.0,229.0,31.0,3.0,251.0,652.652
652662.0,230.0,31.0,4.0,255.0,652.662
652672.0,230.0,32.0,3.0,256.0,652.672
652682.0,235.0,33.0,3.0,262.0,652.682
652692.0,237.0,32.0,3.0,260.0,652.692
652702.0,228.0,31.0,3.0,250.0,652.702
652712.0,231.0,32.0,5.0,253.0,652.712
652722.0,231.0,31.0,3.0,255.0,652.722
652732.0,235.0,32.0,3.0,258.0,652.732
652742.0,235.0,32.0,4.0,256.0,652.742
652752.0,226.0,31.0,3.0,246.0,652.752
652762.0,230.0,32.0,4.0,249.0,652.762
652772.0,231.0,32.0,4.0,252.0,652.772
652782.0,234.0,32.0,4.0,256.0,652.782
652792.0,233.0,32.0,2.0,256.0,652.792
652802.0,228.0,31.0,4.0,249.0,652.802
652812.0,229.0,33.0,3.0,253.0,652.812
652822.0,231.0,32.0,3.0,256.0,652.822
652832.0,233.0,32.0,3.0,256.0,652.832
652843.0,233.0,32.0,4.0,255.0,652.843
652853.0,224.0,32.0,2.0,246.0,652.853
652863.0,228.0,32.0,4.0,253.0,652.863
652873.0,235.0,33.0,3.0,261.0,652.873
652883.0,231.0,32.0,3.0,255.0,652.883
652893.0,233.0,32.0,3.0,257.0,652.893
652903.0,225.0,32.0,4.0,247.0,652.903
652913.0,230.0,31.0,4.0,256.0,652.913
652923.0,235.0,32.0,3.0,261.0,652.923
652933.0,232.0,32.0,4.0,258.0,652.933
652943.0,232.0,32.0,3.0,256.0,652.943
652953.0,224.0,32.0,4.0,247.0,652.953
652963.0,229.0,33.0,3.0,256.0,652.963
652973.0,234.0,32.0,4.0,259.0,652.973
652983.0,230.0,32.0,4.0,255.0,652.983
652993.0,231.0,32.0,4.0,254.0,652.993
653003.0,223.0,33.0,3.0,248.0,653.003
