time (ms),signal 0,signal 1,signal 2,signal 3,time (sec)
829434.0,219.0,33.0,244.0,250.0,829.434
829444.0,214.0,33.0,246.0,246.0,829.444
829454.0,213.0,32.0,237.0,244.0,829.454
829464.0,208.0,32.0,239.0,241.0,829.464
829474.0,217.0,33.0,245.0,248.0,829.474
829484.0,218.0,33.0,243.0,251.0,829.484
829494.0,214.0,32.0,245.0,248.0,829.494
829504.0,214.0,33.0,236.0,247.0,829.504
829514.0,210.0,33.0,240.0,243.0,829.514
829524.0,216.0,32.0,245.0,251.0,829.524
829534.0,220.0,33.0,243.0,252.0,829.534
829544.0,213.0,33.0,243.0,247.0,829.544
829554.0,213.0,33.0,234.0,245.0,829.554
829564.0,211.0,32.0,239.0,246.0,829.564
829574.0,213.0,33.0,241.0,250.0,829.574
829584.0,219.0,33.0,241.0,254.0,829.584
829594.0,212.0,33.0,243.0,248.0,829.594
829604.0,213.0,33.0,236.0,248.0,829.604
829614.0,206.0,33.0,236.0,243.0,829.614
829624.0,214.0,32.0,243.0,252.0,829.624
829634.0,219.0,34.0,242.0,254.0,829.634
829644.0,213.0,32.0,243.0,249.0,829.644
829654.0,213.0,33.0,236.0,249.0,829.654
829664.0,206.0,33.0,239.0,244.0,829.664
829674.0,213.0,33.0,243.0,254.0,829.674
829684.0,217.0,33.0,242.0,254.0,829.684
829694.0,211.0,32.0,243.0,249.0,829.694
829704.0,213.0,33.0,238.0,249.0,829.704
829714.0,207.0,32.0,240.0,247.0,829.714
829724.0,215.0,33.0,246.0,255.0,829.724
829734.0,220.0,33.0,242.0,255.0,829.734
829744.0,212.0,32.0,245.0,253.0,829.744
829754.0,214.0,32.0,238.0,251.0,829.754
829764.0,209.0,33.0,240.0,251.0,829.764
829774.0,216.0,33.0,247.0,257.0,829.774
829784.0,219.0,34.0,244.0,258.0,829.784
829794.0,216.0,33.0,246.0,255.0,829.794
829804.0,217.0,34.0,237.0,254.0,829.804
829814.0,213.0,32.0,241.0,253.0,829.814
829824.0,216.0,34.0,243.0,259.0,829.824
829834.0,223.0,33.0,245.0,261.0,829.834
829844.0,214.0,33.0,244.0,254.0,829.844
829854.0,215.0,33.0,237.0,252.0,829.854
829864.0,212.0,33.0,242.0,254.0,829.864
829874.0,216.0,33.0,244.0,257.0,829.874
829884.0,220.0,33.0,244.0,260.0,829.884
829894.0,213.0,33.0,244.0,253.0,829.894
829904.0,215.0,33.0,237.0,252.0,829.904
829914.0,208.0,33.0,239.0,249.0,829.914
829924.0,216.0,33.0,246.0,257.0,829.924
829934.0,221.0,34.0,245.0,259.0,829.934
829944.0,213.0,32.0,246.0,252.0,829.944
829954.0,215.0,34.0,239.0,253.0,829.954
829964.0,210.0,33.0,242.0,249.0,829.964
829974.0,215.0,33.0,247.0,256.0,829.974
829984.0,220.0,33.0,244.0,256.0,829.984
829995.0,211.0,33.0,244.0,250.0,829.995
830005.0,213.0,32.0,239.0,250.0,830.005
830015.0,215.0,34.0,245.0,255.0,830.015
830025.0,217.0,32.0,251.0,255.0,830.025
830035.0,217.0,33.0,240.0,252.0,830.035
830045.0,213.0,32.0,246.0,248.0,830.045
830055.0,214.0,33.0,240.0,250.0,830.055
830065.0,216.0,33.0,246.0,254.0,830.065
830075.0,215.0,32.0,252.0,256.0,830.075
830085.0,219.0,33.0,245.0,254.0,830.085
830095.0,210.0,32.0,246.0,247.0,830.095
830105.0,212.0,33.0,240.0,249.0,830.105
830115.0,216.0,32.0,247.0,254.0,830.115
830125.0,215.0,32.0,249.0,255.0,830.125
830135.0,218.0,32.0,242.0,254.0,830.135
830145.0,208.0,33.0,245.0,248.0,830.145
830155.0,212.0,33.0,241.0,248.0,830.155
830166.0,215.0,33.0,248.0,255.0,830.166
830176.0,216.0,33.0,250.0,253.0,830.176
830186.0,216.0,33.0,241.0,250.0,830.186
830196.0,207.0,32.0,244.0,243.0,830.196
830206.0,214.0,34.0,247.0,252.0,830.206
830216.0,217.0,32.0,250.0,254.0,830.216
830226.0,215.0,32.0,252.0,252.0,830.226
830236.0,215.0,33.0,243.0,249.0,830.236
830246.0,206.0,33.0,244.0,244.0,830.246
830256.0,211.0,32.0,242.0,247.0,830.256
830266.0,218.0,33.0,250.0,254.0,830.266
830276.0,214.0,32.0,251.0,251.0,830.276
830286.0,215.0,32.0,242.0,249.0,830.286
830296.0,207.0,33.0,246.0,245.0,830.296
830306.0,214.0,32.0,245.0,251.0,830.306
830316.0,220.0,32.0,250.0,256.0,830.316
830326.0,215.0,32.0,251.0,251.0,830.326
830336.0,217.0,33.0,241.0,250.0,830.336
830346.0,207.0,32.0,245.0,244.0,830.346
830356.0,211.0,32.0,244.0,251.0,830.356
830366.0,218.0,33.0,250.0,257.0,830.366
830376.0,211.0,33.0,251.0,254.0,830.376
830386.0,214.0,32.0,242.0,251.0,830.386
830396.0,205.0,33.0,242.0,246.0,830.396
830406.0,212.0,32.0,245.0,252.0,830.406
830416.0,217.0,33.0,247.0,257.0,830.416
830426.0,216.0,32.0,251.0,256.0,830.426
830436.0,217.0,33.0,242.0,253.0,830.436
830446.0,208.0,32.0,243.0,247.0,830.446
830456.0,214.0,32.0,247.0,255.0,830.456
830466.0,217.0,32.0,250.0,259.0,830.466
830476.0,214.0,32.0,253.0,257.0,830.476
830486.0,214.0,33.0,243.0,254.0,830.486
830496.0,207.0,31.0,246.0,248.0,830.496
830507.0,213.0,33.0,249.0,258.0,830.507
830517.0,219.0,32.0,250.0,260.0,830.517
830527.0,212.0,32.0,253.0,255.0,830.527
830537.0,213.0,32.0,244.0,254.0,830.537
830547.0,211.0,32.0,250.0,255.0,830.547
830557.0,214.0,32.0,254.0,259.0,830.557
830567.0,219.0,33.0,252.0,262.0,830.567
830577.0,211.0,32.0,255.0,256.0,830.577
830587.0,213.0,33.0,248.0,257.0,830.587
830597.0,207.0,32.0,252.0,252.0,830.597
830607.0,218.0,33.0,257.0,261.0,830.607
830617.0,224.0,33.0,255.0,263.0,830.617
830627.0,216.0,32.0,258.0,256.0,830.627
830637.0,217.0,33.0,249.0,255.0,830.637
830647.0,211.0,32.0,254.0,253.0,830.647
830657.0,217.0,32.0,261.0,261.0,830.657
830667.0,221.0,32.0,255.0,260.0,830.667
830678.0,213.0,32.0,262.0,255.0,830.678
830688.0,217.0,33.0,254.0,254.0,830.688
830698.0,217.0,33.0,261.0,259.0,830.698
830708.0,219.0,32.0,267.0,261.0,830.708
830718.0,220.0,33.0,257.0,259.0,830.718
830728.0,214.0,32.0,268.0,255.0,830.728
830738.0,215.0,33.0,259.0,255.0,830.738
830748.0,218.0,32.0,268.0,259.0,830.748
830758.0,218.0,32.0,274.0,260.0,830.758
830768.0,223.0,33.0,264.0,258.0,830.768
830778.0,213.0,32.0,274.0,252.0,830.778
830788.0,216.0,32.0,266.0,252.0,830.788
830798.0,218.0,33.0,276.0,258.0,830.798
830808.0,218.0,33.0,281.0,260.0,830.808
830818.0,221.0,33.0,271.0,258.0,830.818
830828.0,212.0,32.0,283.0,255.0,830.828
830838.0,214.0,32.0,274.0,256.0,830.838
830848.0,215.0,33.0,283.0,258.0,830.848
830858.0,222.0,33.0,289.0,261.0,830.858
830868.0,221.0,33.0,275.0,257.0,830.868
830878.0,212.0,32.0,287.0,252.0,830.878
830888.0,214.0,32.0,279.0,254.0,830.888
830898.0,215.0,32.0,285.0,257.0,830.898
830908.0,219.0,32.0,289.0,260.0,830.908
830918.0,220.0,32.0,277.0,257.0,830.918
830928.0,214.0,32.0,289.0,254.0,830.928
830938.0,219.0,32.0,278.0,254.0,830.938
830948.0,219.0,33.0,286.0,257.0,830.948
830958.0,221.0,32.0,291.0,259.0,830.958
830968.0,221.0,33.0,277.0,257.0,830.968
830978.0,214.0,32.0,288.0,256.0,830.978
830988.0,218.0,32.0,280.0,257.0,830.988
830998.0,220.0,32.0,289.0,264.0,830.998
831008.0,223.0,31.0,292.0,263.0,831.008
831019.0,222.0,32.0,278.0,259.0,831.019
831029.0,212.0,32.0,286.0,253.0,831.029
831039.0,217.0,32.0,283.0,259.0,831.039
831049.0,222.0,32.0,284.0,263.0,831.049
831059.0,217.0,32.0,289.0,260.0,831.059
831069.0,219.0,32.0,275.0,257.0,831.069
831079.0,210.0,32.0,280.0,250.0,831.079
831089.0,213.0,32.0,281.0,260.0,831.089
831099.0,218.0,33.0,281.0,264.0,831.099
831109.0,215.0,32.0,285.0,261.0,831.109
831119.0,215.0,32.0,271.0,259.0,831.119
831129.0,206.0,32.0,272.0,251.0,831.129
831139.0,214.0,32.0,272.0,260.0,831.139
831149.0,218.0,33.0,274.0,262.0,831.149
831159.0,216.0,32.0,276.0,261.0,831.159
831169.0,214.0,32.0,265.0,258.0,831.169
831179.0,206.0,31.0,270.0,255.0,831.179
831190.0,213.0,32.0,271.0,263.0,831.19
831200.0,218.0,32.0,267.0,264.0,831.2
831210.0,212.0,32.0,269.0,261.0,831.21
831220.0,215.0,32.0,259.0,260.0,831.22
831230.0,211.0,33.0,262.0,262.0,831.23
831240.0,216.0,32.0,264.0,265.0,831.24
831250.0,218.0,32.0,260.0,265.0,831.25
831260.0,210.0,32.0,261.0,261.0,831.26
831270.0,211.0,33.0,251.0,257.0,831.27
831280.0,206.0,32.0,254.0,256.0,831.28
831290.0,214.0,33.0,258.0,264.0,831.29
831300.0,219.0,33.0,254.0,262.0,831.3
831310.0,209.0,32.0,255.0,259.0,831.31
831320.0,213.0,32.0,248.0,257.0,831.32
831330.0,207.0,32.0,252.0,258.0,831.33
831340.0,214.0,32.0,258.0,266.0,831.34
831350.0,218.0,33.0,253.0,266.0,831.35
831360.0,212.0,32.0,258.0,266.0,831.36
831370.0,214.0,32.0,250.0,263.0,831.37
831380.0,209.0,32.0,253.0,263.0,831.38
831390.0,216.0,32.0,258.0,270.0,831.39
831400.0,220.0,32.0,252.0,267.0,831.4
831410.0,213.0,32.0,257.0,267.0,831.41
831420.0,215.0,32.0,248.0,263.0,831.42
831430.0,215.0,32.0,254.0,265.0,831.43
831440.0,220.0,32.0,260.0,271.0,831.44
831450.0,223.0,32.0,255.0,269.0,831.45
831460.0,216.0,32.0,258.0,267.0,831.46
831470.0,218.0,32.0,251.0,265.0,831.47
831480.0,215.0,33.0,256.0,269.0,831.48
831490.0,218.0,31.0,259.0,271.0,831.49
831500.0,223.0,32.0,256.0,270.0,831.5
831510.0,219.0,32.0,259.0,267.0,831.51
831520.0,221.0,32.0,250.0,265.0,831.52
831531.0,219.0,32.0,256.0,267.0,831.531
831541.0,221.0,32.0,260.0,271.0,831.541
831551.0,222.0,33.0,251.0,267.0,831.551
831561.0,213.0,32.0,255.0,265.0,831.561
831571.0,215.0,32.0,249.0,266.0,831.571
831581.0,218.0,32.0,256.0,270.0,831.581
831591.0,220.0,32.0,260.0,272.0,831.591
831601.0,220.0,32.0,249.0,266.0,831.601
831611.0,209.0,32.0,253.0,263.0,831.611
831621.0,215.0,32.0,248.0,262.0,831.621
831631.0,216.0,33.0,253.0,268.0,831.631
831641.0,217.0,32.0,257.0,269.0,831.641
831651.0,218.0,32.0,248.0,266.0,831.651
831661.0,211.0,32.0,255.0,266.0,831.661
831671.0,214.0,33.0,249.0,266.0,831.671
831681.0,219.0,32.0,258.0,270.0,831.681
831691.0,219.0,32.0,261.0,271.0,831.691
831702.0,219.0,33.0,250.0,266.0,831.702
831712.0,211.0,32.0,253.0,262.0,831.712
831722.0,216.0,33.0,254.0,267.0,831.722
831732.0,222.0,32.0,257.0,271.0,831.732
831742.0,216.0,32.0,260.0,268.0,831.742
831752.0,220.0,32.0,251.0,265.0,831.752
831762.0,209.0,32.0,255.0,262.0,831.762
831772.0,212.0,32.0,256.0,268.0,831.772
831782.0,218.0,32.0,258.0,270.0,831.782
831792.0,214.0,31.0,262.0,268.0,831.792
831802.0,215.0,33.0,251.0,265.0,831.802
831812.0,208.0,32.0,256.0,261.0,831.812
831822.0,215.0,32.0,258.0,268.0,831.822
831832.0,219.0,32.0,260.0,270.0,831.832
831842.0,216.0,32.0,262.0,268.0,831.842
831852.0,216.0,32.0,252.0,264.0,831.852
831862.0,210.0,32.0,256.0,261.0,831.862
831872.0,217.0,32.0,254.0,264.0,831.872
831882.0,223.0,32.0,260.0,270.0,831.882
831892.0,219.0,32.0,262.0,268.0,831.892
831902.0,219.0,31.0,252.0,263.0,831.902
831912.0,211.0,32.0,254.0,260.0,831.912
831922.0,216.0,32.0,254.0,263.0,831.922
831932.0,222.0,33.0,258.0,268.0,831.932
831942.0,218.0,31.0,261.0,265.0,831.942
831952.0,216.0,32.0,251.0,262.0,831.952
831962.0,211.0,32.0,256.0,257.0,831.962
831972.0,217.0,32.0,255.0,263.0,831.972
831982.0,223.0,32.0,258.0,267.0,831.982
831992.0,217.0,32.0,260.0,264.0,831.992
832002.0,221.0,32.0,251.0,261.0,832.002
832012.0,210.0,32.0,253.0,256.0,832.012
832022.0,217.0,32.0,255.0,262.0,832.022
832032.0,222.0,33.0,257.0,266.0,832.032
832043.0,219.0,32.0,259.0,261.0,832.043
832053.0,222.0,32.0,251.0,261.0,832.053
832063.0,218.0,32.0,255.0,260.0,832.063
832073.0,223.0,32.0,260.0,265.0,832.073
832083.0,225.0,32.0,253.0,261.0,832.083
832093.0,220.0,31.0,258.0,259.0,832.093
832103.0,219.0,32.0,250.0,258.0,832.103
832113.0,217.0,32.0,254.0,259.0,832.113
832123.0,223.0,32.0,259.0,264.0,832.123
832133.0,226.0,32.0,256.0,264.0,832.133
832143.0,218.0,32.0,257.0,258.0,832.143
832153.0,220.0,32.0,250.0,257.0,832.153
832163.0,218.0,32.0,254.0,260.0,832.163
832173.0,221.0,32.0,256.0,263.0,832.173
832183.0,229.0,32.0,253.0,264.0,832.183
832193.0,220.0,32.0,255.0,258.0,832.193
832203.0,221.0,31.0,249.0,257.0,832.203
832214.0,221.0,32.0,256.0,261.0,832.214
832224.0,223.0,33.0,259.0,267.0,832.224
832234.0,223.0,32.0,250.0,262.0,832.234
832244.0,215.0,32.0,253.0,257.0,832.244
832254.0,217.0,32.0,249.0,260.0,832.254
832264.0,219.0,32.0,254.0,263.0,832.264
832274.0,224.0,32.0,260.0,266.0,832.274
832284.0,225.0,31.0,249.0,261.0,832.284
832294.0,216.0,32.0,251.0,255.0,832.294
832304.0,219.0,32.0,247.0,258.0,832.304
832314.0,220.0,33.0,254.0,262.0,832.314
832324.0,222.0,31.0,258.0,263.0,832.324
832334.0,221.0,32.0,249.0,260.0,832.334
832344.0,216.0,31.0,255.0,257.0,832.344
832354.0,218.0,32.0,248.0,257.0,832.354
832364.0,221.0,32.0,256.0,262.0,832.364
832374.0,220.0,32.0,257.0,263.0,832.374
832384.0,224.0,32.0,251.0,260.0,832.384
832394.0,213.0,31.0,252.0,254.0,832.394
832404.0,215.0,32.0,247.0,256.0,832.404
832414.0,219.0,31.0,254.0,263.0,832.414
832424.0,218.0,32.0,257.0,262.0,832.424
832434.0,221.0,32.0,249.0,262.0,832.434
832444.0,211.0,32.0,253.0,256.0,832.444
832454.0,215.0,31.0,247.0,257.0,832.454
832464.0,220.0,32.0,255.0,262.0,832.464
832474.0,218.0,31.0,258.0,261.0,832.474
832484.0,219.0,32.0,248.0,258.0,832.484
832494.0,210.0,31.0,252.0,252.0,832.494
832504.0,213.0,32.0,249.0,256.0,832.504
832514.0,215.0,32.0,255.0,259.0,832.514
832524.0,219.0,32.0,259.0,262.0,832.524
832534.0,218.0,32.0,250.0,259.0,832.534
832544.0,208.0,32.0,252.0,253.0,832.544
832555.0,213.0,30.0,250.0,257.0,832.555
832565.0,218.0,32.0,255.0,262.0,832.565
832575.0,215.0,32.0,257.0,258.0,832.575
832585.0,216.0,32.0,247.0,256.0,832.585
832595.0,208.0,32.0,247.0,251.0,832.595
832605.0,214.0,33.0,248.0,258.0,832.605
832615.0,220.0,32.0,253.0,261.0,832.615
832625.0,216.0,31.0,254.0,257.0,832.625
832635.0,216.0,32.0,245.0,255.0,832.635
832645.0,209.0,31.0,247.0,248.0,832.645
832655.0,214.0,32.0,248.0,256.0,832.655
832665.0,222.0,32.0,251.0,259.0,832.665
832675.0,216.0,32.0,251.0,254.0,832.675
832685.0,218.0,32.0,243.0,254.0,832.685
832695.0,209.0,32.0,244.0,248.0,832.695
832705.0,217.0,31.0,247.0,256.0,832.705
832715.0,222.0,32.0,248.0,259.0,832.715
832726.0,215.0,32.0,249.0,253.0,832.726
832736.0,216.0,32.0,242.0,253.0,832.736
832746.0,213.0,32.0,246.0,252.0,832.746
832756.0,217.0,33.0,250.0,257.0,832.756
832766.0,221.0,33.0,244.0,255.0,832.766
832776.0,214.0,31.0,249.0,252.0,832.776
832786.0,216.0,32.0,241.0,250.0,832.786
832796.0,213.0,32.0,246.0,252.0,832.796
832806.0,218.0,32.0,252.0,256.0,832.806
832816.0,221.0,33.0,247.0,258.0,832.816
832826.0,214.0,32.0,248.0,250.0,832.826
832836.0,215.0,32.0,242.0,250.0,832.836
832846.0,212.0,32.0,246.0,252.0,832.846
832856.0,215.0,32.0,249.0,255.0,832.856
832866.0,219.0,32.0,246.0,256.0,832.866
832876.0,211.0,32.0,246.0,249.0,832.876
832886.0,213.0,33.0,240.0,250.0,832.886
832896.0,209.0,32.0,242.0,247.0,832.896
832906.0,217.0,32.0,250.0,258.0,832.906
832916.0,220.0,32.0,245.0,256.0,832.916
832926.0,211.0,32.0,243.0,250.0,832.926
832936.0,211.0,31.0,237.0,249.0,832.936
832946.0,207.0,33.0,238.0,248.0,832.946
832956.0,215.0,32.0,244.0,254.0,832.956
832966.0,219.0,32.0,239.0,254.0,832.966
832976.0,210.0,32.0,238.0,249.0,832.976
832986.0,213.0,32.0,235.0,254.0,832.986
832996.0,210.0,32.0,236.0,253.0,832.996
833006.0,219.0,32.0,241.0,257.0,833.006
833016.0,223.0,33.0,237.0,256.0,833.016
833026.0,217.0,31.0,237.0,251.0,833.026
833036.0,217.0,32.0,232.0,253.0,833.036
833046.0,216.0,31.0,233.0,254.0,833.046
833056.0,219.0,33.0,237.0,260.0,833.056
833067.0,221.0,32.0,230.0,256.0,833.067
833077.0,212.0,31.0,224.0,249.0,833.077
833087.0,214.0,32.0,221.0,250.0,833.087
833097.0,217.0,31.0,228.0,256.0,833.097
833107.0,217.0,32.0,229.0,253.0,833.107
833117.0,219.0,32.0,223.0,251.0,833.117
833127.0,209.0,32.0,218.0,242.0,833.127
833137.0,212.0,33.0,216.0,246.0,833.137
833147.0,218.0,32.0,225.0,254.0,833.147
833157.0,216.0,31.0,224.0,253.0,833.157
833167.0,219.0,33.0,223.0,251.0,833.167
833177.0,208.0,32.0,216.0,245.0,833.177
833187.0,212.0,32.0,218.0,249.0,833.187
833197.0,213.0,32.0,223.0,253.0,833.197
833207.0,214.0,32.0,224.0,253.0,833.207
833217.0,216.0,32.0,220.0,251.0,833.217
833227.0,208.0,32.0,213.0,243.0,833.227
833238.0,213.0,32.0,216.0,251.0,833.238
833248.0,219.0,33.0,222.0,256.0,833.248
833258.0,216.0,32.0,217.0,251.0,833.258
833268.0,216.0,32.0,213.0,248.0,833.268
833278.0,210.0,32.0,210.0,244.0,833.278
833288.0,214.0,32.0,213.0,248.0,833.288
833298.0,221.0,32.0,219.0,252.0,833.298
833308.0,216.0,31.0,214.0,248.0,833.308
833318.0,217.0,32.0,213.0,247.0,833.318
833328.0,210.0,32.0,205.0,241.0,833.328
833338.0,215.0,32.0,212.0,249.0,833.338
833348.0,221.0,31.0,218.0,253.0,833.348
833358.0,215.0,32.0,213.0,248.0,833.358
833368.0,218.0,31.0,213.0,249.0,833.368
833378.0,209.0,32.0,202.0,241.0,833.378
833388.0,215.0,33.0,209.0,249.0,833.388
833398.0,221.0,32.0,215.0,253.0,833.398
833408.0,218.0,32.0,211.0,249.0,833.408
833418.0,217.0,33.0,207.0,247.0,833.418
833428.0,209.0,32.0,199.0,240.0,833.428
833438.0,211.0,32.0,208.0,250.0,833.438
833448.0,216.0,32.0,212.0,252.0,833.448
833458.0,212.0,32.0,203.0,245.0,833.458
833468.0,213.0,32.0,203.0,244.0,833.468
833478.0,207.0,33.0,198.0,241.0,833.478
833488.0,216.0,32.0,210.0,249.0,833.488
833498.0,218.0,32.0,212.0,252.0,833.498
833508.0,215.0,32.0,206.0,246.0,833.508
833518.0,217.0,33.0,206.0,248.0,833.518
833528.0,211.0,32.0,202.0,243.0,833.528
833538.0,216.0,32.0,208.0,248.0,833.538
833548.0,220.0,33.0,213.0,252.0,833.548
833558.0,215.0,32.0,208.0,248.0,833.558
833568.0,215.0,33.0,208.0,246.0,833.568
833579.0,211.0,32.0,204.0,244.0,833.579
833589.0,217.0,33.0,212.0,251.0,833.589
833599.0,221.0,32.0,214.0,251.0,833.599
833609.0,212.0,32.0,204.0,244.0,833.609
833619.0,214.0,32.0,205.0,245.0,833.619
833629.0,211.0,33.0,203.0,246.0,833.629
833639.0,218.0,32.0,212.0,253.0,833.639
833649.0,224.0,33.0,215.0,255.0,833.649
833659.0,214.0,32.0,205.0,246.0,833.659
833669.0,217.0,32.0,207.0,249.0,833.669
833679.0,214.0,33.0,206.0,248.0,833.679
833689.0,220.0,31.0,213.0,255.0,833.689
833699.0,221.0,32.0,213.0,254.0,833.699
833709.0,214.0,32.0,205.0,249.0,833.709
833719.0,216.0,32.0,206.0,249.0,833.719
833729.0,214.0,32.0,206.0,249.0,833.729
833739.0,218.0,32.0,211.0,253.0,833.739
833750.0,220.0,33.0,209.0,251.0,833.75
833760.0,211.0,32.0,203.0,244.0,833.76
833770.0,214.0,32.0,205.0,247.0,833.77
833780.0,219.0,33.0,211.0,254.0,833.78
833790.0,218.0,32.0,212.0,251.0,833.79
833800.0,219.0,32.0,210.0,250.0,833.8
833810.0,213.0,31.0,205.0,243.0,833.81
833820.0,214.0,33.0,207.0,248.0,833.82
833830.0,220.0,32.0,215.0,253.0,833.83
833840.0,218.0,33.0,217.0,253.0,833.84
833850.0,220.0,32.0,213.0,250.0,833.85
833860.0,211.0,32.0,207.0,242.0,833.86
833870.0,214.0,32.0,211.0,248.0,833.87
833880.0,217.0,32.0,215.0,253.0,833.88
833890.0,218.0,32.0,217.0,252.0,833.89
833900.0,217.0,32.0,213.0,249.0,833.9
833910.0,211.0,32.0,208.0,241.0,833.91
833920.0,216.0,32.0,210.0,246.0,833.92
833930.0,220.0,32.0,217.0,252.0,833.93
833940.0,220.0,31.0,218.0,251.0,833.94
833950.0,219.0,32.0,213.0,248.0,833.95
833960.0,210.0,32.0,206.0,241.0,833.96
833970.0,214.0,33.0,209.0,247.0,833.97
833980.0,219.0,31.0,219.0,254.0,833.98
833990.0,217.0,32.0,217.0,253.0,833.99
834000.0,218.0,32.0,214.0,250.0,834.0
834010.0,211.0,32.0,210.0,246.0,834.01
834020.0,213.0,32.0,210.0,247.0,834.02
834030.0,218.0,33.0,217.0,254.0,834.03
834040.0,216.0,32.0,216.0,252.0,834.04
834050.0,218.0,32.0,211.0,249.0,834.05
834060.0,210.0,31.0,203.0,240.0,834.06
834070.0,214.0,31.0,206.0,246.0,834.07
834080.0,220.0,32.0,217.0,253.0,834.08
834091.0,219.0,32.0,215.0,250.0,834.091
834101.0,221.0,32.0,211.0,248.0,834.101
834111.0,213.0,32.0,205.0,242.0,834.111
834121.0,220.0,32.0,214.0,250.0,834.121
834131.0,224.0,31.0,216.0,253.0,834.131
834141.0,218.0,32.0,215.0,248.0,834.141
834151.0,219.0,32.0,211.0,247.0,834.151
834161.0,212.0,33.0,209.0,243.0,834.161
834171.0,220.0,31.0,218.0,252.0,834.171
834181.0,222.0,32.0,219.0,254.0,834.181
834191.0,218.0,31.0,217.0,248.0,834.191
834201.0,217.0,33.0,213.0,248.0,834.201
834211.0,213.0,31.0,213.0,244.0,834.211
834221.0,217.0,33.0,217.0,248.0,834.221
834231.0,223.0,32.0,223.0,252.0,834.231
834241.0,217.0,31.0,220.0,246.0,834.241
834251.0,217.0,32.0,216.0,246.0,834.251
834262.0,212.0,31.0,215.0,243.0,834.262
834272.0,219.0,32.0,222.0,250.0,834.272
834282.0,221.0,33.0,219.0,250.0,834.282
834292.0,212.0,32.0,215.0,242.0,834.292
834302.0,214.0,32.0,213.0,244.0,834.302
834312.0,213.0,32.0,216.0,245.0,834.312
834322.0,221.0,32.0,223.0,251.0,834.322
834332.0,222.0,33.0,220.0,251.0,834.332
834342.0,213.0,32.0,218.0,242.0,834.342
834352.0,216.0,32.0,217.0,247.0,834.352
834362.0,214.0,31.0,219.0,247.0,834.362
834372.0,218.0,32.0,224.0,251.0,834.372
834382.0,221.0,32.0,222.0,249.0,834.382
834392.0,213.0,31.0,220.0,246.0,834.392
834402.0,215.0,32.0,218.0,246.0,834.402
834412.0,214.0,33.0,221.0,250.0,834.412
834422.0,217.0,32.0,227.0,252.0,834.422
834432.0,221.0,31.0,223.0,253.0,834.432
834442.0,212.0,32.0,219.0,243.0,834.442
834452.0,214.0,32.0,216.0,245.0,834.452
834462.0,215.0,32.0,221.0,248.0,834.462
834472.0,217.0,31.0,227.0,251.0,834.472
834482.0,220.0,32.0,224.0,252.0,834.482
834492.0,210.0,31.0,221.0,242.0,834.492
834502.0,212.0,32.0,218.0,245.0,834.502
834512.0,216.0,32.0,226.0,250.0,834.512
834522.0,216.0,32.0,228.0,251.0,834.522
834532.0,221.0,32.0,227.0,251.0,834.532
834542.0,212.0,33.0,224.0,243.0,834.542
834552.0,215.0,32.0,223.0,245.0,834.552
834562.0,212.0,32.0,226.0,245.0,834.562
834572.0,219.0,32.0,233.0,251.0,834.572
834582.0,220.0,32.0,227.0,250.0,834.582
834592.0,211.0,33.0,224.0,241.0,834.592
834603.0,214.0,32.0,222.0,244.0,834.603
834613.0,218.0,32.0,229.0,250.0,834.613
834623.0,218.0,32.0,229.0,249.0,834.623
834633.0,218.0,32.0,224.0,247.0,834.633
834643.0,212.0,32.0,221.0,240.0,834.643
834653.0,217.0,33.0,223.0,245.0,834.653
834663.0,222.0,33.0,229.0,252.0,834.663
834673.0,219.0,32.0,230.0,248.0,834.673
834683.0,219.0,32.0,223.0,246.0,834.683
834693.0,212.0,32.0,224.0,240.0,834.693
834703.0,215.0,32.0,223.0,244.0,834.703
834713.0,220.0,33.0,230.0,253.0,834.713
834723.0,219.0,32.0,231.0,247.0,834.723
834733.0,220.0,32.0,227.0,249.0,834.733
834743.0,214.0,31.0,225.0,240.0,834.743
834753.0,217.0,32.0,226.0,246.0,834.753
834763.0,224.0,32.0,237.0,254.0,834.763
834774.0,219.0,33.0,235.0,250.0,834.774
834784.0,219.0,32.0,228.0,249.0,834.784
834794.0,211.0,32.0,228.0,242.0,834.794
834804.0,219.0,32.0,235.0,251.0,834.804
834814.0,223.0,33.0,234.0,253.0,834.814
834824.0,218.0,32.0,235.0,248.0,834.824
834834.0,218.0,33.0,230.0,248.0,834.834
834844.0,212.0,33.0,229.0,244.0,834.844
834854.0,221.0,32.0,236.0,252.0,834.854
834864.0,222.0,33.0,238.0,254.0,834.864
834874.0,217.0,32.0,238.0,247.0,834.874
834884.0,217.0,32.0,230.0,246.0,834.884
834894.0,212.0,32.0,231.0,242.0,834.894
834904.0,216.0,33.0,234.0,247.0,834.904
834914.0,222.0,33.0,236.0,251.0,834.914
834924.0,215.0,32.0,236.0,244.0,834.924
834934.0,217.0,32.0,230.0,244.0,834.934
834944.0,209.0,32.0,229.0,238.0,834.944
834954.0,217.0,32.0,233.0,247.0,834.954
834964.0,222.0,32.0,234.0,251.0,834.964
834974.0,217.0,32.0,233.0,243.0,834.974
834984.0,218.0,33.0,227.0,245.0,834.984
834994.0,211.0,33.0,227.0,238.0,834.994
835004.0,218.0,31.0,235.0,248.0,835.004
835014.0,223.0,32.0,236.0,251.0,835.014
835024.0,216.0,32.0,233.0,244.0,835.024
835034.0,218.0,33.0,229.0,246.0,835.034
835044.0,211.0,33.0,228.0,241.0,835.044
835054.0,219.0,33.0,237.0,251.0,835.054
835064.0,223.0,32.0,236.0,255.0,835.064
835074.0,217.0,32.0,236.0,250.0,835.074
835084.0,221.0,32.0,231.0,249.0,835.084
835094.0,214.0,32.0,231.0,244.0,835.094
835104.0,222.0,33.0,239.0,253.0,835.104
835115.0,224.0,33.0,235.0,253.0,835.115
835125.0,217.0,32.0,235.0,243.0,835.125
835135.0,217.0,32.0,229.0,245.0,835.135
835145.0,219.0,32.0,234.0,249.0,835.145
835155.0,220.0,31.0,238.0,249.0,835.155
835165.0,222.0,33.0,233.0,250.0,835.165
835175.0,214.0,32.0,235.0,242.0,835.175
835185.0,215.0,32.0,231.0,244.0,835.185
835195.0,222.0,32.0,237.0,249.0,835.195
835205.0,222.0,33.0,240.0,249.0,835.205
835215.0,224.0,32.0,235.0,249.0,835.215
835225.0,215.0,33.0,235.0,240.0,835.225
835235.0,216.0,33.0,230.0,243.0,835.235
835245.0,216.0,33.0,235.0,244.0,835.245
835255.0,221.0,32.0,242.0,247.0,835.255
835265.0,221.0,33.0,235.0,248.0,835.265
835275.0,214.0,32.0,236.0,238.0,835.275
835286.0,215.0,32.0,232.0,243.0,835.286
835296.0,221.0,33.0,241.0,249.0,835.296
835306.0,222.0,33.0,242.0,247.0,835.306
835316.0,222.0,33.0,237.0,246.0,835.316
835326.0,213.0,32.0,234.0,239.0,835.326
835336.0,217.0,33.0,236.0,245.0,835.336
835346.0,223.0,33.0,242.0,252.0,835.346
835356.0,221.0,32.0,243.0,247.0,835.356
835366.0,220.0,32.0,235.0,246.0,835.366
835376.0,216.0,32.0,235.0,238.0,835.376
835386.0,219.0,32.0,233.0,244.0,835.386
835396.0,224.0,33.0,240.0,250.0,835.396
835406.0,222.0,31.0,239.0,245.0,835.406
835416.0,221.0,33.0,233.0,247.0,835.416
835426.0,216.0,32.0,233.0,239.0,835.426
835436.0,219.0,33.0,234.0,247.0,835.436
835446.0,227.0,32.0,240.0,252.0,835.446
835456.0,224.0,32.0,239.0,249.0,835.456
835466.0,223.0,32.0,233.0,247.0,835.466
835476.0,216.0,33.0,229.0,238.0,835.476
835486.0,219.0,32.0,233.0,246.0,835.486
835496.0,225.0,32.0,236.0,252.0,835.496
835506.0,223.0,32.0,238.0,247.0,835.506
835516.0,221.0,32.0,230.0,246.0,835.516
835526.0,215.0,32.0,228.0,237.0,835.526
835536.0,220.0,32.0,231.0,246.0,835.536
835546.0,228.0,32.0,234.0,248.0,835.546
835556.0,226.0,31.0,235.0,244.0,835.556
835566.0,223.0,33.0,230.0,244.0,835.566
835576.0,219.0,31.0,228.0,237.0,835.576
835586.0,222.0,33.0,228.0,243.0,835.586
835596.0,228.0,33.0,237.0,250.0,835.596
835606.0,226.0,33.0,236.0,245.0,835.606
835616.0,223.0,32.0,227.0,245.0,835.616
835627.0,217.0,32.0,225.0,237.0,835.627
835637.0,224.0,32.0,232.0,246.0,835.637
835647.0,231.0,33.0,232.0,251.0,835.647
835657.0,226.0,33.0,232.0,241.0,835.657
835667.0,224.0,34.0,225.0,243.0,835.667
835677.0,218.0,32.0,224.0,236.0,835.677
835687.0,225.0,33.0,231.0,246.0,835.687
835697.0,228.0,33.0,231.0,247.0,835.697
835707.0,222.0,32.0,228.0,238.0,835.707
835717.0,222.0,33.0,225.0,241.0,835.717
835727.0,216.0,33.0,224.0,238.0,835.727
835737.0,224.0,32.0,232.0,244.0,835.737
835747.0,229.0,32.0,233.0,247.0,835.747
835757.0,224.0,33.0,233.0,241.0,835.757
835767.0,223.0,32.0,229.0,242.0,835.767
835777.0,218.0,33.0,228.0,242.0,835.777
835787.0,226.0,32.0,235.0,248.0,835.787
835798.0,227.0,33.0,230.0,250.0,835.798
835808.0,219.0,32.0,230.0,240.0,835.808
835818.0,220.0,33.0,226.0,244.0,835.818
835828.0,223.0,32.0,233.0,249.0,835.828
835838.0,224.0,33.0,234.0,248.0,835.838
835848.0,228.0,33.0,231.0,249.0,835.848
835858.0,220.0,32.0,229.0,240.0,835.858
835868.0,221.0,32.0,227.0,242.0,835.868
835878.0,224.0,33.0,233.0,250.0,835.878
835888.0,225.0,32.0,235.0,248.0,835.888
835898.0,227.0,33.0,230.0,247.0,835.898
835908.0,220.0,32.0,229.0,238.0,835.908
835918.0,220.0,32.0,226.0,242.0,835.918
835928.0,221.0,32.0,229.0,244.0,835.928
835938.0,225.0,32.0,235.0,249.0,835.938
835948.0,224.0,33.0,228.0,248.0,835.948
835958.0,217.0,32.0,229.0,238.0,835.958
835968.0,220.0,32.0,227.0,244.0,835.968
835978.0,220.0,32.0,232.0,245.0,835.978
835988.0,223.0,32.0,237.0,248.0,835.988
835998.0,223.0,32.0,231.0,248.0,835.998
836008.0,217.0,33.0,231.0,239.0,836.008
836018.0,219.0,32.0,229.0,243.0,836.018
836028.0,224.0,32.0,236.0,247.0,836.028
836038.0,228.0,32.0,241.0,248.0,836.038
836048.0,225.0,33.0,233.0,248.0,836.048
836058.0,219.0,32.0,236.0,240.0,836.058
836068.0,220.0,33.0,232.0,244.0,836.068
836078.0,223.0,32.0,239.0,249.0,836.078
836088.0,224.0,32.0,241.0,248.0,836.088
836098.0,224.0,33.0,236.0,250.0,836.098
836108.0,214.0,32.0,235.0,241.0,836.108
836118.0,216.0,33.0,231.0,244.0,836.118
836128.0,220.0,32.0,238.0,249.0,836.128
836139.0,221.0,33.0,239.0,248.0,836.139
836149.0,221.0,32.0,232.0,247.0,836.149
836159.0,213.0,32.0,229.0,240.0,836.159
836169.0,219.0,32.0,236.0,249.0,836.169
836179.0,222.0,33.0,238.0,254.0,836.179
836189.0,218.0,32.0,237.0,249.0,836.189
836199.0,219.0,32.0,230.0,247.0,836.199
836209.0,212.0,31.0,227.0,239.0,836.209
836219.0,217.0,32.0,232.0,249.0,836.219
836229.0,222.0,32.0,235.0,252.0,836.229
836239.0,220.0,32.0,235.0,248.0,836.239
836249.0,219.0,32.0,227.0,246.0,836.249
836259.0,213.0,32.0,226.0,240.0,836.259
836269.0,214.0,32.0,227.0,245.0,836.269
836279.0,221.0,32.0,235.0,251.0,836.279
836289.0,217.0,32.0,235.0,250.0,836.289
836299.0,217.0,32.0,229.0,248.0,836.299
836310.0,212.0,32.0,228.0,243.0,836.31
836320.0,220.0,32.0,237.0,252.0,836.32
836330.0,223.0,33.0,237.0,254.0,836.33
836340.0,220.0,31.0,237.0,245.0,836.34
836350.0,221.0,33.0,231.0,245.0,836.35
836360.0,216.0,32.0,231.0,242.0,836.36
836370.0,224.0,32.0,238.0,250.0,836.37
836380.0,226.0,32.0,236.0,254.0,836.38
836390.0,219.0,33.0,235.0,244.0,836.39
836400.0,221.0,32.0,231.0,247.0,836.4
836410.0,216.0,32.0,232.0,243.0,836.41
836420.0,223.0,32.0,240.0,252.0,836.42
836430.0,222.0,32.0,236.0,252.0,836.43
836440.0,216.0,32.0,238.0,245.0,836.44
836450.0,215.0,32.0,232.0,248.0,836.45
836460.0,213.0,32.0,235.0,244.0,836.46
836470.0,220.0,32.0,243.0,251.0,836.47
836480.0,222.0,32.0,239.0,253.0,836.48
836490.0,217.0,32.0,238.0,245.0,836.49
836500.0,218.0,32.0,231.0,246.0,836.5
836510.0,220.0,32.0,237.0,247.0,836.51
836520.0,224.0,33.0,243.0,252.0,836.52
836530.0,226.0,32.0,240.0,254.0,836.53
836540.0,220.0,32.0,240.0,247.0,836.54
836550.0,220.0,32.0,235.0,247.0,836.55
836560.0,219.0,33.0,238.0,249.0,836.56
836570.0,221.0,32.0,242.0,252.0,836.57
836580.0,225.0,32.0,241.0,255.0,836.58
836590.0,220.0,32.0,241.0,247.0,836.59
836600.0,221.0,32.0,235.0,248.0,836.6
836610.0,217.0,32.0,237.0,244.0,836.61
836620.0,224.0,32.0,244.0,254.0,836.62
836630.0,226.0,33.0,240.0,253.0,836.63
836640.0,219.0,32.0,240.0,244.0,836.64
836651.0,219.0,32.0,236.0,247.0,836.651
836661.0,222.0,31.0,241.0,251.0,836.661
836671.0,223.0,32.0,244.0,252.0,836.671
836681.0,222.0,32.0,236.0,250.0,836.681
836691.0,216.0,32.0,237.0,240.0,836.691
836701.0,219.0,32.0,234.0,245.0,836.701
836711.0,221.0,33.0,240.0,250.0,836.711
836721.0,223.0,32.0,244.0,250.0,836.721
836731.0,222.0,33.0,236.0,247.0,836.731
836741.0,217.0,31.0,239.0,241.0,836.741
836751.0,218.0,32.0,236.0,244.0,836.751
836761.0,221.0,32.0,243.0,250.0,836.761
836771.0,221.0,32.0,247.0,250.0,836.771
836781.0,226.0,32.0,239.0,250.0,836.781
836791.0,217.0,31.0,241.0,242.0,836.791
836801.0,219.0,32.0,237.0,244.0,836.801
836811.0,222.0,33.0,244.0,251.0,836.811
836822.0,222.0,32.0,245.0,247.0,836.822
836832.0,221.0,32.0,236.0,246.0,836.832
836842.0,213.0,32.0,237.0,238.0,836.842
836852.0,220.0,31.0,240.0,246.0,836.852
836862.0,224.0,33.0,244.0,251.0,836.862
836872.0,221.0,32.0,246.0,246.0,836.872
836882.0,221.0,33.0,237.0,245.0,836.882
836892.0,212.0,32.0,237.0,237.0,836.892
836902.0,220.0,32.0,243.0,247.0,836.902
836912.0,224.0,32.0,245.0,250.0,836.912
836922.0,220.0,32.0,245.0,245.0,836.922
836932.0,219.0,32.0,237.0,244.0,836.932
836942.0,214.0,32.0,236.0,238.0,836.942
836952.0,218.0,32.0,238.0,244.0,836.952
836962.0,224.0,33.0,244.0,251.0,836.962
836972.0,220.0,32.0,245.0,245.0,836.972
836982.0,218.0,32.0,236.0,245.0,836.982
836992.0,212.0,31.0,238.0,239.0,836.992
837002.0,218.0,32.0,240.0,247.0,837.002
837012.0,223.0,33.0,246.0,252.0,837.012
837022.0,220.0,32.0,245.0,246.0,837.022
837032.0,219.0,33.0,238.0,246.0,837.032
837042.0,214.0,32.0,238.0,240.0,837.042
837052.0,219.0,32.0,241.0,247.0,837.052
837062.0,225.0,33.0,245.0,252.0,837.062
837072.0,219.0,33.0,244.0,246.0,837.072
837082.0,221.0,32.0,238.0,246.0,837.082
837092.0,216.0,33.0,238.0,240.0,837.092
837102.0,224.0,32.0,243.0,248.0,837.102
837112.0,227.0,32.0,243.0,253.0,837.112
837122.0,224.0,32.0,246.0,248.0,837.122
837132.0,222.0,33.0,238.0,247.0,837.132
837142.0,215.0,32.0,237.0,240.0,837.142
837152.0,222.0,33.0,242.0,251.0,837.152
837163.0,226.0,32.0,243.0,253.0,837.163
837173.0,222.0,32.0,243.0,246.0,837.173
837183.0,223.0,33.0,236.0,246.0,837.183
837193.0,221.0,31.0,241.0,246.0,837.193
837203.0,225.0,32.0,246.0,250.0,837.203
837213.0,227.0,32.0,243.0,252.0,837.213
837223.0,220.0,32.0,243.0,244.0,837.223
837233.0,221.0,31.0,238.0,245.0,837.233
837243.0,221.0,32.0,242.0,247.0,837.243
837253.0,224.0,32.0,246.0,250.0,837.253
837263.0,227.0,33.0,242.0,253.0,837.263
837273.0,221.0,32.0,244.0,243.0,837.273
837283.0,223.0,33.0,237.0,245.0,837.283
837293.0,219.0,32.0,241.0,243.0,837.293
837303.0,225.0,32.0,247.0,251.0,837.303
837313.0,227.0,32.0,243.0,252.0,837.313
837323.0,220.0,32.0,243.0,243.0,837.323
837334.0,221.0,32.0,237.0,244.0,837.334
837344.0,223.0,33.0,243.0,248.0,837.344
837354.0,225.0,33.0,247.0,247.0,837.354
837364.0,223.0,32.0,238.0,246.0,837.364
837374.0,216.0,33.0,240.0,238.0,837.374
837384.0,220.0,32.0,237.0,244.0,837.384
837394.0,224.0,32.0,246.0,249.0,837.394
837404.0,224.0,32.0,248.0,250.0,837.404
837414.0,223.0,33.0,240.0,247.0,837.414
837424.0,218.0,32.0,245.0,242.0,837.424
837434.0,218.0,32.0,239.0,244.0,837.434
837444.0,225.0,33.0,248.0,251.0,837.444
837454.0,223.0,32.0,250.0,249.0,837.454
837464.0,223.0,32.0,242.0,248.0,837.464
837474.0,218.0,33.0,243.0,241.0,837.474
837484.0,220.0,32.0,240.0,245.0,837.484
837494.0,225.0,32.0,247.0,251.0,837.494
837504.0,225.0,32.0,250.0,250.0,837.504
837514.0,224.0,33.0,240.0,249.0,837.514
837524.0,217.0,32.0,242.0,240.0,837.524
837534.0,220.0,33.0,240.0,245.0,837.534
837544.0,225.0,32.0,246.0,252.0,837.544
837554.0,225.0,31.0,248.0,251.0,837.554
837564.0,223.0,32.0,239.0,250.0,837.564
837574.0,216.0,32.0,241.0,242.0,837.574
837584.0,219.0,32.0,240.0,247.0,837.584
837594.0,222.0,32.0,244.0,251.0,837.594
837604.0,224.0,32.0,246.0,251.0,837.604
837614.0,227.0,32.0,239.0,249.0,837.614
837624.0,220.0,32.0,238.0,240.0,837.624
837634.0,222.0,32.0,236.0,245.0,837.634
837644.0,226.0,33.0,242.0,253.0,837.644
837654.0,226.0,32.0,245.0,250.0,837.654
837664.0,224.0,33.0,237.0,250.0,837.664
837675.0,218.0,32.0,238.0,240.0,837.675
837685.0,223.0,32.0,239.0,249.0,837.685
837695.0,227.0,33.0,243.0,253.0,837.695
837705.0,223.0,31.0,244.0,246.0,837.705
837715.0,223.0,32.0,236.0,246.0,837.715
837725.0,216.0,32.0,236.0,239.0,837.725
837735.0,222.0,33.0,240.0,248.0,837.735
837745.0,227.0,32.0,243.0,252.0,837.745
837755.0,223.0,32.0,242.0,245.0,837.755
837765.0,223.0,32.0,236.0,246.0,837.765
837775.0,216.0,32.0,236.0,239.0,837.775
837785.0,223.0,32.0,241.0,250.0,837.785
837795.0,227.0,33.0,242.0,254.0,837.795
837805.0,224.0,32.0,243.0,247.0,837.805
837815.0,220.0,33.0,234.0,247.0,837.815
837825.0,213.0,32.0,235.0,240.0,837.825
837835.0,220.0,33.0,241.0,251.0,837.835
837846.0,223.0,33.0,240.0,253.0,837.846
837856.0,218.0,32.0,239.0,245.0,837.856
837866.0,218.0,32.0,233.0,246.0,837.866
837876.0,219.0,33.0,237.0,247.0,837.876
837886.0,224.0,33.0,242.0,250.0,837.886
837896.0,226.0,33.0,238.0,251.0,837.896
837906.0,219.0,32.0,238.0,242.0,837.906
837916.0,219.0,33.0,233.0,246.0,837.916
837926.0,221.0,33.0,239.0,248.0,837.926
837936.0,223.0,32.0,242.0,251.0,837.936
837946.0,225.0,33.0,239.0,251.0,837.946
837956.0,218.0,33.0,239.0,242.0,837.956
837966.0,218.0,33.0,235.0,244.0,837.966
837976.0,217.0,32.0,238.0,244.0,837.976
837986.0,225.0,33.0,246.0,252.0,837.986
837996.0,227.0,33.0,241.0,251.0,837.996
838006.0,217.0,32.0,240.0,241.0,838.006
838016.0,220.0,33.0,237.0,246.0,838.016
838026.0,217.0,33.0,240.0,246.0,838.026
838036.0,222.0,32.0,246.0,249.0,838.036
838046.0,224.0,33.0,239.0,249.0,838.046
838056.0,216.0,32.0,240.0,240.0,838.056
838066.0,219.0,32.0,237.0,245.0,838.066
838076.0,218.0,33.0,241.0,245.0,838.076
838086.0,222.0,33.0,246.0,248.0,838.086
838096.0,221.0,33.0,238.0,248.0,838.096
838106.0,217.0,32.0,242.0,242.0,838.106
838116.0,217.0,33.0,235.0,243.0,838.116
838126.0,218.0,32.0,241.0,245.0,838.126
838136.0,223.0,32.0,247.0,248.0,838.136
838146.0,224.0,33.0,242.0,250.0,838.146
838156.0,218.0,32.0,241.0,242.0,838.156
838166.0,219.0,32.0,236.0,244.0,838.166
838176.0,220.0,33.0,242.0,248.0,838.176
838187.0,225.0,32.0,246.0,249.0,838.187
838197.0,223.0,33.0,236.0,247.0,838.197
838207.0,216.0,32.0,236.0,239.0,838.207
838217.0,219.0,33.0,235.0,244.0,838.217
838227.0,225.0,32.0,241.0,250.0,838.227
838237.0,223.0,32.0,242.0,247.0,838.237
838247.0,222.0,33.0,234.0,247.0,838.247
838257.0,215.0,32.0,233.0,239.0,838.257
838267.0,219.0,32.0,236.0,246.0,838.267
838277.0,222.0,33.0,238.0,250.0,838.277
838287.0,222.0,32.0,240.0,248.0,838.287
838297.0,222.0,32.0,231.0,247.0,838.297
838307.0,215.0,32.0,231.0,237.0,838.307
838317.0,216.0,33.0,229.0,242.0,838.317
838327.0,220.0,33.0,236.0,247.0,838.327
838337.0,220.0,32.0,237.0,244.0,838.337
838347.0,218.0,33.0,229.0,243.0,838.347
838358.0,212.0,32.0,228.0,236.0,838.358
838368.0,217.0,32.0,233.0,246.0,838.368
838378.0,224.0,32.0,235.0,250.0,838.378
838388.0,219.0,32.0,234.0,243.0,838.388
838398.0,219.0,33.0,229.0,243.0,838.398
838408.0,213.0,33.0,228.0,237.0,838.408
838418.0,220.0,33.0,234.0,247.0,838.418
838428.0,223.0,33.0,236.0,250.0,838.428
838438.0,216.0,32.0,235.0,242.0,838.438
838448.0,217.0,32.0,230.0,244.0,838.448
838458.0,210.0,33.0,229.0,238.0,838.458
838468.0,219.0,31.0,236.0,247.0,838.468
838478.0,222.0,33.0,235.0,250.0,838.478
838488.0,219.0,32.0,237.0,245.0,838.488
838498.0,218.0,33.0,230.0,245.0,838.498
838508.0,213.0,32.0,230.0,240.0,838.508
838518.0,220.0,32.0,237.0,248.0,838.518
838528.0,224.0,33.0,237.0,250.0,838.528
838538.0,219.0,32.0,235.0,244.0,838.538
838548.0,216.0,32.0,230.0,244.0,838.548
838558.0,211.0,31.0,230.0,240.0,838.558
838568.0,217.0,32.0,237.0,247.0,838.568
838578.0,220.0,33.0,236.0,253.0,838.578
838588.0,215.0,33.0,235.0,245.0,838.588
838598.0,215.0,33.0,229.0,245.0,838.598
838608.0,212.0,33.0,231.0,242.0,838.608
838618.0,217.0,33.0,234.0,248.0,838.618
838628.0,222.0,33.0,237.0,252.0,838.628
838638.0,217.0,33.0,235.0,243.0,838.638
838648.0,217.0,33.0,230.0,244.0,838.648
838658.0,212.0,33.0,229.0,238.0,838.658
838668.0,219.0,33.0,235.0,248.0,838.668
838678.0,225.0,33.0,236.0,251.0,838.678
838688.0,217.0,32.0,235.0,242.0,838.688
838699.0,218.0,32.0,230.0,244.0,838.699
838709.0,216.0,33.0,234.0,244.0,838.709
838719.0,222.0,32.0,239.0,248.0,838.719
838729.0,222.0,33.0,232.0,248.0,838.729
838739.0,214.0,32.0,232.0,237.0,838.739
838749.0,217.0,32.0,228.0,241.0,838.749
838759.0,217.0,32.0,232.0,242.0,838.759
838769.0,220.0,32.0,238.0,246.0,838.769
838779.0,221.0,32.0,232.0,246.0,838.779
838789.0,216.0,33.0,233.0,240.0,838.789
838799.0,217.0,32.0,229.0,242.0,838.799
838809.0,222.0,33.0,234.0,248.0,838.809
838819.0,224.0,33.0,238.0,248.0,838.819
838829.0,227.0,33.0,233.0,251.0,838.829
838839.0,218.0,32.0,232.0,242.0,838.839
838849.0,218.0,33.0,228.0,244.0,838.849
838859.0,221.0,33.0,234.0,248.0,838.859
838870.0,223.0,32.0,237.0,247.0,838.87
838880.0,222.0,33.0,230.0,247.0,838.88
838890.0,216.0,32.0,231.0,237.0,838.89
838900.0,217.0,33.0,232.0,244.0,838.9
838910.0,225.0,33.0,238.0,250.0,838.91
838920.0,223.0,33.0,240.0,249.0,838.92
838930.0,222.0,32.0,233.0,246.0,838.93
838940.0,213.0,32.0,232.0,238.0,838.94
838950.0,218.0,33.0,235.0,246.0,838.95
838960.0,221.0,33.0,238.0,250.0,838.96
838970.0,219.0,32.0,242.0,248.0,838.97
838980.0,218.0,33.0,233.0,248.0,838.98
838990.0,211.0,32.0,233.0,239.0,838.99
839000.0,215.0,32.0,232.0,245.0,839.0
839010.0,221.0,32.0,240.0,252.0,839.01
839020.0,219.0,31.0,241.0,249.0,839.02
839030.0,220.0,33.0,234.0,248.0,839.03
839040.0,213.0,31.0,235.0,239.0,839.04
839050.0,216.0,34.0,232.0,244.0,839.05
839060.0,222.0,33.0,240.0,251.0,839.06
839070.0,219.0,32.0,239.0,246.0,839.07
839080.0,218.0,32.0,232.0,246.0,839.08
839090.0,213.0,32.0,232.0,238.0,839.09
839100.0,216.0,32.0,232.0,245.0,839.1
839110.0,222.0,33.0,238.0,251.0,839.11
839120.0,219.0,32.0,238.0,246.0,839.12
839130.0,219.0,32.0,232.0,247.0,839.13
839140.0,213.0,32.0,230.0,238.0,839.14
839150.0,220.0,31.0,233.0,246.0,839.15
839160.0,224.0,33.0,237.0,251.0,839.16
839170.0,220.0,33.0,237.0,249.0,839.17
839180.0,220.0,33.0,230.0,247.0,839.18
839190.0,212.0,32.0,230.0,239.0,839.19
839200.0,217.0,33.0,233.0,246.0,839.2
839211.0,223.0,33.0,237.0,251.0,839.211
839221.0,217.0,33.0,236.0,244.0,839.221
839231.0,218.0,33.0,229.0,245.0,839.231
839241.0,214.0,33.0,231.0,243.0,839.241
839251.0,221.0,32.0,239.0,250.0,839.251
839261.0,223.0,33.0,237.0,252.0,839.261
839271.0,219.0,32.0,237.0,245.0,839.271
839281.0,218.0,32.0,230.0,246.0,839.281
839291.0,215.0,33.0,234.0,246.0,839.291
839301.0,219.0,33.0,235.0,250.0,839.301
839311.0,223.0,32.0,236.0,251.0,839.311
839321.0,216.0,32.0,234.0,244.0,839.321
839331.0,217.0,32.0,229.0,244.0,839.331
839341.0,212.0,31.0,228.0,241.0,839.341
839351.0,219.0,33.0,237.0,250.0,839.351
839361.0,224.0,33.0,235.0,251.0,839.361
839371.0,216.0,32.0,236.0,245.0,839.371
839382.0,216.0,33.0,231.0,246.0,839.382
839392.0,216.0,33.0,236.0,249.0,839.392
839402.0,217.0,31.0,241.0,251.0,839.402
839412.0,218.0,33.0,233.0,249.0,839.412
839422.0,210.0,32.0,235.0,242.0,839.422
839432.0,214.0,33.0,233.0,247.0,839.432
839442.0,215.0,32.0,239.0,249.0,839.442
839452.0,218.0,32.0,243.0,252.0,839.452
839462.0,218.0,32.0,236.0,250.0,839.462
