time (ms),signal 0,signal 1,signal 2,signal 3,time (sec)
796596.0,208.0,33.0,278.0,234.0,796.596
796606.0,214.0,33.0,294.0,240.0,796.606
796616.0,218.0,33.0,310.0,246.0,796.616
796626.0,213.0,33.0,288.0,239.0,796.626
796636.0,215.0,32.0,317.0,240.0,796.636
796646.0,207.0,33.0,295.0,232.0,796.646
796656.0,214.0,32.0,310.0,239.0,796.656
796666.0,218.0,33.0,328.0,244.0,796.666
796676.0,215.0,32.0,306.0,239.0,796.676
796686.0,215.0,34.0,331.0,238.0,796.686
796696.0,208.0,33.0,311.0,230.0,796.696
796706.0,215.0,33.0,325.0,239.0,796.706
796716.0,218.0,33.0,342.0,242.0,796.716
796726.0,216.0,32.0,323.0,238.0,796.726
796736.0,215.0,33.0,350.0,238.0,796.736
796746.0,209.0,33.0,331.0,233.0,796.746
796756.0,216.0,33.0,343.0,242.0,796.756
796766.0,220.0,32.0,362.0,245.0,796.766
796776.0,216.0,32.0,342.0,238.0,796.776
796786.0,216.0,32.0,370.0,239.0,796.786
796796.0,210.0,32.0,351.0,235.0,796.796
796806.0,214.0,32.0,364.0,241.0,796.806
796816.0,220.0,33.0,379.0,247.0,796.816
796826.0,216.0,32.0,355.0,241.0,796.826
796836.0,215.0,33.0,381.0,241.0,796.836
796846.0,210.0,32.0,358.0,234.0,796.846
796856.0,215.0,32.0,371.0,243.0,796.856
796866.0,220.0,33.0,389.0,248.0,796.866
796876.0,215.0,33.0,362.0,242.0,796.876
796886.0,216.0,32.0,387.0,241.0,796.886
796896.0,208.0,32.0,362.0,233.0,796.896
796906.0,215.0,32.0,376.0,242.0,796.906
796916.0,220.0,33.0,394.0,248.0,796.916
796926.0,214.0,32.0,365.0,240.0,796.926
796936.0,215.0,33.0,393.0,244.0,796.936
796946.0,207.0,32.0,368.0,236.0,796.946
796956.0,214.0,32.0,378.0,245.0,796.956
796966.0,219.0,33.0,396.0,250.0,796.966
796976.0,217.0,32.0,368.0,245.0,796.976
796986.0,215.0,33.0,390.0,245.0,796.986
796996.0,209.0,32.0,368.0,239.0,796.996
797006.0,217.0,33.0,374.0,248.0,797.006
797016.0,220.0,32.0,391.0,249.0,797.016
797026.0,216.0,33.0,365.0,244.0,797.026
797036.0,217.0,32.0,390.0,244.0,797.036
797046.0,210.0,32.0,368.0,241.0,797.046
797056.0,216.0,32.0,378.0,246.0,797.056
797066.0,221.0,33.0,391.0,250.0,797.066
797076.0,216.0,32.0,364.0,244.0,797.076
797086.0,216.0,33.0,386.0,245.0,797.086
797096.0,211.0,32.0,367.0,241.0,797.096
797106.0,215.0,31.0,370.0,247.0,797.106
797116.0,221.0,32.0,384.0,251.0,797.116
797126.0,216.0,32.0,355.0,246.0,797.126
797136.0,216.0,33.0,377.0,245.0,797.136
797146.0,210.0,32.0,352.0,239.0,797.146
797156.0,216.0,32.0,359.0,247.0,797.156
797166.0,223.0,31.0,376.0,253.0,797.166
797176.0,215.0,32.0,345.0,246.0,797.176
797186.0,217.0,32.0,371.0,247.0,797.186
797196.0,209.0,33.0,345.0,242.0,797.196
797206.0,216.0,32.0,353.0,250.0,797.206
797216.0,222.0,33.0,368.0,253.0,797.216
797227.0,216.0,31.0,339.0,246.0,797.227
797237.0,216.0,33.0,358.0,247.0,797.237
797247.0,214.0,32.0,348.0,247.0,797.247
797257.0,219.0,32.0,339.0,251.0,797.257
797267.0,220.0,32.0,359.0,249.0,797.267
797277.0,215.0,31.0,329.0,243.0,797.277
797287.0,217.0,32.0,347.0,245.0,797.287
797297.0,216.0,32.0,337.0,247.0,797.297
797307.0,220.0,32.0,328.0,251.0,797.307
797317.0,223.0,32.0,350.0,252.0,797.317
797327.0,215.0,33.0,316.0,244.0,797.327
797337.0,217.0,32.0,335.0,246.0,797.337
797347.0,217.0,33.0,328.0,249.0,797.347
797357.0,221.0,31.0,319.0,251.0,797.357
797367.0,223.0,32.0,336.0,251.0,797.367
797377.0,215.0,32.0,304.0,243.0,797.377
797387.0,216.0,33.0,319.0,246.0,797.387
797398.0,218.0,32.0,315.0,250.0,797.398
797408.0,220.0,31.0,301.0,251.0,797.408
797418.0,221.0,32.0,321.0,249.0,797.418
797428.0,212.0,32.0,290.0,241.0,797.428
797438.0,216.0,32.0,299.0,247.0,797.438
797448.0,219.0,33.0,302.0,252.0,797.448
797458.0,220.0,32.0,286.0,251.0,797.458
797468.0,220.0,32.0,301.0,249.0,797.468
797478.0,212.0,32.0,273.0,241.0,797.478
797488.0,217.0,31.0,283.0,246.0,797.488
797498.0,220.0,32.0,285.0,252.0,797.498
797508.0,220.0,32.0,267.0,250.0,797.508
797518.0,219.0,33.0,281.0,248.0,797.518
797528.0,214.0,32.0,255.0,242.0,797.528
797538.0,215.0,32.0,265.0,246.0,797.538
797548.0,221.0,31.0,272.0,253.0,797.548
797558.0,218.0,32.0,254.0,251.0,797.558
797568.0,219.0,32.0,270.0,249.0,797.568
797578.0,211.0,33.0,242.0,243.0,797.578
797588.0,215.0,32.0,253.0,245.0,797.588
797598.0,220.0,32.0,261.0,252.0,797.598
797608.0,218.0,32.0,244.0,250.0,797.608
797618.0,219.0,32.0,261.0,249.0,797.618
797628.0,211.0,31.0,235.0,242.0,797.628
797638.0,215.0,31.0,245.0,247.0,797.638
797648.0,221.0,32.0,254.0,253.0,797.648
797658.0,219.0,32.0,239.0,251.0,797.658
797668.0,219.0,32.0,253.0,249.0,797.668
797678.0,211.0,31.0,229.0,242.0,797.678
797688.0,214.0,32.0,239.0,248.0,797.688
797698.0,218.0,32.0,243.0,252.0,797.698
797708.0,219.0,32.0,232.0,251.0,797.708
797718.0,220.0,32.0,243.0,249.0,797.718
797728.0,211.0,32.0,219.0,240.0,797.728
797739.0,217.0,32.0,230.0,247.0,797.739
797749.0,222.0,32.0,239.0,253.0,797.749
797759.0,216.0,32.0,220.0,247.0,797.759
797769.0,216.0,33.0,230.0,248.0,797.769
797779.0,211.0,32.0,219.0,244.0,797.779
797789.0,215.0,32.0,223.0,249.0,797.789
797799.0,221.0,32.0,231.0,252.0,797.799
797809.0,216.0,31.0,212.0,247.0,797.809
797819.0,216.0,32.0,222.0,246.0,797.819
797829.0,209.0,32.0,205.0,240.0,797.829
797839.0,216.0,32.0,216.0,249.0,797.839
797849.0,222.0,32.0,224.0,249.0,797.849
797859.0,215.0,32.0,206.0,242.0,797.859
797869.0,219.0,32.0,220.0,244.0,797.869
797879.0,210.0,32.0,200.0,238.0,797.879
797889.0,217.0,32.0,211.0,248.0,797.889
797899.0,222.0,33.0,221.0,253.0,797.899
797910.0,215.0,32.0,204.0,246.0,797.91
797920.0,216.0,32.0,208.0,247.0,797.92
797930.0,215.0,32.0,205.0,248.0,797.93
797940.0,218.0,31.0,202.0,250.0,797.94
797950.0,220.0,32.0,207.0,248.0,797.95
797960.0,212.0,33.0,191.0,244.0,797.96
797970.0,215.0,32.0,197.0,244.0,797.97
797980.0,213.0,32.0,196.0,246.0,797.98
797990.0,218.0,32.0,201.0,250.0,797.99
798000.0,221.0,31.0,203.0,251.0,798.0
798010.0,212.0,32.0,192.0,244.0,798.01
798020.0,214.0,32.0,194.0,246.0,798.02
798030.0,215.0,32.0,199.0,251.0,798.03
798040.0,218.0,32.0,204.0,253.0,798.04
798050.0,224.0,33.0,205.0,254.0,798.05
798060.0,215.0,31.0,201.0,245.0,798.06
798070.0,215.0,32.0,199.0,246.0,798.07
798080.0,211.0,32.0,205.0,246.0,798.08
798090.0,218.0,32.0,217.0,254.0,798.09
798100.0,221.0,32.0,215.0,252.0,798.1
798110.0,211.0,31.0,221.0,244.0,798.11
798120.0,211.0,32.0,220.0,245.0,798.12
798130.0,208.0,31.0,227.0,248.0,798.13
798140.0,215.0,32.0,236.0,253.0,798.14
798150.0,218.0,33.0,231.0,252.0,798.15
798160.0,208.0,32.0,243.0,245.0,798.16
798170.0,213.0,32.0,239.0,247.0,798.17
798180.0,213.0,32.0,249.0,249.0,798.18
798190.0,216.0,31.0,258.0,255.0,798.19
798200.0,216.0,32.0,248.0,253.0,798.2
798210.0,207.0,32.0,258.0,250.0,798.21
798220.0,209.0,32.0,250.0,249.0,798.22
798230.0,209.0,31.0,261.0,251.0,798.23
798240.0,212.0,32.0,269.0,254.0,798.24
798251.0,216.0,31.0,258.0,251.0,798.251
798261.0,208.0,31.0,271.0,247.0,798.261
798271.0,212.0,32.0,268.0,252.0,798.271
798281.0,218.0,32.0,275.0,257.0,798.281
798291.0,214.0,31.0,281.0,250.0,798.291
798301.0,213.0,31.0,269.0,250.0,798.301
798311.0,207.0,31.0,285.0,246.0,798.311
798321.0,213.0,32.0,279.0,254.0,798.321
798331.0,221.0,31.0,288.0,263.0,798.331
798341.0,218.0,33.0,293.0,262.0,798.341
798351.0,216.0,32.0,280.0,254.0,798.351
798361.0,206.0,31.0,289.0,247.0,798.361
798371.0,211.0,32.0,284.0,253.0,798.371
798381.0,215.0,31.0,288.0,257.0,798.381
798391.0,215.0,32.0,293.0,255.0,798.391
798401.0,217.0,32.0,279.0,252.0,798.401
798411.0,211.0,32.0,286.0,244.0,798.411
798422.0,216.0,32.0,282.0,252.0,798.422
798432.0,221.0,33.0,284.0,257.0,798.432
798442.0,216.0,31.0,287.0,251.0,798.442
798452.0,216.0,32.0,273.0,249.0,798.452
798462.0,211.0,32.0,279.0,247.0,798.462
798472.0,216.0,33.0,278.0,253.0,798.472
798482.0,221.0,32.0,279.0,256.0,798.482
798492.0,216.0,32.0,281.0,251.0,798.492
798502.0,217.0,32.0,269.0,250.0,798.502
798512.0,210.0,32.0,268.0,243.0,798.512
798522.0,217.0,32.0,269.0,251.0,798.522
798532.0,222.0,32.0,267.0,255.0,798.532
798542.0,216.0,32.0,270.0,248.0,798.542
798552.0,218.0,33.0,259.0,249.0,798.552
798562.0,210.0,32.0,261.0,241.0,798.562
798572.0,218.0,32.0,264.0,250.0,798.572
798582.0,222.0,33.0,262.0,254.0,798.582
798592.0,215.0,32.0,265.0,251.0,798.592
798602.0,217.0,33.0,253.0,245.0,798.602
798612.0,210.0,32.0,250.0,237.0,798.612
798622.0,219.0,32.0,256.0,247.0,798.622
798632.0,223.0,33.0,253.0,246.0,798.632
798642.0,216.0,32.0,255.0,242.0,798.642
798652.0,217.0,32.0,246.0,243.0,798.652
798662.0,211.0,33.0,249.0,240.0,798.662
798672.0,220.0,32.0,254.0,248.0,798.672
798682.0,222.0,33.0,253.0,251.0,798.682
798692.0,217.0,32.0,256.0,246.0,798.692
798702.0,217.0,32.0,248.0,249.0,798.702
798712.0,212.0,32.0,250.0,247.0,798.712
798722.0,218.0,32.0,251.0,253.0,798.722
798732.0,222.0,32.0,252.0,254.0,798.732
798742.0,216.0,32.0,253.0,247.0,798.742
798752.0,215.0,32.0,244.0,247.0,798.752
798763.0,210.0,32.0,249.0,245.0,798.763
798773.0,216.0,32.0,255.0,252.0,798.773
798783.0,222.0,33.0,250.0,255.0,798.783
798793.0,213.0,33.0,254.0,246.0,798.793
798803.0,215.0,32.0,247.0,247.0,798.803
798813.0,213.0,33.0,250.0,247.0,798.813
798823.0,219.0,32.0,257.0,254.0,798.823
798833.0,222.0,33.0,249.0,253.0,798.833
798843.0,216.0,32.0,254.0,245.0,798.843
798853.0,220.0,33.0,247.0,250.0,798.853
798863.0,219.0,32.0,252.0,249.0,798.863
798873.0,223.0,32.0,258.0,254.0,798.873
798883.0,225.0,33.0,250.0,253.0,798.883
798893.0,218.0,31.0,256.0,247.0,798.893
798903.0,219.0,32.0,248.0,247.0,798.903
798913.0,218.0,32.0,252.0,248.0,798.913
798923.0,221.0,32.0,258.0,252.0,798.923
798934.0,225.0,32.0,248.0,250.0,798.934
798944.0,215.0,32.0,254.0,245.0,798.944
798954.0,219.0,31.0,252.0,250.0,798.954
798964.0,222.0,33.0,258.0,259.0,798.964
798974.0,221.0,33.0,261.0,253.0,798.974
798984.0,223.0,34.0,250.0,252.0,798.984
798994.0,213.0,32.0,256.0,243.0,798.994
799004.0,217.0,32.0,252.0,248.0,799.004
799014.0,228.0,33.0,261.0,258.0,799.014
799024.0,222.0,33.0,262.0,255.0,799.024
799034.0,223.0,32.0,251.0,252.0,799.034
799044.0,214.0,33.0,257.0,249.0,799.044
799054.0,218.0,32.0,254.0,254.0,799.054
799064.0,221.0,33.0,258.0,258.0,799.064
799074.0,221.0,32.0,261.0,256.0,799.074
799084.0,220.0,33.0,247.0,251.0,799.084
799094.0,211.0,32.0,249.0,240.0,799.094
799104.0,216.0,31.0,245.0,245.0,799.104
799114.0,219.0,33.0,253.0,252.0,799.114
799124.0,219.0,32.0,258.0,252.0,799.124
799134.0,220.0,33.0,248.0,250.0,799.134
799144.0,211.0,32.0,248.0,240.0,799.144
799154.0,214.0,33.0,246.0,245.0,799.154
799164.0,220.0,32.0,255.0,253.0,799.164
799174.0,220.0,33.0,259.0,254.0,799.174
799184.0,221.0,32.0,249.0,251.0,799.184
799194.0,212.0,32.0,252.0,243.0,799.194
799204.0,217.0,32.0,247.0,246.0,799.204
799214.0,221.0,32.0,252.0,252.0,799.214
799224.0,219.0,32.0,256.0,248.0,799.224
799234.0,221.0,33.0,246.0,251.0,799.234
799244.0,212.0,32.0,250.0,241.0,799.244
799254.0,216.0,33.0,248.0,248.0,799.254
799264.0,221.0,32.0,256.0,254.0,799.264
799275.0,214.0,31.0,256.0,248.0,799.275
799285.0,214.0,33.0,246.0,248.0,799.285
799295.0,207.0,31.0,248.0,243.0,799.295
799305.0,215.0,33.0,254.0,252.0,799.305
799315.0,222.0,32.0,253.0,255.0,799.315
799325.0,216.0,32.0,257.0,250.0,799.325
799335.0,219.0,32.0,248.0,249.0,799.335
799345.0,210.0,32.0,249.0,245.0,799.345
799355.0,217.0,32.0,256.0,253.0,799.355
799365.0,219.0,33.0,253.0,257.0,799.365
799375.0,214.0,32.0,253.0,252.0,799.375
799385.0,214.0,32.0,244.0,249.0,799.385
799395.0,210.0,32.0,247.0,246.0,799.395
799405.0,214.0,33.0,248.0,251.0,799.405
799415.0,222.0,33.0,251.0,255.0,799.415
799425.0,216.0,33.0,255.0,252.0,799.425
799435.0,215.0,32.0,247.0,252.0,799.435
799446.0,210.0,32.0,249.0,248.0,799.446
799456.0,216.0,32.0,255.0,255.0,799.456
799466.0,220.0,33.0,249.0,259.0,799.466
799476.0,211.0,32.0,251.0,249.0,799.476
799486.0,213.0,33.0,244.0,251.0,799.486
799496.0,211.0,33.0,247.0,249.0,799.496
799506.0,218.0,32.0,253.0,255.0,799.506
799516.0,220.0,33.0,247.0,256.0,799.516
799526.0,214.0,32.0,248.0,247.0,799.526
799536.0,217.0,33.0,244.0,251.0,799.536
799546.0,214.0,32.0,247.0,250.0,799.546
799556.0,219.0,33.0,249.0,252.0,799.556
799566.0,221.0,32.0,242.0,248.0,799.566
799576.0,214.0,32.0,245.0,245.0,799.576
799586.0,217.0,33.0,240.0,247.0,799.586
799596.0,216.0,32.0,246.0,250.0,799.596
799606.0,222.0,32.0,251.0,254.0,799.606
799616.0,224.0,33.0,247.0,257.0,799.616
799626.0,216.0,32.0,246.0,247.0,799.626
799636.0,217.0,32.0,239.0,246.0,799.636
799646.0,217.0,32.0,246.0,249.0,799.646
799656.0,221.0,31.0,249.0,252.0,799.656
799666.0,223.0,32.0,244.0,253.0,799.666
799676.0,213.0,32.0,243.0,245.0,799.676
799686.0,218.0,33.0,237.0,247.0,799.686
799696.0,218.0,32.0,243.0,251.0,799.696
799706.0,220.0,32.0,243.0,254.0,799.706
799716.0,224.0,33.0,239.0,253.0,799.716
799726.0,213.0,32.0,238.0,245.0,799.726
799736.0,216.0,32.0,233.0,245.0,799.736
799746.0,213.0,33.0,236.0,246.0,799.746
799756.0,218.0,32.0,242.0,250.0,799.756
799766.0,222.0,32.0,236.0,249.0,799.766
799776.0,213.0,32.0,236.0,241.0,799.776
799787.0,215.0,31.0,232.0,244.0,799.787
799797.0,219.0,33.0,243.0,253.0,799.797
799807.0,218.0,32.0,246.0,254.0,799.807
799817.0,219.0,32.0,237.0,250.0,799.817
799827.0,209.0,32.0,233.0,242.0,799.827
799837.0,215.0,32.0,233.0,248.0,799.837
799847.0,221.0,33.0,244.0,257.0,799.847
799857.0,218.0,32.0,242.0,255.0,799.857
799867.0,222.0,32.0,236.0,255.0,799.867
799877.0,213.0,33.0,233.0,248.0,799.877
799887.0,216.0,32.0,233.0,250.0,799.887
799897.0,221.0,32.0,239.0,257.0,799.897
799907.0,219.0,31.0,237.0,254.0,799.907
799917.0,221.0,32.0,231.0,253.0,799.917
799927.0,211.0,32.0,226.0,245.0,799.927
799937.0,214.0,33.0,227.0,250.0,799.937
799947.0,221.0,32.0,235.0,258.0,799.947
799958.0,217.0,32.0,232.0,255.0,799.958
799968.0,219.0,33.0,227.0,253.0,799.968
799978.0,209.0,33.0,222.0,247.0,799.978
799988.0,216.0,33.0,227.0,252.0,799.988
799998.0,225.0,33.0,227.0,255.0,799.998
800008.0,219.0,32.0,226.0,250.0,800.008
800018.0,219.0,33.0,222.0,251.0,800.018
800028.0,212.0,32.0,219.0,244.0,800.028
800038.0,219.0,32.0,227.0,252.0,800.038
800048.0,222.0,33.0,228.0,254.0,800.048
800058.0,216.0,32.0,225.0,249.0,800.058
800068.0,216.0,33.0,221.0,249.0,800.068
800078.0,213.0,32.0,220.0,248.0,800.078
800088.0,217.0,32.0,221.0,253.0,800.088
800098.0,223.0,32.0,225.0,256.0,800.098
800108.0,216.0,32.0,222.0,250.0,800.108
800118.0,217.0,32.0,219.0,247.0,800.118
800128.0,209.0,32.0,214.0,242.0,800.128
800138.0,216.0,32.0,221.0,249.0,800.138
800148.0,222.0,34.0,225.0,254.0,800.148
800158.0,215.0,32.0,222.0,248.0,800.158
800168.0,217.0,32.0,218.0,247.0,800.168
800178.0,211.0,32.0,216.0,244.0,800.178
800188.0,218.0,32.0,221.0,253.0,800.188
800198.0,224.0,33.0,224.0,258.0,800.198
800208.0,216.0,32.0,220.0,252.0,800.208
800218.0,218.0,32.0,218.0,254.0,800.218
800228.0,209.0,32.0,214.0,248.0,800.228
800238.0,217.0,32.0,222.0,255.0,800.238
800248.0,223.0,32.0,225.0,258.0,800.248
800258.0,216.0,32.0,222.0,253.0,800.258
800268.0,218.0,32.0,219.0,252.0,800.268
800278.0,214.0,32.0,215.0,248.0,800.278
800288.0,222.0,32.0,224.0,255.0,800.288
800299.0,226.0,32.0,224.0,257.0,800.299
800309.0,217.0,33.0,220.0,250.0,800.309
800319.0,219.0,32.0,218.0,251.0,800.319
800329.0,218.0,32.0,222.0,254.0,800.329
800339.0,222.0,33.0,225.0,256.0,800.339
800349.0,225.0,32.0,223.0,256.0,800.349
800359.0,218.0,31.0,217.0,248.0,800.359
800369.0,221.0,32.0,216.0,250.0,800.369
800379.0,221.0,32.0,222.0,255.0,800.379
800389.0,222.0,32.0,223.0,255.0,800.389
800399.0,226.0,32.0,221.0,256.0,800.399
800409.0,217.0,32.0,217.0,251.0,800.409
800419.0,222.0,32.0,218.0,256.0,800.419
800429.0,218.0,32.0,220.0,255.0,800.429
800439.0,223.0,32.0,227.0,262.0,800.439
800449.0,226.0,32.0,225.0,264.0,800.449
800459.0,217.0,31.0,224.0,260.0,800.459
800470.0,219.0,33.0,223.0,262.0,800.47
800480.0,223.0,32.0,228.0,265.0,800.48
800490.0,220.0,32.0,225.0,261.0,800.49
800500.0,220.0,33.0,223.0,260.0,800.5
800510.0,210.0,31.0,214.0,249.0,800.51
800520.0,215.0,32.0,216.0,253.0,800.52
800530.0,221.0,32.0,227.0,263.0,800.53
800540.0,219.0,32.0,224.0,259.0,800.54
800550.0,220.0,31.0,220.0,255.0,800.55
800560.0,212.0,32.0,211.0,249.0,800.56
800570.0,217.0,32.0,212.0,253.0,800.57
800580.0,221.0,32.0,220.0,261.0,800.58
800590.0,218.0,32.0,213.0,256.0,800.59
800600.0,220.0,33.0,213.0,254.0,800.6
800610.0,212.0,32.0,202.0,246.0,800.61
800620.0,215.0,32.0,201.0,246.0,800.62
800630.0,221.0,32.0,209.0,251.0,800.63
800640.0,219.0,33.0,204.0,249.0,800.64
800650.0,219.0,32.0,203.0,244.0,800.65
800660.0,212.0,31.0,191.0,238.0,800.66
800670.0,216.0,32.0,198.0,244.0,800.67
800680.0,221.0,33.0,208.0,252.0,800.68
800690.0,218.0,32.0,202.0,251.0,800.69
800700.0,219.0,31.0,207.0,247.0,800.7
800710.0,212.0,32.0,192.0,244.0,800.71
800720.0,216.0,33.0,199.0,251.0,800.72
800730.0,219.0,33.0,206.0,253.0,800.73
800740.0,219.0,32.0,201.0,253.0,800.74
800750.0,219.0,32.0,207.0,252.0,800.75
800760.0,211.0,32.0,190.0,243.0,800.76
800770.0,215.0,33.0,199.0,250.0,800.77
800780.0,219.0,32.0,207.0,255.0,800.78
800790.0,217.0,32.0,197.0,252.0,800.79
800800.0,218.0,32.0,205.0,247.0,800.8
800811.0,210.0,32.0,188.0,241.0,800.811
800821.0,214.0,32.0,200.0,249.0,800.821
800831.0,219.0,33.0,209.0,254.0,800.831
800841.0,214.0,32.0,194.0,246.0,800.841
800851.0,215.0,32.0,200.0,245.0,800.851
800861.0,209.0,32.0,189.0,238.0,800.861
800871.0,216.0,32.0,198.0,246.0,800.871
800881.0,221.0,33.0,208.0,249.0,800.881
800891.0,215.0,31.0,192.0,241.0,800.891
800901.0,216.0,32.0,201.0,244.0,800.901
800911.0,209.0,32.0,189.0,238.0,800.911
800921.0,218.0,32.0,199.0,247.0,800.921
800931.0,222.0,33.0,208.0,250.0,800.931
800941.0,216.0,32.0,194.0,244.0,800.941
800951.0,218.0,32.0,202.0,245.0,800.951
800961.0,214.0,33.0,191.0,240.0,800.961
800971.0,222.0,32.0,201.0,249.0,800.971
800982.0,225.0,33.0,209.0,251.0,800.982
800992.0,218.0,32.0,192.0,243.0,800.992
801002.0,218.0,33.0,200.0,246.0,801.002
801012.0,219.0,33.0,201.0,249.0,801.012
801022.0,222.0,33.0,200.0,253.0,801.022
801032.0,224.0,32.0,211.0,256.0,801.032
801042.0,217.0,33.0,192.0,249.0,801.042
801052.0,219.0,32.0,201.0,249.0,801.052
801062.0,220.0,32.0,204.0,254.0,801.062
801072.0,219.0,32.0,204.0,257.0,801.072
801082.0,222.0,33.0,212.0,257.0,801.082
801092.0,214.0,32.0,193.0,250.0,801.092
801102.0,215.0,32.0,200.0,252.0,801.102
801112.0,213.0,32.0,197.0,253.0,801.112
801122.0,220.0,31.0,201.0,259.0,801.122
801132.0,222.0,33.0,211.0,260.0,801.132
801142.0,213.0,31.0,193.0,254.0,801.142
801152.0,216.0,32.0,202.0,255.0,801.152
801162.0,214.0,32.0,199.0,256.0,801.162
801172.0,219.0,32.0,203.0,260.0,801.172
801182.0,222.0,33.0,209.0,257.0,801.182
801192.0,215.0,32.0,193.0,254.0,801.192
801202.0,221.0,32.0,203.0,256.0,801.202
801212.0,218.0,33.0,200.0,260.0,801.212
801222.0,223.0,32.0,202.0,262.0,801.222
801232.0,224.0,32.0,207.0,260.0,801.232
801242.0,218.0,32.0,196.0,258.0,801.242
801252.0,219.0,32.0,200.0,257.0,801.252
801262.0,218.0,32.0,202.0,261.0,801.262
801272.0,221.0,31.0,203.0,265.0,801.272
801282.0,224.0,33.0,209.0,263.0,801.282
801292.0,216.0,32.0,197.0,258.0,801.292
801302.0,216.0,33.0,200.0,258.0,801.302
801312.0,219.0,31.0,203.0,260.0,801.312
801323.0,219.0,32.0,199.0,260.0,801.323
801333.0,219.0,32.0,203.0,257.0,801.333
801343.0,212.0,32.0,189.0,251.0,801.343
801353.0,215.0,32.0,197.0,256.0,801.353
801363.0,222.0,33.0,206.0,262.0,801.363
801373.0,220.0,32.0,201.0,262.0,801.373
801383.0,220.0,33.0,205.0,258.0,801.383
801393.0,212.0,32.0,192.0,253.0,801.393
801403.0,214.0,32.0,199.0,259.0,801.403
801413.0,217.0,32.0,203.0,262.0,801.413
801423.0,217.0,33.0,200.0,263.0,801.423
801433.0,218.0,32.0,204.0,258.0,801.433
801443.0,210.0,32.0,190.0,254.0,801.443
801453.0,215.0,32.0,197.0,257.0,801.453
801463.0,220.0,32.0,204.0,263.0,801.463
801473.0,218.0,32.0,199.0,260.0,801.473
801483.0,218.0,32.0,201.0,258.0,801.483
801494.0,210.0,32.0,190.0,252.0,801.494
801504.0,218.0,31.0,201.0,260.0,801.504
801514.0,224.0,33.0,207.0,263.0,801.514
801524.0,218.0,32.0,196.0,258.0,801.524
801534.0,218.0,32.0,199.0,257.0,801.534
801544.0,211.0,32.0,194.0,252.0,801.544
801554.0,218.0,33.0,205.0,260.0,801.554
801564.0,224.0,32.0,212.0,263.0,801.564
801574.0,217.0,31.0,201.0,258.0,801.574
801584.0,220.0,32.0,205.0,259.0,801.584
801594.0,211.0,33.0,196.0,254.0,801.594
801604.0,220.0,32.0,206.0,261.0,801.604
801614.0,225.0,33.0,211.0,263.0,801.614
801624.0,219.0,33.0,204.0,260.0,801.624
801634.0,219.0,32.0,205.0,258.0,801.634
801644.0,212.0,32.0,199.0,255.0,801.644
801654.0,220.0,31.0,208.0,262.0,801.654
801664.0,222.0,33.0,210.0,261.0,801.664
801674.0,218.0,32.0,201.0,255.0,801.674
801684.0,217.0,32.0,202.0,254.0,801.684
801694.0,213.0,32.0,198.0,252.0,801.694
801704.0,219.0,33.0,207.0,260.0,801.704
801714.0,224.0,33.0,211.0,261.0,801.714
801724.0,219.0,33.0,203.0,258.0,801.724
801734.0,222.0,33.0,204.0,256.0,801.734
801744.0,216.0,32.0,200.0,254.0,801.744
801754.0,220.0,33.0,204.0,258.0,801.754
801764.0,224.0,33.0,209.0,262.0,801.764
801774.0,218.0,32.0,203.0,257.0,801.774
801784.0,219.0,33.0,204.0,255.0,801.784
801794.0,211.0,32.0,198.0,251.0,801.794
801804.0,219.0,32.0,208.0,259.0,801.804
801814.0,223.0,33.0,213.0,262.0,801.814
801824.0,217.0,31.0,206.0,256.0,801.824
801835.0,219.0,32.0,204.0,254.0,801.835
801845.0,216.0,33.0,206.0,256.0,801.845
801855.0,221.0,33.0,212.0,262.0,801.855
801865.0,223.0,32.0,210.0,260.0,801.865
801875.0,214.0,32.0,202.0,254.0,801.875
801885.0,218.0,32.0,205.0,254.0,801.885
801895.0,218.0,32.0,209.0,256.0,801.895
801905.0,222.0,33.0,214.0,259.0,801.905
801915.0,223.0,34.0,211.0,257.0,801.915
801925.0,217.0,32.0,208.0,253.0,801.925
801935.0,218.0,33.0,208.0,253.0,801.935
801945.0,219.0,32.0,212.0,256.0,801.945
801955.0,219.0,32.0,215.0,258.0,801.955
801965.0,221.0,33.0,215.0,258.0,801.965
801975.0,214.0,32.0,209.0,251.0,801.975
801985.0,216.0,32.0,208.0,251.0,801.985
801995.0,218.0,33.0,214.0,257.0,801.995
802006.0,220.0,32.0,217.0,257.0,802.006
802016.0,221.0,32.0,213.0,255.0,802.016
802026.0,212.0,32.0,206.0,248.0,802.026
802036.0,216.0,31.0,208.0,252.0,802.036
802046.0,221.0,33.0,218.0,259.0,802.046
802056.0,218.0,32.0,217.0,258.0,802.056
802066.0,217.0,33.0,213.0,256.0,802.066
802076.0,211.0,31.0,208.0,248.0,802.076
802086.0,216.0,32.0,213.0,255.0,802.086
802096.0,220.0,32.0,218.0,257.0,802.096
802106.0,219.0,33.0,217.0,257.0,802.106
802116.0,220.0,32.0,213.0,253.0,802.116
802126.0,212.0,32.0,207.0,247.0,802.126
802136.0,216.0,33.0,212.0,252.0,802.136
802146.0,221.0,32.0,218.0,259.0,802.146
802156.0,220.0,32.0,213.0,256.0,802.156
802166.0,219.0,32.0,210.0,253.0,802.166
802176.0,216.0,32.0,207.0,248.0,802.176
802186.0,220.0,32.0,209.0,251.0,802.186
802196.0,224.0,32.0,217.0,258.0,802.196
802206.0,223.0,31.0,216.0,255.0,802.206
802216.0,221.0,33.0,213.0,253.0,802.216
802226.0,217.0,31.0,210.0,248.0,802.226
802236.0,218.0,32.0,211.0,252.0,802.236
802246.0,223.0,32.0,220.0,258.0,802.246
802256.0,221.0,32.0,219.0,255.0,802.256
802266.0,224.0,32.0,217.0,253.0,802.266
802276.0,215.0,32.0,208.0,245.0,802.276
802286.0,217.0,32.0,212.0,249.0,802.286
802296.0,228.0,33.0,220.0,259.0,802.296
802306.0,225.0,32.0,220.0,256.0,802.306
802316.0,224.0,33.0,216.0,254.0,802.316
802326.0,216.0,32.0,210.0,246.0,802.326
802336.0,220.0,31.0,212.0,252.0,802.336
802347.0,226.0,33.0,219.0,257.0,802.347
802357.0,222.0,32.0,214.0,253.0,802.357
802367.0,221.0,32.0,209.0,251.0,802.367
802377.0,216.0,32.0,207.0,247.0,802.377
802387.0,221.0,32.0,215.0,256.0,802.387
802397.0,225.0,33.0,218.0,257.0,802.397
802407.0,219.0,32.0,213.0,253.0,802.407
802417.0,217.0,32.0,210.0,252.0,802.417
802427.0,212.0,33.0,208.0,249.0,802.427
802437.0,217.0,32.0,214.0,255.0,802.437
802447.0,223.0,33.0,218.0,259.0,802.447
802457.0,218.0,32.0,215.0,253.0,802.457
802467.0,216.0,32.0,212.0,253.0,802.467
802477.0,211.0,32.0,209.0,248.0,802.477
802487.0,218.0,33.0,218.0,259.0,802.487
802497.0,223.0,32.0,221.0,260.0,802.497
802507.0,217.0,33.0,218.0,255.0,802.507
802518.0,218.0,33.0,216.0,254.0,802.518
802528.0,216.0,32.0,217.0,254.0,802.528
802538.0,219.0,32.0,222.0,257.0,802.538
802548.0,221.0,32.0,219.0,255.0,802.548
802558.0,213.0,32.0,215.0,248.0,802.558
802568.0,217.0,32.0,215.0,251.0,802.568
802578.0,217.0,33.0,219.0,252.0,802.578
802588.0,222.0,31.0,225.0,255.0,802.588
802598.0,221.0,33.0,220.0,253.0,802.598
802608.0,217.0,32.0,221.0,249.0,802.608
802618.0,218.0,33.0,218.0,250.0,802.618
802628.0,219.0,32.0,224.0,253.0,802.628
802638.0,222.0,33.0,228.0,256.0,802.638
802648.0,224.0,32.0,224.0,255.0,802.648
802658.0,217.0,31.0,223.0,248.0,802.658
802668.0,219.0,32.0,221.0,248.0,802.668
802678.0,220.0,33.0,227.0,253.0,802.678
802688.0,221.0,32.0,231.0,254.0,802.688
802698.0,224.0,33.0,228.0,255.0,802.698
802708.0,216.0,32.0,226.0,247.0,802.708
802718.0,218.0,32.0,223.0,249.0,802.718
802728.0,220.0,32.0,229.0,254.0,802.728
802738.0,223.0,32.0,233.0,256.0,802.738
802748.0,224.0,33.0,230.0,253.0,802.748
802758.0,216.0,32.0,226.0,246.0,802.758
802768.0,218.0,33.0,223.0,247.0,802.768
802778.0,217.0,32.0,228.0,249.0,802.778
802788.0,224.0,32.0,234.0,255.0,802.788
802798.0,227.0,33.0,227.0,252.0,802.798
802808.0,219.0,33.0,223.0,245.0,802.808
802818.0,221.0,32.0,222.0,247.0,802.818
802828.0,220.0,33.0,225.0,252.0,802.828
802838.0,225.0,32.0,231.0,256.0,802.838
802848.0,224.0,33.0,224.0,253.0,802.848
802859.0,217.0,32.0,221.0,246.0,802.859
802869.0,220.0,32.0,220.0,250.0,802.869
802879.0,225.0,32.0,229.0,256.0,802.879
802889.0,224.0,33.0,228.0,254.0,802.889
802899.0,222.0,33.0,225.0,251.0,802.899
802909.0,218.0,31.0,221.0,246.0,802.909
802919.0,220.0,33.0,222.0,250.0,802.919
802929.0,229.0,33.0,230.0,258.0,802.929
802939.0,226.0,33.0,228.0,254.0,802.939
802949.0,226.0,32.0,224.0,253.0,802.949
802959.0,219.0,33.0,221.0,246.0,802.959
802969.0,221.0,32.0,223.0,252.0,802.969
802979.0,226.0,33.0,229.0,258.0,802.979
802989.0,225.0,32.0,229.0,255.0,802.989
802999.0,224.0,33.0,222.0,253.0,802.999
803009.0,218.0,32.0,219.0,246.0,803.009
803019.0,221.0,33.0,222.0,254.0,803.019
803030.0,228.0,33.0,229.0,258.0,803.03
803040.0,222.0,32.0,228.0,253.0,803.04
803050.0,222.0,32.0,224.0,251.0,803.05
803060.0,218.0,33.0,224.0,249.0,803.06
803070.0,225.0,32.0,231.0,256.0,803.07
803080.0,227.0,33.0,231.0,257.0,803.08
803090.0,223.0,32.0,229.0,250.0,803.09
803100.0,222.0,33.0,224.0,250.0,803.1
803110.0,218.0,33.0,224.0,247.0,803.11
803120.0,222.0,33.0,227.0,253.0,803.12
803130.0,226.0,33.0,230.0,255.0,803.13
803140.0,222.0,32.0,228.0,248.0,803.14
803150.0,221.0,33.0,223.0,247.0,803.15
803160.0,216.0,33.0,221.0,243.0,803.16
803170.0,222.0,32.0,228.0,252.0,803.17
803180.0,227.0,33.0,232.0,256.0,803.18
803190.0,221.0,34.0,226.0,250.0,803.19
803200.0,222.0,32.0,223.0,250.0,803.2
803210.0,216.0,33.0,219.0,245.0,803.21
803220.0,223.0,33.0,229.0,253.0,803.22
803230.0,230.0,33.0,230.0,257.0,803.23
803240.0,223.0,32.0,226.0,249.0,803.24
803250.0,225.0,33.0,223.0,251.0,803.25
803260.0,218.0,32.0,220.0,246.0,803.26
803270.0,224.0,32.0,229.0,255.0,803.27
803280.0,227.0,33.0,229.0,256.0,803.28
803290.0,223.0,32.0,229.0,251.0,803.29
803300.0,222.0,33.0,223.0,250.0,803.3
803310.0,218.0,31.0,223.0,247.0,803.31
803320.0,223.0,33.0,230.0,255.0,803.32
803330.0,226.0,32.0,230.0,256.0,803.33
803340.0,221.0,33.0,227.0,251.0,803.34
803350.0,221.0,32.0,223.0,249.0,803.35
803360.0,216.0,32.0,223.0,246.0,803.36
803371.0,223.0,32.0,231.0,254.0,803.371
803381.0,225.0,33.0,228.0,254.0,803.381
803391.0,217.0,32.0,229.0,246.0,803.391
803401.0,218.0,33.0,225.0,248.0,803.401
803411.0,221.0,32.0,234.0,253.0,803.411
803421.0,222.0,32.0,236.0,254.0,803.421
803431.0,224.0,32.0,232.0,253.0,803.431
803441.0,215.0,33.0,231.0,246.0,803.441
803451.0,218.0,33.0,228.0,247.0,803.451
803461.0,217.0,32.0,232.0,250.0,803.461
803471.0,221.0,32.0,240.0,256.0,803.471
803481.0,224.0,33.0,238.0,256.0,803.481
803491.0,213.0,32.0,237.0,248.0,803.491
803501.0,217.0,32.0,234.0,252.0,803.501
803511.0,216.0,32.0,239.0,253.0,803.511
803521.0,220.0,32.0,243.0,256.0,803.521
803531.0,222.0,33.0,235.0,255.0,803.531
803542.0,214.0,32.0,235.0,246.0,803.542
803552.0,216.0,32.0,232.0,250.0,803.552
803562.0,222.0,32.0,239.0,256.0,803.562
803572.0,218.0,33.0,238.0,253.0,803.572
803582.0,219.0,32.0,231.0,250.0,803.582
803592.0,213.0,32.0,230.0,244.0,803.592
803602.0,217.0,32.0,229.0,248.0,803.602
803612.0,223.0,33.0,238.0,255.0,803.612
803622.0,218.0,32.0,240.0,251.0,803.622
803632.0,220.0,32.0,232.0,251.0,803.632
803642.0,211.0,32.0,230.0,242.0,803.642
803652.0,215.0,32.0,233.0,251.0,803.652
803662.0,222.0,32.0,238.0,256.0,803.662
803672.0,222.0,31.0,239.0,253.0,803.672
803682.0,220.0,33.0,230.0,250.0,803.682
803692.0,213.0,32.0,229.0,241.0,803.692
803702.0,217.0,33.0,231.0,248.0,803.702
803712.0,221.0,32.0,236.0,252.0,803.712
803722.0,220.0,33.0,237.0,252.0,803.722
803732.0,220.0,32.0,231.0,250.0,803.732
803742.0,212.0,32.0,229.0,241.0,803.742
803752.0,218.0,32.0,234.0,251.0,803.752
803762.0,221.0,32.0,237.0,255.0,803.762
803772.0,220.0,32.0,238.0,252.0,803.772
803782.0,221.0,32.0,229.0,250.0,803.782
803792.0,213.0,32.0,226.0,241.0,803.792
803802.0,218.0,32.0,228.0,248.0,803.802
803812.0,223.0,32.0,236.0,256.0,803.812
803822.0,221.0,32.0,236.0,253.0,803.822
803832.0,219.0,33.0,229.0,250.0,803.832
803842.0,217.0,32.0,228.0,244.0,803.842
803852.0,220.0,32.0,228.0,248.0,803.852
803862.0,226.0,32.0,235.0,254.0,803.862
803872.0,222.0,32.0,236.0,250.0,803.872
803883.0,222.0,32.0,230.0,249.0,803.883
803893.0,213.0,32.0,225.0,242.0,803.893
803903.0,222.0,32.0,234.0,254.0,803.903
803913.0,224.0,33.0,234.0,256.0,803.913
803923.0,218.0,32.0,230.0,248.0,803.923
803933.0,220.0,32.0,226.0,250.0,803.933
803943.0,213.0,32.0,223.0,244.0,803.943
803953.0,219.0,32.0,229.0,253.0,803.953
803963.0,223.0,32.0,230.0,254.0,803.963
803973.0,220.0,32.0,229.0,249.0,803.973
803983.0,222.0,32.0,223.0,249.0,803.983
803993.0,215.0,31.0,222.0,245.0,803.993
804003.0,221.0,32.0,231.0,253.0,804.003
804013.0,225.0,33.0,229.0,255.0,804.013
804023.0,218.0,33.0,226.0,248.0,804.023
804033.0,218.0,32.0,222.0,248.0,804.033
804043.0,213.0,32.0,221.0,244.0,804.043
804054.0,220.0,32.0,228.0,251.0,804.054
804064.0,222.0,32.0,225.0,252.0,804.064
804074.0,215.0,31.0,221.0,242.0,804.074
804084.0,216.0,33.0,218.0,245.0,804.084
804094.0,219.0,32.0,224.0,249.0,804.094
804104.0,221.0,33.0,227.0,251.0,804.104
804114.0,226.0,33.0,222.0,251.0,804.114
804124.0,215.0,31.0,221.0,244.0,804.124
804134.0,218.0,32.0,220.0,246.0,804.134
804144.0,217.0,32.0,223.0,248.0,804.144
804154.0,222.0,32.0,229.0,251.0,804.154
804164.0,224.0,32.0,225.0,251.0,804.164
804174.0,215.0,32.0,223.0,243.0,804.174
804184.0,218.0,32.0,221.0,246.0,804.184
804194.0,216.0,32.0,223.0,247.0,804.194
804204.0,222.0,31.0,229.0,251.0,804.204
804214.0,222.0,33.0,224.0,250.0,804.214
804224.0,216.0,32.0,224.0,245.0,804.224
804234.0,215.0,32.0,218.0,247.0,804.234
804244.0,217.0,31.0,223.0,249.0,804.244
804254.0,219.0,32.0,225.0,252.0,804.254
804264.0,220.0,32.0,221.0,250.0,804.264
804274.0,215.0,33.0,220.0,244.0,804.274
804284.0,216.0,32.0,218.0,246.0,804.284
804294.0,218.0,32.0,221.0,249.0,804.294
804304.0,220.0,32.0,223.0,250.0,804.304
804314.0,223.0,33.0,221.0,251.0,804.314
804324.0,215.0,32.0,220.0,245.0,804.324
804334.0,216.0,32.0,218.0,247.0,804.334
804344.0,219.0,32.0,224.0,252.0,804.344
804354.0,220.0,32.0,226.0,253.0,804.354
804364.0,223.0,32.0,225.0,252.0,804.364
804374.0,215.0,31.0,222.0,244.0,804.374
804384.0,216.0,32.0,220.0,247.0,804.384
804395.0,221.0,32.0,229.0,253.0,804.395
804405.0,221.0,33.0,231.0,252.0,804.405
804415.0,220.0,32.0,225.0,250.0,804.415
804425.0,211.0,32.0,220.0,241.0,804.425
804435.0,218.0,32.0,225.0,250.0,804.435
804445.0,221.0,32.0,229.0,254.0,804.445
804455.0,220.0,32.0,230.0,252.0,804.455
804465.0,222.0,32.0,222.0,249.0,804.465
804475.0,213.0,32.0,220.0,242.0,804.475
804485.0,217.0,32.0,221.0,248.0,804.485
804495.0,222.0,32.0,229.0,254.0,804.495
804505.0,220.0,31.0,228.0,252.0,804.505
804515.0,220.0,32.0,223.0,250.0,804.515
804525.0,213.0,32.0,220.0,244.0,804.525
804535.0,215.0,32.0,221.0,248.0,804.535
804545.0,222.0,32.0,229.0,255.0,804.545
804555.0,219.0,32.0,227.0,251.0,804.555
804566.0,219.0,32.0,221.0,249.0,804.566
804576.0,211.0,31.0,218.0,245.0,804.576
804586.0,219.0,32.0,226.0,256.0,804.586
804596.0,224.0,32.0,227.0,258.0,804.596
804606.0,217.0,31.0,225.0,250.0,804.606
804616.0,219.0,32.0,222.0,252.0,804.616
804626.0,212.0,32.0,222.0,246.0,804.626
804636.0,220.0,32.0,229.0,255.0,804.636
804646.0,226.0,32.0,229.0,258.0,804.646
804656.0,220.0,31.0,228.0,252.0,804.656
804666.0,219.0,32.0,223.0,252.0,804.666
804676.0,213.0,32.0,222.0,249.0,804.676
804686.0,222.0,32.0,231.0,257.0,804.686
804696.0,225.0,32.0,229.0,258.0,804.696
804706.0,219.0,32.0,228.0,253.0,804.706
804716.0,219.0,32.0,223.0,253.0,804.716
804726.0,215.0,32.0,222.0,249.0,804.726
804736.0,219.0,32.0,224.0,254.0,804.736
804746.0,224.0,32.0,230.0,258.0,804.746
804756.0,219.0,31.0,226.0,252.0,804.756
804766.0,218.0,32.0,222.0,252.0,804.766
804776.0,216.0,32.0,223.0,250.0,804.776
804786.0,219.0,32.0,225.0,254.0,804.786
804796.0,224.0,32.0,228.0,257.0,804.796
804806.0,217.0,32.0,224.0,250.0,804.806
804816.0,218.0,32.0,221.0,250.0,804.816
804826.0,212.0,32.0,219.0,245.0,804.826
804836.0,220.0,32.0,226.0,254.0,804.836
804846.0,224.0,33.0,228.0,256.0,804.846
804856.0,218.0,32.0,225.0,249.0,804.856
804866.0,220.0,32.0,223.0,250.0,804.866
804876.0,213.0,32.0,221.0,244.0,804.876
804886.0,221.0,31.0,230.0,254.0,804.886
804896.0,224.0,32.0,229.0,254.0,804.896
804907.0,216.0,32.0,227.0,247.0,804.907
804917.0,217.0,32.0,223.0,247.0,804.917
804927.0,218.0,32.0,229.0,252.0,804.927
804937.0,218.0,32.0,234.0,255.0,804.937
804947.0,219.0,31.0,230.0,253.0,804.947
804957.0,214.0,31.0,230.0,249.0,804.957
804967.0,215.0,31.0,225.0,248.0,804.967
804977.0,216.0,33.0,228.0,253.0,804.977
804987.0,219.0,32.0,233.0,253.0,804.987
804997.0,221.0,33.0,229.0,256.0,804.997
805007.0,214.0,31.0,229.0,246.0,805.007
805017.0,215.0,32.0,224.0,248.0,805.017
805027.0,217.0,32.0,231.0,253.0,805.027
805037.0,218.0,32.0,233.0,255.0,805.037
805047.0,221.0,33.0,228.0,253.0,805.047
805057.0,213.0,32.0,227.0,245.0,805.057
805067.0,215.0,32.0,226.0,247.0,805.067
805078.0,219.0,32.0,233.0,254.0,805.078
805088.0,219.0,32.0,235.0,253.0,805.088
805098.0,222.0,33.0,229.0,252.0,805.098
805108.0,213.0,32.0,227.0,242.0,805.108
805118.0,219.0,32.0,232.0,250.0,805.118
805128.0,221.0,32.0,236.0,254.0,805.128
805138.0,221.0,32.0,237.0,252.0,805.138
805148.0,220.0,32.0,228.0,249.0,805.148
805158.0,212.0,31.0,226.0,241.0,805.158
805168.0,216.0,33.0,227.0,247.0,805.168
805178.0,222.0,33.0,234.0,253.0,805.178
805188.0,221.0,32.0,234.0,250.0,805.188
805198.0,221.0,32.0,227.0,248.0,805.198
805208.0,214.0,31.0,227.0,243.0,805.208
805218.0,217.0,33.0,227.0,247.0,805.218
805228.0,227.0,33.0,234.0,255.0,805.228
805238.0,222.0,32.0,232.0,249.0,805.238
805248.0,223.0,33.0,227.0,251.0,805.248
805258.0,214.0,32.0,226.0,243.0,805.258
805268.0,217.0,32.0,227.0,249.0,805.268
805278.0,222.0,33.0,233.0,255.0,805.278
805288.0,222.0,31.0,231.0,250.0,805.288
805298.0,225.0,33.0,227.0,252.0,805.298
805308.0,216.0,32.0,226.0,242.0,805.308
805318.0,219.0,33.0,228.0,251.0,805.318
805328.0,226.0,33.0,235.0,255.0,805.328
805338.0,222.0,32.0,235.0,253.0,805.338
805348.0,222.0,32.0,229.0,250.0,805.348
805358.0,214.0,32.0,225.0,242.0,805.358
805368.0,220.0,32.0,230.0,249.0,805.368
805378.0,224.0,33.0,234.0,254.0,805.378
805388.0,223.0,32.0,238.0,252.0,805.388
805398.0,222.0,32.0,229.0,251.0,805.398
805408.0,215.0,32.0,228.0,243.0,805.408
805419.0,222.0,31.0,232.0,250.0,805.419
805429.0,227.0,32.0,237.0,255.0,805.429
805439.0,220.0,32.0,234.0,247.0,805.439
805449.0,220.0,33.0,228.0,247.0,805.449
805459.0,218.0,31.0,230.0,246.0,805.459
805469.0,220.0,33.0,231.0,250.0,805.469
805479.0,226.0,33.0,234.0,254.0,805.479
805489.0,219.0,32.0,233.0,246.0,805.489
805499.0,219.0,32.0,229.0,247.0,805.499
805509.0,213.0,33.0,227.0,242.0,805.509
805519.0,221.0,32.0,236.0,251.0,805.519
805529.0,225.0,33.0,235.0,255.0,805.529
805539.0,218.0,32.0,234.0,247.0,805.539
805549.0,220.0,33.0,230.0,251.0,805.549
805559.0,212.0,32.0,230.0,243.0,805.559
805569.0,220.0,32.0,236.0,251.0,805.569
805579.0,224.0,32.0,237.0,254.0,805.579
805590.0,215.0,32.0,235.0,246.0,805.59
805600.0,216.0,32.0,230.0,247.0,805.6
805610.0,217.0,32.0,235.0,249.0,805.61
805620.0,219.0,33.0,239.0,252.0,805.62
805630.0,221.0,33.0,233.0,253.0,805.63
805640.0,214.0,32.0,236.0,246.0,805.64
805650.0,216.0,32.0,226.0,246.0,805.65
805660.0,218.0,32.0,230.0,248.0,805.66
805670.0,221.0,31.0,235.0,250.0,805.67
805680.0,223.0,34.0,231.0,252.0,805.68
805690.0,214.0,32.0,231.0,244.0,805.69
805700.0,217.0,33.0,228.0,247.0,805.7
805710.0,218.0,32.0,234.0,251.0,805.71
805720.0,220.0,32.0,236.0,252.0,805.72
805730.0,222.0,33.0,231.0,251.0,805.73
805740.0,213.0,32.0,230.0,243.0,805.74
805750.0,215.0,32.0,228.0,246.0,805.75
805760.0,214.0,32.0,232.0,246.0,805.76
805770.0,219.0,32.0,238.0,250.0,805.77
805780.0,222.0,33.0,233.0,251.0,805.78
805790.0,213.0,32.0,232.0,242.0,805.79
805800.0,215.0,32.0,228.0,246.0,805.8
805810.0,215.0,32.0,232.0,247.0,805.81
805820.0,220.0,32.0,237.0,251.0,805.82
805830.0,221.0,32.0,231.0,249.0,805.83
805840.0,211.0,32.0,231.0,240.0,805.84
805850.0,214.0,33.0,228.0,245.0,805.85
805860.0,214.0,32.0,235.0,248.0,805.86
805870.0,218.0,33.0,239.0,249.0,805.87
805880.0,219.0,32.0,232.0,248.0,805.88
805890.0,215.0,32.0,235.0,243.0,805.89
805900.0,216.0,32.0,230.0,245.0,805.9
805910.0,219.0,33.0,236.0,250.0,805.91
805920.0,222.0,32.0,238.0,250.0,805.92
805931.0,222.0,33.0,231.0,249.0,805.931
805941.0,215.0,32.0,229.0,240.0,805.941
805951.0,219.0,33.0,231.0,247.0,805.951
805961.0,226.0,33.0,238.0,253.0,805.961
805971.0,223.0,32.0,236.0,248.0,805.971
805981.0,223.0,33.0,231.0,249.0,805.981
805991.0,216.0,32.0,230.0,240.0,805.991
806001.0,220.0,33.0,232.0,248.0,806.001
806011.0,226.0,32.0,238.0,252.0,806.011
806021.0,223.0,32.0,238.0,250.0,806.021
806031.0,222.0,32.0,232.0,248.0,806.031
806041.0,215.0,32.0,230.0,240.0,806.041
806051.0,221.0,33.0,234.0,249.0,806.051
806061.0,224.0,33.0,238.0,253.0,806.061
806071.0,222.0,33.0,240.0,251.0,806.071
806081.0,221.0,33.0,233.0,249.0,806.081
806091.0,215.0,32.0,235.0,241.0,806.091
806102.0,222.0,32.0,240.0,250.0,806.102
806112.0,229.0,33.0,242.0,254.0,806.112
806122.0,224.0,33.0,241.0,248.0,806.122
806132.0,223.0,32.0,235.0,247.0,806.132
806142.0,220.0,33.0,238.0,246.0,806.142
806152.0,224.0,32.0,241.0,249.0,806.152
806162.0,228.0,32.0,241.0,254.0,806.162
806172.0,222.0,32.0,241.0,245.0,806.172
806182.0,222.0,32.0,235.0,246.0,806.182
806192.0,216.0,33.0,234.0,241.0,806.192
806202.0,223.0,32.0,241.0,250.0,806.202
806212.0,227.0,33.0,241.0,253.0,806.212
806222.0,221.0,32.0,240.0,245.0,806.222
806232.0,221.0,33.0,234.0,248.0,806.232
806242.0,215.0,32.0,233.0,241.0,806.242
806252.0,222.0,33.0,237.0,249.0,806.252
806262.0,226.0,32.0,236.0,252.0,806.262
806272.0,222.0,32.0,237.0,247.0,806.272
806282.0,223.0,32.0,232.0,246.0,806.282
806292.0,217.0,31.0,233.0,242.0,806.292
806302.0,224.0,32.0,240.0,251.0,806.302
806312.0,227.0,33.0,239.0,253.0,806.312
806322.0,221.0,32.0,243.0,248.0,806.322
806332.0,220.0,32.0,238.0,249.0,806.332
806342.0,216.0,32.0,239.0,247.0,806.342
806352.0,223.0,33.0,245.0,253.0,806.352
806362.0,225.0,33.0,243.0,256.0,806.362
806372.0,219.0,32.0,243.0,249.0,806.372
806382.0,219.0,33.0,236.0,249.0,806.382
806392.0,216.0,32.0,239.0,247.0,806.392
806402.0,221.0,32.0,241.0,251.0,806.402
806412.0,225.0,32.0,242.0,256.0,806.412
806422.0,219.0,32.0,240.0,248.0,806.422
806432.0,219.0,32.0,235.0,246.0,806.432
806443.0,217.0,33.0,236.0,247.0,806.443
806453.0,222.0,32.0,241.0,250.0,806.453
806463.0,223.0,33.0,233.0,250.0,806.463
806473.0,216.0,32.0,234.0,242.0,806.473
806483.0,220.0,32.0,232.0,246.0,806.483
806493.0,219.0,32.0,235.0,249.0,806.493
806503.0,223.0,33.0,239.0,252.0,806.503
806513.0,224.0,32.0,233.0,251.0,806.513
806523.0,217.0,32.0,233.0,243.0,806.523
806533.0,219.0,33.0,230.0,246.0,806.533
806543.0,221.0,33.0,235.0,249.0,806.543
806553.0,224.0,32.0,240.0,252.0,806.553
806563.0,223.0,32.0,233.0,251.0,806.563
806573.0,219.0,33.0,235.0,246.0,806.573
806583.0,219.0,32.0,230.0,247.0,806.583
806593.0,221.0,32.0,236.0,253.0,806.593
806603.0,224.0,32.0,239.0,254.0,806.603
806614.0,224.0,33.0,231.0,251.0,806.614
806624.0,218.0,32.0,232.0,243.0,806.624
