time (ms),signal 0,signal 1,signal 2,signal 3,time (sec)
778586.0,219.0,33.0,241.0,243.0,778.586
778596.0,224.0,33.0,245.0,250.0,778.596
778606.0,220.0,32.0,245.0,243.0,778.606
778616.0,219.0,32.0,236.0,243.0,778.616
778626.0,212.0,32.0,238.0,235.0,778.626
778636.0,218.0,33.0,238.0,242.0,778.636
778646.0,223.0,32.0,243.0,249.0,778.646
778656.0,219.0,31.0,242.0,241.0,778.656
778667.0,217.0,32.0,233.0,240.0,778.667
778677.0,216.0,33.0,238.0,241.0,778.677
778687.0,222.0,32.0,245.0,246.0,778.687
778697.0,224.0,33.0,240.0,248.0,778.697
778707.0,216.0,32.0,241.0,239.0,778.707
778717.0,218.0,33.0,237.0,243.0,778.717
778727.0,216.0,32.0,240.0,242.0,778.727
778737.0,222.0,32.0,245.0,247.0,778.737
778747.0,223.0,33.0,238.0,246.0,778.747
778757.0,218.0,32.0,243.0,242.0,778.757
778767.0,217.0,32.0,235.0,243.0,778.767
778777.0,217.0,32.0,240.0,244.0,778.777
778787.0,221.0,33.0,246.0,248.0,778.787
778797.0,225.0,33.0,244.0,250.0,778.797
778807.0,217.0,33.0,245.0,244.0,778.807
778817.0,217.0,32.0,238.0,244.0,778.817
778827.0,218.0,33.0,243.0,247.0,778.827
778838.0,222.0,32.0,248.0,249.0,778.838
778848.0,222.0,33.0,239.0,248.0,778.848
778858.0,215.0,32.0,242.0,240.0,778.858
778868.0,218.0,33.0,241.0,247.0,778.868
778878.0,225.0,32.0,246.0,251.0,778.878
778888.0,222.0,31.0,247.0,250.0,778.888
778898.0,222.0,33.0,239.0,249.0,778.898
778908.0,214.0,32.0,241.0,242.0,778.908
778918.0,218.0,33.0,240.0,248.0,778.918
778928.0,221.0,33.0,245.0,253.0,778.928
778938.0,222.0,32.0,246.0,252.0,778.938
778948.0,223.0,32.0,238.0,249.0,778.948
778958.0,214.0,32.0,237.0,240.0,778.958
778968.0,219.0,32.0,235.0,245.0,778.968
778978.0,222.0,32.0,241.0,251.0,778.978
778988.0,222.0,32.0,241.0,248.0,778.988
778998.0,222.0,34.0,234.0,248.0,778.998
779008.0,217.0,32.0,237.0,242.0,779.008
779018.0,219.0,32.0,234.0,247.0,779.018
779028.0,224.0,33.0,242.0,254.0,779.028
779038.0,222.0,33.0,242.0,251.0,779.038
779048.0,222.0,33.0,234.0,248.0,779.048
779058.0,217.0,32.0,236.0,243.0,779.058
779068.0,218.0,32.0,233.0,247.0,779.068
779078.0,225.0,32.0,240.0,254.0,779.078
779088.0,223.0,32.0,241.0,251.0,779.088
779098.0,224.0,32.0,235.0,252.0,779.098
779108.0,216.0,32.0,234.0,243.0,779.108
779118.0,220.0,32.0,235.0,247.0,779.118
779128.0,225.0,32.0,240.0,254.0,779.128
779138.0,224.0,32.0,242.0,251.0,779.138
779148.0,224.0,32.0,233.0,249.0,779.148
779158.0,215.0,32.0,234.0,241.0,779.158
779168.0,219.0,33.0,234.0,247.0,779.168
779179.0,225.0,32.0,240.0,252.0,779.179
779189.0,222.0,32.0,241.0,249.0,779.189
779199.0,222.0,32.0,233.0,251.0,779.199
779209.0,215.0,32.0,232.0,245.0,779.209
779219.0,223.0,32.0,242.0,255.0,779.219
779229.0,225.0,33.0,240.0,256.0,779.229
779239.0,221.0,32.0,239.0,249.0,779.239
779249.0,220.0,33.0,233.0,250.0,779.249
779259.0,215.0,32.0,235.0,246.0,779.259
779269.0,220.0,33.0,236.0,250.0,779.269
779279.0,225.0,33.0,239.0,254.0,779.279
779289.0,219.0,32.0,238.0,247.0,779.289
779299.0,219.0,32.0,232.0,247.0,779.299
779309.0,212.0,32.0,231.0,240.0,779.309
779319.0,219.0,33.0,234.0,249.0,779.319
779329.0,224.0,33.0,236.0,252.0,779.329
779339.0,217.0,32.0,235.0,244.0,779.339
779350.0,218.0,33.0,229.0,244.0,779.35
779360.0,216.0,33.0,232.0,246.0,779.36
779370.0,222.0,32.0,238.0,251.0,779.37
779380.0,223.0,33.0,231.0,250.0,779.38
779390.0,214.0,32.0,231.0,242.0,779.39
779400.0,217.0,33.0,226.0,245.0,779.4
779410.0,216.0,33.0,232.0,247.0,779.41
779420.0,220.0,33.0,236.0,252.0,779.42
779430.0,222.0,33.0,229.0,247.0,779.43
779440.0,215.0,32.0,232.0,241.0,779.44
779450.0,217.0,32.0,228.0,242.0,779.45
779460.0,218.0,33.0,232.0,244.0,779.46
779470.0,221.0,32.0,237.0,247.0,779.47
779480.0,224.0,33.0,233.0,249.0,779.48
779490.0,215.0,33.0,232.0,241.0,779.49
779500.0,217.0,32.0,229.0,242.0,779.5
779510.0,218.0,33.0,234.0,247.0,779.51
779520.0,221.0,33.0,238.0,250.0,779.52
779530.0,223.0,33.0,233.0,249.0,779.53
779540.0,214.0,32.0,232.0,237.0,779.54
779550.0,216.0,33.0,228.0,241.0,779.55
779560.0,218.0,32.0,235.0,246.0,779.56
779570.0,219.0,32.0,237.0,247.0,779.57
779580.0,222.0,34.0,231.0,247.0,779.58
779590.0,213.0,33.0,230.0,239.0,779.59
779600.0,214.0,32.0,225.0,241.0,779.6
779610.0,214.0,33.0,228.0,244.0,779.61
779620.0,218.0,33.0,233.0,248.0,779.62
779630.0,221.0,33.0,228.0,247.0,779.63
779640.0,212.0,33.0,229.0,240.0,779.64
779650.0,216.0,32.0,228.0,245.0,779.65
779660.0,215.0,33.0,231.0,246.0,779.66
779670.0,222.0,32.0,236.0,249.0,779.67
779680.0,222.0,32.0,229.0,249.0,779.68
779691.0,213.0,32.0,227.0,241.0,779.691
779701.0,215.0,33.0,224.0,244.0,779.701
779711.0,222.0,33.0,232.0,251.0,779.711
779721.0,219.0,32.0,231.0,248.0,779.721
779731.0,220.0,33.0,228.0,247.0,779.731
779741.0,213.0,33.0,224.0,241.0,779.741
779751.0,216.0,33.0,225.0,244.0,779.751
779761.0,223.0,33.0,232.0,252.0,779.761
779771.0,218.0,33.0,232.0,247.0,779.771
779781.0,220.0,33.0,226.0,248.0,779.781
779791.0,211.0,33.0,225.0,240.0,779.791
779801.0,216.0,33.0,227.0,248.0,779.801
779811.0,221.0,33.0,231.0,252.0,779.811
779821.0,219.0,32.0,233.0,250.0,779.821
779831.0,219.0,34.0,223.0,248.0,779.831
779841.0,209.0,33.0,220.0,239.0,779.841
779851.0,214.0,33.0,221.0,247.0,779.851
779862.0,221.0,33.0,226.0,250.0,779.862
779872.0,214.0,33.0,223.0,243.0,779.872
779882.0,216.0,32.0,218.0,242.0,779.882
779892.0,211.0,34.0,218.0,240.0,779.892
779902.0,219.0,33.0,227.0,248.0,779.902
779912.0,222.0,33.0,226.0,250.0,779.912
779922.0,216.0,32.0,224.0,243.0,779.922
779932.0,216.0,33.0,220.0,245.0,779.932
779942.0,212.0,33.0,219.0,243.0,779.942
779952.0,217.0,32.0,223.0,248.0,779.952
779962.0,221.0,33.0,225.0,252.0,779.962
779972.0,216.0,31.0,220.0,244.0,779.972
779982.0,216.0,33.0,217.0,245.0,779.982
779992.0,210.0,32.0,214.0,240.0,779.992
780002.0,218.0,33.0,221.0,251.0,780.002
780012.0,223.0,33.0,223.0,254.0,780.012
780022.0,215.0,32.0,217.0,246.0,780.022
780032.0,219.0,33.0,217.0,248.0,780.032
780042.0,211.0,32.0,211.0,242.0,780.042
780052.0,219.0,32.0,218.0,251.0,780.052
780062.0,222.0,33.0,220.0,252.0,780.062
780072.0,215.0,32.0,210.0,242.0,780.072
780082.0,217.0,32.0,211.0,246.0,780.082
780092.0,211.0,32.0,206.0,241.0,780.092
780102.0,218.0,32.0,212.0,249.0,780.102
780112.0,223.0,33.0,215.0,250.0,780.112
780122.0,216.0,33.0,207.0,242.0,780.122
780132.0,217.0,33.0,208.0,243.0,780.132
780142.0,213.0,32.0,203.0,240.0,780.142
780152.0,219.0,32.0,210.0,248.0,780.152
780162.0,223.0,33.0,214.0,252.0,780.162
780172.0,216.0,32.0,203.0,244.0,780.172
780182.0,216.0,33.0,204.0,245.0,780.182
780192.0,212.0,34.0,200.0,244.0,780.192
780203.0,218.0,32.0,203.0,248.0,780.203
780213.0,222.0,34.0,208.0,248.0,780.213
780223.0,213.0,32.0,196.0,238.0,780.223
780233.0,214.0,33.0,197.0,239.0,780.233
780243.0,220.0,32.0,207.0,247.0,780.243
780253.0,218.0,33.0,204.0,248.0,780.253
780263.0,221.0,34.0,208.0,246.0,780.263
780273.0,212.0,33.0,193.0,240.0,780.273
780283.0,216.0,33.0,199.0,243.0,780.283
780293.0,215.0,33.0,199.0,245.0,780.293
780303.0,220.0,32.0,200.0,247.0,780.303
780313.0,221.0,33.0,206.0,248.0,780.313
780323.0,211.0,32.0,189.0,240.0,780.323
780333.0,215.0,32.0,198.0,244.0,780.333
780343.0,217.0,34.0,201.0,246.0,780.343
780353.0,219.0,32.0,198.0,246.0,780.353
780363.0,219.0,33.0,207.0,246.0,780.363
780374.0,210.0,33.0,187.0,237.0,780.374
780384.0,212.0,33.0,195.0,241.0,780.384
780394.0,219.0,33.0,207.0,249.0,780.394
780404.0,215.0,33.0,193.0,243.0,780.404
780414.0,216.0,32.0,204.0,243.0,780.414
780424.0,210.0,33.0,188.0,238.0,780.424
780434.0,215.0,33.0,201.0,244.0,780.434
780444.0,221.0,34.0,211.0,252.0,780.444
780454.0,216.0,33.0,196.0,245.0,780.454
780464.0,218.0,33.0,211.0,246.0,780.464
780474.0,209.0,32.0,192.0,236.0,780.474
780484.0,215.0,33.0,204.0,245.0,780.484
780494.0,222.0,33.0,217.0,250.0,780.494
780504.0,217.0,33.0,203.0,248.0,780.504
780514.0,218.0,33.0,214.0,245.0,780.514
780524.0,209.0,32.0,193.0,238.0,780.524
780534.0,214.0,33.0,206.0,245.0,780.534
780544.0,219.0,33.0,216.0,248.0,780.544
780554.0,217.0,33.0,206.0,246.0,780.554
780564.0,219.0,33.0,219.0,245.0,780.564
780574.0,209.0,33.0,199.0,238.0,780.574
780584.0,215.0,33.0,211.0,245.0,780.584
780594.0,219.0,33.0,221.0,247.0,780.594
780604.0,217.0,33.0,208.0,244.0,780.604
780614.0,217.0,32.0,219.0,245.0,780.614
780624.0,210.0,32.0,201.0,239.0,780.624
780634.0,216.0,33.0,213.0,246.0,780.634
780644.0,221.0,32.0,224.0,254.0,780.644
780654.0,217.0,33.0,208.0,249.0,780.654
780664.0,220.0,33.0,224.0,247.0,780.664
780674.0,211.0,33.0,205.0,240.0,780.674
780684.0,215.0,33.0,220.0,249.0,780.684
780694.0,222.0,33.0,232.0,252.0,780.694
780704.0,216.0,32.0,213.0,245.0,780.704
780715.0,217.0,32.0,229.0,245.0,780.715
780725.0,209.0,32.0,216.0,240.0,780.725
780735.0,216.0,32.0,224.0,247.0,780.735
780745.0,220.0,33.0,240.0,250.0,780.745
780755.0,212.0,32.0,216.0,242.0,780.755
780765.0,216.0,34.0,235.0,247.0,780.765
780775.0,211.0,32.0,225.0,245.0,780.775
780785.0,218.0,33.0,230.0,252.0,780.785
780795.0,223.0,33.0,249.0,254.0,780.795
780805.0,216.0,32.0,224.0,249.0,780.805
780815.0,219.0,32.0,243.0,251.0,780.815
780825.0,215.0,33.0,234.0,252.0,780.825
780835.0,220.0,32.0,237.0,255.0,780.835
780845.0,223.0,34.0,254.0,259.0,780.845
780855.0,216.0,32.0,232.0,250.0,780.855
780865.0,217.0,32.0,249.0,249.0,780.865
780875.0,215.0,32.0,244.0,249.0,780.875
780886.0,219.0,32.0,242.0,254.0,780.886
780896.0,221.0,33.0,263.0,252.0,780.896
780906.0,213.0,32.0,237.0,245.0,780.906
780916.0,213.0,33.0,252.0,246.0,780.916
780926.0,219.0,32.0,262.0,254.0,780.926
780936.0,217.0,32.0,251.0,250.0,780.936
780946.0,219.0,33.0,271.0,249.0,780.946
780956.0,210.0,32.0,245.0,240.0,780.956
780966.0,214.0,32.0,259.0,244.0,780.966
780976.0,215.0,32.0,263.0,247.0,780.976
780986.0,218.0,32.0,257.0,250.0,780.986
780996.0,218.0,33.0,277.0,247.0,780.996
781006.0,211.0,32.0,254.0,236.0,781.006
781016.0,214.0,32.0,270.0,240.0,781.016
781026.0,216.0,32.0,269.0,244.0,781.026
781036.0,217.0,33.0,260.0,245.0,781.036
781046.0,217.0,33.0,281.0,244.0,781.046
781056.0,209.0,32.0,255.0,238.0,781.056
781066.0,213.0,32.0,270.0,241.0,781.066
781076.0,215.0,33.0,274.0,249.0,781.076
781086.0,216.0,32.0,260.0,246.0,781.086
781096.0,217.0,32.0,280.0,245.0,781.096
781106.0,211.0,32.0,254.0,240.0,781.106
781116.0,215.0,32.0,272.0,242.0,781.116
781126.0,218.0,33.0,278.0,249.0,781.126
781136.0,218.0,31.0,261.0,247.0,781.136
781146.0,220.0,33.0,284.0,249.0,781.146
781156.0,211.0,32.0,256.0,240.0,781.156
781166.0,215.0,33.0,270.0,246.0,781.166
781176.0,220.0,33.0,279.0,252.0,781.176
781186.0,219.0,31.0,264.0,251.0,781.186
781196.0,220.0,32.0,284.0,250.0,781.196
781206.0,211.0,32.0,256.0,242.0,781.206
781216.0,214.0,32.0,268.0,246.0,781.216
781227.0,220.0,32.0,278.0,253.0,781.227
781237.0,217.0,32.0,258.0,248.0,781.237
781247.0,217.0,31.0,275.0,245.0,781.247
781257.0,209.0,32.0,255.0,238.0,781.257
781267.0,216.0,33.0,264.0,248.0,781.267
781277.0,220.0,33.0,277.0,250.0,781.277
781287.0,217.0,32.0,255.0,244.0,781.287
781297.0,216.0,32.0,273.0,244.0,781.297
781307.0,211.0,32.0,255.0,239.0,781.307
781317.0,215.0,33.0,263.0,245.0,781.317
781327.0,222.0,33.0,276.0,250.0,781.327
781337.0,216.0,33.0,253.0,243.0,781.337
781347.0,216.0,32.0,268.0,242.0,781.347
781357.0,210.0,33.0,246.0,237.0,781.357
781367.0,216.0,33.0,259.0,245.0,781.367
781377.0,222.0,32.0,271.0,252.0,781.377
781387.0,216.0,32.0,248.0,243.0,781.387
781398.0,217.0,32.0,264.0,244.0,781.398
781408.0,212.0,32.0,251.0,241.0,781.408
781418.0,219.0,32.0,254.0,249.0,781.418
781428.0,222.0,32.0,270.0,249.0,781.428
781438.0,214.0,31.0,243.0,241.0,781.438
781448.0,216.0,32.0,262.0,245.0,781.448
781458.0,214.0,31.0,252.0,243.0,781.458
781468.0,219.0,32.0,251.0,248.0,781.468
781478.0,222.0,33.0,271.0,249.0,781.478
781488.0,215.0,32.0,245.0,242.0,781.488
781498.0,217.0,32.0,263.0,244.0,781.498
781508.0,215.0,32.0,256.0,244.0,781.508
781518.0,221.0,31.0,254.0,249.0,781.518
781528.0,223.0,33.0,273.0,253.0,781.528
781538.0,215.0,32.0,248.0,242.0,781.538
781548.0,217.0,32.0,267.0,245.0,781.548
781558.0,217.0,32.0,263.0,246.0,781.558
781568.0,221.0,31.0,263.0,249.0,781.568
781578.0,223.0,32.0,283.0,252.0,781.578
781588.0,216.0,31.0,257.0,242.0,781.588
781598.0,217.0,32.0,275.0,243.0,781.598
781608.0,218.0,32.0,274.0,246.0,781.608
781618.0,218.0,32.0,271.0,247.0,781.618
781628.0,221.0,32.0,291.0,249.0,781.628
781638.0,214.0,32.0,263.0,241.0,781.638
781648.0,216.0,31.0,285.0,243.0,781.648
781658.0,214.0,31.0,278.0,243.0,781.658
781668.0,220.0,32.0,281.0,250.0,781.668
781678.0,223.0,33.0,303.0,251.0,781.678
781688.0,215.0,31.0,278.0,241.0,781.688
781698.0,218.0,31.0,302.0,246.0,781.698
781708.0,216.0,32.0,294.0,244.0,781.708
781718.0,221.0,33.0,294.0,251.0,781.718
781728.0,222.0,32.0,317.0,249.0,781.728
781739.0,213.0,31.0,291.0,240.0,781.739
781749.0,216.0,32.0,312.0,244.0,781.749
781759.0,220.0,32.0,318.0,249.0,781.759
781769.0,219.0,32.0,303.0,248.0,781.769
781779.0,219.0,31.0,330.0,248.0,781.779
781789.0,211.0,32.0,305.0,240.0,781.789
781799.0,215.0,32.0,326.0,244.0,781.799
781809.0,221.0,32.0,336.0,252.0,781.809
781819.0,219.0,31.0,319.0,249.0,781.819
781829.0,220.0,32.0,350.0,250.0,781.829
781839.0,212.0,31.0,323.0,241.0,781.839
781849.0,214.0,33.0,344.0,245.0,781.849
781859.0,221.0,32.0,357.0,252.0,781.859
781869.0,219.0,32.0,339.0,249.0,781.869
781879.0,220.0,32.0,370.0,247.0,781.879
781889.0,210.0,31.0,344.0,240.0,781.889
781899.0,216.0,32.0,367.0,248.0,781.899
781910.0,221.0,33.0,384.0,254.0,781.91
781920.0,217.0,32.0,363.0,247.0,781.92
781930.0,217.0,33.0,395.0,248.0,781.93
781940.0,210.0,32.0,381.0,241.0,781.94
781950.0,217.0,32.0,391.0,250.0,781.95
781960.0,221.0,33.0,416.0,252.0,781.96
781970.0,216.0,31.0,397.0,246.0,781.97
781980.0,216.0,33.0,433.0,246.0,781.98
781990.0,211.0,33.0,421.0,243.0,781.99
782000.0,214.0,32.0,437.0,246.0,782.0
782010.0,220.0,32.0,462.0,250.0,782.01
782020.0,214.0,32.0,441.0,244.0,782.02
782030.0,217.0,33.0,475.0,246.0,782.03
782040.0,209.0,33.0,460.0,240.0,782.04
782050.0,216.0,33.0,483.0,248.0,782.05
782060.0,221.0,33.0,512.0,253.0,782.06
782070.0,216.0,33.0,494.0,246.0,782.07
782080.0,217.0,33.0,533.0,249.0,782.08
782090.0,209.0,33.0,520.0,242.0,782.09
782100.0,217.0,34.0,541.0,252.0,782.1
782110.0,221.0,33.0,574.0,256.0,782.11
782120.0,214.0,33.0,555.0,248.0,782.12
782130.0,217.0,34.0,595.0,248.0,782.13
782140.0,209.0,34.0,585.0,241.0,782.14
782150.0,217.0,34.0,605.0,250.0,782.15
782160.0,222.0,34.0,642.0,253.0,782.16
782170.0,216.0,35.0,622.0,248.0,782.17
782180.0,217.0,35.0,662.0,247.0,782.18
782190.0,211.0,35.0,653.0,242.0,782.19
782200.0,219.0,34.0,666.0,252.0,782.2
782210.0,222.0,35.0,667.0,254.0,782.21
782220.0,218.0,34.0,666.0,246.0,782.22
782230.0,218.0,35.0,666.0,247.0,782.23
782240.0,212.0,33.0,666.0,243.0,782.24
782251.0,219.0,34.0,666.0,251.0,782.251
782261.0,223.0,34.0,667.0,250.0,782.261
782271.0,214.0,33.0,666.0,242.0,782.271
782281.0,217.0,34.0,667.0,244.0,782.281
782291.0,219.0,34.0,667.0,251.0,782.291
782301.0,220.0,33.0,666.0,250.0,782.301
782311.0,223.0,34.0,667.0,250.0,782.311
782321.0,214.0,33.0,666.0,243.0,782.321
782331.0,215.0,34.0,666.0,247.0,782.331
782341.0,214.0,33.0,667.0,248.0,782.341
782351.0,220.0,33.0,666.0,253.0,782.351
782361.0,222.0,34.0,666.0,252.0,782.361
782371.0,213.0,32.0,666.0,243.0,782.371
782381.0,216.0,33.0,666.0,245.0,782.381
782391.0,216.0,32.0,667.0,247.0,782.391
782401.0,220.0,32.0,666.0,250.0,782.401
782411.0,222.0,33.0,667.0,249.0,782.411
782422.0,211.0,33.0,666.0,241.0,782.422
782432.0,215.0,33.0,666.0,243.0,782.432
782442.0,221.0,32.0,666.0,251.0,782.442
782452.0,218.0,32.0,666.0,248.0,782.452
782462.0,219.0,32.0,666.0,246.0,782.462
782472.0,213.0,32.0,666.0,239.0,782.472
782482.0,217.0,32.0,666.0,245.0,782.482
782492.0,223.0,32.0,667.0,251.0,782.492
782502.0,219.0,32.0,666.0,248.0,782.502
782512.0,221.0,33.0,666.0,249.0,782.512
782522.0,213.0,32.0,666.0,242.0,782.522
782532.0,216.0,33.0,667.0,247.0,782.532
782542.0,222.0,33.0,667.0,254.0,782.542
782552.0,217.0,33.0,666.0,248.0,782.552
782562.0,217.0,33.0,666.0,243.0,782.562
782572.0,209.0,32.0,667.0,233.0,782.572
782582.0,216.0,32.0,666.0,244.0,782.582
782592.0,218.0,33.0,667.0,248.0,782.592
782602.0,217.0,32.0,666.0,248.0,782.602
782612.0,218.0,33.0,666.0,246.0,782.612
782622.0,210.0,32.0,667.0,242.0,782.622
782632.0,214.0,33.0,666.0,247.0,782.632
782642.0,217.0,33.0,668.0,251.0,782.642
782652.0,215.0,32.0,666.0,244.0,782.652
782662.0,215.0,33.0,666.0,245.0,782.662
782672.0,208.0,33.0,667.0,239.0,782.672
782682.0,214.0,33.0,666.0,246.0,782.682
782692.0,218.0,33.0,667.0,248.0,782.692
782702.0,215.0,32.0,666.0,244.0,782.702
782712.0,215.0,32.0,666.0,242.0,782.712
782722.0,208.0,32.0,666.0,240.0,782.722
782732.0,213.0,32.0,667.0,251.0,782.732
782742.0,219.0,33.0,667.0,256.0,782.742
782752.0,215.0,32.0,666.0,249.0,782.752
782763.0,215.0,33.0,666.0,244.0,782.763
782773.0,207.0,32.0,666.0,234.0,782.773
782783.0,215.0,32.0,666.0,242.0,782.783
782793.0,220.0,33.0,668.0,246.0,782.793
782803.0,214.0,33.0,666.0,241.0,782.803
782813.0,218.0,34.0,666.0,242.0,782.813
782823.0,211.0,33.0,666.0,240.0,782.823
782833.0,219.0,33.0,666.0,250.0,782.833
782843.0,221.0,32.0,666.0,252.0,782.843
782853.0,216.0,32.0,666.0,247.0,782.853
782863.0,217.0,33.0,666.0,249.0,782.863
782873.0,211.0,33.0,667.0,246.0,782.873
782883.0,218.0,32.0,666.0,251.0,782.883
782893.0,221.0,33.0,666.0,255.0,782.893
782903.0,215.0,32.0,665.0,247.0,782.903
782913.0,216.0,32.0,666.0,251.0,782.913
782923.0,213.0,32.0,667.0,246.0,782.923
782934.0,219.0,33.0,666.0,254.0,782.934
782944.0,221.0,32.0,667.0,252.0,782.944
782954.0,212.0,32.0,666.0,245.0,782.954
782964.0,215.0,32.0,666.0,247.0,782.964
782974.0,219.0,32.0,667.0,252.0,782.974
782984.0,220.0,32.0,666.0,251.0,782.984
782994.0,222.0,33.0,667.0,248.0,782.994
783004.0,214.0,32.0,666.0,241.0,783.004
783014.0,214.0,33.0,666.0,245.0,783.014
783024.0,215.0,32.0,667.0,249.0,783.024
783034.0,219.0,32.0,666.0,254.0,783.034
783044.0,220.0,32.0,666.0,251.0,783.044
783054.0,214.0,31.0,667.0,245.0,783.054
783064.0,216.0,33.0,666.0,251.0,783.064
783074.0,217.0,32.0,667.0,255.0,783.074
783084.0,220.0,32.0,666.0,255.0,783.084
783094.0,221.0,32.0,667.0,251.0,783.094
783104.0,214.0,31.0,666.0,248.0,783.104
783114.0,215.0,32.0,666.0,247.0,783.114
783124.0,217.0,33.0,667.0,251.0,783.124
783134.0,219.0,32.0,666.0,252.0,783.134
783144.0,219.0,32.0,666.0,249.0,783.144
783154.0,214.0,32.0,666.0,242.0,783.154
783164.0,214.0,31.0,666.0,243.0,783.164
783174.0,216.0,32.0,667.0,247.0,783.174
783184.0,217.0,32.0,666.0,249.0,783.184
783194.0,219.0,33.0,666.0,250.0,783.194
783204.0,211.0,32.0,666.0,242.0,783.204
783214.0,214.0,33.0,666.0,246.0,783.214
783224.0,219.0,31.0,667.0,253.0,783.224
783234.0,218.0,32.0,666.0,251.0,783.234
783244.0,220.0,32.0,666.0,249.0,783.244
783254.0,212.0,31.0,666.0,242.0,783.254
783264.0,214.0,32.0,666.0,246.0,783.264
783275.0,218.0,33.0,667.0,254.0,783.275
783285.0,217.0,31.0,666.0,250.0,783.285
783295.0,216.0,31.0,666.0,249.0,783.295
783305.0,209.0,31.0,668.0,241.0,783.305
783315.0,216.0,33.0,666.0,251.0,783.315
783325.0,218.0,32.0,667.0,252.0,783.325
783335.0,217.0,31.0,666.0,247.0,783.335
783345.0,216.0,32.0,667.0,246.0,783.345
783355.0,210.0,31.0,667.0,240.0,783.355
783365.0,213.0,32.0,666.0,247.0,783.365
783375.0,220.0,31.0,667.0,252.0,783.375
783385.0,215.0,33.0,666.0,246.0,783.385
783395.0,215.0,32.0,666.0,246.0,783.395
783405.0,208.0,33.0,658.0,239.0,783.405
783415.0,214.0,31.0,666.0,246.0,783.415
783425.0,219.0,32.0,667.0,250.0,783.425
783435.0,215.0,32.0,635.0,245.0,783.435
783446.0,216.0,33.0,657.0,246.0,783.446
783456.0,210.0,32.0,630.0,241.0,783.456
783466.0,217.0,32.0,623.0,250.0,783.466
783476.0,221.0,33.0,641.0,250.0,783.476
783486.0,212.0,31.0,601.0,242.0,783.486
783496.0,215.0,32.0,622.0,244.0,783.496
783506.0,211.0,32.0,597.0,242.0,783.506
783516.0,217.0,32.0,587.0,250.0,783.516
783526.0,220.0,32.0,606.0,249.0,783.526
783536.0,214.0,32.0,566.0,244.0,783.536
783546.0,215.0,32.0,585.0,245.0,783.546
783556.0,212.0,32.0,564.0,244.0,783.556
783566.0,218.0,32.0,549.0,251.0,783.566
783576.0,221.0,33.0,569.0,253.0,783.576
783586.0,214.0,32.0,531.0,246.0,783.586
783596.0,215.0,32.0,550.0,246.0,783.596
783606.0,214.0,31.0,529.0,247.0,783.606
783616.0,216.0,31.0,518.0,251.0,783.616
783626.0,221.0,32.0,532.0,253.0,783.626
783636.0,214.0,33.0,491.0,247.0,783.636
783646.0,215.0,32.0,507.0,247.0,783.646
783656.0,215.0,32.0,489.0,250.0,783.656
783666.0,218.0,31.0,477.0,251.0,783.666
783676.0,221.0,31.0,493.0,252.0,783.676
783686.0,213.0,31.0,453.0,244.0,783.686
783696.0,214.0,31.0,469.0,246.0,783.696
783706.0,211.0,31.0,446.0,244.0,783.706
783716.0,218.0,31.0,440.0,254.0,783.716
783726.0,221.0,31.0,456.0,253.0,783.726
783736.0,213.0,30.0,418.0,247.0,783.736
783746.0,215.0,31.0,437.0,247.0,783.746
783756.0,213.0,31.0,414.0,246.0,783.756
783766.0,219.0,31.0,408.0,255.0,783.766
783776.0,221.0,31.0,424.0,253.0,783.776
783787.0,211.0,31.0,387.0,246.0,783.787
783797.0,213.0,30.0,401.0,247.0,783.797
783807.0,216.0,31.0,396.0,253.0,783.807
783817.0,218.0,29.0,375.0,253.0,783.817
783827.0,218.0,30.0,391.0,252.0,783.827
783837.0,211.0,30.0,359.0,247.0,783.837
783847.0,214.0,30.0,367.0,249.0,783.847
783857.0,218.0,30.0,369.0,254.0,783.857
783867.0,217.0,31.0,347.0,253.0,783.867
783877.0,219.0,31.0,366.0,252.0,783.877
783887.0,210.0,30.0,332.0,247.0,783.887
783897.0,213.0,31.0,340.0,249.0,783.897
783907.0,219.0,30.0,342.0,255.0,783.907
783917.0,217.0,31.0,320.0,254.0,783.917
783927.0,218.0,31.0,333.0,252.0,783.927
783937.0,209.0,30.0,299.0,245.0,783.937
783947.0,213.0,29.0,305.0,249.0,783.947
783958.0,219.0,32.0,308.0,255.0,783.958
783968.0,216.0,30.0,286.0,250.0,783.968
783978.0,216.0,31.0,298.0,248.0,783.978
783988.0,210.0,31.0,275.0,242.0,783.988
783998.0,216.0,31.0,278.0,251.0,783.998
784008.0,221.0,31.0,286.0,253.0,784.008
784018.0,217.0,31.0,261.0,250.0,784.018
784028.0,217.0,30.0,271.0,247.0,784.028
784038.0,210.0,32.0,250.0,243.0,784.038
784048.0,214.0,31.0,254.0,248.0,784.048
784058.0,220.0,31.0,262.0,254.0,784.058
784068.0,216.0,31.0,241.0,249.0,784.068
784078.0,216.0,31.0,248.0,248.0,784.078
784088.0,211.0,32.0,228.0,242.0,784.088
784098.0,216.0,32.0,235.0,249.0,784.098
784108.0,221.0,32.0,244.0,254.0,784.108
784118.0,217.0,30.0,224.0,249.0,784.118
784128.0,217.0,32.0,235.0,250.0,784.128
784138.0,210.0,31.0,213.0,242.0,784.138
784148.0,216.0,32.0,221.0,252.0,784.148
784158.0,221.0,32.0,230.0,254.0,784.158
784168.0,216.0,31.0,211.0,250.0,784.168
784178.0,218.0,30.0,220.0,250.0,784.178
784188.0,211.0,31.0,202.0,245.0,784.188
784198.0,220.0,31.0,211.0,253.0,784.198
784208.0,223.0,32.0,218.0,258.0,784.208
784218.0,219.0,32.0,205.0,254.0,784.218
784228.0,219.0,33.0,209.0,252.0,784.228
784238.0,212.0,31.0,195.0,245.0,784.238
784248.0,219.0,31.0,204.0,255.0,784.248
784258.0,223.0,32.0,210.0,256.0,784.258
784268.0,219.0,31.0,199.0,251.0,784.268
784278.0,218.0,32.0,201.0,248.0,784.278
784288.0,213.0,32.0,193.0,246.0,784.288
784299.0,220.0,32.0,199.0,254.0,784.299
784309.0,224.0,32.0,205.0,256.0,784.309
784319.0,216.0,31.0,193.0,248.0,784.319
784329.0,217.0,32.0,196.0,249.0,784.329
784339.0,219.0,31.0,200.0,252.0,784.339
784349.0,221.0,31.0,201.0,253.0,784.349
784359.0,223.0,32.0,204.0,253.0,784.359
784369.0,215.0,32.0,194.0,246.0,784.369
784379.0,216.0,31.0,196.0,247.0,784.379
784389.0,214.0,32.0,196.0,246.0,784.389
784399.0,220.0,31.0,202.0,253.0,784.399
784409.0,222.0,32.0,204.0,252.0,784.409
784419.0,214.0,32.0,195.0,246.0,784.419
784429.0,217.0,32.0,199.0,246.0,784.429
784439.0,214.0,31.0,198.0,246.0,784.439
784449.0,219.0,32.0,203.0,250.0,784.449
784459.0,221.0,33.0,203.0,250.0,784.459
784470.0,212.0,32.0,198.0,244.0,784.47
784480.0,214.0,32.0,201.0,246.0,784.48
784490.0,219.0,33.0,210.0,255.0,784.49
784500.0,221.0,32.0,211.0,253.0,784.5
784510.0,217.0,33.0,206.0,250.0,784.51
784520.0,213.0,31.0,204.0,245.0,784.52
784530.0,215.0,33.0,205.0,247.0,784.53
784540.0,221.0,32.0,215.0,253.0,784.54
784550.0,219.0,32.0,213.0,251.0,784.55
784560.0,221.0,32.0,212.0,250.0,784.56
784570.0,211.0,32.0,209.0,243.0,784.57
784580.0,215.0,32.0,211.0,247.0,784.58
784590.0,221.0,33.0,219.0,255.0,784.59
784600.0,219.0,32.0,221.0,254.0,784.6
784610.0,219.0,33.0,217.0,252.0,784.61
784620.0,212.0,32.0,217.0,245.0,784.62
784630.0,215.0,32.0,218.0,250.0,784.63
784640.0,217.0,32.0,223.0,253.0,784.64
784650.0,219.0,32.0,224.0,253.0,784.65
784660.0,218.0,32.0,219.0,252.0,784.66
784670.0,211.0,32.0,219.0,244.0,784.67
784680.0,216.0,33.0,223.0,251.0,784.68
784690.0,219.0,32.0,228.0,254.0,784.69
784700.0,220.0,32.0,232.0,254.0,784.7
784710.0,220.0,33.0,227.0,252.0,784.71
784720.0,212.0,33.0,226.0,246.0,784.72
784730.0,216.0,32.0,228.0,250.0,784.73
784740.0,221.0,33.0,236.0,258.0,784.74
784750.0,221.0,32.0,242.0,256.0,784.75
784760.0,219.0,32.0,233.0,253.0,784.76
784770.0,214.0,32.0,239.0,248.0,784.77
784780.0,217.0,31.0,236.0,252.0,784.78
784790.0,222.0,33.0,243.0,260.0,784.79
784800.0,221.0,32.0,247.0,256.0,784.8
784811.0,219.0,32.0,241.0,255.0,784.811
784821.0,213.0,31.0,243.0,247.0,784.821
784831.0,220.0,32.0,248.0,256.0,784.831
784841.0,225.0,32.0,248.0,259.0,784.841
784851.0,218.0,33.0,251.0,252.0,784.851
784861.0,220.0,32.0,245.0,253.0,784.861
784871.0,213.0,33.0,247.0,249.0,784.871
784881.0,221.0,32.0,254.0,256.0,784.881
784891.0,224.0,32.0,249.0,257.0,784.891
784901.0,221.0,32.0,257.0,253.0,784.901
784911.0,219.0,33.0,248.0,253.0,784.911
784921.0,214.0,32.0,253.0,249.0,784.921
784931.0,222.0,32.0,259.0,256.0,784.931
784941.0,225.0,33.0,257.0,258.0,784.941
784951.0,220.0,32.0,260.0,253.0,784.951
784961.0,219.0,33.0,251.0,252.0,784.961
784971.0,216.0,31.0,256.0,249.0,784.971
784982.0,222.0,33.0,263.0,257.0,784.982
784992.0,225.0,33.0,255.0,255.0,784.992
785002.0,217.0,32.0,261.0,248.0,785.002
785012.0,218.0,32.0,254.0,250.0,785.012
785022.0,220.0,32.0,263.0,255.0,785.022
785032.0,223.0,32.0,266.0,257.0,785.032
785042.0,224.0,33.0,257.0,256.0,785.042
785052.0,216.0,32.0,264.0,250.0,785.052
785062.0,218.0,33.0,256.0,251.0,785.062
785072.0,218.0,32.0,263.0,251.0,785.072
785082.0,221.0,32.0,267.0,257.0,785.082
785092.0,223.0,32.0,261.0,256.0,785.092
785102.0,216.0,33.0,265.0,250.0,785.102
785112.0,219.0,32.0,258.0,252.0,785.112
785122.0,218.0,33.0,264.0,254.0,785.122
785132.0,223.0,32.0,269.0,256.0,785.132
785142.0,222.0,31.0,259.0,256.0,785.142
785152.0,218.0,32.0,267.0,252.0,785.152
785162.0,218.0,33.0,258.0,252.0,785.162
785172.0,219.0,32.0,265.0,255.0,785.172
785182.0,223.0,32.0,266.0,255.0,785.182
785192.0,221.0,33.0,255.0,252.0,785.192
785202.0,219.0,33.0,266.0,249.0,785.202
785212.0,218.0,32.0,256.0,247.0,785.212
785222.0,221.0,32.0,265.0,252.0,785.222
785232.0,224.0,32.0,270.0,253.0,785.232
785242.0,226.0,32.0,262.0,253.0,785.242
785252.0,219.0,32.0,269.0,247.0,785.252
785262.0,220.0,33.0,260.0,247.0,785.262
785272.0,222.0,33.0,266.0,253.0,785.272
785282.0,224.0,32.0,272.0,253.0,785.282
785292.0,225.0,33.0,265.0,253.0,785.292
785302.0,219.0,32.0,272.0,246.0,785.302
785312.0,220.0,33.0,264.0,249.0,785.312
785323.0,224.0,33.0,273.0,254.0,785.323
785333.0,224.0,32.0,276.0,253.0,785.333
785343.0,223.0,32.0,263.0,249.0,785.343
785353.0,216.0,31.0,270.0,243.0,785.353
785363.0,221.0,33.0,270.0,251.0,785.363
785373.0,224.0,33.0,273.0,254.0,785.373
785383.0,221.0,32.0,274.0,251.0,785.383
785393.0,221.0,32.0,261.0,249.0,785.393
785403.0,213.0,32.0,268.0,243.0,785.403
785413.0,218.0,32.0,264.0,248.0,785.413
785423.0,224.0,33.0,272.0,254.0,785.423
785433.0,222.0,32.0,277.0,252.0,785.433
785443.0,221.0,33.0,264.0,250.0,785.443
785453.0,215.0,32.0,274.0,245.0,785.453
785463.0,217.0,32.0,268.0,250.0,785.463
785473.0,223.0,33.0,273.0,257.0,785.473
785483.0,219.0,33.0,274.0,253.0,785.483
785494.0,219.0,32.0,263.0,252.0,785.494
785504.0,212.0,33.0,269.0,247.0,785.504
785514.0,220.0,32.0,275.0,254.0,785.514
785524.0,224.0,33.0,268.0,255.0,785.524
785534.0,217.0,32.0,277.0,250.0,785.534
785544.0,219.0,32.0,267.0,252.0,785.544
785554.0,213.0,32.0,272.0,247.0,785.554
785564.0,220.0,32.0,278.0,254.0,785.564
785574.0,223.0,33.0,271.0,255.0,785.574
785584.0,219.0,32.0,282.0,251.0,785.584
785594.0,218.0,33.0,270.0,250.0,785.594
785604.0,213.0,32.0,279.0,248.0,785.604
785614.0,220.0,32.0,284.0,254.0,785.614
785624.0,223.0,33.0,278.0,254.0,785.624
785634.0,218.0,33.0,286.0,251.0,785.634
785644.0,218.0,33.0,276.0,250.0,785.644
785654.0,215.0,32.0,283.0,250.0,785.654
785664.0,218.0,32.0,284.0,254.0,785.664
785674.0,223.0,33.0,281.0,258.0,785.674
785684.0,217.0,32.0,288.0,252.0,785.684
785694.0,217.0,32.0,275.0,251.0,785.694
785704.0,216.0,32.0,283.0,251.0,785.704
785714.0,219.0,31.0,283.0,254.0,785.714
785724.0,223.0,33.0,279.0,256.0,785.724
785734.0,217.0,32.0,285.0,251.0,785.734
785744.0,218.0,33.0,275.0,250.0,785.744
785754.0,213.0,32.0,278.0,245.0,785.754
785764.0,221.0,33.0,282.0,255.0,785.764
785774.0,225.0,33.0,276.0,255.0,785.774
785784.0,217.0,32.0,283.0,248.0,785.784
785794.0,219.0,33.0,272.0,249.0,785.794
785804.0,214.0,32.0,279.0,247.0,785.804
785814.0,222.0,32.0,285.0,254.0,785.814
785824.0,224.0,34.0,275.0,254.0,785.824
785835.0,219.0,33.0,287.0,248.0,785.835
785845.0,218.0,33.0,277.0,250.0,785.845
785855.0,221.0,33.0,286.0,253.0,785.855
785865.0,223.0,33.0,290.0,256.0,785.865
785875.0,222.0,32.0,276.0,251.0,785.875
785885.0,219.0,32.0,289.0,247.0,785.885
785895.0,218.0,33.0,275.0,246.0,785.895
785905.0,222.0,33.0,284.0,252.0,785.905
785915.0,222.0,33.0,289.0,252.0,785.915
785925.0,224.0,33.0,277.0,253.0,785.925
785935.0,217.0,32.0,288.0,246.0,785.935
785945.0,218.0,32.0,279.0,247.0,785.945
785955.0,222.0,33.0,287.0,256.0,785.955
785965.0,223.0,33.0,292.0,255.0,785.965
785975.0,223.0,33.0,277.0,253.0,785.975
785985.0,216.0,32.0,287.0,246.0,785.985
785995.0,217.0,33.0,278.0,248.0,785.995
786006.0,222.0,33.0,286.0,254.0,786.006
786016.0,221.0,33.0,290.0,253.0,786.016
786026.0,221.0,32.0,278.0,249.0,786.026
786036.0,214.0,32.0,284.0,242.0,786.036
786046.0,221.0,32.0,284.0,251.0,786.046
786056.0,224.0,33.0,285.0,255.0,786.056
786066.0,222.0,32.0,289.0,252.0,786.066
786076.0,220.0,32.0,276.0,249.0,786.076
786086.0,213.0,33.0,280.0,244.0,786.086
786096.0,217.0,32.0,277.0,250.0,786.096
786106.0,224.0,33.0,282.0,256.0,786.106
786116.0,221.0,32.0,289.0,253.0,786.116
786126.0,219.0,33.0,275.0,252.0,786.126
786136.0,213.0,32.0,284.0,245.0,786.136
786146.0,217.0,34.0,279.0,252.0,786.146
786156.0,224.0,33.0,283.0,258.0,786.156
786166.0,219.0,33.0,287.0,254.0,786.166
786176.0,221.0,33.0,275.0,254.0,786.176
786186.0,213.0,33.0,283.0,248.0,786.186
786196.0,218.0,33.0,280.0,254.0,786.196
786206.0,223.0,33.0,281.0,258.0,786.206
786216.0,219.0,32.0,286.0,252.0,786.216
786226.0,220.0,33.0,273.0,252.0,786.226
786236.0,213.0,32.0,281.0,244.0,786.236
786246.0,219.0,33.0,280.0,252.0,786.246
786256.0,224.0,33.0,279.0,256.0,786.256
786266.0,221.0,32.0,286.0,253.0,786.266
786276.0,220.0,34.0,273.0,250.0,786.276
786286.0,213.0,31.0,279.0,243.0,786.286
786296.0,220.0,32.0,280.0,253.0,786.296
786306.0,223.0,33.0,280.0,255.0,786.306
786316.0,219.0,33.0,283.0,252.0,786.316
786326.0,220.0,32.0,273.0,249.0,786.326
786336.0,212.0,32.0,277.0,244.0,786.336
786347.0,219.0,32.0,278.0,252.0,786.347
786357.0,222.0,33.0,272.0,255.0,786.357
786367.0,217.0,32.0,280.0,248.0,786.367
786377.0,218.0,33.0,269.0,249.0,786.377
786387.0,217.0,32.0,276.0,250.0,786.387
786397.0,220.0,33.0,279.0,254.0,786.397
786407.0,223.0,33.0,271.0,255.0,786.407
786417.0,214.0,32.0,274.0,247.0,786.417
786427.0,215.0,32.0,265.0,248.0,786.427
786437.0,212.0,32.0,269.0,246.0,786.437
786447.0,219.0,32.0,275.0,254.0,786.447
786457.0,223.0,32.0,267.0,253.0,786.457
786467.0,214.0,32.0,275.0,247.0,786.467
786477.0,218.0,33.0,267.0,249.0,786.477
786487.0,213.0,33.0,270.0,246.0,786.487
786497.0,220.0,32.0,277.0,254.0,786.497
786507.0,223.0,34.0,269.0,255.0,786.507
786518.0,214.0,32.0,277.0,248.0,786.518
786528.0,216.0,33.0,268.0,249.0,786.528
786538.0,220.0,33.0,277.0,254.0,786.538
786548.0,220.0,32.0,279.0,253.0,786.548
786558.0,219.0,32.0,267.0,251.0,786.558
786568.0,215.0,33.0,279.0,248.0,786.568
786578.0,216.0,32.0,269.0,248.0,786.578
786588.0,221.0,33.0,279.0,254.0,786.588
786598.0,221.0,33.0,282.0,252.0,786.598
786608.0,223.0,33.0,270.0,253.0,786.608
786618.0,213.0,32.0,278.0,245.0,786.618
786628.0,216.0,32.0,270.0,248.0,786.628
786638.0,222.0,33.0,276.0,255.0,786.638
786648.0,221.0,32.0,279.0,254.0,786.648
786658.0,221.0,34.0,267.0,252.0,786.658
786668.0,215.0,32.0,275.0,244.0,786.668
786678.0,216.0,32.0,268.0,248.0,786.678
786688.0,219.0,33.0,274.0,251.0,786.688
786698.0,220.0,33.0,278.0,255.0,786.698
786708.0,220.0,32.0,268.0,253.0,786.708
786718.0,212.0,32.0,273.0,246.0,786.718
786728.0,217.0,33.0,269.0,251.0,786.728
786738.0,218.0,33.0,274.0,254.0,786.738
786748.0,220.0,32.0,279.0,256.0,786.748
786758.0,220.0,33.0,266.0,253.0,786.758
786768.0,212.0,32.0,274.0,246.0,786.768
786778.0,216.0,32.0,267.0,250.0,786.778
786788.0,219.0,33.0,272.0,255.0,786.788
786798.0,220.0,32.0,276.0,255.0,786.798
786808.0,218.0,33.0,261.0,252.0,786.808
786818.0,214.0,32.0,267.0,247.0,786.818
786828.0,215.0,33.0,259.0,249.0,786.828
786838.0,220.0,32.0,268.0,254.0,786.838
786848.0,219.0,33.0,271.0,254.0,786.848
786859.0,219.0,33.0,260.0,251.0,786.859
786869.0,210.0,32.0,264.0,244.0,786.869
786879.0,217.0,32.0,264.0,251.0,786.879
786889.0,222.0,34.0,264.0,256.0,786.889
786899.0,216.0,32.0,268.0,249.0,786.899
786909.0,218.0,32.0,257.0,251.0,786.909
786919.0,211.0,32.0,263.0,243.0,786.919
786929.0,217.0,33.0,265.0,253.0,786.929
786939.0,223.0,33.0,264.0,255.0,786.939
786949.0,218.0,33.0,268.0,252.0,786.949
786959.0,218.0,33.0,258.0,249.0,786.959
786969.0,211.0,32.0,263.0,244.0,786.969
786979.0,219.0,33.0,267.0,252.0,786.979
786989.0,223.0,32.0,267.0,254.0,786.989
786999.0,217.0,32.0,272.0,252.0,786.999
787009.0,218.0,33.0,260.0,250.0,787.009
787019.0,211.0,33.0,265.0,245.0,787.019
787030.0,218.0,32.0,270.0,254.0,787.03
787040.0,221.0,33.0,264.0,255.0,787.04
787050.0,215.0,32.0,271.0,248.0,787.05
787060.0,214.0,33.0,262.0,248.0,787.06
787070.0,216.0,33.0,270.0,251.0,787.07
787080.0,219.0,34.0,273.0,255.0,787.08
787090.0,221.0,32.0,265.0,255.0,787.09
787100.0,213.0,32.0,273.0,248.0,787.1
787110.0,215.0,33.0,267.0,250.0,787.11
787120.0,212.0,31.0,271.0,249.0,787.12
787130.0,218.0,32.0,275.0,254.0,787.13
787140.0,221.0,33.0,265.0,254.0,787.14
787150.0,212.0,32.0,272.0,245.0,787.15
787160.0,215.0,32.0,264.0,249.0,787.16
787170.0,211.0,32.0,271.0,248.0,787.17
787180.0,218.0,32.0,277.0,253.0,787.18
787190.0,219.0,33.0,265.0,253.0,787.19
787200.0,214.0,32.0,276.0,249.0,787.2
787210.0,214.0,32.0,262.0,248.0,787.21
787220.0,212.0,32.0,269.0,247.0,787.22
787230.0,217.0,33.0,275.0,253.0,787.23
787240.0,220.0,33.0,269.0,252.0,787.24
787250.0,212.0,32.0,276.0,248.0,787.25
787260.0,214.0,33.0,265.0,247.0,787.26
787270.0,214.0,33.0,272.0,250.0,787.27
787280.0,217.0,32.0,276.0,251.0,787.28
787290.0,221.0,33.0,267.0,254.0,787.29
787300.0,213.0,32.0,274.0,245.0,787.3
787310.0,214.0,32.0,264.0,247.0,787.31
787320.0,214.0,32.0,272.0,249.0,787.32
787330.0,216.0,32.0,274.0,253.0,787.33
787340.0,220.0,33.0,267.0,254.0,787.34
787350.0,211.0,32.0,275.0,247.0,787.35
787360.0,213.0,33.0,266.0,248.0,787.36
787371.0,216.0,33.0,274.0,253.0,787.371
787381.0,216.0,32.0,277.0,254.0,787.381
787391.0,217.0,32.0,264.0,249.0,787.391
787401.0,208.0,32.0,268.0,241.0,787.401
787411.0,213.0,32.0,265.0,247.0,787.411
787421.0,217.0,32.0,271.0,252.0,787.421
787431.0,216.0,32.0,274.0,250.0,787.431
787441.0,216.0,32.0,260.0,249.0,787.441
787451.0,209.0,32.0,267.0,241.0,787.451
787461.0,214.0,32.0,261.0,247.0,787.461
787471.0,217.0,32.0,270.0,252.0,787.471
787481.0,217.0,33.0,272.0,251.0,787.481
787491.0,217.0,32.0,260.0,248.0,787.491
787501.0,211.0,31.0,265.0,241.0,787.501
787511.0,214.0,32.0,259.0,244.0,787.511
787521.0,220.0,32.0,266.0,253.0,787.521
787531.0,218.0,32.0,271.0,250.0,787.531
787542.0,218.0,32.0,258.0,249.0,787.542
787552.0,210.0,32.0,259.0,241.0,787.552
787562.0,217.0,31.0,263.0,250.0,787.562
787572.0,221.0,33.0,261.0,254.0,787.572
787582.0,215.0,32.0,265.0,246.0,787.582
787592.0,217.0,33.0,255.0,248.0,787.592
787602.0,210.0,31.0,258.0,241.0,787.602
787612.0,218.0,31.0,263.0,251.0,787.612
787622.0,223.0,32.0,260.0,253.0,787.622
787632.0,217.0,32.0,265.0,248.0,787.632
787642.0,218.0,32.0,256.0,248.0,787.642
787652.0,210.0,33.0,258.0,244.0,787.652
787662.0,217.0,32.0,264.0,252.0,787.662
787672.0,221.0,33.0,261.0,254.0,787.672
787682.0,216.0,32.0,263.0,247.0,787.682
787692.0,216.0,32.0,252.0,246.0,787.692
787702.0,210.0,32.0,254.0,242.0,787.702
787712.0,215.0,32.0,256.0,246.0,787.712
787722.0,220.0,33.0,257.0,251.0,787.722
787732.0,215.0,32.0,261.0,244.0,787.732
787742.0,215.0,32.0,251.0,244.0,787.742
787752.0,211.0,32.0,257.0,242.0,787.752
787762.0,216.0,32.0,260.0,247.0,787.762
787772.0,221.0,33.0,259.0,252.0,787.772
787782.0,215.0,33.0,263.0,245.0,787.782
787792.0,215.0,32.0,254.0,245.0,787.792
787802.0,209.0,32.0,258.0,241.0,787.802
787812.0,216.0,32.0,262.0,250.0,787.812
787822.0,222.0,32.0,263.0,256.0,787.822
787832.0,215.0,32.0,265.0,248.0,787.832
787842.0,217.0,32.0,253.0,249.0,787.842
787852.0,209.0,32.0,256.0,243.0,787.852
787862.0,217.0,32.0,261.0,252.0,787.862
787872.0,222.0,32.0,259.0,255.0,787.872
787883.0,214.0,31.0,261.0,248.0,787.883
787893.0,215.0,32.0,253.0,249.0,787.893
787903.0,215.0,33.0,260.0,252.0,787.903
787913.0,217.0,33.0,264.0,256.0,787.913
787923.0,219.0,32.0,254.0,252.0,787.923
787933.0,213.0,32.0,260.0,247.0,787.933
787943.0,215.0,33.0,253.0,248.0,787.943
787953.0,215.0,33.0,257.0,250.0,787.953
787963.0,217.0,33.0,261.0,251.0,787.963
787973.0,221.0,33.0,254.0,253.0,787.973
787983.0,213.0,32.0,257.0,244.0,787.983
787993.0,214.0,33.0,251.0,245.0,787.993
788003.0,216.0,33.0,258.0,248.0,788.003
788013.0,218.0,32.0,258.0,248.0,788.013
788023.0,220.0,33.0,253.0,249.0,788.023
788033.0,211.0,32.0,256.0,242.0,788.033
788043.0,214.0,33.0,249.0,244.0,788.043
788054.0,218.0,32.0,256.0,250.0,788.054
788064.0,218.0,32.0,260.0,250.0,788.064
788074.0,219.0,33.0,250.0,249.0,788.074
788084.0,211.0,32.0,254.0,242.0,788.084
788094.0,215.0,33.0,255.0,251.0,788.094
788104.0,219.0,33.0,258.0,254.0,788.104
788114.0,218.0,32.0,260.0,250.0,788.114
788124.0,217.0,33.0,250.0,249.0,788.124
788134.0,210.0,32.0,254.0,241.0,788.134
788144.0,214.0,32.0,250.0,246.0,788.144
788154.0,220.0,32.0,257.0,253.0,788.154
788164.0,218.0,33.0,261.0,251.0,788.164
788174.0,217.0,32.0,252.0,249.0,788.174
788184.0,211.0,33.0,256.0,243.0,788.184
788194.0,214.0,33.0,252.0,246.0,788.194
788204.0,220.0,32.0,259.0,252.0,788.204
788214.0,216.0,32.0,260.0,248.0,788.214
788224.0,218.0,33.0,250.0,249.0,788.224
788234.0,209.0,32.0,257.0,240.0,788.234
788244.0,213.0,32.0,253.0,247.0,788.244
788254.0,219.0,33.0,259.0,252.0,788.254
788264.0,217.0,31.0,262.0,248.0,788.264
788274.0,218.0,32.0,252.0,248.0,788.274
788284.0,210.0,32.0,256.0,239.0,788.284
788294.0,214.0,33.0,254.0,247.0,788.294
788304.0,220.0,32.0,257.0,252.0,788.304
788314.0,217.0,33.0,260.0,249.0,788.314
788324.0,218.0,32.0,251.0,249.0,788.324
788334.0,210.0,32.0,255.0,240.0,788.334
788344.0,215.0,33.0,256.0,249.0,788.344
788354.0,219.0,33.0,259.0,253.0,788.354
788364.0,218.0,32.0,263.0,250.0,788.364
788374.0,218.0,32.0,251.0,249.0,788.374
788384.0,210.0,32.0,253.0,240.0,788.384
788395.0,217.0,32.0,254.0,249.0,788.395
788405.0,220.0,33.0,256.0,254.0,788.405
788415.0,214.0,32.0,258.0,247.0,788.415
788425.0,215.0,32.0,248.0,246.0,788.425
788435.0,213.0,32.0,252.0,245.0,788.435
788445.0,216.0,32.0,255.0,249.0,788.445
788455.0,222.0,32.0,254.0,252.0,788.455
788465.0,214.0,32.0,256.0,244.0,788.465
788475.0,215.0,32.0,250.0,244.0,788.475
788485.0,209.0,33.0,251.0,239.0,788.485
788495.0,218.0,32.0,258.0,248.0,788.495
788505.0,221.0,33.0,255.0,252.0,788.505
788515.0,216.0,32.0,258.0,242.0,788.515
788525.0,217.0,32.0,251.0,246.0,788.525
788535.0,211.0,32.0,254.0,240.0,788.535
788545.0,219.0,32.0,260.0,250.0,788.545
788555.0,223.0,32.0,256.0,251.0,788.555
788566.0,216.0,32.0,260.0,244.0,788.566
788576.0,217.0,32.0,252.0,245.0,788.576
788586.0,217.0,32.0,258.0,246.0,788.586
788596.0,220.0,32.0,262.0,247.0,788.596
788606.0,221.0,33.0,251.0,244.0,788.606
788616.0,215.0,32.0,258.0,238.0,788.616
