time (ms),signal 0,signal 1,signal 2,signal 3,time (sec)
1488280.0,204.0,249.0,236.0,228.0,1488.28
1488290.0,206.0,249.0,227.0,228.0,1488.29
1488300.0,204.0,249.0,231.0,228.0,1488.3
1488310.0,210.0,255.0,237.0,234.0,1488.31
1488320.0,211.0,254.0,229.0,233.0,1488.32
1488330.0,203.0,244.0,235.0,226.0,1488.33
1488340.0,205.0,249.0,231.0,229.0,1488.34
1488350.0,205.0,247.0,235.0,230.0,1488.35
1488360.0,209.0,254.0,237.0,234.0,1488.36
1488370.0,212.0,251.0,228.0,231.0,1488.37
1488380.0,202.0,242.0,231.0,224.0,1488.38
1488390.0,206.0,248.0,228.0,227.0,1488.39
1488400.0,206.0,249.0,231.0,231.0,1488.4
1488410.0,209.0,254.0,237.0,232.0,1488.41
1488420.0,209.0,250.0,226.0,229.0,1488.42
1488430.0,204.0,246.0,234.0,225.0,1488.43
1488440.0,206.0,245.0,225.0,226.0,1488.44
1488450.0,207.0,250.0,230.0,230.0,1488.45
1488460.0,209.0,253.0,234.0,232.0,1488.46
1488470.0,212.0,252.0,226.0,232.0,1488.47
1488480.0,204.0,247.0,233.0,224.0,1488.48
1488490.0,205.0,248.0,227.0,227.0,1488.49
1488500.0,209.0,251.0,237.0,233.0,1488.5
1488510.0,210.0,255.0,242.0,234.0,1488.51
1488520.0,214.0,255.0,235.0,235.0,1488.52
1488530.0,204.0,250.0,238.0,227.0,1488.53
1488540.0,207.0,250.0,231.0,227.0,1488.54
1488550.0,210.0,255.0,237.0,232.0,1488.55
1488560.0,213.0,257.0,241.0,231.0,1488.56
1488570.0,213.0,255.0,232.0,232.0,1488.57
1488580.0,205.0,247.0,240.0,223.0,1488.58
1488590.0,208.0,251.0,236.0,228.0,1488.59
1488600.0,208.0,252.0,243.0,230.0,1488.6
1488610.0,214.0,257.0,249.0,235.0,1488.61
1488620.0,214.0,255.0,238.0,233.0,1488.62
1488630.0,206.0,245.0,242.0,226.0,1488.63
1488640.0,209.0,252.0,236.0,229.0,1488.64
1488650.0,209.0,253.0,240.0,230.0,1488.65
1488660.0,212.0,258.0,241.0,232.0,1488.66
1488670.0,214.0,254.0,233.0,231.0,1488.67
1488680.0,205.0,248.0,237.0,223.0,1488.68
1488690.0,210.0,253.0,234.0,228.0,1488.69
1488700.0,210.0,256.0,238.0,233.0,1488.7
1488710.0,213.0,258.0,244.0,233.0,1488.71
1488720.0,214.0,258.0,234.0,234.0,1488.72
1488730.0,208.0,250.0,239.0,229.0,1488.73
1488740.0,210.0,253.0,231.0,229.0,1488.74
1488750.0,212.0,258.0,235.0,233.0,1488.75
1488760.0,213.0,257.0,236.0,233.0,1488.76
1488770.0,217.0,260.0,228.0,236.0,1488.77
1488780.0,208.0,251.0,232.0,226.0,1488.78
1488790.0,209.0,253.0,227.0,229.0,1488.79
1488800.0,213.0,258.0,233.0,234.0,1488.8
1488811.0,214.0,257.0,239.0,234.0,1488.811
1488821.0,214.0,254.0,230.0,233.0,1488.821
1488831.0,205.0,249.0,229.0,223.0,1488.831
1488841.0,211.0,257.0,232.0,232.0,1488.841
1488851.0,217.0,263.0,237.0,238.0,1488.851
1488861.0,214.0,261.0,241.0,234.0,1488.861
1488871.0,213.0,257.0,231.0,233.0,1488.871
1488881.0,206.0,250.0,231.0,223.0,1488.881
1488891.0,212.0,257.0,236.0,232.0,1488.891
1488901.0,215.0,260.0,238.0,237.0,1488.901
1488911.0,214.0,259.0,239.0,232.0,1488.911
1488921.0,214.0,257.0,229.0,231.0,1488.921
1488931.0,206.0,249.0,231.0,224.0,1488.931
1488941.0,211.0,255.0,231.0,230.0,1488.941
1488951.0,216.0,258.0,237.0,238.0,1488.951
1488961.0,213.0,255.0,238.0,234.0,1488.961
1488971.0,213.0,252.0,232.0,234.0,1488.971
1488982.0,206.0,246.0,233.0,228.0,1488.982
1488992.0,214.0,258.0,241.0,238.0,1488.992
1489002.0,217.0,258.0,239.0,241.0,1489.002
1489012.0,211.0,253.0,244.0,233.0,1489.012
1489022.0,211.0,255.0,236.0,234.0,1489.022
1489032.0,206.0,249.0,237.0,230.0,1489.032
1489042.0,214.0,259.0,244.0,239.0,1489.042
1489052.0,218.0,257.0,238.0,241.0,1489.052
1489062.0,211.0,250.0,240.0,231.0,1489.062
1489072.0,212.0,252.0,233.0,234.0,1489.072
1489082.0,207.0,248.0,236.0,230.0,1489.082
1489092.0,215.0,258.0,243.0,238.0,1489.092
1489102.0,218.0,258.0,240.0,242.0,1489.102
1489112.0,214.0,253.0,246.0,235.0,1489.112
1489122.0,215.0,254.0,238.0,237.0,1489.122
1489132.0,211.0,252.0,241.0,235.0,1489.132
1489142.0,219.0,263.0,248.0,242.0,1489.142
1489152.0,220.0,263.0,244.0,244.0,1489.152
1489162.0,217.0,263.0,244.0,237.0,1489.162
1489172.0,214.0,260.0,234.0,236.0,1489.172
1489182.0,211.0,256.0,235.0,232.0,1489.182
1489192.0,218.0,266.0,240.0,238.0,1489.192
1489202.0,218.0,262.0,235.0,240.0,1489.202
1489212.0,211.0,255.0,232.0,231.0,1489.212
1489222.0,213.0,255.0,228.0,233.0,1489.222
1489232.0,210.0,255.0,228.0,235.0,1489.232
1489242.0,216.0,260.0,234.0,240.0,1489.242
1489252.0,215.0,258.0,233.0,245.0,1489.252
1489262.0,207.0,255.0,229.0,236.0,1489.262
1489272.0,205.0,252.0,226.0,238.0,1489.272
1489282.0,201.0,249.0,224.0,234.0,1489.282
1489292.0,210.0,259.0,229.0,241.0,1489.292
1489302.0,213.0,262.0,227.0,242.0,1489.302
1489312.0,211.0,260.0,219.0,230.0,1489.312
1489323.0,214.0,264.0,220.0,235.0,1489.323
1489333.0,217.0,274.0,223.0,238.0,1489.333
1489343.0,216.0,269.0,221.0,235.0,1489.343
1489353.0,218.0,265.0,213.0,234.0,1489.353
1489363.0,210.0,255.0,199.0,222.0,1489.363
1489373.0,219.0,264.0,204.0,231.0,1489.373
1489383.0,221.0,270.0,208.0,237.0,1489.383
1489393.0,219.0,270.0,207.0,236.0,1489.393
1489403.0,213.0,263.0,202.0,233.0,1489.403
1489413.0,209.0,260.0,189.0,221.0,1489.413
1489423.0,219.0,270.0,189.0,224.0,1489.423
1489433.0,227.0,282.0,197.0,231.0,1489.433
1489443.0,233.0,285.0,197.0,233.0,1489.443
1489453.0,236.0,279.0,203.0,237.0,1489.453
1489463.0,239.0,300.0,209.0,243.0,1489.463
1489473.0,229.0,287.0,210.0,242.0,1489.473
1489483.0,239.0,283.0,213.0,249.0,1489.483
1489494.0,245.0,308.0,220.0,256.0,1489.494
1489504.0,252.0,328.0,234.0,265.0,1489.504
1489514.0,260.0,345.0,239.0,265.0,1489.514
1489524.0,267.0,342.0,242.0,272.0,1489.524
1489534.0,258.0,336.0,243.0,273.0,1489.534
1489544.0,256.0,333.0,233.0,267.0,1489.544
1489554.0,257.0,329.0,242.0,271.0,1489.554
1489564.0,261.0,330.0,224.0,258.0,1489.564
1489574.0,263.0,331.0,234.0,264.0,1489.574
1489584.0,265.0,328.0,235.0,268.0,1489.584
1489594.0,257.0,320.0,229.0,273.0,1489.594
1489604.0,257.0,310.0,239.0,279.0,1489.604
1489614.0,248.0,303.0,217.0,263.0,1489.614
1489624.0,249.0,299.0,234.0,267.0,1489.624
1489634.0,245.0,293.0,227.0,266.0,1489.634
1489644.0,236.0,284.0,212.0,250.0,1489.644
1489654.0,243.0,287.0,226.0,254.0,1489.654
1489664.0,232.0,272.0,208.0,238.0,1489.664
1489674.0,238.0,288.0,209.0,234.0,1489.674
1489684.0,246.0,293.0,223.0,238.0,1489.684
1489694.0,241.0,282.0,207.0,226.0,1489.694
1489704.0,248.0,285.0,216.0,225.0,1489.704
1489714.0,243.0,289.0,207.0,217.0,1489.714
1489724.0,252.0,310.0,222.0,236.0,1489.724
1489734.0,259.0,317.0,239.0,244.0,1489.734
1489744.0,241.0,296.0,215.0,228.0,1489.744
1489754.0,251.0,289.0,228.0,232.0,1489.754
1489764.0,241.0,271.0,213.0,223.0,1489.764
1489774.0,250.0,281.0,234.0,240.0,1489.774
1489784.0,255.0,286.0,253.0,257.0,1489.784
1489794.0,251.0,289.0,234.0,243.0,1489.794
1489804.0,255.0,297.0,262.0,257.0,1489.804
1489814.0,246.0,291.0,238.0,246.0,1489.814
1489824.0,246.0,288.0,249.0,246.0,1489.824
1489835.0,247.0,282.0,258.0,249.0,1489.835
1489845.0,237.0,267.0,237.0,238.0,1489.845
1489855.0,233.0,253.0,251.0,243.0,1489.855
1489865.0,237.0,259.0,251.0,243.0,1489.865
1489875.0,247.0,278.0,255.0,260.0,1489.875
1489885.0,260.0,290.0,270.0,265.0,1489.885
1489895.0,254.0,298.0,256.0,251.0,1489.895
1489905.0,257.0,307.0,278.0,256.0,1489.905
1489915.0,249.0,294.0,269.0,248.0,1489.915
1489925.0,251.0,296.0,271.0,245.0,1489.925
1489935.0,264.0,301.0,292.0,262.0,1489.935
1489945.0,256.0,291.0,260.0,245.0,1489.945
1489955.0,253.0,285.0,274.0,246.0,1489.955
1489965.0,240.0,273.0,260.0,234.0,1489.965
1489975.0,233.0,262.0,262.0,227.0,1489.975
1489985.0,242.0,271.0,282.0,240.0,1489.985
1489995.0,226.0,255.0,254.0,228.0,1489.995
1490006.0,228.0,253.0,277.0,229.0,1490.006
1490016.0,230.0,263.0,277.0,229.0,1490.016
1490026.0,234.0,275.0,281.0,229.0,1490.026
1490036.0,242.0,276.0,302.0,236.0,1490.036
1490046.0,230.0,265.0,272.0,225.0,1490.046
1490056.0,239.0,265.0,282.0,229.0,1490.056
1490066.0,244.0,278.0,290.0,238.0,1490.066
1490076.0,242.0,272.0,279.0,232.0,1490.076
1490086.0,239.0,265.0,292.0,231.0,1490.086
1490096.0,231.0,250.0,270.0,224.0,1490.096
1490106.0,229.0,250.0,288.0,234.0,1490.106
1490116.0,238.0,264.0,289.0,233.0,1490.116
1490126.0,244.0,277.0,278.0,233.0,1490.126
1490136.0,250.0,287.0,315.0,244.0,1490.136
1490146.0,254.0,301.0,289.0,241.0,1490.146
1490156.0,267.0,319.0,313.0,249.0,1490.156
1490166.0,264.0,318.0,325.0,258.0,1490.166
1490176.0,262.0,317.0,315.0,268.0,1490.176
1490186.0,261.0,311.0,341.0,269.0,1490.186
1490196.0,252.0,302.0,314.0,258.0,1490.196
1490206.0,247.0,289.0,332.0,254.0,1490.206
1490216.0,251.0,296.0,339.0,258.0,1490.216
1490226.0,255.0,294.0,323.0,257.0,1490.226
1490236.0,262.0,303.0,354.0,269.0,1490.236
1490246.0,257.0,288.0,325.0,266.0,1490.246
1490256.0,262.0,289.0,349.0,271.0,1490.256
1490266.0,258.0,283.0,346.0,266.0,1490.266
1490276.0,257.0,287.0,335.0,256.0,1490.276
1490286.0,255.0,286.0,356.0,256.0,1490.286
1490296.0,243.0,275.0,330.0,239.0,1490.296
1490306.0,250.0,286.0,345.0,243.0,1490.306
1490316.0,252.0,281.0,340.0,249.0,1490.316
1490326.0,243.0,266.0,336.0,250.0,1490.326
1490336.0,242.0,257.0,356.0,250.0,1490.336
1490347.0,229.0,245.0,336.0,248.0,1490.347
1490357.0,229.0,246.0,352.0,259.0,1490.357
1490367.0,235.0,256.0,374.0,271.0,1490.367
1490377.0,229.0,250.0,348.0,253.0,1490.377
1490387.0,228.0,249.0,362.0,261.0,1490.387
1490397.0,221.0,241.0,344.0,257.0,1490.397
1490407.0,222.0,256.0,354.0,257.0,1490.407
1490417.0,229.0,261.0,373.0,265.0,1490.417
1490427.0,215.0,244.0,353.0,256.0,1490.427
1490437.0,220.0,249.0,383.0,260.0,1490.437
1490447.0,218.0,255.0,361.0,252.0,1490.447
1490457.0,230.0,277.0,368.0,270.0,1490.457
1490467.0,242.0,294.0,405.0,294.0,1490.467
1490477.0,235.0,285.0,376.0,282.0,1490.477
1490487.0,237.0,287.0,404.0,278.0,1490.487
1490497.0,229.0,273.0,368.0,267.0,1490.497
1490507.0,240.0,287.0,392.0,283.0,1490.507
1490518.0,245.0,293.0,407.0,290.0,1490.518
1490528.0,234.0,272.0,382.0,268.0,1490.528
1490538.0,234.0,268.0,403.0,269.0,1490.538
1490548.0,242.0,275.0,397.0,264.0,1490.548
1490558.0,256.0,280.0,390.0,260.0,1490.558
1490568.0,258.0,283.0,419.0,258.0,1490.568
1490578.0,241.0,269.0,391.0,248.0,1490.578
1490588.0,247.0,274.0,405.0,254.0,1490.588
1490598.0,239.0,270.0,405.0,245.0,1490.598
1490608.0,244.0,276.0,398.0,253.0,1490.608
1490618.0,247.0,277.0,425.0,253.0,1490.618
1490628.0,237.0,271.0,392.0,248.0,1490.628
1490638.0,243.0,278.0,424.0,267.0,1490.638
1490648.0,235.0,271.0,407.0,255.0,1490.648
1490658.0,246.0,285.0,417.0,277.0,1490.658
1490668.0,257.0,299.0,440.0,289.0,1490.668
1490678.0,245.0,290.0,409.0,275.0,1490.678
1490688.0,251.0,295.0,438.0,269.0,1490.688
1490698.0,241.0,285.0,422.0,254.0,1490.698
1490708.0,247.0,295.0,431.0,280.0,1490.708
1490718.0,250.0,290.0,458.0,304.0,1490.718
1490728.0,249.0,292.0,428.0,288.0,1490.728
1490738.0,255.0,295.0,463.0,286.0,1490.738
1490748.0,244.0,290.0,440.0,279.0,1490.748
1490758.0,255.0,305.0,441.0,290.0,1490.758
1490768.0,257.0,302.0,474.0,290.0,1490.768
1490778.0,247.0,300.0,437.0,285.0,1490.778
1490788.0,254.0,304.0,469.0,309.0,1490.788
1490798.0,253.0,310.0,466.0,329.0,1490.798
1490808.0,258.0,319.0,462.0,327.0,1490.808
1490818.0,259.0,317.0,487.0,315.0,1490.818
1490828.0,253.0,301.0,463.0,292.0,1490.828
1490838.0,251.0,294.0,491.0,289.0,1490.838
1490848.0,250.0,292.0,485.0,282.0,1490.848
1490859.0,253.0,297.0,476.0,277.0,1490.859
1490869.0,252.0,292.0,506.0,275.0,1490.869
1490879.0,237.0,285.0,477.0,259.0,1490.879
1490889.0,237.0,289.0,507.0,270.0,1490.889
1490899.0,243.0,292.0,509.0,266.0,1490.899
1490909.0,241.0,286.0,500.0,263.0,1490.909
1490919.0,244.0,282.0,542.0,271.0,1490.919
1490929.0,234.0,276.0,513.0,262.0,1490.929
1490939.0,243.0,285.0,543.0,262.0,1490.939
1490949.0,238.0,287.0,531.0,277.0,1490.949
1490959.0,243.0,285.0,533.0,267.0,1490.959
1490969.0,237.0,272.0,570.0,268.0,1490.969
1490979.0,234.0,267.0,545.0,264.0,1490.979
1490989.0,241.0,272.0,579.0,280.0,1490.989
1490999.0,241.0,270.0,585.0,285.0,1490.999
1491009.0,237.0,268.0,576.0,284.0,1491.009
1491019.0,244.0,272.0,620.0,297.0,1491.019
1491030.0,236.0,270.0,598.0,280.0,1491.03
1491040.0,238.0,272.0,623.0,278.0,1491.04
1491050.0,254.0,287.0,647.0,282.0,1491.05
1491060.0,245.0,279.0,628.0,269.0,1491.06
1491070.0,239.0,267.0,663.0,261.0,1491.07
1491080.0,228.0,261.0,646.0,252.0,1491.08
1491090.0,228.0,264.0,666.0,258.0,1491.09
1491100.0,233.0,266.0,667.0,259.0,1491.1
1491110.0,228.0,267.0,666.0,251.0,1491.11
1491120.0,232.0,266.0,667.0,254.0,1491.12
1491130.0,229.0,268.0,667.0,249.0,1491.13
1491140.0,234.0,277.0,667.0,254.0,1491.14
1491150.0,241.0,283.0,668.0,260.0,1491.15
1491160.0,235.0,281.0,667.0,256.0,1491.16
1491170.0,239.0,276.0,666.0,254.0,1491.17
1491180.0,229.0,271.0,667.0,246.0,1491.18
1491190.0,235.0,277.0,667.0,252.0,1491.19
1491200.0,236.0,278.0,668.0,254.0,1491.2
1491210.0,234.0,274.0,666.0,251.0,1491.21
1491220.0,238.0,275.0,666.0,249.0,1491.22
1491230.0,226.0,267.0,667.0,244.0,1491.23
1491240.0,233.0,280.0,666.0,257.0,1491.24
1491250.0,239.0,279.0,668.0,258.0,1491.25
1491260.0,232.0,281.0,666.0,255.0,1491.26
1491270.0,233.0,276.0,667.0,256.0,1491.27
1491280.0,223.0,270.0,668.0,252.0,1491.28
1491290.0,227.0,273.0,667.0,254.0,1491.29
1491300.0,234.0,277.0,667.0,257.0,1491.3
1491310.0,227.0,274.0,666.0,256.0,1491.31
1491320.0,228.0,268.0,667.0,252.0,1491.32
1491330.0,218.0,264.0,667.0,248.0,1491.33
1491340.0,222.0,269.0,666.0,250.0,1491.34
1491350.0,226.0,272.0,668.0,256.0,1491.35
1491360.0,218.0,272.0,666.0,250.0,1491.36
1491371.0,216.0,264.0,666.0,247.0,1491.371
1491381.0,210.0,261.0,668.0,245.0,1491.381
1491391.0,216.0,274.0,666.0,254.0,1491.391
1491401.0,218.0,267.0,667.0,250.0,1491.401
1491411.0,210.0,267.0,666.0,246.0,1491.411
1491421.0,211.0,264.0,666.0,241.0,1491.421
1491431.0,209.0,262.0,667.0,239.0,1491.431
1491441.0,213.0,271.0,666.0,250.0,1491.441
1491451.0,214.0,264.0,667.0,244.0,1491.451
1491461.0,210.0,265.0,666.0,243.0,1491.461
1491471.0,213.0,262.0,666.0,242.0,1491.471
1491481.0,211.0,264.0,668.0,246.0,1491.481
1491491.0,217.0,274.0,666.0,253.0,1491.491
1491501.0,220.0,271.0,668.0,253.0,1491.501
1491511.0,214.0,271.0,666.0,250.0,1491.511
1491521.0,213.0,268.0,667.0,247.0,1491.521
1491531.0,213.0,269.0,668.0,249.0,1491.531
1491542.0,218.0,279.0,666.0,253.0,1491.542
1491552.0,220.0,270.0,667.0,249.0,1491.552
1491562.0,212.0,270.0,666.0,245.0,1491.562
1491572.0,215.0,269.0,667.0,245.0,1491.572
1491582.0,219.0,275.0,668.0,249.0,1491.582
1491592.0,220.0,277.0,667.0,251.0,1491.592
1491602.0,219.0,269.0,666.0,246.0,1491.602
1491612.0,213.0,267.0,666.0,239.0,1491.612
1491622.0,215.0,269.0,666.0,244.0,1491.622
1491632.0,217.0,271.0,668.0,246.0,1491.632
1491642.0,216.0,276.0,666.0,248.0,1491.642
1491652.0,214.0,267.0,666.0,243.0,1491.652
1491662.0,211.0,265.0,667.0,236.0,1491.662
1491672.0,212.0,266.0,667.0,239.0,1491.672
1491682.0,216.0,269.0,668.0,245.0,1491.682
1491692.0,217.0,272.0,666.0,244.0,1491.692
1491702.0,215.0,264.0,666.0,240.0,1491.702
1491712.0,213.0,269.0,667.0,239.0,1491.712
1491722.0,215.0,266.0,666.0,240.0,1491.722
1491732.0,218.0,271.0,667.0,246.0,1491.732
1491742.0,219.0,274.0,666.0,246.0,1491.742
1491752.0,217.0,267.0,666.0,242.0,1491.752
1491762.0,213.0,267.0,667.0,241.0,1491.762
1491772.0,214.0,266.0,667.0,242.0,1491.772
1491782.0,218.0,270.0,668.0,246.0,1491.782
1491792.0,218.0,274.0,666.0,248.0,1491.792
1491802.0,217.0,268.0,666.0,245.0,1491.802
1491812.0,214.0,262.0,666.0,242.0,1491.812
1491822.0,213.0,263.0,666.0,245.0,1491.822
1491832.0,219.0,266.0,668.0,247.0,1491.832
1491842.0,218.0,268.0,666.0,249.0,1491.842
1491852.0,216.0,261.0,667.0,244.0,1491.852
1491862.0,210.0,256.0,667.0,238.0,1491.862
1491872.0,211.0,259.0,666.0,239.0,1491.872
1491883.0,216.0,261.0,667.0,243.0,1491.883
1491893.0,216.0,261.0,666.0,242.0,1491.893
1491903.0,214.0,257.0,666.0,239.0,1491.903
1491913.0,209.0,253.0,668.0,233.0,1491.913
1491923.0,214.0,262.0,666.0,241.0,1491.923
1491933.0,216.0,262.0,667.0,242.0,1491.933
1491943.0,213.0,260.0,666.0,239.0,1491.943
1491953.0,212.0,256.0,667.0,237.0,1491.953
1491963.0,207.0,249.0,667.0,232.0,1491.963
1491973.0,210.0,254.0,667.0,238.0,1491.973
1491983.0,215.0,257.0,668.0,241.0,1491.983
1491993.0,212.0,255.0,667.0,238.0,1491.993
1492003.0,210.0,252.0,667.0,236.0,1492.003
1492013.0,207.0,247.0,667.0,232.0,1492.013
1492023.0,213.0,256.0,667.0,239.0,1492.023
1492033.0,215.0,259.0,667.0,243.0,1492.033
1492043.0,210.0,255.0,666.0,237.0,1492.043
1492054.0,209.0,253.0,666.0,237.0,1492.054
1492064.0,206.0,251.0,668.0,236.0,1492.064
1492074.0,214.0,260.0,666.0,243.0,1492.074
1492084.0,215.0,257.0,667.0,239.0,1492.084
1492094.0,208.0,251.0,666.0,237.0,1492.094
1492104.0,210.0,252.0,666.0,237.0,1492.104
1492114.0,208.0,251.0,667.0,237.0,1492.114
1492124.0,214.0,258.0,666.0,240.0,1492.124
1492134.0,218.0,254.0,667.0,237.0,1492.134
1492144.0,213.0,252.0,667.0,237.0,1492.144
1492154.0,213.0,252.0,666.0,234.0,1492.154
1492164.0,212.0,252.0,668.0,237.0,1492.164
1492174.0,217.0,259.0,666.0,242.0,1492.174
1492184.0,217.0,257.0,667.0,242.0,1492.184
1492194.0,212.0,249.0,666.0,236.0,1492.194
1492204.0,212.0,251.0,666.0,235.0,1492.204
1492214.0,211.0,250.0,668.0,236.0,1492.214
1492224.0,213.0,255.0,667.0,239.0,1492.224
1492234.0,215.0,253.0,667.0,240.0,1492.234
1492244.0,210.0,248.0,666.0,235.0,1492.244
1492254.0,210.0,249.0,666.0,232.0,1492.254
1492264.0,210.0,251.0,668.0,237.0,1492.264
1492274.0,213.0,255.0,666.0,241.0,1492.274
1492284.0,215.0,253.0,667.0,238.0,1492.284
1492294.0,208.0,248.0,666.0,231.0,1492.294
1492304.0,210.0,249.0,666.0,233.0,1492.304
1492314.0,207.0,248.0,668.0,232.0,1492.314
1492324.0,215.0,258.0,666.0,240.0,1492.324
1492334.0,215.0,253.0,667.0,237.0,1492.334
1492344.0,208.0,248.0,666.0,231.0,1492.344
1492354.0,209.0,249.0,666.0,232.0,1492.354
1492364.0,206.0,248.0,667.0,231.0,1492.364
1492374.0,213.0,257.0,666.0,238.0,1492.374
1492384.0,214.0,252.0,667.0,233.0,1492.384
1492395.0,207.0,247.0,667.0,228.0,1492.395
1492405.0,209.0,249.0,667.0,229.0,1492.405
1492415.0,212.0,255.0,667.0,235.0,1492.415
1492425.0,213.0,255.0,652.0,237.0,1492.425
1492435.0,212.0,251.0,634.0,235.0,1492.435
1492445.0,209.0,249.0,620.0,230.0,1492.445
1492455.0,212.0,252.0,604.0,232.0,1492.455
1492465.0,215.0,257.0,591.0,238.0,1492.465
1492475.0,214.0,259.0,576.0,236.0,1492.475
1492485.0,213.0,254.0,563.0,236.0,1492.485
1492495.0,207.0,253.0,551.0,232.0,1492.495
1492505.0,209.0,255.0,537.0,236.0,1492.505
1492515.0,214.0,261.0,525.0,240.0,1492.515
1492525.0,213.0,261.0,513.0,241.0,1492.525
1492535.0,213.0,255.0,501.0,236.0,1492.535
1492545.0,206.0,251.0,490.0,231.0,1492.545
1492555.0,210.0,256.0,479.0,235.0,1492.555
1492566.0,221.0,263.0,468.0,241.0,1492.566
1492576.0,216.0,260.0,456.0,237.0,1492.576
1492586.0,215.0,258.0,445.0,236.0,1492.586
1492596.0,209.0,249.0,437.0,230.0,1492.596
1492606.0,215.0,259.0,425.0,239.0,1492.606
1492616.0,217.0,259.0,417.0,240.0,1492.616
1492626.0,213.0,253.0,407.0,237.0,1492.626
1492636.0,212.0,254.0,396.0,235.0,1492.636
1492646.0,207.0,248.0,388.0,234.0,1492.646
1492656.0,211.0,255.0,379.0,239.0,1492.656
1492666.0,216.0,259.0,370.0,242.0,1492.666
1492676.0,212.0,255.0,361.0,236.0,1492.676
1492686.0,213.0,253.0,352.0,234.0,1492.686
1492696.0,205.0,246.0,345.0,228.0,1492.696
1492706.0,210.0,254.0,335.0,234.0,1492.706
1492716.0,216.0,257.0,328.0,239.0,1492.716
1492726.0,210.0,254.0,320.0,235.0,1492.726
1492736.0,212.0,253.0,311.0,234.0,1492.736
1492746.0,207.0,247.0,305.0,229.0,1492.746
1492756.0,213.0,258.0,296.0,239.0,1492.756
1492766.0,217.0,260.0,288.0,239.0,1492.766
1492776.0,211.0,254.0,281.0,236.0,1492.776
1492786.0,211.0,251.0,273.0,235.0,1492.786
1492796.0,206.0,246.0,267.0,231.0,1492.796
1492806.0,214.0,260.0,259.0,242.0,1492.806
1492816.0,218.0,258.0,252.0,240.0,1492.816
1492826.0,213.0,261.0,245.0,239.0,1492.826
1492836.0,210.0,254.0,239.0,234.0,1492.836
1492846.0,201.0,251.0,233.0,229.0,1492.846
1492856.0,211.0,263.0,227.0,238.0,1492.856
1492866.0,212.0,261.0,220.0,239.0,1492.866
1492876.0,208.0,261.0,215.0,236.0,1492.876
1492886.0,208.0,256.0,208.0,235.0,1492.886
1492896.0,202.0,253.0,203.0,233.0,1492.896
1492907.0,213.0,266.0,197.0,244.0,1492.907
1492917.0,215.0,260.0,191.0,239.0,1492.917
1492927.0,210.0,257.0,187.0,235.0,1492.927
1492937.0,210.0,257.0,180.0,237.0,1492.937
1492947.0,212.0,258.0,176.0,240.0,1492.947
1492957.0,214.0,266.0,170.0,244.0,1492.957
1492967.0,217.0,259.0,165.0,239.0,1492.967
1492977.0,208.0,255.0,161.0,232.0,1492.977
1492987.0,211.0,257.0,156.0,232.0,1492.987
1492997.0,208.0,254.0,152.0,233.0,1492.997
1493007.0,216.0,264.0,148.0,241.0,1493.007
1493017.0,216.0,258.0,143.0,239.0,1493.017
1493027.0,208.0,255.0,138.0,232.0,1493.027
1493037.0,210.0,257.0,135.0,233.0,1493.037
1493047.0,206.0,254.0,132.0,231.0,1493.047
1493057.0,213.0,264.0,126.0,239.0,1493.057
1493067.0,215.0,257.0,122.0,236.0,1493.067
1493078.0,205.0,252.0,119.0,228.0,1493.078
1493088.0,208.0,253.0,115.0,231.0,1493.088
1493098.0,212.0,258.0,112.0,237.0,1493.098
1493108.0,213.0,259.0,109.0,235.0,1493.108
1493118.0,215.0,254.0,104.0,232.0,1493.118
1493128.0,207.0,251.0,103.0,227.0,1493.128
1493138.0,210.0,253.0,98.0,231.0,1493.138
1493148.0,214.0,259.0,95.0,237.0,1493.148
1493158.0,213.0,258.0,92.0,236.0,1493.158
1493168.0,213.0,255.0,89.0,234.0,1493.168
1493178.0,207.0,249.0,88.0,226.0,1493.178
1493188.0,210.0,254.0,84.0,230.0,1493.188
1493198.0,214.0,258.0,81.0,235.0,1493.198
1493208.0,215.0,263.0,78.0,238.0,1493.208
1493218.0,218.0,258.0,76.0,234.0,1493.218
1493228.0,208.0,252.0,73.0,227.0,1493.228
1493238.0,212.0,257.0,71.0,232.0,1493.238
1493248.0,214.0,260.0,68.0,236.0,1493.248
1493258.0,214.0,260.0,66.0,237.0,1493.258
1493268.0,214.0,258.0,64.0,235.0,1493.268
1493278.0,206.0,249.0,62.0,227.0,1493.278
1493288.0,210.0,255.0,60.0,234.0,1493.288
1493298.0,214.0,258.0,58.0,237.0,1493.298
1493308.0,215.0,257.0,56.0,235.0,1493.308
1493318.0,216.0,255.0,54.0,233.0,1493.318
1493328.0,207.0,246.0,52.0,225.0,1493.328
1493338.0,210.0,252.0,50.0,230.0,1493.338
1493348.0,214.0,258.0,49.0,237.0,1493.348
1493358.0,213.0,255.0,47.0,236.0,1493.358
1493368.0,215.0,255.0,46.0,234.0,1493.368
1493378.0,208.0,250.0,44.0,230.0,1493.378
1493388.0,210.0,252.0,42.0,229.0,1493.388
1493398.0,214.0,258.0,41.0,237.0,1493.398
1493408.0,213.0,258.0,39.0,234.0,1493.408
1493419.0,213.0,254.0,37.0,231.0,1493.419
1493429.0,204.0,247.0,37.0,225.0,1493.429
1493439.0,211.0,257.0,35.0,235.0,1493.439
1493449.0,215.0,261.0,32.0,238.0,1493.449
1493459.0,209.0,254.0,32.0,232.0,1493.459
1493469.0,211.0,254.0,30.0,232.0,1493.469
1493479.0,203.0,244.0,30.0,224.0,1493.479
1493489.0,210.0,254.0,28.0,234.0,1493.489
1493499.0,214.0,255.0,26.0,235.0,1493.499
1493509.0,206.0,252.0,26.0,231.0,1493.509
1493519.0,208.0,252.0,24.0,232.0,1493.519
1493529.0,203.0,247.0,23.0,227.0,1493.529
1493539.0,209.0,256.0,22.0,236.0,1493.539
1493549.0,212.0,256.0,20.0,238.0,1493.549
1493559.0,208.0,250.0,21.0,232.0,1493.559
1493569.0,208.0,251.0,18.0,232.0,1493.569
1493579.0,202.0,244.0,18.0,226.0,1493.579
1493590.0,210.0,255.0,17.0,237.0,1493.59
1493600.0,214.0,256.0,16.0,234.0,1493.6
1493610.0,208.0,249.0,15.0,229.0,1493.61
1493620.0,211.0,252.0,15.0,232.0,1493.62
1493630.0,211.0,253.0,13.0,234.0,1493.63
1493640.0,212.0,255.0,12.0,236.0,1493.64
1493650.0,215.0,255.0,12.0,236.0,1493.65
1493660.0,206.0,249.0,11.0,229.0,1493.66
1493670.0,209.0,251.0,11.0,230.0,1493.67
1493680.0,205.0,249.0,10.0,229.0,1493.68
1493690.0,214.0,256.0,11.0,235.0,1493.69
1493700.0,214.0,255.0,8.0,233.0,1493.7
1493710.0,208.0,245.0,9.0,224.0,1493.71
1493720.0,210.0,251.0,8.0,228.0,1493.72
1493730.0,207.0,247.0,7.0,226.0,1493.73
1493740.0,213.0,255.0,7.0,234.0,1493.74
1493750.0,217.0,254.0,8.0,232.0,1493.75
1493760.0,211.0,250.0,6.0,229.0,1493.76
1493770.0,210.0,251.0,6.0,228.0,1493.77
1493780.0,208.0,249.0,7.0,229.0,1493.78
1493790.0,213.0,256.0,5.0,233.0,1493.79
1493800.0,211.0,252.0,5.0,229.0,1493.8
1493810.0,204.0,249.0,5.0,226.0,1493.81
1493820.0,207.0,251.0,6.0,227.0,1493.82
1493830.0,206.0,251.0,4.0,231.0,1493.83
1493840.0,211.0,257.0,5.0,235.0,1493.84
1493850.0,213.0,257.0,5.0,237.0,1493.85
1493860.0,206.0,251.0,7.0,228.0,1493.86
1493870.0,207.0,251.0,7.0,229.0,1493.87
1493880.0,209.0,252.0,17.0,233.0,1493.88
1493890.0,211.0,260.0,22.0,238.0,1493.89
1493900.0,212.0,255.0,27.0,237.0,1493.9
1493910.0,203.0,252.0,39.0,229.0,1493.91
1493920.0,206.0,250.0,35.0,228.0,1493.92
1493931.0,208.0,254.0,51.0,234.0,1493.931
1493941.0,209.0,258.0,63.0,237.0,1493.941
1493951.0,210.0,253.0,58.0,234.0,1493.951
1493961.0,202.0,248.0,77.0,226.0,1493.961
1493971.0,207.0,255.0,73.0,234.0,1493.971
1493981.0,210.0,256.0,86.0,236.0,1493.981
1493991.0,211.0,256.0,101.0,237.0,1493.991
1494001.0,208.0,252.0,93.0,234.0,1494.001
1494011.0,199.0,246.0,117.0,227.0,1494.011
1494021.0,204.0,251.0,107.0,232.0,1494.021
1494031.0,209.0,256.0,124.0,237.0,1494.031
1494041.0,210.0,257.0,138.0,236.0,1494.041
1494051.0,210.0,252.0,128.0,233.0,1494.051
1494061.0,204.0,248.0,152.0,229.0,1494.061
1494071.0,207.0,250.0,145.0,231.0,1494.071
1494081.0,212.0,255.0,160.0,236.0,1494.081
1494091.0,211.0,255.0,177.0,234.0,1494.091
1494102.0,208.0,251.0,164.0,232.0,1494.102
1494112.0,200.0,245.0,191.0,226.0,1494.112
1494122.0,206.0,255.0,192.0,237.0,1494.122
1494132.0,212.0,257.0,195.0,238.0,1494.132
1494142.0,207.0,253.0,216.0,233.0,1494.142
1494152.0,207.0,250.0,200.0,231.0,1494.152
1494162.0,200.0,244.0,221.0,224.0,1494.162
1494172.0,208.0,255.0,225.0,233.0,1494.172
1494182.0,213.0,257.0,224.0,235.0,1494.182
1494192.0,209.0,252.0,245.0,233.0,1494.192
1494202.0,212.0,253.0,234.0,231.0,1494.202
1494212.0,205.0,246.0,252.0,227.0,1494.212
1494222.0,213.0,257.0,260.0,238.0,1494.222
1494232.0,216.0,261.0,256.0,242.0,1494.232
1494242.0,212.0,253.0,273.0,236.0,1494.242
1494252.0,212.0,254.0,259.0,236.0,1494.252
1494262.0,206.0,247.0,280.0,231.0,1494.262
1494272.0,210.0,254.0,279.0,236.0,1494.272
1494282.0,216.0,258.0,282.0,241.0,1494.282
1494292.0,209.0,257.0,301.0,236.0,1494.292
1494302.0,209.0,255.0,286.0,237.0,1494.302
1494312.0,207.0,250.0,301.0,231.0,1494.312
1494322.0,211.0,257.0,301.0,237.0,1494.322
1494332.0,215.0,259.0,300.0,240.0,1494.332
1494342.0,210.0,257.0,320.0,236.0,1494.342
1494352.0,212.0,255.0,307.0,235.0,1494.352
1494362.0,204.0,249.0,325.0,229.0,1494.362
1494372.0,208.0,258.0,321.0,236.0,1494.372
1494382.0,213.0,260.0,315.0,239.0,1494.382
1494392.0,207.0,257.0,336.0,233.0,1494.392
1494402.0,209.0,255.0,316.0,233.0,1494.402
1494412.0,203.0,249.0,335.0,227.0,1494.412
1494422.0,210.0,260.0,335.0,236.0,1494.422
1494432.0,215.0,259.0,326.0,238.0,1494.432
1494443.0,208.0,254.0,346.0,232.0,1494.443
1494453.0,211.0,254.0,330.0,231.0,1494.453
1494463.0,209.0,254.0,346.0,234.0,1494.463
1494473.0,214.0,260.0,352.0,236.0,1494.473
1494483.0,214.0,255.0,333.0,233.0,1494.483
1494493.0,208.0,254.0,358.0,231.0,1494.493
1494503.0,210.0,256.0,342.0,232.0,1494.503
1494513.0,211.0,257.0,351.0,233.0,1494.513
1494523.0,216.0,262.0,360.0,236.0,1494.523
1494533.0,216.0,259.0,340.0,236.0,1494.533
1494543.0,212.0,253.0,361.0,229.0,1494.543
1494553.0,213.0,255.0,343.0,230.0,1494.553
1494563.0,215.0,256.0,357.0,234.0,1494.563
1494573.0,218.0,261.0,363.0,239.0,1494.573
1494583.0,221.0,256.0,347.0,237.0,1494.583
1494593.0,211.0,254.0,367.0,230.0,1494.593
1494603.0,212.0,254.0,352.0,232.0,1494.603
1494614.0,214.0,256.0,360.0,235.0,1494.614
1494624.0,215.0,258.0,368.0,234.0,1494.624
1494634.0,214.0,252.0,346.0,233.0,1494.634
1494644.0,207.0,245.0,365.0,225.0,1494.644
1494654.0,207.0,250.0,355.0,232.0,1494.654
1494664.0,211.0,253.0,359.0,235.0,1494.664
1494674.0,212.0,256.0,371.0,235.0,1494.674
1494684.0,211.0,253.0,350.0,234.0,1494.684
1494694.0,205.0,248.0,370.0,227.0,1494.694
1494704.0,208.0,253.0,355.0,229.0,1494.704
1494714.0,213.0,257.0,361.0,235.0,1494.714
1494724.0,212.0,261.0,372.0,235.0,1494.724
1494734.0,211.0,254.0,351.0,232.0,1494.734
1494744.0,205.0,254.0,370.0,226.0,1494.744
1494754.0,207.0,255.0,356.0,230.0,1494.754
1494764.0,213.0,260.0,367.0,239.0,1494.764
1494774.0,212.0,257.0,375.0,236.0,1494.774
1494784.0,214.0,258.0,354.0,235.0,1494.784
1494794.0,206.0,252.0,375.0,229.0,1494.794
1494804.0,208.0,254.0,360.0,233.0,1494.804
1494814.0,214.0,259.0,360.0,241.0,1494.814
1494824.0,212.0,255.0,373.0,237.0,1494.824
1494834.0,212.0,255.0,351.0,236.0,1494.834
1494844.0,204.0,246.0,372.0,230.0,1494.844
1494854.0,207.0,254.0,361.0,235.0,1494.854
1494864.0,215.0,259.0,361.0,239.0,1494.864
1494874.0,212.0,259.0,376.0,238.0,1494.874
1494884.0,212.0,252.0,351.0,235.0,1494.884
1494894.0,206.0,248.0,371.0,228.0,1494.894
1494904.0,210.0,254.0,363.0,234.0,1494.904
1494914.0,213.0,257.0,362.0,237.0,1494.914
1494924.0,213.0,260.0,374.0,236.0,1494.924
1494934.0,212.0,255.0,351.0,234.0,1494.934
1494944.0,206.0,250.0,372.0,226.0,1494.944
1494955.0,211.0,257.0,364.0,234.0,1494.955
1494965.0,217.0,261.0,362.0,238.0,1494.965
1494975.0,212.0,258.0,376.0,233.0,1494.975
1494985.0,212.0,256.0,356.0,234.0,1494.985
1494995.0,206.0,253.0,369.0,229.0,1494.995
1495005.0,212.0,258.0,359.0,232.0,1495.005
1495015.0,217.0,259.0,351.0,237.0,1495.015
1495025.0,211.0,257.0,367.0,232.0,1495.025
1495035.0,212.0,256.0,350.0,232.0,1495.035
1495045.0,204.0,249.0,365.0,225.0,1495.045
1495055.0,211.0,258.0,358.0,234.0,1495.055
1495065.0,216.0,260.0,349.0,237.0,1495.065
1495075.0,209.0,256.0,363.0,230.0,1495.075
1495085.0,212.0,255.0,342.0,232.0,1495.085
1495095.0,203.0,249.0,358.0,226.0,1495.095
1495105.0,211.0,259.0,354.0,234.0,1495.105
1495115.0,216.0,258.0,343.0,237.0,1495.115
1495126.0,208.0,256.0,357.0,231.0,1495.126
1495136.0,210.0,253.0,338.0,230.0,1495.136
1495146.0,211.0,254.0,347.0,231.0,1495.146
1495156.0,215.0,263.0,357.0,236.0,1495.156
1495166.0,217.0,258.0,336.0,235.0,1495.166
1495176.0,209.0,258.0,355.0,231.0,1495.176
1495186.0,211.0,257.0,340.0,232.0,1495.186
1495196.0,208.0,260.0,349.0,233.0,1495.196
1495206.0,213.0,264.0,356.0,237.0,1495.206
1495216.0,215.0,261.0,337.0,237.0,1495.216
1495226.0,207.0,256.0,355.0,230.0,1495.226
1495236.0,208.0,255.0,336.0,230.0,1495.236
1495246.0,210.0,258.0,343.0,232.0,1495.246
1495256.0,211.0,262.0,346.0,235.0,1495.256
1495266.0,214.0,257.0,331.0,235.0,1495.266
1495276.0,205.0,256.0,348.0,229.0,1495.276
1495286.0,208.0,255.0,334.0,231.0,1495.286
1495296.0,206.0,253.0,344.0,232.0,1495.296
1495306.0,212.0,263.0,348.0,239.0,1495.306
1495316.0,220.0,257.0,332.0,236.0,1495.316
1495326.0,208.0,253.0,348.0,229.0,1495.326
1495336.0,211.0,254.0,334.0,232.0,1495.336
1495346.0,209.0,254.0,339.0,232.0,1495.346
1495356.0,215.0,261.0,345.0,238.0,1495.356
1495366.0,216.0,256.0,326.0,236.0,1495.366
1495376.0,205.0,252.0,344.0,228.0,1495.376
1495386.0,210.0,256.0,330.0,232.0,1495.386
1495396.0,209.0,255.0,340.0,233.0,1495.396
1495406.0,212.0,262.0,349.0,239.0,1495.406
1495416.0,214.0,258.0,330.0,236.0,1495.416
1495426.0,208.0,254.0,347.0,233.0,1495.426
1495436.0,209.0,254.0,329.0,231.0,1495.436
1495446.0,209.0,255.0,337.0,235.0,1495.446
1495456.0,212.0,260.0,343.0,237.0,1495.456
1495467.0,213.0,255.0,324.0,235.0,1495.467
1495477.0,204.0,250.0,341.0,229.0,1495.477
1495487.0,208.0,255.0,328.0,232.0,1495.487
1495497.0,213.0,257.0,333.0,238.0,1495.497
1495507.0,210.0,255.0,338.0,234.0,1495.507
1495517.0,212.0,254.0,319.0,234.0,1495.517
1495527.0,207.0,250.0,338.0,228.0,1495.527
1495537.0,212.0,255.0,326.0,233.0,1495.537
1495547.0,218.0,258.0,327.0,239.0,1495.547
1495557.0,212.0,257.0,335.0,237.0,1495.557
1495567.0,214.0,250.0,318.0,234.0,1495.567
1495577.0,202.0,248.0,335.0,229.0,1495.577
1495587.0,207.0,252.0,325.0,234.0,1495.587
1495597.0,211.0,255.0,327.0,237.0,1495.597
1495607.0,211.0,258.0,335.0,236.0,1495.607
1495617.0,212.0,253.0,316.0,234.0,1495.617
1495627.0,203.0,249.0,332.0,226.0,1495.627
1495638.0,208.0,257.0,326.0,235.0,1495.638
1495648.0,213.0,260.0,321.0,237.0,1495.648
1495658.0,206.0,254.0,332.0,231.0,1495.658
1495668.0,209.0,255.0,314.0,230.0,1495.668
1495678.0,204.0,251.0,324.0,227.0,1495.678
1495688.0,208.0,258.0,323.0,233.0,1495.688
1495698.0,214.0,261.0,317.0,237.0,1495.698
1495708.0,207.0,257.0,331.0,232.0,1495.708
1495718.0,208.0,254.0,316.0,234.0,1495.718
1495728.0,201.0,249.0,326.0,226.0,1495.728
1495738.0,210.0,259.0,326.0,235.0,1495.738
1495748.0,214.0,261.0,318.0,239.0,1495.748
1495758.0,209.0,257.0,336.0,233.0,1495.758
1495768.0,211.0,258.0,311.0,234.0,1495.768
1495778.0,202.0,249.0,320.0,225.0,1495.778
1495788.0,210.0,259.0,320.0,236.0,1495.788
1495798.0,215.0,257.0,311.0,238.0,1495.798
1495808.0,209.0,256.0,324.0,234.0,1495.808
1495818.0,210.0,253.0,306.0,233.0,1495.818
1495828.0,204.0,248.0,318.0,227.0,1495.828
1495838.0,211.0,260.0,319.0,236.0,1495.838
1495848.0,220.0,258.0,308.0,238.0,1495.848
1495858.0,214.0,258.0,322.0,234.0,1495.858
1495868.0,216.0,255.0,307.0,234.0,1495.868
1495878.0,207.0,250.0,316.0,230.0,1495.878
1495888.0,216.0,261.0,318.0,238.0,1495.888
1495898.0,218.0,262.0,311.0,238.0,1495.898
1495908.0,211.0,255.0,320.0,230.0,1495.908
1495918.0,212.0,255.0,304.0,230.0,1495.918
1495928.0,206.0,250.0,314.0,226.0,1495.928
1495938.0,210.0,256.0,313.0,233.0,1495.938
1495948.0,214.0,260.0,310.0,238.0,1495.948
1495958.0,206.0,252.0,320.0,231.0,1495.958
1495968.0,208.0,253.0,304.0,230.0,1495.968
1495979.0,204.0,252.0,315.0,230.0,1495.979
1495989.0,212.0,259.0,317.0,235.0,1495.989
1495999.0,214.0,254.0,301.0,233.0,1495.999
1496009.0,204.0,250.0,315.0,227.0,1496.009
1496019.0,208.0,253.0,304.0,229.0,1496.019
1496029.0,207.0,252.0,309.0,230.0,1496.029
1496039.0,213.0,258.0,314.0,235.0,1496.039
1496049.0,215.0,256.0,297.0,233.0,1496.049
1496059.0,209.0,249.0,311.0,227.0,1496.059
1496069.0,212.0,253.0,296.0,230.0,1496.069
1496079.0,213.0,253.0,305.0,231.0,1496.079
1496089.0,215.0,258.0,311.0,237.0,1496.089
1496099.0,215.0,253.0,291.0,231.0,1496.099
1496109.0,209.0,247.0,305.0,228.0,1496.109
1496119.0,211.0,250.0,290.0,229.0,1496.119
1496129.0,210.0,250.0,298.0,233.0,1496.129
1496139.0,214.0,254.0,306.0,237.0,1496.139
1496150.0,215.0,253.0,288.0,236.0,1496.15
1496160.0,207.0,246.0,303.0,230.0,1496.16
1496170.0,206.0,249.0,294.0,233.0,1496.17
1496180.0,212.0,257.0,298.0,238.0,1496.18
1496190.0,210.0,252.0,305.0,235.0,1496.19
1496200.0,211.0,254.0,289.0,233.0,1496.2
1496210.0,204.0,245.0,301.0,227.0,1496.21
1496220.0,208.0,253.0,295.0,233.0,1496.22
1496230.0,214.0,258.0,298.0,238.0,1496.23
1496240.0,211.0,257.0,303.0,236.0,1496.24
1496250.0,211.0,253.0,288.0,234.0,1496.25
1496260.0,202.0,245.0,295.0,227.0,1496.26
1496270.0,207.0,251.0,288.0,232.0,1496.27
1496280.0,215.0,255.0,293.0,237.0,1496.28
1496290.0,215.0,255.0,298.0,236.0,1496.29
1496300.0,214.0,252.0,287.0,235.0,1496.3
1496310.0,205.0,244.0,295.0,229.0,1496.31
1496320.0,210.0,250.0,287.0,234.0,1496.32
1496330.0,214.0,257.0,295.0,240.0,1496.33
1496340.0,213.0,256.0,301.0,239.0,1496.34
1496350.0,212.0,254.0,283.0,237.0,1496.35
1496360.0,205.0,246.0,294.0,229.0,1496.36
1496370.0,209.0,253.0,285.0,235.0,1496.37
1496380.0,215.0,258.0,292.0,240.0,1496.38
1496390.0,212.0,258.0,298.0,238.0,1496.39
1496400.0,213.0,256.0,284.0,235.0,1496.4
1496410.0,208.0,250.0,296.0,232.0,1496.41
1496420.0,210.0,254.0,285.0,235.0,1496.42
1496430.0,217.0,260.0,290.0,242.0,1496.43
1496440.0,214.0,258.0,303.0,240.0,1496.44
1496450.0,216.0,257.0,285.0,239.0,1496.45
1496460.0,207.0,249.0,295.0,233.0,1496.46
1496470.0,210.0,256.0,288.0,237.0,1496.47
1496480.0,215.0,262.0,289.0,241.0,1496.48
1496491.0,212.0,257.0,296.0,238.0,1496.491
1496501.0,212.0,256.0,281.0,236.0,1496.501
1496511.0,204.0,249.0,288.0,232.0,1496.511
1496521.0,211.0,259.0,294.0,242.0,1496.521
1496531.0,215.0,259.0,284.0,241.0,1496.531
1496541.0,210.0,255.0,295.0,240.0,1496.541
1496551.0,210.0,254.0,281.0,237.0,1496.551
1496561.0,204.0,249.0,289.0,235.0,1496.561
1496571.0,213.0,257.0,293.0,242.0,1496.571
1496581.0,215.0,258.0,286.0,243.0,1496.581
1496591.0,210.0,252.0,293.0,238.0,1496.591
1496601.0,210.0,251.0,280.0,238.0,1496.601
1496611.0,205.0,246.0,287.0,235.0,1496.611
1496621.0,209.0,252.0,286.0,240.0,1496.621
1496631.0,215.0,255.0,284.0,243.0,1496.631
1496641.0,209.0,253.0,292.0,238.0,1496.641
1496651.0,210.0,251.0,281.0,237.0,1496.651
1496662.0,206.0,249.0,286.0,237.0,1496.662
1496672.0,211.0,258.0,291.0,243.0,1496.672
1496682.0,213.0,253.0,276.0,241.0,1496.682
1496692.0,203.0,251.0,286.0,236.0,1496.692
1496702.0,207.0,252.0,275.0,238.0,1496.702
1496712.0,205.0,253.0,284.0,239.0,1496.712
1496722.0,212.0,259.0,289.0,245.0,1496.722
1496732.0,214.0,255.0,274.0,241.0,1496.732
1496742.0,206.0,250.0,284.0,234.0,1496.742
1496752.0,209.0,251.0,272.0,236.0,1496.752
1496762.0,209.0,252.0,279.0,237.0,1496.762
1496772.0,214.0,257.0,286.0,242.0,1496.772
1496782.0,215.0,254.0,274.0,239.0,1496.782
1496792.0,208.0,251.0,284.0,236.0,1496.792
1496802.0,209.0,253.0,274.0,236.0,1496.802
1496812.0,210.0,254.0,281.0,240.0,1496.812
1496822.0,211.0,259.0,287.0,243.0,1496.822
1496832.0,214.0,258.0,274.0,241.0,1496.832
1496842.0,206.0,250.0,282.0,236.0,1496.842
1496852.0,208.0,253.0,271.0,236.0,1496.852
1496862.0,208.0,257.0,278.0,239.0,1496.862
1496872.0,211.0,258.0,282.0,241.0,1496.872
1496882.0,213.0,257.0,268.0,239.0,1496.882
1496892.0,205.0,251.0,278.0,233.0,1496.892
1496902.0,208.0,253.0,268.0,234.0,1496.902
1496912.0,211.0,255.0,276.0,239.0,1496.912
1496922.0,212.0,258.0,280.0,243.0,1496.922
1496932.0,214.0,258.0,269.0,240.0,1496.932
1496942.0,205.0,249.0,278.0,235.0,1496.942
1496952.0,208.0,252.0,269.0,236.0,1496.952
1496962.0,207.0,252.0,273.0,237.0,1496.962
1496972.0,212.0,258.0,280.0,243.0,1496.972
1496982.0,215.0,257.0,266.0,240.0,1496.982
1496992.0,206.0,250.0,279.0,236.0,1496.992
1497003.0,209.0,254.0,269.0,238.0,1497.003
1497013.0,212.0,260.0,275.0,244.0,1497.013
1497023.0,208.0,257.0,280.0,243.0,1497.023
1497033.0,208.0,256.0,265.0,240.0,1497.033
1497043.0,201.0,247.0,273.0,233.0,1497.043
1497053.0,206.0,253.0,266.0,238.0,1497.053
1497063.0,211.0,258.0,272.0,242.0,1497.063
1497073.0,208.0,256.0,276.0,240.0,1497.073
1497083.0,210.0,252.0,262.0,237.0,1497.083
1497093.0,203.0,248.0,272.0,233.0,1497.093
1497103.0,207.0,253.0,267.0,236.0,1497.103
1497113.0,213.0,261.0,272.0,244.0,1497.113
1497123.0,210.0,256.0,275.0,240.0,1497.123
1497133.0,211.0,255.0,261.0,240.0,1497.133
1497143.0,205.0,248.0,273.0,234.0,1497.143
1497153.0,211.0,253.0,268.0,238.0,1497.153
1497163.0,217.0,260.0,272.0,243.0,1497.163
1497174.0,212.0,258.0,279.0,240.0,1497.174
1497184.0,213.0,253.0,264.0,237.0,1497.184
1497194.0,206.0,249.0,271.0,235.0,1497.194
1497204.0,213.0,259.0,273.0,242.0,1497.204
1497214.0,218.0,259.0,266.0,242.0,1497.214
1497224.0,210.0,257.0,277.0,241.0,1497.224
1497234.0,213.0,255.0,264.0,239.0,1497.234
1497244.0,206.0,252.0,269.0,235.0,1497.244
1497254.0,213.0,260.0,272.0,243.0,1497.254
1497264.0,216.0,261.0,265.0,244.0,1497.264
1497274.0,212.0,253.0,273.0,239.0,1497.274
1497284.0,213.0,253.0,258.0,236.0,1497.284
1497294.0,208.0,249.0,265.0,234.0,1497.294
1497304.0,212.0,256.0,265.0,240.0,1497.304
1497314.0,217.0,259.0,263.0,242.0,1497.314
1497324.0,211.0,252.0,267.0,237.0,1497.324
1497334.0,211.0,251.0,256.0,235.0,1497.334
1497344.0,205.0,243.0,262.0,230.0,1497.344
1497354.0,211.0,253.0,266.0,238.0,1497.354
1497364.0,216.0,257.0,263.0,241.0,1497.364
1497374.0,208.0,250.0,269.0,236.0,1497.374
1497384.0,209.0,249.0,257.0,236.0,1497.384
1497394.0,202.0,243.0,263.0,231.0,1497.394
1497404.0,207.0,252.0,263.0,236.0,1497.404
1497414.0,212.0,254.0,257.0,238.0,1497.414
1497424.0,205.0,247.0,265.0,234.0,1497.424
1497434.0,208.0,249.0,255.0,236.0,1497.434
1497444.0,201.0,241.0,261.0,229.0,1497.444
1497454.0,209.0,253.0,265.0,238.0,1497.454
1497464.0,213.0,253.0,259.0,238.0,1497.464
1497474.0,208.0,250.0,269.0,235.0,1497.474
1497484.0,208.0,250.0,256.0,233.0,1497.484
1497494.0,203.0,246.0,262.0,231.0,1497.494
1497504.0,207.0,257.0,270.0,238.0,1497.504
1497515.0,210.0,257.0,260.0,239.0,1497.515
1497525.0,204.0,250.0,269.0,233.0,1497.525
1497535.0,207.0,252.0,259.0,234.0,1497.535
1497545.0,208.0,253.0,264.0,237.0,1497.545
1497555.0,211.0,257.0,270.0,239.0,1497.555
1497565.0,213.0,257.0,257.0,239.0,1497.565
1497575.0,206.0,248.0,266.0,231.0,1497.575
1497585.0,207.0,252.0,255.0,232.0,1497.585
1497595.0,210.0,255.0,263.0,235.0,1497.595
1497605.0,210.0,259.0,270.0,239.0,1497.605
1497615.0,213.0,258.0,257.0,237.0,1497.615
1497625.0,205.0,250.0,264.0,232.0,1497.625
1497635.0,208.0,252.0,255.0,232.0,1497.635
1497645.0,206.0,252.0,264.0,235.0,1497.645
1497655.0,212.0,259.0,268.0,239.0,1497.655
1497665.0,214.0,254.0,254.0,236.0,1497.665
1497675.0,205.0,249.0,261.0,230.0,1497.675
1497686.0,207.0,250.0,250.0,232.0,1497.686
1497696.0,210.0,256.0,257.0,237.0,1497.696
1497706.0,208.0,254.0,262.0,235.0,1497.706
1497716.0,207.0,252.0,249.0,232.0,1497.716
1497726.0,201.0,243.0,260.0,226.0,1497.726
1497736.0,205.0,250.0,255.0,232.0,1497.736
1497746.0,211.0,257.0,260.0,238.0,1497.746
1497756.0,209.0,256.0,265.0,236.0,1497.756
1497766.0,208.0,252.0,255.0,234.0,1497.766
1497776.0,203.0,249.0,263.0,230.0,1497.776
1497786.0,207.0,252.0,257.0,232.0,1497.786
1497796.0,210.0,256.0,260.0,237.0,1497.796
1497806.0,206.0,255.0,264.0,233.0,1497.806
1497816.0,208.0,253.0,255.0,235.0,1497.816
1497826.0,201.0,246.0,261.0,226.0,1497.826
1497836.0,205.0,252.0,258.0,231.0,1497.836
1497846.0,211.0,256.0,260.0,236.0,1497.846
1497856.0,210.0,256.0,263.0,234.0,1497.856
1497866.0,209.0,253.0,249.0,231.0,1497.866
1497876.0,203.0,247.0,256.0,225.0,1497.876
1497886.0,207.0,254.0,255.0,232.0,1497.886
1497896.0,213.0,257.0,257.0,235.0,1497.896
1497906.0,212.0,257.0,264.0,236.0,1497.906
1497916.0,214.0,254.0,251.0,233.0,1497.916
1497926.0,206.0,248.0,256.0,225.0,1497.926
1497936.0,212.0,253.0,256.0,232.0,1497.936
1497946.0,214.0,255.0,259.0,235.0,1497.946
1497956.0,214.0,254.0,265.0,233.0,1497.956
1497966.0,213.0,251.0,251.0,232.0,1497.966
1497976.0,206.0,244.0,257.0,224.0,1497.976
1497986.0,209.0,249.0,251.0,230.0,1497.986
1497996.0,214.0,256.0,257.0,237.0,1497.996
1498006.0,212.0,255.0,262.0,235.0,1498.006
1498016.0,214.0,251.0,250.0,233.0,1498.016
1498027.0,205.0,243.0,255.0,226.0,1498.027
1498037.0,211.0,254.0,259.0,238.0,1498.037
1498047.0,217.0,257.0,257.0,240.0,1498.047
1498057.0,208.0,248.0,262.0,232.0,1498.057
1498067.0,210.0,250.0,254.0,234.0,1498.067
1498077.0,204.0,243.0,256.0,229.0,1498.077
1498087.0,211.0,253.0,261.0,236.0,1498.087
1498097.0,215.0,256.0,256.0,240.0,1498.097
1498107.0,210.0,250.0,264.0,232.0,1498.107
1498117.0,210.0,251.0,255.0,233.0,1498.117
1498127.0,208.0,245.0,258.0,228.0,1498.127
1498137.0,216.0,258.0,267.0,240.0,1498.137
1498147.0,219.0,255.0,259.0,239.0,1498.147
1498157.0,213.0,254.0,267.0,234.0,1498.157
1498167.0,213.0,252.0,255.0,233.0,1498.167
1498177.0,206.0,245.0,260.0,227.0,1498.177
1498187.0,214.0,254.0,265.0,235.0,1498.187
1498198.0,217.0,255.0,257.0,236.0,1498.198
1498208.0,209.0,249.0,265.0,230.0,1498.208
1498218.0,210.0,250.0,257.0,232.0,1498.218
1498228.0,212.0,254.0,262.0,233.0,1498.228
1498238.0,218.0,258.0,267.0,234.0,1498.238
1498248.0,220.0,259.0,255.0,237.0,1498.248
1498258.0,212.0,250.0,260.0,228.0,1498.258
1498268.0,213.0,255.0,252.0,229.0,1498.268
1498278.0,215.0,256.0,259.0,233.0,1498.278
1498288.0,216.0,261.0,264.0,235.0,1498.288
1498298.0,219.0,258.0,253.0,234.0,1498.298
1498308.0,209.0,252.0,259.0,226.0,1498.308
