time (ms),signal 0,signal 1,signal 2,signal 3,time (sec)
1454461.0,209.0,253.0,202.0,235.0,1454.461
1454471.0,203.0,247.0,200.0,230.0,1454.471
1454481.0,206.0,251.0,202.0,235.0,1454.481
1454491.0,211.0,258.0,208.0,239.0,1454.491
1454501.0,208.0,254.0,203.0,235.0,1454.501
1454511.0,211.0,253.0,200.0,236.0,1454.511
1454521.0,202.0,247.0,193.0,228.0,1454.521
1454531.0,205.0,253.0,196.0,234.0,1454.531
1454541.0,211.0,258.0,204.0,240.0,1454.541
1454551.0,208.0,257.0,201.0,240.0,1454.551
1454561.0,209.0,255.0,199.0,237.0,1454.561
1454571.0,201.0,247.0,191.0,230.0,1454.571
1454581.0,206.0,254.0,196.0,235.0,1454.581
1454592.0,213.0,261.0,204.0,241.0,1454.592
1454602.0,207.0,253.0,199.0,236.0,1454.602
1454612.0,210.0,254.0,200.0,236.0,1454.612
1454622.0,203.0,248.0,195.0,231.0,1454.622
1454632.0,211.0,259.0,201.0,238.0,1454.632
1454642.0,214.0,262.0,206.0,240.0,1454.642
1454652.0,208.0,253.0,196.0,234.0,1454.652
1454662.0,209.0,255.0,197.0,235.0,1454.662
1454672.0,205.0,251.0,193.0,231.0,1454.672
1454682.0,208.0,255.0,196.0,237.0,1454.682
1454692.0,216.0,262.0,205.0,241.0,1454.692
1454702.0,209.0,253.0,192.0,236.0,1454.702
1454712.0,210.0,253.0,192.0,234.0,1454.712
1454722.0,203.0,245.0,180.0,227.0,1454.722
1454732.0,211.0,254.0,192.0,235.0,1454.732
1454742.0,215.0,258.0,201.0,239.0,1454.742
1454752.0,209.0,251.0,188.0,232.0,1454.752
1454763.0,210.0,252.0,192.0,233.0,1454.763
1454773.0,207.0,251.0,190.0,232.0,1454.773
1454783.0,213.0,258.0,195.0,239.0,1454.783
1454793.0,215.0,256.0,202.0,235.0,1454.793
1454803.0,206.0,247.0,184.0,227.0,1454.803
1454813.0,209.0,253.0,194.0,231.0,1454.813
1454823.0,210.0,253.0,195.0,233.0,1454.823
1454833.0,214.0,259.0,196.0,237.0,1454.833
1454843.0,215.0,256.0,205.0,234.0,1454.843
1454853.0,207.0,252.0,189.0,230.0,1454.853
1454863.0,210.0,254.0,200.0,232.0,1454.863
1454873.0,210.0,257.0,201.0,236.0,1454.873
1454883.0,214.0,262.0,200.0,238.0,1454.883
1454893.0,217.0,261.0,215.0,240.0,1454.893
1454903.0,208.0,254.0,196.0,232.0,1454.903
1454913.0,210.0,256.0,206.0,235.0,1454.913
1454923.0,212.0,258.0,209.0,239.0,1454.923
1454934.0,214.0,259.0,205.0,240.0,1454.934
1454944.0,214.0,257.0,219.0,239.0,1454.944
1454954.0,206.0,248.0,200.0,232.0,1454.954
1454964.0,209.0,254.0,211.0,236.0,1454.964
1454974.0,215.0,260.0,224.0,241.0,1454.974
1454984.0,212.0,257.0,211.0,238.0,1454.984
1454994.0,214.0,256.0,228.0,236.0,1454.994
1455004.0,204.0,248.0,208.0,228.0,1455.004
1455014.0,210.0,256.0,221.0,237.0,1455.014
1455024.0,214.0,262.0,232.0,242.0,1455.024
1455034.0,213.0,257.0,221.0,241.0,1455.034
1455044.0,214.0,261.0,241.0,241.0,1455.044
1455054.0,206.0,250.0,223.0,233.0,1455.054
1455064.0,210.0,258.0,235.0,239.0,1455.064
1455074.0,216.0,263.0,247.0,244.0,1455.074
1455084.0,214.0,260.0,232.0,242.0,1455.084
1455094.0,214.0,260.0,251.0,240.0,1455.094
1455104.0,207.0,255.0,235.0,234.0,1455.104
1455114.0,210.0,258.0,248.0,238.0,1455.114
1455124.0,216.0,265.0,260.0,244.0,1455.124
1455134.0,212.0,260.0,243.0,242.0,1455.134
1455144.0,214.0,260.0,260.0,239.0,1455.144
1455154.0,206.0,252.0,242.0,234.0,1455.154
1455164.0,209.0,256.0,255.0,238.0,1455.164
1455174.0,216.0,263.0,270.0,244.0,1455.174
1455184.0,213.0,257.0,254.0,240.0,1455.184
1455194.0,214.0,258.0,278.0,240.0,1455.194
1455204.0,206.0,250.0,258.0,231.0,1455.204
1455214.0,210.0,257.0,271.0,238.0,1455.214
1455224.0,217.0,262.0,285.0,243.0,1455.224
1455234.0,213.0,260.0,265.0,241.0,1455.234
1455244.0,215.0,257.0,289.0,240.0,1455.244
1455254.0,206.0,248.0,268.0,230.0,1455.254
1455264.0,210.0,255.0,281.0,237.0,1455.264
1455275.0,217.0,260.0,297.0,242.0,1455.275
1455285.0,211.0,255.0,274.0,236.0,1455.285
1455295.0,212.0,253.0,296.0,236.0,1455.295
1455305.0,206.0,248.0,285.0,233.0,1455.305
1455315.0,213.0,259.0,288.0,240.0,1455.315
1455325.0,217.0,258.0,308.0,242.0,1455.325
1455335.0,211.0,257.0,282.0,237.0,1455.335
1455345.0,212.0,255.0,304.0,238.0,1455.345
1455355.0,208.0,252.0,294.0,235.0,1455.355
1455365.0,212.0,258.0,295.0,237.0,1455.365
1455375.0,217.0,260.0,315.0,242.0,1455.375
1455385.0,210.0,258.0,290.0,234.0,1455.385
1455395.0,212.0,256.0,310.0,234.0,1455.395
1455405.0,206.0,251.0,294.0,230.0,1455.405
1455415.0,213.0,260.0,303.0,238.0,1455.415
1455425.0,218.0,261.0,321.0,242.0,1455.425
1455435.0,209.0,257.0,297.0,234.0,1455.435
1455446.0,212.0,256.0,314.0,235.0,1455.446
1455456.0,210.0,257.0,311.0,236.0,1455.456
1455466.0,214.0,262.0,306.0,242.0,1455.466
1455476.0,216.0,260.0,329.0,240.0,1455.476
1455486.0,207.0,251.0,304.0,232.0,1455.486
1455496.0,211.0,255.0,324.0,236.0,1455.496
1455506.0,211.0,256.0,322.0,238.0,1455.506
1455516.0,214.0,260.0,311.0,240.0,1455.516
1455526.0,215.0,257.0,335.0,239.0,1455.526
1455536.0,209.0,254.0,307.0,235.0,1455.536
1455546.0,209.0,254.0,326.0,236.0,1455.546
1455556.0,210.0,257.0,326.0,239.0,1455.556
1455566.0,213.0,260.0,308.0,238.0,1455.566
1455576.0,216.0,258.0,338.0,241.0,1455.576
1455586.0,206.0,255.0,310.0,233.0,1455.586
1455596.0,210.0,255.0,330.0,235.0,1455.596
1455606.0,213.0,260.0,332.0,240.0,1455.606
1455616.0,214.0,260.0,322.0,240.0,1455.616
1455626.0,217.0,260.0,346.0,240.0,1455.626
1455636.0,208.0,255.0,317.0,232.0,1455.636
1455646.0,209.0,257.0,334.0,236.0,1455.646
1455656.0,214.0,261.0,337.0,242.0,1455.656
1455666.0,212.0,264.0,324.0,241.0,1455.666
1455676.0,216.0,260.0,347.0,239.0,1455.676
1455686.0,206.0,255.0,319.0,231.0,1455.686
1455696.0,209.0,258.0,336.0,234.0,1455.696
1455706.0,209.0,258.0,334.0,237.0,1455.706
1455716.0,213.0,266.0,326.0,241.0,1455.716
1455726.0,213.0,262.0,348.0,241.0,1455.726
1455736.0,204.0,255.0,320.0,233.0,1455.736
1455746.0,212.0,260.0,337.0,236.0,1455.746
1455756.0,217.0,264.0,335.0,239.0,1455.756
1455766.0,218.0,267.0,319.0,241.0,1455.766
1455776.0,222.0,264.0,344.0,241.0,1455.776
1455787.0,211.0,258.0,313.0,235.0,1455.787
1455797.0,214.0,262.0,328.0,239.0,1455.797
1455807.0,221.0,268.0,338.0,245.0,1455.807
1455817.0,216.0,265.0,313.0,244.0,1455.817
1455827.0,217.0,259.0,331.0,242.0,1455.827
1455837.0,206.0,249.0,307.0,235.0,1455.837
1455847.0,215.0,260.0,317.0,239.0,1455.847
1455857.0,225.0,271.0,332.0,248.0,1455.857
1455867.0,217.0,259.0,310.0,239.0,1455.867
1455877.0,219.0,263.0,334.0,241.0,1455.877
1455887.0,213.0,263.0,304.0,236.0,1455.887
1455897.0,212.0,263.0,315.0,240.0,1455.897
1455907.0,223.0,272.0,330.0,245.0,1455.907
1455917.0,218.0,271.0,308.0,246.0,1455.917
1455927.0,220.0,272.0,330.0,244.0,1455.927
1455937.0,212.0,262.0,301.0,236.0,1455.937
1455947.0,215.0,268.0,301.0,241.0,1455.947
1455958.0,227.0,281.0,320.0,246.0,1455.958
1455968.0,219.0,267.0,297.0,235.0,1455.968
1455978.0,221.0,267.0,312.0,233.0,1455.978
1455988.0,215.0,265.0,295.0,233.0,1455.988
1455998.0,218.0,266.0,298.0,235.0,1455.998
1456008.0,219.0,262.0,310.0,236.0,1456.008
1456018.0,218.0,263.0,284.0,234.0,1456.018
1456028.0,212.0,247.0,292.0,229.0,1456.028
1456038.0,206.0,244.0,286.0,225.0,1456.038
1456048.0,215.0,265.0,289.0,233.0,1456.048
1456058.0,230.0,277.0,314.0,241.0,1456.058
1456068.0,221.0,277.0,283.0,238.0,1456.068
1456078.0,224.0,284.0,286.0,241.0,1456.078
1456088.0,228.0,300.0,272.0,247.0,1456.088
1456098.0,232.0,303.0,295.0,256.0,1456.098
1456108.0,243.0,301.0,310.0,260.0,1456.108
1456118.0,231.0,300.0,280.0,252.0,1456.118
1456128.0,237.0,311.0,302.0,261.0,1456.128
1456138.0,247.0,337.0,285.0,264.0,1456.138
1456148.0,255.0,337.0,300.0,273.0,1456.148
1456158.0,248.0,327.0,313.0,272.0,1456.158
1456168.0,232.0,311.0,282.0,261.0,1456.168
1456178.0,240.0,317.0,298.0,266.0,1456.178
1456188.0,240.0,307.0,283.0,259.0,1456.188
1456198.0,246.0,315.0,289.0,272.0,1456.198
1456208.0,257.0,322.0,302.0,273.0,1456.208
1456218.0,245.0,299.0,271.0,258.0,1456.218
1456228.0,245.0,300.0,287.0,255.0,1456.228
1456238.0,250.0,305.0,279.0,255.0,1456.238
1456248.0,264.0,310.0,278.0,263.0,1456.248
1456258.0,267.0,307.0,293.0,262.0,1456.258
1456268.0,255.0,297.0,268.0,251.0,1456.268
1456278.0,251.0,295.0,279.0,249.0,1456.278
1456288.0,256.0,303.0,279.0,256.0,1456.288
1456299.0,256.0,302.0,272.0,257.0,1456.299
1456309.0,256.0,301.0,285.0,254.0,1456.309
1456319.0,247.0,283.0,254.0,242.0,1456.319
1456329.0,245.0,283.0,262.0,244.0,1456.329
1456339.0,253.0,295.0,270.0,254.0,1456.339
1456349.0,248.0,293.0,255.0,250.0,1456.349
1456359.0,246.0,283.0,264.0,246.0,1456.359
1456369.0,234.0,270.0,237.0,238.0,1456.369
1456379.0,239.0,274.0,239.0,235.0,1456.379
1456389.0,237.0,281.0,243.0,241.0,1456.389
1456399.0,240.0,286.0,238.0,240.0,1456.399
1456409.0,240.0,282.0,249.0,239.0,1456.409
1456419.0,234.0,276.0,225.0,233.0,1456.419
1456429.0,236.0,281.0,233.0,238.0,1456.429
1456439.0,240.0,289.0,238.0,243.0,1456.439
1456449.0,242.0,291.0,235.0,248.0,1456.449
1456459.0,240.0,292.0,241.0,247.0,1456.459
1456470.0,228.0,279.0,215.0,236.0,1456.47
1456480.0,232.0,284.0,222.0,243.0,1456.48
1456490.0,242.0,296.0,235.0,253.0,1456.49
1456500.0,237.0,286.0,221.0,249.0,1456.5
1456510.0,237.0,285.0,229.0,251.0,1456.51
1456520.0,228.0,277.0,215.0,246.0,1456.52
1456530.0,234.0,282.0,221.0,251.0,1456.53
1456540.0,238.0,286.0,228.0,255.0,1456.54
1456550.0,231.0,280.0,213.0,249.0,1456.55
1456560.0,234.0,277.0,220.0,250.0,1456.56
1456570.0,226.0,265.0,199.0,234.0,1456.57
1456580.0,234.0,278.0,213.0,246.0,1456.58
1456590.0,240.0,286.0,225.0,255.0,1456.59
1456600.0,235.0,283.0,215.0,252.0,1456.6
1456610.0,234.0,280.0,218.0,252.0,1456.61
1456620.0,228.0,276.0,208.0,249.0,1456.62
1456630.0,231.0,287.0,219.0,262.0,1456.63
1456640.0,242.0,293.0,224.0,267.0,1456.64
1456650.0,237.0,283.0,211.0,257.0,1456.65
1456660.0,239.0,282.0,211.0,252.0,1456.66
1456670.0,228.0,269.0,196.0,242.0,1456.67
1456680.0,239.0,279.0,208.0,250.0,1456.68
1456690.0,241.0,278.0,209.0,250.0,1456.69
1456700.0,233.0,266.0,197.0,244.0,1456.7
1456710.0,231.0,267.0,197.0,244.0,1456.71
1456720.0,222.0,260.0,191.0,237.0,1456.72
1456730.0,226.0,270.0,199.0,245.0,1456.73
1456740.0,246.0,289.0,214.0,256.0,1456.74
1456750.0,239.0,279.0,205.0,251.0,1456.75
1456760.0,238.0,281.0,207.0,250.0,1456.76
1456770.0,233.0,280.0,203.0,246.0,1456.77
1456780.0,236.0,286.0,211.0,253.0,1456.78
1456790.0,242.0,290.0,218.0,255.0,1456.79
1456800.0,236.0,280.0,212.0,247.0,1456.8
1456811.0,238.0,284.0,213.0,251.0,1456.811
1456821.0,231.0,272.0,208.0,250.0,1456.821
1456831.0,234.0,265.0,209.0,250.0,1456.831
1456841.0,238.0,267.0,209.0,251.0,1456.841
1456851.0,231.0,256.0,201.0,242.0,1456.851
1456861.0,237.0,263.0,202.0,243.0,1456.861
1456871.0,231.0,258.0,203.0,241.0,1456.871
1456881.0,236.0,268.0,215.0,253.0,1456.881
1456891.0,239.0,271.0,218.0,254.0,1456.891
1456901.0,233.0,268.0,214.0,248.0,1456.901
1456911.0,235.0,272.0,214.0,248.0,1456.911
1456921.0,233.0,270.0,213.0,247.0,1456.921
1456931.0,235.0,272.0,214.0,240.0,1456.931
1456941.0,237.0,273.0,211.0,242.0,1456.941
1456951.0,229.0,268.0,208.0,233.0,1456.951
1456961.0,232.0,267.0,207.0,238.0,1456.961
1456971.0,228.0,264.0,209.0,238.0,1456.971
1456982.0,233.0,270.0,211.0,241.0,1456.982
1456992.0,236.0,269.0,207.0,239.0,1456.992
1457002.0,229.0,262.0,206.0,234.0,1457.002
1457012.0,233.0,268.0,208.0,238.0,1457.012
1457022.0,238.0,275.0,220.0,246.0,1457.022
1457032.0,233.0,271.0,218.0,242.0,1457.032
1457042.0,234.0,265.0,213.0,238.0,1457.042
1457052.0,230.0,264.0,210.0,233.0,1457.052
1457062.0,236.0,272.0,215.0,240.0,1457.062
1457072.0,237.0,275.0,222.0,245.0,1457.072
1457082.0,238.0,280.0,231.0,252.0,1457.082
1457092.0,241.0,279.0,229.0,254.0,1457.092
1457102.0,233.0,274.0,223.0,243.0,1457.102
1457112.0,236.0,280.0,226.0,250.0,1457.112
1457122.0,239.0,285.0,231.0,256.0,1457.122
1457132.0,242.0,289.0,232.0,258.0,1457.132
1457142.0,241.0,285.0,227.0,258.0,1457.142
1457152.0,230.0,276.0,222.0,252.0,1457.152
1457162.0,234.0,272.0,216.0,249.0,1457.162
1457172.0,237.0,276.0,224.0,256.0,1457.172
1457182.0,235.0,281.0,225.0,253.0,1457.182
1457192.0,237.0,277.0,221.0,254.0,1457.192
1457202.0,233.0,276.0,218.0,248.0,1457.202
1457212.0,234.0,276.0,217.0,250.0,1457.212
1457222.0,238.0,281.0,224.0,255.0,1457.222
1457232.0,239.0,283.0,223.0,254.0,1457.232
1457242.0,240.0,283.0,224.0,257.0,1457.242
1457252.0,229.0,274.0,214.0,246.0,1457.252
1457262.0,232.0,276.0,210.0,247.0,1457.262
1457272.0,239.0,281.0,217.0,252.0,1457.272
1457282.0,240.0,282.0,212.0,251.0,1457.282
1457292.0,243.0,280.0,212.0,245.0,1457.292
1457302.0,235.0,277.0,201.0,239.0,1457.302
1457312.0,238.0,284.0,209.0,246.0,1457.312
1457323.0,248.0,296.0,221.0,253.0,1457.323
1457333.0,240.0,288.0,210.0,247.0,1457.333
1457343.0,239.0,284.0,212.0,245.0,1457.343
1457353.0,231.0,279.0,199.0,243.0,1457.353
1457363.0,232.0,281.0,207.0,249.0,1457.363
1457373.0,234.0,280.0,212.0,250.0,1457.373
1457383.0,230.0,278.0,199.0,244.0,1457.383
1457393.0,230.0,275.0,207.0,244.0,1457.393
1457403.0,225.0,275.0,196.0,244.0,1457.403
1457413.0,230.0,283.0,203.0,250.0,1457.413
1457423.0,237.0,288.0,213.0,255.0,1457.423
1457433.0,231.0,279.0,199.0,247.0,1457.433
1457443.0,232.0,277.0,211.0,245.0,1457.443
1457453.0,231.0,273.0,196.0,240.0,1457.453
1457463.0,237.0,283.0,211.0,248.0,1457.463
1457473.0,246.0,289.0,227.0,255.0,1457.473
1457483.0,240.0,289.0,208.0,249.0,1457.483
1457494.0,242.0,291.0,225.0,248.0,1457.494
1457504.0,235.0,287.0,218.0,243.0,1457.504
1457514.0,242.0,295.0,226.0,254.0,1457.514
1457524.0,242.0,294.0,248.0,254.0,1457.524
1457534.0,233.0,279.0,224.0,244.0,1457.534
1457544.0,238.0,284.0,243.0,249.0,1457.544
1457554.0,234.0,282.0,237.0,250.0,1457.554
1457564.0,235.0,282.0,240.0,252.0,1457.564
1457574.0,240.0,279.0,263.0,250.0,1457.574
1457584.0,236.0,279.0,246.0,247.0,1457.584
1457594.0,237.0,280.0,273.0,248.0,1457.594
1457604.0,236.0,279.0,273.0,251.0,1457.604
1457614.0,241.0,283.0,269.0,257.0,1457.614
1457624.0,242.0,282.0,299.0,257.0,1457.624
1457634.0,231.0,274.0,276.0,248.0,1457.634
1457644.0,232.0,272.0,303.0,244.0,1457.644
1457654.0,234.0,269.0,303.0,244.0,1457.654
1457664.0,235.0,266.0,307.0,242.0,1457.664
1457674.0,239.0,270.0,339.0,244.0,1457.674
1457684.0,231.0,265.0,314.0,240.0,1457.684
1457694.0,227.0,266.0,343.0,239.0,1457.694
1457704.0,229.0,263.0,346.0,239.0,1457.704
1457714.0,230.0,267.0,341.0,241.0,1457.714
1457724.0,233.0,265.0,379.0,241.0,1457.724
1457734.0,224.0,261.0,355.0,237.0,1457.734
1457744.0,227.0,266.0,386.0,240.0,1457.744
1457754.0,227.0,272.0,384.0,243.0,1457.754
1457764.0,236.0,283.0,385.0,249.0,1457.764
1457774.0,238.0,283.0,426.0,251.0,1457.774
1457784.0,229.0,277.0,401.0,242.0,1457.784
1457794.0,233.0,279.0,435.0,246.0,1457.794
1457804.0,230.0,278.0,434.0,248.0,1457.804
1457814.0,237.0,286.0,437.0,252.0,1457.814
1457824.0,237.0,279.0,472.0,249.0,1457.824
1457835.0,230.0,274.0,447.0,244.0,1457.835
1457845.0,231.0,279.0,479.0,248.0,1457.845
1457855.0,239.0,287.0,494.0,261.0,1457.855
1457865.0,236.0,285.0,482.0,258.0,1457.865
1457875.0,237.0,277.0,518.0,253.0,1457.875
1457885.0,231.0,270.0,495.0,247.0,1457.885
1457895.0,235.0,271.0,528.0,247.0,1457.895
1457905.0,239.0,277.0,539.0,255.0,1457.905
1457915.0,238.0,277.0,524.0,253.0,1457.915
1457925.0,240.0,284.0,564.0,253.0,1457.925
1457935.0,231.0,272.0,544.0,244.0,1457.935
1457945.0,231.0,272.0,570.0,248.0,1457.945
1457955.0,234.0,276.0,589.0,256.0,1457.955
1457965.0,231.0,276.0,571.0,256.0,1457.965
1457975.0,230.0,270.0,610.0,255.0,1457.975
1457985.0,222.0,265.0,586.0,247.0,1457.985
1457995.0,227.0,273.0,611.0,255.0,1457.995
1458006.0,234.0,278.0,632.0,260.0,1458.006
1458016.0,230.0,277.0,609.0,255.0,1458.016
1458026.0,232.0,275.0,645.0,253.0,1458.026
1458036.0,226.0,267.0,627.0,250.0,1458.036
1458046.0,234.0,277.0,636.0,259.0,1458.046
1458056.0,235.0,277.0,664.0,261.0,1458.056
1458066.0,231.0,273.0,642.0,254.0,1458.066
1458076.0,230.0,271.0,667.0,251.0,1458.076
1458086.0,225.0,266.0,661.0,247.0,1458.086
1458096.0,228.0,273.0,667.0,252.0,1458.096
1458106.0,237.0,280.0,668.0,258.0,1458.106
1458116.0,231.0,277.0,664.0,255.0,1458.116
1458126.0,233.0,278.0,667.0,255.0,1458.126
1458136.0,228.0,273.0,667.0,250.0,1458.136
1458146.0,233.0,282.0,667.0,258.0,1458.146
1458156.0,238.0,284.0,668.0,262.0,1458.156
1458166.0,231.0,281.0,667.0,255.0,1458.166
1458176.0,234.0,279.0,666.0,256.0,1458.176
1458186.0,227.0,270.0,667.0,248.0,1458.186
1458196.0,236.0,283.0,667.0,258.0,1458.196
1458206.0,241.0,283.0,668.0,261.0,1458.206
1458216.0,234.0,278.0,667.0,253.0,1458.216
1458226.0,235.0,276.0,667.0,254.0,1458.226
1458236.0,226.0,271.0,668.0,248.0,1458.236
1458246.0,233.0,281.0,666.0,258.0,1458.246
1458256.0,237.0,282.0,669.0,259.0,1458.256
1458266.0,231.0,281.0,666.0,255.0,1458.266
1458276.0,230.0,276.0,667.0,253.0,1458.276
1458286.0,223.0,272.0,668.0,250.0,1458.286
1458296.0,230.0,284.0,667.0,259.0,1458.296
1458306.0,233.0,281.0,668.0,259.0,1458.306
1458316.0,228.0,280.0,666.0,253.0,1458.316
1458326.0,229.0,274.0,667.0,250.0,1458.326
1458336.0,223.0,272.0,667.0,248.0,1458.336
1458347.0,232.0,281.0,667.0,256.0,1458.347
1458357.0,234.0,279.0,668.0,257.0,1458.357
1458367.0,224.0,271.0,667.0,248.0,1458.367
1458377.0,225.0,271.0,666.0,247.0,1458.377
1458387.0,228.0,274.0,668.0,250.0,1458.387
1458397.0,231.0,280.0,666.0,253.0,1458.397
1458407.0,232.0,274.0,667.0,253.0,1458.407
1458417.0,223.0,272.0,667.0,247.0,1458.417
1458427.0,221.0,270.0,667.0,245.0,1458.427
1458437.0,218.0,270.0,668.0,245.0,1458.437
1458447.0,225.0,279.0,666.0,251.0,1458.447
1458457.0,228.0,272.0,667.0,250.0,1458.457
1458467.0,218.0,269.0,667.0,243.0,1458.467
1458477.0,221.0,271.0,667.0,244.0,1458.477
1458487.0,219.0,272.0,668.0,249.0,1458.487
1458497.0,225.0,278.0,666.0,254.0,1458.497
1458507.0,226.0,271.0,667.0,251.0,1458.507
1458518.0,219.0,267.0,667.0,243.0,1458.518
1458528.0,220.0,269.0,667.0,246.0,1458.528
1458538.0,227.0,277.0,667.0,252.0,1458.538
1458548.0,225.0,275.0,667.0,249.0,1458.548
1458558.0,223.0,270.0,666.0,246.0,1458.558
1458568.0,218.0,266.0,666.0,241.0,1458.568
1458578.0,221.0,270.0,667.0,245.0,1458.578
1458588.0,225.0,274.0,667.0,250.0,1458.588
1458598.0,223.0,273.0,666.0,247.0,1458.598
1458608.0,224.0,269.0,667.0,250.0,1458.608
1458618.0,216.0,265.0,667.0,241.0,1458.618
1458628.0,220.0,267.0,666.0,248.0,1458.628
1458638.0,227.0,273.0,668.0,252.0,1458.638
1458648.0,225.0,274.0,666.0,252.0,1458.648
1458658.0,224.0,268.0,667.0,248.0,1458.658
1458668.0,219.0,261.0,667.0,243.0,1458.668
1458678.0,222.0,269.0,667.0,248.0,1458.678
1458688.0,224.0,270.0,667.0,250.0,1458.688
1458698.0,225.0,274.0,663.0,251.0,1458.698
1458708.0,224.0,266.0,668.0,246.0,1458.708
1458718.0,217.0,262.0,652.0,237.0,1458.718
1458728.0,222.0,268.0,660.0,245.0,1458.728
1458738.0,225.0,271.0,663.0,249.0,1458.738
1458748.0,224.0,273.0,634.0,246.0,1458.748
1458758.0,223.0,266.0,657.0,243.0,1458.758
1458768.0,216.0,261.0,623.0,236.0,1458.768
1458778.0,220.0,266.0,638.0,242.0,1458.778
1458788.0,225.0,272.0,636.0,248.0,1458.788
1458798.0,224.0,271.0,605.0,247.0,1458.798
1458808.0,223.0,265.0,627.0,244.0,1458.808
1458818.0,218.0,261.0,593.0,238.0,1458.818
1458828.0,220.0,266.0,605.0,243.0,1458.828
1458838.0,227.0,269.0,607.0,248.0,1458.838
1458848.0,224.0,268.0,572.0,244.0,1458.848
1458859.0,222.0,263.0,591.0,240.0,1458.859
1458869.0,215.0,258.0,563.0,233.0,1458.869
1458879.0,223.0,269.0,563.0,244.0,1458.879
1458889.0,226.0,269.0,577.0,247.0,1458.889
1458899.0,220.0,263.0,537.0,241.0,1458.899
1458909.0,221.0,263.0,558.0,242.0,1458.909
1458919.0,216.0,258.0,530.0,237.0,1458.919
1458929.0,224.0,268.0,526.0,246.0,1458.929
1458939.0,225.0,266.0,541.0,245.0,1458.939
1458949.0,221.0,263.0,503.0,243.0,1458.949
1458959.0,220.0,260.0,521.0,242.0,1458.959
1458969.0,216.0,254.0,496.0,236.0,1458.969
1458979.0,221.0,263.0,489.0,242.0,1458.979
1458989.0,223.0,263.0,506.0,243.0,1458.989
1458999.0,220.0,258.0,469.0,239.0,1458.999
1459009.0,219.0,256.0,486.0,238.0,1459.009
1459019.0,215.0,255.0,464.0,238.0,1459.019
1459030.0,223.0,264.0,455.0,244.0,1459.03
1459040.0,223.0,261.0,472.0,245.0,1459.04
1459050.0,217.0,255.0,434.0,236.0,1459.05
1459060.0,218.0,257.0,444.0,238.0,1459.06
1459070.0,220.0,259.0,442.0,243.0,1459.07
1459080.0,223.0,264.0,421.0,244.0,1459.08
1459090.0,223.0,258.0,439.0,242.0,1459.09
1459100.0,216.0,257.0,400.0,235.0,1459.1
1459110.0,217.0,258.0,415.0,239.0,1459.11
1459120.0,216.0,259.0,404.0,239.0,1459.12
1459130.0,220.0,269.0,390.0,243.0,1459.13
1459140.0,220.0,261.0,408.0,241.0,1459.14
1459150.0,213.0,267.0,372.0,235.0,1459.15
1459160.0,218.0,267.0,388.0,238.0,1459.16
1459170.0,217.0,271.0,375.0,239.0,1459.17
1459180.0,222.0,280.0,359.0,243.0,1459.18
1459190.0,221.0,272.0,376.0,241.0,1459.19
1459200.0,217.0,270.0,342.0,236.0,1459.2
1459210.0,217.0,269.0,356.0,238.0,1459.21
1459220.0,219.0,272.0,352.0,241.0,1459.22
1459230.0,222.0,278.0,334.0,243.0,1459.23
1459240.0,220.0,269.0,350.0,240.0,1459.24
1459250.0,217.0,271.0,317.0,235.0,1459.25
1459260.0,217.0,269.0,329.0,236.0,1459.26
1459270.0,220.0,270.0,323.0,240.0,1459.27
1459280.0,221.0,274.0,306.0,241.0,1459.28
1459290.0,224.0,267.0,324.0,240.0,1459.29
1459300.0,216.0,263.0,292.0,233.0,1459.3
1459310.0,218.0,264.0,298.0,236.0,1459.31
1459320.0,221.0,268.0,300.0,240.0,1459.32
1459330.0,223.0,270.0,285.0,241.0,1459.33
1459340.0,223.0,264.0,296.0,240.0,1459.34
1459350.0,217.0,259.0,267.0,233.0,1459.35
1459360.0,216.0,260.0,271.0,233.0,1459.36
1459371.0,221.0,265.0,275.0,239.0,1459.371
1459381.0,221.0,267.0,258.0,239.0,1459.381
1459391.0,219.0,261.0,270.0,236.0,1459.391
1459401.0,212.0,256.0,244.0,229.0,1459.401
1459411.0,218.0,264.0,253.0,238.0,1459.411
1459421.0,221.0,265.0,260.0,243.0,1459.421
1459431.0,219.0,265.0,242.0,239.0,1459.431
1459441.0,217.0,259.0,247.0,237.0,1459.441
1459451.0,209.0,252.0,228.0,228.0,1459.451
1459461.0,214.0,258.0,234.0,234.0,1459.461
1459471.0,219.0,263.0,238.0,240.0,1459.471
1459481.0,218.0,259.0,223.0,236.0,1459.481
1459491.0,216.0,256.0,228.0,235.0,1459.491
1459501.0,212.0,251.0,210.0,229.0,1459.501
1459511.0,214.0,257.0,215.0,235.0,1459.511
1459521.0,220.0,261.0,222.0,241.0,1459.521
1459531.0,218.0,258.0,207.0,236.0,1459.531
1459542.0,216.0,256.0,212.0,235.0,1459.542
1459552.0,211.0,251.0,198.0,230.0,1459.552
1459562.0,219.0,263.0,207.0,240.0,1459.562
1459572.0,222.0,263.0,211.0,243.0,1459.572
1459582.0,215.0,256.0,195.0,232.0,1459.582
1459592.0,217.0,256.0,200.0,236.0,1459.592
1459602.0,212.0,252.0,191.0,231.0,1459.602
1459612.0,220.0,260.0,194.0,238.0,1459.612
1459622.0,220.0,258.0,199.0,240.0,1459.622
1459632.0,215.0,253.0,189.0,235.0,1459.632
1459642.0,215.0,254.0,189.0,234.0,1459.642
1459652.0,212.0,251.0,187.0,232.0,1459.652
1459662.0,219.0,261.0,196.0,240.0,1459.662
1459672.0,222.0,261.0,199.0,240.0,1459.672
1459682.0,215.0,258.0,193.0,235.0,1459.682
1459692.0,215.0,256.0,194.0,236.0,1459.692
1459702.0,213.0,256.0,192.0,236.0,1459.702
1459712.0,216.0,260.0,196.0,239.0,1459.712
1459722.0,221.0,262.0,204.0,243.0,1459.722
1459732.0,215.0,256.0,196.0,235.0,1459.732
1459742.0,215.0,256.0,195.0,235.0,1459.742
1459752.0,214.0,256.0,198.0,236.0,1459.752
1459762.0,218.0,263.0,204.0,243.0,1459.762
1459772.0,222.0,264.0,210.0,245.0,1459.772
1459782.0,216.0,259.0,204.0,235.0,1459.782
1459792.0,216.0,259.0,203.0,238.0,1459.792
1459802.0,211.0,252.0,200.0,234.0,1459.802
1459812.0,218.0,264.0,210.0,244.0,1459.812
1459822.0,222.0,262.0,211.0,244.0,1459.822
1459832.0,214.0,256.0,207.0,236.0,1459.832
1459842.0,217.0,257.0,206.0,238.0,1459.842
1459852.0,211.0,253.0,204.0,233.0,1459.852
1459862.0,220.0,263.0,214.0,241.0,1459.862
1459872.0,221.0,260.0,210.0,243.0,1459.872
1459883.0,215.0,255.0,210.0,234.0,1459.883
1459893.0,215.0,257.0,207.0,237.0,1459.893
1459903.0,217.0,259.0,215.0,240.0,1459.903
1459913.0,218.0,260.0,221.0,242.0,1459.913
1459923.0,219.0,257.0,215.0,240.0,1459.923
1459933.0,214.0,253.0,218.0,235.0,1459.933
1459943.0,215.0,257.0,217.0,237.0,1459.943
1459953.0,218.0,261.0,222.0,242.0,1459.953
1459963.0,219.0,262.0,227.0,241.0,1459.963
1459973.0,222.0,261.0,221.0,242.0,1459.973
1459983.0,213.0,253.0,225.0,234.0,1459.983
1459993.0,215.0,256.0,220.0,236.0,1459.993
1460003.0,220.0,263.0,228.0,242.0,1460.003
1460013.0,221.0,263.0,233.0,241.0,1460.013
1460023.0,221.0,260.0,225.0,242.0,1460.023
1460033.0,213.0,255.0,230.0,231.0,1460.033
1460043.0,215.0,259.0,227.0,237.0,1460.043
1460054.0,221.0,264.0,236.0,242.0,1460.054
1460064.0,218.0,260.0,240.0,240.0,1460.064
1460074.0,218.0,259.0,231.0,238.0,1460.074
1460084.0,209.0,251.0,234.0,231.0,1460.084
1460094.0,215.0,260.0,238.0,238.0,1460.094
1460104.0,220.0,262.0,241.0,242.0,1460.104
1460114.0,216.0,259.0,245.0,239.0,1460.114
1460124.0,216.0,256.0,237.0,238.0,1460.124
1460134.0,209.0,249.0,242.0,230.0,1460.134
1460144.0,214.0,256.0,241.0,237.0,1460.144
1460154.0,220.0,263.0,249.0,243.0,1460.154
1460164.0,216.0,259.0,253.0,238.0,1460.164
1460174.0,216.0,257.0,241.0,237.0,1460.174
1460184.0,211.0,250.0,249.0,230.0,1460.184
1460194.0,214.0,256.0,247.0,239.0,1460.194
1460204.0,219.0,260.0,251.0,244.0,1460.204
1460214.0,215.0,256.0,252.0,239.0,1460.214
1460224.0,216.0,254.0,243.0,239.0,1460.224
1460234.0,208.0,249.0,250.0,230.0,1460.234
1460244.0,213.0,256.0,251.0,238.0,1460.244
1460254.0,220.0,261.0,254.0,243.0,1460.254
1460264.0,214.0,258.0,260.0,238.0,1460.264
1460274.0,217.0,256.0,251.0,240.0,1460.274
1460284.0,208.0,251.0,255.0,231.0,1460.284
1460294.0,215.0,260.0,258.0,240.0,1460.294
1460304.0,220.0,264.0,257.0,244.0,1460.304
1460314.0,217.0,260.0,263.0,240.0,1460.314
1460324.0,215.0,256.0,249.0,238.0,1460.324
1460334.0,208.0,247.0,256.0,230.0,1460.334
1460344.0,215.0,260.0,259.0,240.0,1460.344
1460354.0,218.0,262.0,261.0,242.0,1460.354
1460364.0,216.0,260.0,269.0,241.0,1460.364
1460374.0,216.0,258.0,256.0,240.0,1460.374
1460384.0,208.0,251.0,261.0,232.0,1460.384
1460395.0,217.0,261.0,267.0,242.0,1460.395
1460405.0,221.0,264.0,262.0,247.0,1460.405
1460415.0,214.0,256.0,270.0,238.0,1460.415
1460425.0,214.0,257.0,257.0,238.0,1460.425
1460435.0,213.0,256.0,262.0,238.0,1460.435
1460445.0,216.0,258.0,261.0,240.0,1460.445
1460455.0,219.0,260.0,256.0,243.0,1460.455
1460465.0,212.0,249.0,266.0,235.0,1460.465
1460475.0,214.0,254.0,258.0,236.0,1460.475
1460485.0,209.0,248.0,263.0,233.0,1460.485
1460495.0,216.0,258.0,269.0,243.0,1460.495
1460505.0,220.0,263.0,266.0,246.0,1460.505
1460515.0,212.0,250.0,274.0,237.0,1460.515
1460525.0,215.0,257.0,263.0,239.0,1460.525
1460535.0,211.0,254.0,272.0,238.0,1460.535
1460545.0,219.0,261.0,278.0,244.0,1460.545
1460555.0,221.0,263.0,266.0,244.0,1460.555
1460566.0,213.0,254.0,276.0,235.0,1460.566
1460576.0,214.0,257.0,266.0,238.0,1460.576
1460586.0,219.0,261.0,276.0,243.0,1460.586
1460596.0,218.0,260.0,281.0,243.0,1460.596
1460606.0,218.0,257.0,267.0,240.0,1460.606
1460616.0,212.0,252.0,277.0,234.0,1460.616
1460626.0,214.0,255.0,269.0,237.0,1460.626
1460636.0,219.0,261.0,280.0,245.0,1460.636
1460646.0,219.0,260.0,283.0,242.0,1460.646
1460656.0,222.0,260.0,270.0,242.0,1460.656
1460666.0,213.0,255.0,277.0,234.0,1460.666
1460676.0,214.0,257.0,268.0,237.0,1460.676
1460686.0,218.0,262.0,274.0,243.0,1460.686
1460696.0,220.0,262.0,279.0,242.0,1460.696
1460706.0,219.0,259.0,265.0,240.0,1460.706
1460716.0,211.0,251.0,274.0,231.0,1460.716
1460726.0,213.0,257.0,266.0,236.0,1460.726
1460736.0,215.0,260.0,274.0,239.0,1460.736
1460746.0,219.0,263.0,277.0,242.0,1460.746
1460756.0,219.0,259.0,266.0,240.0,1460.756
1460766.0,210.0,253.0,274.0,232.0,1460.766
1460776.0,214.0,256.0,268.0,237.0,1460.776
1460786.0,217.0,259.0,272.0,240.0,1460.786
1460796.0,219.0,262.0,275.0,241.0,1460.796
1460806.0,218.0,256.0,261.0,241.0,1460.806
1460816.0,211.0,252.0,275.0,234.0,1460.816
1460826.0,216.0,258.0,268.0,239.0,1460.826
1460836.0,218.0,262.0,275.0,243.0,1460.836
1460846.0,219.0,261.0,282.0,243.0,1460.846
1460856.0,218.0,260.0,264.0,240.0,1460.856
1460866.0,212.0,252.0,272.0,232.0,1460.866
1460876.0,214.0,257.0,264.0,235.0,1460.876
1460886.0,219.0,261.0,272.0,241.0,1460.886
1460896.0,217.0,260.0,276.0,239.0,1460.896
1460907.0,218.0,257.0,263.0,237.0,1460.907
1460917.0,209.0,251.0,271.0,231.0,1460.917
1460927.0,215.0,258.0,271.0,237.0,1460.927
1460937.0,222.0,263.0,270.0,243.0,1460.937
1460947.0,216.0,256.0,278.0,236.0,1460.947
1460957.0,217.0,256.0,261.0,236.0,1460.957
1460967.0,209.0,248.0,269.0,228.0,1460.967
1460977.0,217.0,258.0,273.0,239.0,1460.977
1460987.0,221.0,264.0,268.0,241.0,1460.987
1460997.0,216.0,256.0,277.0,237.0,1460.997
1461007.0,216.0,257.0,264.0,236.0,1461.007
1461017.0,209.0,250.0,273.0,229.0,1461.017
1461027.0,216.0,261.0,278.0,239.0,1461.027
1461037.0,222.0,264.0,276.0,243.0,1461.037
1461047.0,217.0,261.0,281.0,239.0,1461.047
1461057.0,217.0,257.0,268.0,237.0,1461.057
1461067.0,209.0,250.0,274.0,231.0,1461.067
1461078.0,217.0,262.0,283.0,242.0,1461.078
1461088.0,221.0,263.0,272.0,244.0,1461.088
1461098.0,214.0,256.0,283.0,236.0,1461.098
1461108.0,215.0,259.0,274.0,239.0,1461.108
1461118.0,215.0,259.0,280.0,241.0,1461.118
1461128.0,217.0,266.0,284.0,246.0,1461.128
1461138.0,220.0,263.0,276.0,247.0,1461.138
1461148.0,213.0,257.0,282.0,238.0,1461.148
1461158.0,214.0,258.0,274.0,238.0,1461.158
1461168.0,210.0,255.0,278.0,236.0,1461.168
1461178.0,218.0,266.0,283.0,243.0,1461.178
1461188.0,220.0,262.0,272.0,243.0,1461.188
1461198.0,211.0,259.0,279.0,236.0,1461.198
1461208.0,216.0,259.0,269.0,239.0,1461.208
1461218.0,211.0,256.0,276.0,238.0,1461.218
1461228.0,219.0,265.0,282.0,244.0,1461.228
1461238.0,219.0,263.0,269.0,245.0,1461.238
1461248.0,214.0,256.0,278.0,238.0,1461.248
1461258.0,214.0,258.0,265.0,239.0,1461.258
1461268.0,213.0,256.0,274.0,239.0,1461.268
1461278.0,219.0,263.0,278.0,244.0,1461.278
1461288.0,219.0,259.0,263.0,241.0,1461.288
1461298.0,212.0,255.0,271.0,236.0,1461.298
1461308.0,214.0,256.0,261.0,237.0,1461.308
1461318.0,213.0,255.0,268.0,239.0,1461.318
1461328.0,218.0,261.0,274.0,243.0,1461.328
1461338.0,220.0,260.0,264.0,243.0,1461.338
1461348.0,212.0,252.0,270.0,235.0,1461.348
1461358.0,216.0,255.0,262.0,237.0,1461.358
1461368.0,215.0,259.0,267.0,240.0,1461.368
1461378.0,218.0,260.0,271.0,242.0,1461.378
1461388.0,221.0,262.0,262.0,244.0,1461.388
1461398.0,214.0,252.0,271.0,236.0,1461.398
1461408.0,213.0,255.0,259.0,238.0,1461.408
1461419.0,215.0,256.0,267.0,241.0,1461.419
1461429.0,217.0,260.0,271.0,242.0,1461.429
1461439.0,217.0,256.0,256.0,239.0,1461.439
1461449.0,209.0,251.0,259.0,231.0,1461.449
1461459.0,213.0,255.0,256.0,235.0,1461.459
1461469.0,216.0,259.0,260.0,240.0,1461.469
1461479.0,217.0,264.0,266.0,240.0,1461.479
1461489.0,217.0,258.0,253.0,239.0,1461.489
1461499.0,209.0,253.0,258.0,230.0,1461.499
1461509.0,213.0,257.0,253.0,237.0,1461.509
1461519.0,217.0,261.0,260.0,243.0,1461.519
1461529.0,217.0,260.0,263.0,242.0,1461.529
1461539.0,216.0,257.0,250.0,240.0,1461.539
1461549.0,212.0,253.0,262.0,237.0,1461.549
1461559.0,214.0,257.0,257.0,240.0,1461.559
1461569.0,219.0,264.0,263.0,246.0,1461.569
1461579.0,217.0,263.0,267.0,244.0,1461.579
1461590.0,217.0,259.0,254.0,241.0,1461.59
1461600.0,209.0,251.0,257.0,233.0,1461.6
1461610.0,216.0,261.0,261.0,243.0,1461.61
1461620.0,222.0,264.0,258.0,246.0,1461.62
1461630.0,215.0,260.0,264.0,240.0,1461.63
1461640.0,218.0,260.0,253.0,241.0,1461.64
1461650.0,209.0,253.0,256.0,236.0,1461.65
1461660.0,217.0,263.0,260.0,244.0,1461.66
1461670.0,222.0,264.0,256.0,246.0,1461.67
1461680.0,217.0,261.0,261.0,242.0,1461.68
1461690.0,217.0,259.0,249.0,241.0,1461.69
1461700.0,209.0,252.0,252.0,234.0,1461.7
1461710.0,216.0,264.0,257.0,244.0,1461.71
1461720.0,221.0,265.0,257.0,245.0,1461.72
1461730.0,213.0,260.0,257.0,239.0,1461.73
1461740.0,214.0,257.0,247.0,239.0,1461.74
1461750.0,208.0,252.0,250.0,234.0,1461.75
1461760.0,214.0,258.0,250.0,239.0,1461.76
1461770.0,220.0,263.0,253.0,245.0,1461.77
1461780.0,215.0,259.0,259.0,240.0,1461.78
1461790.0,216.0,259.0,249.0,239.0,1461.79
1461800.0,210.0,254.0,254.0,234.0,1461.8
1461810.0,215.0,259.0,253.0,237.0,1461.81
1461820.0,219.0,264.0,253.0,242.0,1461.82
1461830.0,215.0,258.0,255.0,236.0,1461.83
1461840.0,215.0,258.0,244.0,237.0,1461.84
1461850.0,208.0,250.0,246.0,229.0,1461.85
1461860.0,216.0,261.0,252.0,241.0,1461.86
1461870.0,221.0,262.0,250.0,243.0,1461.87
1461880.0,214.0,260.0,251.0,237.0,1461.88
1461890.0,217.0,258.0,244.0,237.0,1461.89
1461900.0,209.0,254.0,248.0,232.0,1461.9
1461910.0,218.0,266.0,255.0,243.0,1461.91
1461920.0,222.0,266.0,253.0,245.0,1461.92
1461931.0,215.0,261.0,255.0,238.0,1461.931
1461941.0,216.0,261.0,243.0,237.0,1461.941
1461951.0,213.0,260.0,246.0,238.0,1461.951
1461961.0,218.0,266.0,252.0,243.0,1461.961
1461971.0,220.0,261.0,242.0,241.0,1461.971
1461981.0,214.0,259.0,248.0,237.0,1461.981
1461991.0,215.0,259.0,241.0,238.0,1461.991
1462001.0,215.0,260.0,245.0,240.0,1462.001
1462011.0,219.0,267.0,248.0,244.0,1462.011
1462021.0,222.0,263.0,241.0,243.0,1462.021
1462031.0,213.0,258.0,242.0,236.0,1462.031
1462041.0,216.0,258.0,238.0,237.0,1462.041
1462051.0,215.0,261.0,241.0,241.0,1462.051
1462061.0,219.0,265.0,246.0,244.0,1462.061
1462071.0,220.0,263.0,238.0,243.0,1462.071
1462081.0,212.0,257.0,239.0,236.0,1462.081
1462091.0,214.0,258.0,233.0,237.0,1462.091
1462102.0,217.0,263.0,237.0,240.0,1462.102
1462112.0,218.0,265.0,240.0,242.0,1462.112
1462122.0,218.0,260.0,230.0,239.0,1462.122
1462132.0,210.0,253.0,231.0,232.0,1462.132
1462142.0,214.0,258.0,232.0,239.0,1462.142
1462152.0,217.0,262.0,237.0,243.0,1462.152
1462162.0,218.0,258.0,239.0,242.0,1462.162
1462172.0,218.0,261.0,230.0,240.0,1462.172
1462182.0,209.0,249.0,228.0,233.0,1462.182
1462192.0,215.0,256.0,227.0,237.0,1462.192
1462202.0,218.0,263.0,232.0,244.0,1462.202
1462212.0,217.0,257.0,233.0,241.0,1462.212
1462222.0,217.0,258.0,224.0,240.0,1462.222
1462232.0,211.0,251.0,227.0,235.0,1462.232
1462242.0,213.0,255.0,224.0,239.0,1462.242
1462252.0,218.0,261.0,230.0,244.0,1462.252
1462262.0,216.0,259.0,230.0,243.0,1462.262
1462272.0,218.0,257.0,223.0,242.0,1462.272
1462282.0,210.0,252.0,222.0,235.0,1462.282
1462292.0,213.0,256.0,219.0,239.0,1462.292
1462302.0,220.0,263.0,226.0,248.0,1462.302
1462312.0,216.0,264.0,229.0,244.0,1462.312
1462322.0,219.0,259.0,222.0,244.0,1462.322
1462332.0,211.0,255.0,219.0,236.0,1462.332
1462342.0,214.0,259.0,220.0,242.0,1462.342
1462352.0,220.0,265.0,226.0,247.0,1462.352
1462362.0,219.0,266.0,226.0,244.0,1462.362
1462372.0,218.0,260.0,219.0,242.0,1462.372
1462382.0,210.0,254.0,217.0,235.0,1462.382
1462392.0,214.0,262.0,222.0,243.0,1462.392
1462402.0,217.0,264.0,225.0,245.0,1462.402
1462412.0,217.0,265.0,225.0,243.0,1462.412
1462422.0,217.0,260.0,216.0,240.0,1462.422
1462432.0,208.0,254.0,210.0,231.0,1462.432
1462443.0,215.0,261.0,215.0,239.0,1462.443
1462453.0,220.0,265.0,219.0,245.0,1462.453
1462463.0,214.0,260.0,217.0,238.0,1462.463
1462473.0,215.0,260.0,213.0,238.0,1462.473
1462483.0,211.0,256.0,213.0,234.0,1462.483
1462493.0,215.0,262.0,215.0,239.0,1462.493
1462503.0,221.0,264.0,218.0,243.0,1462.503
1462513.0,215.0,260.0,215.0,236.0,1462.513
1462523.0,215.0,260.0,213.0,237.0,1462.523
1462533.0,209.0,253.0,213.0,230.0,1462.533
1462543.0,216.0,263.0,222.0,240.0,1462.543
1462553.0,222.0,266.0,226.0,244.0,1462.553
1462563.0,213.0,258.0,221.0,238.0,1462.563
1462573.0,217.0,260.0,220.0,239.0,1462.573
1462583.0,208.0,253.0,215.0,234.0,1462.583
1462593.0,216.0,264.0,223.0,242.0,1462.593
1462603.0,220.0,262.0,221.0,244.0,1462.603
1462614.0,212.0,255.0,218.0,238.0,1462.614
1462624.0,214.0,257.0,214.0,237.0,1462.624
1462634.0,214.0,258.0,219.0,239.0,1462.634
1462644.0,218.0,264.0,224.0,244.0,1462.644
1462654.0,218.0,257.0,216.0,240.0,1462.654
1462664.0,212.0,254.0,218.0,236.0,1462.664
1462674.0,214.0,257.0,215.0,238.0,1462.674
1462684.0,215.0,259.0,220.0,241.0,1462.684
1462694.0,218.0,265.0,224.0,244.0,1462.694
1462704.0,220.0,263.0,220.0,245.0,1462.704
1462714.0,212.0,256.0,220.0,237.0,1462.714
1462724.0,214.0,260.0,217.0,238.0,1462.724
1462734.0,217.0,264.0,224.0,243.0,1462.734
1462744.0,218.0,266.0,226.0,243.0,1462.744
1462754.0,220.0,263.0,221.0,242.0,1462.754
1462764.0,212.0,256.0,221.0,234.0,1462.764
1462774.0,213.0,259.0,218.0,237.0,1462.774
1462784.0,211.0,258.0,220.0,238.0,1462.784
1462794.0,219.0,268.0,227.0,245.0,1462.794
1462804.0,219.0,261.0,221.0,242.0,1462.804
1462814.0,212.0,258.0,220.0,237.0,1462.814
1462824.0,215.0,260.0,220.0,239.0,1462.824
1462834.0,214.0,260.0,221.0,240.0,1462.834
1462844.0,219.0,266.0,226.0,245.0,1462.844
1462854.0,220.0,260.0,222.0,244.0,1462.854
1462864.0,212.0,255.0,221.0,236.0,1462.864
1462874.0,216.0,258.0,220.0,239.0,1462.874
1462884.0,215.0,260.0,224.0,241.0,1462.884
1462894.0,219.0,267.0,230.0,245.0,1462.894
1462904.0,219.0,260.0,220.0,242.0,1462.904
1462914.0,214.0,258.0,220.0,236.0,1462.914
1462924.0,214.0,257.0,215.0,237.0,1462.924
1462934.0,216.0,262.0,222.0,241.0,1462.934
1462944.0,219.0,266.0,226.0,244.0,1462.944
1462955.0,218.0,262.0,221.0,241.0,1462.955
1462965.0,211.0,256.0,218.0,234.0,1462.965
1462975.0,213.0,259.0,218.0,238.0,1462.975
1462985.0,220.0,264.0,223.0,244.0,1462.985
1462995.0,216.0,261.0,223.0,240.0,1462.995
1463005.0,218.0,260.0,220.0,241.0,1463.005
1463015.0,210.0,254.0,217.0,234.0,1463.015
1463025.0,214.0,259.0,217.0,238.0,1463.025
1463035.0,220.0,265.0,223.0,243.0,1463.035
1463045.0,219.0,260.0,222.0,241.0,1463.045
1463055.0,217.0,259.0,214.0,240.0,1463.055
1463065.0,211.0,251.0,213.0,232.0,1463.065
1463075.0,215.0,259.0,217.0,241.0,1463.075
1463085.0,219.0,263.0,221.0,243.0,1463.085
1463095.0,218.0,261.0,220.0,243.0,1463.095
1463105.0,217.0,257.0,215.0,239.0,1463.105
1463115.0,209.0,248.0,210.0,231.0,1463.115
1463126.0,215.0,258.0,218.0,240.0,1463.126
1463136.0,220.0,261.0,220.0,243.0,1463.136
1463146.0,214.0,253.0,217.0,238.0,1463.146
1463156.0,214.0,254.0,213.0,238.0,1463.156
1463166.0,211.0,251.0,213.0,236.0,1463.166
1463176.0,214.0,256.0,218.0,242.0,1463.176
1463186.0,219.0,259.0,219.0,246.0,1463.186
1463196.0,213.0,251.0,215.0,239.0,1463.196
1463206.0,213.0,253.0,211.0,240.0,1463.206
1463216.0,209.0,246.0,208.0,233.0,1463.216
1463226.0,216.0,258.0,220.0,245.0,1463.226
1463236.0,220.0,260.0,222.0,247.0,1463.236
1463246.0,212.0,253.0,218.0,240.0,1463.246
1463256.0,216.0,255.0,215.0,241.0,1463.256
1463266.0,208.0,247.0,213.0,237.0,1463.266
1463276.0,217.0,257.0,221.0,245.0,1463.276
1463286.0,220.0,260.0,222.0,248.0,1463.286
1463296.0,215.0,254.0,218.0,242.0,1463.296
1463306.0,214.0,254.0,213.0,241.0,1463.306
1463316.0,209.0,248.0,210.0,236.0,1463.316
1463326.0,216.0,258.0,218.0,245.0,1463.326
1463336.0,220.0,258.0,217.0,245.0,1463.336
1463346.0,214.0,254.0,217.0,241.0,1463.346
1463356.0,214.0,256.0,215.0,242.0,1463.356
1463366.0,209.0,249.0,212.0,238.0,1463.366
1463376.0,217.0,260.0,220.0,245.0,1463.376
1463386.0,220.0,258.0,219.0,246.0,1463.386
1463396.0,212.0,254.0,214.0,241.0,1463.396
1463406.0,213.0,254.0,211.0,240.0,1463.406
1463416.0,210.0,253.0,210.0,239.0,1463.416
1463426.0,214.0,258.0,212.0,242.0,1463.426
1463436.0,219.0,260.0,211.0,244.0,1463.436
1463446.0,213.0,253.0,206.0,237.0,1463.446
1463456.0,211.0,252.0,201.0,236.0,1463.456
1463467.0,209.0,253.0,203.0,236.0,1463.467
1463477.0,216.0,263.0,212.0,241.0,1463.477
1463487.0,217.0,257.0,207.0,239.0,1463.487
1463497.0,209.0,253.0,203.0,234.0,1463.497
1463507.0,211.0,255.0,205.0,237.0,1463.507
1463517.0,212.0,256.0,206.0,238.0,1463.517
1463527.0,216.0,262.0,210.0,242.0,1463.527
1463537.0,216.0,259.0,206.0,239.0,1463.537
1463547.0,208.0,251.0,201.0,233.0,1463.547
1463557.0,211.0,256.0,202.0,237.0,1463.557
1463567.0,212.0,258.0,208.0,239.0,1463.567
1463577.0,215.0,262.0,213.0,242.0,1463.577
1463587.0,214.0,256.0,208.0,239.0,1463.587
1463597.0,209.0,251.0,205.0,234.0,1463.597
1463607.0,210.0,254.0,203.0,235.0,1463.607
1463617.0,212.0,258.0,208.0,239.0,1463.617
1463627.0,215.0,259.0,211.0,241.0,1463.627
1463638.0,215.0,255.0,207.0,237.0,1463.638
1463648.0,207.0,247.0,201.0,231.0,1463.648
1463658.0,211.0,254.0,205.0,236.0,1463.658
1463668.0,218.0,260.0,212.0,243.0,1463.668
1463678.0,214.0,258.0,209.0,238.0,1463.678
1463688.0,215.0,254.0,208.0,238.0,1463.688
1463698.0,208.0,247.0,200.0,230.0,1463.698
1463708.0,213.0,253.0,202.0,236.0,1463.708
1463718.0,217.0,258.0,207.0,241.0,1463.718
1463728.0,215.0,255.0,205.0,239.0,1463.728
1463738.0,214.0,253.0,202.0,238.0,1463.738
1463748.0,207.0,245.0,196.0,229.0,1463.748
1463758.0,212.0,254.0,201.0,238.0,1463.758
1463768.0,217.0,257.0,208.0,241.0,1463.768
1463778.0,214.0,254.0,206.0,239.0,1463.778
1463788.0,213.0,253.0,202.0,236.0,1463.788
1463798.0,206.0,245.0,198.0,230.0,1463.798
1463808.0,211.0,251.0,201.0,235.0,1463.808
1463818.0,217.0,256.0,207.0,242.0,1463.818
1463828.0,215.0,254.0,207.0,238.0,1463.828
1463838.0,214.0,253.0,204.0,237.0,1463.838
1463848.0,207.0,246.0,199.0,230.0,1463.848
1463858.0,212.0,253.0,200.0,235.0,1463.858
1463868.0,217.0,260.0,207.0,241.0,1463.868
1463878.0,214.0,256.0,206.0,238.0,1463.878
1463888.0,214.0,254.0,201.0,235.0,1463.888
1463898.0,209.0,249.0,197.0,229.0,1463.898
1463908.0,211.0,258.0,202.0,237.0,1463.908
1463918.0,218.0,261.0,210.0,242.0,1463.918
1463928.0,214.0,260.0,204.0,238.0,1463.928
1463938.0,215.0,256.0,202.0,236.0,1463.938
1463948.0,208.0,252.0,197.0,229.0,1463.948
1463958.0,213.0,260.0,204.0,238.0,1463.958
1463968.0,218.0,262.0,208.0,241.0,1463.968
1463979.0,214.0,257.0,204.0,236.0,1463.979
1463989.0,213.0,255.0,201.0,236.0,1463.989
1463999.0,208.0,250.0,198.0,232.0,1463.999
1464009.0,216.0,262.0,207.0,241.0,1464.009
1464019.0,217.0,258.0,206.0,242.0,1464.019
1464029.0,213.0,255.0,203.0,236.0,1464.029
1464039.0,212.0,255.0,202.0,236.0,1464.039
1464049.0,210.0,253.0,202.0,235.0,1464.049
1464059.0,217.0,263.0,210.0,242.0,1464.059
1464069.0,218.0,260.0,210.0,242.0,1464.069
1464079.0,212.0,254.0,203.0,234.0,1464.079
1464089.0,213.0,254.0,201.0,234.0,1464.089
1464099.0,210.0,252.0,200.0,233.0,1464.099
1464109.0,214.0,255.0,205.0,237.0,1464.109
1464119.0,217.0,258.0,206.0,240.0,1464.119
1464129.0,211.0,250.0,203.0,231.0,1464.129
1464139.0,212.0,252.0,201.0,234.0,1464.139
1464150.0,212.0,251.0,204.0,234.0,1464.15
1464160.0,216.0,257.0,209.0,239.0,1464.16
1464170.0,215.0,252.0,205.0,237.0,1464.17
1464180.0,210.0,250.0,204.0,230.0,1464.18
1464190.0,211.0,254.0,206.0,234.0,1464.19
1464200.0,213.0,257.0,210.0,238.0,1464.2
1464210.0,216.0,260.0,213.0,240.0,1464.21
1464220.0,216.0,257.0,208.0,238.0,1464.22
1464230.0,209.0,252.0,205.0,230.0,1464.23
1464240.0,213.0,256.0,206.0,233.0,1464.24
1464250.0,213.0,259.0,210.0,237.0,1464.25
1464260.0,216.0,260.0,214.0,238.0,1464.26
1464270.0,215.0,255.0,208.0,236.0,1464.27
1464280.0,211.0,252.0,209.0,232.0,1464.28
1464290.0,211.0,253.0,208.0,234.0,1464.29
1464300.0,215.0,260.0,213.0,240.0,1464.3
1464310.0,216.0,260.0,215.0,239.0,1464.31
1464320.0,218.0,258.0,212.0,239.0,1464.32
1464330.0,211.0,253.0,208.0,232.0,1464.33
1464340.0,213.0,253.0,209.0,235.0,1464.34
1464350.0,216.0,258.0,214.0,240.0,1464.35
1464360.0,216.0,257.0,216.0,240.0,1464.36
1464370.0,218.0,259.0,212.0,240.0,1464.37
1464380.0,209.0,248.0,208.0,231.0,1464.38
1464390.0,211.0,252.0,209.0,233.0,1464.39
1464400.0,216.0,259.0,218.0,241.0,1464.4
1464410.0,216.0,260.0,218.0,239.0,1464.41
1464420.0,216.0,257.0,212.0,237.0,1464.42
1464430.0,209.0,252.0,206.0,229.0,1464.43
1464440.0,211.0,256.0,207.0,234.0,1464.44
1464450.0,212.0,257.0,209.0,236.0,1464.45
1464460.0,215.0,264.0,213.0,240.0,1464.46
1464470.0,216.0,257.0,212.0,238.0,1464.47
1464480.0,207.0,252.0,205.0,230.0,1464.48
1464491.0,210.0,255.0,206.0,233.0,1464.491
