time (ms),signal 0,signal 1,signal 2,signal 3,time (sec)
1441302.0,209.0,253.0,226.0,235.0,1441.302
1441312.0,202.0,250.0,231.0,229.0,1441.312
1441323.0,205.0,248.0,224.0,230.0,1441.323
1441333.0,201.0,248.0,229.0,229.0,1441.333
1441343.0,207.0,254.0,235.0,233.0,1441.343
1441353.0,207.0,250.0,225.0,232.0,1441.353
1441363.0,200.0,245.0,233.0,226.0,1441.363
1441373.0,202.0,248.0,227.0,230.0,1441.373
1441383.0,202.0,248.0,234.0,230.0,1441.383
1441393.0,207.0,256.0,241.0,236.0,1441.393
1441403.0,208.0,250.0,231.0,234.0,1441.403
1441413.0,202.0,247.0,239.0,229.0,1441.413
1441423.0,205.0,248.0,233.0,231.0,1441.423
1441433.0,205.0,250.0,239.0,233.0,1441.433
1441443.0,208.0,256.0,244.0,236.0,1441.443
1441453.0,211.0,254.0,238.0,239.0,1441.453
1441463.0,203.0,250.0,241.0,231.0,1441.463
1441473.0,205.0,251.0,233.0,231.0,1441.473
1441483.0,206.0,253.0,241.0,234.0,1441.483
1441494.0,209.0,258.0,246.0,236.0,1441.494
1441504.0,208.0,252.0,234.0,233.0,1441.504
1441514.0,201.0,246.0,237.0,225.0,1441.514
1441524.0,205.0,253.0,236.0,231.0,1441.524
1441534.0,211.0,258.0,243.0,238.0,1441.534
1441544.0,209.0,258.0,245.0,236.0,1441.544
1441554.0,210.0,254.0,236.0,234.0,1441.554
1441564.0,201.0,247.0,239.0,227.0,1441.564
1441574.0,205.0,253.0,239.0,234.0,1441.574
1441584.0,209.0,258.0,244.0,240.0,1441.584
1441594.0,210.0,258.0,249.0,238.0,1441.594
1441604.0,209.0,254.0,239.0,235.0,1441.604
1441614.0,203.0,248.0,244.0,229.0,1441.614
1441624.0,207.0,253.0,240.0,234.0,1441.624
1441634.0,210.0,257.0,248.0,241.0,1441.634
1441644.0,210.0,256.0,252.0,239.0,1441.644
1441654.0,209.0,254.0,241.0,238.0,1441.654
1441664.0,204.0,249.0,247.0,232.0,1441.664
1441674.0,207.0,252.0,241.0,235.0,1441.674
1441684.0,213.0,259.0,249.0,241.0,1441.684
1441694.0,210.0,257.0,251.0,239.0,1441.694
1441704.0,210.0,254.0,241.0,236.0,1441.704
1441714.0,204.0,251.0,247.0,232.0,1441.714
1441724.0,207.0,254.0,243.0,236.0,1441.724
1441734.0,213.0,261.0,250.0,242.0,1441.734
1441744.0,211.0,259.0,254.0,238.0,1441.744
1441754.0,211.0,255.0,242.0,237.0,1441.754
1441764.0,204.0,251.0,248.0,231.0,1441.764
1441774.0,207.0,256.0,247.0,239.0,1441.774
1441784.0,213.0,262.0,251.0,243.0,1441.784
1441794.0,211.0,261.0,255.0,240.0,1441.794
1441804.0,211.0,257.0,243.0,239.0,1441.804
1441814.0,204.0,249.0,249.0,231.0,1441.814
1441824.0,208.0,255.0,247.0,238.0,1441.824
1441835.0,214.0,259.0,251.0,244.0,1441.835
1441845.0,208.0,257.0,255.0,240.0,1441.845
1441855.0,209.0,254.0,247.0,239.0,1441.855
1441865.0,203.0,249.0,252.0,235.0,1441.865
1441875.0,212.0,259.0,260.0,243.0,1441.875
1441885.0,214.0,260.0,255.0,245.0,1441.885
1441895.0,208.0,255.0,259.0,239.0,1441.895
1441905.0,209.0,257.0,250.0,239.0,1441.905
1441915.0,206.0,252.0,254.0,237.0,1441.915
1441925.0,211.0,258.0,256.0,243.0,1441.925
1441935.0,216.0,260.0,255.0,245.0,1441.935
1441945.0,210.0,255.0,256.0,239.0,1441.945
1441955.0,210.0,254.0,247.0,238.0,1441.955
1441965.0,203.0,248.0,250.0,233.0,1441.965
1441975.0,211.0,259.0,254.0,242.0,1441.975
1441985.0,215.0,260.0,252.0,244.0,1441.985
1441995.0,209.0,256.0,259.0,238.0,1441.995
1442006.0,210.0,256.0,250.0,236.0,1442.006
1442016.0,208.0,255.0,256.0,236.0,1442.016
1442026.0,212.0,262.0,262.0,241.0,1442.026
1442036.0,214.0,257.0,250.0,239.0,1442.036
1442046.0,205.0,252.0,257.0,231.0,1442.046
1442056.0,208.0,254.0,250.0,236.0,1442.056
1442066.0,209.0,253.0,257.0,238.0,1442.066
1442076.0,212.0,259.0,262.0,242.0,1442.076
1442086.0,213.0,253.0,250.0,240.0,1442.086
1442096.0,207.0,251.0,261.0,237.0,1442.096
1442106.0,208.0,253.0,254.0,237.0,1442.106
1442116.0,210.0,255.0,260.0,240.0,1442.116
1442126.0,213.0,260.0,265.0,242.0,1442.126
1442136.0,216.0,258.0,255.0,243.0,1442.136
1442146.0,207.0,254.0,260.0,236.0,1442.146
1442156.0,209.0,254.0,253.0,239.0,1442.156
1442166.0,211.0,257.0,259.0,243.0,1442.166
1442176.0,213.0,261.0,261.0,244.0,1442.176
1442186.0,215.0,257.0,250.0,242.0,1442.186
1442196.0,207.0,251.0,258.0,235.0,1442.196
1442206.0,208.0,255.0,250.0,236.0,1442.206
1442216.0,211.0,260.0,256.0,241.0,1442.216
1442226.0,212.0,262.0,259.0,244.0,1442.226
1442236.0,215.0,262.0,252.0,242.0,1442.236
1442246.0,205.0,252.0,256.0,236.0,1442.246
1442256.0,208.0,254.0,248.0,237.0,1442.256
1442266.0,207.0,254.0,251.0,239.0,1442.266
1442276.0,212.0,261.0,256.0,240.0,1442.276
1442286.0,213.0,257.0,245.0,240.0,1442.286
1442296.0,205.0,252.0,250.0,232.0,1442.296
1442306.0,208.0,256.0,244.0,236.0,1442.306
1442316.0,207.0,257.0,249.0,238.0,1442.316
1442326.0,212.0,262.0,254.0,242.0,1442.326
1442336.0,213.0,256.0,243.0,239.0,1442.336
1442347.0,206.0,251.0,249.0,232.0,1442.347
1442357.0,208.0,256.0,244.0,237.0,1442.357
1442367.0,214.0,261.0,250.0,242.0,1442.367
1442377.0,210.0,260.0,254.0,239.0,1442.377
1442387.0,211.0,257.0,243.0,238.0,1442.387
1442397.0,204.0,251.0,248.0,232.0,1442.397
1442407.0,209.0,257.0,245.0,237.0,1442.407
1442417.0,215.0,264.0,251.0,245.0,1442.417
1442427.0,211.0,261.0,258.0,241.0,1442.427
1442437.0,213.0,260.0,247.0,241.0,1442.437
1442447.0,206.0,251.0,252.0,232.0,1442.447
1442457.0,210.0,259.0,247.0,240.0,1442.457
1442467.0,216.0,263.0,252.0,245.0,1442.467
1442477.0,213.0,263.0,255.0,243.0,1442.477
1442487.0,213.0,258.0,244.0,240.0,1442.487
1442497.0,205.0,251.0,248.0,231.0,1442.497
1442507.0,211.0,259.0,249.0,240.0,1442.507
1442518.0,217.0,262.0,251.0,244.0,1442.518
1442528.0,210.0,259.0,253.0,239.0,1442.528
1442538.0,212.0,257.0,245.0,239.0,1442.538
1442548.0,206.0,255.0,248.0,237.0,1442.548
1442558.0,213.0,263.0,254.0,243.0,1442.558
1442568.0,216.0,262.0,249.0,244.0,1442.568
1442578.0,210.0,259.0,253.0,239.0,1442.578
1442588.0,210.0,257.0,243.0,240.0,1442.588
1442598.0,208.0,255.0,247.0,237.0,1442.598
1442608.0,213.0,263.0,250.0,243.0,1442.608
1442618.0,217.0,262.0,248.0,245.0,1442.618
1442628.0,210.0,260.0,250.0,240.0,1442.628
1442638.0,213.0,260.0,243.0,241.0,1442.638
1442648.0,206.0,254.0,243.0,235.0,1442.648
1442658.0,211.0,262.0,248.0,244.0,1442.658
1442668.0,215.0,262.0,244.0,245.0,1442.668
1442678.0,208.0,257.0,247.0,238.0,1442.678
1442688.0,210.0,256.0,237.0,238.0,1442.688
1442698.0,202.0,251.0,237.0,232.0,1442.698
1442708.0,212.0,262.0,247.0,244.0,1442.708
1442718.0,214.0,260.0,238.0,242.0,1442.718
1442728.0,206.0,255.0,240.0,234.0,1442.728
1442738.0,207.0,254.0,231.0,237.0,1442.738
1442748.0,206.0,253.0,232.0,234.0,1442.748
1442758.0,213.0,264.0,239.0,242.0,1442.758
1442768.0,218.0,263.0,236.0,243.0,1442.768
1442778.0,210.0,259.0,237.0,239.0,1442.778
1442788.0,210.0,257.0,226.0,238.0,1442.788
1442798.0,206.0,253.0,226.0,237.0,1442.798
1442808.0,212.0,260.0,232.0,243.0,1442.808
1442818.0,215.0,260.0,227.0,243.0,1442.818
1442828.0,211.0,252.0,223.0,236.0,1442.828
1442838.0,213.0,252.0,215.0,237.0,1442.838
1442848.0,208.0,251.0,221.0,240.0,1442.848
1442859.0,221.0,260.0,229.0,247.0,1442.859
1442869.0,224.0,260.0,221.0,241.0,1442.869
1442879.0,213.0,252.0,216.0,230.0,1442.879
1442889.0,212.0,258.0,216.0,235.0,1442.889
1442899.0,228.0,278.0,228.0,246.0,1442.899
1442909.0,227.0,276.0,226.0,248.0,1442.909
1442919.0,229.0,271.0,223.0,246.0,1442.919
1442929.0,220.0,269.0,218.0,241.0,1442.929
1442939.0,220.0,269.0,219.0,240.0,1442.939
1442949.0,226.0,269.0,218.0,245.0,1442.949
1442959.0,233.0,276.0,223.0,251.0,1442.959
1442969.0,233.0,274.0,221.0,251.0,1442.969
1442979.0,219.0,255.0,205.0,236.0,1442.979
1442989.0,222.0,260.0,206.0,240.0,1442.989
1442999.0,218.0,263.0,209.0,244.0,1442.999
1443009.0,216.0,261.0,208.0,246.0,1443.009
1443019.0,213.0,251.0,205.0,240.0,1443.019
1443030.0,213.0,255.0,205.0,241.0,1443.03
1443040.0,220.0,266.0,214.0,250.0,1443.04
1443050.0,232.0,276.0,228.0,264.0,1443.05
1443060.0,229.0,279.0,217.0,257.0,1443.06
1443070.0,228.0,273.0,223.0,256.0,1443.07
1443080.0,221.0,272.0,209.0,246.0,1443.08
1443090.0,229.0,278.0,218.0,252.0,1443.09
1443100.0,234.0,275.0,220.0,255.0,1443.1
1443110.0,231.0,277.0,205.0,249.0,1443.11
1443120.0,233.0,273.0,218.0,253.0,1443.12
1443130.0,220.0,260.0,196.0,240.0,1443.13
1443140.0,223.0,265.0,206.0,244.0,1443.14
1443150.0,230.0,271.0,221.0,248.0,1443.15
1443160.0,226.0,268.0,206.0,241.0,1443.16
1443170.0,225.0,263.0,217.0,236.0,1443.17
1443180.0,219.0,272.0,203.0,234.0,1443.18
1443190.0,224.0,285.0,223.0,248.0,1443.19
1443200.0,226.0,279.0,234.0,253.0,1443.2
1443210.0,221.0,271.0,221.0,247.0,1443.21
1443220.0,220.0,264.0,239.0,245.0,1443.22
1443230.0,208.0,259.0,215.0,235.0,1443.23
1443240.0,212.0,265.0,228.0,239.0,1443.24
1443250.0,216.0,268.0,243.0,240.0,1443.25
1443260.0,217.0,267.0,228.0,238.0,1443.26
1443270.0,217.0,265.0,254.0,240.0,1443.27
1443280.0,220.0,264.0,251.0,241.0,1443.28
1443290.0,232.0,277.0,265.0,249.0,1443.29
1443300.0,240.0,287.0,279.0,257.0,1443.3
1443310.0,236.0,284.0,261.0,251.0,1443.31
1443320.0,239.0,285.0,289.0,253.0,1443.32
1443330.0,233.0,277.0,267.0,244.0,1443.33
1443340.0,230.0,279.0,281.0,246.0,1443.34
1443350.0,235.0,278.0,298.0,251.0,1443.35
1443360.0,232.0,276.0,281.0,243.0,1443.36
1443371.0,231.0,274.0,309.0,245.0,1443.371
1443381.0,223.0,272.0,295.0,244.0,1443.381
1443391.0,226.0,278.0,304.0,250.0,1443.391
1443401.0,229.0,277.0,335.0,256.0,1443.401
1443411.0,223.0,269.0,309.0,243.0,1443.411
1443421.0,225.0,272.0,332.0,243.0,1443.421
1443431.0,220.0,268.0,323.0,237.0,1443.431
1443441.0,231.0,278.0,326.0,241.0,1443.441
1443451.0,234.0,274.0,363.0,245.0,1443.451
1443461.0,230.0,277.0,338.0,241.0,1443.461
1443471.0,233.0,275.0,364.0,243.0,1443.471
1443481.0,229.0,274.0,361.0,243.0,1443.481
1443491.0,234.0,288.0,363.0,253.0,1443.491
1443501.0,236.0,276.0,388.0,252.0,1443.501
1443511.0,228.0,270.0,370.0,241.0,1443.511
1443521.0,230.0,271.0,401.0,247.0,1443.521
1443531.0,227.0,272.0,393.0,244.0,1443.531
1443542.0,234.0,279.0,391.0,246.0,1443.542
1443552.0,239.0,281.0,422.0,248.0,1443.552
1443562.0,233.0,279.0,399.0,239.0,1443.562
1443572.0,234.0,282.0,424.0,245.0,1443.572
1443582.0,238.0,292.0,434.0,258.0,1443.582
1443592.0,239.0,292.0,418.0,256.0,1443.592
1443602.0,240.0,290.0,450.0,255.0,1443.602
1443612.0,233.0,282.0,421.0,248.0,1443.612
1443622.0,235.0,293.0,442.0,253.0,1443.622
1443632.0,237.0,298.0,448.0,256.0,1443.632
1443642.0,238.0,296.0,436.0,255.0,1443.642
1443652.0,235.0,287.0,465.0,254.0,1443.652
1443662.0,224.0,276.0,439.0,245.0,1443.662
1443672.0,231.0,281.0,464.0,250.0,1443.672
1443682.0,232.0,287.0,459.0,253.0,1443.682
1443692.0,229.0,285.0,445.0,252.0,1443.692
1443702.0,227.0,279.0,472.0,252.0,1443.702
1443712.0,227.0,277.0,442.0,246.0,1443.712
1443722.0,227.0,283.0,469.0,252.0,1443.722
1443732.0,234.0,291.0,473.0,257.0,1443.732
1443742.0,233.0,284.0,456.0,253.0,1443.742
1443752.0,232.0,280.0,483.0,250.0,1443.752
1443762.0,226.0,279.0,448.0,247.0,1443.762
1443772.0,227.0,281.0,478.0,251.0,1443.772
1443782.0,230.0,279.0,476.0,253.0,1443.782
1443792.0,228.0,273.0,458.0,249.0,1443.792
1443802.0,232.0,272.0,489.0,246.0,1443.802
1443812.0,224.0,267.0,458.0,235.0,1443.812
1443822.0,227.0,277.0,478.0,239.0,1443.822
1443832.0,230.0,278.0,483.0,243.0,1443.832
1443842.0,234.0,286.0,460.0,243.0,1443.842
1443852.0,232.0,278.0,490.0,241.0,1443.852
1443862.0,224.0,269.0,464.0,233.0,1443.862
1443872.0,226.0,271.0,486.0,240.0,1443.872
1443883.0,234.0,281.0,489.0,250.0,1443.883
1443893.0,230.0,277.0,466.0,244.0,1443.893
1443903.0,230.0,274.0,496.0,246.0,1443.903
1443913.0,223.0,268.0,468.0,241.0,1443.913
1443923.0,229.0,277.0,476.0,253.0,1443.923
1443933.0,230.0,275.0,492.0,247.0,1443.933
1443943.0,224.0,268.0,469.0,243.0,1443.943
1443953.0,223.0,265.0,496.0,242.0,1443.953
1443963.0,212.0,256.0,476.0,234.0,1443.963
1443973.0,222.0,269.0,486.0,239.0,1443.973
1443983.0,229.0,273.0,502.0,244.0,1443.983
1443993.0,226.0,272.0,473.0,240.0,1443.993
1444003.0,232.0,273.0,492.0,241.0,1444.003
1444013.0,222.0,262.0,468.0,233.0,1444.013
1444023.0,226.0,267.0,480.0,237.0,1444.023
1444033.0,234.0,273.0,498.0,240.0,1444.033
1444043.0,228.0,269.0,469.0,235.0,1444.043
1444054.0,229.0,262.0,496.0,235.0,1444.054
1444064.0,230.0,271.0,475.0,238.0,1444.064
1444074.0,241.0,283.0,476.0,251.0,1444.074
1444084.0,243.0,280.0,500.0,251.0,1444.084
1444094.0,232.0,272.0,470.0,242.0,1444.094
1444104.0,234.0,274.0,496.0,247.0,1444.104
1444114.0,239.0,275.0,482.0,245.0,1444.114
1444124.0,236.0,275.0,473.0,248.0,1444.124
1444134.0,243.0,273.0,505.0,253.0,1444.134
1444144.0,234.0,271.0,470.0,249.0,1444.144
1444154.0,235.0,268.0,491.0,248.0,1444.154
1444164.0,227.0,264.0,485.0,246.0,1444.164
1444174.0,233.0,272.0,481.0,249.0,1444.174
1444184.0,235.0,270.0,511.0,250.0,1444.184
1444194.0,224.0,268.0,477.0,246.0,1444.194
1444204.0,238.0,277.0,499.0,253.0,1444.204
1444214.0,234.0,281.0,496.0,253.0,1444.214
1444224.0,237.0,283.0,492.0,254.0,1444.224
1444234.0,249.0,285.0,521.0,256.0,1444.234
1444244.0,239.0,280.0,491.0,249.0,1444.244
1444254.0,240.0,280.0,515.0,250.0,1444.254
1444264.0,239.0,279.0,503.0,255.0,1444.264
1444274.0,241.0,281.0,499.0,260.0,1444.274
1444284.0,244.0,277.0,530.0,262.0,1444.284
1444294.0,233.0,274.0,495.0,253.0,1444.294
1444304.0,237.0,278.0,523.0,256.0,1444.304
1444314.0,232.0,274.0,506.0,257.0,1444.314
1444324.0,237.0,284.0,506.0,267.0,1444.324
1444334.0,239.0,278.0,531.0,263.0,1444.334
1444344.0,230.0,272.0,497.0,254.0,1444.344
1444354.0,236.0,273.0,520.0,255.0,1444.354
1444364.0,234.0,273.0,513.0,251.0,1444.364
1444374.0,242.0,283.0,507.0,258.0,1444.374
1444384.0,246.0,286.0,537.0,267.0,1444.384
1444395.0,233.0,280.0,503.0,257.0,1444.395
1444405.0,232.0,282.0,529.0,254.0,1444.405
1444415.0,234.0,284.0,529.0,256.0,1444.415
1444425.0,229.0,283.0,507.0,253.0,1444.425
1444435.0,233.0,276.0,538.0,248.0,1444.435
1444445.0,225.0,272.0,510.0,241.0,1444.445
1444455.0,236.0,278.0,528.0,245.0,1444.455
1444465.0,236.0,281.0,535.0,250.0,1444.465
1444475.0,234.0,279.0,512.0,250.0,1444.475
1444485.0,238.0,276.0,544.0,251.0,1444.485
1444495.0,225.0,268.0,508.0,244.0,1444.495
1444505.0,229.0,273.0,530.0,251.0,1444.505
1444515.0,234.0,278.0,540.0,253.0,1444.515
1444525.0,234.0,278.0,514.0,252.0,1444.525
1444535.0,238.0,276.0,543.0,249.0,1444.535
1444545.0,229.0,270.0,514.0,241.0,1444.545
1444555.0,233.0,276.0,531.0,247.0,1444.555
1444566.0,239.0,282.0,543.0,254.0,1444.566
1444576.0,234.0,277.0,515.0,252.0,1444.576
1444586.0,236.0,274.0,545.0,250.0,1444.586
1444596.0,225.0,269.0,516.0,247.0,1444.596
1444606.0,232.0,279.0,523.0,256.0,1444.606
1444616.0,237.0,279.0,545.0,258.0,1444.616
1444626.0,231.0,275.0,518.0,253.0,1444.626
1444636.0,234.0,273.0,545.0,251.0,1444.636
1444646.0,224.0,267.0,524.0,245.0,1444.646
1444656.0,229.0,272.0,532.0,250.0,1444.656
1444666.0,236.0,275.0,546.0,252.0,1444.666
1444676.0,229.0,272.0,517.0,248.0,1444.676
1444686.0,231.0,269.0,544.0,247.0,1444.686
1444696.0,222.0,265.0,517.0,240.0,1444.696
1444706.0,227.0,273.0,531.0,247.0,1444.706
1444716.0,235.0,276.0,550.0,249.0,1444.716
1444726.0,226.0,274.0,518.0,248.0,1444.726
1444736.0,232.0,272.0,551.0,248.0,1444.736
1444746.0,221.0,264.0,526.0,244.0,1444.746
1444756.0,227.0,271.0,539.0,248.0,1444.756
1444766.0,233.0,271.0,561.0,252.0,1444.766
1444776.0,222.0,269.0,530.0,250.0,1444.776
1444786.0,226.0,268.0,561.0,252.0,1444.786
1444796.0,219.0,266.0,537.0,245.0,1444.796
1444806.0,226.0,274.0,547.0,254.0,1444.806
1444816.0,233.0,278.0,571.0,258.0,1444.816
1444826.0,225.0,275.0,542.0,253.0,1444.826
1444836.0,225.0,269.0,571.0,250.0,1444.836
1444846.0,217.0,262.0,549.0,246.0,1444.846
1444856.0,226.0,276.0,552.0,256.0,1444.856
1444866.0,233.0,275.0,575.0,258.0,1444.866
1444876.0,226.0,275.0,548.0,254.0,1444.876
1444886.0,226.0,268.0,576.0,250.0,1444.886
1444896.0,220.0,267.0,559.0,247.0,1444.896
1444907.0,228.0,280.0,562.0,255.0,1444.907
1444917.0,229.0,275.0,588.0,252.0,1444.917
1444927.0,219.0,274.0,557.0,247.0,1444.927
1444937.0,221.0,273.0,583.0,248.0,1444.937
1444947.0,221.0,274.0,578.0,250.0,1444.947
1444957.0,220.0,279.0,567.0,251.0,1444.957
1444967.0,224.0,271.0,593.0,250.0,1444.967
1444977.0,213.0,271.0,561.0,243.0,1444.977
1444987.0,216.0,272.0,586.0,244.0,1444.987
1444997.0,212.0,270.0,574.0,246.0,1444.997
1445007.0,218.0,280.0,568.0,254.0,1445.007
1445017.0,220.0,269.0,598.0,249.0,1445.017
1445027.0,209.0,270.0,564.0,246.0,1445.027
1445037.0,214.0,270.0,591.0,248.0,1445.037
1445047.0,211.0,270.0,578.0,252.0,1445.047
1445057.0,215.0,277.0,565.0,257.0,1445.057
1445067.0,216.0,267.0,592.0,250.0,1445.067
1445078.0,206.0,265.0,564.0,244.0,1445.078
1445088.0,209.0,264.0,584.0,243.0,1445.088
1445098.0,214.0,270.0,586.0,251.0,1445.098
1445108.0,212.0,273.0,560.0,253.0,1445.108
1445118.0,213.0,265.0,588.0,248.0,1445.118
1445128.0,207.0,264.0,558.0,247.0,1445.128
1445138.0,209.0,265.0,577.0,248.0,1445.138
1445148.0,217.0,271.0,582.0,254.0,1445.148
1445158.0,213.0,272.0,554.0,253.0,1445.158
1445168.0,215.0,265.0,580.0,247.0,1445.168
1445178.0,206.0,260.0,550.0,242.0,1445.178
1445188.0,209.0,262.0,568.0,246.0,1445.188
1445198.0,216.0,271.0,575.0,252.0,1445.198
1445208.0,215.0,269.0,548.0,253.0,1445.208
1445218.0,214.0,263.0,575.0,250.0,1445.218
1445228.0,206.0,256.0,542.0,247.0,1445.228
1445238.0,210.0,263.0,560.0,252.0,1445.238
1445248.0,213.0,264.0,563.0,256.0,1445.248
1445258.0,213.0,268.0,542.0,257.0,1445.258
1445268.0,214.0,262.0,570.0,252.0,1445.268
1445278.0,205.0,256.0,539.0,248.0,1445.278
1445288.0,210.0,261.0,552.0,252.0,1445.288
1445298.0,213.0,262.0,557.0,255.0,1445.298
1445308.0,212.0,263.0,533.0,253.0,1445.308
1445318.0,213.0,259.0,560.0,248.0,1445.318
1445328.0,204.0,255.0,532.0,244.0,1445.328
1445338.0,209.0,259.0,551.0,245.0,1445.338
1445348.0,217.0,266.0,553.0,252.0,1445.348
1445358.0,215.0,265.0,525.0,253.0,1445.358
1445368.0,217.0,262.0,553.0,249.0,1445.368
1445378.0,209.0,253.0,523.0,244.0,1445.378
1445388.0,212.0,256.0,538.0,245.0,1445.388
1445398.0,218.0,261.0,544.0,250.0,1445.398
1445408.0,213.0,259.0,512.0,248.0,1445.408
1445419.0,214.0,256.0,539.0,245.0,1445.419
1445429.0,206.0,250.0,509.0,241.0,1445.429
1445439.0,214.0,260.0,515.0,248.0,1445.439
1445449.0,218.0,261.0,533.0,250.0,1445.449
1445459.0,210.0,256.0,498.0,244.0,1445.459
1445469.0,213.0,256.0,523.0,244.0,1445.469
1445479.0,204.0,250.0,497.0,240.0,1445.479
1445489.0,213.0,260.0,496.0,250.0,1445.489
1445499.0,217.0,262.0,518.0,250.0,1445.499
1445509.0,211.0,258.0,485.0,247.0,1445.509
1445519.0,212.0,257.0,507.0,243.0,1445.519
1445529.0,209.0,252.0,483.0,242.0,1445.529
1445539.0,216.0,263.0,481.0,249.0,1445.539
1445549.0,219.0,262.0,498.0,252.0,1445.549
1445559.0,212.0,257.0,467.0,247.0,1445.559
1445569.0,213.0,256.0,487.0,244.0,1445.569
1445579.0,208.0,253.0,465.0,242.0,1445.579
1445590.0,215.0,264.0,460.0,251.0,1445.59
1445600.0,219.0,259.0,484.0,248.0,1445.6
1445610.0,209.0,254.0,448.0,242.0,1445.61
1445620.0,211.0,256.0,465.0,242.0,1445.62
1445630.0,214.0,258.0,460.0,246.0,1445.63
1445640.0,215.0,260.0,442.0,250.0,1445.64
1445650.0,217.0,258.0,466.0,247.0,1445.65
1445660.0,211.0,252.0,429.0,242.0,1445.66
1445670.0,214.0,254.0,446.0,244.0,1445.67
1445680.0,212.0,253.0,435.0,245.0,1445.68
1445690.0,217.0,262.0,419.0,251.0,1445.69
1445700.0,218.0,256.0,445.0,248.0,1445.7
1445710.0,208.0,251.0,412.0,242.0,1445.71
1445720.0,213.0,255.0,431.0,243.0,1445.72
1445730.0,211.0,254.0,418.0,244.0,1445.73
1445740.0,214.0,257.0,405.0,245.0,1445.74
1445750.0,215.0,257.0,427.0,243.0,1445.75
1445760.0,208.0,251.0,395.0,240.0,1445.76
1445770.0,210.0,253.0,412.0,239.0,1445.77
1445780.0,210.0,255.0,404.0,243.0,1445.78
1445790.0,213.0,258.0,388.0,249.0,1445.79
1445800.0,213.0,255.0,405.0,243.0,1445.8
1445810.0,206.0,249.0,375.0,241.0,1445.81
1445820.0,209.0,253.0,391.0,240.0,1445.82
1445830.0,210.0,256.0,384.0,245.0,1445.83
1445840.0,213.0,258.0,367.0,247.0,1445.84
1445850.0,217.0,258.0,389.0,246.0,1445.85
1445860.0,206.0,250.0,356.0,243.0,1445.86
1445870.0,210.0,251.0,371.0,243.0,1445.87
1445880.0,211.0,260.0,367.0,248.0,1445.88
1445890.0,213.0,254.0,350.0,248.0,1445.89
1445900.0,215.0,266.0,365.0,245.0,1445.9
1445910.0,206.0,255.0,333.0,240.0,1445.91
1445920.0,208.0,258.0,343.0,242.0,1445.92
1445931.0,212.0,262.0,346.0,247.0,1445.931
1445941.0,212.0,262.0,324.0,248.0,1445.941
1445951.0,212.0,258.0,339.0,246.0,1445.951
1445961.0,204.0,252.0,310.0,238.0,1445.961
1445971.0,209.0,259.0,315.0,244.0,1445.971
1445981.0,215.0,263.0,318.0,248.0,1445.981
1445991.0,212.0,259.0,295.0,246.0,1445.991
1446001.0,212.0,258.0,307.0,244.0,1446.001
1446011.0,206.0,250.0,279.0,238.0,1446.011
1446021.0,210.0,255.0,285.0,242.0,1446.021
1446031.0,214.0,262.0,291.0,248.0,1446.031
1446041.0,211.0,255.0,268.0,245.0,1446.041
1446051.0,212.0,255.0,281.0,243.0,1446.051
1446061.0,204.0,248.0,256.0,237.0,1446.061
1446071.0,208.0,254.0,261.0,241.0,1446.071
1446081.0,215.0,260.0,268.0,246.0,1446.081
1446091.0,210.0,256.0,247.0,242.0,1446.091
1446102.0,211.0,255.0,255.0,240.0,1446.102
1446112.0,204.0,248.0,237.0,235.0,1446.112
1446122.0,212.0,260.0,245.0,246.0,1446.122
1446132.0,217.0,260.0,255.0,247.0,1446.132
1446142.0,209.0,254.0,230.0,241.0,1446.142
1446152.0,212.0,253.0,239.0,239.0,1446.152
1446162.0,205.0,249.0,222.0,236.0,1446.162
1446172.0,214.0,260.0,230.0,245.0,1446.172
1446182.0,217.0,259.0,239.0,245.0,1446.182
1446192.0,211.0,254.0,219.0,239.0,1446.192
1446202.0,211.0,255.0,224.0,240.0,1446.202
1446212.0,207.0,250.0,212.0,238.0,1446.212
1446222.0,214.0,260.0,218.0,247.0,1446.222
1446232.0,217.0,261.0,225.0,247.0,1446.232
1446242.0,210.0,255.0,206.0,241.0,1446.242
1446252.0,212.0,254.0,210.0,238.0,1446.252
1446262.0,208.0,251.0,201.0,237.0,1446.262
1446272.0,212.0,255.0,206.0,243.0,1446.272
1446282.0,218.0,260.0,215.0,245.0,1446.282
1446292.0,213.0,253.0,198.0,239.0,1446.292
1446302.0,216.0,255.0,206.0,240.0,1446.302
1446312.0,213.0,254.0,200.0,239.0,1446.312
1446322.0,216.0,257.0,203.0,243.0,1446.322
1446332.0,220.0,263.0,210.0,245.0,1446.332
1446342.0,212.0,254.0,196.0,238.0,1446.342
1446352.0,213.0,255.0,198.0,237.0,1446.352
1446362.0,207.0,247.0,192.0,234.0,1446.362
1446372.0,215.0,260.0,202.0,244.0,1446.372
1446382.0,220.0,261.0,210.0,245.0,1446.382
1446392.0,210.0,254.0,195.0,238.0,1446.392
1446402.0,212.0,255.0,198.0,237.0,1446.402
1446412.0,206.0,250.0,189.0,232.0,1446.412
1446422.0,215.0,261.0,198.0,241.0,1446.422
1446432.0,216.0,259.0,198.0,241.0,1446.432
1446443.0,204.0,252.0,186.0,233.0,1446.443
1446453.0,207.0,255.0,190.0,235.0,1446.453
1446463.0,209.0,258.0,195.0,238.0,1446.463
1446473.0,212.0,261.0,195.0,240.0,1446.473
1446483.0,212.0,255.0,195.0,237.0,1446.483
1446493.0,207.0,252.0,190.0,233.0,1446.493
1446503.0,208.0,254.0,193.0,236.0,1446.503
1446513.0,212.0,257.0,198.0,241.0,1446.513
1446523.0,213.0,262.0,201.0,242.0,1446.523
1446533.0,217.0,260.0,204.0,242.0,1446.533
1446543.0,207.0,252.0,194.0,235.0,1446.543
1446553.0,209.0,255.0,195.0,237.0,1446.553
1446563.0,214.0,259.0,202.0,242.0,1446.563
1446573.0,215.0,260.0,204.0,243.0,1446.573
1446583.0,217.0,261.0,205.0,244.0,1446.583
1446593.0,209.0,253.0,199.0,238.0,1446.593
1446603.0,212.0,256.0,201.0,241.0,1446.603
1446614.0,215.0,261.0,207.0,246.0,1446.614
1446624.0,212.0,258.0,204.0,243.0,1446.624
1446634.0,212.0,255.0,201.0,241.0,1446.634
1446644.0,205.0,248.0,196.0,236.0,1446.644
1446654.0,211.0,260.0,206.0,244.0,1446.654
1446664.0,216.0,260.0,210.0,247.0,1446.664
1446674.0,213.0,259.0,211.0,244.0,1446.674
1446684.0,214.0,255.0,207.0,242.0,1446.684
1446694.0,204.0,248.0,202.0,235.0,1446.694
1446704.0,209.0,253.0,206.0,240.0,1446.704
1446714.0,217.0,260.0,215.0,247.0,1446.714
1446724.0,214.0,256.0,214.0,242.0,1446.724
1446734.0,213.0,255.0,207.0,240.0,1446.734
1446744.0,209.0,248.0,209.0,233.0,1446.744
1446754.0,213.0,256.0,212.0,241.0,1446.754
1446764.0,218.0,261.0,219.0,248.0,1446.764
1446774.0,214.0,255.0,218.0,242.0,1446.774
1446784.0,215.0,256.0,214.0,241.0,1446.784
1446794.0,208.0,250.0,212.0,233.0,1446.794
1446804.0,212.0,258.0,214.0,239.0,1446.804
1446814.0,219.0,262.0,219.0,243.0,1446.814
1446824.0,214.0,256.0,219.0,239.0,1446.824
1446834.0,214.0,257.0,214.0,239.0,1446.834
1446844.0,208.0,252.0,216.0,234.0,1446.844
1446854.0,213.0,260.0,223.0,243.0,1446.854
1446864.0,219.0,264.0,226.0,246.0,1446.864
1446874.0,217.0,262.0,229.0,243.0,1446.874
1446884.0,215.0,258.0,220.0,242.0,1446.884
1446894.0,208.0,249.0,220.0,233.0,1446.894
1446904.0,215.0,260.0,227.0,243.0,1446.904
1446914.0,222.0,263.0,230.0,246.0,1446.914
1446924.0,219.0,259.0,231.0,242.0,1446.924
1446934.0,218.0,257.0,222.0,240.0,1446.934
1446944.0,210.0,251.0,224.0,235.0,1446.944
1446955.0,219.0,264.0,235.0,246.0,1446.955
1446965.0,222.0,265.0,230.0,247.0,1446.965
1446975.0,215.0,257.0,233.0,238.0,1446.975
1446985.0,216.0,260.0,226.0,239.0,1446.985
1446995.0,214.0,257.0,232.0,240.0,1446.995
1447005.0,217.0,261.0,234.0,242.0,1447.005
1447015.0,220.0,262.0,231.0,244.0,1447.015
1447025.0,214.0,255.0,237.0,237.0,1447.025
1447035.0,214.0,257.0,232.0,237.0,1447.035
1447045.0,209.0,251.0,233.0,232.0,1447.045
1447055.0,217.0,260.0,241.0,240.0,1447.055
1447065.0,225.0,262.0,239.0,243.0,1447.065
1447075.0,215.0,252.0,242.0,235.0,1447.075
1447085.0,217.0,256.0,237.0,237.0,1447.085
1447095.0,211.0,252.0,241.0,235.0,1447.095
1447105.0,218.0,259.0,248.0,242.0,1447.105
1447115.0,220.0,258.0,239.0,241.0,1447.115
1447126.0,211.0,249.0,242.0,233.0,1447.126
1447136.0,213.0,251.0,236.0,235.0,1447.136
1447146.0,216.0,255.0,247.0,240.0,1447.146
1447156.0,216.0,257.0,252.0,240.0,1447.156
1447166.0,215.0,254.0,241.0,237.0,1447.166
1447176.0,210.0,249.0,249.0,233.0,1447.176
1447186.0,212.0,253.0,244.0,236.0,1447.186
1447196.0,215.0,259.0,252.0,241.0,1447.196
1447206.0,216.0,258.0,254.0,239.0,1447.206
1447216.0,217.0,256.0,243.0,238.0,1447.216
1447226.0,210.0,250.0,250.0,232.0,1447.226
1447236.0,211.0,253.0,245.0,235.0,1447.236
1447246.0,216.0,258.0,252.0,241.0,1447.246
1447256.0,218.0,260.0,258.0,241.0,1447.256
1447266.0,217.0,255.0,249.0,241.0,1447.266
1447276.0,209.0,250.0,258.0,232.0,1447.276
1447286.0,212.0,255.0,254.0,238.0,1447.286
1447296.0,214.0,259.0,261.0,240.0,1447.296
1447306.0,217.0,262.0,265.0,242.0,1447.306
1447316.0,216.0,259.0,253.0,240.0,1447.316
1447326.0,210.0,252.0,259.0,233.0,1447.326
1447336.0,212.0,256.0,254.0,238.0,1447.336
1447346.0,214.0,257.0,263.0,242.0,1447.346
1447356.0,217.0,261.0,268.0,244.0,1447.356
1447366.0,217.0,260.0,256.0,242.0,1447.366
1447376.0,209.0,250.0,261.0,235.0,1447.376
1447386.0,212.0,255.0,255.0,239.0,1447.386
1447396.0,215.0,258.0,261.0,243.0,1447.396
1447406.0,217.0,261.0,266.0,242.0,1447.406
1447416.0,216.0,255.0,254.0,241.0,1447.416
1447426.0,210.0,255.0,263.0,234.0,1447.426
1447436.0,213.0,257.0,254.0,238.0,1447.436
1447446.0,216.0,261.0,263.0,242.0,1447.446
1447456.0,216.0,262.0,265.0,241.0,1447.456
1447467.0,216.0,256.0,252.0,238.0,1447.467
1447477.0,208.0,248.0,256.0,230.0,1447.477
1447487.0,213.0,256.0,256.0,236.0,1447.487
1447497.0,219.0,258.0,255.0,240.0,1447.497
1447507.0,213.0,255.0,259.0,235.0,1447.507
1447517.0,215.0,253.0,249.0,236.0,1447.517
1447527.0,207.0,248.0,253.0,230.0,1447.527
1447537.0,213.0,257.0,259.0,239.0,1447.537
1447547.0,218.0,261.0,256.0,242.0,1447.547
1447557.0,214.0,257.0,262.0,237.0,1447.557
1447567.0,213.0,256.0,250.0,234.0,1447.567
1447577.0,207.0,248.0,258.0,230.0,1447.577
1447587.0,214.0,259.0,260.0,238.0,1447.587
1447597.0,217.0,260.0,260.0,239.0,1447.597
1447607.0,214.0,258.0,262.0,234.0,1447.607
1447617.0,214.0,256.0,252.0,234.0,1447.617
1447627.0,208.0,251.0,257.0,230.0,1447.627
1447638.0,215.0,260.0,263.0,239.0,1447.638
1447648.0,218.0,259.0,257.0,241.0,1447.648
1447658.0,211.0,255.0,265.0,234.0,1447.658
1447668.0,212.0,257.0,254.0,235.0,1447.668
1447678.0,211.0,258.0,263.0,238.0,1447.678
1447688.0,215.0,262.0,267.0,240.0,1447.688
1447698.0,217.0,260.0,259.0,240.0,1447.698
1447708.0,211.0,254.0,268.0,231.0,1447.708
1447718.0,212.0,256.0,260.0,233.0,1447.718
1447728.0,208.0,254.0,264.0,232.0,1447.728
1447738.0,216.0,265.0,271.0,240.0,1447.738
1447748.0,219.0,263.0,263.0,240.0,1447.748
1447758.0,212.0,256.0,270.0,232.0,1447.758
1447768.0,213.0,257.0,262.0,233.0,1447.768
1447778.0,211.0,255.0,268.0,235.0,1447.778
1447788.0,217.0,264.0,274.0,241.0,1447.788
1447798.0,217.0,261.0,263.0,243.0,1447.798
1447808.0,212.0,259.0,272.0,236.0,1447.808
1447818.0,212.0,257.0,259.0,236.0,1447.818
1447828.0,209.0,256.0,264.0,235.0,1447.828
1447838.0,216.0,264.0,268.0,239.0,1447.838
1447848.0,216.0,260.0,256.0,239.0,1447.848
1447858.0,212.0,255.0,265.0,233.0,1447.858
1447868.0,211.0,256.0,256.0,235.0,1447.868
1447878.0,211.0,254.0,261.0,234.0,1447.878
1447888.0,215.0,261.0,266.0,240.0,1447.888
1447898.0,217.0,260.0,256.0,240.0,1447.898
1447908.0,210.0,252.0,265.0,233.0,1447.908
1447918.0,212.0,253.0,255.0,235.0,1447.918
1447928.0,211.0,255.0,262.0,238.0,1447.928
1447938.0,215.0,260.0,267.0,240.0,1447.938
1447948.0,218.0,259.0,262.0,242.0,1447.948
1447958.0,211.0,252.0,268.0,233.0,1447.958
1447968.0,212.0,254.0,259.0,234.0,1447.968
1447979.0,213.0,257.0,267.0,240.0,1447.979
1447989.0,216.0,260.0,272.0,240.0,1447.989
1447999.0,215.0,256.0,260.0,238.0,1447.999
1448009.0,208.0,250.0,270.0,231.0,1448.009
1448019.0,212.0,256.0,268.0,237.0,1448.019
1448029.0,215.0,258.0,271.0,239.0,1448.029
1448039.0,214.0,259.0,274.0,238.0,1448.039
1448049.0,214.0,253.0,260.0,235.0,1448.049
1448059.0,207.0,249.0,267.0,228.0,1448.059
1448069.0,211.0,253.0,262.0,232.0,1448.069
1448079.0,215.0,257.0,268.0,238.0,1448.079
1448089.0,216.0,258.0,272.0,237.0,1448.089
1448099.0,214.0,255.0,259.0,236.0,1448.099
1448109.0,208.0,250.0,266.0,229.0,1448.109
1448119.0,211.0,254.0,257.0,233.0,1448.119
1448129.0,215.0,259.0,265.0,239.0,1448.129
1448139.0,214.0,257.0,269.0,236.0,1448.139
1448150.0,212.0,254.0,255.0,234.0,1448.15
1448160.0,206.0,246.0,262.0,227.0,1448.16
1448170.0,212.0,256.0,264.0,237.0,1448.17
1448180.0,216.0,259.0,261.0,241.0,1448.18
1448190.0,210.0,252.0,265.0,234.0,1448.19
1448200.0,212.0,252.0,255.0,235.0,1448.2
1448210.0,205.0,244.0,256.0,226.0,1448.21
1448220.0,213.0,255.0,262.0,237.0,1448.22
1448230.0,217.0,258.0,257.0,240.0,1448.23
1448240.0,214.0,253.0,264.0,235.0,1448.24
1448250.0,213.0,255.0,251.0,235.0,1448.25
1448260.0,207.0,247.0,255.0,229.0,1448.26
1448270.0,214.0,257.0,261.0,239.0,1448.27
1448280.0,218.0,259.0,259.0,239.0,1448.28
1448290.0,213.0,253.0,258.0,234.0,1448.29
1448300.0,212.0,253.0,249.0,233.0,1448.3
1448310.0,207.0,247.0,254.0,229.0,1448.31
1448320.0,210.0,254.0,254.0,233.0,1448.32
1448330.0,216.0,257.0,257.0,240.0,1448.33
1448340.0,212.0,255.0,261.0,234.0,1448.34
1448350.0,213.0,253.0,251.0,235.0,1448.35
1448360.0,207.0,250.0,257.0,231.0,1448.36
1448370.0,212.0,257.0,259.0,237.0,1448.37
1448380.0,217.0,260.0,259.0,243.0,1448.38
1448390.0,212.0,256.0,263.0,234.0,1448.39
1448400.0,212.0,256.0,255.0,237.0,1448.4
1448410.0,205.0,248.0,256.0,228.0,1448.41
1448420.0,212.0,258.0,258.0,237.0,1448.42
1448430.0,217.0,261.0,257.0,241.0,1448.43
1448440.0,210.0,255.0,259.0,234.0,1448.44
1448450.0,213.0,256.0,250.0,234.0,1448.45
1448460.0,206.0,248.0,253.0,228.0,1448.46
1448470.0,213.0,259.0,258.0,236.0,1448.47
1448480.0,217.0,260.0,253.0,240.0,1448.48
1448491.0,210.0,254.0,258.0,230.0,1448.491
1448501.0,211.0,255.0,250.0,233.0,1448.501
1448511.0,210.0,255.0,255.0,232.0,1448.511
1448521.0,215.0,261.0,264.0,236.0,1448.521
1448531.0,215.0,257.0,251.0,234.0,1448.531
1448541.0,211.0,252.0,261.0,230.0,1448.541
1448551.0,211.0,255.0,250.0,232.0,1448.551
1448561.0,213.0,256.0,257.0,234.0,1448.561
1448571.0,215.0,259.0,261.0,237.0,1448.571
1448581.0,218.0,256.0,253.0,238.0,1448.581
1448591.0,210.0,250.0,258.0,231.0,1448.591
1448601.0,210.0,253.0,249.0,233.0,1448.601
1448611.0,212.0,256.0,257.0,237.0,1448.611
1448621.0,215.0,259.0,262.0,239.0,1448.621
1448631.0,217.0,256.0,250.0,241.0,1448.631
1448641.0,208.0,250.0,256.0,231.0,1448.641
1448651.0,211.0,253.0,249.0,234.0,1448.651
1448662.0,213.0,256.0,255.0,239.0,1448.662
1448672.0,214.0,258.0,258.0,238.0,1448.672
1448682.0,213.0,255.0,244.0,237.0,1448.682
1448692.0,206.0,247.0,246.0,228.0,1448.692
1448702.0,210.0,253.0,242.0,233.0,1448.702
1448712.0,212.0,256.0,247.0,238.0,1448.712
1448722.0,213.0,258.0,251.0,235.0,1448.722
1448732.0,214.0,254.0,242.0,234.0,1448.732
1448742.0,205.0,249.0,246.0,226.0,1448.742
1448752.0,211.0,256.0,244.0,232.0,1448.752
1448762.0,215.0,263.0,249.0,239.0,1448.762
1448772.0,213.0,260.0,253.0,236.0,1448.772
1448782.0,213.0,258.0,243.0,236.0,1448.782
1448792.0,208.0,252.0,249.0,229.0,1448.792
1448802.0,210.0,254.0,243.0,232.0,1448.802
1448812.0,214.0,260.0,249.0,239.0,1448.812
1448822.0,212.0,258.0,251.0,237.0,1448.822
1448832.0,213.0,252.0,239.0,234.0,1448.832
1448842.0,205.0,248.0,240.0,226.0,1448.842
1448852.0,209.0,254.0,239.0,231.0,1448.852
1448862.0,214.0,260.0,247.0,239.0,1448.862
1448872.0,211.0,256.0,251.0,235.0,1448.872
1448882.0,213.0,256.0,240.0,236.0,1448.882
1448892.0,206.0,250.0,245.0,228.0,1448.892
1448902.0,210.0,254.0,244.0,235.0,1448.902
1448912.0,216.0,261.0,248.0,241.0,1448.912
1448922.0,214.0,260.0,253.0,238.0,1448.922
1448932.0,213.0,255.0,238.0,237.0,1448.932
1448942.0,207.0,250.0,241.0,229.0,1448.942
1448952.0,210.0,257.0,239.0,234.0,1448.952
1448962.0,214.0,260.0,243.0,238.0,1448.962
1448972.0,214.0,260.0,247.0,238.0,1448.972
1448982.0,213.0,256.0,237.0,237.0,1448.982
1448992.0,206.0,250.0,241.0,228.0,1448.992
1449003.0,211.0,258.0,244.0,238.0,1449.003
1449013.0,218.0,263.0,246.0,244.0,1449.013
1449023.0,211.0,254.0,247.0,236.0,1449.023
1449033.0,212.0,256.0,239.0,237.0,1449.033
1449043.0,208.0,250.0,244.0,237.0,1449.043
1449053.0,213.0,259.0,248.0,240.0,1449.053
1449063.0,218.0,261.0,246.0,243.0,1449.063
1449073.0,211.0,259.0,248.0,236.0,1449.073
1449083.0,212.0,258.0,240.0,237.0,1449.083
1449093.0,205.0,252.0,243.0,230.0,1449.093
1449103.0,213.0,263.0,249.0,240.0,1449.103
1449113.0,217.0,262.0,246.0,244.0,1449.113
1449123.0,209.0,262.0,248.0,237.0,1449.123
1449133.0,212.0,260.0,242.0,240.0,1449.133
1449143.0,205.0,256.0,242.0,234.0,1449.143
1449153.0,212.0,266.0,243.0,240.0,1449.153
1449163.0,216.0,263.0,240.0,243.0,1449.163
1449174.0,208.0,262.0,243.0,236.0,1449.174
1449184.0,211.0,261.0,235.0,235.0,1449.184
1449194.0,211.0,263.0,239.0,237.0,1449.194
1449204.0,214.0,269.0,241.0,239.0,1449.204
1449214.0,214.0,263.0,230.0,236.0,1449.214
1449224.0,209.0,262.0,237.0,231.0,1449.224
1449234.0,211.0,263.0,232.0,235.0,1449.234
1449244.0,213.0,264.0,239.0,238.0,1449.244
1449254.0,215.0,269.0,242.0,238.0,1449.254
1449264.0,218.0,265.0,236.0,240.0,1449.264
1449274.0,209.0,259.0,239.0,233.0,1449.274
1449284.0,211.0,258.0,233.0,234.0,1449.284
1449294.0,213.0,262.0,240.0,241.0,1449.294
1449304.0,216.0,267.0,244.0,242.0,1449.304
1449314.0,217.0,261.0,234.0,240.0,1449.314
1449324.0,208.0,256.0,237.0,232.0,1449.324
1449334.0,211.0,258.0,232.0,235.0,1449.334
1449344.0,209.0,258.0,236.0,235.0,1449.344
1449354.0,215.0,265.0,243.0,241.0,1449.354
1449364.0,216.0,260.0,234.0,238.0,1449.364
1449374.0,209.0,256.0,237.0,231.0,1449.374
1449384.0,211.0,259.0,234.0,234.0,1449.384
1449394.0,211.0,261.0,241.0,239.0,1449.394
1449404.0,215.0,268.0,246.0,243.0,1449.404
1449414.0,216.0,260.0,236.0,240.0,1449.414
1449424.0,208.0,257.0,239.0,233.0,1449.424
1449434.0,212.0,260.0,236.0,237.0,1449.434
1449444.0,211.0,261.0,240.0,238.0,1449.444
1449454.0,214.0,267.0,246.0,241.0,1449.454
1449464.0,214.0,261.0,235.0,238.0,1449.464
1449474.0,209.0,260.0,240.0,233.0,1449.474
1449484.0,211.0,261.0,234.0,235.0,1449.484
1449494.0,212.0,264.0,240.0,240.0,1449.494
1449504.0,215.0,270.0,243.0,240.0,1449.504
1449515.0,215.0,261.0,233.0,237.0,1449.515
1449525.0,206.0,259.0,235.0,230.0,1449.525
1449535.0,210.0,264.0,236.0,238.0,1449.535
1449545.0,217.0,269.0,240.0,244.0,1449.545
1449555.0,212.0,268.0,242.0,238.0,1449.555
1449565.0,214.0,263.0,233.0,238.0,1449.565
1449575.0,205.0,258.0,235.0,231.0,1449.575
1449585.0,211.0,263.0,235.0,238.0,1449.585
1449595.0,216.0,266.0,238.0,242.0,1449.595
1449605.0,214.0,264.0,241.0,240.0,1449.605
1449615.0,213.0,259.0,229.0,238.0,1449.615
1449625.0,206.0,252.0,226.0,230.0,1449.625
1449635.0,212.0,259.0,230.0,239.0,1449.635
1449645.0,215.0,262.0,236.0,243.0,1449.645
1449655.0,214.0,264.0,239.0,242.0,1449.655
1449665.0,214.0,259.0,230.0,237.0,1449.665
1449675.0,205.0,250.0,229.0,230.0,1449.675
1449686.0,212.0,260.0,235.0,240.0,1449.686
1449696.0,218.0,262.0,236.0,243.0,1449.696
1449706.0,212.0,257.0,239.0,236.0,1449.706
1449716.0,212.0,257.0,231.0,238.0,1449.716
1449726.0,210.0,254.0,234.0,237.0,1449.726
1449736.0,213.0,261.0,237.0,241.0,1449.736
1449746.0,218.0,260.0,237.0,244.0,1449.746
1449756.0,212.0,257.0,238.0,238.0,1449.756
1449766.0,212.0,258.0,230.0,238.0,1449.766
1449776.0,207.0,252.0,230.0,233.0,1449.776
1449786.0,216.0,267.0,242.0,244.0,1449.786
1449796.0,219.0,264.0,236.0,242.0,1449.796
1449806.0,210.0,256.0,233.0,233.0,1449.806
1449816.0,214.0,258.0,229.0,235.0,1449.816
1449826.0,207.0,252.0,229.0,230.0,1449.826
1449836.0,214.0,262.0,236.0,239.0,1449.836
1449846.0,218.0,261.0,231.0,239.0,1449.846
1449856.0,213.0,258.0,236.0,235.0,1449.856
1449866.0,213.0,258.0,227.0,236.0,1449.866
1449876.0,207.0,254.0,228.0,234.0,1449.876
1449886.0,216.0,264.0,235.0,242.0,1449.886
1449896.0,218.0,259.0,230.0,242.0,1449.896
1449906.0,212.0,258.0,234.0,238.0,1449.906
1449916.0,212.0,256.0,226.0,238.0,1449.916
1449926.0,209.0,254.0,229.0,237.0,1449.926
1449936.0,216.0,264.0,237.0,244.0,1449.936
1449946.0,219.0,263.0,238.0,244.0,1449.946
1449956.0,212.0,259.0,235.0,238.0,1449.956
1449966.0,212.0,257.0,229.0,237.0,1449.966
1449976.0,209.0,257.0,230.0,238.0,1449.976
1449986.0,213.0,262.0,233.0,242.0,1449.986
1449996.0,216.0,263.0,232.0,243.0,1449.996
1450006.0,210.0,256.0,233.0,238.0,1450.006
1450016.0,212.0,256.0,228.0,238.0,1450.016
1450027.0,211.0,257.0,231.0,240.0,1450.027
1450037.0,216.0,265.0,237.0,243.0,1450.037
1450047.0,216.0,260.0,230.0,242.0,1450.047
1450057.0,209.0,254.0,231.0,235.0,1450.057
1450067.0,211.0,257.0,227.0,236.0,1450.067
1450077.0,214.0,259.0,233.0,241.0,1450.077
1450087.0,216.0,263.0,237.0,243.0,1450.087
1450097.0,216.0,257.0,228.0,239.0,1450.097
1450107.0,208.0,253.0,228.0,232.0,1450.107
1450117.0,211.0,255.0,225.0,236.0,1450.117
1450127.0,213.0,258.0,229.0,240.0,1450.127
1450137.0,217.0,261.0,237.0,242.0,1450.137
1450147.0,215.0,256.0,226.0,240.0,1450.147
1450157.0,211.0,250.0,230.0,235.0,1450.157
1450167.0,211.0,254.0,227.0,239.0,1450.167
1450177.0,215.0,258.0,232.0,242.0,1450.177
1450187.0,216.0,261.0,236.0,243.0,1450.187
1450198.0,216.0,256.0,227.0,238.0,1450.198
1450208.0,208.0,250.0,226.0,230.0,1450.208
1450218.0,210.0,256.0,225.0,236.0,1450.218
1450228.0,217.0,259.0,228.0,241.0,1450.228
1450238.0,212.0,257.0,227.0,236.0,1450.238
1450248.0,214.0,255.0,222.0,236.0,1450.248
1450258.0,206.0,250.0,221.0,229.0,1450.258
1450268.0,214.0,257.0,225.0,236.0,1450.268
1450278.0,217.0,260.0,227.0,242.0,1450.278
1450288.0,215.0,262.0,232.0,240.0,1450.288
1450298.0,215.0,257.0,223.0,239.0,1450.298
1450308.0,207.0,253.0,223.0,230.0,1450.308
1450318.0,214.0,263.0,227.0,239.0,1450.318
1450328.0,219.0,267.0,240.0,246.0,1450.328
1450338.0,216.0,266.0,239.0,242.0,1450.338
1450348.0,215.0,260.0,230.0,240.0,1450.348
1450358.0,208.0,256.0,229.0,233.0,1450.358
1450368.0,212.0,262.0,230.0,239.0,1450.368
1450378.0,218.0,267.0,236.0,245.0,1450.378
1450388.0,216.0,269.0,238.0,240.0,1450.388
1450398.0,216.0,263.0,229.0,239.0,1450.398
1450408.0,207.0,257.0,229.0,233.0,1450.408
1450418.0,213.0,264.0,229.0,238.0,1450.418
1450428.0,218.0,268.0,234.0,244.0,1450.428
1450438.0,214.0,266.0,236.0,239.0,1450.438
1450448.0,214.0,264.0,232.0,238.0,1450.448
1450458.0,208.0,258.0,231.0,231.0,1450.458
1450468.0,214.0,265.0,234.0,239.0,1450.468
1450478.0,220.0,268.0,238.0,243.0,1450.478
1450488.0,214.0,263.0,236.0,238.0,1450.488
1450498.0,215.0,262.0,228.0,238.0,1450.498
1450508.0,208.0,256.0,227.0,230.0,1450.508
1450518.0,213.0,264.0,232.0,239.0,1450.518
1450528.0,219.0,265.0,233.0,244.0,1450.528
1450539.0,212.0,261.0,237.0,237.0,1450.539
1450549.0,213.0,259.0,229.0,237.0,1450.549
1450559.0,209.0,257.0,232.0,235.0,1450.559
1450569.0,217.0,265.0,240.0,243.0,1450.569
1450579.0,219.0,260.0,234.0,240.0,1450.579
1450589.0,215.0,261.0,240.0,238.0,1450.589
1450599.0,214.0,260.0,233.0,238.0,1450.599
1450609.0,213.0,259.0,237.0,239.0,1450.609
1450619.0,217.0,269.0,241.0,245.0,1450.619
1450629.0,219.0,263.0,235.0,244.0,1450.629
1450639.0,212.0,265.0,235.0,237.0,1450.639
1450649.0,214.0,262.0,231.0,238.0,1450.649
1450659.0,212.0,262.0,231.0,238.0,1450.659
1450669.0,215.0,267.0,234.0,241.0,1450.669
1450679.0,219.0,265.0,231.0,244.0,1450.679
1450689.0,212.0,261.0,233.0,236.0,1450.689
1450699.0,212.0,260.0,227.0,237.0,1450.699
1450710.0,213.0,261.0,232.0,238.0,1450.71
1450720.0,217.0,267.0,238.0,242.0,1450.72
1450730.0,218.0,262.0,231.0,239.0,1450.73
1450740.0,208.0,257.0,233.0,234.0,1450.74
1450750.0,212.0,260.0,232.0,239.0,1450.75
1450760.0,214.0,262.0,236.0,242.0,1450.76
1450770.0,217.0,267.0,239.0,243.0,1450.77
1450780.0,218.0,262.0,231.0,240.0,1450.78
1450790.0,209.0,256.0,231.0,233.0,1450.79
1450800.0,213.0,259.0,230.0,236.0,1450.8
1450810.0,215.0,263.0,234.0,241.0,1450.81
1450820.0,217.0,264.0,239.0,241.0,1450.82
1450830.0,216.0,260.0,232.0,240.0,1450.83
1450840.0,212.0,255.0,233.0,236.0,1450.84
1450850.0,213.0,257.0,229.0,237.0,1450.85
1450860.0,216.0,261.0,235.0,243.0,1450.86
1450870.0,216.0,263.0,236.0,242.0,1450.87
1450880.0,218.0,259.0,228.0,241.0,1450.88
1450890.0,210.0,254.0,228.0,233.0,1450.89
1450900.0,212.0,258.0,225.0,236.0,1450.9
1450910.0,218.0,264.0,231.0,243.0,1450.91
1450920.0,216.0,264.0,232.0,240.0,1450.92
1450930.0,218.0,260.0,225.0,239.0,1450.93
1450940.0,210.0,257.0,227.0,234.0,1450.94
1450950.0,212.0,258.0,224.0,237.0,1450.95
1450960.0,217.0,265.0,230.0,244.0,1450.96
1450970.0,217.0,266.0,233.0,242.0,1450.97
1450980.0,216.0,260.0,224.0,239.0,1450.98
1450990.0,211.0,254.0,227.0,233.0,1450.99
1451000.0,213.0,259.0,225.0,239.0,1451.0
1451010.0,214.0,260.0,229.0,242.0,1451.01
1451020.0,217.0,263.0,232.0,244.0,1451.02
1451030.0,217.0,260.0,224.0,241.0,1451.03
1451040.0,208.0,253.0,222.0,233.0,1451.04
1451051.0,212.0,259.0,223.0,238.0,1451.051
1451061.0,218.0,263.0,228.0,244.0,1451.061
1451071.0,214.0,260.0,227.0,239.0,1451.071
1451081.0,214.0,258.0,221.0,239.0,1451.081
1451091.0,207.0,253.0,220.0,234.0,1451.091
1451101.0,214.0,259.0,221.0,239.0,1451.101
1451111.0,218.0,263.0,224.0,243.0,1451.111
1451121.0,213.0,257.0,223.0,237.0,1451.121
1451131.0,213.0,258.0,216.0,237.0,1451.131
1451141.0,206.0,252.0,215.0,229.0,1451.141
1451151.0,212.0,260.0,219.0,238.0,1451.151
1451161.0,218.0,263.0,224.0,242.0,1451.161
1451171.0,212.0,257.0,226.0,239.0,1451.171
1451181.0,213.0,258.0,222.0,240.0,1451.181
1451191.0,206.0,251.0,220.0,232.0,1451.191
1451201.0,214.0,257.0,225.0,239.0,1451.201
1451211.0,218.0,260.0,227.0,243.0,1451.211
1451222.0,212.0,254.0,226.0,236.0,1451.222
1451232.0,212.0,254.0,220.0,237.0,1451.232
1451242.0,210.0,251.0,221.0,236.0,1451.242
1451252.0,216.0,259.0,228.0,242.0,1451.252
1451262.0,217.0,255.0,222.0,240.0,1451.262
1451272.0,211.0,254.0,225.0,236.0,1451.272
1451282.0,212.0,256.0,221.0,237.0,1451.282
1451292.0,213.0,256.0,225.0,238.0,1451.292
1451302.0,217.0,265.0,235.0,244.0,1451.302
1451312.0,221.0,264.0,231.0,244.0,1451.312
1451322.0,213.0,259.0,228.0,237.0,1451.322
1451332.0,213.0,258.0,222.0,237.0,1451.332
