time (ms),signal 0,signal 1,signal 2,signal 3,time (sec)
1572303.0,209.0,249.0,3.0,233.0,1572.303
1572313.0,210.0,256.0,3.0,237.0,1572.313
1572323.0,215.0,256.0,4.0,237.0,1572.323
1572333.0,207.0,251.0,3.0,231.0,1572.333
1572343.0,210.0,251.0,5.0,230.0,1572.343
1572353.0,203.0,244.0,4.0,226.0,1572.353
1572363.0,210.0,253.0,3.0,235.0,1572.363
1572373.0,216.0,253.0,4.0,238.0,1572.373
1572383.0,206.0,248.0,3.0,231.0,1572.383
1572393.0,208.0,247.0,4.0,231.0,1572.393
1572403.0,201.0,243.0,4.0,227.0,1572.403
1572413.0,211.0,253.0,4.0,235.0,1572.413
1572423.0,214.0,253.0,3.0,237.0,1572.423
1572433.0,206.0,247.0,4.0,229.0,1572.433
1572443.0,210.0,250.0,3.0,231.0,1572.443
1572453.0,205.0,244.0,4.0,227.0,1572.453
1572463.0,212.0,255.0,4.0,236.0,1572.463
1572473.0,217.0,253.0,4.0,236.0,1572.473
1572483.0,208.0,252.0,2.0,231.0,1572.483
1572493.0,210.0,250.0,4.0,230.0,1572.493
1572503.0,205.0,246.0,3.0,229.0,1572.503
1572513.0,211.0,252.0,4.0,236.0,1572.513
1572523.0,215.0,252.0,4.0,237.0,1572.523
1572533.0,207.0,247.0,5.0,230.0,1572.533
1572543.0,209.0,247.0,4.0,231.0,1572.543
1572553.0,206.0,246.0,4.0,228.0,1572.553
1572563.0,213.0,255.0,3.0,236.0,1572.563
1572573.0,216.0,254.0,3.0,236.0,1572.573
1572583.0,209.0,249.0,3.0,229.0,1572.583
1572593.0,210.0,249.0,3.0,230.0,1572.593
1572603.0,210.0,248.0,4.0,230.0,1572.603
1572613.0,212.0,256.0,4.0,234.0,1572.613
1572623.0,218.0,257.0,4.0,235.0,1572.623
1572633.0,209.0,255.0,3.0,228.0,1572.633
1572643.0,212.0,254.0,4.0,229.0,1572.643
1572653.0,205.0,249.0,3.0,225.0,1572.653
1572663.0,214.0,259.0,5.0,234.0,1572.663
1572673.0,218.0,260.0,4.0,237.0,1572.673
1572683.0,210.0,253.0,4.0,228.0,1572.683
1572694.0,212.0,255.0,3.0,232.0,1572.694
1572704.0,211.0,254.0,3.0,234.0,1572.704
1572714.0,215.0,259.0,3.0,237.0,1572.714
1572724.0,217.0,255.0,5.0,235.0,1572.724
1572734.0,207.0,250.0,4.0,227.0,1572.734
1572744.0,212.0,254.0,3.0,232.0,1572.744
1572754.0,213.0,257.0,4.0,234.0,1572.754
1572764.0,215.0,260.0,3.0,236.0,1572.764
1572774.0,217.0,256.0,4.0,234.0,1572.774
1572784.0,209.0,254.0,3.0,227.0,1572.784
1572794.0,213.0,255.0,4.0,231.0,1572.794
1572804.0,215.0,259.0,4.0,235.0,1572.804
1572814.0,215.0,259.0,4.0,235.0,1572.814
1572824.0,218.0,257.0,3.0,237.0,1572.824
1572834.0,209.0,250.0,4.0,229.0,1572.834
1572844.0,211.0,254.0,4.0,232.0,1572.844
1572854.0,215.0,259.0,5.0,238.0,1572.854
1572864.0,215.0,259.0,2.0,239.0,1572.864
1572874.0,217.0,257.0,4.0,237.0,1572.874
1572884.0,210.0,251.0,3.0,229.0,1572.884
1572894.0,213.0,256.0,3.0,232.0,1572.894
1572904.0,217.0,261.0,4.0,238.0,1572.904
1572914.0,217.0,262.0,4.0,239.0,1572.914
1572924.0,219.0,261.0,4.0,238.0,1572.924
1572934.0,208.0,251.0,4.0,228.0,1572.934
1572944.0,212.0,254.0,4.0,231.0,1572.944
1572954.0,213.0,259.0,3.0,236.0,1572.954
1572964.0,217.0,260.0,4.0,238.0,1572.964
1572974.0,217.0,258.0,4.0,237.0,1572.974
1572984.0,210.0,252.0,4.0,229.0,1572.984
1572994.0,213.0,256.0,4.0,233.0,1572.994
1573004.0,215.0,259.0,4.0,237.0,1573.004
1573014.0,217.0,263.0,3.0,239.0,1573.014
1573024.0,217.0,258.0,4.0,238.0,1573.024
1573035.0,210.0,253.0,3.0,230.0,1573.035
1573045.0,214.0,259.0,5.0,235.0,1573.045
1573055.0,220.0,263.0,4.0,242.0,1573.055
1573065.0,214.0,261.0,4.0,236.0,1573.065
1573075.0,215.0,258.0,4.0,237.0,1573.075
1573085.0,208.0,253.0,3.0,229.0,1573.085
1573095.0,213.0,260.0,4.0,236.0,1573.095
1573105.0,220.0,265.0,4.0,241.0,1573.105
1573115.0,215.0,258.0,4.0,237.0,1573.115
1573125.0,217.0,261.0,3.0,237.0,1573.125
1573135.0,209.0,251.0,4.0,228.0,1573.135
1573145.0,215.0,260.0,3.0,236.0,1573.145
1573155.0,222.0,266.0,4.0,242.0,1573.155
1573165.0,217.0,260.0,3.0,240.0,1573.165
1573175.0,218.0,260.0,4.0,239.0,1573.175
1573185.0,208.0,249.0,2.0,232.0,1573.185
1573195.0,209.0,253.0,4.0,237.0,1573.195
1573206.0,212.0,257.0,3.0,243.0,1573.206
1573216.0,203.0,250.0,3.0,238.0,1573.216
1573226.0,201.0,243.0,4.0,236.0,1573.226
1573236.0,199.0,242.0,5.0,233.0,1573.236
1573246.0,212.0,261.0,4.0,246.0,1573.246
1573256.0,209.0,261.0,4.0,250.0,1573.256
1573266.0,207.0,265.0,3.0,249.0,1573.266
1573276.0,211.0,268.0,3.0,256.0,1573.276
1573286.0,211.0,280.0,3.0,259.0,1573.286
1573296.0,216.0,279.0,4.0,257.0,1573.296
1573306.0,225.0,267.0,4.0,239.0,1573.306
1573316.0,218.0,260.0,3.0,226.0,1573.316
1573326.0,223.0,261.0,4.0,221.0,1573.326
1573336.0,222.0,258.0,3.0,220.0,1573.336
1573346.0,240.0,264.0,3.0,238.0,1573.346
1573356.0,254.0,273.0,3.0,255.0,1573.356
1573366.0,246.0,257.0,4.0,243.0,1573.366
1573376.0,248.0,260.0,4.0,242.0,1573.376
1573386.0,228.0,241.0,4.0,227.0,1573.386
1573396.0,241.0,249.0,3.0,233.0,1573.396
1573406.0,247.0,253.0,3.0,230.0,1573.406
1573416.0,242.0,244.0,3.0,216.0,1573.416
1573426.0,246.0,252.0,4.0,220.0,1573.426
1573436.0,238.0,245.0,4.0,219.0,1573.436
1573446.0,241.0,252.0,4.0,231.0,1573.446
1573456.0,236.0,244.0,4.0,226.0,1573.456
1573466.0,227.0,245.0,3.0,219.0,1573.466
1573476.0,228.0,248.0,3.0,226.0,1573.476
1573486.0,230.0,252.0,3.0,229.0,1573.486
1573496.0,239.0,266.0,4.0,238.0,1573.496
1573506.0,234.0,277.0,4.0,244.0,1573.506
1573516.0,227.0,268.0,4.0,233.0,1573.516
1573526.0,223.0,272.0,3.0,237.0,1573.526
1573536.0,223.0,268.0,4.0,231.0,1573.536
1573547.0,218.0,255.0,4.0,232.0,1573.547
1573557.0,228.0,254.0,5.0,237.0,1573.557
1573567.0,227.0,258.0,3.0,228.0,1573.567
1573577.0,234.0,271.0,3.0,234.0,1573.577
1573587.0,240.0,275.0,4.0,239.0,1573.587
1573597.0,237.0,270.0,3.0,234.0,1573.597
1573607.0,236.0,271.0,4.0,236.0,1573.607
1573617.0,222.0,261.0,4.0,226.0,1573.617
1573627.0,218.0,257.0,4.0,228.0,1573.627
1573637.0,222.0,260.0,4.0,232.0,1573.637
1573647.0,231.0,270.0,4.0,237.0,1573.647
1573657.0,238.0,272.0,3.0,239.0,1573.657
1573667.0,227.0,254.0,4.0,226.0,1573.667
1573677.0,236.0,257.0,4.0,229.0,1573.677
1573687.0,237.0,257.0,5.0,230.0,1573.687
1573697.0,245.0,267.0,3.0,232.0,1573.697
1573707.0,247.0,268.0,4.0,231.0,1573.707
1573718.0,238.0,267.0,3.0,225.0,1573.718
1573728.0,236.0,267.0,4.0,231.0,1573.728
1573738.0,248.0,281.0,4.0,239.0,1573.738
1573748.0,247.0,277.0,5.0,230.0,1573.748
1573758.0,243.0,275.0,4.0,230.0,1573.758
1573768.0,238.0,275.0,4.0,228.0,1573.768
1573778.0,241.0,288.0,4.0,237.0,1573.778
1573788.0,243.0,288.0,3.0,242.0,1573.788
1573798.0,236.0,275.0,4.0,237.0,1573.798
1573808.0,235.0,275.0,4.0,236.0,1573.808
1573818.0,234.0,282.0,5.0,237.0,1573.818
1573828.0,240.0,294.0,3.0,248.0,1573.828
1573838.0,245.0,294.0,4.0,253.0,1573.838
1573848.0,242.0,294.0,3.0,249.0,1573.848
1573858.0,244.0,288.0,4.0,245.0,1573.858
1573868.0,235.0,275.0,4.0,239.0,1573.868
1573878.0,240.0,285.0,4.0,249.0,1573.878
1573888.0,249.0,280.0,4.0,253.0,1573.888
1573898.0,248.0,287.0,4.0,256.0,1573.898
1573908.0,248.0,290.0,3.0,256.0,1573.908
1573918.0,234.0,275.0,4.0,246.0,1573.918
1573928.0,243.0,289.0,4.0,258.0,1573.928
1573938.0,252.0,298.0,4.0,260.0,1573.938
1573948.0,253.0,301.0,5.0,260.0,1573.948
1573958.0,250.0,296.0,4.0,254.0,1573.958
1573968.0,250.0,297.0,4.0,253.0,1573.968
1573978.0,251.0,299.0,3.0,258.0,1573.978
1573988.0,251.0,296.0,3.0,262.0,1573.988
1573998.0,246.0,293.0,4.0,258.0,1573.998
1574008.0,254.0,287.0,5.0,252.0,1574.008
1574018.0,248.0,283.0,4.0,250.0,1574.018
1574028.0,248.0,287.0,4.0,256.0,1574.028
1574038.0,256.0,294.0,3.0,262.0,1574.038
1574048.0,250.0,288.0,3.0,258.0,1574.048
1574059.0,245.0,283.0,4.0,252.0,1574.059
1574069.0,238.0,275.0,5.0,248.0,1574.069
1574079.0,253.0,296.0,4.0,259.0,1574.079
1574089.0,250.0,288.0,4.0,254.0,1574.089
1574099.0,240.0,285.0,3.0,256.0,1574.099
1574109.0,240.0,282.0,3.0,254.0,1574.109
1574119.0,235.0,282.0,4.0,258.0,1574.119
1574129.0,242.0,293.0,4.0,266.0,1574.129
1574139.0,249.0,290.0,4.0,259.0,1574.139
1574149.0,244.0,297.0,3.0,262.0,1574.149
1574159.0,240.0,290.0,4.0,257.0,1574.159
1574169.0,235.0,293.0,3.0,262.0,1574.169
1574179.0,239.0,297.0,4.0,269.0,1574.179
1574189.0,246.0,300.0,4.0,274.0,1574.189
1574199.0,241.0,295.0,5.0,272.0,1574.199
1574209.0,232.0,283.0,4.0,267.0,1574.209
1574219.0,226.0,280.0,3.0,273.0,1574.219
1574230.0,243.0,310.0,4.0,285.0,1574.23
1574240.0,248.0,306.0,4.0,274.0,1574.24
1574250.0,238.0,301.0,4.0,276.0,1574.25
1574260.0,238.0,299.0,4.0,276.0,1574.26
1574270.0,246.0,302.0,4.0,280.0,1574.27
1574280.0,240.0,302.0,4.0,281.0,1574.28
1574290.0,242.0,294.0,3.0,272.0,1574.29
1574300.0,238.0,302.0,4.0,280.0,1574.3
1574310.0,251.0,309.0,4.0,280.0,1574.31
1574320.0,255.0,310.0,4.0,289.0,1574.32
1574330.0,266.0,323.0,4.0,298.0,1574.33
1574340.0,260.0,310.0,4.0,284.0,1574.34
1574350.0,254.0,313.0,3.0,289.0,1574.35
1574360.0,255.0,313.0,3.0,290.0,1574.36
1574370.0,253.0,313.0,4.0,292.0,1574.37
1574380.0,257.0,321.0,4.0,301.0,1574.38
1574390.0,256.0,311.0,5.0,290.0,1574.39
1574400.0,250.0,315.0,4.0,295.0,1574.4
1574410.0,240.0,295.0,3.0,283.0,1574.41
1574420.0,246.0,303.0,4.0,294.0,1574.42
1574430.0,263.0,320.0,4.0,300.0,1574.43
1574440.0,265.0,315.0,4.0,293.0,1574.44
1574450.0,260.0,319.0,4.0,300.0,1574.45
1574460.0,259.0,315.0,4.0,297.0,1574.46
1574470.0,259.0,317.0,4.0,306.0,1574.47
1574480.0,263.0,326.0,4.0,310.0,1574.48
1574490.0,257.0,312.0,3.0,295.0,1574.49
1574500.0,250.0,308.0,4.0,300.0,1574.5
1574510.0,253.0,308.0,4.0,296.0,1574.51
1574520.0,256.0,315.0,5.0,299.0,1574.52
1574530.0,254.0,322.0,3.0,303.0,1574.53
1574540.0,260.0,317.0,4.0,295.0,1574.54
1574550.0,254.0,321.0,3.0,303.0,1574.55
1574560.0,246.0,317.0,3.0,296.0,1574.56
1574571.0,255.0,326.0,4.0,306.0,1574.571
1574581.0,268.0,340.0,4.0,315.0,1574.581
1574591.0,264.0,326.0,4.0,298.0,1574.591
1574601.0,249.0,316.0,4.0,296.0,1574.601
1574611.0,251.0,320.0,4.0,304.0,1574.611
1574621.0,252.0,320.0,3.0,302.0,1574.621
1574631.0,249.0,320.0,4.0,304.0,1574.631
1574641.0,250.0,318.0,4.0,299.0,1574.641
1574651.0,245.0,314.0,4.0,297.0,1574.651
1574661.0,247.0,319.0,4.0,290.0,1574.661
1574671.0,253.0,323.0,4.0,297.0,1574.671
1574681.0,249.0,327.0,3.0,298.0,1574.681
1574691.0,244.0,310.0,4.0,286.0,1574.691
1574701.0,239.0,310.0,4.0,291.0,1574.701
1574711.0,243.0,311.0,5.0,291.0,1574.711
1574721.0,246.0,313.0,4.0,294.0,1574.721
1574731.0,243.0,315.0,4.0,296.0,1574.731
1574742.0,239.0,303.0,3.0,288.0,1574.742
1574752.0,232.0,297.0,3.0,288.0,1574.752
1574762.0,241.0,307.0,4.0,296.0,1574.762
1574772.0,243.0,298.0,5.0,291.0,1574.772
1574782.0,236.0,299.0,4.0,297.0,1574.782
1574792.0,236.0,295.0,4.0,289.0,1574.792
1574802.0,231.0,292.0,4.0,294.0,1574.802
1574812.0,239.0,303.0,3.0,298.0,1574.812
1574822.0,242.0,298.0,4.0,295.0,1574.822
1574832.0,236.0,300.0,3.0,302.0,1574.832
1574842.0,236.0,292.0,5.0,291.0,1574.842
1574852.0,229.0,291.0,4.0,296.0,1574.852
1574862.0,237.0,301.0,4.0,302.0,1574.862
1574872.0,239.0,297.0,3.0,296.0,1574.872
1574882.0,233.0,295.0,4.0,300.0,1574.882
1574892.0,232.0,290.0,4.0,297.0,1574.892
1574902.0,229.0,287.0,5.0,300.0,1574.902
1574912.0,233.0,294.0,4.0,307.0,1574.912
1574922.0,236.0,289.0,4.0,297.0,1574.922
1574932.0,229.0,289.0,3.0,310.0,1574.932
1574942.0,229.0,284.0,4.0,300.0,1574.942
1574952.0,227.0,285.0,4.0,306.0,1574.952
1574962.0,228.0,290.0,4.0,308.0,1574.962
1574972.0,232.0,283.0,4.0,302.0,1574.972
1574982.0,222.0,284.0,4.0,304.0,1574.982
1574992.0,223.0,280.0,4.0,302.0,1574.992
1575002.0,218.0,277.0,3.0,300.0,1575.002
1575012.0,224.0,285.0,4.0,305.0,1575.012
1575022.0,227.0,281.0,4.0,299.0,1575.022
1575032.0,221.0,279.0,5.0,301.0,1575.032
1575042.0,222.0,276.0,2.0,294.0,1575.042
1575052.0,216.0,278.0,4.0,296.0,1575.052
1575062.0,224.0,292.0,3.0,304.0,1575.062
1575072.0,226.0,282.0,4.0,292.0,1575.072
1575083.0,218.0,287.0,4.0,294.0,1575.083
1575093.0,219.0,282.0,5.0,287.0,1575.093
1575103.0,220.0,287.0,4.0,290.0,1575.103
1575113.0,223.0,294.0,3.0,293.0,1575.113
1575123.0,220.0,284.0,4.0,284.0,1575.123
1575133.0,216.0,288.0,4.0,291.0,1575.133
1575143.0,217.0,286.0,4.0,286.0,1575.143
1575153.0,220.0,289.0,5.0,290.0,1575.153
1575163.0,222.0,294.0,4.0,295.0,1575.163
1575173.0,222.0,285.0,4.0,285.0,1575.173
1575183.0,216.0,286.0,3.0,286.0,1575.183
1575193.0,218.0,284.0,3.0,282.0,1575.193
1575203.0,221.0,287.0,4.0,286.0,1575.203
1575213.0,223.0,292.0,4.0,288.0,1575.213
1575223.0,223.0,282.0,5.0,280.0,1575.223
1575233.0,216.0,284.0,4.0,279.0,1575.233
1575243.0,217.0,282.0,4.0,275.0,1575.243
1575254.0,223.0,289.0,4.0,281.0,1575.254
1575264.0,222.0,290.0,3.0,280.0,1575.264
1575274.0,220.0,281.0,4.0,271.0,1575.274
1575284.0,215.0,272.0,5.0,271.0,1575.284
1575294.0,220.0,278.0,4.0,276.0,1575.294
1575304.0,222.0,277.0,4.0,276.0,1575.304
1575314.0,222.0,274.0,3.0,278.0,1575.314
1575324.0,219.0,268.0,3.0,270.0,1575.324
1575334.0,213.0,259.0,4.0,268.0,1575.334
1575344.0,217.0,263.0,4.0,270.0,1575.344
1575354.0,223.0,269.0,4.0,274.0,1575.354
1575364.0,221.0,271.0,3.0,273.0,1575.364
1575374.0,219.0,265.0,4.0,266.0,1575.374
1575384.0,214.0,265.0,3.0,265.0,1575.384
1575394.0,217.0,268.0,3.0,266.0,1575.394
1575404.0,222.0,271.0,3.0,270.0,1575.404
1575414.0,221.0,271.0,5.0,269.0,1575.414
1575424.0,220.0,265.0,4.0,264.0,1575.424
1575434.0,213.0,260.0,4.0,261.0,1575.434
1575444.0,216.0,266.0,3.0,266.0,1575.444
1575454.0,222.0,269.0,4.0,267.0,1575.454
1575464.0,220.0,269.0,4.0,265.0,1575.464
1575474.0,220.0,264.0,5.0,260.0,1575.474
1575484.0,214.0,259.0,4.0,258.0,1575.484
1575494.0,219.0,268.0,4.0,262.0,1575.494
1575504.0,224.0,270.0,4.0,264.0,1575.504
1575514.0,222.0,270.0,3.0,264.0,1575.514
1575524.0,220.0,263.0,4.0,258.0,1575.524
1575534.0,213.0,256.0,4.0,255.0,1575.534
1575544.0,220.0,264.0,5.0,260.0,1575.544
1575554.0,222.0,266.0,3.0,262.0,1575.554
1575564.0,221.0,264.0,4.0,263.0,1575.564
1575574.0,219.0,260.0,3.0,257.0,1575.574
1575584.0,212.0,252.0,4.0,252.0,1575.584
1575595.0,219.0,260.0,4.0,260.0,1575.595
1575605.0,225.0,263.0,5.0,260.0,1575.605
1575615.0,218.0,258.0,4.0,258.0,1575.615
1575625.0,217.0,257.0,3.0,255.0,1575.625
1575635.0,215.0,256.0,4.0,256.0,1575.635
1575645.0,218.0,261.0,3.0,258.0,1575.645
1575655.0,222.0,263.0,3.0,259.0,1575.655
1575665.0,216.0,253.0,5.0,256.0,1575.665
1575675.0,217.0,256.0,4.0,252.0,1575.675
1575685.0,211.0,250.0,3.0,249.0,1575.685
1575695.0,219.0,260.0,4.0,256.0,1575.695
1575705.0,223.0,263.0,3.0,255.0,1575.705
1575715.0,216.0,253.0,4.0,250.0,1575.715
1575725.0,217.0,257.0,4.0,250.0,1575.725
1575735.0,213.0,251.0,4.0,246.0,1575.735
1575745.0,220.0,261.0,4.0,254.0,1575.745
1575755.0,222.0,261.0,4.0,252.0,1575.755
1575766.0,215.0,253.0,3.0,247.0,1575.766
1575776.0,216.0,256.0,3.0,246.0,1575.776
1575786.0,216.0,258.0,3.0,250.0,1575.786
1575796.0,221.0,261.0,4.0,251.0,1575.796
1575806.0,219.0,260.0,4.0,246.0,1575.806
1575816.0,215.0,252.0,3.0,244.0,1575.816
1575826.0,216.0,256.0,4.0,244.0,1575.826
1575836.0,218.0,259.0,4.0,247.0,1575.836
1575846.0,220.0,258.0,3.0,249.0,1575.846
1575856.0,221.0,263.0,4.0,246.0,1575.856
1575866.0,214.0,252.0,4.0,240.0,1575.866
1575876.0,214.0,256.0,3.0,241.0,1575.876
1575886.0,218.0,263.0,3.0,246.0,1575.886
1575896.0,220.0,264.0,3.0,249.0,1575.896
1575906.0,220.0,263.0,4.0,243.0,1575.906
1575916.0,213.0,254.0,4.0,239.0,1575.916
1575926.0,216.0,257.0,5.0,240.0,1575.926
1575936.0,214.0,257.0,2.0,242.0,1575.936
1575946.0,220.0,261.0,4.0,246.0,1575.946
1575956.0,220.0,259.0,3.0,244.0,1575.956
1575966.0,212.0,250.0,4.0,238.0,1575.966
1575976.0,214.0,254.0,4.0,240.0,1575.976
1575986.0,215.0,258.0,5.0,241.0,1575.986
1575996.0,220.0,259.0,4.0,246.0,1575.996
1576006.0,219.0,258.0,3.0,243.0,1576.006
1576016.0,212.0,250.0,4.0,237.0,1576.016
1576026.0,215.0,256.0,3.0,239.0,1576.026
1576036.0,216.0,257.0,4.0,242.0,1576.036
1576046.0,221.0,260.0,4.0,244.0,1576.046
1576056.0,220.0,258.0,4.0,240.0,1576.056
1576066.0,215.0,252.0,4.0,235.0,1576.066
1576076.0,216.0,256.0,4.0,237.0,1576.076
1576086.0,219.0,261.0,4.0,242.0,1576.086
1576096.0,221.0,260.0,4.0,241.0,1576.096
1576107.0,219.0,260.0,4.0,239.0,1576.107
1576117.0,213.0,250.0,5.0,232.0,1576.117
1576127.0,216.0,257.0,4.0,239.0,1576.127
1576137.0,222.0,265.0,4.0,244.0,1576.137
1576147.0,219.0,256.0,3.0,240.0,1576.147
1576157.0,219.0,261.0,4.0,238.0,1576.157
1576167.0,212.0,248.0,3.0,231.0,1576.167
1576177.0,216.0,257.0,5.0,239.0,1576.177
1576187.0,222.0,265.0,4.0,243.0,1576.187
1576197.0,219.0,259.0,4.0,240.0,1576.197
1576207.0,218.0,258.0,4.0,238.0,1576.207
1576217.0,211.0,251.0,4.0,230.0,1576.217
1576227.0,216.0,258.0,4.0,239.0,1576.227
1576237.0,219.0,261.0,4.0,242.0,1576.237
1576247.0,220.0,259.0,5.0,240.0,1576.247
1576257.0,218.0,258.0,4.0,239.0,1576.257
1576267.0,210.0,251.0,4.0,230.0,1576.267
1576278.0,217.0,261.0,3.0,241.0,1576.278
1576288.0,222.0,262.0,3.0,244.0,1576.288
1576298.0,215.0,254.0,4.0,237.0,1576.298
1576308.0,216.0,256.0,5.0,237.0,1576.308
1576318.0,212.0,254.0,4.0,236.0,1576.318
1576328.0,217.0,259.0,4.0,239.0,1576.328
1576338.0,222.0,263.0,4.0,243.0,1576.338
1576348.0,215.0,256.0,3.0,234.0,1576.348
1576358.0,216.0,256.0,3.0,235.0,1576.358
1576368.0,210.0,249.0,4.0,230.0,1576.368
1576378.0,218.0,259.0,4.0,239.0,1576.378
1576388.0,222.0,260.0,3.0,242.0,1576.388
1576398.0,215.0,254.0,4.0,232.0,1576.398
1576408.0,217.0,257.0,3.0,236.0,1576.408
1576418.0,210.0,249.0,4.0,230.0,1576.418
1576428.0,218.0,260.0,3.0,240.0,1576.428
1576438.0,222.0,260.0,5.0,241.0,1576.438
1576448.0,216.0,256.0,3.0,236.0,1576.448
1576458.0,216.0,256.0,4.0,237.0,1576.458
1576468.0,210.0,252.0,3.0,232.0,1576.468
1576478.0,218.0,260.0,4.0,240.0,1576.478
1576488.0,221.0,264.0,4.0,241.0,1576.488
1576498.0,216.0,255.0,5.0,235.0,1576.498
1576508.0,216.0,259.0,4.0,235.0,1576.508
1576518.0,212.0,253.0,4.0,232.0,1576.518
1576528.0,219.0,261.0,4.0,239.0,1576.528
1576538.0,221.0,266.0,3.0,243.0,1576.538
1576548.0,215.0,255.0,4.0,234.0,1576.548
1576558.0,215.0,257.0,4.0,235.0,1576.558
1576568.0,213.0,254.0,4.0,234.0,1576.568
1576578.0,215.0,257.0,4.0,237.0,1576.578
1576588.0,221.0,260.0,4.0,241.0,1576.588
1576598.0,214.0,253.0,3.0,234.0,1576.598
1576608.0,215.0,254.0,4.0,234.0,1576.608
1576619.0,213.0,252.0,4.0,235.0,1576.619
1576629.0,220.0,259.0,4.0,239.0,1576.629
1576639.0,220.0,258.0,2.0,238.0,1576.639
1576649.0,211.0,250.0,4.0,228.0,1576.649
1576659.0,213.0,255.0,3.0,234.0,1576.659
1576669.0,213.0,254.0,4.0,234.0,1576.669
1576679.0,218.0,259.0,3.0,237.0,1576.679
1576689.0,219.0,257.0,5.0,238.0,1576.689
1576699.0,211.0,251.0,4.0,227.0,1576.699
1576709.0,214.0,255.0,3.0,233.0,1576.709
1576719.0,215.0,257.0,4.0,235.0,1576.719
1576729.0,219.0,261.0,3.0,236.0,1576.729
1576739.0,220.0,260.0,3.0,236.0,1576.739
1576749.0,213.0,249.0,4.0,228.0,1576.749
1576759.0,216.0,253.0,5.0,231.0,1576.759
1576769.0,217.0,257.0,4.0,235.0,1576.769
1576779.0,218.0,256.0,4.0,235.0,1576.779
1576790.0,219.0,258.0,3.0,237.0,1576.79
1576800.0,211.0,248.0,4.0,226.0,1576.8
1576810.0,215.0,255.0,4.0,232.0,1576.81
1576820.0,222.0,261.0,5.0,239.0,1576.82
1576830.0,216.0,254.0,4.0,232.0,1576.83
1576840.0,219.0,256.0,3.0,235.0,1576.84
1576850.0,211.0,247.0,3.0,226.0,1576.85
1576860.0,215.0,254.0,3.0,234.0,1576.86
1576870.0,221.0,260.0,4.0,240.0,1576.87
1576880.0,217.0,255.0,4.0,235.0,1576.88
1576890.0,218.0,255.0,4.0,235.0,1576.89
1576900.0,208.0,245.0,4.0,225.0,1576.9
1576910.0,216.0,256.0,4.0,236.0,1576.91
1576920.0,218.0,259.0,4.0,238.0,1576.92
1576930.0,216.0,254.0,3.0,234.0,1576.93
1576940.0,216.0,255.0,4.0,235.0,1576.94
1576950.0,209.0,245.0,5.0,226.0,1576.95
1576960.0,212.0,252.0,4.0,232.0,1576.96
1576970.0,218.0,257.0,4.0,239.0,1576.97
1576980.0,216.0,255.0,3.0,235.0,1576.98
1576990.0,216.0,254.0,4.0,234.0,1576.99
1577000.0,208.0,246.0,4.0,226.0,1577.0
1577010.0,213.0,253.0,4.0,233.0,1577.01
1577020.0,219.0,261.0,4.0,241.0,1577.02
1577030.0,216.0,253.0,4.0,233.0,1577.03
1577040.0,216.0,256.0,4.0,235.0,1577.04
1577050.0,210.0,248.0,3.0,226.0,1577.05
1577060.0,214.0,254.0,3.0,233.0,1577.06
1577070.0,220.0,262.0,4.0,239.0,1577.07
1577080.0,217.0,255.0,4.0,232.0,1577.08
1577090.0,218.0,257.0,4.0,235.0,1577.09
1577100.0,210.0,247.0,4.0,225.0,1577.1
1577110.0,214.0,254.0,3.0,233.0,1577.11
1577120.0,220.0,262.0,4.0,240.0,1577.12
1577131.0,215.0,254.0,4.0,231.0,1577.131
1577141.0,217.0,257.0,5.0,234.0,1577.141
1577151.0,210.0,251.0,4.0,229.0,1577.151
1577161.0,217.0,259.0,4.0,237.0,1577.161
1577171.0,220.0,263.0,3.0,242.0,1577.171
1577181.0,215.0,255.0,4.0,231.0,1577.181
1577191.0,216.0,256.0,3.0,234.0,1577.191
1577201.0,211.0,251.0,5.0,230.0,1577.201
1577211.0,218.0,260.0,4.0,236.0,1577.211
1577221.0,220.0,262.0,4.0,241.0,1577.221
1577231.0,215.0,254.0,3.0,233.0,1577.231
1577241.0,215.0,257.0,3.0,234.0,1577.241
1577251.0,212.0,252.0,4.0,232.0,1577.251
1577261.0,216.0,258.0,4.0,236.0,1577.261
1577271.0,222.0,263.0,5.0,241.0,1577.271
1577281.0,214.0,253.0,3.0,232.0,1577.281
1577291.0,215.0,255.0,4.0,233.0,1577.291
1577302.0,213.0,254.0,3.0,234.0,1577.302
1577312.0,218.0,258.0,4.0,238.0,1577.312
1577322.0,219.0,258.0,4.0,239.0,1577.322
1577332.0,212.0,251.0,5.0,227.0,1577.332
1577342.0,214.0,253.0,2.0,232.0,1577.342
1577352.0,214.0,255.0,4.0,233.0,1577.352
1577362.0,219.0,262.0,3.0,237.0,1577.362
1577372.0,219.0,256.0,4.0,238.0,1577.372
1577382.0,211.0,249.0,4.0,227.0,1577.382
1577392.0,213.0,255.0,4.0,234.0,1577.392
1577402.0,214.0,257.0,4.0,235.0,1577.402
1577412.0,218.0,261.0,4.0,236.0,1577.412
1577422.0,218.0,257.0,3.0,239.0,1577.422
1577432.0,211.0,255.0,3.0,229.0,1577.432
1577442.0,214.0,254.0,3.0,233.0,1577.442
1577452.0,215.0,257.0,4.0,235.0,1577.452
1577462.0,218.0,258.0,4.0,235.0,1577.462
1577472.0,221.0,259.0,4.0,240.0,1577.472
1577482.0,211.0,250.0,4.0,228.0,1577.482
1577492.0,213.0,255.0,3.0,233.0,1577.492
1577502.0,216.0,258.0,4.0,236.0,1577.502
1577512.0,216.0,256.0,3.0,235.0,1577.512
1577522.0,220.0,258.0,5.0,240.0,1577.522
1577532.0,211.0,248.0,3.0,227.0,1577.532
1577542.0,212.0,252.0,3.0,232.0,1577.542
1577552.0,216.0,257.0,3.0,239.0,1577.552
1577562.0,216.0,258.0,4.0,236.0,1577.562
1577572.0,219.0,257.0,4.0,239.0,1577.572
1577582.0,209.0,251.0,3.0,227.0,1577.582
1577592.0,213.0,255.0,4.0,232.0,1577.592
1577602.0,212.0,257.0,3.0,234.0,1577.602
1577612.0,217.0,260.0,4.0,237.0,1577.612
1577622.0,218.0,262.0,3.0,239.0,1577.622
1577632.0,210.0,251.0,4.0,227.0,1577.632
1577643.0,212.0,257.0,4.0,232.0,1577.643
1577653.0,219.0,262.0,4.0,240.0,1577.653
1577663.0,216.0,261.0,3.0,233.0,1577.663
1577673.0,216.0,259.0,4.0,235.0,1577.673
1577683.0,208.0,252.0,3.0,227.0,1577.683
1577693.0,213.0,257.0,3.0,233.0,1577.693
1577703.0,218.0,263.0,3.0,241.0,1577.703
1577713.0,216.0,258.0,5.0,233.0,1577.713
1577723.0,216.0,257.0,3.0,236.0,1577.723
1577733.0,209.0,251.0,4.0,226.0,1577.733
1577743.0,213.0,255.0,4.0,234.0,1577.743
1577753.0,219.0,262.0,3.0,241.0,1577.753
1577763.0,216.0,254.0,3.0,231.0,1577.763
1577773.0,217.0,256.0,4.0,236.0,1577.773
1577783.0,210.0,249.0,4.0,225.0,1577.783
1577793.0,214.0,256.0,4.0,232.0,1577.793
1577803.0,220.0,262.0,4.0,239.0,1577.803
1577814.0,215.0,255.0,3.0,232.0,1577.814
1577824.0,215.0,256.0,4.0,233.0,1577.824
1577834.0,209.0,251.0,4.0,228.0,1577.834
1577844.0,217.0,259.0,4.0,237.0,1577.844
1577854.0,220.0,263.0,4.0,239.0,1577.854
1577864.0,215.0,254.0,4.0,229.0,1577.864
1577874.0,215.0,256.0,4.0,233.0,1577.874
1577884.0,209.0,249.0,4.0,228.0,1577.884
1577894.0,216.0,256.0,4.0,236.0,1577.894
1577904.0,219.0,261.0,4.0,240.0,1577.904
1577914.0,212.0,252.0,4.0,230.0,1577.914
1577924.0,213.0,255.0,4.0,233.0,1577.924
1577934.0,210.0,252.0,4.0,231.0,1577.934
1577944.0,214.0,257.0,3.0,235.0,1577.944
1577954.0,219.0,261.0,4.0,240.0,1577.954
1577964.0,211.0,252.0,4.0,229.0,1577.964
1577974.0,214.0,253.0,5.0,233.0,1577.974
1577984.0,206.0,246.0,4.0,226.0,1577.984
1577994.0,214.0,256.0,4.0,236.0,1577.994
1578004.0,219.0,262.0,3.0,241.0,1578.004
1578014.0,211.0,253.0,4.0,229.0,1578.014
1578024.0,213.0,257.0,4.0,233.0,1578.024
1578034.0,207.0,250.0,4.0,227.0,1578.034
1578044.0,215.0,260.0,4.0,235.0,1578.044
1578054.0,220.0,262.0,4.0,239.0,1578.054
1578064.0,211.0,255.0,3.0,229.0,1578.064
1578074.0,215.0,256.0,3.0,234.0,1578.074
1578084.0,208.0,250.0,4.0,228.0,1578.084
1578094.0,216.0,260.0,4.0,236.0,1578.094
1578104.0,221.0,261.0,4.0,239.0,1578.104
1578114.0,214.0,257.0,3.0,229.0,1578.114
1578124.0,215.0,257.0,4.0,233.0,1578.124
1578134.0,209.0,252.0,3.0,228.0,1578.134
1578144.0,215.0,260.0,4.0,234.0,1578.144
1578155.0,219.0,261.0,4.0,239.0,1578.155
1578165.0,210.0,250.0,5.0,227.0,1578.165
1578175.0,212.0,252.0,4.0,230.0,1578.175
1578185.0,214.0,257.0,4.0,235.0,1578.185
1578195.0,217.0,260.0,3.0,234.0,1578.195
1578205.0,220.0,262.0,4.0,238.0,1578.205
1578215.0,211.0,251.0,3.0,225.0,1578.215
1578225.0,213.0,255.0,5.0,228.0,1578.225
1578235.0,216.0,258.0,4.0,236.0,1578.235
1578245.0,216.0,258.0,3.0,235.0,1578.245
1578255.0,219.0,261.0,4.0,237.0,1578.255
1578265.0,210.0,250.0,3.0,226.0,1578.265
1578275.0,211.0,253.0,3.0,230.0,1578.275
1578285.0,212.0,255.0,4.0,229.0,1578.285
1578295.0,218.0,258.0,4.0,233.0,1578.295
1578305.0,218.0,258.0,3.0,235.0,1578.305
1578315.0,209.0,249.0,4.0,225.0,1578.315
1578326.0,211.0,255.0,3.0,230.0,1578.326
1578336.0,217.0,260.0,4.0,237.0,1578.336
1578346.0,214.0,255.0,4.0,232.0,1578.346
1578356.0,216.0,255.0,5.0,234.0,1578.356
1578366.0,207.0,245.0,4.0,224.0,1578.366
1578376.0,212.0,252.0,4.0,230.0,1578.376
1578386.0,218.0,261.0,4.0,239.0,1578.386
1578396.0,215.0,255.0,4.0,231.0,1578.396
1578406.0,215.0,256.0,4.0,233.0,1578.406
1578416.0,209.0,249.0,4.0,225.0,1578.416
1578426.0,212.0,255.0,4.0,230.0,1578.426
1578436.0,218.0,262.0,4.0,237.0,1578.436
1578446.0,214.0,255.0,4.0,231.0,1578.446
1578456.0,217.0,257.0,3.0,233.0,1578.456
1578466.0,207.0,247.0,3.0,223.0,1578.466
1578476.0,212.0,254.0,5.0,230.0,1578.476
1578486.0,218.0,260.0,5.0,238.0,1578.486
1578496.0,214.0,258.0,4.0,233.0,1578.496
1578506.0,215.0,255.0,4.0,233.0,1578.506
1578516.0,206.0,247.0,3.0,224.0,1578.516
1578526.0,211.0,254.0,4.0,232.0,1578.526
1578536.0,217.0,260.0,3.0,239.0,1578.536
1578546.0,215.0,256.0,5.0,233.0,1578.546
1578556.0,215.0,255.0,4.0,234.0,1578.556
1578566.0,206.0,247.0,4.0,223.0,1578.566
1578576.0,211.0,256.0,3.0,233.0,1578.576
1578586.0,216.0,260.0,4.0,236.0,1578.586
1578596.0,214.0,257.0,3.0,232.0,1578.596
1578606.0,215.0,255.0,5.0,232.0,1578.606
1578616.0,207.0,247.0,4.0,223.0,1578.616
1578626.0,210.0,254.0,3.0,230.0,1578.626
1578636.0,217.0,260.0,4.0,238.0,1578.636
1578646.0,214.0,255.0,3.0,232.0,1578.646
1578656.0,215.0,256.0,4.0,232.0,1578.656
1578667.0,207.0,247.0,4.0,224.0,1578.667
1578677.0,215.0,257.0,5.0,234.0,1578.677
1578687.0,218.0,261.0,4.0,238.0,1578.687
1578697.0,211.0,250.0,4.0,229.0,1578.697
1578707.0,212.0,255.0,4.0,232.0,1578.707
1578717.0,206.0,246.0,4.0,225.0,1578.717
1578727.0,213.0,256.0,4.0,234.0,1578.727
1578737.0,219.0,259.0,5.0,238.0,1578.737
1578747.0,209.0,250.0,4.0,229.0,1578.747
1578757.0,213.0,257.0,4.0,233.0,1578.757
1578767.0,206.0,251.0,4.0,227.0,1578.767
1578777.0,214.0,259.0,4.0,236.0,1578.777
1578787.0,218.0,261.0,3.0,238.0,1578.787
1578797.0,212.0,254.0,4.0,231.0,1578.797
1578807.0,214.0,254.0,4.0,232.0,1578.807
1578817.0,206.0,251.0,3.0,227.0,1578.817
1578827.0,214.0,258.0,3.0,235.0,1578.827
1578838.0,218.0,260.0,3.0,239.0,1578.838
1578848.0,210.0,251.0,4.0,227.0,1578.848
1578858.0,211.0,254.0,4.0,230.0,1578.858
1578868.0,215.0,257.0,5.0,234.0,1578.868
1578878.0,214.0,258.0,4.0,233.0,1578.878
1578888.0,218.0,261.0,4.0,237.0,1578.888
1578898.0,210.0,251.0,3.0,227.0,1578.898
1578908.0,211.0,254.0,4.0,229.0,1578.908
1578918.0,214.0,259.0,4.0,235.0,1578.918
1578928.0,217.0,258.0,5.0,235.0,1578.928
1578938.0,219.0,259.0,4.0,237.0,1578.938
1578948.0,210.0,247.0,4.0,227.0,1578.948
1578958.0,212.0,252.0,3.0,231.0,1578.958
1578968.0,211.0,252.0,3.0,232.0,1578.968
1578978.0,216.0,254.0,4.0,234.0,1578.978
1578988.0,217.0,256.0,4.0,236.0,1578.988
1578998.0,209.0,245.0,4.0,226.0,1578.998
1579008.0,212.0,252.0,4.0,231.0,1579.008
1579018.0,212.0,253.0,4.0,233.0,1579.018
1579028.0,216.0,257.0,3.0,236.0,1579.028
1579038.0,217.0,258.0,4.0,236.0,1579.038
1579048.0,208.0,248.0,3.0,225.0,1579.048
1579058.0,213.0,254.0,5.0,232.0,1579.058
1579068.0,212.0,256.0,4.0,234.0,1579.068
1579078.0,215.0,257.0,4.0,234.0,1579.078
1579088.0,216.0,259.0,3.0,237.0,1579.088
1579098.0,209.0,250.0,3.0,227.0,1579.098
1579108.0,212.0,253.0,3.0,231.0,1579.108
1579118.0,213.0,256.0,5.0,235.0,1579.118
1579128.0,215.0,256.0,4.0,234.0,1579.128
1579138.0,218.0,262.0,4.0,239.0,1579.138
1579148.0,209.0,249.0,4.0,227.0,1579.148
1579158.0,211.0,254.0,3.0,230.0,1579.158
1579168.0,214.0,258.0,4.0,234.0,1579.168
1579179.0,215.0,255.0,4.0,233.0,1579.179
1579189.0,216.0,258.0,5.0,233.0,1579.189
1579199.0,206.0,247.0,4.0,223.0,1579.199
1579209.0,212.0,253.0,4.0,231.0,1579.209
1579219.0,219.0,265.0,3.0,238.0,1579.219
1579229.0,215.0,256.0,4.0,231.0,1579.229
1579239.0,215.0,257.0,4.0,233.0,1579.239
1579249.0,207.0,246.0,5.0,223.0,1579.249
1579259.0,212.0,253.0,4.0,232.0,1579.259
1579269.0,215.0,258.0,3.0,236.0,1579.269
1579279.0,214.0,253.0,4.0,233.0,1579.279
1579289.0,214.0,255.0,3.0,233.0,1579.289
1579299.0,206.0,245.0,4.0,224.0,1579.299
1579309.0,210.0,250.0,4.0,231.0,1579.309
1579319.0,217.0,259.0,4.0,238.0,1579.319
1579329.0,214.0,249.0,3.0,233.0,1579.329
1579339.0,214.0,253.0,4.0,234.0,1579.339
1579350.0,206.0,244.0,3.0,225.0,1579.35
1579360.0,213.0,254.0,4.0,233.0,1579.36
1579370.0,218.0,263.0,4.0,238.0,1579.37
1579380.0,212.0,249.0,5.0,228.0,1579.38
1579390.0,213.0,257.0,4.0,231.0,1579.39
1579400.0,206.0,249.0,4.0,224.0,1579.4
1579410.0,213.0,259.0,3.0,235.0,1579.41
1579420.0,218.0,266.0,4.0,238.0,1579.42
1579430.0,209.0,252.0,3.0,228.0,1579.43
1579440.0,213.0,260.0,4.0,233.0,1579.44
1579450.0,206.0,251.0,4.0,226.0,1579.45
1579460.0,214.0,259.0,3.0,235.0,1579.46
1579470.0,218.0,264.0,3.0,241.0,1579.47
1579480.0,211.0,254.0,3.0,232.0,1579.48
1579490.0,213.0,256.0,3.0,234.0,1579.49
1579500.0,207.0,249.0,4.0,228.0,1579.5
1579510.0,215.0,257.0,4.0,236.0,1579.51
1579520.0,218.0,258.0,4.0,240.0,1579.52
1579530.0,212.0,251.0,4.0,231.0,1579.53
1579540.0,212.0,254.0,4.0,234.0,1579.54
1579550.0,208.0,250.0,4.0,229.0,1579.55
1579560.0,215.0,259.0,4.0,236.0,1579.56
1579570.0,219.0,260.0,4.0,240.0,1579.57
1579580.0,212.0,255.0,3.0,230.0,1579.58
1579590.0,212.0,253.0,3.0,233.0,1579.59
1579600.0,209.0,252.0,4.0,230.0,1579.6
1579610.0,214.0,258.0,4.0,234.0,1579.61
1579620.0,219.0,261.0,3.0,238.0,1579.62
1579630.0,212.0,254.0,5.0,228.0,1579.63
1579640.0,213.0,256.0,4.0,231.0,1579.64
1579650.0,205.0,248.0,4.0,224.0,1579.65
1579660.0,213.0,257.0,4.0,234.0,1579.66
1579670.0,218.0,262.0,3.0,238.0,1579.67
1579680.0,211.0,250.0,4.0,229.0,1579.68
1579691.0,212.0,255.0,4.0,230.0,1579.691
1579701.0,212.0,255.0,4.0,232.0,1579.701
1579711.0,215.0,258.0,4.0,236.0,1579.711
1579721.0,217.0,258.0,3.0,235.0,1579.721
1579731.0,208.0,250.0,3.0,226.0,1579.731
1579741.0,212.0,255.0,4.0,230.0,1579.741
1579751.0,212.0,257.0,3.0,232.0,1579.751
1579761.0,216.0,257.0,5.0,235.0,1579.761
1579771.0,217.0,260.0,4.0,234.0,1579.771
1579781.0,210.0,251.0,4.0,226.0,1579.781
1579791.0,213.0,256.0,4.0,230.0,1579.791
1579801.0,214.0,258.0,4.0,232.0,1579.801
1579811.0,216.0,259.0,4.0,233.0,1579.811
1579821.0,219.0,263.0,4.0,237.0,1579.821
1579831.0,211.0,251.0,4.0,226.0,1579.831
1579841.0,212.0,255.0,4.0,229.0,1579.841
1579851.0,214.0,261.0,4.0,235.0,1579.851
1579862.0,216.0,258.0,3.0,235.0,1579.862
1579872.0,216.0,260.0,4.0,234.0,1579.872
1579882.0,207.0,249.0,4.0,224.0,1579.882
1579892.0,212.0,255.0,4.0,233.0,1579.892
1579902.0,218.0,263.0,2.0,239.0,1579.902
1579912.0,214.0,257.0,4.0,234.0,1579.912
1579922.0,215.0,257.0,3.0,235.0,1579.922
1579932.0,207.0,247.0,4.0,224.0,1579.932
1579942.0,212.0,256.0,4.0,233.0,1579.942
1579952.0,216.0,260.0,4.0,237.0,1579.952
1579962.0,216.0,257.0,4.0,235.0,1579.962
1579972.0,214.0,255.0,4.0,233.0,1579.972
1579982.0,207.0,249.0,4.0,226.0,1579.982
1579992.0,211.0,252.0,3.0,231.0,1579.992
1580002.0,217.0,261.0,4.0,238.0,1580.002
1580012.0,216.0,253.0,3.0,234.0,1580.012
1580022.0,216.0,257.0,4.0,233.0,1580.022
1580032.0,210.0,249.0,3.0,226.0,1580.032
1580042.0,212.0,254.0,4.0,232.0,1580.042
1580052.0,218.0,260.0,3.0,239.0,1580.052
1580062.0,215.0,258.0,4.0,234.0,1580.062
1580072.0,215.0,255.0,4.0,234.0,1580.072
1580082.0,209.0,251.0,5.0,227.0,1580.082
1580092.0,212.0,256.0,4.0,233.0,1580.092
1580102.0,218.0,261.0,4.0,239.0,1580.102
1580112.0,215.0,261.0,3.0,234.0,1580.112
1580122.0,217.0,256.0,4.0,234.0,1580.122
1580132.0,208.0,253.0,4.0,224.0,1580.132
1580142.0,213.0,258.0,5.0,232.0,1580.142
1580152.0,219.0,262.0,4.0,239.0,1580.152
1580162.0,216.0,262.0,4.0,234.0,1580.162
1580172.0,216.0,257.0,4.0,234.0,1580.172
1580182.0,208.0,250.0,3.0,226.0,1580.182
1580192.0,214.0,258.0,4.0,234.0,1580.192
1580203.0,219.0,261.0,4.0,240.0,1580.203
1580213.0,215.0,257.0,4.0,233.0,1580.213
1580223.0,214.0,257.0,4.0,233.0,1580.223
1580233.0,210.0,252.0,3.0,230.0,1580.233
1580243.0,217.0,262.0,3.0,237.0,1580.243
1580253.0,219.0,261.0,4.0,239.0,1580.253
1580263.0,215.0,256.0,3.0,232.0,1580.263
1580273.0,216.0,255.0,5.0,232.0,1580.273
1580283.0,212.0,251.0,4.0,231.0,1580.283
1580293.0,216.0,256.0,4.0,235.0,1580.293
1580303.0,220.0,262.0,3.0,239.0,1580.303
1580313.0,214.0,254.0,3.0,230.0,1580.313
1580323.0,215.0,256.0,3.0,232.0,1580.323
1580333.0,208.0,247.0,4.0,226.0,1580.333
1580343.0,216.0,257.0,4.0,235.0,1580.343
1580353.0,220.0,261.0,4.0,239.0,1580.353
1580363.0,213.0,252.0,3.0,230.0,1580.363
1580374.0,214.0,254.0,3.0,232.0,1580.374
1580384.0,213.0,252.0,5.0,232.0,1580.384
1580394.0,217.0,258.0,4.0,236.0,1580.394
1580404.0,219.0,256.0,4.0,236.0,1580.404
1580414.0,210.0,248.0,4.0,227.0,1580.414
1580424.0,214.0,252.0,4.0,232.0,1580.424
1580434.0,213.0,253.0,3.0,235.0,1580.434
1580444.0,218.0,258.0,4.0,236.0,1580.444
1580454.0,217.0,254.0,3.0,237.0,1580.454
1580464.0,212.0,249.0,4.0,229.0,1580.464
1580474.0,213.0,252.0,4.0,232.0,1580.474
1580484.0,214.0,254.0,3.0,235.0,1580.484
1580494.0,217.0,257.0,3.0,237.0,1580.494
1580504.0,219.0,257.0,3.0,239.0,1580.504
1580514.0,212.0,247.0,4.0,229.0,1580.514
1580524.0,214.0,252.0,4.0,231.0,1580.524
1580534.0,216.0,255.0,4.0,235.0,1580.534
1580544.0,218.0,259.0,4.0,238.0,1580.544
1580554.0,220.0,257.0,4.0,238.0,1580.554
1580564.0,211.0,251.0,3.0,229.0,1580.564
1580574.0,213.0,254.0,4.0,232.0,1580.574
1580584.0,216.0,257.0,4.0,237.0,1580.584
1580594.0,218.0,261.0,5.0,238.0,1580.594
1580604.0,219.0,258.0,4.0,238.0,1580.604
1580614.0,212.0,249.0,4.0,228.0,1580.614
1580624.0,213.0,253.0,3.0,233.0,1580.624
1580634.0,213.0,252.0,4.0,232.0,1580.634
1580644.0,218.0,259.0,3.0,237.0,1580.644
1580654.0,219.0,256.0,5.0,237.0,1580.654
1580664.0,211.0,247.0,3.0,228.0,1580.664
1580674.0,214.0,253.0,4.0,232.0,1580.674
1580684.0,215.0,253.0,4.0,234.0,1580.684
1580694.0,219.0,258.0,3.0,236.0,1580.694
1580704.0,218.0,254.0,4.0,235.0,1580.704
1580715.0,212.0,249.0,4.0,226.0,1580.715
1580725.0,214.0,252.0,4.0,233.0,1580.725
1580735.0,219.0,258.0,4.0,239.0,1580.735
1580745.0,217.0,254.0,4.0,235.0,1580.745
1580755.0,216.0,253.0,3.0,235.0,1580.755
1580765.0,211.0,246.0,4.0,226.0,1580.765
1580775.0,213.0,252.0,3.0,233.0,1580.775
1580785.0,221.0,257.0,5.0,239.0,1580.785
1580795.0,218.0,256.0,4.0,233.0,1580.795
1580805.0,219.0,254.0,4.0,236.0,1580.805
1580815.0,211.0,248.0,3.0,228.0,1580.815
1580825.0,215.0,254.0,4.0,233.0,1580.825
1580835.0,221.0,260.0,4.0,240.0,1580.835
1580845.0,219.0,258.0,4.0,235.0,1580.845
1580855.0,218.0,256.0,4.0,235.0,1580.855
1580865.0,211.0,248.0,4.0,226.0,1580.865
1580875.0,216.0,257.0,4.0,232.0,1580.875
1580886.0,221.0,260.0,3.0,239.0,1580.886
1580896.0,217.0,256.0,4.0,231.0,1580.896
1580906.0,216.0,254.0,4.0,233.0,1580.906
1580916.0,212.0,249.0,3.0,229.0,1580.916
1580926.0,218.0,259.0,2.0,237.0,1580.926
1580936.0,221.0,259.0,4.0,239.0,1580.936
1580946.0,216.0,256.0,3.0,233.0,1580.946
1580956.0,216.0,255.0,3.0,232.0,1580.956
1580966.0,212.0,252.0,4.0,230.0,1580.966
1580976.0,217.0,257.0,5.0,235.0,1580.976
1580986.0,221.0,259.0,4.0,239.0,1580.986
1580996.0,215.0,253.0,4.0,231.0,1580.996
1581006.0,216.0,257.0,3.0,234.0,1581.006
1581016.0,209.0,250.0,3.0,225.0,1581.016
1581026.0,217.0,258.0,3.0,235.0,1581.026
1581036.0,220.0,261.0,4.0,239.0,1581.036
1581046.0,215.0,252.0,4.0,230.0,1581.046
1581056.0,216.0,254.0,4.0,233.0,1581.056
1581066.0,210.0,248.0,4.0,226.0,1581.066
1581076.0,218.0,260.0,3.0,236.0,1581.076
1581086.0,221.0,259.0,4.0,239.0,1581.086
1581096.0,214.0,255.0,4.0,229.0,1581.096
1581106.0,217.0,255.0,5.0,233.0,1581.106
1581116.0,210.0,251.0,4.0,228.0,1581.116
1581126.0,218.0,263.0,4.0,236.0,1581.126
1581136.0,220.0,261.0,3.0,239.0,1581.136
1581146.0,216.0,258.0,4.0,233.0,1581.146
1581156.0,216.0,257.0,4.0,234.0,1581.156
1581166.0,212.0,252.0,4.0,229.0,1581.166
1581176.0,218.0,263.0,4.0,238.0,1581.176
1581186.0,220.0,261.0,3.0,240.0,1581.186
1581196.0,216.0,256.0,4.0,232.0,1581.196
1581206.0,216.0,257.0,4.0,233.0,1581.206
1581216.0,211.0,253.0,4.0,231.0,1581.216
1581227.0,220.0,262.0,4.0,238.0,1581.227
1581237.0,221.0,259.0,4.0,238.0,1581.237
1581247.0,212.0,252.0,4.0,228.0,1581.247
1581257.0,214.0,255.0,4.0,231.0,1581.257
1581267.0,217.0,259.0,3.0,237.0,1581.267
1581277.0,219.0,262.0,4.0,236.0,1581.277
1581287.0,220.0,260.0,4.0,236.0,1581.287
1581297.0,213.0,250.0,5.0,228.0,1581.297
1581307.0,214.0,253.0,3.0,232.0,1581.307
1581317.0,214.0,252.0,4.0,233.0,1581.317
1581327.0,220.0,260.0,3.0,238.0,1581.327
1581337.0,219.0,255.0,4.0,236.0,1581.337
1581347.0,212.0,250.0,3.0,228.0,1581.347
1581357.0,215.0,253.0,4.0,232.0,1581.357
1581367.0,214.0,253.0,4.0,233.0,1581.367
1581377.0,218.0,259.0,4.0,237.0,1581.377
1581387.0,219.0,252.0,4.0,236.0,1581.387
1581398.0,211.0,248.0,3.0,226.0,1581.398
1581408.0,214.0,252.0,4.0,232.0,1581.408
1581418.0,219.0,258.0,4.0,239.0,1581.418
1581428.0,218.0,259.0,4.0,234.0,1581.428
1581438.0,216.0,255.0,2.0,235.0,1581.438
1581448.0,211.0,251.0,4.0,227.0,1581.448
1581458.0,214.0,257.0,3.0,233.0,1581.458
1581468.0,220.0,262.0,4.0,238.0,1581.468
1581478.0,217.0,257.0,3.0,234.0,1581.478
1581488.0,218.0,255.0,5.0,235.0,1581.488
1581498.0,211.0,250.0,2.0,226.0,1581.498
1581508.0,214.0,256.0,4.0,232.0,1581.508
1581518.0,221.0,262.0,4.0,239.0,1581.518
1581528.0,218.0,261.0,4.0,234.0,1581.528
1581538.0,218.0,257.0,4.0,233.0,1581.538
1581548.0,210.0,251.0,5.0,224.0,1581.548
1581558.0,215.0,259.0,4.0,232.0,1581.558
1581568.0,218.0,260.0,4.0,236.0,1581.568
1581578.0,217.0,260.0,4.0,235.0,1581.578
1581588.0,216.0,255.0,3.0,234.0,1581.588
1581598.0,208.0,248.0,3.0,225.0,1581.598
1581608.0,213.0,257.0,4.0,234.0,1581.608
1581618.0,218.0,259.0,5.0,238.0,1581.618
1581628.0,215.0,259.0,2.0,234.0,1581.628
1581638.0,215.0,254.0,4.0,233.0,1581.638
1581648.0,208.0,249.0,3.0,226.0,1581.648
1581658.0,212.0,253.0,4.0,231.0,1581.658
1581668.0,217.0,258.0,4.0,238.0,1581.668
1581678.0,216.0,258.0,5.0,233.0,1581.678
1581688.0,215.0,254.0,4.0,234.0,1581.688
1581698.0,208.0,250.0,4.0,226.0,1581.698
1581708.0,212.0,255.0,3.0,233.0,1581.708
1581718.0,218.0,261.0,3.0,238.0,1581.718
1581728.0,215.0,258.0,3.0,233.0,1581.728
1581739.0,216.0,256.0,5.0,233.0,1581.739
1581749.0,209.0,248.0,4.0,226.0,1581.749
1581759.0,215.0,258.0,3.0,236.0,1581.759
1581769.0,220.0,257.0,4.0,240.0,1581.769
1581779.0,213.0,254.0,3.0,230.0,1581.779
1581789.0,216.0,256.0,4.0,233.0,1581.789
1581799.0,209.0,248.0,4.0,228.0,1581.799
1581809.0,218.0,259.0,4.0,237.0,1581.809
1581819.0,220.0,260.0,4.0,239.0,1581.819
1581829.0,214.0,256.0,3.0,232.0,1581.829
1581839.0,215.0,255.0,3.0,234.0,1581.839
1581849.0,209.0,249.0,4.0,228.0,1581.849
1581859.0,217.0,259.0,3.0,237.0,1581.859
1581869.0,220.0,259.0,5.0,239.0,1581.869
1581879.0,214.0,253.0,4.0,231.0,1581.879
1581889.0,214.0,254.0,3.0,233.0,1581.889
1581899.0,210.0,250.0,4.0,230.0,1581.899
1581910.0,217.0,260.0,3.0,236.0,1581.91
1581920.0,219.0,255.0,4.0,238.0,1581.92
1581930.0,209.0,248.0,4.0,229.0,1581.93
1581940.0,213.0,252.0,4.0,231.0,1581.94
1581950.0,215.0,256.0,3.0,236.0,1581.95
1581960.0,217.0,259.0,4.0,237.0,1581.96
1581970.0,218.0,257.0,3.0,237.0,1581.97
1581980.0,210.0,250.0,3.0,227.0,1581.98
1581990.0,212.0,251.0,3.0,231.0,1581.99
1582000.0,212.0,251.0,4.0,232.0,1582.0
1582010.0,218.0,261.0,4.0,237.0,1582.01
1582020.0,219.0,257.0,3.0,236.0,1582.02
1582030.0,210.0,252.0,4.0,228.0,1582.03
1582040.0,214.0,254.0,3.0,232.0,1582.04
1582050.0,213.0,255.0,3.0,232.0,1582.05
1582060.0,217.0,259.0,4.0,237.0,1582.06
1582070.0,218.0,255.0,4.0,236.0,1582.07
1582080.0,211.0,251.0,4.0,230.0,1582.08
1582090.0,213.0,253.0,4.0,233.0,1582.09
1582100.0,213.0,254.0,3.0,235.0,1582.1
1582110.0,217.0,256.0,4.0,237.0,1582.11
1582120.0,217.0,255.0,4.0,236.0,1582.12
1582130.0,212.0,250.0,5.0,230.0,1582.13
1582140.0,212.0,253.0,4.0,232.0,1582.14
1582150.0,214.0,256.0,4.0,235.0,1582.15
1582160.0,216.0,260.0,3.0,236.0,1582.16
1582170.0,219.0,258.0,3.0,238.0,1582.17
1582180.0,210.0,250.0,4.0,229.0,1582.18
1582190.0,214.0,253.0,5.0,231.0,1582.19
1582200.0,215.0,257.0,4.0,237.0,1582.2
1582210.0,217.0,262.0,4.0,237.0,1582.21
1582220.0,220.0,258.0,4.0,237.0,1582.22
1582230.0,210.0,253.0,3.0,228.0,1582.23
1582240.0,213.0,254.0,4.0,231.0,1582.24
1582251.0,217.0,259.0,4.0,236.0,1582.251
1582261.0,216.0,260.0,4.0,235.0,1582.261
1582271.0,216.0,256.0,4.0,234.0,1582.271
1582281.0,206.0,250.0,4.0,226.0,1582.281
1582291.0,213.0,260.0,3.0,234.0,1582.291
1582301.0,217.0,261.0,4.0,238.0,1582.301
1582311.0,214.0,262.0,4.0,235.0,1582.311
1582321.0,216.0,257.0,5.0,234.0,1582.321
1582331.0,207.0,252.0,2.0,226.0,1582.331
