time (ms),signal 0,signal 1,signal 2,signal 3,time (sec)
1550811.0,207.0,248.0,4.0,232.0,1550.811
1550821.0,211.0,254.0,4.0,237.0,1550.821
1550831.0,213.0,252.0,4.0,234.0,1550.831
1550841.0,204.0,243.0,4.0,228.0,1550.841
1550851.0,208.0,248.0,4.0,229.0,1550.851
1550861.0,207.0,249.0,3.0,231.0,1550.861
1550871.0,211.0,253.0,4.0,234.0,1550.871
1550881.0,212.0,249.0,3.0,233.0,1550.881
1550891.0,207.0,245.0,4.0,230.0,1550.891
1550901.0,207.0,246.0,4.0,230.0,1550.901
1550911.0,207.0,248.0,4.0,233.0,1550.911
1550921.0,211.0,253.0,3.0,237.0,1550.921
1550931.0,211.0,247.0,3.0,234.0,1550.931
1550941.0,206.0,245.0,3.0,229.0,1550.941
1550951.0,207.0,246.0,4.0,230.0,1550.951
1550961.0,209.0,249.0,4.0,234.0,1550.961
1550971.0,211.0,254.0,3.0,236.0,1550.971
1550981.0,213.0,251.0,4.0,237.0,1550.981
1550991.0,206.0,246.0,3.0,231.0,1550.991
1551001.0,208.0,249.0,4.0,231.0,1551.001
1551011.0,211.0,253.0,3.0,236.0,1551.011
1551021.0,214.0,256.0,5.0,238.0,1551.021
1551031.0,214.0,253.0,4.0,237.0,1551.031
1551041.0,207.0,248.0,4.0,229.0,1551.041
1551051.0,209.0,250.0,3.0,233.0,1551.051
1551062.0,212.0,253.0,4.0,238.0,1551.062
1551072.0,213.0,256.0,4.0,238.0,1551.072
1551082.0,214.0,252.0,5.0,235.0,1551.082
1551092.0,206.0,246.0,4.0,228.0,1551.092
1551102.0,210.0,252.0,3.0,237.0,1551.102
1551112.0,214.0,256.0,4.0,241.0,1551.112
1551122.0,214.0,254.0,3.0,239.0,1551.122
1551132.0,215.0,252.0,4.0,236.0,1551.132
1551142.0,206.0,246.0,4.0,229.0,1551.142
1551152.0,211.0,251.0,4.0,235.0,1551.152
1551162.0,214.0,257.0,4.0,241.0,1551.162
1551172.0,213.0,255.0,4.0,239.0,1551.172
1551182.0,213.0,254.0,3.0,237.0,1551.182
1551192.0,207.0,247.0,4.0,231.0,1551.192
1551202.0,209.0,251.0,4.0,236.0,1551.202
1551212.0,215.0,256.0,5.0,242.0,1551.212
1551222.0,212.0,253.0,4.0,240.0,1551.222
1551232.0,214.0,252.0,3.0,239.0,1551.232
1551242.0,207.0,244.0,3.0,233.0,1551.242
1551252.0,209.0,250.0,3.0,236.0,1551.252
1551262.0,216.0,255.0,4.0,242.0,1551.262
1551272.0,213.0,250.0,4.0,240.0,1551.272
1551282.0,215.0,251.0,4.0,239.0,1551.282
1551292.0,206.0,243.0,4.0,233.0,1551.292
1551302.0,210.0,249.0,4.0,239.0,1551.302
1551312.0,217.0,256.0,3.0,244.0,1551.312
1551322.0,214.0,252.0,4.0,242.0,1551.322
1551332.0,213.0,251.0,3.0,239.0,1551.332
1551342.0,207.0,244.0,4.0,232.0,1551.342
1551352.0,210.0,253.0,4.0,240.0,1551.352
1551362.0,214.0,255.0,4.0,242.0,1551.362
1551372.0,214.0,256.0,3.0,242.0,1551.372
1551382.0,214.0,250.0,4.0,239.0,1551.382
1551392.0,205.0,245.0,4.0,232.0,1551.392
1551403.0,212.0,254.0,3.0,241.0,1551.403
1551413.0,217.0,258.0,4.0,245.0,1551.413
1551423.0,211.0,251.0,3.0,240.0,1551.423
1551433.0,212.0,256.0,3.0,240.0,1551.433
1551443.0,208.0,252.0,3.0,238.0,1551.443
1551453.0,213.0,257.0,4.0,242.0,1551.453
1551463.0,218.0,259.0,4.0,245.0,1551.463
1551473.0,213.0,253.0,4.0,240.0,1551.473
1551483.0,212.0,253.0,3.0,240.0,1551.483
1551493.0,206.0,245.0,3.0,235.0,1551.493
1551503.0,214.0,257.0,3.0,244.0,1551.503
1551513.0,218.0,257.0,4.0,246.0,1551.513
1551523.0,211.0,251.0,4.0,240.0,1551.523
1551533.0,215.0,256.0,5.0,240.0,1551.533
1551543.0,206.0,247.0,4.0,235.0,1551.543
1551553.0,214.0,256.0,4.0,244.0,1551.553
1551563.0,218.0,258.0,3.0,247.0,1551.563
1551574.0,211.0,254.0,4.0,240.0,1551.574
1551584.0,211.0,255.0,3.0,239.0,1551.584
1551594.0,212.0,255.0,4.0,240.0,1551.594
1551604.0,216.0,264.0,2.0,244.0,1551.604
1551614.0,216.0,258.0,3.0,240.0,1551.614
1551624.0,211.0,259.0,3.0,238.0,1551.624
1551634.0,212.0,258.0,3.0,238.0,1551.634
1551644.0,213.0,258.0,3.0,240.0,1551.644
1551654.0,216.0,263.0,4.0,243.0,1551.654
1551664.0,219.0,258.0,4.0,242.0,1551.664
1551674.0,210.0,253.0,3.0,235.0,1551.674
1551684.0,212.0,253.0,4.0,236.0,1551.684
1551694.0,214.0,257.0,3.0,240.0,1551.694
1551704.0,216.0,262.0,4.0,243.0,1551.704
1551714.0,217.0,259.0,3.0,241.0,1551.714
1551724.0,211.0,254.0,5.0,235.0,1551.724
1551734.0,212.0,257.0,3.0,236.0,1551.734
1551744.0,210.0,254.0,4.0,235.0,1551.744
1551754.0,218.0,264.0,3.0,244.0,1551.754
1551764.0,219.0,258.0,4.0,240.0,1551.764
1551774.0,211.0,254.0,4.0,235.0,1551.774
1551784.0,214.0,257.0,4.0,235.0,1551.784
1551794.0,213.0,256.0,4.0,237.0,1551.794
1551804.0,216.0,264.0,4.0,243.0,1551.804
1551814.0,217.0,258.0,3.0,241.0,1551.814
1551824.0,210.0,254.0,3.0,236.0,1551.824
1551834.0,213.0,256.0,4.0,238.0,1551.834
1551844.0,212.0,257.0,4.0,239.0,1551.844
1551854.0,218.0,265.0,4.0,244.0,1551.854
1551864.0,216.0,258.0,4.0,241.0,1551.864
1551874.0,212.0,260.0,3.0,237.0,1551.874
1551884.0,213.0,259.0,3.0,239.0,1551.884
1551894.0,213.0,260.0,4.0,240.0,1551.894
1551904.0,217.0,269.0,3.0,244.0,1551.904
1551915.0,218.0,262.0,5.0,241.0,1551.915
1551925.0,210.0,259.0,3.0,234.0,1551.925
1551935.0,213.0,262.0,4.0,238.0,1551.935
1551945.0,219.0,269.0,3.0,245.0,1551.945
1551955.0,216.0,267.0,4.0,240.0,1551.955
1551965.0,218.0,261.0,5.0,240.0,1551.965
1551975.0,209.0,256.0,4.0,234.0,1551.975
1551985.0,213.0,260.0,3.0,239.0,1551.985
1551995.0,218.0,264.0,4.0,244.0,1551.995
1552005.0,217.0,269.0,4.0,244.0,1552.005
1552015.0,216.0,264.0,3.0,240.0,1552.015
1552025.0,210.0,257.0,3.0,233.0,1552.025
1552035.0,213.0,263.0,4.0,240.0,1552.035
1552045.0,218.0,265.0,4.0,243.0,1552.045
1552055.0,218.0,268.0,4.0,243.0,1552.055
1552065.0,217.0,260.0,4.0,240.0,1552.065
1552075.0,209.0,257.0,3.0,235.0,1552.075
1552086.0,214.0,263.0,3.0,241.0,1552.086
1552096.0,220.0,264.0,4.0,245.0,1552.096
1552106.0,215.0,263.0,5.0,240.0,1552.106
1552116.0,215.0,260.0,4.0,239.0,1552.116
1552126.0,210.0,256.0,4.0,236.0,1552.126
1552136.0,215.0,266.0,3.0,241.0,1552.136
1552146.0,220.0,267.0,3.0,243.0,1552.146
1552156.0,215.0,264.0,5.0,239.0,1552.156
1552166.0,215.0,263.0,5.0,238.0,1552.166
1552176.0,209.0,257.0,3.0,233.0,1552.176
1552186.0,215.0,266.0,3.0,243.0,1552.186
1552196.0,220.0,265.0,3.0,246.0,1552.196
1552206.0,214.0,260.0,3.0,242.0,1552.206
1552216.0,216.0,260.0,4.0,241.0,1552.216
1552226.0,209.0,252.0,4.0,236.0,1552.226
1552236.0,217.0,261.0,4.0,244.0,1552.236
1552246.0,220.0,262.0,3.0,247.0,1552.246
1552256.0,217.0,261.0,4.0,244.0,1552.256
1552266.0,216.0,259.0,3.0,242.0,1552.266
1552276.0,209.0,250.0,4.0,236.0,1552.276
1552286.0,216.0,262.0,3.0,246.0,1552.286
1552296.0,220.0,261.0,5.0,246.0,1552.296
1552306.0,215.0,261.0,4.0,242.0,1552.306
1552316.0,215.0,258.0,4.0,241.0,1552.316
1552326.0,210.0,253.0,4.0,237.0,1552.326
1552336.0,218.0,264.0,4.0,244.0,1552.336
1552346.0,220.0,263.0,4.0,244.0,1552.346
1552356.0,216.0,262.0,4.0,240.0,1552.356
1552366.0,216.0,259.0,4.0,238.0,1552.366
1552376.0,210.0,254.0,2.0,235.0,1552.376
1552386.0,215.0,260.0,3.0,240.0,1552.386
1552396.0,221.0,263.0,3.0,244.0,1552.396
1552406.0,216.0,258.0,4.0,240.0,1552.406
1552416.0,216.0,258.0,3.0,238.0,1552.416
1552427.0,213.0,255.0,4.0,236.0,1552.427
1552437.0,219.0,266.0,2.0,244.0,1552.437
1552447.0,220.0,259.0,3.0,242.0,1552.447
1552457.0,211.0,257.0,3.0,237.0,1552.457
1552467.0,213.0,257.0,4.0,238.0,1552.467
1552477.0,212.0,256.0,4.0,239.0,1552.477
1552487.0,218.0,266.0,4.0,245.0,1552.487
1552497.0,219.0,259.0,4.0,243.0,1552.497
1552507.0,211.0,255.0,4.0,236.0,1552.507
1552517.0,215.0,257.0,4.0,239.0,1552.517
1552527.0,212.0,258.0,3.0,239.0,1552.527
1552537.0,218.0,266.0,4.0,245.0,1552.537
1552547.0,218.0,259.0,3.0,242.0,1552.547
1552557.0,214.0,259.0,4.0,238.0,1552.557
1552567.0,214.0,259.0,4.0,239.0,1552.567
1552577.0,213.0,259.0,4.0,240.0,1552.577
1552587.0,218.0,266.0,3.0,246.0,1552.587
1552598.0,217.0,258.0,4.0,241.0,1552.598
1552608.0,209.0,252.0,4.0,235.0,1552.608
1552618.0,214.0,256.0,4.0,238.0,1552.618
1552628.0,218.0,261.0,4.0,244.0,1552.628
1552638.0,217.0,259.0,4.0,240.0,1552.638
1552648.0,218.0,257.0,3.0,240.0,1552.648
1552658.0,211.0,250.0,4.0,232.0,1552.658
1552668.0,215.0,255.0,4.0,237.0,1552.668
1552678.0,221.0,259.0,4.0,243.0,1552.678
1552688.0,219.0,261.0,4.0,242.0,1552.688
1552698.0,218.0,255.0,3.0,239.0,1552.698
1552708.0,211.0,251.0,4.0,233.0,1552.708
1552718.0,215.0,257.0,3.0,239.0,1552.718
1552728.0,218.0,259.0,4.0,243.0,1552.728
1552738.0,220.0,261.0,4.0,243.0,1552.738
1552748.0,219.0,258.0,4.0,240.0,1552.748
1552758.0,210.0,246.0,4.0,235.0,1552.758
1552768.0,214.0,247.0,3.0,235.0,1552.768
1552778.0,222.0,250.0,3.0,239.0,1552.778
1552788.0,219.0,254.0,4.0,236.0,1552.788
1552798.0,223.0,251.0,3.0,233.0,1552.798
1552808.0,212.0,241.0,4.0,223.0,1552.808
1552818.0,215.0,248.0,4.0,229.0,1552.818
1552828.0,222.0,256.0,3.0,235.0,1552.828
1552838.0,225.0,261.0,4.0,236.0,1552.838
1552848.0,223.0,257.0,4.0,232.0,1552.848
1552858.0,218.0,257.0,4.0,228.0,1552.858
1552868.0,221.0,252.0,4.0,230.0,1552.868
1552878.0,230.0,257.0,4.0,232.0,1552.878
1552888.0,228.0,259.0,3.0,228.0,1552.888
1552898.0,239.0,265.0,4.0,235.0,1552.898
1552908.0,226.0,253.0,3.0,222.0,1552.908
1552918.0,224.0,259.0,4.0,228.0,1552.918
1552928.0,234.0,268.0,3.0,244.0,1552.928
1552939.0,236.0,265.0,4.0,245.0,1552.939
1552949.0,234.0,264.0,3.0,249.0,1552.949
1552959.0,227.0,251.0,4.0,239.0,1552.959
1552969.0,232.0,266.0,3.0,245.0,1552.969
1552979.0,238.0,272.0,4.0,252.0,1552.979
1552989.0,234.0,267.0,3.0,241.0,1552.989
1552999.0,235.0,267.0,4.0,242.0,1552.999
1553009.0,228.0,258.0,4.0,232.0,1553.009
1553019.0,233.0,265.0,3.0,243.0,1553.019
1553029.0,237.0,266.0,4.0,247.0,1553.029
1553039.0,243.0,265.0,3.0,237.0,1553.039
1553049.0,239.0,263.0,4.0,234.0,1553.049
1553059.0,232.0,262.0,4.0,225.0,1553.059
1553069.0,234.0,263.0,4.0,230.0,1553.069
1553079.0,236.0,268.0,4.0,235.0,1553.079
1553089.0,233.0,261.0,3.0,227.0,1553.089
1553099.0,234.0,262.0,3.0,230.0,1553.099
1553110.0,232.0,260.0,4.0,226.0,1553.11
1553120.0,236.0,269.0,4.0,234.0,1553.12
1553130.0,238.0,270.0,5.0,234.0,1553.13
1553140.0,231.0,267.0,4.0,226.0,1553.14
1553150.0,232.0,265.0,4.0,231.0,1553.15
1553160.0,232.0,268.0,3.0,231.0,1553.16
1553170.0,235.0,271.0,3.0,236.0,1553.17
1553180.0,237.0,270.0,5.0,235.0,1553.18
1553190.0,229.0,263.0,4.0,227.0,1553.19
1553200.0,230.0,263.0,4.0,231.0,1553.2
1553210.0,224.0,260.0,3.0,231.0,1553.21
1553220.0,230.0,269.0,3.0,237.0,1553.22
1553230.0,233.0,265.0,4.0,236.0,1553.23
1553240.0,227.0,260.0,4.0,227.0,1553.24
1553250.0,227.0,260.0,3.0,230.0,1553.25
1553260.0,234.0,268.0,4.0,235.0,1553.26
1553270.0,240.0,279.0,3.0,240.0,1553.27
1553280.0,239.0,273.0,4.0,240.0,1553.28
1553290.0,231.0,266.0,3.0,232.0,1553.29
1553300.0,230.0,264.0,4.0,234.0,1553.3
1553310.0,230.0,267.0,3.0,241.0,1553.31
1553320.0,237.0,273.0,5.0,243.0,1553.32
1553330.0,241.0,275.0,4.0,247.0,1553.33
1553340.0,233.0,270.0,3.0,237.0,1553.34
1553350.0,233.0,275.0,3.0,241.0,1553.35
1553360.0,237.0,279.0,3.0,244.0,1553.36
1553370.0,238.0,282.0,4.0,247.0,1553.37
1553380.0,238.0,280.0,5.0,246.0,1553.38
1553390.0,230.0,273.0,4.0,236.0,1553.39
1553400.0,226.0,270.0,4.0,237.0,1553.4
1553410.0,224.0,265.0,3.0,236.0,1553.41
1553420.0,234.0,276.0,3.0,244.0,1553.42
1553430.0,238.0,272.0,4.0,247.0,1553.43
1553440.0,229.0,269.0,3.0,238.0,1553.44
1553451.0,231.0,270.0,5.0,240.0,1553.451
1553461.0,232.0,277.0,4.0,245.0,1553.461
1553471.0,235.0,279.0,4.0,245.0,1553.471
1553481.0,235.0,277.0,4.0,244.0,1553.481
1553491.0,228.0,270.0,3.0,234.0,1553.491
1553501.0,230.0,273.0,4.0,240.0,1553.501
1553511.0,236.0,282.0,5.0,248.0,1553.511
1553521.0,237.0,281.0,4.0,245.0,1553.521
1553531.0,234.0,276.0,3.0,243.0,1553.531
1553541.0,230.0,275.0,3.0,241.0,1553.541
1553551.0,235.0,280.0,4.0,245.0,1553.551
1553561.0,239.0,282.0,4.0,250.0,1553.561
1553571.0,236.0,278.0,4.0,246.0,1553.571
1553581.0,237.0,273.0,4.0,244.0,1553.581
1553591.0,228.0,270.0,4.0,238.0,1553.591
1553601.0,229.0,273.0,4.0,239.0,1553.601
1553611.0,237.0,284.0,3.0,248.0,1553.611
1553622.0,235.0,282.0,3.0,244.0,1553.622
1553632.0,236.0,279.0,4.0,242.0,1553.632
1553642.0,229.0,273.0,5.0,235.0,1553.642
1553652.0,233.0,282.0,4.0,244.0,1553.652
1553662.0,235.0,280.0,4.0,247.0,1553.662
1553672.0,232.0,278.0,3.0,245.0,1553.672
1553682.0,230.0,275.0,4.0,240.0,1553.682
1553692.0,223.0,266.0,4.0,234.0,1553.692
1553702.0,231.0,279.0,4.0,243.0,1553.702
1553712.0,237.0,281.0,4.0,247.0,1553.712
1553722.0,233.0,277.0,3.0,244.0,1553.722
1553732.0,233.0,279.0,4.0,243.0,1553.732
1553742.0,224.0,269.0,3.0,239.0,1553.742
1553752.0,231.0,278.0,4.0,246.0,1553.752
1553762.0,240.0,284.0,4.0,250.0,1553.762
1553772.0,235.0,279.0,4.0,246.0,1553.772
1553782.0,233.0,276.0,4.0,243.0,1553.782
1553792.0,225.0,269.0,4.0,238.0,1553.792
1553802.0,231.0,278.0,3.0,246.0,1553.802
1553812.0,241.0,284.0,4.0,252.0,1553.812
1553822.0,233.0,278.0,4.0,247.0,1553.822
1553832.0,235.0,278.0,4.0,247.0,1553.832
1553842.0,228.0,270.0,4.0,240.0,1553.842
1553852.0,233.0,277.0,3.0,250.0,1553.852
1553862.0,245.0,285.0,3.0,256.0,1553.862
1553872.0,237.0,276.0,4.0,250.0,1553.872
1553882.0,241.0,279.0,4.0,250.0,1553.882
1553892.0,232.0,268.0,4.0,245.0,1553.892
1553902.0,239.0,278.0,4.0,254.0,1553.902
1553912.0,241.0,279.0,4.0,255.0,1553.912
1553922.0,237.0,278.0,4.0,256.0,1553.922
1553932.0,239.0,278.0,3.0,252.0,1553.932
1553942.0,230.0,268.0,3.0,246.0,1553.942
1553952.0,239.0,281.0,3.0,257.0,1553.952
1553963.0,240.0,280.0,4.0,253.0,1553.963
1553973.0,230.0,273.0,4.0,251.0,1553.973
1553983.0,229.0,272.0,4.0,247.0,1553.983
1553993.0,227.0,271.0,3.0,250.0,1553.993
1554003.0,232.0,275.0,4.0,254.0,1554.003
1554013.0,233.0,276.0,3.0,251.0,1554.013
1554023.0,229.0,268.0,5.0,247.0,1554.023
1554033.0,229.0,268.0,4.0,244.0,1554.033
1554043.0,228.0,269.0,3.0,250.0,1554.043
1554053.0,234.0,277.0,3.0,257.0,1554.053
1554063.0,235.0,273.0,4.0,254.0,1554.063
1554073.0,229.0,266.0,3.0,252.0,1554.073
1554083.0,230.0,267.0,4.0,251.0,1554.083
1554093.0,230.0,267.0,4.0,251.0,1554.093
1554103.0,238.0,280.0,3.0,261.0,1554.103
1554113.0,237.0,272.0,4.0,256.0,1554.113
1554123.0,231.0,270.0,3.0,254.0,1554.123
1554134.0,232.0,273.0,3.0,253.0,1554.134
1554144.0,237.0,280.0,4.0,257.0,1554.144
1554154.0,240.0,283.0,4.0,261.0,1554.154
1554164.0,236.0,278.0,4.0,257.0,1554.164
1554174.0,228.0,270.0,4.0,252.0,1554.174
1554184.0,228.0,270.0,3.0,254.0,1554.184
1554194.0,230.0,270.0,4.0,258.0,1554.194
1554204.0,230.0,271.0,3.0,261.0,1554.204
1554214.0,230.0,266.0,5.0,254.0,1554.214
1554224.0,224.0,262.0,4.0,255.0,1554.224
1554234.0,226.0,266.0,4.0,253.0,1554.234
1554244.0,230.0,271.0,3.0,261.0,1554.244
1554254.0,227.0,270.0,3.0,260.0,1554.254
1554264.0,229.0,266.0,3.0,254.0,1554.264
1554274.0,224.0,266.0,3.0,255.0,1554.274
1554284.0,226.0,269.0,3.0,255.0,1554.284
1554294.0,230.0,271.0,2.0,261.0,1554.294
1554304.0,228.0,269.0,4.0,261.0,1554.304
1554314.0,227.0,264.0,4.0,256.0,1554.314
1554324.0,220.0,260.0,4.0,255.0,1554.324
1554334.0,223.0,264.0,4.0,256.0,1554.334
1554344.0,231.0,270.0,5.0,263.0,1554.344
1554354.0,229.0,274.0,2.0,265.0,1554.354
1554364.0,229.0,269.0,4.0,258.0,1554.364
1554374.0,222.0,267.0,3.0,257.0,1554.374
1554384.0,225.0,271.0,3.0,258.0,1554.384
1554394.0,228.0,273.0,3.0,262.0,1554.394
1554404.0,230.0,278.0,4.0,267.0,1554.404
1554414.0,229.0,270.0,3.0,260.0,1554.414
1554424.0,221.0,269.0,4.0,259.0,1554.424
1554434.0,226.0,272.0,4.0,260.0,1554.434
1554444.0,228.0,277.0,3.0,265.0,1554.444
1554454.0,230.0,279.0,4.0,269.0,1554.454
1554464.0,228.0,273.0,3.0,261.0,1554.464
1554475.0,221.0,267.0,4.0,262.0,1554.475
1554485.0,224.0,274.0,4.0,268.0,1554.485
1554495.0,231.0,276.0,4.0,270.0,1554.495
1554505.0,227.0,276.0,3.0,272.0,1554.505
1554515.0,227.0,272.0,4.0,264.0,1554.515
1554525.0,219.0,267.0,4.0,265.0,1554.525
1554535.0,225.0,274.0,4.0,271.0,1554.535
1554545.0,230.0,276.0,4.0,273.0,1554.545
1554555.0,224.0,273.0,3.0,278.0,1554.555
1554565.0,227.0,270.0,4.0,272.0,1554.565
1554575.0,219.0,263.0,4.0,270.0,1554.575
1554585.0,225.0,272.0,3.0,278.0,1554.585
1554595.0,229.0,273.0,4.0,277.0,1554.595
1554605.0,227.0,275.0,4.0,278.0,1554.605
1554615.0,225.0,269.0,3.0,268.0,1554.615
1554625.0,217.0,265.0,4.0,265.0,1554.625
1554635.0,224.0,276.0,3.0,272.0,1554.635
1554646.0,230.0,276.0,4.0,270.0,1554.646
1554656.0,225.0,274.0,4.0,272.0,1554.656
1554666.0,228.0,277.0,4.0,267.0,1554.666
1554676.0,228.0,278.0,4.0,272.0,1554.676
1554686.0,232.0,285.0,3.0,278.0,1554.686
1554696.0,233.0,280.0,3.0,273.0,1554.696
1554706.0,225.0,273.0,4.0,269.0,1554.706
1554716.0,225.0,272.0,4.0,267.0,1554.716
1554726.0,225.0,272.0,5.0,269.0,1554.726
1554736.0,226.0,276.0,3.0,271.0,1554.736
1554746.0,227.0,271.0,4.0,266.0,1554.746
1554756.0,221.0,266.0,4.0,266.0,1554.756
1554766.0,220.0,264.0,3.0,261.0,1554.766
1554776.0,217.0,260.0,4.0,261.0,1554.776
1554786.0,222.0,270.0,4.0,268.0,1554.786
1554796.0,225.0,264.0,4.0,265.0,1554.796
1554806.0,218.0,266.0,4.0,264.0,1554.806
1554816.0,221.0,264.0,4.0,261.0,1554.816
1554826.0,217.0,264.0,3.0,260.0,1554.826
1554836.0,224.0,272.0,3.0,268.0,1554.836
1554846.0,225.0,267.0,4.0,263.0,1554.846
1554856.0,219.0,264.0,5.0,261.0,1554.856
1554866.0,220.0,266.0,2.0,259.0,1554.866
1554876.0,217.0,261.0,4.0,260.0,1554.876
1554886.0,224.0,269.0,3.0,267.0,1554.886
1554896.0,225.0,264.0,4.0,258.0,1554.896
1554906.0,220.0,261.0,4.0,260.0,1554.906
1554916.0,219.0,262.0,4.0,257.0,1554.916
1554926.0,217.0,260.0,4.0,258.0,1554.926
1554936.0,222.0,267.0,4.0,263.0,1554.936
1554946.0,224.0,265.0,3.0,260.0,1554.946
1554956.0,217.0,259.0,3.0,257.0,1554.956
1554966.0,218.0,258.0,4.0,254.0,1554.966
1554976.0,216.0,258.0,4.0,257.0,1554.976
1554987.0,221.0,266.0,4.0,261.0,1554.987
1554997.0,219.0,260.0,4.0,254.0,1554.997
1555007.0,212.0,256.0,4.0,251.0,1555.007
1555017.0,214.0,260.0,3.0,253.0,1555.017
1555027.0,219.0,264.0,4.0,258.0,1555.027
1555037.0,219.0,266.0,3.0,258.0,1555.037
1555047.0,220.0,260.0,4.0,253.0,1555.047
1555057.0,212.0,255.0,4.0,248.0,1555.057
1555067.0,214.0,259.0,4.0,250.0,1555.067
1555077.0,217.0,261.0,3.0,254.0,1555.077
1555087.0,219.0,265.0,3.0,256.0,1555.087
1555097.0,218.0,258.0,4.0,250.0,1555.097
1555107.0,212.0,255.0,4.0,245.0,1555.107
1555117.0,216.0,258.0,4.0,247.0,1555.117
1555127.0,218.0,261.0,4.0,250.0,1555.127
1555137.0,220.0,265.0,4.0,252.0,1555.137
1555147.0,218.0,259.0,4.0,247.0,1555.147
1555158.0,211.0,252.0,4.0,241.0,1555.158
1555168.0,215.0,260.0,4.0,245.0,1555.168
1555178.0,222.0,263.0,4.0,249.0,1555.178
1555188.0,217.0,259.0,3.0,246.0,1555.188
1555198.0,216.0,257.0,4.0,243.0,1555.198
1555208.0,210.0,251.0,3.0,238.0,1555.208
1555218.0,215.0,256.0,4.0,244.0,1555.218
1555228.0,221.0,261.0,4.0,247.0,1555.228
1555238.0,216.0,256.0,5.0,242.0,1555.238
1555248.0,216.0,260.0,3.0,241.0,1555.248
1555258.0,210.0,251.0,4.0,233.0,1555.258
1555268.0,216.0,261.0,3.0,243.0,1555.268
1555278.0,221.0,264.0,4.0,244.0,1555.278
1555288.0,218.0,260.0,3.0,242.0,1555.288
1555298.0,217.0,257.0,4.0,239.0,1555.298
1555308.0,211.0,249.0,4.0,232.0,1555.308
1555318.0,216.0,257.0,4.0,240.0,1555.318
1555328.0,220.0,261.0,4.0,244.0,1555.328
1555338.0,217.0,261.0,3.0,240.0,1555.338
1555348.0,217.0,258.0,4.0,239.0,1555.348
1555358.0,209.0,251.0,4.0,231.0,1555.358
1555368.0,218.0,260.0,5.0,241.0,1555.368
1555378.0,219.0,261.0,2.0,244.0,1555.378
1555388.0,216.0,257.0,4.0,238.0,1555.388
1555398.0,215.0,257.0,3.0,239.0,1555.398
1555408.0,208.0,249.0,3.0,230.0,1555.408
1555418.0,213.0,256.0,3.0,236.0,1555.418
1555428.0,219.0,260.0,5.0,242.0,1555.428
1555438.0,215.0,257.0,4.0,235.0,1555.438
1555448.0,215.0,256.0,4.0,235.0,1555.448
1555458.0,208.0,248.0,3.0,228.0,1555.458
1555468.0,213.0,256.0,3.0,235.0,1555.468
1555478.0,219.0,260.0,3.0,240.0,1555.478
1555488.0,213.0,258.0,4.0,234.0,1555.488
1555499.0,214.0,256.0,4.0,235.0,1555.499
1555509.0,208.0,254.0,4.0,231.0,1555.509
1555519.0,216.0,264.0,4.0,238.0,1555.519
1555529.0,219.0,262.0,3.0,241.0,1555.529
1555539.0,210.0,253.0,4.0,230.0,1555.539
1555549.0,213.0,257.0,3.0,234.0,1555.549
1555559.0,211.0,254.0,5.0,230.0,1555.559
1555569.0,216.0,262.0,4.0,237.0,1555.569
1555579.0,218.0,258.0,4.0,239.0,1555.579
1555589.0,212.0,256.0,4.0,230.0,1555.589
1555599.0,214.0,256.0,3.0,231.0,1555.599
1555609.0,210.0,254.0,4.0,229.0,1555.609
1555619.0,217.0,262.0,4.0,234.0,1555.619
1555629.0,221.0,262.0,4.0,239.0,1555.629
1555639.0,212.0,256.0,4.0,229.0,1555.639
1555649.0,214.0,257.0,4.0,232.0,1555.649
1555659.0,211.0,257.0,3.0,232.0,1555.659
1555670.0,216.0,263.0,3.0,236.0,1555.67
1555680.0,218.0,256.0,4.0,238.0,1555.68
1555690.0,210.0,251.0,4.0,226.0,1555.69
1555700.0,212.0,255.0,2.0,231.0,1555.7
1555710.0,217.0,259.0,4.0,238.0,1555.71
1555720.0,217.0,261.0,3.0,235.0,1555.72
1555730.0,218.0,259.0,3.0,236.0,1555.73
1555740.0,209.0,251.0,4.0,224.0,1555.74
1555750.0,212.0,257.0,5.0,230.0,1555.75
1555760.0,214.0,258.0,4.0,234.0,1555.76
1555770.0,215.0,262.0,4.0,234.0,1555.77
1555780.0,217.0,258.0,3.0,238.0,1555.78
1555790.0,208.0,251.0,3.0,224.0,1555.79
1555800.0,212.0,254.0,3.0,231.0,1555.8
1555810.0,214.0,256.0,4.0,235.0,1555.81
1555820.0,216.0,259.0,4.0,233.0,1555.82
1555830.0,216.0,255.0,4.0,236.0,1555.83
1555840.0,210.0,252.0,4.0,227.0,1555.84
1555850.0,211.0,256.0,3.0,231.0,1555.85
1555860.0,215.0,259.0,3.0,236.0,1555.86
1555870.0,215.0,261.0,3.0,233.0,1555.87
1555880.0,216.0,257.0,4.0,236.0,1555.88
1555890.0,209.0,252.0,4.0,226.0,1555.89
1555900.0,212.0,255.0,4.0,231.0,1555.9
1555910.0,217.0,262.0,3.0,238.0,1555.91
1555920.0,216.0,260.0,3.0,232.0,1555.92
1555930.0,219.0,260.0,3.0,238.0,1555.93
1555940.0,210.0,253.0,4.0,225.0,1555.94
1555950.0,213.0,256.0,4.0,230.0,1555.95
1555960.0,217.0,261.0,3.0,238.0,1555.96
1555970.0,217.0,263.0,4.0,235.0,1555.97
1555980.0,219.0,260.0,4.0,237.0,1555.98
1555990.0,210.0,252.0,4.0,224.0,1555.99
1556000.0,212.0,255.0,4.0,231.0,1556.0
1556011.0,219.0,259.0,4.0,238.0,1556.011
1556021.0,215.0,259.0,3.0,232.0,1556.021
1556031.0,216.0,257.0,4.0,235.0,1556.031
1556041.0,207.0,251.0,3.0,225.0,1556.041
1556051.0,214.0,260.0,4.0,234.0,1556.051
1556061.0,217.0,263.0,4.0,239.0,1556.061
1556071.0,216.0,260.0,5.0,230.0,1556.071
1556081.0,215.0,258.0,4.0,235.0,1556.081
1556091.0,208.0,250.0,4.0,225.0,1556.091
1556101.0,213.0,258.0,3.0,233.0,1556.101
1556111.0,219.0,272.0,3.0,240.0,1556.111
1556121.0,213.0,258.0,4.0,231.0,1556.121
1556131.0,214.0,268.0,4.0,234.0,1556.131
1556141.0,208.0,255.0,4.0,226.0,1556.141
1556151.0,212.0,262.0,4.0,233.0,1556.151
1556161.0,218.0,278.0,3.0,242.0,1556.161
1556171.0,212.0,260.0,3.0,232.0,1556.171
1556182.0,213.0,268.0,3.0,235.0,1556.182
1556192.0,207.0,260.0,3.0,228.0,1556.192
1556202.0,216.0,272.0,4.0,236.0,1556.202
1556212.0,218.0,267.0,3.0,241.0,1556.212
1556222.0,211.0,264.0,4.0,227.0,1556.222
1556232.0,214.0,263.0,3.0,233.0,1556.232
1556242.0,208.0,261.0,4.0,228.0,1556.242
1556252.0,216.0,272.0,4.0,234.0,1556.252
1556262.0,220.0,266.0,5.0,238.0,1556.262
1556272.0,213.0,268.0,3.0,228.0,1556.272
1556282.0,214.0,266.0,3.0,233.0,1556.282
1556292.0,210.0,263.0,3.0,231.0,1556.292
1556302.0,216.0,270.0,4.0,235.0,1556.302
1556312.0,218.0,268.0,4.0,240.0,1556.312
1556322.0,212.0,263.0,4.0,229.0,1556.322
1556332.0,213.0,260.0,4.0,233.0,1556.332
1556342.0,210.0,257.0,4.0,232.0,1556.342
1556352.0,214.0,264.0,3.0,235.0,1556.352
1556362.0,219.0,262.0,3.0,241.0,1556.362
1556372.0,212.0,262.0,4.0,228.0,1556.372
1556382.0,213.0,260.0,4.0,232.0,1556.382
1556392.0,213.0,259.0,4.0,233.0,1556.392
1556402.0,215.0,265.0,4.0,235.0,1556.402
1556412.0,220.0,264.0,4.0,240.0,1556.412
1556422.0,212.0,259.0,3.0,228.0,1556.422
1556432.0,214.0,258.0,4.0,233.0,1556.432
1556442.0,208.0,252.0,4.0,229.0,1556.442
1556452.0,217.0,263.0,5.0,237.0,1556.452
1556462.0,220.0,262.0,3.0,242.0,1556.462
1556472.0,211.0,255.0,3.0,229.0,1556.472
1556482.0,215.0,257.0,4.0,235.0,1556.482
1556492.0,208.0,253.0,4.0,229.0,1556.492
1556502.0,217.0,262.0,3.0,237.0,1556.502
1556512.0,220.0,265.0,4.0,240.0,1556.512
1556523.0,212.0,252.0,3.0,228.0,1556.523
1556533.0,213.0,256.0,3.0,232.0,1556.533
1556543.0,215.0,258.0,4.0,237.0,1556.543
1556553.0,217.0,261.0,3.0,235.0,1556.553
1556563.0,217.0,256.0,4.0,236.0,1556.563
1556573.0,210.0,251.0,4.0,228.0,1556.573
1556583.0,213.0,254.0,4.0,232.0,1556.583
1556593.0,216.0,258.0,3.0,238.0,1556.593
1556603.0,215.0,259.0,4.0,233.0,1556.603
1556613.0,219.0,257.0,4.0,240.0,1556.613
1556623.0,209.0,251.0,4.0,227.0,1556.623
1556633.0,212.0,254.0,3.0,231.0,1556.633
1556643.0,216.0,258.0,5.0,239.0,1556.643
1556653.0,216.0,259.0,4.0,237.0,1556.653
1556663.0,218.0,258.0,4.0,239.0,1556.663
1556673.0,208.0,250.0,4.0,228.0,1556.673
1556683.0,211.0,255.0,3.0,232.0,1556.683
1556694.0,217.0,260.0,4.0,239.0,1556.694
1556704.0,215.0,254.0,4.0,233.0,1556.704
1556714.0,217.0,253.0,4.0,235.0,1556.714
1556724.0,207.0,246.0,4.0,224.0,1556.724
1556734.0,213.0,257.0,4.0,235.0,1556.734
1556744.0,217.0,261.0,3.0,240.0,1556.744
1556754.0,214.0,256.0,4.0,232.0,1556.754
1556764.0,215.0,258.0,3.0,235.0,1556.764
1556774.0,207.0,247.0,5.0,226.0,1556.774
1556784.0,212.0,254.0,2.0,232.0,1556.784
1556794.0,218.0,260.0,3.0,240.0,1556.794
1556804.0,213.0,257.0,3.0,233.0,1556.804
1556814.0,214.0,254.0,4.0,234.0,1556.814
1556824.0,208.0,248.0,3.0,225.0,1556.824
1556834.0,211.0,256.0,3.0,232.0,1556.834
1556844.0,219.0,262.0,4.0,239.0,1556.844
1556854.0,214.0,256.0,4.0,231.0,1556.854
1556864.0,217.0,257.0,4.0,236.0,1556.864
1556874.0,208.0,249.0,3.0,225.0,1556.874
1556884.0,213.0,255.0,4.0,234.0,1556.884
1556894.0,219.0,261.0,4.0,240.0,1556.894
1556904.0,214.0,254.0,4.0,231.0,1556.904
1556914.0,216.0,256.0,4.0,235.0,1556.914
1556924.0,207.0,249.0,4.0,224.0,1556.924
1556934.0,213.0,260.0,3.0,234.0,1556.934
1556944.0,219.0,263.0,4.0,240.0,1556.944
1556954.0,216.0,259.0,4.0,233.0,1556.954
1556964.0,216.0,258.0,4.0,235.0,1556.964
1556974.0,207.0,248.0,4.0,224.0,1556.974
1556984.0,212.0,257.0,4.0,234.0,1556.984
1556994.0,216.0,261.0,4.0,239.0,1556.994
1557004.0,214.0,256.0,3.0,232.0,1557.004
1557014.0,214.0,256.0,3.0,234.0,1557.014
1557024.0,205.0,247.0,4.0,225.0,1557.024
1557035.0,214.0,257.0,4.0,234.0,1557.035
1557045.0,218.0,263.0,4.0,239.0,1557.045
1557055.0,212.0,251.0,4.0,229.0,1557.055
1557065.0,213.0,255.0,3.0,232.0,1557.065
1557075.0,210.0,253.0,4.0,231.0,1557.075
1557085.0,215.0,258.0,3.0,235.0,1557.085
1557095.0,220.0,259.0,4.0,240.0,1557.095
1557105.0,212.0,254.0,2.0,229.0,1557.105
1557115.0,213.0,254.0,4.0,232.0,1557.115
1557125.0,207.0,249.0,3.0,228.0,1557.125
1557135.0,215.0,259.0,4.0,236.0,1557.135
1557145.0,219.0,258.0,4.0,240.0,1557.145
1557155.0,211.0,252.0,4.0,230.0,1557.155
1557165.0,214.0,254.0,4.0,234.0,1557.165
1557175.0,208.0,249.0,4.0,228.0,1557.175
1557185.0,216.0,259.0,3.0,237.0,1557.185
1557195.0,219.0,258.0,3.0,240.0,1557.195
1557206.0,211.0,251.0,4.0,228.0,1557.206
1557216.0,213.0,254.0,4.0,232.0,1557.216
1557226.0,215.0,256.0,4.0,235.0,1557.226
1557236.0,217.0,261.0,3.0,236.0,1557.236
1557246.0,217.0,256.0,4.0,236.0,1557.246
1557256.0,211.0,253.0,3.0,229.0,1557.256
1557266.0,214.0,254.0,3.0,232.0,1557.266
1557276.0,215.0,257.0,3.0,236.0,1557.276
1557286.0,218.0,259.0,5.0,235.0,1557.286
1557296.0,220.0,259.0,4.0,239.0,1557.296
1557306.0,211.0,251.0,3.0,229.0,1557.306
1557316.0,213.0,255.0,3.0,232.0,1557.316
1557326.0,216.0,259.0,3.0,237.0,1557.326
1557336.0,217.0,261.0,4.0,237.0,1557.336
1557346.0,219.0,257.0,5.0,239.0,1557.346
1557356.0,210.0,251.0,4.0,228.0,1557.356
1557366.0,212.0,255.0,3.0,231.0,1557.366
1557376.0,212.0,256.0,4.0,233.0,1557.376
1557386.0,218.0,263.0,3.0,237.0,1557.386
1557396.0,218.0,260.0,3.0,236.0,1557.396
1557406.0,210.0,252.0,4.0,227.0,1557.406
1557416.0,213.0,255.0,4.0,232.0,1557.416
1557426.0,214.0,258.0,3.0,234.0,1557.426
1557436.0,218.0,261.0,3.0,237.0,1557.436
1557446.0,218.0,260.0,3.0,236.0,1557.446
1557456.0,210.0,250.0,4.0,226.0,1557.456
1557466.0,214.0,257.0,4.0,231.0,1557.466
1557476.0,215.0,259.0,4.0,233.0,1557.476
1557486.0,217.0,260.0,2.0,236.0,1557.486
1557496.0,217.0,260.0,4.0,235.0,1557.496
1557506.0,213.0,254.0,3.0,229.0,1557.506
1557516.0,214.0,257.0,3.0,230.0,1557.516
1557526.0,216.0,258.0,3.0,235.0,1557.526
1557536.0,217.0,260.0,4.0,235.0,1557.536
1557547.0,218.0,257.0,4.0,235.0,1557.547
1557557.0,209.0,250.0,3.0,226.0,1557.557
1557567.0,213.0,256.0,4.0,234.0,1557.567
1557577.0,219.0,262.0,3.0,239.0,1557.577
1557587.0,216.0,256.0,3.0,232.0,1557.587
1557597.0,217.0,258.0,4.0,233.0,1557.597
1557607.0,211.0,251.0,4.0,225.0,1557.607
1557617.0,214.0,259.0,3.0,233.0,1557.617
1557627.0,220.0,264.0,4.0,239.0,1557.627
1557637.0,218.0,261.0,3.0,237.0,1557.637
1557647.0,217.0,258.0,4.0,234.0,1557.647
1557657.0,209.0,250.0,5.0,225.0,1557.657
1557667.0,215.0,258.0,5.0,234.0,1557.667
1557677.0,218.0,260.0,4.0,238.0,1557.677
1557687.0,216.0,260.0,4.0,235.0,1557.687
1557697.0,216.0,256.0,4.0,235.0,1557.697
1557707.0,208.0,248.0,3.0,226.0,1557.707
1557718.0,215.0,256.0,3.0,236.0,1557.718
1557728.0,220.0,258.0,4.0,239.0,1557.728
1557738.0,214.0,254.0,4.0,232.0,1557.738
1557748.0,214.0,255.0,4.0,233.0,1557.748
1557758.0,212.0,252.0,4.0,232.0,1557.758
1557768.0,217.0,261.0,3.0,237.0,1557.768
1557778.0,220.0,260.0,3.0,238.0,1557.778
1557788.0,213.0,253.0,4.0,232.0,1557.788
1557798.0,216.0,255.0,5.0,232.0,1557.798
1557808.0,209.0,250.0,2.0,227.0,1557.808
1557818.0,217.0,261.0,4.0,237.0,1557.818
1557828.0,220.0,260.0,4.0,240.0,1557.828
1557838.0,214.0,254.0,4.0,231.0,1557.838
1557848.0,216.0,258.0,4.0,234.0,1557.848
1557858.0,210.0,251.0,5.0,228.0,1557.858
1557868.0,218.0,262.0,3.0,238.0,1557.868
1557878.0,220.0,262.0,4.0,239.0,1557.878
1557888.0,217.0,256.0,4.0,235.0,1557.888
1557898.0,217.0,258.0,3.0,234.0,1557.898
1557908.0,211.0,251.0,4.0,230.0,1557.908
1557918.0,217.0,261.0,4.0,239.0,1557.918
1557928.0,221.0,259.0,4.0,240.0,1557.928
1557938.0,215.0,255.0,4.0,235.0,1557.938
1557948.0,216.0,255.0,4.0,235.0,1557.948
1557958.0,211.0,251.0,3.0,232.0,1557.958
1557968.0,218.0,258.0,4.0,240.0,1557.968
1557978.0,221.0,259.0,4.0,241.0,1557.978
1557988.0,215.0,252.0,5.0,235.0,1557.988
1557998.0,214.0,254.0,4.0,235.0,1557.998
1558008.0,212.0,252.0,3.0,233.0,1558.008
1558018.0,216.0,257.0,3.0,237.0,1558.018
1558028.0,220.0,260.0,3.0,241.0,1558.028
1558038.0,214.0,252.0,4.0,234.0,1558.038
1558048.0,215.0,256.0,4.0,234.0,1558.048
1558059.0,213.0,255.0,4.0,234.0,1558.059
1558069.0,218.0,261.0,4.0,239.0,1558.069
1558079.0,219.0,258.0,4.0,239.0,1558.079
1558089.0,210.0,252.0,3.0,232.0,1558.089
1558099.0,214.0,255.0,4.0,235.0,1558.099
1558109.0,213.0,258.0,4.0,237.0,1558.109
1558119.0,219.0,263.0,5.0,241.0,1558.119
1558129.0,218.0,260.0,2.0,240.0,1558.129
1558139.0,210.0,252.0,4.0,233.0,1558.139
1558149.0,214.0,256.0,3.0,237.0,1558.149
1558159.0,213.0,257.0,3.0,239.0,1558.159
1558169.0,218.0,261.0,4.0,243.0,1558.169
1558179.0,218.0,259.0,5.0,240.0,1558.179
1558189.0,212.0,252.0,3.0,235.0,1558.189
1558199.0,214.0,255.0,4.0,236.0,1558.199
1558209.0,215.0,258.0,3.0,240.0,1558.209
1558219.0,218.0,261.0,3.0,240.0,1558.219
1558230.0,217.0,257.0,4.0,239.0,1558.23
1558240.0,209.0,249.0,4.0,231.0,1558.24
1558250.0,214.0,255.0,4.0,237.0,1558.25
1558260.0,218.0,261.0,4.0,243.0,1558.26
1558270.0,216.0,258.0,4.0,238.0,1558.27
1558280.0,217.0,257.0,3.0,238.0,1558.28
1558290.0,209.0,250.0,4.0,231.0,1558.29
1558300.0,213.0,257.0,3.0,237.0,1558.3
1558310.0,220.0,263.0,4.0,242.0,1558.31
1558320.0,217.0,262.0,3.0,241.0,1558.32
1558330.0,216.0,258.0,4.0,237.0,1558.33
1558340.0,209.0,253.0,3.0,232.0,1558.34
1558350.0,213.0,260.0,4.0,239.0,1558.35
1558360.0,217.0,261.0,4.0,242.0,1558.36
1558370.0,217.0,262.0,5.0,241.0,1558.37
1558380.0,216.0,258.0,3.0,239.0,1558.38
1558390.0,208.0,251.0,4.0,231.0,1558.39
1558400.0,213.0,257.0,4.0,237.0,1558.4
1558410.0,219.0,264.0,3.0,242.0,1558.41
1558420.0,217.0,262.0,3.0,240.0,1558.42
1558430.0,216.0,259.0,4.0,238.0,1558.43
1558440.0,209.0,252.0,4.0,230.0,1558.44
1558450.0,212.0,258.0,4.0,236.0,1558.45
1558460.0,218.0,263.0,4.0,242.0,1558.46
1558470.0,216.0,262.0,3.0,241.0,1558.47
1558480.0,216.0,257.0,4.0,238.0,1558.48
1558490.0,209.0,253.0,3.0,233.0,1558.49
1558500.0,213.0,258.0,5.0,237.0,1558.5
1558510.0,219.0,264.0,2.0,244.0,1558.51
1558520.0,216.0,263.0,3.0,240.0,1558.52
1558530.0,217.0,259.0,3.0,240.0,1558.53
1558540.0,210.0,253.0,3.0,232.0,1558.54
1558550.0,213.0,258.0,4.0,237.0,1558.55
1558560.0,220.0,264.0,4.0,243.0,1558.56
1558571.0,216.0,260.0,4.0,238.0,1558.571
1558581.0,215.0,257.0,4.0,237.0,1558.581
1558591.0,209.0,252.0,4.0,233.0,1558.591
1558601.0,217.0,263.0,3.0,242.0,1558.601
1558611.0,221.0,262.0,3.0,242.0,1558.611
1558621.0,216.0,260.0,4.0,237.0,1558.621
1558631.0,218.0,258.0,4.0,237.0,1558.631
1558641.0,210.0,253.0,3.0,234.0,1558.641
1558651.0,218.0,262.0,4.0,241.0,1558.651
1558661.0,221.0,265.0,3.0,243.0,1558.661
1558671.0,215.0,257.0,4.0,237.0,1558.671
1558681.0,216.0,259.0,4.0,236.0,1558.681
1558691.0,212.0,254.0,5.0,234.0,1558.691
1558701.0,216.0,260.0,4.0,239.0,1558.701
1558711.0,221.0,261.0,4.0,241.0,1558.711
1558721.0,213.0,260.0,4.0,236.0,1558.721
1558731.0,215.0,259.0,3.0,236.0,1558.731
1558742.0,212.0,257.0,3.0,235.0,1558.742
1558752.0,217.0,266.0,4.0,242.0,1558.752
1558762.0,220.0,264.0,4.0,240.0,1558.762
1558772.0,211.0,258.0,3.0,233.0,1558.772
1558782.0,213.0,259.0,4.0,235.0,1558.782
1558792.0,211.0,259.0,3.0,236.0,1558.792
1558802.0,218.0,265.0,3.0,240.0,1558.802
1558812.0,217.0,260.0,4.0,239.0,1558.812
1558822.0,210.0,253.0,4.0,232.0,1558.822
1558832.0,214.0,258.0,4.0,234.0,1558.832
1558842.0,214.0,259.0,3.0,236.0,1558.842
1558852.0,217.0,265.0,4.0,241.0,1558.852
1558862.0,218.0,258.0,4.0,238.0,1558.862
1558872.0,212.0,256.0,4.0,234.0,1558.872
1558882.0,215.0,257.0,5.0,235.0,1558.882
1558892.0,215.0,257.0,4.0,238.0,1558.892
1558902.0,218.0,261.0,4.0,240.0,1558.902
1558912.0,221.0,261.0,3.0,242.0,1558.912
1558922.0,211.0,252.0,3.0,234.0,1558.922
1558932.0,213.0,253.0,3.0,236.0,1558.932
1558942.0,215.0,256.0,4.0,239.0,1558.942
1558952.0,218.0,259.0,4.0,241.0,1558.952
1558962.0,220.0,259.0,3.0,241.0,1558.962
1558972.0,211.0,250.0,4.0,235.0,1558.972
1558982.0,213.0,255.0,3.0,236.0,1558.982
1558992.0,216.0,257.0,4.0,240.0,1558.992
1559002.0,217.0,263.0,3.0,244.0,1559.002
1559012.0,220.0,259.0,5.0,241.0,1559.012
1559022.0,211.0,253.0,4.0,234.0,1559.022
1559032.0,213.0,259.0,3.0,236.0,1559.032
1559042.0,212.0,258.0,3.0,238.0,1559.042
1559052.0,217.0,262.0,4.0,242.0,1559.052
1559062.0,219.0,264.0,4.0,240.0,1559.062
1559072.0,211.0,251.0,5.0,233.0,1559.072
1559083.0,213.0,256.0,3.0,236.0,1559.083
1559093.0,217.0,262.0,4.0,241.0,1559.093
1559103.0,217.0,259.0,4.0,242.0,1559.103
1559113.0,216.0,258.0,3.0,238.0,1559.113
1559123.0,210.0,248.0,3.0,232.0,1559.123
1559133.0,213.0,255.0,4.0,237.0,1559.133
1559143.0,220.0,261.0,5.0,243.0,1559.143
1559153.0,218.0,257.0,4.0,240.0,1559.153
1559163.0,217.0,256.0,4.0,238.0,1559.163
1559173.0,211.0,250.0,3.0,235.0,1559.173
1559183.0,215.0,254.0,4.0,238.0,1559.183
1559193.0,220.0,259.0,4.0,245.0,1559.193
1559203.0,217.0,254.0,5.0,242.0,1559.203
1559213.0,217.0,254.0,4.0,241.0,1559.213
1559223.0,210.0,245.0,4.0,234.0,1559.223
1559233.0,214.0,252.0,3.0,240.0,1559.233
1559243.0,219.0,259.0,4.0,244.0,1559.243
1559254.0,216.0,255.0,4.0,240.0,1559.254
1559264.0,215.0,255.0,4.0,238.0,1559.264
1559274.0,209.0,249.0,4.0,233.0,1559.274
1559284.0,216.0,257.0,3.0,242.0,1559.284
1559294.0,220.0,259.0,4.0,244.0,1559.294
1559304.0,216.0,254.0,3.0,240.0,1559.304
1559314.0,215.0,253.0,3.0,238.0,1559.314
1559324.0,209.0,248.0,4.0,233.0,1559.324
1559334.0,219.0,259.0,4.0,242.0,1559.334
1559344.0,221.0,262.0,4.0,243.0,1559.344
1559354.0,217.0,255.0,4.0,238.0,1559.354
1559364.0,216.0,255.0,3.0,238.0,1559.364
1559374.0,211.0,250.0,4.0,234.0,1559.374
1559384.0,216.0,258.0,3.0,240.0,1559.384
1559394.0,221.0,261.0,5.0,243.0,1559.394
1559404.0,216.0,257.0,3.0,238.0,1559.404
1559414.0,215.0,256.0,3.0,237.0,1559.414
1559424.0,209.0,252.0,3.0,232.0,1559.424
1559434.0,217.0,261.0,4.0,240.0,1559.434
1559444.0,221.0,261.0,3.0,243.0,1559.444
1559454.0,215.0,258.0,4.0,237.0,1559.454
1559464.0,216.0,258.0,4.0,237.0,1559.464
1559474.0,210.0,252.0,3.0,230.0,1559.474
1559484.0,218.0,263.0,3.0,240.0,1559.484
1559494.0,221.0,262.0,3.0,243.0,1559.494
1559504.0,216.0,260.0,4.0,235.0,1559.504
1559514.0,217.0,258.0,4.0,237.0,1559.514
1559524.0,211.0,255.0,5.0,230.0,1559.524
1559534.0,219.0,267.0,4.0,240.0,1559.534
1559544.0,222.0,265.0,3.0,242.0,1559.544
1559554.0,219.0,268.0,3.0,239.0,1559.554
1559564.0,217.0,263.0,3.0,237.0,1559.564
1559574.0,212.0,259.0,4.0,233.0,1559.574
1559584.0,221.0,272.0,4.0,244.0,1559.584
1559595.0,222.0,268.0,4.0,243.0,1559.595
1559605.0,215.0,265.0,4.0,236.0,1559.605
1559615.0,216.0,265.0,3.0,238.0,1559.615
1559625.0,218.0,269.0,3.0,240.0,1559.625
1559635.0,221.0,274.0,3.0,242.0,1559.635
1559645.0,221.0,267.0,4.0,243.0,1559.645
1559655.0,215.0,264.0,4.0,235.0,1559.655
1559665.0,216.0,264.0,4.0,237.0,1559.665
1559675.0,218.0,266.0,4.0,239.0,1559.675
1559685.0,221.0,271.0,4.0,242.0,1559.685
1559695.0,222.0,265.0,4.0,240.0,1559.695
1559705.0,215.0,261.0,4.0,233.0,1559.705
1559715.0,217.0,261.0,4.0,234.0,1559.715
1559725.0,214.0,260.0,4.0,235.0,1559.725
1559735.0,221.0,269.0,4.0,240.0,1559.735
1559745.0,221.0,265.0,3.0,240.0,1559.745
1559755.0,214.0,260.0,3.0,232.0,1559.755
1559766.0,216.0,260.0,4.0,234.0,1559.766
1559776.0,220.0,264.0,4.0,241.0,1559.776
1559786.0,221.0,265.0,4.0,240.0,1559.786
1559796.0,218.0,261.0,3.0,238.0,1559.796
1559806.0,212.0,254.0,4.0,230.0,1559.806
1559816.0,215.0,259.0,3.0,236.0,1559.816
1559826.0,221.0,263.0,4.0,242.0,1559.826
1559836.0,220.0,262.0,4.0,241.0,1559.836
1559846.0,220.0,258.0,5.0,238.0,1559.846
1559856.0,214.0,254.0,4.0,233.0,1559.856
1559866.0,216.0,257.0,4.0,237.0,1559.866
1559876.0,222.0,263.0,3.0,244.0,1559.876
1559886.0,220.0,262.0,3.0,240.0,1559.886
1559896.0,220.0,258.0,3.0,240.0,1559.896
1559906.0,215.0,254.0,5.0,232.0,1559.906
1559916.0,217.0,260.0,4.0,237.0,1559.916
1559926.0,223.0,266.0,3.0,242.0,1559.926
1559936.0,222.0,268.0,3.0,242.0,1559.936
1559946.0,219.0,260.0,4.0,238.0,1559.946
1559956.0,214.0,259.0,4.0,231.0,1559.956
1559966.0,217.0,264.0,4.0,237.0,1559.966
1559976.0,224.0,267.0,4.0,243.0,1559.976
1559986.0,222.0,270.0,4.0,241.0,1559.986
1559996.0,220.0,263.0,3.0,238.0,1559.996
1560006.0,214.0,259.0,3.0,230.0,1560.006
1560016.0,219.0,264.0,4.0,238.0,1560.016
1560026.0,221.0,265.0,3.0,241.0,1560.026
1560036.0,223.0,266.0,5.0,240.0,1560.036
1560046.0,220.0,260.0,3.0,237.0,1560.046
1560056.0,214.0,252.0,3.0,231.0,1560.056
1560066.0,216.0,256.0,3.0,238.0,1560.066
1560076.0,221.0,262.0,3.0,242.0,1560.076
1560086.0,221.0,261.0,3.0,241.0,1560.086
1560096.0,220.0,257.0,5.0,239.0,1560.096
1560107.0,213.0,251.0,4.0,231.0,1560.107
1560117.0,219.0,260.0,3.0,242.0,1560.117
1560127.0,222.0,264.0,3.0,245.0,1560.127
1560137.0,218.0,255.0,3.0,238.0,1560.137
1560147.0,218.0,257.0,3.0,238.0,1560.147
1560157.0,212.0,249.0,4.0,231.0,1560.157
1560167.0,220.0,258.0,4.0,240.0,1560.167
1560177.0,222.0,265.0,4.0,243.0,1560.177
1560187.0,217.0,254.0,4.0,237.0,1560.187
1560197.0,217.0,256.0,3.0,239.0,1560.197
1560207.0,211.0,249.0,4.0,231.0,1560.207
1560217.0,219.0,260.0,3.0,241.0,1560.217
1560227.0,224.0,259.0,4.0,242.0,1560.227
1560237.0,219.0,258.0,4.0,239.0,1560.237
1560247.0,217.0,255.0,4.0,237.0,1560.247
1560257.0,212.0,251.0,4.0,233.0,1560.257
1560267.0,220.0,261.0,4.0,240.0,1560.267
1560278.0,223.0,263.0,4.0,243.0,1560.278
1560288.0,217.0,255.0,5.0,234.0,1560.288
1560298.0,218.0,257.0,4.0,236.0,1560.298
1560308.0,217.0,258.0,4.0,238.0,1560.308
1560318.0,222.0,262.0,3.0,241.0,1560.318
1560328.0,223.0,261.0,3.0,241.0,1560.328
1560338.0,216.0,254.0,4.0,233.0,1560.338
1560348.0,217.0,256.0,4.0,235.0,1560.348
1560358.0,219.0,258.0,5.0,238.0,1560.358
1560368.0,221.0,262.0,4.0,241.0,1560.368
1560378.0,222.0,259.0,4.0,241.0,1560.378
1560388.0,216.0,253.0,3.0,235.0,1560.388
1560398.0,216.0,255.0,4.0,236.0,1560.398
1560408.0,215.0,253.0,4.0,234.0,1560.408
1560418.0,222.0,263.0,5.0,240.0,1560.418
1560428.0,222.0,259.0,4.0,239.0,1560.428
1560438.0,215.0,253.0,4.0,232.0,1560.438
1560448.0,218.0,257.0,3.0,236.0,1560.448
1560458.0,215.0,254.0,3.0,235.0,1560.458
1560468.0,221.0,261.0,3.0,240.0,1560.468
1560478.0,221.0,257.0,4.0,239.0,1560.478
1560488.0,216.0,251.0,4.0,231.0,1560.488
1560498.0,217.0,255.0,3.0,235.0,1560.498
1560508.0,216.0,254.0,4.0,236.0,1560.508
1560518.0,221.0,262.0,3.0,240.0,1560.518
1560528.0,221.0,257.0,4.0,237.0,1560.528
1560538.0,216.0,255.0,4.0,232.0,1560.538
1560548.0,217.0,256.0,5.0,234.0,1560.548
1560558.0,216.0,257.0,3.0,236.0,1560.558
1560568.0,221.0,262.0,4.0,239.0,1560.568
1560578.0,222.0,262.0,3.0,242.0,1560.578
1560588.0,214.0,252.0,4.0,234.0,1560.588
1560598.0,216.0,256.0,3.0,235.0,1560.598
1560608.0,217.0,257.0,5.0,238.0,1560.608
1560619.0,220.0,261.0,4.0,240.0,1560.619
1560629.0,218.0,257.0,3.0,237.0,1560.629
1560639.0,211.0,251.0,4.0,230.0,1560.639
1560649.0,215.0,256.0,3.0,236.0,1560.649
1560659.0,221.0,263.0,4.0,241.0,1560.659
1560669.0,220.0,263.0,4.0,240.0,1560.669
1560679.0,220.0,259.0,4.0,237.0,1560.679
1560689.0,212.0,254.0,4.0,230.0,1560.689
1560699.0,215.0,259.0,4.0,236.0,1560.699
1560709.0,218.0,261.0,3.0,240.0,1560.709
1560719.0,220.0,262.0,4.0,239.0,1560.719
1560729.0,218.0,258.0,4.0,237.0,1560.729
1560739.0,212.0,251.0,5.0,227.0,1560.739
1560749.0,214.0,257.0,3.0,233.0,1560.749
1560759.0,219.0,261.0,4.0,239.0,1560.759
1560769.0,219.0,263.0,3.0,239.0,1560.769
1560779.0,217.0,257.0,3.0,235.0,1560.779
1560790.0,211.0,252.0,4.0,228.0,1560.79
1560800.0,216.0,259.0,4.0,237.0,1560.8
1560810.0,221.0,261.0,4.0,241.0,1560.81
1560820.0,216.0,255.0,4.0,233.0,1560.82
1560830.0,216.0,256.0,4.0,234.0,1560.83
1560840.0,209.0,248.0,3.0,228.0,1560.84
