time (ms),signal 0,signal 1,signal 2,signal 3,time (sec)
1536176.0,209.0,249.0,4.0,234.0,1536.176
1536186.0,214.0,253.0,3.0,237.0,1536.186
1536196.0,207.0,242.0,3.0,228.0,1536.196
1536206.0,208.0,246.0,4.0,230.0,1536.206
1536216.0,203.0,241.0,4.0,227.0,1536.216
1536226.0,211.0,249.0,4.0,235.0,1536.226
1536236.0,213.0,254.0,3.0,237.0,1536.236
1536246.0,205.0,244.0,3.0,228.0,1536.246
1536256.0,207.0,248.0,4.0,231.0,1536.256
1536266.0,203.0,242.0,4.0,228.0,1536.266
1536276.0,210.0,251.0,4.0,236.0,1536.276
1536286.0,212.0,251.0,4.0,235.0,1536.286
1536296.0,205.0,244.0,3.0,228.0,1536.296
1536306.0,207.0,249.0,3.0,230.0,1536.306
1536316.0,205.0,247.0,3.0,229.0,1536.316
1536326.0,212.0,254.0,3.0,235.0,1536.326
1536336.0,213.0,252.0,3.0,235.0,1536.336
1536346.0,209.0,247.0,4.0,229.0,1536.346
1536356.0,210.0,248.0,4.0,230.0,1536.356
1536366.0,206.0,247.0,3.0,229.0,1536.366
1536376.0,213.0,252.0,4.0,237.0,1536.376
1536386.0,214.0,252.0,4.0,239.0,1536.386
1536396.0,209.0,244.0,4.0,232.0,1536.396
1536406.0,209.0,247.0,4.0,232.0,1536.406
1536416.0,208.0,247.0,4.0,234.0,1536.416
1536427.0,213.0,254.0,4.0,238.0,1536.427
1536437.0,214.0,251.0,4.0,236.0,1536.437
1536447.0,206.0,243.0,3.0,229.0,1536.447
1536457.0,208.0,248.0,4.0,231.0,1536.457
1536467.0,213.0,254.0,4.0,238.0,1536.467
1536477.0,213.0,254.0,4.0,237.0,1536.477
1536487.0,213.0,252.0,3.0,237.0,1536.487
1536497.0,206.0,244.0,4.0,228.0,1536.497
1536507.0,209.0,249.0,3.0,232.0,1536.507
1536517.0,212.0,252.0,4.0,235.0,1536.517
1536527.0,215.0,253.0,4.0,238.0,1536.527
1536537.0,215.0,256.0,3.0,235.0,1536.537
1536547.0,208.0,246.0,4.0,229.0,1536.547
1536557.0,211.0,253.0,3.0,233.0,1536.557
1536567.0,214.0,255.0,4.0,237.0,1536.567
1536577.0,215.0,254.0,4.0,239.0,1536.577
1536587.0,216.0,255.0,5.0,237.0,1536.587
1536598.0,208.0,246.0,4.0,230.0,1536.598
1536608.0,212.0,254.0,4.0,237.0,1536.608
1536618.0,218.0,260.0,3.0,242.0,1536.618
1536628.0,214.0,255.0,3.0,237.0,1536.628
1536638.0,214.0,254.0,4.0,236.0,1536.638
1536648.0,207.0,248.0,4.0,230.0,1536.648
1536658.0,212.0,256.0,4.0,237.0,1536.658
1536668.0,218.0,261.0,3.0,241.0,1536.668
1536678.0,214.0,257.0,4.0,236.0,1536.678
1536688.0,218.0,256.0,3.0,238.0,1536.688
1536698.0,209.0,248.0,3.0,230.0,1536.698
1536708.0,216.0,256.0,4.0,237.0,1536.708
1536718.0,220.0,260.0,4.0,242.0,1536.718
1536728.0,215.0,256.0,4.0,239.0,1536.728
1536738.0,215.0,256.0,3.0,237.0,1536.738
1536748.0,208.0,249.0,4.0,228.0,1536.748
1536758.0,215.0,259.0,4.0,239.0,1536.758
1536768.0,217.0,260.0,4.0,242.0,1536.768
1536778.0,214.0,259.0,4.0,239.0,1536.778
1536788.0,214.0,255.0,4.0,237.0,1536.788
1536798.0,207.0,248.0,4.0,231.0,1536.798
1536808.0,214.0,260.0,3.0,242.0,1536.808
1536818.0,218.0,258.0,4.0,243.0,1536.818
1536828.0,215.0,259.0,3.0,240.0,1536.828
1536838.0,214.0,256.0,5.0,237.0,1536.838
1536848.0,207.0,249.0,3.0,232.0,1536.848
1536858.0,211.0,255.0,4.0,237.0,1536.858
1536868.0,218.0,261.0,4.0,243.0,1536.868
1536878.0,213.0,256.0,3.0,239.0,1536.878
1536888.0,214.0,256.0,4.0,238.0,1536.888
1536898.0,208.0,250.0,4.0,231.0,1536.898
1536908.0,213.0,258.0,4.0,239.0,1536.908
1536918.0,218.0,260.0,4.0,243.0,1536.918
1536928.0,215.0,256.0,5.0,239.0,1536.928
1536939.0,213.0,257.0,3.0,238.0,1536.939
1536949.0,208.0,252.0,4.0,234.0,1536.949
1536959.0,216.0,265.0,3.0,242.0,1536.959
1536969.0,218.0,261.0,5.0,241.0,1536.969
1536979.0,209.0,258.0,4.0,234.0,1536.979
1536989.0,213.0,260.0,4.0,237.0,1536.989
1536999.0,209.0,255.0,4.0,235.0,1536.999
1537009.0,217.0,264.0,4.0,242.0,1537.009
1537019.0,219.0,260.0,4.0,241.0,1537.019
1537029.0,213.0,259.0,5.0,237.0,1537.029
1537039.0,214.0,257.0,4.0,237.0,1537.039
1537049.0,210.0,254.0,4.0,237.0,1537.049
1537059.0,217.0,262.0,4.0,244.0,1537.059
1537069.0,219.0,262.0,3.0,244.0,1537.069
1537079.0,213.0,255.0,4.0,238.0,1537.079
1537089.0,213.0,256.0,4.0,239.0,1537.089
1537099.0,213.0,256.0,5.0,238.0,1537.099
1537110.0,218.0,262.0,3.0,244.0,1537.11
1537120.0,218.0,259.0,4.0,242.0,1537.12
1537130.0,209.0,250.0,4.0,236.0,1537.13
1537140.0,211.0,254.0,4.0,238.0,1537.14
1537150.0,214.0,260.0,4.0,245.0,1537.15
1537160.0,213.0,258.0,5.0,244.0,1537.16
1537170.0,213.0,256.0,4.0,242.0,1537.17
1537180.0,206.0,249.0,3.0,234.0,1537.18
1537190.0,209.0,254.0,3.0,239.0,1537.19
1537200.0,211.0,256.0,4.0,240.0,1537.2
1537210.0,215.0,261.0,4.0,243.0,1537.21
1537220.0,215.0,258.0,5.0,241.0,1537.22
1537230.0,208.0,248.0,4.0,233.0,1537.23
1537240.0,211.0,254.0,4.0,237.0,1537.24
1537250.0,212.0,256.0,4.0,241.0,1537.25
1537260.0,215.0,261.0,3.0,243.0,1537.26
1537270.0,215.0,254.0,3.0,240.0,1537.27
1537280.0,209.0,251.0,4.0,235.0,1537.28
1537290.0,212.0,254.0,3.0,236.0,1537.29
1537300.0,214.0,258.0,4.0,240.0,1537.3
1537310.0,217.0,257.0,5.0,241.0,1537.31
1537320.0,215.0,256.0,3.0,239.0,1537.32
1537330.0,209.0,250.0,4.0,234.0,1537.33
1537340.0,212.0,251.0,3.0,236.0,1537.34
1537350.0,216.0,256.0,5.0,242.0,1537.35
1537360.0,216.0,256.0,4.0,241.0,1537.36
1537370.0,217.0,253.0,4.0,240.0,1537.37
1537380.0,208.0,249.0,3.0,235.0,1537.38
1537390.0,211.0,256.0,3.0,236.0,1537.39
1537400.0,216.0,261.0,4.0,242.0,1537.4
1537410.0,216.0,263.0,5.0,241.0,1537.41
1537420.0,216.0,256.0,4.0,240.0,1537.42
1537430.0,208.0,250.0,4.0,233.0,1537.43
1537440.0,210.0,253.0,3.0,237.0,1537.44
1537451.0,216.0,259.0,3.0,244.0,1537.451
1537461.0,214.0,258.0,4.0,242.0,1537.461
1537471.0,213.0,254.0,3.0,240.0,1537.471
1537481.0,206.0,246.0,5.0,233.0,1537.481
1537491.0,212.0,257.0,3.0,242.0,1537.491
1537501.0,220.0,259.0,4.0,245.0,1537.501
1537511.0,216.0,258.0,3.0,243.0,1537.511
1537521.0,215.0,255.0,3.0,240.0,1537.521
1537531.0,208.0,249.0,3.0,236.0,1537.531
1537541.0,213.0,254.0,4.0,241.0,1537.541
1537551.0,218.0,259.0,3.0,246.0,1537.551
1537561.0,214.0,257.0,3.0,242.0,1537.561
1537571.0,214.0,255.0,3.0,241.0,1537.571
1537581.0,208.0,249.0,4.0,234.0,1537.581
1537591.0,212.0,256.0,4.0,240.0,1537.591
1537601.0,217.0,261.0,4.0,245.0,1537.601
1537611.0,213.0,256.0,4.0,240.0,1537.611
1537622.0,212.0,255.0,4.0,238.0,1537.622
1537632.0,209.0,250.0,4.0,235.0,1537.632
1537642.0,215.0,261.0,3.0,244.0,1537.642
1537652.0,218.0,259.0,4.0,245.0,1537.652
1537662.0,209.0,254.0,4.0,237.0,1537.662
1537672.0,213.0,255.0,4.0,240.0,1537.672
1537682.0,209.0,253.0,4.0,237.0,1537.682
1537692.0,215.0,263.0,3.0,245.0,1537.692
1537702.0,218.0,262.0,4.0,244.0,1537.702
1537712.0,212.0,257.0,3.0,240.0,1537.712
1537722.0,211.0,255.0,4.0,238.0,1537.722
1537732.0,208.0,253.0,5.0,237.0,1537.732
1537742.0,214.0,260.0,4.0,245.0,1537.742
1537752.0,216.0,256.0,4.0,246.0,1537.752
1537762.0,209.0,253.0,3.0,240.0,1537.762
1537772.0,210.0,252.0,4.0,240.0,1537.772
1537782.0,209.0,252.0,4.0,240.0,1537.782
1537792.0,212.0,256.0,3.0,244.0,1537.792
1537802.0,218.0,257.0,5.0,245.0,1537.802
1537812.0,210.0,251.0,4.0,239.0,1537.812
1537822.0,211.0,252.0,4.0,239.0,1537.822
1537832.0,211.0,252.0,3.0,241.0,1537.832
1537842.0,214.0,258.0,4.0,244.0,1537.842
1537852.0,218.0,258.0,3.0,245.0,1537.852
1537862.0,210.0,253.0,5.0,238.0,1537.862
1537872.0,211.0,253.0,4.0,239.0,1537.872
1537882.0,206.0,249.0,4.0,236.0,1537.882
1537892.0,213.0,260.0,3.0,245.0,1537.892
1537902.0,217.0,260.0,4.0,244.0,1537.902
1537912.0,209.0,255.0,3.0,239.0,1537.912
1537922.0,210.0,250.0,4.0,238.0,1537.922
1537932.0,205.0,242.0,4.0,233.0,1537.932
1537942.0,216.0,256.0,4.0,242.0,1537.942
1537952.0,224.0,253.0,4.0,241.0,1537.952
1537963.0,220.0,255.0,3.0,242.0,1537.963
1537973.0,217.0,252.0,4.0,241.0,1537.973
1537983.0,219.0,255.0,4.0,245.0,1537.983
1537993.0,218.0,255.0,4.0,244.0,1537.993
1538003.0,217.0,251.0,4.0,240.0,1538.003
1538013.0,214.0,244.0,4.0,236.0,1538.013
1538023.0,214.0,248.0,3.0,241.0,1538.023
1538033.0,214.0,252.0,4.0,245.0,1538.033
1538043.0,216.0,251.0,3.0,247.0,1538.043
1538053.0,224.0,251.0,3.0,245.0,1538.053
1538063.0,217.0,253.0,4.0,241.0,1538.063
1538073.0,223.0,258.0,3.0,245.0,1538.073
1538083.0,231.0,263.0,4.0,255.0,1538.083
1538093.0,235.0,266.0,3.0,253.0,1538.093
1538103.0,237.0,265.0,4.0,253.0,1538.103
1538113.0,230.0,263.0,4.0,248.0,1538.113
1538123.0,232.0,266.0,4.0,250.0,1538.123
1538134.0,238.0,265.0,4.0,254.0,1538.134
1538144.0,229.0,252.0,4.0,245.0,1538.144
1538154.0,230.0,254.0,3.0,243.0,1538.154
1538164.0,224.0,245.0,3.0,234.0,1538.164
1538174.0,229.0,259.0,4.0,247.0,1538.174
1538184.0,231.0,262.0,4.0,247.0,1538.184
1538194.0,226.0,267.0,4.0,248.0,1538.194
1538204.0,222.0,266.0,4.0,248.0,1538.204
1538214.0,214.0,255.0,3.0,237.0,1538.214
1538224.0,217.0,259.0,3.0,244.0,1538.224
1538234.0,222.0,263.0,4.0,246.0,1538.234
1538244.0,217.0,265.0,4.0,250.0,1538.244
1538254.0,218.0,262.0,4.0,251.0,1538.254
1538264.0,209.0,251.0,3.0,238.0,1538.264
1538274.0,210.0,250.0,4.0,239.0,1538.274
1538284.0,220.0,259.0,3.0,244.0,1538.284
1538294.0,221.0,268.0,4.0,244.0,1538.294
1538304.0,227.0,276.0,4.0,251.0,1538.304
1538314.0,220.0,269.0,5.0,239.0,1538.314
1538324.0,220.0,273.0,4.0,246.0,1538.324
1538334.0,225.0,278.0,4.0,249.0,1538.334
1538344.0,218.0,266.0,3.0,239.0,1538.344
1538354.0,223.0,264.0,4.0,239.0,1538.354
1538364.0,214.0,256.0,4.0,231.0,1538.364
1538374.0,225.0,271.0,3.0,243.0,1538.374
1538384.0,226.0,270.0,4.0,243.0,1538.384
1538394.0,220.0,261.0,4.0,236.0,1538.394
1538404.0,226.0,265.0,3.0,241.0,1538.404
1538414.0,220.0,263.0,4.0,236.0,1538.414
1538424.0,229.0,277.0,4.0,247.0,1538.424
1538434.0,233.0,280.0,4.0,249.0,1538.434
1538444.0,231.0,281.0,4.0,243.0,1538.444
1538454.0,230.0,278.0,3.0,244.0,1538.454
1538464.0,221.0,269.0,4.0,234.0,1538.464
1538475.0,227.0,278.0,3.0,245.0,1538.475
1538485.0,233.0,282.0,4.0,249.0,1538.485
1538495.0,225.0,272.0,4.0,239.0,1538.495
1538505.0,226.0,269.0,5.0,237.0,1538.505
1538515.0,222.0,266.0,4.0,236.0,1538.515
1538525.0,224.0,265.0,4.0,239.0,1538.525
1538535.0,227.0,268.0,3.0,240.0,1538.535
1538545.0,221.0,260.0,4.0,232.0,1538.545
1538555.0,223.0,264.0,4.0,234.0,1538.555
1538565.0,216.0,258.0,4.0,234.0,1538.565
1538575.0,227.0,272.0,3.0,245.0,1538.575
1538585.0,232.0,273.0,4.0,248.0,1538.585
1538595.0,224.0,269.0,3.0,241.0,1538.595
1538605.0,227.0,275.0,4.0,240.0,1538.605
1538615.0,222.0,266.0,4.0,238.0,1538.615
1538625.0,230.0,280.0,4.0,247.0,1538.625
1538635.0,232.0,278.0,4.0,246.0,1538.635
1538646.0,221.0,266.0,4.0,239.0,1538.646
1538656.0,220.0,268.0,4.0,239.0,1538.656
1538666.0,227.0,280.0,3.0,246.0,1538.666
1538676.0,229.0,282.0,4.0,246.0,1538.676
1538686.0,229.0,281.0,3.0,245.0,1538.686
1538696.0,226.0,274.0,4.0,240.0,1538.696
1538706.0,226.0,275.0,3.0,241.0,1538.706
1538716.0,227.0,273.0,4.0,245.0,1538.716
1538726.0,226.0,269.0,3.0,244.0,1538.726
1538736.0,223.0,264.0,4.0,238.0,1538.736
1538746.0,213.0,258.0,3.0,230.0,1538.746
1538756.0,217.0,262.0,4.0,233.0,1538.756
1538766.0,226.0,271.0,3.0,241.0,1538.766
1538776.0,222.0,274.0,3.0,244.0,1538.776
1538786.0,225.0,269.0,4.0,239.0,1538.786
1538796.0,222.0,263.0,3.0,232.0,1538.796
1538806.0,224.0,266.0,4.0,236.0,1538.806
1538816.0,224.0,266.0,4.0,237.0,1538.816
1538826.0,234.0,275.0,4.0,243.0,1538.826
1538836.0,234.0,274.0,4.0,240.0,1538.836
1538846.0,226.0,264.0,4.0,237.0,1538.846
1538856.0,229.0,274.0,3.0,244.0,1538.856
1538866.0,230.0,273.0,4.0,244.0,1538.866
1538876.0,229.0,276.0,3.0,246.0,1538.876
1538886.0,227.0,271.0,5.0,244.0,1538.886
1538896.0,217.0,264.0,3.0,237.0,1538.896
1538906.0,222.0,268.0,3.0,240.0,1538.906
1538916.0,225.0,271.0,4.0,244.0,1538.916
1538926.0,228.0,275.0,3.0,248.0,1538.926
1538936.0,227.0,270.0,3.0,243.0,1538.936
1538946.0,221.0,264.0,4.0,237.0,1538.946
1538956.0,224.0,265.0,4.0,232.0,1538.956
1538966.0,228.0,273.0,3.0,236.0,1538.966
1538976.0,224.0,273.0,4.0,239.0,1538.976
1538987.0,227.0,269.0,3.0,236.0,1538.987
1538997.0,223.0,266.0,4.0,230.0,1538.997
1539007.0,228.0,269.0,4.0,231.0,1539.007
1539017.0,232.0,269.0,4.0,235.0,1539.017
1539027.0,226.0,266.0,4.0,234.0,1539.027
1539037.0,226.0,263.0,4.0,233.0,1539.037
1539047.0,218.0,261.0,3.0,233.0,1539.047
1539057.0,224.0,272.0,4.0,242.0,1539.057
1539067.0,228.0,275.0,3.0,250.0,1539.067
1539077.0,226.0,274.0,4.0,249.0,1539.077
1539087.0,229.0,271.0,3.0,244.0,1539.087
1539097.0,221.0,263.0,4.0,238.0,1539.097
1539107.0,228.0,273.0,3.0,246.0,1539.107
1539117.0,232.0,274.0,3.0,248.0,1539.117
1539127.0,230.0,273.0,4.0,248.0,1539.127
1539137.0,225.0,264.0,4.0,243.0,1539.137
1539147.0,218.0,257.0,4.0,241.0,1539.147
1539158.0,226.0,272.0,3.0,251.0,1539.158
1539168.0,238.0,277.0,4.0,254.0,1539.168
1539178.0,232.0,277.0,3.0,252.0,1539.178
1539188.0,232.0,276.0,3.0,250.0,1539.188
1539198.0,228.0,274.0,4.0,253.0,1539.198
1539208.0,233.0,280.0,5.0,258.0,1539.208
1539218.0,236.0,280.0,4.0,257.0,1539.218
1539228.0,229.0,275.0,4.0,256.0,1539.228
1539238.0,231.0,277.0,3.0,255.0,1539.238
1539248.0,224.0,272.0,4.0,252.0,1539.248
1539258.0,232.0,285.0,4.0,261.0,1539.258
1539268.0,234.0,281.0,4.0,259.0,1539.268
1539278.0,227.0,279.0,4.0,256.0,1539.278
1539288.0,228.0,276.0,4.0,255.0,1539.288
1539298.0,223.0,275.0,4.0,255.0,1539.298
1539308.0,231.0,289.0,3.0,263.0,1539.308
1539318.0,237.0,286.0,4.0,258.0,1539.318
1539328.0,229.0,289.0,4.0,262.0,1539.328
1539338.0,231.0,286.0,4.0,258.0,1539.338
1539348.0,225.0,281.0,3.0,259.0,1539.348
1539358.0,233.0,290.0,4.0,265.0,1539.358
1539368.0,234.0,285.0,3.0,260.0,1539.368
1539378.0,228.0,289.0,4.0,266.0,1539.378
1539388.0,227.0,284.0,4.0,263.0,1539.388
1539398.0,225.0,286.0,5.0,265.0,1539.398
1539408.0,232.0,296.0,3.0,271.0,1539.408
1539418.0,234.0,289.0,4.0,267.0,1539.418
1539428.0,227.0,294.0,4.0,267.0,1539.428
1539438.0,227.0,288.0,3.0,261.0,1539.438
1539448.0,224.0,289.0,3.0,264.0,1539.448
1539458.0,227.0,293.0,4.0,266.0,1539.458
1539468.0,232.0,288.0,4.0,263.0,1539.468
1539478.0,223.0,287.0,3.0,263.0,1539.478
1539488.0,224.0,284.0,4.0,258.0,1539.488
1539499.0,223.0,286.0,3.0,261.0,1539.499
1539509.0,226.0,288.0,4.0,268.0,1539.509
1539519.0,228.0,279.0,4.0,260.0,1539.519
1539529.0,220.0,275.0,4.0,263.0,1539.529
1539539.0,222.0,278.0,2.0,265.0,1539.539
1539549.0,224.0,278.0,4.0,269.0,1539.549
1539559.0,228.0,289.0,3.0,279.0,1539.559
1539569.0,227.0,278.0,3.0,268.0,1539.569
1539579.0,216.0,275.0,3.0,269.0,1539.579
1539589.0,221.0,277.0,5.0,267.0,1539.589
1539599.0,222.0,281.0,3.0,275.0,1539.599
1539609.0,224.0,286.0,4.0,283.0,1539.609
1539619.0,224.0,278.0,4.0,270.0,1539.619
1539629.0,218.0,277.0,3.0,272.0,1539.629
1539639.0,219.0,274.0,4.0,269.0,1539.639
1539649.0,221.0,278.0,4.0,277.0,1539.649
1539659.0,223.0,283.0,4.0,279.0,1539.659
1539670.0,221.0,273.0,4.0,268.0,1539.67
1539680.0,212.0,273.0,4.0,269.0,1539.68
1539690.0,218.0,280.0,3.0,273.0,1539.69
1539700.0,224.0,282.0,4.0,274.0,1539.7
1539710.0,219.0,284.0,4.0,271.0,1539.71
1539720.0,222.0,277.0,5.0,265.0,1539.72
1539730.0,215.0,277.0,4.0,264.0,1539.73
1539740.0,221.0,284.0,4.0,270.0,1539.74
1539750.0,226.0,284.0,3.0,271.0,1539.75
1539760.0,222.0,287.0,4.0,272.0,1539.76
1539770.0,221.0,277.0,4.0,265.0,1539.77
1539780.0,211.0,276.0,4.0,261.0,1539.78
1539790.0,219.0,283.0,4.0,267.0,1539.79
1539800.0,222.0,283.0,4.0,269.0,1539.8
1539810.0,219.0,283.0,4.0,268.0,1539.81
1539820.0,218.0,275.0,3.0,262.0,1539.82
1539830.0,211.0,266.0,4.0,256.0,1539.83
1539840.0,214.0,271.0,4.0,262.0,1539.84
1539850.0,221.0,275.0,4.0,266.0,1539.85
1539860.0,218.0,274.0,3.0,265.0,1539.86
1539870.0,218.0,268.0,4.0,258.0,1539.87
1539880.0,210.0,262.0,3.0,257.0,1539.88
1539890.0,215.0,266.0,4.0,260.0,1539.89
1539900.0,221.0,267.0,3.0,263.0,1539.9
1539910.0,218.0,267.0,5.0,261.0,1539.91
1539920.0,217.0,262.0,4.0,256.0,1539.92
1539930.0,210.0,257.0,4.0,252.0,1539.93
1539940.0,216.0,264.0,3.0,260.0,1539.94
1539950.0,221.0,266.0,4.0,262.0,1539.95
1539960.0,217.0,266.0,4.0,260.0,1539.96
1539970.0,218.0,262.0,4.0,256.0,1539.97
1539980.0,211.0,257.0,3.0,251.0,1539.98
1539990.0,218.0,266.0,3.0,258.0,1539.99
1540000.0,221.0,269.0,4.0,259.0,1540.0
1540011.0,215.0,262.0,4.0,256.0,1540.011
1540021.0,215.0,262.0,4.0,251.0,1540.021
1540031.0,212.0,257.0,4.0,250.0,1540.031
1540041.0,220.0,266.0,4.0,256.0,1540.041
1540051.0,220.0,267.0,4.0,251.0,1540.051
1540061.0,215.0,257.0,3.0,252.0,1540.061
1540071.0,215.0,260.0,3.0,249.0,1540.071
1540081.0,212.0,256.0,4.0,246.0,1540.081
1540091.0,218.0,264.0,3.0,254.0,1540.091
1540101.0,221.0,266.0,5.0,251.0,1540.101
1540111.0,213.0,257.0,4.0,247.0,1540.111
1540121.0,213.0,257.0,4.0,245.0,1540.121
1540131.0,211.0,253.0,4.0,246.0,1540.131
1540141.0,217.0,260.0,4.0,252.0,1540.141
1540151.0,219.0,261.0,3.0,251.0,1540.151
1540161.0,212.0,253.0,5.0,245.0,1540.161
1540171.0,213.0,254.0,4.0,244.0,1540.171
1540182.0,211.0,255.0,4.0,245.0,1540.182
1540192.0,217.0,260.0,4.0,251.0,1540.192
1540202.0,216.0,256.0,4.0,246.0,1540.202
1540212.0,208.0,250.0,4.0,241.0,1540.212
1540222.0,211.0,254.0,4.0,241.0,1540.222
1540232.0,213.0,256.0,5.0,243.0,1540.232
1540242.0,216.0,261.0,2.0,247.0,1540.242
1540252.0,215.0,257.0,4.0,242.0,1540.252
1540262.0,207.0,250.0,3.0,238.0,1540.262
1540272.0,211.0,254.0,3.0,239.0,1540.272
1540282.0,213.0,257.0,3.0,244.0,1540.282
1540292.0,215.0,258.0,4.0,245.0,1540.292
1540302.0,215.0,258.0,2.0,240.0,1540.302
1540312.0,209.0,252.0,4.0,237.0,1540.312
1540322.0,211.0,257.0,4.0,238.0,1540.322
1540332.0,213.0,260.0,3.0,242.0,1540.332
1540342.0,214.0,258.0,4.0,242.0,1540.342
1540352.0,216.0,260.0,4.0,242.0,1540.352
1540362.0,209.0,251.0,4.0,235.0,1540.362
1540372.0,210.0,256.0,4.0,237.0,1540.372
1540382.0,213.0,260.0,3.0,244.0,1540.382
1540392.0,213.0,259.0,3.0,244.0,1540.392
1540402.0,217.0,258.0,4.0,241.0,1540.402
1540412.0,207.0,251.0,3.0,235.0,1540.412
1540422.0,211.0,255.0,5.0,238.0,1540.422
1540432.0,214.0,260.0,4.0,244.0,1540.432
1540442.0,215.0,260.0,4.0,245.0,1540.442
1540452.0,215.0,256.0,4.0,242.0,1540.452
1540462.0,207.0,249.0,3.0,234.0,1540.462
1540472.0,210.0,254.0,4.0,238.0,1540.472
1540482.0,212.0,257.0,4.0,239.0,1540.482
1540492.0,216.0,263.0,4.0,243.0,1540.492
1540502.0,215.0,257.0,4.0,238.0,1540.502
1540512.0,208.0,253.0,4.0,231.0,1540.512
1540523.0,210.0,257.0,3.0,234.0,1540.523
1540533.0,216.0,262.0,4.0,240.0,1540.533
1540543.0,213.0,260.0,5.0,237.0,1540.543
1540553.0,214.0,256.0,4.0,236.0,1540.553
1540563.0,206.0,250.0,3.0,230.0,1540.563
1540573.0,211.0,257.0,4.0,236.0,1540.573
1540583.0,217.0,263.0,3.0,242.0,1540.583
1540593.0,212.0,258.0,4.0,235.0,1540.593
1540603.0,213.0,255.0,3.0,235.0,1540.603
1540613.0,207.0,248.0,5.0,227.0,1540.613
1540623.0,211.0,256.0,2.0,237.0,1540.623
1540633.0,217.0,259.0,4.0,241.0,1540.633
1540643.0,212.0,255.0,4.0,236.0,1540.643
1540653.0,213.0,255.0,4.0,236.0,1540.653
1540663.0,205.0,247.0,4.0,230.0,1540.663
1540673.0,212.0,256.0,5.0,240.0,1540.673
1540683.0,217.0,259.0,4.0,243.0,1540.683
1540694.0,211.0,253.0,4.0,238.0,1540.694
1540704.0,212.0,253.0,4.0,238.0,1540.704
1540714.0,207.0,251.0,3.0,234.0,1540.714
1540724.0,215.0,260.0,4.0,242.0,1540.724
1540734.0,217.0,259.0,4.0,241.0,1540.734
1540744.0,213.0,252.0,4.0,234.0,1540.744
1540754.0,212.0,255.0,3.0,234.0,1540.754
1540764.0,209.0,252.0,4.0,233.0,1540.764
1540774.0,216.0,261.0,3.0,241.0,1540.774
1540784.0,218.0,261.0,3.0,242.0,1540.784
1540794.0,211.0,251.0,4.0,233.0,1540.794
1540804.0,213.0,254.0,4.0,234.0,1540.804
1540814.0,208.0,251.0,4.0,234.0,1540.814
1540824.0,212.0,257.0,4.0,239.0,1540.824
1540834.0,216.0,261.0,3.0,242.0,1540.834
1540844.0,210.0,254.0,3.0,232.0,1540.844
1540854.0,211.0,253.0,4.0,234.0,1540.854
1540864.0,205.0,248.0,4.0,229.0,1540.864
1540874.0,215.0,257.0,4.0,240.0,1540.874
1540884.0,217.0,262.0,4.0,241.0,1540.884
1540894.0,209.0,252.0,4.0,231.0,1540.894
1540904.0,211.0,256.0,3.0,234.0,1540.904
1540914.0,206.0,249.0,4.0,229.0,1540.914
1540924.0,215.0,258.0,4.0,236.0,1540.924
1540934.0,218.0,259.0,4.0,239.0,1540.934
1540944.0,209.0,250.0,2.0,229.0,1540.944
1540954.0,213.0,253.0,3.0,233.0,1540.954
1540964.0,209.0,250.0,3.0,230.0,1540.964
1540974.0,216.0,259.0,3.0,238.0,1540.974
1540984.0,218.0,262.0,3.0,239.0,1540.984
1540994.0,212.0,251.0,4.0,233.0,1540.994
1541004.0,213.0,256.0,4.0,234.0,1541.004
1541014.0,208.0,253.0,4.0,232.0,1541.014
1541024.0,216.0,260.0,4.0,240.0,1541.024
1541035.0,217.0,262.0,3.0,240.0,1541.035
1541045.0,209.0,251.0,3.0,229.0,1541.045
1541055.0,210.0,254.0,3.0,232.0,1541.055
1541065.0,215.0,258.0,4.0,237.0,1541.065
1541075.0,215.0,257.0,4.0,236.0,1541.075
1541085.0,218.0,257.0,4.0,236.0,1541.085
1541095.0,208.0,250.0,3.0,227.0,1541.095
1541105.0,211.0,252.0,4.0,230.0,1541.105
1541115.0,215.0,259.0,4.0,237.0,1541.115
1541125.0,217.0,260.0,5.0,237.0,1541.125
1541135.0,217.0,259.0,4.0,237.0,1541.135
1541145.0,208.0,251.0,4.0,227.0,1541.145
1541155.0,211.0,254.0,3.0,232.0,1541.155
1541165.0,212.0,257.0,4.0,234.0,1541.165
1541175.0,217.0,258.0,3.0,239.0,1541.175
1541185.0,217.0,260.0,5.0,238.0,1541.185
1541195.0,209.0,251.0,4.0,229.0,1541.195
1541206.0,212.0,256.0,4.0,233.0,1541.206
1541216.0,217.0,262.0,3.0,241.0,1541.216
1541226.0,214.0,257.0,3.0,235.0,1541.226
1541236.0,215.0,258.0,3.0,236.0,1541.236
1541246.0,206.0,250.0,4.0,227.0,1541.246
1541256.0,211.0,255.0,4.0,233.0,1541.256
1541266.0,218.0,262.0,4.0,240.0,1541.266
1541276.0,214.0,256.0,4.0,233.0,1541.276
1541286.0,214.0,258.0,3.0,235.0,1541.286
1541296.0,208.0,250.0,4.0,225.0,1541.296
1541306.0,211.0,255.0,4.0,233.0,1541.306
1541316.0,218.0,263.0,4.0,240.0,1541.316
1541326.0,212.0,253.0,4.0,233.0,1541.326
1541336.0,214.0,257.0,4.0,237.0,1541.336
1541346.0,206.0,249.0,4.0,228.0,1541.346
1541356.0,210.0,254.0,3.0,236.0,1541.356
1541366.0,217.0,261.0,3.0,242.0,1541.366
1541376.0,214.0,257.0,4.0,235.0,1541.376
1541386.0,215.0,257.0,4.0,236.0,1541.386
1541396.0,206.0,249.0,4.0,225.0,1541.396
1541406.0,213.0,256.0,4.0,235.0,1541.406
1541416.0,218.0,262.0,3.0,240.0,1541.416
1541426.0,215.0,257.0,4.0,233.0,1541.426
1541436.0,213.0,255.0,4.0,234.0,1541.436
1541446.0,207.0,248.0,5.0,225.0,1541.446
1541456.0,212.0,255.0,2.0,234.0,1541.456
1541466.0,217.0,257.0,4.0,238.0,1541.466
1541476.0,214.0,253.0,3.0,234.0,1541.476
1541486.0,214.0,254.0,4.0,234.0,1541.486
1541496.0,207.0,244.0,4.0,225.0,1541.496
1541506.0,211.0,251.0,4.0,232.0,1541.506
1541516.0,217.0,259.0,4.0,240.0,1541.516
1541526.0,214.0,252.0,3.0,233.0,1541.526
1541536.0,214.0,253.0,4.0,235.0,1541.536
1541547.0,206.0,246.0,4.0,227.0,1541.547
1541557.0,214.0,255.0,3.0,237.0,1541.557
1541567.0,218.0,257.0,4.0,241.0,1541.567
1541577.0,211.0,249.0,4.0,230.0,1541.577
1541587.0,212.0,253.0,4.0,233.0,1541.587
1541597.0,207.0,248.0,4.0,229.0,1541.597
1541607.0,215.0,258.0,3.0,238.0,1541.607
1541617.0,219.0,258.0,4.0,240.0,1541.617
1541627.0,211.0,249.0,4.0,230.0,1541.627
1541637.0,214.0,253.0,4.0,233.0,1541.637
1541647.0,208.0,248.0,4.0,229.0,1541.647
1541657.0,215.0,256.0,4.0,238.0,1541.657
1541667.0,218.0,260.0,3.0,241.0,1541.667
1541677.0,213.0,251.0,4.0,232.0,1541.677
1541687.0,213.0,252.0,3.0,234.0,1541.687
1541697.0,209.0,249.0,4.0,231.0,1541.697
1541707.0,216.0,258.0,4.0,238.0,1541.707
1541718.0,217.0,256.0,4.0,239.0,1541.718
1541728.0,211.0,250.0,4.0,229.0,1541.728
1541738.0,211.0,252.0,3.0,233.0,1541.738
1541748.0,215.0,256.0,4.0,238.0,1541.748
1541758.0,216.0,256.0,4.0,236.0,1541.758
1541768.0,219.0,258.0,5.0,239.0,1541.768
1541778.0,210.0,249.0,3.0,228.0,1541.778
1541788.0,212.0,252.0,4.0,232.0,1541.788
1541798.0,216.0,259.0,3.0,238.0,1541.798
1541808.0,218.0,260.0,4.0,237.0,1541.808
1541818.0,217.0,258.0,4.0,237.0,1541.818
1541828.0,212.0,251.0,4.0,227.0,1541.828
1541838.0,212.0,255.0,4.0,232.0,1541.838
1541848.0,213.0,255.0,4.0,235.0,1541.848
1541858.0,218.0,259.0,3.0,239.0,1541.858
1541868.0,218.0,260.0,3.0,238.0,1541.868
1541878.0,210.0,249.0,3.0,228.0,1541.878
1541888.0,213.0,255.0,4.0,233.0,1541.888
1541898.0,214.0,258.0,4.0,235.0,1541.898
1541908.0,218.0,260.0,4.0,237.0,1541.908
1541918.0,217.0,256.0,4.0,238.0,1541.918
1541928.0,210.0,251.0,3.0,228.0,1541.928
1541938.0,214.0,255.0,4.0,232.0,1541.938
1541948.0,215.0,258.0,4.0,236.0,1541.948
1541958.0,220.0,263.0,5.0,235.0,1541.958
1541968.0,218.0,260.0,4.0,235.0,1541.968
1541978.0,213.0,254.0,3.0,228.0,1541.978
1541988.0,214.0,256.0,3.0,232.0,1541.988
1541998.0,217.0,260.0,4.0,236.0,1541.998
1542008.0,217.0,262.0,3.0,237.0,1542.008
1542018.0,221.0,260.0,4.0,238.0,1542.018
1542028.0,212.0,252.0,4.0,228.0,1542.028
1542038.0,213.0,253.0,4.0,231.0,1542.038
1542048.0,217.0,258.0,3.0,239.0,1542.048
1542059.0,217.0,259.0,3.0,236.0,1542.059
1542069.0,216.0,255.0,3.0,235.0,1542.069
1542079.0,209.0,248.0,4.0,226.0,1542.079
1542089.0,215.0,255.0,4.0,235.0,1542.089
1542099.0,219.0,260.0,4.0,240.0,1542.099
1542109.0,216.0,257.0,3.0,236.0,1542.109
1542119.0,216.0,255.0,3.0,236.0,1542.119
1542129.0,208.0,246.0,4.0,226.0,1542.129
1542139.0,213.0,256.0,4.0,236.0,1542.139
1542149.0,218.0,259.0,5.0,240.0,1542.149
1542159.0,214.0,257.0,3.0,235.0,1542.159
1542169.0,214.0,253.0,3.0,234.0,1542.169
1542179.0,206.0,247.0,3.0,227.0,1542.179
1542189.0,211.0,254.0,4.0,231.0,1542.189
1542199.0,217.0,260.0,4.0,238.0,1542.199
1542209.0,215.0,258.0,5.0,232.0,1542.209
1542219.0,215.0,254.0,4.0,233.0,1542.219
1542230.0,208.0,248.0,3.0,225.0,1542.23
1542240.0,215.0,260.0,4.0,236.0,1542.24
1542250.0,219.0,261.0,3.0,238.0,1542.25
1542260.0,213.0,255.0,4.0,229.0,1542.26
1542270.0,213.0,255.0,4.0,232.0,1542.27
1542280.0,209.0,249.0,5.0,227.0,1542.28
1542290.0,216.0,261.0,4.0,237.0,1542.29
1542300.0,219.0,259.0,4.0,240.0,1542.3
1542310.0,212.0,255.0,3.0,229.0,1542.31
1542320.0,215.0,255.0,4.0,232.0,1542.32
1542330.0,209.0,250.0,4.0,229.0,1542.33
1542340.0,217.0,261.0,5.0,237.0,1542.34
1542350.0,219.0,259.0,4.0,239.0,1542.35
1542360.0,215.0,259.0,4.0,231.0,1542.36
1542370.0,214.0,257.0,4.0,232.0,1542.37
1542380.0,210.0,253.0,3.0,228.0,1542.38
1542390.0,218.0,263.0,3.0,236.0,1542.39
1542400.0,220.0,261.0,4.0,238.0,1542.4
1542410.0,215.0,257.0,3.0,229.0,1542.41
1542420.0,214.0,256.0,3.0,231.0,1542.42
1542430.0,211.0,253.0,4.0,230.0,1542.43
1542440.0,218.0,263.0,3.0,236.0,1542.44
1542450.0,220.0,260.0,4.0,238.0,1542.45
1542460.0,214.0,254.0,4.0,230.0,1542.46
1542470.0,214.0,255.0,5.0,232.0,1542.47
1542480.0,211.0,254.0,4.0,232.0,1542.48
1542490.0,215.0,261.0,4.0,236.0,1542.49
1542500.0,218.0,260.0,3.0,240.0,1542.5
1542510.0,211.0,254.0,4.0,230.0,1542.51
1542520.0,212.0,255.0,4.0,233.0,1542.52
1542530.0,207.0,249.0,4.0,228.0,1542.53
1542540.0,216.0,261.0,4.0,237.0,1542.54
1542550.0,218.0,260.0,3.0,238.0,1542.55
1542560.0,211.0,253.0,3.0,230.0,1542.56
1542571.0,212.0,254.0,3.0,231.0,1542.571
1542581.0,213.0,256.0,4.0,234.0,1542.581
1542591.0,217.0,259.0,5.0,236.0,1542.591
1542601.0,216.0,258.0,4.0,235.0,1542.601
1542611.0,208.0,250.0,4.0,226.0,1542.611
1542621.0,212.0,255.0,4.0,232.0,1542.621
1542631.0,213.0,258.0,3.0,236.0,1542.631
1542641.0,217.0,260.0,4.0,236.0,1542.641
1542651.0,215.0,257.0,4.0,235.0,1542.651
1542661.0,213.0,251.0,4.0,229.0,1542.661
1542671.0,212.0,254.0,4.0,231.0,1542.671
1542681.0,215.0,257.0,4.0,236.0,1542.681
1542691.0,217.0,258.0,3.0,238.0,1542.691
1542701.0,219.0,257.0,4.0,237.0,1542.701
1542711.0,211.0,251.0,3.0,228.0,1542.711
1542721.0,213.0,253.0,5.0,230.0,1542.721
1542731.0,216.0,258.0,4.0,236.0,1542.731
1542742.0,216.0,257.0,4.0,234.0,1542.742
1542752.0,216.0,255.0,4.0,233.0,1542.752
1542762.0,208.0,248.0,3.0,224.0,1542.762
1542772.0,214.0,257.0,4.0,232.0,1542.772
1542782.0,220.0,260.0,4.0,238.0,1542.782
1542792.0,218.0,258.0,4.0,235.0,1542.792
1542802.0,215.0,255.0,4.0,235.0,1542.802
1542812.0,208.0,245.0,4.0,226.0,1542.812
1542822.0,214.0,256.0,3.0,237.0,1542.822
1542832.0,216.0,257.0,4.0,239.0,1542.832
1542842.0,214.0,253.0,3.0,236.0,1542.842
1542852.0,214.0,251.0,5.0,235.0,1542.852
1542862.0,206.0,244.0,4.0,227.0,1542.862
1542872.0,210.0,250.0,4.0,232.0,1542.872
1542882.0,217.0,258.0,4.0,238.0,1542.882
1542892.0,214.0,255.0,4.0,236.0,1542.892
1542902.0,213.0,252.0,4.0,234.0,1542.902
1542912.0,207.0,246.0,3.0,228.0,1542.912
1542922.0,212.0,252.0,4.0,233.0,1542.922
1542932.0,217.0,258.0,3.0,240.0,1542.932
1542942.0,213.0,256.0,3.0,236.0,1542.942
1542952.0,214.0,254.0,4.0,234.0,1542.952
1542962.0,207.0,249.0,3.0,227.0,1542.962
1542972.0,211.0,254.0,3.0,234.0,1542.972
1542982.0,218.0,259.0,5.0,240.0,1542.982
1542992.0,212.0,254.0,4.0,234.0,1542.992
1543002.0,213.0,253.0,4.0,236.0,1543.002
1543012.0,206.0,247.0,3.0,228.0,1543.012
1543022.0,212.0,255.0,4.0,235.0,1543.022
1543032.0,217.0,260.0,4.0,242.0,1543.032
1543042.0,215.0,255.0,3.0,238.0,1543.042
1543052.0,214.0,255.0,4.0,236.0,1543.052
1543062.0,206.0,246.0,3.0,227.0,1543.062
1543072.0,212.0,256.0,3.0,237.0,1543.072
1543083.0,218.0,258.0,4.0,240.0,1543.083
1543093.0,212.0,253.0,3.0,233.0,1543.093
1543103.0,212.0,253.0,4.0,234.0,1543.103
1543113.0,209.0,250.0,4.0,231.0,1543.113
1543123.0,215.0,260.0,4.0,237.0,1543.123
1543133.0,218.0,260.0,4.0,239.0,1543.133
1543143.0,211.0,254.0,3.0,232.0,1543.143
1543153.0,213.0,254.0,4.0,232.0,1543.153
1543163.0,209.0,252.0,4.0,231.0,1543.163
1543173.0,215.0,257.0,5.0,235.0,1543.173
1543183.0,218.0,262.0,4.0,238.0,1543.183
1543193.0,211.0,251.0,3.0,231.0,1543.193
1543203.0,213.0,257.0,3.0,233.0,1543.203
1543213.0,206.0,248.0,4.0,226.0,1543.213
1543223.0,213.0,259.0,3.0,237.0,1543.223
1543233.0,218.0,259.0,5.0,239.0,1543.233
1543243.0,210.0,251.0,4.0,231.0,1543.243
1543254.0,212.0,255.0,3.0,233.0,1543.254
1543264.0,212.0,257.0,3.0,236.0,1543.264
1543274.0,215.0,260.0,3.0,238.0,1543.274
1543284.0,217.0,257.0,3.0,237.0,1543.284
1543294.0,207.0,248.0,4.0,228.0,1543.294
1543304.0,212.0,252.0,4.0,233.0,1543.304
1543314.0,212.0,255.0,3.0,237.0,1543.314
1543324.0,215.0,259.0,4.0,238.0,1543.324
1543334.0,215.0,256.0,3.0,236.0,1543.334
1543344.0,209.0,251.0,4.0,230.0,1543.344
1543354.0,211.0,255.0,3.0,232.0,1543.354
1543364.0,215.0,258.0,5.0,235.0,1543.364
1543374.0,215.0,261.0,3.0,237.0,1543.374
1543384.0,218.0,260.0,4.0,238.0,1543.384
1543394.0,209.0,251.0,4.0,230.0,1543.394
1543404.0,211.0,254.0,4.0,232.0,1543.404
1543414.0,213.0,257.0,4.0,237.0,1543.414
1543424.0,215.0,261.0,5.0,238.0,1543.424
1543434.0,217.0,255.0,4.0,237.0,1543.434
1543444.0,206.0,252.0,3.0,230.0,1543.444
1543454.0,210.0,254.0,4.0,233.0,1543.454
1543464.0,213.0,258.0,3.0,239.0,1543.464
1543474.0,214.0,260.0,4.0,240.0,1543.474
1543484.0,217.0,255.0,3.0,238.0,1543.484
1543494.0,208.0,250.0,4.0,230.0,1543.494
1543504.0,210.0,255.0,3.0,234.0,1543.504
1543514.0,211.0,256.0,4.0,236.0,1543.514
1543524.0,214.0,263.0,3.0,241.0,1543.524
1543534.0,216.0,256.0,4.0,239.0,1543.534
1543544.0,206.0,251.0,4.0,232.0,1543.544
1543554.0,210.0,254.0,3.0,236.0,1543.554
1543564.0,212.0,257.0,4.0,238.0,1543.564
1543574.0,214.0,261.0,4.0,239.0,1543.574
1543584.0,216.0,257.0,3.0,239.0,1543.584
1543595.0,207.0,250.0,3.0,230.0,1543.595
1543605.0,210.0,255.0,4.0,235.0,1543.605
1543615.0,216.0,260.0,3.0,240.0,1543.615
1543625.0,213.0,257.0,4.0,236.0,1543.625
1543635.0,214.0,254.0,4.0,235.0,1543.635
1543645.0,207.0,249.0,4.0,229.0,1543.645
1543655.0,211.0,256.0,3.0,235.0,1543.655
1543665.0,218.0,261.0,3.0,241.0,1543.665
1543675.0,213.0,256.0,4.0,236.0,1543.675
1543685.0,216.0,256.0,5.0,236.0,1543.685
1543695.0,206.0,248.0,4.0,228.0,1543.695
1543705.0,211.0,255.0,4.0,236.0,1543.705
1543715.0,218.0,263.0,3.0,241.0,1543.715
1543725.0,214.0,255.0,4.0,238.0,1543.725
1543735.0,215.0,255.0,3.0,237.0,1543.735
1543745.0,206.0,245.0,4.0,229.0,1543.745
1543755.0,211.0,252.0,4.0,239.0,1543.755
1543766.0,218.0,260.0,3.0,243.0,1543.766
1543776.0,210.0,252.0,3.0,237.0,1543.776
1543786.0,211.0,255.0,3.0,236.0,1543.786
1543796.0,207.0,251.0,4.0,233.0,1543.796
1543806.0,215.0,258.0,4.0,240.0,1543.806
1543816.0,218.0,259.0,4.0,241.0,1543.816
1543826.0,210.0,250.0,4.0,234.0,1543.826
1543836.0,212.0,253.0,4.0,235.0,1543.836
1543846.0,209.0,252.0,3.0,234.0,1543.846
1543856.0,213.0,255.0,4.0,238.0,1543.856
1543866.0,218.0,260.0,4.0,240.0,1543.866
1543876.0,212.0,250.0,4.0,234.0,1543.876
1543886.0,213.0,253.0,4.0,234.0,1543.886
1543896.0,205.0,247.0,4.0,229.0,1543.896
1543906.0,213.0,256.0,4.0,239.0,1543.906
1543916.0,218.0,262.0,4.0,240.0,1543.916
1543926.0,209.0,251.0,4.0,234.0,1543.926
1543936.0,213.0,256.0,4.0,235.0,1543.936
1543946.0,206.0,248.0,4.0,231.0,1543.946
1543956.0,215.0,260.0,4.0,241.0,1543.956
1543966.0,218.0,261.0,4.0,242.0,1543.966
1543976.0,209.0,252.0,4.0,233.0,1543.976
1543986.0,213.0,255.0,4.0,236.0,1543.986
1543996.0,206.0,249.0,4.0,233.0,1543.996
1544006.0,216.0,258.0,4.0,241.0,1544.006
1544016.0,217.0,259.0,4.0,240.0,1544.016
1544026.0,211.0,251.0,4.0,236.0,1544.026
1544036.0,211.0,254.0,3.0,236.0,1544.036
1544046.0,208.0,250.0,3.0,233.0,1544.046
1544056.0,216.0,257.0,4.0,241.0,1544.056
1544066.0,218.0,260.0,4.0,240.0,1544.066
1544076.0,211.0,253.0,4.0,234.0,1544.076
1544086.0,213.0,255.0,3.0,234.0,1544.086
1544096.0,209.0,254.0,3.0,234.0,1544.096
1544107.0,216.0,260.0,3.0,240.0,1544.107
1544117.0,218.0,260.0,4.0,238.0,1544.117
1544127.0,209.0,251.0,4.0,230.0,1544.127
1544137.0,212.0,254.0,4.0,232.0,1544.137
1544147.0,215.0,260.0,4.0,237.0,1544.147
1544157.0,215.0,261.0,3.0,238.0,1544.157
1544167.0,218.0,256.0,3.0,236.0,1544.167
1544177.0,208.0,250.0,4.0,230.0,1544.177
1544187.0,210.0,253.0,4.0,233.0,1544.187
1544197.0,212.0,255.0,4.0,235.0,1544.197
1544207.0,214.0,260.0,4.0,238.0,1544.207
1544217.0,216.0,259.0,4.0,237.0,1544.217
1544227.0,207.0,251.0,3.0,231.0,1544.227
1544237.0,211.0,254.0,4.0,234.0,1544.237
1544247.0,211.0,255.0,4.0,237.0,1544.247
1544257.0,214.0,258.0,3.0,239.0,1544.257
1544267.0,216.0,256.0,4.0,238.0,1544.267
1544278.0,207.0,248.0,4.0,229.0,1544.278
1544288.0,210.0,255.0,3.0,235.0,1544.288
1544298.0,217.0,260.0,4.0,240.0,1544.298
1544308.0,213.0,254.0,3.0,237.0,1544.308
1544318.0,213.0,254.0,4.0,236.0,1544.318
1544328.0,206.0,247.0,4.0,229.0,1544.328
1544338.0,210.0,253.0,4.0,236.0,1544.338
1544348.0,217.0,259.0,3.0,241.0,1544.348
1544358.0,212.0,254.0,3.0,236.0,1544.358
1544368.0,215.0,254.0,4.0,236.0,1544.368
1544378.0,205.0,247.0,4.0,227.0,1544.378
1544388.0,212.0,255.0,4.0,235.0,1544.388
1544398.0,218.0,260.0,4.0,241.0,1544.398
1544408.0,214.0,256.0,4.0,237.0,1544.408
1544418.0,216.0,256.0,3.0,236.0,1544.418
1544428.0,207.0,246.0,4.0,227.0,1544.428
1544438.0,213.0,256.0,3.0,237.0,1544.438
1544448.0,216.0,258.0,4.0,240.0,1544.448
1544458.0,214.0,255.0,4.0,238.0,1544.458
1544468.0,214.0,254.0,4.0,236.0,1544.468
1544478.0,206.0,247.0,3.0,229.0,1544.478
1544488.0,212.0,256.0,3.0,238.0,1544.488
1544498.0,216.0,259.0,4.0,240.0,1544.498
1544508.0,213.0,255.0,4.0,237.0,1544.508
1544518.0,214.0,254.0,4.0,236.0,1544.518
1544528.0,205.0,246.0,4.0,228.0,1544.528
1544538.0,210.0,252.0,4.0,233.0,1544.538
1544548.0,217.0,264.0,3.0,240.0,1544.548
1544558.0,214.0,256.0,4.0,236.0,1544.558
1544568.0,213.0,257.0,4.0,235.0,1544.568
1544578.0,206.0,250.0,5.0,229.0,1544.578
1544588.0,211.0,255.0,2.0,235.0,1544.588
1544598.0,217.0,262.0,3.0,241.0,1544.598
1544608.0,213.0,259.0,3.0,237.0,1544.608
1544619.0,214.0,258.0,3.0,236.0,1544.619
1544629.0,207.0,250.0,3.0,230.0,1544.629
1544639.0,216.0,259.0,5.0,239.0,1544.639
1544649.0,220.0,261.0,4.0,241.0,1544.649
1544659.0,211.0,254.0,4.0,232.0,1544.659
1544669.0,214.0,255.0,4.0,236.0,1544.669
1544679.0,208.0,251.0,3.0,232.0,1544.679
1544689.0,216.0,261.0,4.0,240.0,1544.689
1544699.0,219.0,260.0,4.0,241.0,1544.699
1544709.0,214.0,257.0,4.0,235.0,1544.709
1544719.0,214.0,255.0,4.0,236.0,1544.719
1544729.0,208.0,251.0,4.0,233.0,1544.729
1544739.0,216.0,262.0,3.0,242.0,1544.739
1544749.0,219.0,261.0,4.0,242.0,1544.749
1544759.0,213.0,254.0,3.0,235.0,1544.759
1544769.0,213.0,255.0,3.0,237.0,1544.769
1544779.0,210.0,252.0,4.0,235.0,1544.779
1544790.0,216.0,259.0,4.0,241.0,1544.79
1544800.0,218.0,259.0,3.0,240.0,1544.8
1544810.0,209.0,250.0,4.0,231.0,1544.81
1544820.0,212.0,253.0,3.0,235.0,1544.82
1544830.0,216.0,258.0,5.0,240.0,1544.83
1544840.0,217.0,257.0,4.0,240.0,1544.84
1544850.0,218.0,257.0,4.0,239.0,1544.85
1544860.0,208.0,248.0,4.0,231.0,1544.86
1544870.0,210.0,252.0,3.0,234.0,1544.87
1544880.0,211.0,252.0,3.0,236.0,1544.88
1544890.0,215.0,258.0,4.0,240.0,1544.89
1544900.0,217.0,255.0,4.0,238.0,1544.9
1544910.0,208.0,248.0,4.0,230.0,1544.91
1544920.0,211.0,252.0,4.0,233.0,1544.92
1544930.0,212.0,255.0,3.0,237.0,1544.93
1544940.0,216.0,258.0,3.0,238.0,1544.94
1544950.0,217.0,257.0,4.0,237.0,1544.95
1544960.0,211.0,251.0,4.0,233.0,1544.96
1544970.0,212.0,255.0,4.0,233.0,1544.97
1544980.0,213.0,257.0,3.0,237.0,1544.98
1544990.0,216.0,259.0,4.0,240.0,1544.99
1545000.0,216.0,258.0,3.0,237.0,1545.0
1545010.0,209.0,252.0,4.0,233.0,1545.01
1545020.0,212.0,254.0,4.0,235.0,1545.02
1545030.0,214.0,256.0,5.0,239.0,1545.03
1545040.0,215.0,257.0,4.0,240.0,1545.04
1545050.0,218.0,258.0,4.0,239.0,1545.05
1545060.0,208.0,249.0,3.0,234.0,1545.06
1545070.0,211.0,253.0,4.0,236.0,1545.07
1545080.0,213.0,259.0,4.0,241.0,1545.08
1545090.0,217.0,259.0,5.0,242.0,1545.09
1545100.0,217.0,257.0,4.0,240.0,1545.1
1545110.0,209.0,248.0,4.0,233.0,1545.11
1545120.0,210.0,252.0,4.0,236.0,1545.12
1545131.0,215.0,256.0,4.0,242.0,1545.131
1545141.0,215.0,256.0,3.0,241.0,1545.141
1545151.0,215.0,254.0,4.0,239.0,1545.151
1545161.0,207.0,246.0,4.0,231.0,1545.161
1545171.0,213.0,256.0,4.0,240.0,1545.171
1545181.0,216.0,257.0,4.0,244.0,1545.181
1545191.0,216.0,258.0,3.0,240.0,1545.191
1545201.0,215.0,254.0,4.0,238.0,1545.201
1545211.0,207.0,248.0,4.0,231.0,1545.211
1545221.0,212.0,254.0,4.0,238.0,1545.221
1545231.0,216.0,259.0,3.0,244.0,1545.231
1545241.0,215.0,257.0,4.0,240.0,1545.241
1545251.0,214.0,255.0,3.0,238.0,1545.251
1545261.0,209.0,250.0,4.0,231.0,1545.261
1545271.0,212.0,257.0,3.0,236.0,1545.271
1545281.0,219.0,262.0,3.0,241.0,1545.281
1545291.0,215.0,257.0,2.0,239.0,1545.291
1545302.0,215.0,257.0,3.0,237.0,1545.302
1545312.0,208.0,250.0,3.0,232.0,1545.312
1545322.0,217.0,260.0,4.0,241.0,1545.322
1545332.0,220.0,261.0,3.0,241.0,1545.332
1545342.0,213.0,251.0,4.0,235.0,1545.342
1545352.0,215.0,255.0,4.0,237.0,1545.352
1545362.0,210.0,249.0,3.0,232.0,1545.362
1545372.0,218.0,257.0,4.0,241.0,1545.372
1545382.0,219.0,256.0,3.0,242.0,1545.382
1545392.0,215.0,252.0,4.0,237.0,1545.392
1545402.0,215.0,251.0,3.0,237.0,1545.402
1545412.0,211.0,247.0,4.0,232.0,1545.412
1545422.0,218.0,258.0,4.0,241.0,1545.422
1545432.0,220.0,257.0,4.0,243.0,1545.432
1545442.0,215.0,254.0,3.0,237.0,1545.442
1545452.0,215.0,254.0,4.0,236.0,1545.452
1545462.0,211.0,251.0,4.0,233.0,1545.462
1545472.0,217.0,258.0,5.0,238.0,1545.472
1545482.0,221.0,260.0,4.0,241.0,1545.482
1545492.0,215.0,254.0,4.0,234.0,1545.492
1545502.0,216.0,256.0,3.0,236.0,1545.502
1545512.0,213.0,254.0,3.0,236.0,1545.512
1545522.0,217.0,260.0,3.0,241.0,1545.522
1545532.0,221.0,264.0,4.0,244.0,1545.532
1545542.0,215.0,255.0,3.0,236.0,1545.542
1545552.0,215.0,257.0,4.0,236.0,1545.552
1545562.0,210.0,250.0,4.0,231.0,1545.562
1545572.0,216.0,261.0,3.0,242.0,1545.572
1545582.0,220.0,259.0,4.0,243.0,1545.582
1545592.0,213.0,253.0,4.0,235.0,1545.592
1545602.0,216.0,254.0,5.0,237.0,1545.602
1545612.0,208.0,249.0,3.0,232.0,1545.612
1545622.0,216.0,258.0,4.0,241.0,1545.622
1545632.0,219.0,257.0,4.0,242.0,1545.632
1545643.0,212.0,250.0,3.0,234.0,1545.643
1545653.0,212.0,253.0,3.0,235.0,1545.653
1545663.0,214.0,254.0,5.0,239.0,1545.663
1545673.0,218.0,256.0,4.0,240.0,1545.673
1545683.0,217.0,254.0,3.0,237.0,1545.683
1545693.0,212.0,249.0,3.0,233.0,1545.693
1545703.0,213.0,252.0,3.0,234.0,1545.703
1545713.0,215.0,255.0,3.0,239.0,1545.713
1545723.0,217.0,257.0,4.0,240.0,1545.723
1545733.0,219.0,257.0,4.0,240.0,1545.733
1545743.0,212.0,250.0,4.0,232.0,1545.743
1545753.0,213.0,253.0,4.0,235.0,1545.753
1545763.0,217.0,258.0,3.0,240.0,1545.763
1545773.0,219.0,261.0,4.0,240.0,1545.773
1545783.0,220.0,257.0,4.0,241.0,1545.783
1545793.0,212.0,253.0,5.0,233.0,1545.793
1545803.0,213.0,256.0,4.0,236.0,1545.803
1545814.0,217.0,258.0,3.0,241.0,1545.814
1545824.0,217.0,264.0,3.0,240.0,1545.824
1545834.0,216.0,256.0,4.0,238.0,1545.834
1545844.0,208.0,252.0,3.0,231.0,1545.844
1545854.0,215.0,260.0,5.0,240.0,1545.854
1545864.0,218.0,262.0,4.0,243.0,1545.864
1545874.0,217.0,261.0,4.0,240.0,1545.874
1545884.0,215.0,256.0,3.0,240.0,1545.884
1545894.0,209.0,248.0,3.0,230.0,1545.894
1545904.0,213.0,255.0,4.0,236.0,1545.904
1545914.0,218.0,260.0,4.0,241.0,1545.914
1545924.0,217.0,259.0,4.0,238.0,1545.924
1545934.0,214.0,256.0,3.0,237.0,1545.934
1545944.0,210.0,251.0,3.0,230.0,1545.944
1545954.0,213.0,256.0,3.0,235.0,1545.954
1545964.0,220.0,261.0,4.0,240.0,1545.964
1545974.0,216.0,260.0,3.0,235.0,1545.974
1545984.0,218.0,256.0,5.0,236.0,1545.984
1545994.0,210.0,251.0,4.0,227.0,1545.994
1546004.0,214.0,258.0,4.0,233.0,1546.004
1546014.0,219.0,262.0,3.0,241.0,1546.014
1546024.0,216.0,260.0,3.0,234.0,1546.024
1546034.0,217.0,255.0,4.0,236.0,1546.034
1546044.0,210.0,252.0,5.0,226.0,1546.044
1546054.0,214.0,258.0,3.0,234.0,1546.054
1546064.0,220.0,261.0,4.0,240.0,1546.064
1546074.0,218.0,261.0,3.0,237.0,1546.074
1546084.0,217.0,256.0,3.0,235.0,1546.084
1546094.0,209.0,250.0,4.0,227.0,1546.094
1546104.0,213.0,257.0,4.0,235.0,1546.104
1546114.0,219.0,259.0,5.0,239.0,1546.114
1546124.0,216.0,261.0,4.0,237.0,1546.124
1546134.0,216.0,256.0,4.0,236.0,1546.134
1546144.0,209.0,250.0,4.0,227.0,1546.144
1546155.0,215.0,259.0,4.0,236.0,1546.155
1546165.0,220.0,261.0,4.0,241.0,1546.165
1546175.0,215.0,258.0,5.0,233.0,1546.175
1546185.0,214.0,256.0,4.0,234.0,1546.185
1546195.0,212.0,254.0,4.0,233.0,1546.195
1546205.0,215.0,261.0,3.0,239.0,1546.205
