time (ms),signal 0,signal 1,signal 2,signal 3,time (sec)
1589531.0,215.0,254.0,5.0,237.0,1589.531
1589541.0,209.0,245.0,3.0,231.0,1589.541
1589551.0,211.0,249.0,3.0,233.0,1589.551
1589561.0,203.0,240.0,3.0,226.0,1589.561
1589571.0,210.0,248.0,4.0,234.0,1589.571
1589581.0,215.0,253.0,4.0,238.0,1589.581
1589591.0,211.0,249.0,4.0,235.0,1589.591
1589601.0,210.0,249.0,2.0,233.0,1589.601
1589611.0,202.0,241.0,3.0,227.0,1589.611
1589621.0,210.0,249.0,3.0,236.0,1589.621
1589632.0,214.0,252.0,4.0,238.0,1589.632
1589642.0,208.0,245.0,3.0,233.0,1589.642
1589652.0,210.0,248.0,5.0,232.0,1589.652
1589662.0,208.0,248.0,2.0,233.0,1589.662
1589672.0,213.0,253.0,3.0,237.0,1589.672
1589682.0,215.0,257.0,3.0,239.0,1589.682
1589692.0,208.0,248.0,3.0,231.0,1589.692
1589702.0,210.0,249.0,5.0,231.0,1589.702
1589712.0,209.0,251.0,5.0,234.0,1589.712
1589722.0,213.0,255.0,3.0,237.0,1589.722
1589732.0,215.0,255.0,4.0,238.0,1589.732
1589742.0,209.0,247.0,4.0,231.0,1589.742
1589752.0,210.0,252.0,3.0,232.0,1589.752
1589762.0,207.0,247.0,3.0,230.0,1589.762
1589772.0,213.0,256.0,4.0,238.0,1589.772
1589782.0,218.0,257.0,5.0,238.0,1589.782
1589792.0,210.0,250.0,4.0,231.0,1589.792
1589803.0,211.0,253.0,4.0,231.0,1589.803
1589813.0,214.0,257.0,3.0,237.0,1589.813
1589823.0,216.0,258.0,3.0,238.0,1589.823
1589833.0,215.0,255.0,4.0,236.0,1589.833
1589843.0,208.0,248.0,5.0,228.0,1589.843
1589853.0,212.0,253.0,4.0,233.0,1589.853
1589863.0,215.0,259.0,4.0,238.0,1589.863
1589873.0,216.0,256.0,4.0,239.0,1589.873
1589883.0,216.0,257.0,3.0,235.0,1589.883
1589893.0,210.0,249.0,4.0,231.0,1589.893
1589903.0,213.0,253.0,4.0,234.0,1589.903
1589913.0,218.0,258.0,4.0,239.0,1589.913
1589923.0,215.0,255.0,4.0,238.0,1589.923
1589933.0,218.0,256.0,4.0,237.0,1589.933
1589943.0,210.0,248.0,3.0,231.0,1589.943
1589953.0,213.0,252.0,4.0,234.0,1589.953
1589963.0,218.0,258.0,3.0,240.0,1589.963
1589974.0,218.0,256.0,5.0,237.0,1589.974
1589984.0,216.0,254.0,4.0,235.0,1589.984
1589994.0,208.0,247.0,4.0,229.0,1589.994
1590004.0,216.0,258.0,3.0,239.0,1590.004
1590014.0,220.0,258.0,4.0,241.0,1590.014
1590024.0,215.0,254.0,3.0,238.0,1590.024
1590034.0,216.0,252.0,4.0,236.0,1590.034
1590044.0,208.0,247.0,4.0,230.0,1590.044
1590054.0,216.0,259.0,3.0,240.0,1590.054
1590064.0,220.0,261.0,3.0,242.0,1590.064
1590074.0,216.0,256.0,3.0,237.0,1590.074
1590084.0,216.0,255.0,4.0,236.0,1590.084
1590094.0,209.0,249.0,4.0,231.0,1590.094
1590104.0,215.0,255.0,4.0,236.0,1590.104
1590114.0,220.0,261.0,3.0,242.0,1590.114
1590124.0,215.0,257.0,4.0,236.0,1590.124
1590134.0,215.0,255.0,3.0,237.0,1590.134
1590144.0,209.0,249.0,4.0,229.0,1590.144
1590154.0,214.0,256.0,4.0,237.0,1590.154
1590164.0,221.0,261.0,5.0,241.0,1590.164
1590174.0,214.0,258.0,4.0,236.0,1590.174
1590184.0,215.0,257.0,3.0,235.0,1590.184
1590194.0,209.0,251.0,3.0,229.0,1590.194
1590204.0,216.0,259.0,4.0,237.0,1590.204
1590214.0,222.0,262.0,5.0,241.0,1590.214
1590224.0,214.0,258.0,4.0,235.0,1590.224
1590234.0,217.0,257.0,4.0,236.0,1590.234
1590244.0,208.0,251.0,4.0,228.0,1590.244
1590254.0,216.0,261.0,3.0,239.0,1590.254
1590264.0,221.0,264.0,3.0,241.0,1590.264
1590274.0,216.0,259.0,4.0,236.0,1590.274
1590284.0,215.0,257.0,3.0,236.0,1590.284
1590294.0,208.0,249.0,5.0,230.0,1590.294
1590304.0,215.0,259.0,4.0,239.0,1590.304
1590315.0,220.0,260.0,4.0,241.0,1590.315
1590325.0,212.0,255.0,3.0,235.0,1590.325
1590335.0,214.0,255.0,4.0,234.0,1590.335
1590345.0,213.0,256.0,3.0,237.0,1590.345
1590355.0,218.0,262.0,5.0,240.0,1590.355
1590365.0,220.0,262.0,3.0,242.0,1590.365
1590375.0,212.0,253.0,4.0,232.0,1590.375
1590385.0,213.0,259.0,3.0,234.0,1590.385
1590395.0,214.0,260.0,3.0,237.0,1590.395
1590405.0,217.0,263.0,4.0,239.0,1590.405
1590415.0,220.0,264.0,5.0,240.0,1590.415
1590425.0,211.0,253.0,4.0,231.0,1590.425
1590435.0,213.0,257.0,4.0,233.0,1590.435
1590445.0,210.0,254.0,4.0,232.0,1590.445
1590455.0,217.0,264.0,3.0,239.0,1590.455
1590465.0,219.0,262.0,5.0,238.0,1590.465
1590475.0,210.0,253.0,3.0,230.0,1590.475
1590486.0,214.0,256.0,4.0,232.0,1590.486
1590496.0,215.0,260.0,4.0,238.0,1590.496
1590506.0,215.0,259.0,4.0,237.0,1590.506
1590516.0,216.0,256.0,3.0,237.0,1590.516
1590526.0,208.0,248.0,4.0,228.0,1590.526
1590536.0,212.0,255.0,3.0,234.0,1590.536
1590546.0,216.0,260.0,5.0,240.0,1590.546
1590556.0,216.0,259.0,3.0,239.0,1590.556
1590566.0,217.0,258.0,3.0,237.0,1590.566
1590576.0,211.0,249.0,4.0,231.0,1590.576
1590586.0,213.0,253.0,3.0,233.0,1590.586
1590596.0,219.0,258.0,4.0,240.0,1590.596
1590606.0,217.0,256.0,4.0,238.0,1590.606
1590616.0,220.0,259.0,4.0,238.0,1590.616
1590626.0,209.0,249.0,3.0,231.0,1590.626
1590636.0,216.0,255.0,4.0,236.0,1590.636
1590646.0,222.0,264.0,3.0,242.0,1590.646
1590656.0,222.0,264.0,4.0,241.0,1590.656
1590666.0,224.0,263.0,3.0,239.0,1590.666
1590676.0,216.0,251.0,5.0,229.0,1590.676
1590686.0,216.0,255.0,2.0,234.0,1590.686
1590696.0,224.0,259.0,4.0,237.0,1590.696
1590706.0,226.0,262.0,3.0,237.0,1590.706
1590716.0,227.0,258.0,4.0,230.0,1590.716
1590726.0,219.0,247.0,5.0,226.0,1590.726
1590736.0,222.0,257.0,5.0,235.0,1590.736
1590746.0,227.0,258.0,4.0,237.0,1590.746
1590756.0,226.0,261.0,3.0,240.0,1590.756
1590766.0,229.0,264.0,3.0,239.0,1590.766
1590776.0,226.0,263.0,3.0,235.0,1590.776
1590786.0,231.0,279.0,4.0,246.0,1590.786
1590796.0,245.0,300.0,4.0,261.0,1590.796
1590806.0,249.0,303.0,5.0,258.0,1590.806
1590816.0,247.0,304.0,4.0,257.0,1590.816
1590827.0,231.0,277.0,3.0,245.0,1590.827
1590837.0,236.0,288.0,3.0,253.0,1590.837
1590847.0,240.0,292.0,3.0,256.0,1590.847
1590857.0,248.0,317.0,3.0,268.0,1590.857
1590867.0,248.0,328.0,5.0,276.0,1590.867
1590877.0,243.0,312.0,4.0,274.0,1590.877
1590887.0,258.0,321.0,3.0,289.0,1590.887
1590897.0,263.0,323.0,4.0,296.0,1590.897
1590907.0,253.0,320.0,3.0,288.0,1590.907
1590917.0,247.0,311.0,4.0,277.0,1590.917
1590927.0,239.0,303.0,5.0,273.0,1590.927
1590937.0,234.0,300.0,4.0,276.0,1590.937
1590947.0,230.0,298.0,4.0,272.0,1590.947
1590957.0,223.0,285.0,4.0,260.0,1590.957
1590967.0,233.0,312.0,3.0,272.0,1590.967
1590977.0,224.0,286.0,4.0,257.0,1590.977
1590987.0,228.0,293.0,4.0,270.0,1590.987
1590998.0,233.0,302.0,5.0,275.0,1590.998
1591008.0,222.0,291.0,4.0,260.0,1591.008
1591018.0,219.0,277.0,4.0,253.0,1591.018
1591028.0,223.0,279.0,3.0,254.0,1591.028
1591038.0,228.0,285.0,4.0,256.0,1591.038
1591048.0,232.0,293.0,4.0,253.0,1591.048
1591058.0,239.0,301.0,5.0,240.0,1591.058
1591068.0,239.0,282.0,4.0,232.0,1591.068
1591078.0,240.0,288.0,3.0,235.0,1591.078
1591088.0,242.0,296.0,3.0,239.0,1591.088
1591098.0,237.0,291.0,3.0,240.0,1591.098
1591108.0,225.0,272.0,4.0,226.0,1591.108
1591118.0,233.0,275.0,4.0,226.0,1591.118
1591128.0,242.0,281.0,5.0,233.0,1591.128
1591138.0,258.0,294.0,3.0,234.0,1591.138
1591148.0,266.0,302.0,4.0,244.0,1591.148
1591158.0,262.0,301.0,3.0,237.0,1591.158
1591168.0,266.0,308.0,4.0,240.0,1591.168
1591178.0,257.0,302.0,3.0,237.0,1591.178
1591188.0,257.0,303.0,5.0,244.0,1591.188
1591198.0,250.0,287.0,4.0,241.0,1591.198
1591208.0,231.0,263.0,3.0,221.0,1591.208
1591218.0,233.0,269.0,3.0,226.0,1591.218
1591228.0,225.0,258.0,4.0,224.0,1591.228
1591238.0,238.0,274.0,5.0,228.0,1591.238
1591248.0,236.0,275.0,5.0,235.0,1591.248
1591258.0,228.0,264.0,4.0,231.0,1591.258
1591268.0,238.0,274.0,3.0,239.0,1591.268
1591278.0,233.0,268.0,4.0,238.0,1591.278
1591288.0,237.0,271.0,3.0,239.0,1591.288
1591298.0,240.0,271.0,4.0,244.0,1591.298
1591308.0,235.0,261.0,4.0,237.0,1591.308
1591318.0,241.0,262.0,4.0,238.0,1591.318
1591328.0,242.0,264.0,4.0,235.0,1591.328
1591339.0,246.0,260.0,4.0,226.0,1591.339
1591349.0,250.0,266.0,3.0,229.0,1591.349
1591359.0,241.0,256.0,3.0,212.0,1591.359
1591369.0,238.0,250.0,4.0,220.0,1591.369
1591379.0,244.0,254.0,5.0,231.0,1591.379
1591389.0,242.0,261.0,4.0,235.0,1591.389
1591399.0,242.0,267.0,3.0,241.0,1591.399
1591409.0,232.0,258.0,3.0,229.0,1591.409
1591419.0,237.0,262.0,4.0,230.0,1591.419
1591429.0,242.0,268.0,4.0,237.0,1591.429
1591439.0,246.0,273.0,4.0,235.0,1591.439
1591449.0,240.0,266.0,3.0,242.0,1591.449
1591459.0,230.0,250.0,4.0,227.0,1591.459
1591469.0,230.0,251.0,4.0,233.0,1591.469
1591479.0,235.0,259.0,3.0,238.0,1591.479
1591489.0,234.0,259.0,4.0,233.0,1591.489
1591499.0,240.0,265.0,4.0,232.0,1591.499
1591510.0,231.0,257.0,4.0,227.0,1591.51
1591520.0,247.0,277.0,2.0,242.0,1591.52
1591530.0,242.0,280.0,4.0,249.0,1591.53
1591540.0,234.0,271.0,3.0,241.0,1591.54
1591550.0,229.0,264.0,4.0,238.0,1591.55
1591560.0,224.0,262.0,4.0,232.0,1591.56
1591570.0,235.0,278.0,4.0,241.0,1591.57
1591580.0,249.0,292.0,3.0,246.0,1591.58
1591590.0,242.0,281.0,4.0,239.0,1591.59
1591600.0,248.0,285.0,4.0,248.0,1591.6
1591610.0,235.0,274.0,3.0,240.0,1591.61
1591620.0,240.0,284.0,4.0,250.0,1591.62
1591630.0,237.0,276.0,4.0,245.0,1591.63
1591640.0,226.0,261.0,4.0,234.0,1591.64
1591650.0,226.0,259.0,4.0,233.0,1591.65
1591660.0,222.0,257.0,4.0,233.0,1591.66
1591670.0,231.0,272.0,3.0,243.0,1591.67
1591680.0,236.0,272.0,4.0,244.0,1591.68
1591690.0,224.0,262.0,3.0,231.0,1591.69
1591700.0,221.0,257.0,5.0,226.0,1591.7
1591710.0,208.0,246.0,4.0,218.0,1591.71
1591720.0,221.0,260.0,3.0,225.0,1591.72
1591730.0,225.0,262.0,3.0,231.0,1591.73
1591740.0,219.0,259.0,4.0,226.0,1591.74
1591750.0,216.0,255.0,3.0,227.0,1591.75
1591760.0,211.0,253.0,4.0,227.0,1591.76
1591770.0,218.0,261.0,3.0,233.0,1591.77
1591780.0,226.0,263.0,4.0,234.0,1591.78
1591790.0,218.0,260.0,4.0,229.0,1591.79
1591800.0,220.0,260.0,3.0,231.0,1591.8
1591810.0,215.0,256.0,4.0,227.0,1591.81
1591820.0,225.0,269.0,4.0,235.0,1591.82
1591830.0,231.0,270.0,5.0,236.0,1591.83
1591840.0,222.0,267.0,4.0,235.0,1591.84
1591851.0,224.0,266.0,4.0,234.0,1591.851
1591861.0,223.0,267.0,3.0,239.0,1591.861
1591871.0,225.0,274.0,3.0,241.0,1591.871
1591881.0,227.0,267.0,4.0,239.0,1591.881
1591891.0,218.0,262.0,4.0,239.0,1591.891
1591901.0,222.0,266.0,4.0,240.0,1591.901
1591911.0,221.0,266.0,4.0,246.0,1591.911
1591921.0,224.0,270.0,3.0,249.0,1591.921
1591931.0,225.0,266.0,3.0,242.0,1591.931
1591941.0,218.0,263.0,4.0,249.0,1591.941
1591951.0,221.0,265.0,4.0,244.0,1591.951
1591961.0,223.0,268.0,4.0,253.0,1591.961
1591971.0,224.0,271.0,4.0,256.0,1591.971
1591981.0,226.0,266.0,4.0,248.0,1591.981
1591991.0,218.0,261.0,3.0,249.0,1591.991
1592001.0,216.0,260.0,3.0,246.0,1592.001
1592011.0,217.0,264.0,4.0,256.0,1592.011
1592022.0,221.0,268.0,4.0,261.0,1592.022
1592032.0,219.0,263.0,2.0,254.0,1592.032
1592042.0,211.0,256.0,4.0,252.0,1592.042
1592052.0,216.0,262.0,3.0,258.0,1592.052
1592062.0,222.0,266.0,4.0,258.0,1592.062
1592072.0,220.0,265.0,3.0,260.0,1592.072
1592082.0,219.0,262.0,5.0,252.0,1592.082
1592092.0,212.0,254.0,4.0,250.0,1592.092
1592102.0,216.0,259.0,4.0,259.0,1592.102
1592112.0,220.0,263.0,4.0,262.0,1592.112
1592122.0,219.0,261.0,3.0,262.0,1592.122
1592132.0,219.0,258.0,4.0,256.0,1592.132
1592142.0,211.0,250.0,4.0,253.0,1592.142
1592152.0,216.0,255.0,4.0,256.0,1592.152
1592162.0,220.0,262.0,4.0,261.0,1592.162
1592172.0,220.0,259.0,4.0,260.0,1592.172
1592182.0,217.0,260.0,3.0,257.0,1592.182
1592192.0,213.0,252.0,4.0,254.0,1592.192
1592202.0,215.0,258.0,4.0,256.0,1592.202
1592212.0,223.0,263.0,5.0,260.0,1592.212
1592222.0,220.0,260.0,4.0,258.0,1592.222
1592232.0,219.0,258.0,4.0,254.0,1592.232
1592242.0,213.0,251.0,4.0,251.0,1592.242
1592252.0,217.0,257.0,4.0,254.0,1592.252
1592262.0,223.0,263.0,4.0,259.0,1592.262
1592272.0,221.0,260.0,5.0,258.0,1592.272
1592282.0,220.0,259.0,4.0,254.0,1592.282
1592292.0,215.0,253.0,4.0,249.0,1592.292
1592302.0,220.0,260.0,4.0,256.0,1592.302
1592312.0,225.0,265.0,3.0,259.0,1592.312
1592322.0,224.0,259.0,4.0,258.0,1592.322
1592332.0,221.0,257.0,4.0,253.0,1592.332
1592342.0,217.0,250.0,5.0,246.0,1592.342
1592352.0,220.0,260.0,4.0,253.0,1592.352
1592363.0,226.0,264.0,4.0,256.0,1592.363
1592373.0,222.0,258.0,3.0,253.0,1592.373
1592383.0,220.0,258.0,4.0,248.0,1592.383
1592393.0,216.0,255.0,4.0,248.0,1592.393
1592403.0,225.0,263.0,4.0,255.0,1592.403
1592413.0,225.0,262.0,4.0,255.0,1592.413
1592423.0,220.0,256.0,4.0,249.0,1592.423
1592433.0,220.0,258.0,3.0,248.0,1592.433
1592443.0,218.0,255.0,4.0,247.0,1592.443
1592453.0,221.0,261.0,5.0,250.0,1592.453
1592463.0,225.0,262.0,5.0,251.0,1592.463
1592473.0,221.0,255.0,4.0,247.0,1592.473
1592483.0,220.0,258.0,4.0,245.0,1592.483
1592493.0,215.0,251.0,4.0,241.0,1592.493
1592503.0,222.0,262.0,3.0,251.0,1592.503
1592513.0,225.0,264.0,4.0,252.0,1592.513
1592523.0,219.0,256.0,3.0,246.0,1592.523
1592534.0,220.0,257.0,4.0,246.0,1592.534
1592544.0,218.0,258.0,4.0,248.0,1592.544
1592554.0,223.0,261.0,4.0,252.0,1592.554
1592564.0,222.0,258.0,3.0,248.0,1592.564
1592574.0,216.0,250.0,4.0,242.0,1592.574
1592584.0,218.0,256.0,4.0,244.0,1592.584
1592594.0,220.0,258.0,4.0,248.0,1592.594
1592604.0,222.0,261.0,4.0,249.0,1592.604
1592614.0,221.0,257.0,4.0,245.0,1592.614
1592624.0,217.0,255.0,3.0,243.0,1592.624
1592634.0,218.0,257.0,3.0,242.0,1592.634
1592644.0,220.0,260.0,4.0,247.0,1592.644
1592654.0,222.0,263.0,4.0,248.0,1592.654
1592664.0,224.0,261.0,4.0,246.0,1592.664
1592674.0,216.0,253.0,4.0,239.0,1592.674
1592684.0,218.0,255.0,4.0,241.0,1592.684
1592694.0,221.0,259.0,4.0,246.0,1592.694
1592704.0,223.0,260.0,4.0,248.0,1592.704
1592714.0,222.0,258.0,4.0,245.0,1592.714
1592724.0,217.0,252.0,5.0,238.0,1592.724
1592734.0,217.0,257.0,4.0,241.0,1592.734
1592744.0,221.0,262.0,4.0,246.0,1592.744
1592754.0,222.0,263.0,3.0,248.0,1592.754
1592764.0,222.0,259.0,3.0,244.0,1592.764
1592774.0,215.0,251.0,4.0,238.0,1592.774
1592784.0,217.0,256.0,4.0,241.0,1592.784
1592794.0,218.0,257.0,4.0,243.0,1592.794
1592804.0,222.0,263.0,4.0,247.0,1592.804
1592814.0,221.0,257.0,4.0,244.0,1592.814
1592824.0,214.0,251.0,3.0,238.0,1592.824
1592834.0,216.0,255.0,4.0,240.0,1592.834
1592844.0,217.0,257.0,4.0,243.0,1592.844
1592854.0,222.0,262.0,5.0,246.0,1592.854
1592864.0,219.0,258.0,4.0,243.0,1592.864
1592875.0,213.0,250.0,4.0,236.0,1592.875
1592885.0,216.0,256.0,3.0,241.0,1592.885
1592895.0,221.0,262.0,4.0,246.0,1592.895
1592905.0,218.0,256.0,4.0,242.0,1592.905
1592915.0,217.0,256.0,5.0,240.0,1592.915
1592925.0,212.0,248.0,3.0,233.0,1592.925
1592935.0,215.0,255.0,3.0,240.0,1592.935
1592945.0,222.0,261.0,4.0,245.0,1592.945
1592955.0,217.0,256.0,4.0,240.0,1592.955
1592965.0,219.0,258.0,5.0,240.0,1592.965
1592975.0,212.0,248.0,5.0,232.0,1592.975
1592985.0,217.0,256.0,4.0,240.0,1592.985
1592995.0,222.0,261.0,4.0,245.0,1592.995
1593005.0,219.0,257.0,4.0,241.0,1593.005
1593015.0,218.0,255.0,3.0,240.0,1593.015
1593025.0,211.0,247.0,4.0,231.0,1593.025
1593035.0,217.0,256.0,4.0,241.0,1593.035
1593046.0,223.0,261.0,5.0,243.0,1593.046
1593056.0,215.0,253.0,3.0,238.0,1593.056
1593066.0,216.0,254.0,3.0,238.0,1593.066
1593076.0,213.0,251.0,3.0,238.0,1593.076
1593086.0,219.0,261.0,4.0,244.0,1593.086
1593096.0,221.0,258.0,4.0,244.0,1593.096
1593106.0,216.0,254.0,4.0,237.0,1593.106
1593116.0,216.0,255.0,4.0,237.0,1593.116
1593126.0,214.0,254.0,4.0,237.0,1593.126
1593136.0,218.0,262.0,4.0,241.0,1593.136
1593146.0,221.0,262.0,3.0,242.0,1593.146
1593156.0,214.0,255.0,3.0,236.0,1593.156
1593166.0,215.0,256.0,4.0,237.0,1593.166
1593176.0,211.0,252.0,5.0,233.0,1593.176
1593186.0,218.0,264.0,3.0,242.0,1593.186
1593196.0,221.0,261.0,4.0,243.0,1593.196
1593206.0,214.0,258.0,3.0,235.0,1593.206
1593216.0,216.0,257.0,3.0,238.0,1593.216
1593226.0,210.0,254.0,4.0,234.0,1593.226
1593236.0,219.0,265.0,5.0,243.0,1593.236
1593246.0,220.0,262.0,3.0,243.0,1593.246
1593256.0,213.0,256.0,4.0,235.0,1593.256
1593266.0,216.0,258.0,3.0,240.0,1593.266
1593276.0,211.0,254.0,4.0,236.0,1593.276
1593286.0,218.0,265.0,3.0,243.0,1593.286
1593296.0,220.0,259.0,5.0,242.0,1593.296
1593306.0,215.0,259.0,4.0,237.0,1593.306
1593316.0,215.0,258.0,4.0,237.0,1593.316
1593326.0,213.0,256.0,3.0,238.0,1593.326
1593336.0,219.0,267.0,3.0,243.0,1593.336
1593346.0,220.0,262.0,4.0,245.0,1593.346
1593356.0,213.0,259.0,4.0,237.0,1593.356
1593366.0,216.0,257.0,4.0,238.0,1593.366
1593376.0,214.0,257.0,4.0,238.0,1593.376
1593387.0,218.0,263.0,4.0,243.0,1593.387
1593397.0,219.0,259.0,3.0,242.0,1593.397
1593407.0,211.0,251.0,4.0,233.0,1593.407
1593417.0,213.0,256.0,3.0,237.0,1593.417
1593427.0,219.0,262.0,5.0,242.0,1593.427
1593437.0,219.0,262.0,3.0,241.0,1593.437
1593447.0,218.0,257.0,4.0,239.0,1593.447
1593457.0,211.0,252.0,3.0,232.0,1593.457
1593467.0,214.0,256.0,4.0,236.0,1593.467
1593477.0,216.0,258.0,5.0,239.0,1593.477
1593487.0,218.0,262.0,5.0,241.0,1593.487
1593497.0,217.0,256.0,4.0,240.0,1593.497
1593507.0,208.0,251.0,4.0,231.0,1593.507
1593517.0,214.0,254.0,4.0,236.0,1593.517
1593527.0,216.0,259.0,4.0,240.0,1593.527
1593537.0,219.0,260.0,4.0,240.0,1593.537
1593547.0,217.0,257.0,4.0,239.0,1593.547
1593558.0,211.0,249.0,5.0,229.0,1593.558
1593568.0,214.0,256.0,4.0,237.0,1593.568
1593578.0,219.0,261.0,4.0,243.0,1593.578
1593588.0,214.0,258.0,3.0,237.0,1593.588
1593598.0,215.0,256.0,3.0,236.0,1593.598
1593608.0,208.0,251.0,4.0,229.0,1593.608
1593618.0,214.0,259.0,5.0,238.0,1593.618
1593628.0,218.0,262.0,4.0,242.0,1593.628
1593638.0,213.0,260.0,3.0,236.0,1593.638
1593648.0,215.0,259.0,3.0,238.0,1593.648
1593658.0,207.0,251.0,3.0,229.0,1593.658
1593668.0,214.0,259.0,5.0,238.0,1593.668
1593678.0,219.0,261.0,4.0,242.0,1593.678
1593688.0,216.0,258.0,4.0,238.0,1593.688
1593698.0,215.0,255.0,4.0,237.0,1593.698
1593708.0,207.0,247.0,4.0,229.0,1593.708
1593718.0,215.0,257.0,3.0,239.0,1593.718
1593728.0,219.0,258.0,4.0,242.0,1593.728
1593738.0,215.0,255.0,4.0,237.0,1593.738
1593748.0,215.0,254.0,4.0,236.0,1593.748
1593758.0,207.0,247.0,4.0,230.0,1593.758
1593768.0,215.0,259.0,4.0,239.0,1593.768
1593778.0,219.0,260.0,4.0,242.0,1593.778
1593788.0,215.0,254.0,4.0,237.0,1593.788
1593798.0,215.0,252.0,4.0,237.0,1593.798
1593808.0,208.0,247.0,5.0,232.0,1593.808
1593818.0,213.0,253.0,3.0,237.0,1593.818
1593828.0,219.0,257.0,4.0,244.0,1593.828
1593838.0,214.0,253.0,4.0,237.0,1593.838
1593848.0,214.0,251.0,3.0,237.0,1593.848
1593858.0,208.0,246.0,4.0,230.0,1593.858
1593868.0,213.0,255.0,4.0,239.0,1593.868
1593878.0,219.0,258.0,5.0,243.0,1593.878
1593888.0,212.0,255.0,3.0,236.0,1593.888
1593899.0,213.0,253.0,4.0,236.0,1593.899
1593909.0,210.0,252.0,3.0,234.0,1593.909
1593919.0,218.0,261.0,4.0,240.0,1593.919
1593929.0,219.0,257.0,3.0,240.0,1593.929
1593939.0,211.0,253.0,5.0,232.0,1593.939
1593949.0,214.0,254.0,2.0,235.0,1593.949
1593959.0,211.0,252.0,4.0,233.0,1593.959
1593969.0,217.0,262.0,3.0,241.0,1593.969
1593979.0,219.0,255.0,4.0,239.0,1593.979
1593989.0,213.0,255.0,4.0,233.0,1593.989
1593999.0,213.0,252.0,4.0,235.0,1593.999
1594009.0,211.0,253.0,4.0,235.0,1594.009
1594019.0,217.0,261.0,4.0,240.0,1594.019
1594029.0,219.0,258.0,3.0,241.0,1594.029
1594039.0,211.0,256.0,3.0,233.0,1594.039
1594049.0,214.0,256.0,4.0,234.0,1594.049
1594059.0,213.0,256.0,4.0,235.0,1594.059
1594070.0,218.0,264.0,5.0,239.0,1594.07
1594080.0,218.0,257.0,4.0,237.0,1594.08
1594090.0,210.0,253.0,4.0,229.0,1594.09
1594100.0,213.0,258.0,3.0,236.0,1594.1
1594110.0,219.0,261.0,4.0,240.0,1594.11
1594120.0,218.0,264.0,3.0,239.0,1594.12
1594130.0,218.0,257.0,5.0,237.0,1594.13
1594140.0,209.0,252.0,4.0,228.0,1594.14
1594150.0,213.0,255.0,4.0,234.0,1594.15
1594160.0,215.0,257.0,3.0,239.0,1594.16
1594170.0,217.0,258.0,3.0,238.0,1594.17
1594180.0,218.0,255.0,4.0,237.0,1594.18
1594190.0,209.0,247.0,4.0,228.0,1594.19
1594200.0,214.0,252.0,4.0,233.0,1594.2
1594210.0,215.0,256.0,3.0,239.0,1594.21
1594220.0,216.0,259.0,4.0,238.0,1594.22
1594230.0,216.0,255.0,3.0,238.0,1594.23
1594240.0,211.0,250.0,4.0,230.0,1594.24
1594250.0,213.0,253.0,4.0,233.0,1594.25
1594260.0,218.0,258.0,5.0,239.0,1594.26
1594270.0,216.0,257.0,4.0,239.0,1594.27
1594280.0,217.0,254.0,4.0,236.0,1594.28
1594290.0,210.0,252.0,3.0,231.0,1594.29
1594300.0,212.0,254.0,3.0,234.0,1594.3
1594310.0,218.0,259.0,4.0,241.0,1594.31
1594320.0,216.0,257.0,4.0,239.0,1594.32
1594330.0,217.0,257.0,3.0,240.0,1594.33
1594340.0,209.0,251.0,3.0,232.0,1594.34
1594350.0,212.0,254.0,4.0,237.0,1594.35
1594360.0,218.0,259.0,3.0,243.0,1594.36
1594370.0,217.0,260.0,4.0,240.0,1594.37
1594380.0,217.0,255.0,3.0,239.0,1594.38
1594390.0,210.0,250.0,5.0,230.0,1594.39
1594400.0,212.0,255.0,4.0,236.0,1594.4
1594411.0,218.0,260.0,4.0,241.0,1594.411
1594421.0,215.0,259.0,3.0,237.0,1594.421
1594431.0,215.0,254.0,4.0,236.0,1594.431
1594441.0,208.0,249.0,4.0,230.0,1594.441
1594451.0,218.0,261.0,5.0,240.0,1594.451
1594461.0,220.0,261.0,2.0,242.0,1594.461
1594471.0,215.0,258.0,4.0,236.0,1594.471
1594481.0,215.0,257.0,3.0,237.0,1594.481
1594491.0,210.0,251.0,4.0,230.0,1594.491
1594501.0,215.0,258.0,4.0,236.0,1594.501
1594511.0,221.0,262.0,5.0,241.0,1594.511
1594521.0,216.0,257.0,4.0,235.0,1594.521
1594531.0,216.0,255.0,3.0,236.0,1594.531
1594541.0,210.0,248.0,4.0,229.0,1594.541
1594551.0,217.0,258.0,3.0,238.0,1594.551
1594561.0,222.0,259.0,4.0,242.0,1594.561
1594571.0,215.0,255.0,4.0,234.0,1594.571
1594582.0,217.0,254.0,4.0,235.0,1594.582
1594592.0,212.0,252.0,4.0,234.0,1594.592
1594602.0,219.0,261.0,4.0,241.0,1594.602
1594612.0,221.0,257.0,3.0,240.0,1594.612
1594622.0,213.0,254.0,4.0,230.0,1594.622
1594632.0,216.0,256.0,3.0,235.0,1594.632
1594642.0,215.0,256.0,5.0,235.0,1594.642
1594652.0,220.0,263.0,4.0,240.0,1594.652
1594662.0,221.0,257.0,4.0,239.0,1594.662
1594672.0,214.0,258.0,3.0,234.0,1594.672
1594682.0,216.0,257.0,3.0,235.0,1594.682
1594692.0,216.0,259.0,5.0,235.0,1594.692
1594702.0,220.0,265.0,4.0,239.0,1594.702
1594712.0,222.0,263.0,4.0,241.0,1594.712
1594722.0,214.0,256.0,4.0,232.0,1594.722
1594732.0,215.0,257.0,4.0,234.0,1594.732
1594742.0,215.0,257.0,3.0,238.0,1594.742
1594752.0,219.0,262.0,3.0,240.0,1594.752
1594762.0,221.0,260.0,4.0,242.0,1594.762
1594772.0,213.0,254.0,4.0,232.0,1594.772
1594782.0,214.0,255.0,3.0,234.0,1594.782
1594792.0,216.0,257.0,3.0,237.0,1594.792
1594802.0,218.0,262.0,4.0,240.0,1594.802
1594812.0,221.0,259.0,5.0,239.0,1594.812
1594822.0,212.0,253.0,4.0,230.0,1594.822
1594832.0,215.0,255.0,5.0,233.0,1594.832
1594842.0,213.0,253.0,4.0,234.0,1594.842
1594852.0,219.0,263.0,3.0,241.0,1594.852
1594862.0,220.0,260.0,4.0,240.0,1594.862
1594872.0,211.0,253.0,3.0,231.0,1594.872
1594882.0,215.0,255.0,4.0,235.0,1594.882
1594892.0,213.0,255.0,4.0,234.0,1594.892
1594902.0,219.0,261.0,5.0,239.0,1594.902
1594912.0,220.0,258.0,2.0,239.0,1594.912
1594923.0,212.0,252.0,4.0,229.0,1594.923
1594933.0,214.0,257.0,3.0,234.0,1594.933
1594943.0,219.0,260.0,4.0,241.0,1594.943
1594953.0,217.0,259.0,3.0,238.0,1594.953
1594963.0,219.0,256.0,5.0,237.0,1594.963
1594973.0,212.0,251.0,4.0,230.0,1594.973
1594983.0,214.0,255.0,3.0,233.0,1594.983
1594993.0,220.0,261.0,3.0,242.0,1594.993
1595003.0,218.0,258.0,4.0,236.0,1595.003
1595013.0,219.0,257.0,4.0,238.0,1595.013
1595023.0,212.0,250.0,4.0,229.0,1595.023
1595033.0,215.0,254.0,4.0,235.0,1595.033
1595043.0,221.0,261.0,3.0,243.0,1595.043
1595053.0,219.0,258.0,4.0,239.0,1595.053
1595063.0,218.0,256.0,3.0,238.0,1595.063
1595073.0,210.0,249.0,4.0,229.0,1595.073
1595083.0,214.0,255.0,4.0,236.0,1595.083
1595094.0,221.0,259.0,5.0,242.0,1595.094
1595104.0,216.0,257.0,4.0,236.0,1595.104
1595114.0,216.0,255.0,3.0,236.0,1595.114
1595124.0,210.0,249.0,3.0,232.0,1595.124
1595134.0,219.0,258.0,4.0,240.0,1595.134
1595144.0,221.0,260.0,3.0,241.0,1595.144
1595154.0,217.0,252.0,4.0,235.0,1595.154
1595164.0,216.0,253.0,4.0,236.0,1595.164
1595174.0,211.0,248.0,4.0,233.0,1595.174
1595184.0,216.0,255.0,3.0,238.0,1595.184
1595194.0,221.0,260.0,4.0,242.0,1595.194
1595204.0,217.0,250.0,4.0,234.0,1595.204
1595214.0,216.0,252.0,4.0,235.0,1595.214
1595224.0,211.0,246.0,4.0,229.0,1595.224
1595234.0,217.0,256.0,3.0,239.0,1595.234
1595244.0,222.0,260.0,4.0,243.0,1595.244
1595254.0,216.0,253.0,3.0,234.0,1595.254
1595264.0,217.0,256.0,4.0,236.0,1595.264
1595274.0,209.0,248.0,4.0,229.0,1595.274
1595284.0,219.0,258.0,5.0,239.0,1595.284
1595294.0,222.0,261.0,3.0,241.0,1595.294
1595304.0,215.0,252.0,4.0,233.0,1595.304
1595314.0,218.0,257.0,4.0,236.0,1595.314
1595324.0,210.0,250.0,4.0,230.0,1595.324
1595334.0,218.0,261.0,4.0,239.0,1595.334
1595344.0,222.0,261.0,5.0,241.0,1595.344
1595354.0,217.0,255.0,3.0,236.0,1595.354
1595364.0,216.0,258.0,4.0,236.0,1595.364
1595374.0,210.0,251.0,4.0,232.0,1595.374
1595384.0,219.0,260.0,3.0,240.0,1595.384
1595394.0,221.0,262.0,4.0,242.0,1595.394
1595404.0,215.0,254.0,4.0,235.0,1595.404
1595414.0,216.0,254.0,4.0,237.0,1595.414
1595424.0,210.0,249.0,4.0,234.0,1595.424
1595435.0,219.0,259.0,4.0,241.0,1595.435
1595445.0,220.0,259.0,3.0,242.0,1595.445
1595455.0,213.0,248.0,4.0,232.0,1595.455
1595465.0,214.0,252.0,4.0,235.0,1595.465
1595475.0,219.0,256.0,5.0,240.0,1595.475
1595485.0,220.0,256.0,2.0,241.0,1595.485
1595495.0,222.0,257.0,4.0,239.0,1595.495
1595505.0,214.0,248.0,3.0,233.0,1595.505
1595515.0,215.0,251.0,3.0,234.0,1595.515
1595525.0,215.0,251.0,3.0,236.0,1595.525
1595535.0,220.0,259.0,5.0,241.0,1595.535
1595545.0,222.0,255.0,4.0,240.0,1595.545
1595555.0,213.0,249.0,3.0,233.0,1595.555
1595565.0,216.0,253.0,4.0,236.0,1595.565
1595575.0,215.0,254.0,3.0,238.0,1595.575
1595585.0,220.0,259.0,4.0,242.0,1595.585
1595595.0,220.0,257.0,3.0,240.0,1595.595
1595606.0,214.0,249.0,4.0,233.0,1595.606
1595616.0,215.0,254.0,4.0,237.0,1595.616
1595626.0,221.0,260.0,4.0,243.0,1595.626
1595636.0,218.0,257.0,3.0,241.0,1595.636
1595646.0,218.0,256.0,4.0,238.0,1595.646
1595656.0,211.0,249.0,3.0,231.0,1595.656
1595666.0,215.0,253.0,5.0,238.0,1595.666
1595676.0,221.0,259.0,4.0,244.0,1595.676
1595686.0,217.0,257.0,4.0,239.0,1595.686
1595696.0,219.0,257.0,4.0,241.0,1595.696
1595706.0,211.0,251.0,4.0,232.0,1595.706
1595716.0,216.0,257.0,4.0,238.0,1595.716
1595726.0,221.0,261.0,4.0,245.0,1595.726
1595736.0,219.0,260.0,4.0,242.0,1595.736
1595746.0,218.0,256.0,4.0,240.0,1595.746
1595756.0,211.0,249.0,3.0,232.0,1595.756
1595766.0,216.0,257.0,3.0,241.0,1595.766
1595776.0,219.0,258.0,4.0,244.0,1595.776
1595786.0,219.0,260.0,4.0,241.0,1595.786
1595796.0,219.0,255.0,4.0,239.0,1595.796
1595806.0,210.0,248.0,4.0,231.0,1595.806
1595816.0,217.0,257.0,3.0,239.0,1595.816
1595826.0,220.0,262.0,3.0,244.0,1595.826
1595836.0,219.0,259.0,4.0,240.0,1595.836
1595846.0,217.0,257.0,3.0,239.0,1595.846
1595856.0,210.0,247.0,4.0,231.0,1595.856
1595866.0,215.0,254.0,4.0,236.0,1595.866
1595876.0,220.0,260.0,3.0,243.0,1595.876
1595886.0,218.0,257.0,4.0,240.0,1595.886
1595896.0,218.0,255.0,3.0,238.0,1595.896
1595906.0,212.0,248.0,4.0,231.0,1595.906
1595916.0,215.0,253.0,3.0,237.0,1595.916
1595926.0,222.0,259.0,4.0,243.0,1595.926
1595936.0,218.0,256.0,2.0,238.0,1595.936
1595947.0,217.0,252.0,4.0,237.0,1595.947
1595957.0,210.0,249.0,3.0,232.0,1595.957
1595967.0,219.0,258.0,4.0,241.0,1595.967
1595977.0,222.0,260.0,4.0,242.0,1595.977
1595987.0,217.0,254.0,5.0,233.0,1595.987
1595997.0,218.0,255.0,4.0,237.0,1595.997
1596007.0,213.0,251.0,4.0,232.0,1596.007
1596017.0,220.0,261.0,4.0,242.0,1596.017
1596027.0,222.0,259.0,4.0,242.0,1596.027
1596037.0,217.0,258.0,4.0,236.0,1596.037
1596047.0,217.0,257.0,4.0,237.0,1596.047
1596057.0,214.0,254.0,4.0,234.0,1596.057
1596067.0,220.0,266.0,4.0,242.0,1596.067
1596077.0,223.0,262.0,4.0,243.0,1596.077
1596087.0,217.0,259.0,3.0,236.0,1596.087
1596097.0,218.0,256.0,4.0,237.0,1596.097
1596107.0,213.0,255.0,4.0,235.0,1596.107
1596118.0,221.0,266.0,5.0,242.0,1596.118
1596128.0,222.0,262.0,4.0,242.0,1596.128
1596138.0,214.0,255.0,4.0,232.0,1596.138
1596148.0,215.0,258.0,3.0,235.0,1596.148
1596158.0,220.0,260.0,4.0,241.0,1596.158
1596168.0,220.0,265.0,4.0,242.0,1596.168
1596178.0,222.0,259.0,5.0,240.0,1596.178
1596188.0,213.0,254.0,4.0,231.0,1596.188
1596198.0,215.0,256.0,3.0,235.0,1596.198
1596208.0,216.0,257.0,3.0,239.0,1596.208
1596218.0,219.0,259.0,4.0,241.0,1596.218
1596228.0,220.0,257.0,4.0,240.0,1596.228
1596238.0,213.0,249.0,4.0,231.0,1596.238
1596248.0,217.0,251.0,4.0,235.0,1596.248
1596258.0,217.0,253.0,4.0,237.0,1596.258
1596268.0,220.0,258.0,4.0,241.0,1596.268
1596278.0,219.0,256.0,3.0,239.0,1596.278
1596288.0,215.0,251.0,4.0,233.0,1596.288
1596298.0,216.0,253.0,4.0,236.0,1596.298
1596308.0,219.0,257.0,4.0,240.0,1596.308
1596318.0,220.0,256.0,3.0,241.0,1596.318
1596328.0,219.0,257.0,4.0,239.0,1596.328
1596338.0,214.0,251.0,3.0,234.0,1596.338
1596348.0,216.0,256.0,3.0,234.0,1596.348
1596358.0,218.0,260.0,3.0,240.0,1596.358
1596368.0,220.0,259.0,4.0,240.0,1596.368
1596378.0,222.0,262.0,4.0,240.0,1596.378
1596388.0,212.0,252.0,4.0,232.0,1596.388
1596398.0,215.0,256.0,4.0,235.0,1596.398
1596408.0,219.0,261.0,3.0,241.0,1596.408
1596418.0,220.0,259.0,4.0,241.0,1596.418
1596428.0,221.0,260.0,4.0,240.0,1596.428
1596438.0,213.0,251.0,4.0,232.0,1596.438
1596448.0,214.0,255.0,3.0,236.0,1596.448
1596459.0,220.0,261.0,4.0,243.0,1596.459
1596469.0,218.0,257.0,3.0,240.0,1596.469
1596479.0,218.0,258.0,3.0,238.0,1596.479
1596489.0,210.0,250.0,4.0,230.0,1596.489
1596499.0,219.0,260.0,5.0,241.0,1596.499
1596509.0,221.0,264.0,2.0,243.0,1596.509
1596519.0,219.0,258.0,4.0,238.0,1596.519
1596529.0,218.0,259.0,3.0,239.0,1596.529
1596539.0,210.0,249.0,4.0,230.0,1596.539
1596549.0,215.0,256.0,3.0,237.0,1596.549
1596559.0,221.0,261.0,5.0,243.0,1596.559
1596569.0,218.0,257.0,4.0,238.0,1596.569
1596579.0,218.0,255.0,4.0,237.0,1596.579
1596589.0,211.0,249.0,4.0,231.0,1596.589
1596599.0,215.0,256.0,3.0,238.0,1596.599
1596609.0,221.0,261.0,4.0,243.0,1596.609
1596619.0,217.0,257.0,4.0,237.0,1596.619
1596630.0,218.0,256.0,5.0,237.0,1596.63
1596640.0,210.0,250.0,3.0,233.0,1596.64
1596650.0,219.0,260.0,3.0,241.0,1596.65
1596660.0,222.0,262.0,3.0,243.0,1596.66
1596670.0,215.0,251.0,3.0,234.0,1596.67
1596680.0,217.0,255.0,4.0,237.0,1596.68
1596690.0,213.0,250.0,5.0,234.0,1596.69
1596700.0,220.0,259.0,4.0,243.0,1596.7
1596710.0,221.0,260.0,4.0,242.0,1596.71
1596720.0,216.0,255.0,4.0,238.0,1596.72
1596730.0,216.0,254.0,3.0,238.0,1596.73
1596740.0,214.0,251.0,4.0,237.0,1596.74
1596750.0,220.0,260.0,4.0,243.0,1596.75
1596760.0,223.0,261.0,4.0,245.0,1596.76
1596770.0,215.0,252.0,4.0,238.0,1596.77
1596780.0,216.0,255.0,4.0,239.0,1596.78
1596790.0,214.0,254.0,3.0,239.0,1596.79
1596800.0,218.0,258.0,4.0,243.0,1596.8
1596810.0,221.0,260.0,4.0,245.0,1596.81
1596820.0,216.0,255.0,4.0,239.0,1596.82
1596830.0,215.0,256.0,4.0,239.0,1596.83
1596840.0,215.0,256.0,4.0,240.0,1596.84
1596850.0,219.0,262.0,3.0,245.0,1596.85
1596860.0,222.0,260.0,4.0,244.0,1596.86
1596870.0,215.0,253.0,4.0,238.0,1596.87
1596880.0,216.0,255.0,5.0,239.0,1596.88
1596890.0,212.0,251.0,4.0,237.0,1596.89
1596900.0,219.0,259.0,4.0,245.0,1596.9
1596910.0,222.0,259.0,3.0,246.0,1596.91
1596920.0,214.0,252.0,3.0,238.0,1596.92
1596930.0,217.0,254.0,3.0,240.0,1596.93
1596940.0,213.0,251.0,4.0,238.0,1596.94
1596950.0,221.0,261.0,4.0,246.0,1596.95
1596960.0,222.0,258.0,4.0,244.0,1596.96
1596971.0,214.0,251.0,4.0,237.0,1596.971
1596981.0,216.0,253.0,3.0,240.0,1596.981
1596991.0,219.0,255.0,4.0,245.0,1596.991
1597001.0,219.0,259.0,4.0,246.0,1597.001
1597011.0,219.0,255.0,5.0,242.0,1597.011
1597021.0,212.0,250.0,4.0,239.0,1597.021
1597031.0,214.0,253.0,3.0,240.0,1597.031
1597041.0,218.0,260.0,3.0,247.0,1597.041
1597051.0,218.0,262.0,3.0,244.0,1597.051
1597061.0,220.0,258.0,4.0,243.0,1597.061
1597071.0,213.0,255.0,4.0,238.0,1597.071
1597081.0,215.0,257.0,4.0,239.0,1597.081
1597091.0,220.0,262.0,4.0,246.0,1597.091
1597101.0,220.0,267.0,4.0,247.0,1597.101
1597111.0,219.0,260.0,3.0,243.0,1597.111
1597121.0,212.0,256.0,4.0,238.0,1597.121
1597131.0,213.0,259.0,4.0,241.0,1597.131
1597142.0,220.0,264.0,4.0,248.0,1597.142
1597152.0,216.0,265.0,4.0,245.0,1597.152
1597162.0,217.0,259.0,4.0,241.0,1597.162
1597172.0,209.0,255.0,3.0,237.0,1597.172
1597182.0,217.0,264.0,4.0,246.0,1597.182
1597192.0,221.0,265.0,4.0,247.0,1597.192
1597202.0,218.0,262.0,5.0,243.0,1597.202
1597212.0,217.0,258.0,4.0,242.0,1597.212
1597222.0,210.0,253.0,4.0,236.0,1597.222
1597232.0,215.0,260.0,4.0,242.0,1597.232
1597242.0,221.0,263.0,4.0,247.0,1597.242
1597252.0,217.0,258.0,4.0,243.0,1597.252
1597262.0,217.0,257.0,5.0,242.0,1597.262
1597272.0,211.0,250.0,4.0,235.0,1597.272
1597282.0,216.0,258.0,4.0,244.0,1597.282
1597292.0,222.0,261.0,4.0,248.0,1597.292
1597302.0,217.0,256.0,3.0,243.0,1597.302
1597312.0,218.0,257.0,4.0,242.0,1597.312
1597322.0,211.0,247.0,3.0,235.0,1597.322
1597332.0,218.0,257.0,4.0,244.0,1597.332
1597342.0,222.0,260.0,4.0,247.0,1597.342
1597352.0,217.0,255.0,3.0,243.0,1597.352
1597362.0,218.0,256.0,3.0,244.0,1597.362
1597372.0,211.0,248.0,4.0,237.0,1597.372
1597382.0,218.0,259.0,3.0,246.0,1597.382
1597392.0,223.0,261.0,5.0,248.0,1597.392
1597402.0,219.0,257.0,3.0,246.0,1597.402
1597412.0,218.0,257.0,4.0,243.0,1597.412
1597422.0,211.0,249.0,4.0,238.0,1597.422
1597432.0,219.0,259.0,4.0,246.0,1597.432
1597442.0,222.0,259.0,4.0,248.0,1597.442
1597452.0,218.0,256.0,3.0,245.0,1597.452
1597462.0,218.0,255.0,4.0,243.0,1597.462
1597472.0,210.0,250.0,4.0,238.0,1597.472
1597483.0,219.0,261.0,4.0,247.0,1597.483
1597493.0,222.0,261.0,3.0,248.0,1597.493
1597503.0,215.0,254.0,4.0,240.0,1597.503
1597513.0,216.0,256.0,4.0,241.0,1597.513
1597523.0,217.0,257.0,4.0,244.0,1597.523
1597533.0,220.0,263.0,2.0,248.0,1597.533
1597543.0,222.0,261.0,4.0,246.0,1597.543
1597553.0,214.0,255.0,3.0,241.0,1597.553
1597563.0,216.0,256.0,4.0,240.0,1597.563
1597573.0,212.0,253.0,4.0,240.0,1597.573
1597583.0,220.0,262.0,5.0,247.0,1597.583
1597593.0,222.0,259.0,4.0,246.0,1597.593
1597603.0,213.0,253.0,4.0,241.0,1597.603
1597613.0,216.0,257.0,4.0,241.0,1597.613
1597623.0,213.0,256.0,3.0,242.0,1597.623
1597633.0,220.0,263.0,4.0,248.0,1597.633
1597643.0,221.0,260.0,4.0,246.0,1597.643
1597654.0,214.0,253.0,4.0,240.0,1597.654
1597664.0,215.0,254.0,4.0,241.0,1597.664
1597674.0,219.0,260.0,4.0,247.0,1597.674
1597684.0,219.0,261.0,3.0,247.0,1597.684
1597694.0,218.0,257.0,4.0,242.0,1597.694
1597704.0,213.0,252.0,3.0,239.0,1597.704
1597714.0,216.0,255.0,5.0,241.0,1597.714
1597724.0,220.0,259.0,4.0,247.0,1597.724
1597734.0,219.0,258.0,4.0,245.0,1597.734
1597744.0,221.0,258.0,3.0,244.0,1597.744
1597754.0,213.0,249.0,3.0,238.0,1597.754
1597764.0,215.0,255.0,3.0,241.0,1597.764
1597774.0,221.0,260.0,4.0,247.0,1597.774
1597784.0,221.0,260.0,4.0,247.0,1597.784
1597794.0,220.0,256.0,3.0,244.0,1597.794
1597804.0,212.0,251.0,3.0,238.0,1597.804
1597814.0,216.0,257.0,3.0,243.0,1597.814
1597824.0,218.0,260.0,3.0,244.0,1597.824
1597834.0,221.0,263.0,4.0,247.0,1597.834
1597844.0,221.0,259.0,4.0,244.0,1597.844
1597854.0,212.0,252.0,4.0,239.0,1597.854
1597864.0,216.0,258.0,4.0,244.0,1597.864
1597874.0,219.0,261.0,4.0,249.0,1597.874
1597884.0,220.0,261.0,4.0,248.0,1597.884
1597894.0,219.0,258.0,3.0,244.0,1597.894
1597904.0,213.0,252.0,5.0,238.0,1597.904
1597914.0,217.0,259.0,4.0,242.0,1597.914
1597924.0,220.0,264.0,3.0,248.0,1597.924
1597934.0,221.0,265.0,4.0,248.0,1597.934
1597944.0,219.0,261.0,3.0,244.0,1597.944
1597954.0,214.0,256.0,5.0,240.0,1597.954
1597964.0,216.0,259.0,4.0,242.0,1597.964
1597974.0,222.0,264.0,5.0,247.0,1597.974
1597984.0,220.0,263.0,3.0,246.0,1597.984
1597995.0,219.0,257.0,4.0,243.0,1597.995
1598005.0,211.0,253.0,3.0,238.0,1598.005
1598015.0,219.0,263.0,4.0,246.0,1598.015
1598025.0,223.0,264.0,4.0,248.0,1598.025
1598035.0,218.0,260.0,5.0,243.0,1598.035
1598045.0,219.0,258.0,2.0,244.0,1598.045
1598055.0,211.0,253.0,4.0,238.0,1598.055
1598065.0,219.0,264.0,3.0,248.0,1598.065
1598075.0,223.0,265.0,3.0,248.0,1598.075
1598085.0,219.0,259.0,4.0,246.0,1598.085
1598095.0,219.0,258.0,4.0,243.0,1598.095
1598105.0,212.0,253.0,4.0,239.0,1598.105
1598115.0,221.0,265.0,4.0,250.0,1598.115
1598125.0,222.0,263.0,4.0,250.0,1598.125
1598135.0,218.0,258.0,3.0,246.0,1598.135
1598145.0,218.0,256.0,3.0,244.0,1598.145
1598155.0,212.0,251.0,4.0,241.0,1598.155
1598166.0,221.0,261.0,4.0,250.0,1598.166
1598176.0,222.0,260.0,4.0,249.0,1598.176
1598186.0,215.0,255.0,4.0,244.0,1598.186
1598196.0,216.0,256.0,3.0,245.0,1598.196
1598206.0,218.0,259.0,4.0,247.0,1598.206
1598216.0,220.0,264.0,3.0,251.0,1598.216
1598226.0,223.0,261.0,5.0,249.0,1598.226
1598236.0,213.0,255.0,4.0,243.0,1598.236
1598246.0,216.0,256.0,4.0,242.0,1598.246
1598256.0,214.0,257.0,4.0,244.0,1598.256
1598266.0,221.0,266.0,3.0,250.0,1598.266
1598276.0,222.0,261.0,4.0,247.0,1598.276
1598286.0,213.0,257.0,5.0,241.0,1598.286
1598296.0,217.0,259.0,4.0,243.0,1598.296
1598306.0,215.0,261.0,3.0,245.0,1598.306
1598316.0,221.0,267.0,4.0,250.0,1598.316
1598326.0,221.0,264.0,3.0,246.0,1598.326
1598336.0,216.0,258.0,4.0,243.0,1598.336
1598346.0,217.0,259.0,4.0,242.0,1598.346
1598356.0,217.0,259.0,5.0,243.0,1598.356
1598366.0,221.0,263.0,4.0,249.0,1598.366
1598376.0,220.0,259.0,4.0,245.0,1598.376
1598386.0,215.0,256.0,4.0,244.0,1598.386
1598396.0,216.0,254.0,4.0,242.0,1598.396
1598406.0,217.0,256.0,4.0,245.0,1598.406
1598416.0,220.0,259.0,5.0,248.0,1598.416
1598426.0,223.0,259.0,4.0,248.0,1598.426
1598436.0,214.0,252.0,4.0,241.0,1598.436
1598446.0,216.0,253.0,4.0,241.0,1598.446
1598456.0,218.0,257.0,3.0,245.0,1598.456
1598466.0,221.0,260.0,5.0,248.0,1598.466
1598476.0,221.0,258.0,4.0,246.0,1598.476
1598486.0,215.0,251.0,4.0,241.0,1598.486
1598496.0,216.0,253.0,4.0,241.0,1598.496
1598507.0,219.0,257.0,4.0,247.0,1598.507
1598517.0,220.0,259.0,3.0,248.0,1598.517
1598527.0,220.0,255.0,4.0,243.0,1598.527
1598537.0,212.0,247.0,4.0,237.0,1598.537
1598547.0,218.0,257.0,4.0,246.0,1598.547
1598557.0,220.0,257.0,4.0,248.0,1598.557
1598567.0,219.0,257.0,4.0,247.0,1598.567
1598577.0,219.0,255.0,3.0,244.0,1598.577
1598587.0,210.0,248.0,3.0,236.0,1598.587
1598597.0,215.0,253.0,3.0,241.0,1598.597
1598607.0,221.0,260.0,4.0,248.0,1598.607
1598617.0,219.0,257.0,3.0,247.0,1598.617
1598627.0,218.0,255.0,3.0,243.0,1598.627
1598637.0,211.0,249.0,3.0,239.0,1598.637
1598647.0,214.0,255.0,4.0,244.0,1598.647
1598657.0,221.0,261.0,5.0,248.0,1598.657
1598667.0,217.0,259.0,4.0,246.0,1598.667
1598678.0,218.0,256.0,5.0,242.0,1598.678
1598688.0,209.0,248.0,3.0,237.0,1598.688
1598698.0,218.0,260.0,4.0,248.0,1598.698
1598708.0,221.0,261.0,3.0,248.0,1598.708
1598718.0,215.0,253.0,3.0,242.0,1598.718
1598728.0,217.0,255.0,3.0,243.0,1598.728
1598738.0,211.0,249.0,4.0,237.0,1598.738
1598748.0,218.0,261.0,4.0,247.0,1598.748
1598758.0,222.0,261.0,4.0,246.0,1598.758
1598768.0,217.0,256.0,3.0,244.0,1598.768
1598778.0,217.0,256.0,3.0,242.0,1598.778
1598788.0,211.0,250.0,4.0,238.0,1598.788
1598798.0,219.0,262.0,5.0,247.0,1598.798
1598808.0,223.0,263.0,4.0,248.0,1598.808
1598818.0,217.0,258.0,3.0,244.0,1598.818
1598828.0,217.0,256.0,4.0,243.0,1598.828
1598838.0,211.0,253.0,3.0,240.0,1598.838
1598848.0,217.0,256.0,4.0,244.0,1598.848
1598858.0,221.0,261.0,4.0,248.0,1598.858
1598868.0,217.0,255.0,5.0,243.0,1598.868
1598878.0,216.0,255.0,3.0,241.0,1598.878
1598888.0,214.0,252.0,4.0,240.0,1598.888
1598898.0,218.0,259.0,4.0,245.0,1598.898
1598908.0,223.0,262.0,4.0,246.0,1598.908
1598918.0,217.0,255.0,3.0,242.0,1598.918
1598928.0,218.0,256.0,5.0,241.0,1598.928
1598938.0,211.0,252.0,4.0,236.0,1598.938
1598948.0,218.0,265.0,4.0,245.0,1598.948
1598958.0,223.0,265.0,3.0,246.0,1598.958
1598968.0,216.0,265.0,3.0,240.0,1598.968
1598978.0,219.0,263.0,5.0,240.0,1598.978
1598988.0,211.0,259.0,4.0,236.0,1598.988
1598998.0,220.0,270.0,5.0,246.0,1598.998
1599008.0,222.0,267.0,4.0,245.0,1599.008
1599019.0,214.0,264.0,4.0,240.0,1599.019
1599029.0,216.0,263.0,3.0,241.0,1599.029
1599039.0,217.0,264.0,3.0,243.0,1599.039
1599049.0,219.0,269.0,3.0,247.0,1599.049
1599059.0,221.0,263.0,5.0,243.0,1599.059
1599069.0,214.0,259.0,3.0,240.0,1599.069
1599079.0,215.0,260.0,4.0,240.0,1599.079
1599089.0,217.0,262.0,4.0,246.0,1599.089
1599099.0,219.0,262.0,4.0,247.0,1599.099
1599109.0,222.0,262.0,5.0,246.0,1599.109
1599119.0,214.0,253.0,5.0,240.0,1599.119
1599129.0,216.0,256.0,4.0,241.0,1599.129
1599139.0,218.0,259.0,4.0,245.0,1599.139
1599149.0,220.0,260.0,3.0,248.0,1599.149
1599159.0,221.0,261.0,3.0,246.0,1599.159
1599169.0,213.0,251.0,5.0,239.0,1599.169
1599179.0,214.0,254.0,3.0,241.0,1599.179
1599190.0,220.0,259.0,4.0,246.0,1599.19
1599200.0,218.0,256.0,4.0,245.0,1599.2
1599210.0,218.0,257.0,4.0,242.0,1599.21
1599220.0,210.0,247.0,3.0,235.0,1599.22
1599230.0,216.0,256.0,4.0,243.0,1599.23
1599240.0,220.0,260.0,4.0,246.0,1599.24
1599250.0,219.0,256.0,5.0,245.0,1599.25
1599260.0,218.0,256.0,4.0,241.0,1599.26
1599270.0,209.0,248.0,4.0,234.0,1599.27
1599280.0,214.0,257.0,3.0,241.0,1599.28
1599290.0,220.0,262.0,4.0,246.0,1599.29
1599300.0,218.0,257.0,3.0,243.0,1599.3
1599310.0,217.0,256.0,5.0,241.0,1599.31
1599320.0,211.0,249.0,4.0,236.0,1599.32
1599330.0,213.0,254.0,4.0,241.0,1599.33
1599340.0,220.0,260.0,4.0,247.0,1599.34
1599350.0,216.0,257.0,3.0,243.0,1599.35
1599360.0,218.0,258.0,4.0,242.0,1599.36
1599370.0,209.0,250.0,4.0,235.0,1599.37
1599380.0,215.0,257.0,4.0,241.0,1599.38
1599390.0,220.0,263.0,2.0,246.0,1599.39
1599400.0,216.0,256.0,4.0,241.0,1599.4
1599410.0,217.0,259.0,3.0,241.0,1599.41
1599420.0,209.0,248.0,4.0,232.0,1599.42
1599430.0,214.0,257.0,4.0,241.0,1599.43
1599440.0,221.0,263.0,4.0,246.0,1599.44
1599450.0,217.0,259.0,4.0,242.0,1599.45
1599460.0,217.0,256.0,4.0,240.0,1599.46
1599470.0,209.0,249.0,4.0,232.0,1599.47
1599480.0,215.0,259.0,4.0,240.0,1599.48
1599490.0,220.0,260.0,4.0,244.0,1599.49
1599500.0,217.0,260.0,4.0,241.0,1599.5
1599510.0,218.0,257.0,4.0,239.0,1599.51
1599520.0,208.0,251.0,3.0,232.0,1599.52
1599531.0,217.0,261.0,3.0,241.0,1599.531
1599541.0,222.0,265.0,3.0,245.0,1599.541
1599551.0,215.0,256.0,4.0,236.0,1599.551
1599561.0,216.0,260.0,3.0,237.0,1599.561
