time (ms),signal 0,signal 1,signal 2,signal 3,time (sec)
1612934.0,211.0,251.0,3.0,235.0,1612.934
1612944.0,211.0,251.0,4.0,236.0,1612.944
1612954.0,215.0,260.0,4.0,240.0,1612.954
1612964.0,215.0,253.0,5.0,238.0,1612.964
1612974.0,212.0,255.0,4.0,234.0,1612.974
1612984.0,212.0,255.0,4.0,235.0,1612.984
1612994.0,213.0,257.0,3.0,239.0,1612.994
1613004.0,217.0,266.0,3.0,243.0,1613.004
1613014.0,219.0,258.0,4.0,242.0,1613.014
1613024.0,211.0,261.0,4.0,235.0,1613.024
1613034.0,213.0,260.0,5.0,237.0,1613.034
1613044.0,212.0,264.0,2.0,244.0,1613.044
1613054.0,216.0,266.0,4.0,245.0,1613.054
1613064.0,217.0,262.0,3.0,247.0,1613.064
1613074.0,211.0,256.0,4.0,237.0,1613.074
1613084.0,211.0,256.0,3.0,237.0,1613.084
1613094.0,214.0,258.0,4.0,242.0,1613.094
1613104.0,218.0,264.0,4.0,243.0,1613.104
1613114.0,217.0,259.0,4.0,241.0,1613.114
1613124.0,210.0,253.0,4.0,234.0,1613.124
1613134.0,212.0,255.0,4.0,236.0,1613.134
1613144.0,211.0,254.0,4.0,236.0,1613.144
1613154.0,217.0,262.0,3.0,242.0,1613.154
1613164.0,219.0,256.0,4.0,238.0,1613.164
1613174.0,210.0,251.0,3.0,232.0,1613.174
1613184.0,214.0,253.0,4.0,236.0,1613.184
1613194.0,213.0,254.0,3.0,238.0,1613.194
1613204.0,218.0,260.0,4.0,242.0,1613.204
1613214.0,216.0,255.0,4.0,238.0,1613.214
1613224.0,211.0,251.0,5.0,230.0,1613.224
1613234.0,213.0,254.0,4.0,235.0,1613.234
1613244.0,214.0,255.0,3.0,238.0,1613.244
1613254.0,218.0,262.0,3.0,242.0,1613.254
1613264.0,217.0,255.0,3.0,239.0,1613.264
1613274.0,213.0,252.0,4.0,235.0,1613.274
1613284.0,214.0,253.0,5.0,237.0,1613.284
1613294.0,216.0,256.0,4.0,241.0,1613.294
1613304.0,218.0,261.0,3.0,243.0,1613.304
1613314.0,219.0,257.0,4.0,243.0,1613.314
1613324.0,213.0,253.0,3.0,235.0,1613.324
1613334.0,213.0,254.0,4.0,237.0,1613.334
1613344.0,217.0,257.0,4.0,241.0,1613.344
1613355.0,219.0,260.0,4.0,241.0,1613.355
1613365.0,217.0,255.0,4.0,237.0,1613.365
1613375.0,211.0,249.0,4.0,228.0,1613.375
1613385.0,215.0,259.0,3.0,237.0,1613.385
1613395.0,221.0,262.0,4.0,240.0,1613.395
1613405.0,218.0,261.0,3.0,239.0,1613.405
1613415.0,219.0,257.0,5.0,238.0,1613.415
1613425.0,212.0,251.0,4.0,234.0,1613.425
1613435.0,217.0,260.0,3.0,241.0,1613.435
1613445.0,219.0,261.0,4.0,245.0,1613.445
1613455.0,218.0,263.0,3.0,241.0,1613.455
1613465.0,217.0,258.0,5.0,240.0,1613.465
1613475.0,211.0,253.0,4.0,234.0,1613.475
1613485.0,215.0,258.0,4.0,239.0,1613.485
1613495.0,220.0,266.0,4.0,244.0,1613.495
1613505.0,219.0,265.0,4.0,241.0,1613.505
1613515.0,217.0,260.0,3.0,240.0,1613.515
1613526.0,211.0,254.0,4.0,231.0,1613.526
1613536.0,217.0,264.0,4.0,242.0,1613.536
1613546.0,222.0,264.0,5.0,242.0,1613.546
1613556.0,215.0,257.0,3.0,234.0,1613.556
1613566.0,215.0,257.0,4.0,236.0,1613.566
1613576.0,211.0,252.0,3.0,231.0,1613.576
1613586.0,218.0,262.0,3.0,240.0,1613.586
1613596.0,221.0,260.0,4.0,242.0,1613.596
1613606.0,215.0,251.0,5.0,236.0,1613.606
1613616.0,216.0,254.0,4.0,238.0,1613.616
1613626.0,210.0,248.0,4.0,234.0,1613.626
1613636.0,217.0,257.0,3.0,243.0,1613.636
1613646.0,219.0,259.0,3.0,242.0,1613.646
1613656.0,215.0,253.0,4.0,238.0,1613.656
1613666.0,214.0,253.0,4.0,237.0,1613.666
1613676.0,211.0,250.0,4.0,234.0,1613.676
1613686.0,216.0,257.0,4.0,242.0,1613.686
1613696.0,219.0,257.0,4.0,243.0,1613.696
1613706.0,213.0,251.0,3.0,238.0,1613.706
1613716.0,214.0,250.0,4.0,236.0,1613.716
1613726.0,211.0,248.0,4.0,236.0,1613.726
1613736.0,218.0,256.0,4.0,243.0,1613.736
1613746.0,218.0,257.0,4.0,244.0,1613.746
1613756.0,213.0,249.0,4.0,239.0,1613.756
1613766.0,214.0,252.0,3.0,239.0,1613.766
1613776.0,212.0,252.0,4.0,240.0,1613.776
1613786.0,215.0,257.0,4.0,243.0,1613.786
1613796.0,220.0,261.0,4.0,245.0,1613.796
1613806.0,213.0,251.0,4.0,239.0,1613.806
1613816.0,213.0,256.0,3.0,241.0,1613.816
1613826.0,208.0,248.0,4.0,236.0,1613.826
1613836.0,215.0,258.0,3.0,244.0,1613.836
1613846.0,219.0,259.0,4.0,244.0,1613.846
1613856.0,212.0,248.0,3.0,238.0,1613.856
1613867.0,214.0,253.0,5.0,237.0,1613.867
1613877.0,215.0,255.0,4.0,240.0,1613.877
1613887.0,217.0,257.0,4.0,243.0,1613.887
1613897.0,218.0,256.0,3.0,243.0,1613.897
1613907.0,209.0,248.0,4.0,234.0,1613.907
1613917.0,213.0,254.0,3.0,238.0,1613.917
1613927.0,215.0,257.0,4.0,242.0,1613.927
1613937.0,216.0,258.0,3.0,243.0,1613.937
1613947.0,216.0,255.0,4.0,239.0,1613.947
1613957.0,210.0,248.0,4.0,237.0,1613.957
1613967.0,213.0,252.0,4.0,238.0,1613.967
1613977.0,216.0,259.0,4.0,244.0,1613.977
1613987.0,217.0,256.0,5.0,243.0,1613.987
1613997.0,220.0,264.0,4.0,242.0,1613.997
1614007.0,210.0,252.0,4.0,235.0,1614.007
1614017.0,213.0,257.0,4.0,237.0,1614.017
1614027.0,217.0,263.0,3.0,242.0,1614.027
1614038.0,216.0,258.0,4.0,240.0,1614.038
1614048.0,215.0,256.0,4.0,238.0,1614.048
1614058.0,208.0,249.0,5.0,230.0,1614.058
1614068.0,214.0,259.0,2.0,242.0,1614.068
1614078.0,219.0,263.0,4.0,244.0,1614.078
1614088.0,215.0,259.0,3.0,243.0,1614.088
1614098.0,215.0,259.0,4.0,238.0,1614.098
1614108.0,207.0,250.0,3.0,233.0,1614.108
1614118.0,215.0,261.0,5.0,242.0,1614.118
1614128.0,218.0,262.0,4.0,243.0,1614.128
1614138.0,215.0,257.0,4.0,240.0,1614.138
1614148.0,215.0,256.0,3.0,238.0,1614.148
1614158.0,205.0,248.0,3.0,232.0,1614.158
1614168.0,210.0,254.0,4.0,238.0,1614.168
1614178.0,216.0,261.0,4.0,246.0,1614.178
1614188.0,212.0,255.0,4.0,241.0,1614.188
1614198.0,212.0,255.0,4.0,241.0,1614.198
1614208.0,205.0,248.0,4.0,234.0,1614.208
1614218.0,209.0,256.0,3.0,241.0,1614.218
1614228.0,217.0,260.0,4.0,246.0,1614.228
1614238.0,211.0,256.0,4.0,241.0,1614.238
1614248.0,213.0,255.0,5.0,239.0,1614.248
1614258.0,204.0,246.0,4.0,230.0,1614.258
1614268.0,211.0,257.0,4.0,241.0,1614.268
1614278.0,215.0,257.0,4.0,246.0,1614.278
1614288.0,207.0,248.0,3.0,237.0,1614.288
1614298.0,212.0,252.0,4.0,237.0,1614.298
1614308.0,204.0,247.0,4.0,229.0,1614.308
1614318.0,213.0,258.0,4.0,239.0,1614.318
1614328.0,219.0,262.0,3.0,244.0,1614.328
1614338.0,214.0,258.0,4.0,240.0,1614.338
1614348.0,219.0,262.0,3.0,241.0,1614.348
1614358.0,210.0,253.0,4.0,231.0,1614.358
1614368.0,218.0,263.0,4.0,243.0,1614.368
1614379.0,226.0,266.0,5.0,246.0,1614.379
1614389.0,215.0,257.0,3.0,239.0,1614.389
1614399.0,216.0,257.0,4.0,241.0,1614.399
1614409.0,216.0,257.0,3.0,241.0,1614.409
1614419.0,218.0,261.0,4.0,243.0,1614.419
1614429.0,222.0,261.0,4.0,244.0,1614.429
1614439.0,213.0,253.0,4.0,235.0,1614.439
1614449.0,216.0,257.0,4.0,233.0,1614.449
1614459.0,221.0,265.0,4.0,238.0,1614.459
1614469.0,222.0,266.0,4.0,242.0,1614.469
1614479.0,226.0,270.0,4.0,246.0,1614.479
1614489.0,217.0,257.0,4.0,238.0,1614.489
1614499.0,223.0,263.0,4.0,237.0,1614.499
1614509.0,217.0,256.0,4.0,234.0,1614.509
1614519.0,222.0,263.0,4.0,241.0,1614.519
1614529.0,223.0,261.0,4.0,239.0,1614.529
1614539.0,214.0,252.0,3.0,233.0,1614.539
1614550.0,216.0,258.0,3.0,232.0,1614.55
1614560.0,219.0,261.0,4.0,236.0,1614.56
1614570.0,221.0,263.0,5.0,239.0,1614.57
1614580.0,222.0,264.0,4.0,238.0,1614.58
1614590.0,214.0,256.0,4.0,231.0,1614.59
1614600.0,222.0,263.0,3.0,239.0,1614.6
1614610.0,227.0,270.0,4.0,248.0,1614.61
1614620.0,225.0,267.0,4.0,247.0,1614.62
1614630.0,231.0,268.0,5.0,247.0,1614.63
1614640.0,233.0,271.0,4.0,244.0,1614.64
1614650.0,237.0,276.0,4.0,246.0,1614.65
1614660.0,238.0,278.0,4.0,254.0,1614.66
1614670.0,230.0,274.0,3.0,248.0,1614.67
1614680.0,235.0,273.0,4.0,249.0,1614.68
1614690.0,229.0,273.0,3.0,245.0,1614.69
1614700.0,239.0,281.0,4.0,250.0,1614.7
1614710.0,242.0,284.0,3.0,255.0,1614.71
1614720.0,236.0,278.0,4.0,250.0,1614.72
1614730.0,237.0,276.0,3.0,247.0,1614.73
1614740.0,229.0,268.0,4.0,240.0,1614.74
1614750.0,236.0,280.0,3.0,244.0,1614.75
1614760.0,239.0,283.0,4.0,248.0,1614.76
1614770.0,234.0,279.0,4.0,247.0,1614.77
1614780.0,233.0,272.0,4.0,245.0,1614.78
1614790.0,224.0,265.0,3.0,239.0,1614.79
1614800.0,227.0,269.0,4.0,246.0,1614.8
1614810.0,228.0,272.0,4.0,244.0,1614.81
1614820.0,228.0,270.0,4.0,245.0,1614.82
1614830.0,229.0,269.0,4.0,244.0,1614.83
1614840.0,221.0,261.0,3.0,234.0,1614.84
1614850.0,228.0,267.0,4.0,239.0,1614.85
1614860.0,233.0,275.0,3.0,249.0,1614.86
1614870.0,228.0,272.0,3.0,249.0,1614.87
1614880.0,228.0,270.0,4.0,247.0,1614.88
1614891.0,220.0,262.0,4.0,240.0,1614.891
1614901.0,228.0,274.0,2.0,257.0,1614.901
1614911.0,237.0,279.0,4.0,264.0,1614.911
1614921.0,231.0,276.0,3.0,259.0,1614.921
1614931.0,230.0,270.0,4.0,260.0,1614.931
1614941.0,219.0,263.0,4.0,249.0,1614.941
1614951.0,227.0,274.0,4.0,259.0,1614.951
1614961.0,231.0,272.0,4.0,257.0,1614.961
1614971.0,222.0,270.0,4.0,246.0,1614.971
1614981.0,225.0,272.0,3.0,250.0,1614.981
1614991.0,215.0,263.0,3.0,238.0,1614.991
1615001.0,224.0,273.0,4.0,249.0,1615.001
1615011.0,236.0,280.0,3.0,254.0,1615.011
1615021.0,229.0,275.0,4.0,247.0,1615.021
1615031.0,231.0,272.0,4.0,246.0,1615.031
1615041.0,223.0,266.0,4.0,241.0,1615.041
1615051.0,227.0,276.0,3.0,257.0,1615.051
1615062.0,236.0,280.0,4.0,266.0,1615.062
1615072.0,225.0,271.0,3.0,256.0,1615.072
1615082.0,228.0,269.0,5.0,253.0,1615.082
1615092.0,227.0,271.0,3.0,252.0,1615.092
1615102.0,230.0,275.0,4.0,250.0,1615.102
1615112.0,236.0,274.0,3.0,252.0,1615.112
1615122.0,223.0,267.0,4.0,240.0,1615.122
1615132.0,227.0,268.0,3.0,241.0,1615.132
1615142.0,227.0,269.0,4.0,247.0,1615.142
1615152.0,228.0,270.0,4.0,248.0,1615.152
1615162.0,233.0,272.0,4.0,252.0,1615.162
1615172.0,224.0,262.0,4.0,242.0,1615.172
1615182.0,226.0,268.0,3.0,245.0,1615.182
1615192.0,224.0,265.0,4.0,243.0,1615.192
1615202.0,231.0,275.0,4.0,252.0,1615.202
1615212.0,236.0,275.0,5.0,251.0,1615.212
1615222.0,224.0,267.0,3.0,240.0,1615.222
1615232.0,229.0,273.0,4.0,243.0,1615.232
1615242.0,227.0,271.0,3.0,243.0,1615.242
1615252.0,233.0,274.0,4.0,249.0,1615.252
1615262.0,235.0,272.0,4.0,247.0,1615.262
1615272.0,228.0,263.0,5.0,237.0,1615.272
1615282.0,232.0,267.0,4.0,240.0,1615.282
1615292.0,234.0,271.0,4.0,244.0,1615.292
1615302.0,238.0,276.0,3.0,249.0,1615.302
1615312.0,235.0,271.0,3.0,249.0,1615.312
1615322.0,227.0,264.0,3.0,238.0,1615.322
1615332.0,229.0,269.0,4.0,240.0,1615.332
1615342.0,230.0,269.0,4.0,243.0,1615.342
1615352.0,234.0,276.0,4.0,244.0,1615.352
1615362.0,237.0,277.0,4.0,246.0,1615.362
1615372.0,227.0,267.0,3.0,242.0,1615.372
1615382.0,227.0,270.0,4.0,242.0,1615.382
1615392.0,230.0,274.0,3.0,247.0,1615.392
1615403.0,232.0,274.0,4.0,247.0,1615.403
1615413.0,230.0,272.0,4.0,246.0,1615.413
1615423.0,221.0,264.0,4.0,238.0,1615.423
1615433.0,225.0,271.0,3.0,246.0,1615.433
1615443.0,232.0,278.0,3.0,258.0,1615.443
1615453.0,229.0,274.0,4.0,254.0,1615.453
1615463.0,227.0,272.0,4.0,251.0,1615.463
1615473.0,217.0,262.0,4.0,244.0,1615.473
1615483.0,222.0,269.0,4.0,253.0,1615.483
1615493.0,229.0,276.0,4.0,259.0,1615.493
1615503.0,227.0,272.0,3.0,253.0,1615.503
1615513.0,228.0,269.0,4.0,250.0,1615.513
1615523.0,219.0,261.0,4.0,240.0,1615.523
1615533.0,222.0,266.0,4.0,244.0,1615.533
1615543.0,226.0,272.0,4.0,251.0,1615.543
1615553.0,225.0,269.0,3.0,249.0,1615.553
1615563.0,224.0,266.0,3.0,249.0,1615.563
1615574.0,215.0,256.0,4.0,238.0,1615.574
1615584.0,223.0,267.0,3.0,248.0,1615.584
1615594.0,232.0,274.0,5.0,254.0,1615.594
1615604.0,224.0,266.0,4.0,245.0,1615.604
1615614.0,225.0,265.0,4.0,243.0,1615.614
1615624.0,218.0,260.0,4.0,238.0,1615.624
1615634.0,226.0,270.0,4.0,246.0,1615.634
1615644.0,231.0,271.0,4.0,249.0,1615.644
1615654.0,223.0,262.0,5.0,240.0,1615.654
1615664.0,225.0,266.0,4.0,243.0,1615.664
1615674.0,216.0,256.0,4.0,239.0,1615.674
1615684.0,224.0,268.0,3.0,248.0,1615.684
1615694.0,232.0,272.0,3.0,252.0,1615.694
1615704.0,228.0,264.0,4.0,247.0,1615.704
1615714.0,230.0,266.0,4.0,247.0,1615.714
1615724.0,225.0,258.0,4.0,239.0,1615.724
1615734.0,232.0,269.0,4.0,246.0,1615.734
1615744.0,235.0,271.0,4.0,247.0,1615.744
1615754.0,229.0,269.0,3.0,241.0,1615.754
1615764.0,230.0,268.0,4.0,242.0,1615.764
1615774.0,223.0,262.0,4.0,239.0,1615.774
1615784.0,232.0,273.0,5.0,248.0,1615.784
1615794.0,235.0,273.0,4.0,251.0,1615.794
1615804.0,229.0,269.0,4.0,244.0,1615.804
1615814.0,229.0,269.0,3.0,244.0,1615.814
1615824.0,223.0,264.0,3.0,242.0,1615.824
1615834.0,229.0,270.0,4.0,248.0,1615.834
1615844.0,236.0,277.0,4.0,251.0,1615.844
1615854.0,229.0,267.0,4.0,244.0,1615.854
1615864.0,228.0,268.0,4.0,246.0,1615.864
1615874.0,223.0,262.0,4.0,241.0,1615.874
1615884.0,231.0,272.0,3.0,252.0,1615.884
1615894.0,234.0,274.0,3.0,252.0,1615.894
1615904.0,227.0,266.0,4.0,244.0,1615.904
1615915.0,230.0,268.0,5.0,247.0,1615.915
1615925.0,230.0,269.0,4.0,250.0,1615.925
1615935.0,235.0,273.0,3.0,252.0,1615.935
1615945.0,235.0,274.0,3.0,251.0,1615.945
1615955.0,226.0,264.0,4.0,240.0,1615.955
1615965.0,228.0,269.0,3.0,245.0,1615.965
1615975.0,229.0,268.0,4.0,250.0,1615.975
1615985.0,233.0,275.0,3.0,253.0,1615.985
1615995.0,234.0,270.0,4.0,249.0,1615.995
1616005.0,227.0,268.0,3.0,243.0,1616.005
1616015.0,230.0,268.0,3.0,244.0,1616.015
1616025.0,232.0,270.0,4.0,247.0,1616.025
1616035.0,233.0,275.0,4.0,247.0,1616.035
1616045.0,237.0,273.0,4.0,247.0,1616.045
1616055.0,227.0,266.0,3.0,238.0,1616.055
1616065.0,232.0,268.0,4.0,241.0,1616.065
1616075.0,234.0,274.0,3.0,248.0,1616.075
1616086.0,234.0,274.0,3.0,247.0,1616.086
1616096.0,233.0,271.0,3.0,244.0,1616.096
1616106.0,224.0,263.0,4.0,233.0,1616.106
1616116.0,228.0,269.0,4.0,241.0,1616.116
1616126.0,235.0,272.0,4.0,246.0,1616.126
1616136.0,233.0,274.0,4.0,246.0,1616.136
1616146.0,233.0,269.0,3.0,244.0,1616.146
1616156.0,225.0,262.0,4.0,236.0,1616.156
1616166.0,231.0,271.0,4.0,244.0,1616.166
1616176.0,236.0,272.0,4.0,247.0,1616.176
1616186.0,234.0,275.0,4.0,245.0,1616.186
1616196.0,233.0,269.0,4.0,243.0,1616.196
1616206.0,223.0,264.0,3.0,234.0,1616.206
1616216.0,227.0,269.0,4.0,238.0,1616.216
1616226.0,233.0,275.0,4.0,248.0,1616.226
1616236.0,231.0,278.0,4.0,244.0,1616.236
1616246.0,230.0,273.0,4.0,245.0,1616.246
1616256.0,222.0,272.0,3.0,237.0,1616.256
1616266.0,226.0,276.0,3.0,244.0,1616.266
1616276.0,233.0,280.0,4.0,248.0,1616.276
1616286.0,232.0,284.0,4.0,246.0,1616.286
1616296.0,234.0,277.0,4.0,246.0,1616.296
1616306.0,226.0,274.0,4.0,238.0,1616.306
1616316.0,230.0,279.0,3.0,247.0,1616.316
1616326.0,237.0,283.0,3.0,252.0,1616.326
1616336.0,233.0,282.0,4.0,245.0,1616.336
1616346.0,233.0,278.0,4.0,245.0,1616.346
1616356.0,223.0,269.0,4.0,236.0,1616.356
1616366.0,230.0,276.0,4.0,244.0,1616.366
1616376.0,234.0,278.0,4.0,248.0,1616.376
1616386.0,231.0,280.0,4.0,245.0,1616.386
1616396.0,230.0,274.0,3.0,243.0,1616.396
1616406.0,220.0,269.0,4.0,234.0,1616.406
1616416.0,225.0,279.0,4.0,244.0,1616.416
1616427.0,233.0,280.0,5.0,248.0,1616.427
1616437.0,225.0,278.0,2.0,239.0,1616.437
1616447.0,224.0,273.0,4.0,236.0,1616.447
1616457.0,223.0,274.0,3.0,236.0,1616.457
1616467.0,229.0,282.0,4.0,244.0,1616.467
1616477.0,232.0,279.0,4.0,245.0,1616.477
1616487.0,226.0,277.0,5.0,237.0,1616.487
1616497.0,226.0,275.0,4.0,236.0,1616.497
1616507.0,224.0,276.0,4.0,236.0,1616.507
1616517.0,228.0,282.0,4.0,243.0,1616.517
1616527.0,233.0,281.0,3.0,247.0,1616.527
1616537.0,226.0,272.0,4.0,240.0,1616.537
1616547.0,225.0,271.0,4.0,235.0,1616.547
1616557.0,220.0,266.0,5.0,229.0,1616.557
1616567.0,232.0,284.0,3.0,245.0,1616.567
1616577.0,238.0,283.0,4.0,249.0,1616.577
1616587.0,226.0,275.0,3.0,236.0,1616.587
1616598.0,227.0,272.0,4.0,237.0,1616.598
1616608.0,226.0,272.0,4.0,241.0,1616.608
1616618.0,231.0,279.0,5.0,245.0,1616.618
1616628.0,228.0,271.0,4.0,238.0,1616.628
1616638.0,221.0,267.0,4.0,230.0,1616.638
1616648.0,224.0,271.0,3.0,239.0,1616.648
1616658.0,227.0,274.0,3.0,243.0,1616.658
1616668.0,229.0,281.0,3.0,245.0,1616.668
1616678.0,227.0,272.0,3.0,244.0,1616.678
1616688.0,222.0,272.0,4.0,239.0,1616.688
1616698.0,221.0,271.0,4.0,241.0,1616.698
1616708.0,226.0,275.0,4.0,248.0,1616.708
1616718.0,227.0,279.0,3.0,244.0,1616.718
1616728.0,228.0,270.0,4.0,243.0,1616.728
1616738.0,221.0,270.0,3.0,237.0,1616.738
1616748.0,222.0,271.0,4.0,237.0,1616.748
1616758.0,225.0,276.0,4.0,244.0,1616.758
1616768.0,225.0,279.0,3.0,244.0,1616.768
1616778.0,223.0,270.0,3.0,246.0,1616.778
1616788.0,218.0,268.0,4.0,236.0,1616.788
1616798.0,218.0,268.0,4.0,238.0,1616.798
1616808.0,222.0,271.0,5.0,244.0,1616.808
1616818.0,223.0,274.0,4.0,241.0,1616.818
1616828.0,220.0,268.0,3.0,239.0,1616.828
1616838.0,214.0,261.0,3.0,231.0,1616.838
1616848.0,216.0,264.0,3.0,234.0,1616.848
1616858.0,218.0,266.0,4.0,236.0,1616.858
1616868.0,221.0,269.0,4.0,238.0,1616.868
1616878.0,220.0,260.0,4.0,237.0,1616.878
1616888.0,213.0,260.0,4.0,228.0,1616.888
1616898.0,216.0,262.0,4.0,235.0,1616.898
1616908.0,218.0,268.0,3.0,239.0,1616.908
1616918.0,221.0,271.0,4.0,239.0,1616.918
1616928.0,219.0,263.0,4.0,238.0,1616.928
1616939.0,214.0,259.0,5.0,227.0,1616.939
1616949.0,216.0,264.0,4.0,235.0,1616.949
1616959.0,222.0,268.0,4.0,240.0,1616.959
1616969.0,218.0,269.0,3.0,237.0,1616.969
1616979.0,219.0,264.0,4.0,236.0,1616.979
1616989.0,213.0,259.0,4.0,231.0,1616.989
1616999.0,219.0,268.0,5.0,240.0,1616.999
1617009.0,222.0,269.0,4.0,242.0,1617.009
1617019.0,217.0,268.0,4.0,233.0,1617.019
1617029.0,217.0,264.0,4.0,237.0,1617.029
1617039.0,210.0,262.0,3.0,228.0,1617.039
1617049.0,216.0,270.0,4.0,237.0,1617.049
1617059.0,220.0,269.0,4.0,240.0,1617.059
1617069.0,218.0,271.0,5.0,237.0,1617.069
1617079.0,217.0,265.0,4.0,238.0,1617.079
1617089.0,210.0,260.0,4.0,227.0,1617.089
1617099.0,217.0,271.0,3.0,239.0,1617.099
1617110.0,222.0,269.0,3.0,242.0,1617.11
1617120.0,216.0,267.0,3.0,233.0,1617.12
1617130.0,217.0,264.0,5.0,234.0,1617.13
1617140.0,214.0,264.0,3.0,234.0,1617.14
1617150.0,218.0,271.0,4.0,238.0,1617.15
1617160.0,221.0,266.0,4.0,238.0,1617.16
1617170.0,215.0,265.0,3.0,229.0,1617.17
1617180.0,216.0,265.0,3.0,234.0,1617.18
1617190.0,216.0,265.0,5.0,235.0,1617.19
1617200.0,220.0,271.0,4.0,238.0,1617.2
1617210.0,220.0,266.0,4.0,242.0,1617.21
1617220.0,214.0,264.0,4.0,232.0,1617.22
1617230.0,214.0,264.0,3.0,235.0,1617.23
1617240.0,211.0,260.0,4.0,231.0,1617.24
1617250.0,218.0,271.0,4.0,240.0,1617.25
1617260.0,219.0,264.0,4.0,241.0,1617.26
1617270.0,211.0,262.0,3.0,232.0,1617.27
1617280.0,213.0,261.0,4.0,234.0,1617.28
1617290.0,210.0,261.0,3.0,232.0,1617.29
1617300.0,218.0,270.0,3.0,238.0,1617.3
1617310.0,217.0,261.0,4.0,239.0,1617.31
1617320.0,210.0,257.0,4.0,229.0,1617.32
1617330.0,212.0,257.0,4.0,232.0,1617.33
1617340.0,210.0,255.0,4.0,231.0,1617.34
1617350.0,216.0,264.0,4.0,237.0,1617.35
1617360.0,217.0,258.0,3.0,236.0,1617.36
1617370.0,211.0,256.0,4.0,229.0,1617.37
1617380.0,212.0,257.0,4.0,231.0,1617.38
1617390.0,212.0,258.0,4.0,232.0,1617.39
1617400.0,215.0,265.0,4.0,237.0,1617.4
1617410.0,217.0,261.0,3.0,239.0,1617.41
1617420.0,211.0,260.0,3.0,230.0,1617.42
1617430.0,213.0,258.0,4.0,234.0,1617.43
1617440.0,212.0,260.0,3.0,235.0,1617.44
1617451.0,216.0,266.0,4.0,237.0,1617.451
1617461.0,214.0,258.0,3.0,238.0,1617.461
1617471.0,209.0,256.0,3.0,228.0,1617.471
1617481.0,211.0,259.0,3.0,232.0,1617.481
1617491.0,217.0,263.0,4.0,238.0,1617.491
1617501.0,216.0,264.0,4.0,236.0,1617.501
1617511.0,216.0,257.0,5.0,235.0,1617.511
1617521.0,208.0,254.0,4.0,226.0,1617.521
1617531.0,211.0,260.0,4.0,232.0,1617.531
1617541.0,215.0,260.0,4.0,236.0,1617.541
1617551.0,216.0,265.0,3.0,236.0,1617.551
1617561.0,215.0,258.0,4.0,235.0,1617.561
1617571.0,208.0,257.0,3.0,227.0,1617.571
1617581.0,212.0,259.0,5.0,231.0,1617.581
1617591.0,215.0,264.0,4.0,237.0,1617.591
1617601.0,216.0,268.0,4.0,236.0,1617.601
1617611.0,214.0,262.0,3.0,236.0,1617.611
1617622.0,208.0,257.0,4.0,228.0,1617.622
1617632.0,213.0,266.0,4.0,237.0,1617.632
1617642.0,218.0,267.0,5.0,239.0,1617.642
1617652.0,212.0,261.0,3.0,232.0,1617.652
1617662.0,212.0,258.0,4.0,233.0,1617.662
1617672.0,207.0,252.0,4.0,227.0,1617.672
1617682.0,213.0,260.0,3.0,234.0,1617.682
1617692.0,217.0,259.0,3.0,240.0,1617.692
1617702.0,212.0,259.0,5.0,233.0,1617.702
1617712.0,214.0,257.0,3.0,235.0,1617.712
1617722.0,207.0,250.0,4.0,228.0,1617.722
1617732.0,214.0,262.0,4.0,238.0,1617.732
1617742.0,218.0,261.0,3.0,240.0,1617.742
1617752.0,213.0,260.0,4.0,234.0,1617.752
1617762.0,213.0,255.0,4.0,233.0,1617.762
1617772.0,207.0,249.0,5.0,228.0,1617.772
1617782.0,215.0,261.0,4.0,239.0,1617.782
1617792.0,217.0,260.0,4.0,241.0,1617.792
1617802.0,213.0,260.0,3.0,235.0,1617.802
1617812.0,212.0,256.0,3.0,235.0,1617.812
1617822.0,207.0,252.0,3.0,232.0,1617.822
1617832.0,216.0,262.0,5.0,240.0,1617.832
1617842.0,218.0,261.0,4.0,242.0,1617.842
1617852.0,213.0,258.0,4.0,237.0,1617.852
1617862.0,212.0,255.0,4.0,239.0,1617.862
1617872.0,208.0,252.0,3.0,235.0,1617.872
1617882.0,212.0,258.0,4.0,239.0,1617.882
1617892.0,217.0,261.0,4.0,242.0,1617.892
1617902.0,214.0,255.0,4.0,235.0,1617.902
1617912.0,212.0,255.0,4.0,236.0,1617.912
1617922.0,206.0,245.0,4.0,229.0,1617.922
1617932.0,213.0,256.0,3.0,239.0,1617.932
1617942.0,219.0,259.0,4.0,243.0,1617.942
1617952.0,213.0,252.0,4.0,235.0,1617.952
1617963.0,214.0,252.0,4.0,235.0,1617.963
1617973.0,210.0,250.0,4.0,235.0,1617.973
1617983.0,217.0,257.0,4.0,240.0,1617.983
1617993.0,217.0,255.0,3.0,239.0,1617.993
1618003.0,209.0,247.0,4.0,231.0,1618.003
1618013.0,211.0,252.0,4.0,235.0,1618.013
1618023.0,211.0,253.0,4.0,237.0,1618.023
1618033.0,216.0,258.0,4.0,239.0,1618.033
1618043.0,215.0,254.0,4.0,237.0,1618.043
1618053.0,211.0,251.0,3.0,233.0,1618.053
1618063.0,212.0,252.0,3.0,233.0,1618.063
1618073.0,212.0,253.0,4.0,237.0,1618.073
1618083.0,214.0,256.0,4.0,239.0,1618.083
1618093.0,217.0,255.0,4.0,240.0,1618.093
1618103.0,209.0,250.0,3.0,232.0,1618.103
1618113.0,210.0,251.0,4.0,233.0,1618.113
1618123.0,212.0,255.0,3.0,237.0,1618.123
1618134.0,215.0,257.0,4.0,239.0,1618.134
1618144.0,213.0,254.0,4.0,236.0,1618.144
1618154.0,207.0,245.0,5.0,227.0,1618.154
1618164.0,210.0,251.0,4.0,235.0,1618.164
1618174.0,217.0,256.0,4.0,240.0,1618.174
1618184.0,214.0,257.0,3.0,239.0,1618.184
1618194.0,214.0,252.0,3.0,235.0,1618.194
1618204.0,206.0,244.0,4.0,229.0,1618.204
1618214.0,212.0,252.0,4.0,237.0,1618.214
1618224.0,215.0,256.0,4.0,240.0,1618.224
1618234.0,215.0,255.0,4.0,239.0,1618.234
1618244.0,214.0,254.0,4.0,237.0,1618.244
1618254.0,208.0,247.0,3.0,230.0,1618.254
1618264.0,212.0,252.0,4.0,234.0,1618.264
1618274.0,217.0,258.0,4.0,243.0,1618.274
1618284.0,217.0,255.0,5.0,237.0,1618.284
1618294.0,214.0,253.0,3.0,235.0,1618.294
1618304.0,208.0,247.0,4.0,229.0,1618.304
1618314.0,211.0,252.0,3.0,236.0,1618.314
1618324.0,216.0,256.0,4.0,241.0,1618.324
1618334.0,213.0,254.0,4.0,238.0,1618.334
1618344.0,213.0,251.0,5.0,237.0,1618.344
1618354.0,207.0,247.0,4.0,231.0,1618.354
1618364.0,210.0,251.0,4.0,236.0,1618.364
1618374.0,217.0,257.0,4.0,243.0,1618.374
1618384.0,213.0,252.0,3.0,237.0,1618.384
1618394.0,214.0,251.0,4.0,237.0,1618.394
1618404.0,206.0,245.0,4.0,230.0,1618.404
1618414.0,212.0,251.0,4.0,239.0,1618.414
1618424.0,218.0,257.0,4.0,244.0,1618.424
1618434.0,215.0,254.0,4.0,241.0,1618.434
1618444.0,214.0,253.0,3.0,239.0,1618.444
1618454.0,207.0,245.0,4.0,231.0,1618.454
1618464.0,212.0,254.0,4.0,240.0,1618.464
1618475.0,217.0,258.0,5.0,244.0,1618.475
1618485.0,212.0,254.0,3.0,241.0,1618.485
1618495.0,214.0,254.0,5.0,243.0,1618.495
1618505.0,209.0,250.0,3.0,240.0,1618.505
1618515.0,216.0,258.0,3.0,245.0,1618.515
1618525.0,218.0,258.0,4.0,246.0,1618.525
1618535.0,212.0,253.0,4.0,239.0,1618.535
1618545.0,213.0,253.0,4.0,239.0,1618.545
1618555.0,209.0,250.0,4.0,237.0,1618.555
1618565.0,213.0,256.0,4.0,241.0,1618.565
1618575.0,218.0,260.0,3.0,244.0,1618.575
1618585.0,211.0,254.0,4.0,237.0,1618.585
1618595.0,212.0,255.0,4.0,237.0,1618.595
1618605.0,207.0,248.0,5.0,232.0,1618.605
1618615.0,213.0,259.0,4.0,240.0,1618.615
1618625.0,218.0,259.0,4.0,242.0,1618.625
1618635.0,211.0,253.0,3.0,237.0,1618.635
1618646.0,212.0,253.0,4.0,237.0,1618.646
1618656.0,212.0,254.0,4.0,240.0,1618.656
1618666.0,216.0,259.0,5.0,241.0,1618.666
1618676.0,216.0,259.0,4.0,239.0,1618.676
1618686.0,208.0,251.0,4.0,231.0,1618.686
1618696.0,212.0,256.0,3.0,236.0,1618.696
1618706.0,212.0,256.0,4.0,236.0,1618.706
1618716.0,215.0,257.0,3.0,239.0,1618.716
1618726.0,214.0,255.0,4.0,236.0,1618.726
1618736.0,209.0,249.0,4.0,232.0,1618.736
1618746.0,210.0,252.0,3.0,232.0,1618.746
1618756.0,212.0,253.0,4.0,237.0,1618.756
1618766.0,214.0,256.0,3.0,238.0,1618.766
1618776.0,216.0,254.0,4.0,237.0,1618.776
1618786.0,207.0,246.0,4.0,233.0,1618.786
1618796.0,211.0,250.0,5.0,235.0,1618.796
1618806.0,213.0,257.0,4.0,240.0,1618.806
1618816.0,214.0,256.0,3.0,241.0,1618.816
1618826.0,216.0,259.0,3.0,240.0,1618.826
1618836.0,208.0,248.0,3.0,232.0,1618.836
1618846.0,210.0,253.0,4.0,236.0,1618.846
1618856.0,215.0,259.0,4.0,241.0,1618.856
1618866.0,215.0,259.0,4.0,241.0,1618.866
1618876.0,215.0,260.0,3.0,239.0,1618.876
1618886.0,207.0,249.0,3.0,232.0,1618.886
1618896.0,210.0,253.0,3.0,234.0,1618.896
1618906.0,211.0,253.0,3.0,238.0,1618.906
1618916.0,213.0,256.0,4.0,241.0,1618.916
1618926.0,216.0,256.0,4.0,239.0,1618.926
1618936.0,206.0,247.0,3.0,232.0,1618.936
1618946.0,210.0,251.0,4.0,235.0,1618.946
1618956.0,211.0,255.0,3.0,239.0,1618.956
1618966.0,213.0,255.0,4.0,238.0,1618.966
1618976.0,213.0,256.0,3.0,236.0,1618.976
1618987.0,207.0,248.0,5.0,229.0,1618.987
1618997.0,210.0,253.0,3.0,236.0,1618.997
1619007.0,216.0,258.0,4.0,241.0,1619.007
1619017.0,213.0,255.0,3.0,238.0,1619.017
1619027.0,212.0,254.0,4.0,235.0,1619.027
1619037.0,207.0,246.0,4.0,230.0,1619.037
1619047.0,212.0,253.0,3.0,239.0,1619.047
1619057.0,218.0,259.0,4.0,245.0,1619.057
1619067.0,214.0,251.0,4.0,239.0,1619.067
1619077.0,215.0,255.0,4.0,239.0,1619.077
1619087.0,207.0,246.0,4.0,232.0,1619.087
1619097.0,213.0,254.0,4.0,239.0,1619.097
1619107.0,218.0,258.0,4.0,243.0,1619.107
1619117.0,216.0,256.0,4.0,241.0,1619.117
1619127.0,214.0,255.0,3.0,240.0,1619.127
1619137.0,207.0,245.0,4.0,231.0,1619.137
1619147.0,213.0,255.0,3.0,239.0,1619.147
1619158.0,218.0,257.0,4.0,241.0,1619.158
1619168.0,212.0,252.0,3.0,235.0,1619.168
1619178.0,212.0,252.0,5.0,236.0,1619.178
1619188.0,208.0,251.0,4.0,235.0,1619.188
1619198.0,214.0,257.0,3.0,240.0,1619.198
1619208.0,217.0,258.0,3.0,241.0,1619.208
1619218.0,210.0,251.0,3.0,234.0,1619.218
1619228.0,212.0,252.0,4.0,236.0,1619.228
1619238.0,209.0,252.0,4.0,236.0,1619.238
1619248.0,214.0,258.0,4.0,239.0,1619.248
1619258.0,218.0,259.0,3.0,240.0,1619.258
1619268.0,210.0,249.0,4.0,233.0,1619.268
1619278.0,211.0,252.0,3.0,234.0,1619.278
1619288.0,206.0,246.0,4.0,231.0,1619.288
1619298.0,215.0,257.0,4.0,241.0,1619.298
1619308.0,217.0,257.0,4.0,241.0,1619.308
1619318.0,209.0,248.0,4.0,234.0,1619.318
1619328.0,211.0,250.0,3.0,236.0,1619.328
1619338.0,206.0,248.0,3.0,233.0,1619.338
1619348.0,214.0,254.0,4.0,240.0,1619.348
1619358.0,217.0,256.0,4.0,241.0,1619.358
1619368.0,209.0,245.0,5.0,232.0,1619.368
1619378.0,212.0,251.0,3.0,232.0,1619.378
1619388.0,208.0,247.0,4.0,230.0,1619.388
1619398.0,215.0,256.0,4.0,238.0,1619.398
1619408.0,217.0,253.0,4.0,237.0,1619.408
1619418.0,211.0,252.0,4.0,231.0,1619.418
1619428.0,212.0,252.0,4.0,233.0,1619.428
1619438.0,211.0,251.0,4.0,233.0,1619.438
1619448.0,215.0,258.0,4.0,238.0,1619.448
1619458.0,217.0,257.0,4.0,239.0,1619.458
1619468.0,211.0,250.0,3.0,232.0,1619.468
1619478.0,211.0,252.0,4.0,232.0,1619.478
1619488.0,210.0,250.0,4.0,234.0,1619.488
1619499.0,216.0,256.0,5.0,238.0,1619.499
1619509.0,215.0,253.0,4.0,237.0,1619.509
1619519.0,208.0,245.0,4.0,230.0,1619.519
1619529.0,211.0,250.0,3.0,236.0,1619.529
1619539.0,216.0,256.0,4.0,239.0,1619.539
1619549.0,214.0,254.0,4.0,238.0,1619.549
1619559.0,215.0,250.0,5.0,237.0,1619.559
1619569.0,208.0,242.0,4.0,228.0,1619.569
1619579.0,210.0,248.0,4.0,233.0,1619.579
1619589.0,213.0,252.0,4.0,237.0,1619.589
1619599.0,215.0,255.0,3.0,240.0,1619.599
1619609.0,214.0,253.0,4.0,236.0,1619.609
1619619.0,205.0,244.0,4.0,228.0,1619.619
1619629.0,211.0,249.0,5.0,233.0,1619.629
1619639.0,212.0,254.0,4.0,239.0,1619.639
1619649.0,214.0,255.0,3.0,239.0,1619.649
1619659.0,213.0,253.0,3.0,239.0,1619.659
1619670.0,205.0,243.0,4.0,231.0,1619.67
1619680.0,210.0,253.0,4.0,238.0,1619.68
1619690.0,218.0,259.0,5.0,242.0,1619.69
1619700.0,213.0,254.0,4.0,237.0,1619.7
1619710.0,213.0,254.0,3.0,236.0,1619.71
1619720.0,208.0,248.0,3.0,232.0,1619.72
1619730.0,214.0,257.0,4.0,240.0,1619.73
1619740.0,219.0,262.0,3.0,244.0,1619.74
1619750.0,213.0,255.0,4.0,239.0,1619.75
1619760.0,216.0,256.0,4.0,239.0,1619.76
1619770.0,207.0,249.0,4.0,231.0,1619.77
1619780.0,215.0,259.0,3.0,241.0,1619.78
1619790.0,219.0,262.0,3.0,243.0,1619.79
1619800.0,215.0,256.0,4.0,239.0,1619.8
1619810.0,214.0,255.0,4.0,237.0,1619.81
1619820.0,207.0,247.0,5.0,229.0,1619.82
1619830.0,214.0,257.0,3.0,240.0,1619.83
1619840.0,217.0,260.0,4.0,241.0,1619.84
1619850.0,214.0,255.0,3.0,241.0,1619.85
1619860.0,214.0,255.0,4.0,238.0,1619.86
1619870.0,207.0,246.0,4.0,233.0,1619.87
1619880.0,215.0,257.0,4.0,242.0,1619.88
1619890.0,217.0,259.0,4.0,246.0,1619.89
1619900.0,213.0,253.0,3.0,240.0,1619.9
1619910.0,213.0,253.0,4.0,239.0,1619.91
1619920.0,208.0,248.0,3.0,233.0,1619.92
1619930.0,212.0,252.0,4.0,238.0,1619.93
1619940.0,217.0,256.0,4.0,242.0,1619.94
1619950.0,213.0,251.0,5.0,237.0,1619.95
1619960.0,212.0,252.0,3.0,237.0,1619.96
1619970.0,207.0,243.0,4.0,230.0,1619.97
1619980.0,212.0,254.0,3.0,240.0,1619.98
1619990.0,218.0,258.0,4.0,245.0,1619.99
1620000.0,212.0,250.0,3.0,238.0,1620.0
1620011.0,214.0,253.0,5.0,237.0,1620.011
1620021.0,209.0,252.0,4.0,236.0,1620.021
1620031.0,216.0,260.0,4.0,242.0,1620.031
1620041.0,217.0,259.0,3.0,241.0,1620.041
1620051.0,210.0,250.0,4.0,234.0,1620.051
1620061.0,212.0,254.0,4.0,237.0,1620.061
1620071.0,211.0,252.0,4.0,238.0,1620.071
1620081.0,217.0,257.0,4.0,242.0,1620.081
1620091.0,217.0,257.0,4.0,240.0,1620.091
1620101.0,211.0,251.0,3.0,237.0,1620.101
1620111.0,212.0,255.0,3.0,236.0,1620.111
1620121.0,212.0,253.0,4.0,237.0,1620.121
1620131.0,216.0,259.0,3.0,241.0,1620.131
1620141.0,219.0,259.0,5.0,242.0,1620.141
1620151.0,211.0,251.0,4.0,236.0,1620.151
1620161.0,212.0,254.0,4.0,236.0,1620.161
1620171.0,213.0,257.0,3.0,240.0,1620.171
1620182.0,216.0,259.0,3.0,242.0,1620.182
1620192.0,216.0,257.0,3.0,240.0,1620.192
1620202.0,209.0,250.0,4.0,233.0,1620.202
1620212.0,212.0,257.0,4.0,237.0,1620.212
1620222.0,219.0,263.0,4.0,244.0,1620.222
1620232.0,217.0,260.0,3.0,243.0,1620.232
1620242.0,217.0,257.0,3.0,240.0,1620.242
1620252.0,208.0,248.0,4.0,233.0,1620.252
1620262.0,212.0,255.0,4.0,240.0,1620.262
1620272.0,216.0,257.0,4.0,243.0,1620.272
1620282.0,214.0,260.0,2.0,244.0,1620.282
1620292.0,214.0,254.0,4.0,240.0,1620.292
1620302.0,206.0,249.0,3.0,234.0,1620.302
1620312.0,210.0,254.0,4.0,237.0,1620.312
1620322.0,215.0,259.0,4.0,244.0,1620.322
1620332.0,216.0,259.0,5.0,243.0,1620.332
1620342.0,213.0,255.0,3.0,241.0,1620.342
1620352.0,209.0,250.0,4.0,237.0,1620.352
1620362.0,211.0,255.0,3.0,241.0,1620.362
1620372.0,216.0,259.0,4.0,245.0,1620.372
1620382.0,214.0,256.0,3.0,243.0,1620.382
1620392.0,213.0,253.0,4.0,241.0,1620.392
1620402.0,209.0,247.0,4.0,235.0,1620.402
1620412.0,210.0,252.0,4.0,238.0,1620.412
1620422.0,217.0,258.0,4.0,245.0,1620.422
1620432.0,214.0,256.0,3.0,241.0,1620.432
1620442.0,215.0,256.0,4.0,240.0,1620.442
1620452.0,207.0,247.0,3.0,233.0,1620.452
1620462.0,212.0,253.0,4.0,239.0,1620.462
1620472.0,217.0,259.0,4.0,245.0,1620.472
1620482.0,216.0,259.0,4.0,242.0,1620.482
1620492.0,215.0,254.0,4.0,239.0,1620.492
1620502.0,208.0,248.0,4.0,232.0,1620.502
1620512.0,212.0,255.0,3.0,241.0,1620.512
1620523.0,219.0,260.0,5.0,244.0,1620.523
1620533.0,214.0,257.0,3.0,239.0,1620.533
1620543.0,213.0,255.0,3.0,238.0,1620.543
1620553.0,208.0,250.0,4.0,236.0,1620.553
1620563.0,215.0,262.0,3.0,242.0,1620.563
1620573.0,218.0,262.0,4.0,244.0,1620.573
1620583.0,213.0,258.0,4.0,239.0,1620.583
1620593.0,214.0,255.0,4.0,239.0,1620.593
1620603.0,209.0,253.0,4.0,237.0,1620.603
1620613.0,213.0,259.0,4.0,241.0,1620.613
1620623.0,219.0,260.0,3.0,245.0,1620.623
1620633.0,213.0,258.0,4.0,238.0,1620.633
1620643.0,213.0,256.0,4.0,238.0,1620.643
1620653.0,208.0,250.0,5.0,234.0,1620.653
1620663.0,214.0,260.0,4.0,243.0,1620.663
1620673.0,219.0,260.0,4.0,244.0,1620.673
1620683.0,212.0,256.0,3.0,240.0,1620.683
1620694.0,213.0,254.0,3.0,239.0,1620.694
1620704.0,211.0,253.0,4.0,239.0,1620.704
1620714.0,217.0,260.0,4.0,244.0,1620.714
1620724.0,217.0,257.0,4.0,241.0,1620.724
1620734.0,209.0,251.0,3.0,234.0,1620.734
1620744.0,213.0,256.0,4.0,238.0,1620.744
1620754.0,212.0,256.0,3.0,239.0,1620.754
1620764.0,217.0,261.0,4.0,244.0,1620.764
1620774.0,216.0,257.0,4.0,240.0,1620.774
1620784.0,212.0,253.0,4.0,238.0,1620.784
1620794.0,212.0,254.0,4.0,239.0,1620.794
1620804.0,213.0,254.0,4.0,241.0,1620.804
1620814.0,216.0,260.0,3.0,244.0,1620.814
1620824.0,219.0,257.0,4.0,244.0,1620.824
1620834.0,210.0,251.0,4.0,238.0,1620.834
1620844.0,212.0,251.0,5.0,239.0,1620.844
1620854.0,214.0,255.0,4.0,243.0,1620.854
1620864.0,216.0,260.0,4.0,246.0,1620.864
1620874.0,218.0,259.0,4.0,244.0,1620.874
1620884.0,210.0,250.0,4.0,238.0,1620.884
1620894.0,211.0,254.0,3.0,238.0,1620.894
1620904.0,215.0,258.0,4.0,243.0,1620.904
1620914.0,216.0,262.0,4.0,245.0,1620.914
1620924.0,217.0,257.0,4.0,241.0,1620.924
1620934.0,210.0,252.0,4.0,235.0,1620.934
1620944.0,211.0,256.0,3.0,239.0,1620.944
1620954.0,211.0,256.0,4.0,239.0,1620.954
1620964.0,216.0,262.0,4.0,245.0,1620.964
1620974.0,217.0,258.0,4.0,241.0,1620.974
1620984.0,210.0,253.0,3.0,234.0,1620.984
1620994.0,213.0,256.0,3.0,238.0,1620.994
1621004.0,213.0,257.0,3.0,243.0,1621.004
1621014.0,217.0,262.0,3.0,245.0,1621.014
1621024.0,217.0,256.0,3.0,242.0,1621.024
1621035.0,210.0,251.0,4.0,235.0,1621.035
1621045.0,213.0,255.0,4.0,239.0,1621.045
1621055.0,219.0,261.0,3.0,245.0,1621.055
1621065.0,215.0,259.0,3.0,242.0,1621.065
1621075.0,215.0,257.0,3.0,240.0,1621.075
1621085.0,209.0,249.0,3.0,235.0,1621.085
1621095.0,213.0,256.0,4.0,241.0,1621.095
1621105.0,219.0,262.0,4.0,246.0,1621.105
1621115.0,214.0,256.0,4.0,242.0,1621.115
1621125.0,216.0,257.0,4.0,239.0,1621.125
1621135.0,207.0,249.0,3.0,234.0,1621.135
1621145.0,212.0,256.0,4.0,240.0,1621.145
1621155.0,217.0,261.0,4.0,245.0,1621.155
1621165.0,217.0,258.0,5.0,243.0,1621.165
1621175.0,214.0,256.0,4.0,241.0,1621.175
1621185.0,208.0,247.0,4.0,233.0,1621.185
1621195.0,214.0,256.0,3.0,243.0,1621.195
1621206.0,219.0,261.0,4.0,245.0,1621.206
1621216.0,213.0,253.0,4.0,240.0,1621.216
1621226.0,213.0,254.0,5.0,239.0,1621.226
1621236.0,209.0,250.0,4.0,237.0,1621.236
1621246.0,216.0,260.0,3.0,244.0,1621.246
1621256.0,218.0,260.0,4.0,245.0,1621.256
1621266.0,211.0,254.0,3.0,239.0,1621.266
1621276.0,213.0,254.0,4.0,238.0,1621.276
1621286.0,209.0,250.0,4.0,236.0,1621.286
1621296.0,215.0,255.0,4.0,241.0,1621.296
1621306.0,218.0,256.0,3.0,243.0,1621.306
1621316.0,211.0,250.0,4.0,237.0,1621.316
1621326.0,212.0,252.0,3.0,239.0,1621.326
1621336.0,207.0,246.0,4.0,234.0,1621.336
1621346.0,214.0,256.0,4.0,244.0,1621.346
1621356.0,219.0,257.0,5.0,245.0,1621.356
1621366.0,212.0,252.0,4.0,239.0,1621.366
1621376.0,214.0,253.0,4.0,237.0,1621.376
1621386.0,208.0,248.0,3.0,235.0,1621.386
1621396.0,215.0,259.0,3.0,241.0,1621.396
1621406.0,218.0,258.0,4.0,242.0,1621.406
1621416.0,211.0,252.0,4.0,235.0,1621.416
1621426.0,214.0,258.0,4.0,237.0,1621.426
1621436.0,208.0,253.0,3.0,233.0,1621.436
1621446.0,216.0,261.0,4.0,242.0,1621.446
1621456.0,218.0,260.0,3.0,243.0,1621.456
1621466.0,214.0,256.0,4.0,240.0,1621.466
1621476.0,213.0,256.0,4.0,238.0,1621.476
1621486.0,212.0,253.0,5.0,238.0,1621.486
1621496.0,217.0,262.0,4.0,245.0,1621.496
1621506.0,220.0,262.0,4.0,245.0,1621.506
1621516.0,213.0,256.0,3.0,242.0,1621.516
1621526.0,214.0,256.0,4.0,240.0,1621.526
1621536.0,211.0,253.0,4.0,240.0,1621.536
1621547.0,217.0,261.0,4.0,246.0,1621.547
1621557.0,217.0,258.0,3.0,243.0,1621.557
1621567.0,209.0,252.0,4.0,236.0,1621.567
1621577.0,211.0,256.0,3.0,241.0,1621.577
1621587.0,216.0,261.0,4.0,245.0,1621.587
1621597.0,216.0,262.0,4.0,244.0,1621.597
1621607.0,217.0,258.0,4.0,241.0,1621.607
1621617.0,210.0,252.0,4.0,237.0,1621.617
1621627.0,212.0,257.0,3.0,240.0,1621.627
1621637.0,214.0,257.0,3.0,243.0,1621.637
1621647.0,217.0,265.0,3.0,246.0,1621.647
1621657.0,217.0,256.0,4.0,242.0,1621.657
1621667.0,209.0,252.0,4.0,236.0,1621.667
1621677.0,214.0,256.0,5.0,239.0,1621.677
1621687.0,214.0,260.0,4.0,242.0,1621.687
1621697.0,216.0,261.0,4.0,243.0,1621.697
1621707.0,215.0,258.0,3.0,239.0,1621.707
1621718.0,206.0,248.0,4.0,232.0,1621.718
1621728.0,211.0,254.0,4.0,239.0,1621.728
1621738.0,218.0,258.0,4.0,243.0,1621.738
1621748.0,213.0,256.0,4.0,239.0,1621.748
1621758.0,213.0,253.0,4.0,237.0,1621.758
1621768.0,206.0,247.0,3.0,233.0,1621.768
1621778.0,211.0,255.0,3.0,240.0,1621.778
1621788.0,217.0,260.0,4.0,246.0,1621.788
1621798.0,211.0,257.0,4.0,242.0,1621.798
1621808.0,214.0,256.0,4.0,242.0,1621.808
1621818.0,206.0,247.0,4.0,235.0,1621.818
1621828.0,213.0,257.0,4.0,245.0,1621.828
1621838.0,218.0,261.0,3.0,247.0,1621.838
1621848.0,214.0,258.0,4.0,244.0,1621.848
1621858.0,213.0,253.0,3.0,241.0,1621.858
1621868.0,206.0,248.0,4.0,235.0,1621.868
1621878.0,212.0,257.0,4.0,244.0,1621.878
1621888.0,216.0,258.0,4.0,246.0,1621.888
1621898.0,213.0,260.0,3.0,244.0,1621.898
1621908.0,214.0,255.0,4.0,241.0,1621.908
1621918.0,207.0,249.0,4.0,234.0,1621.918
1621928.0,216.0,263.0,4.0,245.0,1621.928
1621938.0,218.0,261.0,4.0,246.0,1621.938
1621948.0,214.0,261.0,4.0,242.0,1621.948
1621958.0,214.0,257.0,4.0,239.0,1621.958
1621968.0,207.0,251.0,3.0,237.0,1621.968
1621978.0,212.0,256.0,4.0,242.0,1621.978
1621988.0,217.0,260.0,4.0,248.0,1621.988
1621998.0,214.0,259.0,5.0,243.0,1621.998
1622008.0,213.0,256.0,4.0,242.0,1622.008
1622018.0,206.0,251.0,4.0,236.0,1622.018
1622028.0,213.0,259.0,3.0,244.0,1622.028
1622038.0,218.0,260.0,3.0,246.0,1622.038
1622048.0,212.0,257.0,3.0,241.0,1622.048
1622059.0,213.0,256.0,5.0,240.0,1622.059
1622069.0,208.0,251.0,4.0,238.0,1622.069
1622079.0,214.0,261.0,4.0,246.0,1622.079
1622089.0,218.0,258.0,4.0,244.0,1622.089
1622099.0,208.0,253.0,3.0,237.0,1622.099
1622109.0,212.0,256.0,4.0,238.0,1622.109
1622119.0,209.0,253.0,4.0,238.0,1622.119
1622129.0,215.0,261.0,4.0,244.0,1622.129
1622139.0,215.0,256.0,4.0,242.0,1622.139
1622149.0,210.0,254.0,4.0,240.0,1622.149
1622159.0,211.0,256.0,3.0,240.0,1622.159
1622169.0,210.0,255.0,4.0,240.0,1622.169
1622179.0,215.0,263.0,4.0,246.0,1622.179
1622189.0,219.0,262.0,5.0,245.0,1622.189
1622199.0,210.0,255.0,3.0,239.0,1622.199
1622209.0,211.0,255.0,4.0,239.0,1622.209
1622219.0,211.0,257.0,3.0,244.0,1622.219
1622230.0,215.0,263.0,3.0,246.0,1622.23
1622240.0,215.0,258.0,3.0,243.0,1622.24
1622250.0,206.0,250.0,4.0,237.0,1622.25
1622260.0,209.0,254.0,4.0,241.0,1622.26
1622270.0,215.0,260.0,3.0,248.0,1622.27
1622280.0,214.0,260.0,3.0,247.0,1622.28
1622290.0,214.0,257.0,3.0,244.0,1622.29
1622300.0,206.0,248.0,4.0,237.0,1622.3
1622310.0,209.0,255.0,4.0,241.0,1622.31
1622320.0,214.0,258.0,5.0,243.0,1622.32
1622330.0,214.0,262.0,2.0,246.0,1622.33
1622340.0,215.0,255.0,4.0,243.0,1622.34
1622350.0,206.0,253.0,3.0,237.0,1622.35
1622360.0,211.0,256.0,3.0,240.0,1622.36
1622370.0,214.0,258.0,4.0,245.0,1622.37
1622380.0,214.0,260.0,5.0,244.0,1622.38
1622390.0,214.0,255.0,4.0,241.0,1622.39
1622400.0,208.0,252.0,4.0,236.0,1622.4
1622410.0,211.0,255.0,3.0,239.0,1622.41
1622420.0,216.0,261.0,3.0,244.0,1622.42
1622430.0,215.0,262.0,4.0,242.0,1622.43
1622440.0,215.0,257.0,4.0,240.0,1622.44
1622450.0,209.0,254.0,4.0,235.0,1622.45
1622460.0,210.0,255.0,4.0,237.0,1622.46
1622470.0,216.0,260.0,4.0,243.0,1622.47
1622480.0,213.0,260.0,3.0,241.0,1622.48
1622490.0,215.0,256.0,4.0,240.0,1622.49
1622500.0,205.0,250.0,3.0,234.0,1622.5
1622510.0,210.0,255.0,4.0,239.0,1622.51
1622520.0,216.0,261.0,2.0,245.0,1622.52
1622530.0,214.0,260.0,4.0,244.0,1622.53
1622540.0,214.0,258.0,3.0,241.0,1622.54
1622550.0,207.0,250.0,3.0,234.0,1622.55
1622560.0,210.0,255.0,4.0,239.0,1622.56
1622571.0,218.0,261.0,5.0,245.0,1622.571
1622581.0,213.0,255.0,4.0,240.0,1622.581
1622591.0,213.0,255.0,4.0,238.0,1622.591
1622601.0,207.0,249.0,4.0,236.0,1622.601
1622611.0,213.0,260.0,4.0,244.0,1622.611
1622621.0,217.0,260.0,4.0,244.0,1622.621
1622631.0,211.0,256.0,4.0,239.0,1622.631
1622641.0,213.0,254.0,4.0,238.0,1622.641
1622651.0,206.0,252.0,3.0,237.0,1622.651
1622661.0,211.0,258.0,4.0,240.0,1622.661
1622671.0,217.0,262.0,3.0,244.0,1622.671
1622681.0,210.0,258.0,4.0,237.0,1622.681
1622691.0,212.0,256.0,3.0,238.0,1622.691
1622701.0,206.0,251.0,5.0,233.0,1622.701
1622711.0,212.0,260.0,4.0,242.0,1622.711
1622721.0,217.0,261.0,4.0,243.0,1622.721
1622731.0,211.0,257.0,3.0,238.0,1622.731
1622742.0,212.0,256.0,4.0,237.0,1622.742
1622752.0,210.0,256.0,4.0,239.0,1622.752
1622762.0,216.0,264.0,4.0,245.0,1622.762
1622772.0,217.0,261.0,4.0,243.0,1622.772
1622782.0,208.0,252.0,3.0,237.0,1622.782
1622792.0,212.0,256.0,4.0,239.0,1622.792
1622802.0,211.0,256.0,3.0,240.0,1622.802
1622812.0,214.0,260.0,4.0,241.0,1622.812
1622822.0,215.0,256.0,4.0,238.0,1622.822
1622832.0,210.0,251.0,4.0,235.0,1622.832
1622842.0,211.0,253.0,4.0,235.0,1622.842
1622852.0,211.0,254.0,4.0,237.0,1622.852
1622862.0,214.0,262.0,3.0,241.0,1622.862
1622872.0,217.0,257.0,4.0,241.0,1622.872
1622882.0,209.0,253.0,3.0,235.0,1622.882
1622892.0,212.0,255.0,4.0,237.0,1622.892
1622902.0,214.0,257.0,3.0,242.0,1622.902
1622912.0,215.0,261.0,3.0,244.0,1622.912
1622922.0,218.0,259.0,4.0,244.0,1622.922
1622932.0,209.0,252.0,3.0,237.0,1622.932
1622942.0,211.0,254.0,4.0,238.0,1622.942
1622952.0,213.0,256.0,4.0,241.0,1622.952
1622962.0,215.0,259.0,4.0,242.0,1622.962
