time (ms),signal 0,signal 1,signal 2,signal 3,time (sec)
1627706.0,210.0,253.0,3.0,234.0,1627.706
1627716.0,215.0,254.0,3.0,239.0,1627.716
1627726.0,210.0,250.0,4.0,231.0,1627.726
1627736.0,210.0,250.0,3.0,232.0,1627.736
1627746.0,204.0,244.0,5.0,224.0,1627.746
1627756.0,210.0,254.0,4.0,234.0,1627.756
1627766.0,215.0,255.0,3.0,236.0,1627.766
1627776.0,210.0,253.0,3.0,233.0,1627.776
1627786.0,210.0,251.0,4.0,231.0,1627.786
1627796.0,203.0,245.0,4.0,224.0,1627.796
1627806.0,209.0,256.0,4.0,234.0,1627.806
1627816.0,214.0,256.0,4.0,237.0,1627.816
1627826.0,208.0,252.0,2.0,234.0,1627.826
1627836.0,208.0,252.0,4.0,233.0,1627.836
1627846.0,203.0,246.0,3.0,228.0,1627.846
1627856.0,211.0,255.0,4.0,235.0,1627.856
1627866.0,213.0,256.0,4.0,238.0,1627.866
1627876.0,210.0,254.0,5.0,233.0,1627.876
1627886.0,210.0,251.0,4.0,233.0,1627.886
1627896.0,205.0,249.0,4.0,231.0,1627.896
1627906.0,210.0,257.0,3.0,237.0,1627.906
1627916.0,215.0,258.0,3.0,240.0,1627.916
1627926.0,209.0,254.0,3.0,234.0,1627.926
1627936.0,210.0,254.0,4.0,234.0,1627.936
1627947.0,207.0,253.0,4.0,231.0,1627.947
1627957.0,214.0,262.0,4.0,238.0,1627.957
1627967.0,215.0,257.0,4.0,239.0,1627.967
1627977.0,207.0,254.0,3.0,230.0,1627.977
1627987.0,209.0,255.0,4.0,232.0,1627.987
1627997.0,207.0,255.0,4.0,233.0,1627.997
1628007.0,214.0,263.0,4.0,240.0,1628.007
1628017.0,215.0,258.0,4.0,239.0,1628.017
1628027.0,208.0,252.0,4.0,233.0,1628.027
1628037.0,210.0,256.0,3.0,238.0,1628.037
1628047.0,211.0,256.0,4.0,239.0,1628.047
1628057.0,216.0,263.0,4.0,243.0,1628.057
1628067.0,217.0,257.0,4.0,240.0,1628.067
1628077.0,211.0,254.0,4.0,234.0,1628.077
1628087.0,212.0,255.0,4.0,236.0,1628.087
1628097.0,212.0,257.0,4.0,239.0,1628.097
1628107.0,216.0,264.0,3.0,242.0,1628.107
1628118.0,216.0,257.0,3.0,242.0,1628.118
1628128.0,208.0,255.0,4.0,233.0,1628.128
1628138.0,211.0,257.0,4.0,237.0,1628.138
1628148.0,216.0,262.0,4.0,242.0,1628.148
1628158.0,213.0,261.0,4.0,236.0,1628.158
1628168.0,215.0,259.0,3.0,238.0,1628.168
1628178.0,207.0,253.0,4.0,228.0,1628.178
1628188.0,210.0,258.0,4.0,233.0,1628.188
1628198.0,218.0,263.0,4.0,240.0,1628.198
1628208.0,214.0,262.0,3.0,237.0,1628.208
1628218.0,214.0,257.0,3.0,236.0,1628.218
1628228.0,207.0,251.0,3.0,229.0,1628.228
1628238.0,211.0,257.0,3.0,234.0,1628.238
1628248.0,214.0,259.0,3.0,239.0,1628.248
1628258.0,215.0,259.0,4.0,238.0,1628.258
1628268.0,215.0,256.0,4.0,237.0,1628.268
1628278.0,207.0,250.0,4.0,229.0,1628.278
1628288.0,211.0,256.0,3.0,234.0,1628.288
1628298.0,216.0,262.0,3.0,240.0,1628.298
1628308.0,215.0,261.0,4.0,236.0,1628.308
1628318.0,213.0,256.0,3.0,234.0,1628.318
1628328.0,207.0,251.0,4.0,226.0,1628.328
1628338.0,210.0,256.0,4.0,233.0,1628.338
1628348.0,217.0,262.0,3.0,239.0,1628.348
1628358.0,214.0,262.0,3.0,236.0,1628.358
1628368.0,215.0,258.0,4.0,234.0,1628.368
1628378.0,208.0,254.0,4.0,226.0,1628.378
1628388.0,212.0,258.0,5.0,232.0,1628.388
1628398.0,218.0,263.0,3.0,240.0,1628.398
1628408.0,214.0,265.0,4.0,233.0,1628.408
1628418.0,217.0,259.0,3.0,236.0,1628.418
1628428.0,208.0,258.0,3.0,226.0,1628.428
1628438.0,212.0,265.0,3.0,233.0,1628.438
1628448.0,219.0,268.0,4.0,239.0,1628.448
1628459.0,214.0,272.0,4.0,233.0,1628.459
1628469.0,213.0,267.0,4.0,233.0,1628.469
1628479.0,208.0,268.0,4.0,228.0,1628.479
1628489.0,215.0,279.0,3.0,237.0,1628.489
1628499.0,218.0,273.0,3.0,238.0,1628.499
1628509.0,212.0,275.0,4.0,233.0,1628.509
1628519.0,214.0,270.0,4.0,235.0,1628.519
1628529.0,208.0,267.0,4.0,233.0,1628.529
1628539.0,215.0,276.0,3.0,241.0,1628.539
1628549.0,219.0,274.0,3.0,243.0,1628.549
1628559.0,212.0,272.0,4.0,235.0,1628.559
1628569.0,213.0,268.0,4.0,237.0,1628.569
1628579.0,209.0,268.0,4.0,235.0,1628.579
1628589.0,212.0,274.0,4.0,239.0,1628.589
1628599.0,218.0,273.0,4.0,243.0,1628.599
1628609.0,210.0,271.0,4.0,236.0,1628.609
1628619.0,212.0,267.0,4.0,237.0,1628.619
1628630.0,210.0,268.0,4.0,237.0,1628.63
1628640.0,216.0,275.0,4.0,241.0,1628.64
1628650.0,219.0,268.0,4.0,240.0,1628.65
1628660.0,208.0,268.0,3.0,232.0,1628.66
1628670.0,211.0,268.0,4.0,236.0,1628.67
1628680.0,212.0,269.0,3.0,239.0,1628.68
1628690.0,216.0,274.0,4.0,240.0,1628.69
1628700.0,217.0,267.0,3.0,239.0,1628.7
1628710.0,208.0,261.0,5.0,231.0,1628.71
1628720.0,213.0,265.0,4.0,237.0,1628.72
1628730.0,212.0,265.0,3.0,239.0,1628.73
1628740.0,215.0,268.0,3.0,242.0,1628.74
1628750.0,216.0,262.0,3.0,240.0,1628.75
1628760.0,214.0,262.0,4.0,237.0,1628.76
1628770.0,219.0,265.0,5.0,240.0,1628.77
1628780.0,222.0,268.0,4.0,244.0,1628.78
1628790.0,222.0,269.0,4.0,244.0,1628.79
1628800.0,224.0,265.0,3.0,245.0,1628.8
1628810.0,214.0,260.0,3.0,235.0,1628.81
1628820.0,216.0,260.0,4.0,238.0,1628.82
1628830.0,218.0,264.0,3.0,243.0,1628.83
1628840.0,220.0,265.0,4.0,243.0,1628.84
1628850.0,222.0,262.0,4.0,244.0,1628.85
1628860.0,212.0,254.0,4.0,237.0,1628.86
1628870.0,214.0,258.0,3.0,241.0,1628.87
1628880.0,217.0,260.0,4.0,244.0,1628.88
1628890.0,217.0,263.0,3.0,245.0,1628.89
1628900.0,219.0,259.0,5.0,243.0,1628.9
1628910.0,209.0,253.0,4.0,234.0,1628.91
1628920.0,210.0,255.0,4.0,236.0,1628.92
1628930.0,212.0,257.0,3.0,240.0,1628.93
1628940.0,215.0,260.0,3.0,243.0,1628.94
1628950.0,216.0,257.0,3.0,240.0,1628.95
1628960.0,207.0,246.0,4.0,232.0,1628.96
1628971.0,211.0,251.0,4.0,237.0,1628.971
1628981.0,217.0,258.0,4.0,244.0,1628.981
1628991.0,213.0,255.0,4.0,239.0,1628.991
1629001.0,213.0,253.0,3.0,239.0,1629.001
1629011.0,206.0,246.0,4.0,231.0,1629.011
1629021.0,211.0,254.0,4.0,237.0,1629.021
1629031.0,219.0,259.0,5.0,243.0,1629.031
1629041.0,214.0,259.0,2.0,238.0,1629.041
1629051.0,214.0,256.0,4.0,237.0,1629.051
1629061.0,208.0,254.0,3.0,232.0,1629.061
1629071.0,213.0,260.0,4.0,238.0,1629.071
1629081.0,218.0,263.0,3.0,242.0,1629.081
1629091.0,213.0,255.0,5.0,236.0,1629.091
1629101.0,215.0,257.0,4.0,238.0,1629.101
1629111.0,206.0,250.0,4.0,229.0,1629.111
1629121.0,211.0,258.0,3.0,239.0,1629.121
1629131.0,217.0,260.0,3.0,241.0,1629.131
1629142.0,213.0,256.0,4.0,234.0,1629.142
1629152.0,215.0,258.0,4.0,236.0,1629.152
1629162.0,210.0,250.0,4.0,232.0,1629.162
1629172.0,214.0,260.0,4.0,243.0,1629.172
1629182.0,218.0,257.0,4.0,242.0,1629.182
1629192.0,212.0,256.0,3.0,236.0,1629.192
1629202.0,215.0,258.0,4.0,237.0,1629.202
1629212.0,215.0,256.0,4.0,237.0,1629.212
1629222.0,223.0,266.0,4.0,243.0,1629.222
1629232.0,223.0,260.0,4.0,243.0,1629.232
1629242.0,212.0,254.0,3.0,235.0,1629.242
1629252.0,215.0,256.0,3.0,238.0,1629.252
1629262.0,215.0,256.0,4.0,240.0,1629.262
1629272.0,220.0,265.0,4.0,246.0,1629.272
1629282.0,225.0,262.0,4.0,245.0,1629.282
1629292.0,218.0,259.0,4.0,236.0,1629.292
1629302.0,221.0,259.0,4.0,237.0,1629.302
1629312.0,215.0,253.0,4.0,233.0,1629.312
1629322.0,224.0,265.0,3.0,243.0,1629.322
1629332.0,231.0,265.0,4.0,245.0,1629.332
1629342.0,221.0,258.0,4.0,236.0,1629.342
1629352.0,226.0,256.0,4.0,238.0,1629.352
1629362.0,222.0,256.0,3.0,236.0,1629.362
1629372.0,231.0,269.0,4.0,245.0,1629.372
1629382.0,229.0,266.0,4.0,244.0,1629.382
1629392.0,223.0,273.0,4.0,245.0,1629.392
1629402.0,231.0,279.0,4.0,253.0,1629.402
1629412.0,223.0,271.0,4.0,246.0,1629.412
1629422.0,226.0,277.0,3.0,249.0,1629.422
1629432.0,228.0,274.0,4.0,247.0,1629.432
1629442.0,220.0,269.0,3.0,243.0,1629.442
1629452.0,225.0,272.0,4.0,242.0,1629.452
1629462.0,223.0,268.0,4.0,239.0,1629.462
1629472.0,226.0,274.0,4.0,245.0,1629.472
1629483.0,232.0,273.0,4.0,247.0,1629.483
1629493.0,222.0,264.0,4.0,238.0,1629.493
1629503.0,227.0,268.0,3.0,242.0,1629.503
1629513.0,229.0,270.0,3.0,247.0,1629.513
1629523.0,234.0,277.0,4.0,246.0,1629.523
1629533.0,239.0,278.0,3.0,246.0,1629.533
1629543.0,235.0,278.0,4.0,240.0,1629.543
1629553.0,242.0,286.0,2.0,249.0,1629.553
1629563.0,245.0,289.0,4.0,252.0,1629.563
1629573.0,238.0,289.0,3.0,249.0,1629.573
1629583.0,236.0,279.0,4.0,247.0,1629.583
1629593.0,228.0,273.0,4.0,237.0,1629.593
1629603.0,233.0,279.0,5.0,241.0,1629.603
1629613.0,235.0,281.0,4.0,249.0,1629.613
1629623.0,242.0,291.0,4.0,255.0,1629.623
1629633.0,242.0,288.0,4.0,255.0,1629.633
1629643.0,233.0,278.0,3.0,242.0,1629.643
1629654.0,236.0,280.0,4.0,243.0,1629.654
1629664.0,239.0,287.0,4.0,250.0,1629.664
1629674.0,232.0,277.0,4.0,240.0,1629.674
1629684.0,232.0,278.0,3.0,242.0,1629.684
1629694.0,227.0,276.0,4.0,239.0,1629.694
1629704.0,239.0,288.0,3.0,250.0,1629.704
1629714.0,246.0,294.0,4.0,259.0,1629.714
1629724.0,236.0,285.0,4.0,251.0,1629.724
1629734.0,236.0,283.0,5.0,248.0,1629.734
1629744.0,227.0,273.0,4.0,238.0,1629.744
1629754.0,236.0,281.0,4.0,250.0,1629.754
1629764.0,235.0,279.0,3.0,258.0,1629.764
1629774.0,231.0,271.0,3.0,248.0,1629.774
1629784.0,233.0,271.0,3.0,246.0,1629.784
1629794.0,221.0,261.0,4.0,237.0,1629.794
1629804.0,226.0,266.0,4.0,241.0,1629.804
1629814.0,230.0,267.0,4.0,243.0,1629.814
1629824.0,231.0,269.0,4.0,241.0,1629.824
1629834.0,235.0,270.0,3.0,246.0,1629.834
1629844.0,227.0,266.0,4.0,236.0,1629.844
1629854.0,233.0,278.0,4.0,253.0,1629.854
1629864.0,241.0,279.0,4.0,252.0,1629.864
1629874.0,232.0,273.0,4.0,245.0,1629.874
1629884.0,229.0,268.0,4.0,239.0,1629.884
1629894.0,220.0,260.0,3.0,230.0,1629.894
1629904.0,231.0,278.0,4.0,242.0,1629.904
1629914.0,236.0,282.0,4.0,248.0,1629.914
1629924.0,231.0,277.0,5.0,242.0,1629.924
1629934.0,232.0,276.0,4.0,241.0,1629.934
1629944.0,224.0,268.0,4.0,229.0,1629.944
1629954.0,231.0,277.0,3.0,228.0,1629.954
1629964.0,235.0,277.0,3.0,231.0,1629.964
1629974.0,228.0,273.0,3.0,226.0,1629.974
1629984.0,231.0,271.0,4.0,230.0,1629.984
1629995.0,227.0,269.0,4.0,227.0,1629.995
1630005.0,236.0,278.0,3.0,229.0,1630.005
1630015.0,239.0,274.0,4.0,235.0,1630.015
1630025.0,232.0,271.0,3.0,227.0,1630.025
1630035.0,233.0,272.0,3.0,230.0,1630.035
1630045.0,232.0,273.0,4.0,228.0,1630.045
1630055.0,239.0,280.0,5.0,234.0,1630.055
1630065.0,238.0,273.0,4.0,239.0,1630.065
1630075.0,229.0,268.0,4.0,236.0,1630.075
1630085.0,233.0,274.0,3.0,241.0,1630.085
1630095.0,236.0,276.0,4.0,243.0,1630.095
1630105.0,243.0,284.0,4.0,245.0,1630.105
1630115.0,246.0,280.0,4.0,247.0,1630.115
1630125.0,236.0,274.0,4.0,239.0,1630.125
1630135.0,235.0,276.0,3.0,241.0,1630.135
1630145.0,235.0,278.0,4.0,255.0,1630.145
1630155.0,240.0,285.0,3.0,256.0,1630.155
1630166.0,242.0,281.0,4.0,249.0,1630.166
1630176.0,229.0,272.0,4.0,234.0,1630.176
1630186.0,235.0,278.0,4.0,243.0,1630.186
1630196.0,238.0,283.0,4.0,249.0,1630.196
1630206.0,233.0,279.0,4.0,239.0,1630.206
1630216.0,234.0,280.0,3.0,242.0,1630.216
1630226.0,226.0,271.0,4.0,234.0,1630.226
1630236.0,230.0,277.0,3.0,241.0,1630.236
1630246.0,238.0,282.0,5.0,252.0,1630.246
1630256.0,234.0,281.0,4.0,249.0,1630.256
1630266.0,234.0,277.0,4.0,250.0,1630.266
1630276.0,226.0,269.0,3.0,241.0,1630.276
1630286.0,229.0,275.0,4.0,247.0,1630.286
1630296.0,233.0,278.0,4.0,254.0,1630.296
1630306.0,232.0,279.0,4.0,250.0,1630.306
1630316.0,232.0,273.0,4.0,248.0,1630.316
1630326.0,221.0,268.0,4.0,239.0,1630.326
1630336.0,224.0,272.0,4.0,249.0,1630.336
1630346.0,230.0,282.0,3.0,255.0,1630.346
1630356.0,231.0,280.0,4.0,250.0,1630.356
1630366.0,229.0,276.0,3.0,245.0,1630.366
1630376.0,222.0,266.0,4.0,233.0,1630.376
1630386.0,226.0,272.0,4.0,246.0,1630.386
1630396.0,234.0,277.0,4.0,253.0,1630.396
1630406.0,235.0,278.0,3.0,263.0,1630.406
1630416.0,235.0,276.0,3.0,269.0,1630.416
1630426.0,229.0,270.0,4.0,255.0,1630.426
1630436.0,231.0,273.0,5.0,255.0,1630.436
1630446.0,238.0,280.0,4.0,256.0,1630.446
1630456.0,234.0,274.0,4.0,247.0,1630.456
1630466.0,235.0,276.0,4.0,244.0,1630.466
1630476.0,227.0,267.0,3.0,240.0,1630.476
1630486.0,231.0,273.0,4.0,248.0,1630.486
1630496.0,236.0,277.0,4.0,255.0,1630.496
1630507.0,233.0,272.0,4.0,249.0,1630.507
1630517.0,231.0,271.0,4.0,247.0,1630.517
1630527.0,225.0,264.0,4.0,238.0,1630.527
1630537.0,230.0,273.0,3.0,242.0,1630.537
1630547.0,235.0,272.0,4.0,245.0,1630.547
1630557.0,229.0,266.0,3.0,240.0,1630.557
1630567.0,233.0,267.0,5.0,242.0,1630.567
1630577.0,231.0,267.0,4.0,236.0,1630.577
1630587.0,238.0,278.0,4.0,245.0,1630.587
1630597.0,243.0,279.0,3.0,249.0,1630.597
1630607.0,236.0,273.0,4.0,241.0,1630.607
1630617.0,234.0,269.0,4.0,238.0,1630.617
1630627.0,232.0,267.0,5.0,241.0,1630.627
1630637.0,238.0,275.0,4.0,246.0,1630.637
1630647.0,243.0,280.0,3.0,251.0,1630.647
1630657.0,239.0,271.0,4.0,245.0,1630.657
1630667.0,237.0,273.0,3.0,245.0,1630.667
1630678.0,235.0,270.0,4.0,247.0,1630.678
1630688.0,239.0,279.0,4.0,257.0,1630.688
1630698.0,248.0,277.0,4.0,262.0,1630.698
1630708.0,239.0,275.0,3.0,249.0,1630.708
1630718.0,240.0,277.0,4.0,249.0,1630.718
1630728.0,238.0,277.0,3.0,252.0,1630.728
1630738.0,244.0,282.0,4.0,250.0,1630.738
1630748.0,243.0,278.0,4.0,249.0,1630.748
1630758.0,234.0,275.0,5.0,251.0,1630.758
1630768.0,236.0,277.0,4.0,254.0,1630.768
1630778.0,239.0,282.0,4.0,253.0,1630.778
1630788.0,243.0,292.0,3.0,254.0,1630.788
1630798.0,242.0,285.0,4.0,252.0,1630.798
1630808.0,236.0,284.0,4.0,248.0,1630.808
1630818.0,236.0,282.0,4.0,250.0,1630.818
1630828.0,240.0,286.0,4.0,256.0,1630.828
1630838.0,239.0,291.0,4.0,253.0,1630.838
1630848.0,243.0,286.0,4.0,255.0,1630.848
1630858.0,234.0,282.0,3.0,249.0,1630.858
1630868.0,235.0,280.0,4.0,249.0,1630.868
1630878.0,239.0,284.0,3.0,256.0,1630.878
1630888.0,239.0,282.0,5.0,255.0,1630.888
1630898.0,238.0,281.0,3.0,253.0,1630.898
1630908.0,227.0,271.0,4.0,239.0,1630.908
1630918.0,229.0,275.0,3.0,241.0,1630.918
1630928.0,236.0,281.0,4.0,248.0,1630.928
1630938.0,239.0,284.0,4.0,256.0,1630.938
1630948.0,238.0,282.0,4.0,261.0,1630.948
1630958.0,230.0,273.0,3.0,252.0,1630.958
1630968.0,233.0,279.0,3.0,251.0,1630.968
1630978.0,233.0,278.0,4.0,255.0,1630.978
1630988.0,234.0,283.0,3.0,255.0,1630.988
1630998.0,236.0,278.0,3.0,251.0,1630.998
1631008.0,227.0,273.0,4.0,247.0,1631.008
1631019.0,231.0,275.0,5.0,248.0,1631.019
1631029.0,237.0,282.0,4.0,256.0,1631.029
1631039.0,234.0,284.0,3.0,252.0,1631.039
1631049.0,237.0,281.0,3.0,249.0,1631.049
1631059.0,227.0,272.0,4.0,238.0,1631.059
1631069.0,231.0,280.0,3.0,248.0,1631.069
1631079.0,239.0,286.0,5.0,263.0,1631.079
1631089.0,232.0,282.0,4.0,255.0,1631.089
1631099.0,231.0,277.0,4.0,249.0,1631.099
1631109.0,224.0,271.0,4.0,242.0,1631.109
1631119.0,229.0,278.0,3.0,247.0,1631.119
1631129.0,236.0,279.0,4.0,254.0,1631.129
1631139.0,229.0,279.0,4.0,247.0,1631.139
1631149.0,231.0,273.0,4.0,249.0,1631.149
1631159.0,222.0,271.0,4.0,244.0,1631.159
1631169.0,231.0,280.0,3.0,255.0,1631.169
1631179.0,239.0,284.0,3.0,256.0,1631.179
1631190.0,231.0,279.0,4.0,250.0,1631.19
1631200.0,232.0,277.0,4.0,250.0,1631.2
1631210.0,230.0,275.0,5.0,258.0,1631.21
1631220.0,236.0,284.0,3.0,265.0,1631.22
1631230.0,238.0,277.0,4.0,263.0,1631.23
1631240.0,231.0,276.0,3.0,258.0,1631.24
1631250.0,233.0,276.0,4.0,254.0,1631.25
1631260.0,229.0,274.0,4.0,251.0,1631.26
1631270.0,235.0,283.0,5.0,252.0,1631.27
1631280.0,237.0,280.0,4.0,255.0,1631.28
1631290.0,228.0,275.0,4.0,240.0,1631.29
1631300.0,230.0,274.0,4.0,245.0,1631.3
1631310.0,229.0,276.0,4.0,244.0,1631.31
1631320.0,236.0,284.0,4.0,247.0,1631.32
1631330.0,241.0,283.0,4.0,251.0,1631.33
1631340.0,232.0,278.0,4.0,245.0,1631.34
1631350.0,234.0,277.0,4.0,246.0,1631.35
1631360.0,229.0,273.0,4.0,241.0,1631.36
1631370.0,235.0,283.0,3.0,254.0,1631.37
1631380.0,238.0,280.0,3.0,250.0,1631.38
1631390.0,229.0,274.0,3.0,242.0,1631.39
1631400.0,232.0,277.0,4.0,242.0,1631.4
1631410.0,230.0,274.0,4.0,250.0,1631.41
1631420.0,238.0,284.0,4.0,260.0,1631.42
1631430.0,240.0,281.0,3.0,261.0,1631.43
1631440.0,229.0,272.0,4.0,252.0,1631.44
1631450.0,232.0,274.0,3.0,255.0,1631.45
1631460.0,229.0,272.0,4.0,255.0,1631.46
1631470.0,233.0,278.0,4.0,256.0,1631.47
1631480.0,235.0,275.0,4.0,254.0,1631.48
1631490.0,230.0,274.0,4.0,253.0,1631.49
1631500.0,232.0,275.0,3.0,255.0,1631.5
1631510.0,229.0,272.0,4.0,254.0,1631.51
1631520.0,233.0,281.0,3.0,258.0,1631.52
1631531.0,236.0,275.0,4.0,255.0,1631.531
1631541.0,225.0,272.0,2.0,249.0,1631.541
1631551.0,227.0,272.0,4.0,247.0,1631.551
1631561.0,232.0,277.0,3.0,255.0,1631.561
1631571.0,229.0,279.0,4.0,254.0,1631.571
1631581.0,232.0,275.0,4.0,255.0,1631.581
1631591.0,223.0,269.0,4.0,249.0,1631.591
1631601.0,226.0,273.0,4.0,251.0,1631.601
1631611.0,233.0,279.0,4.0,257.0,1631.611
1631621.0,231.0,276.0,3.0,255.0,1631.621
1631631.0,231.0,273.0,3.0,250.0,1631.631
1631641.0,220.0,264.0,3.0,244.0,1631.641
1631651.0,225.0,269.0,4.0,251.0,1631.651
1631661.0,229.0,271.0,4.0,254.0,1631.661
1631671.0,230.0,272.0,4.0,255.0,1631.671
1631681.0,230.0,271.0,4.0,253.0,1631.681
1631691.0,221.0,262.0,3.0,249.0,1631.691
1631702.0,226.0,267.0,4.0,254.0,1631.702
1631712.0,232.0,274.0,4.0,260.0,1631.712
1631722.0,227.0,270.0,5.0,253.0,1631.722
1631732.0,228.0,269.0,4.0,252.0,1631.732
1631742.0,222.0,264.0,4.0,252.0,1631.742
1631752.0,227.0,273.0,3.0,257.0,1631.752
1631762.0,232.0,276.0,4.0,258.0,1631.762
1631772.0,226.0,275.0,3.0,253.0,1631.772
1631782.0,228.0,273.0,5.0,252.0,1631.782
1631792.0,220.0,267.0,4.0,246.0,1631.792
1631802.0,227.0,276.0,4.0,254.0,1631.802
1631812.0,232.0,277.0,4.0,256.0,1631.812
1631822.0,225.0,276.0,3.0,250.0,1631.822
1631832.0,228.0,272.0,4.0,249.0,1631.832
1631842.0,219.0,266.0,4.0,243.0,1631.842
1631852.0,227.0,278.0,4.0,254.0,1631.852
1631862.0,231.0,278.0,4.0,255.0,1631.862
1631872.0,226.0,281.0,4.0,252.0,1631.872
1631882.0,226.0,275.0,3.0,250.0,1631.882
1631892.0,218.0,268.0,4.0,244.0,1631.892
1631902.0,225.0,278.0,4.0,255.0,1631.902
1631912.0,229.0,275.0,5.0,256.0,1631.912
1631922.0,225.0,275.0,2.0,253.0,1631.922
1631932.0,224.0,269.0,3.0,251.0,1631.932
1631942.0,217.0,264.0,3.0,249.0,1631.942
1631952.0,225.0,274.0,3.0,258.0,1631.952
1631962.0,228.0,272.0,4.0,259.0,1631.962
1631972.0,223.0,269.0,4.0,255.0,1631.972
1631982.0,222.0,265.0,3.0,251.0,1631.982
1631992.0,216.0,261.0,4.0,248.0,1631.992
1632002.0,222.0,269.0,4.0,251.0,1632.002
1632012.0,227.0,271.0,3.0,254.0,1632.012
1632022.0,222.0,267.0,4.0,248.0,1632.022
1632032.0,220.0,264.0,3.0,247.0,1632.032
1632043.0,215.0,260.0,5.0,244.0,1632.043
1632053.0,222.0,269.0,4.0,251.0,1632.053
1632063.0,224.0,263.0,4.0,246.0,1632.063
1632073.0,215.0,259.0,4.0,241.0,1632.073
1632083.0,217.0,260.0,4.0,242.0,1632.083
1632093.0,215.0,259.0,4.0,242.0,1632.093
1632103.0,220.0,267.0,4.0,246.0,1632.103
1632113.0,221.0,260.0,4.0,242.0,1632.113
1632123.0,213.0,255.0,4.0,238.0,1632.123
1632133.0,216.0,260.0,3.0,242.0,1632.133
1632143.0,215.0,260.0,3.0,244.0,1632.143
1632153.0,219.0,263.0,4.0,250.0,1632.153
1632163.0,219.0,261.0,4.0,247.0,1632.163
1632173.0,214.0,257.0,4.0,242.0,1632.173
1632183.0,213.0,258.0,4.0,241.0,1632.183
1632193.0,214.0,260.0,4.0,242.0,1632.193
1632203.0,219.0,266.0,3.0,246.0,1632.203
1632214.0,218.0,260.0,3.0,241.0,1632.214
1632224.0,209.0,255.0,3.0,236.0,1632.224
1632234.0,214.0,260.0,5.0,241.0,1632.234
1632244.0,219.0,264.0,4.0,246.0,1632.244
1632254.0,216.0,260.0,4.0,244.0,1632.254
1632264.0,217.0,263.0,3.0,245.0,1632.264
1632274.0,209.0,252.0,4.0,238.0,1632.274
1632284.0,213.0,258.0,4.0,244.0,1632.284
1632294.0,219.0,264.0,5.0,248.0,1632.294
1632304.0,218.0,261.0,4.0,247.0,1632.304
1632314.0,216.0,255.0,4.0,241.0,1632.314
1632324.0,209.0,251.0,4.0,235.0,1632.324
1632334.0,213.0,258.0,3.0,242.0,1632.334
1632344.0,217.0,260.0,4.0,246.0,1632.344
1632354.0,216.0,255.0,3.0,244.0,1632.354
1632364.0,216.0,256.0,4.0,241.0,1632.364
1632374.0,208.0,248.0,4.0,233.0,1632.374
1632384.0,212.0,254.0,4.0,237.0,1632.384
1632394.0,216.0,260.0,3.0,243.0,1632.394
1632404.0,213.0,259.0,4.0,238.0,1632.404
1632414.0,213.0,256.0,4.0,235.0,1632.414
1632424.0,206.0,248.0,5.0,231.0,1632.424
1632434.0,211.0,253.0,4.0,238.0,1632.434
1632444.0,217.0,260.0,3.0,245.0,1632.444
1632454.0,214.0,257.0,3.0,244.0,1632.454
1632464.0,213.0,256.0,3.0,239.0,1632.464
1632474.0,207.0,252.0,4.0,234.0,1632.474
1632484.0,210.0,256.0,4.0,236.0,1632.484
1632494.0,216.0,261.0,4.0,242.0,1632.494
1632504.0,212.0,258.0,4.0,239.0,1632.504
1632514.0,214.0,256.0,4.0,239.0,1632.514
1632524.0,207.0,252.0,3.0,237.0,1632.524
1632534.0,213.0,258.0,4.0,242.0,1632.534
1632544.0,218.0,263.0,3.0,247.0,1632.544
1632555.0,216.0,258.0,5.0,243.0,1632.555
1632565.0,214.0,257.0,4.0,242.0,1632.565
1632575.0,209.0,252.0,4.0,238.0,1632.575
1632585.0,216.0,264.0,3.0,248.0,1632.585
1632595.0,219.0,260.0,4.0,247.0,1632.595
1632605.0,212.0,258.0,3.0,244.0,1632.605
1632615.0,213.0,255.0,4.0,242.0,1632.615
1632625.0,208.0,251.0,4.0,239.0,1632.625
1632635.0,215.0,262.0,4.0,246.0,1632.635
1632645.0,219.0,261.0,4.0,247.0,1632.645
1632655.0,212.0,259.0,3.0,240.0,1632.655
1632665.0,213.0,256.0,4.0,238.0,1632.665
1632675.0,209.0,256.0,4.0,238.0,1632.675
1632685.0,213.0,260.0,4.0,241.0,1632.685
1632695.0,218.0,264.0,2.0,243.0,1632.695
1632705.0,210.0,256.0,3.0,237.0,1632.705
1632715.0,212.0,257.0,3.0,238.0,1632.715
1632726.0,210.0,255.0,4.0,241.0,1632.726
1632736.0,215.0,262.0,4.0,247.0,1632.736
1632746.0,217.0,259.0,5.0,245.0,1632.746
1632756.0,208.0,252.0,4.0,238.0,1632.756
1632766.0,210.0,255.0,4.0,239.0,1632.766
1632776.0,212.0,259.0,3.0,242.0,1632.776
1632786.0,215.0,263.0,3.0,244.0,1632.786
1632796.0,216.0,258.0,3.0,242.0,1632.796
1632806.0,207.0,250.0,4.0,235.0,1632.806
1632816.0,212.0,254.0,3.0,238.0,1632.816
1632826.0,212.0,257.0,3.0,242.0,1632.826
1632836.0,214.0,263.0,4.0,245.0,1632.836
1632846.0,215.0,257.0,3.0,244.0,1632.846
1632856.0,209.0,254.0,4.0,238.0,1632.856
1632866.0,209.0,255.0,4.0,237.0,1632.866
1632876.0,213.0,257.0,4.0,241.0,1632.876
1632886.0,214.0,259.0,3.0,242.0,1632.886
1632896.0,216.0,257.0,4.0,241.0,1632.896
1632906.0,207.0,254.0,3.0,235.0,1632.906
1632916.0,210.0,256.0,4.0,236.0,1632.916
1632926.0,214.0,262.0,4.0,245.0,1632.926
1632936.0,215.0,264.0,4.0,245.0,1632.936
1632946.0,216.0,260.0,4.0,244.0,1632.946
1632956.0,207.0,252.0,4.0,237.0,1632.956
1632966.0,210.0,257.0,3.0,238.0,1632.966
1632976.0,214.0,261.0,3.0,242.0,1632.976
1632986.0,215.0,262.0,3.0,244.0,1632.986
1632996.0,215.0,259.0,4.0,241.0,1632.996
1633006.0,207.0,253.0,4.0,234.0,1633.006
1633016.0,208.0,257.0,2.0,238.0,1633.016
1633026.0,210.0,259.0,4.0,239.0,1633.026
1633036.0,214.0,260.0,3.0,244.0,1633.036
1633046.0,214.0,254.0,4.0,242.0,1633.046
1633056.0,205.0,248.0,4.0,234.0,1633.056
1633067.0,211.0,254.0,5.0,239.0,1633.067
1633077.0,218.0,260.0,3.0,245.0,1633.077
1633087.0,214.0,257.0,4.0,241.0,1633.087
1633097.0,214.0,256.0,3.0,240.0,1633.097
1633107.0,207.0,248.0,4.0,233.0,1633.107
1633117.0,212.0,255.0,3.0,239.0,1633.117
1633127.0,217.0,259.0,5.0,244.0,1633.127
1633137.0,213.0,257.0,4.0,242.0,1633.137
1633147.0,213.0,255.0,4.0,241.0,1633.147
1633157.0,206.0,249.0,4.0,237.0,1633.157
1633167.0,211.0,257.0,3.0,244.0,1633.167
1633177.0,218.0,262.0,4.0,248.0,1633.177
1633187.0,212.0,255.0,4.0,243.0,1633.187
1633197.0,215.0,257.0,4.0,243.0,1633.197
1633207.0,206.0,249.0,4.0,235.0,1633.207
1633217.0,212.0,257.0,4.0,244.0,1633.217
1633227.0,217.0,261.0,3.0,248.0,1633.227
1633238.0,210.0,256.0,4.0,240.0,1633.238
1633248.0,211.0,254.0,4.0,239.0,1633.248
1633258.0,208.0,254.0,4.0,237.0,1633.258
1633268.0,215.0,263.0,4.0,242.0,1633.268
1633278.0,217.0,258.0,4.0,239.0,1633.278
1633288.0,211.0,255.0,4.0,237.0,1633.288
1633298.0,211.0,256.0,4.0,237.0,1633.298
1633308.0,210.0,254.0,4.0,237.0,1633.308
1633318.0,216.0,262.0,4.0,243.0,1633.318
1633328.0,218.0,260.0,4.0,244.0,1633.328
1633338.0,210.0,255.0,3.0,237.0,1633.338
1633348.0,212.0,255.0,4.0,240.0,1633.348
1633358.0,211.0,257.0,3.0,241.0,1633.358
1633368.0,215.0,262.0,4.0,243.0,1633.368
1633378.0,218.0,262.0,3.0,244.0,1633.378
1633388.0,211.0,254.0,4.0,237.0,1633.388
1633398.0,212.0,257.0,3.0,238.0,1633.398
1633408.0,208.0,252.0,4.0,236.0,1633.408
1633418.0,217.0,263.0,3.0,247.0,1633.418
1633428.0,219.0,262.0,4.0,244.0,1633.428
1633438.0,210.0,253.0,3.0,238.0,1633.438
1633448.0,213.0,254.0,4.0,240.0,1633.448
1633458.0,209.0,252.0,4.0,237.0,1633.458
1633468.0,215.0,261.0,4.0,243.0,1633.468
1633478.0,217.0,259.0,4.0,241.0,1633.478
1633488.0,207.0,252.0,4.0,234.0,1633.488
1633498.0,211.0,256.0,3.0,238.0,1633.498
1633508.0,208.0,253.0,4.0,237.0,1633.508
1633518.0,215.0,261.0,4.0,243.0,1633.518
1633528.0,216.0,258.0,3.0,241.0,1633.528
1633538.0,210.0,253.0,4.0,238.0,1633.538
1633548.0,211.0,257.0,3.0,240.0,1633.548
1633558.0,209.0,255.0,4.0,240.0,1633.558
1633568.0,213.0,262.0,4.0,245.0,1633.568
1633579.0,217.0,258.0,5.0,241.0,1633.579
1633589.0,206.0,249.0,4.0,234.0,1633.589
1633599.0,209.0,253.0,4.0,236.0,1633.599
1633609.0,215.0,257.0,3.0,244.0,1633.609
1633619.0,212.0,258.0,3.0,241.0,1633.619
1633629.0,215.0,255.0,4.0,241.0,1633.629
1633639.0,206.0,250.0,5.0,234.0,1633.639
1633649.0,209.0,255.0,3.0,239.0,1633.649
1633659.0,216.0,262.0,4.0,247.0,1633.659
1633669.0,214.0,263.0,4.0,244.0,1633.669
1633679.0,215.0,258.0,3.0,241.0,1633.679
1633689.0,206.0,252.0,3.0,234.0,1633.689
1633699.0,211.0,256.0,4.0,239.0,1633.699
1633709.0,213.0,257.0,4.0,241.0,1633.709
1633719.0,214.0,261.0,4.0,243.0,1633.719
1633729.0,215.0,253.0,4.0,239.0,1633.729
1633739.0,206.0,250.0,3.0,234.0,1633.739
1633750.0,211.0,257.0,4.0,238.0,1633.75
1633760.0,217.0,260.0,4.0,242.0,1633.76
1633770.0,212.0,258.0,5.0,238.0,1633.77
1633780.0,212.0,256.0,4.0,238.0,1633.78
1633790.0,206.0,252.0,3.0,235.0,1633.79
1633800.0,212.0,259.0,3.0,241.0,1633.8
1633810.0,218.0,262.0,3.0,244.0,1633.81
1633820.0,211.0,258.0,4.0,239.0,1633.82
1633830.0,214.0,258.0,4.0,242.0,1633.83
1633840.0,206.0,252.0,4.0,235.0,1633.84
1633850.0,212.0,262.0,3.0,244.0,1633.85
1633860.0,217.0,263.0,3.0,247.0,1633.86
1633870.0,210.0,260.0,3.0,241.0,1633.87
1633880.0,214.0,258.0,4.0,242.0,1633.88
1633890.0,204.0,252.0,4.0,236.0,1633.89
1633900.0,213.0,262.0,4.0,245.0,1633.9
1633910.0,217.0,262.0,4.0,247.0,1633.91
1633920.0,213.0,263.0,4.0,243.0,1633.92
1633930.0,214.0,260.0,3.0,242.0,1633.93
1633940.0,206.0,252.0,3.0,236.0,1633.94
1633950.0,213.0,264.0,3.0,245.0,1633.95
1633960.0,218.0,261.0,5.0,245.0,1633.96
1633970.0,212.0,261.0,3.0,241.0,1633.97
1633980.0,212.0,259.0,3.0,237.0,1633.98
1633990.0,207.0,253.0,3.0,235.0,1633.99
1634000.0,217.0,265.0,3.0,244.0,1634.0
1634010.0,218.0,262.0,4.0,245.0,1634.01
1634020.0,212.0,261.0,4.0,239.0,1634.02
1634030.0,214.0,257.0,4.0,238.0,1634.03
1634040.0,208.0,255.0,4.0,236.0,1634.04
1634050.0,213.0,264.0,4.0,243.0,1634.05
1634060.0,218.0,265.0,3.0,245.0,1634.06
1634070.0,212.0,263.0,4.0,239.0,1634.07
1634080.0,212.0,259.0,4.0,237.0,1634.08
1634091.0,209.0,260.0,5.0,238.0,1634.091
1634101.0,216.0,270.0,4.0,246.0,1634.101
1634111.0,217.0,261.0,4.0,243.0,1634.111
1634121.0,209.0,263.0,3.0,239.0,1634.121
1634131.0,211.0,263.0,3.0,239.0,1634.131
1634141.0,211.0,263.0,3.0,241.0,1634.141
1634151.0,217.0,274.0,5.0,247.0,1634.151
1634161.0,218.0,265.0,4.0,243.0,1634.161
1634171.0,208.0,266.0,4.0,237.0,1634.171
1634181.0,213.0,267.0,4.0,241.0,1634.181
1634191.0,212.0,271.0,3.0,245.0,1634.191
1634201.0,216.0,277.0,3.0,247.0,1634.201
1634211.0,216.0,268.0,4.0,244.0,1634.211
1634221.0,210.0,267.0,3.0,241.0,1634.221
1634231.0,212.0,267.0,3.0,240.0,1634.231
1634241.0,212.0,265.0,4.0,242.0,1634.241
1634251.0,216.0,272.0,3.0,246.0,1634.251
1634262.0,216.0,264.0,3.0,242.0,1634.262
1634272.0,207.0,260.0,3.0,235.0,1634.272
1634282.0,212.0,264.0,4.0,238.0,1634.282
1634292.0,218.0,267.0,2.0,246.0,1634.292
1634302.0,213.0,265.0,3.0,241.0,1634.302
1634312.0,215.0,263.0,3.0,242.0,1634.312
1634322.0,208.0,257.0,4.0,234.0,1634.322
1634332.0,212.0,262.0,4.0,240.0,1634.332
1634342.0,218.0,266.0,4.0,246.0,1634.342
1634352.0,216.0,268.0,4.0,245.0,1634.352
1634362.0,214.0,261.0,3.0,242.0,1634.362
1634372.0,206.0,256.0,4.0,234.0,1634.372
1634382.0,211.0,263.0,3.0,242.0,1634.382
1634392.0,215.0,263.0,4.0,244.0,1634.392
1634402.0,214.0,265.0,4.0,243.0,1634.402
1634412.0,215.0,258.0,3.0,239.0,1634.412
1634422.0,206.0,252.0,4.0,232.0,1634.422
1634432.0,210.0,256.0,4.0,238.0,1634.432
1634442.0,215.0,261.0,3.0,244.0,1634.442
1634452.0,213.0,260.0,3.0,240.0,1634.452
1634462.0,213.0,255.0,3.0,238.0,1634.462
1634472.0,206.0,251.0,5.0,230.0,1634.472
1634482.0,211.0,256.0,4.0,237.0,1634.482
1634492.0,217.0,262.0,4.0,243.0,1634.492
1634502.0,214.0,261.0,3.0,241.0,1634.502
1634512.0,213.0,257.0,3.0,238.0,1634.512
1634522.0,207.0,253.0,4.0,233.0,1634.522
1634532.0,212.0,258.0,4.0,238.0,1634.532
1634542.0,218.0,262.0,4.0,246.0,1634.542
1634552.0,213.0,261.0,4.0,242.0,1634.552
1634562.0,215.0,259.0,4.0,241.0,1634.562
1634572.0,207.0,253.0,4.0,234.0,1634.572
1634582.0,211.0,259.0,4.0,240.0,1634.582
1634592.0,217.0,264.0,3.0,246.0,1634.592
1634603.0,213.0,258.0,5.0,241.0,1634.603
1634613.0,213.0,257.0,5.0,240.0,1634.613
1634623.0,207.0,254.0,3.0,236.0,1634.623
1634633.0,214.0,265.0,3.0,245.0,1634.633
1634643.0,217.0,260.0,5.0,242.0,1634.643
1634653.0,212.0,258.0,3.0,238.0,1634.653
1634663.0,212.0,258.0,4.0,238.0,1634.663
1634673.0,208.0,253.0,4.0,235.0,1634.673
1634683.0,215.0,261.0,4.0,242.0,1634.683
1634693.0,218.0,261.0,4.0,242.0,1634.693
1634703.0,211.0,256.0,3.0,237.0,1634.703
1634713.0,212.0,256.0,4.0,236.0,1634.713
1634723.0,209.0,255.0,4.0,235.0,1634.723
1634733.0,212.0,260.0,3.0,240.0,1634.733
1634743.0,218.0,262.0,4.0,242.0,1634.743
1634753.0,210.0,253.0,4.0,236.0,1634.753
1634763.0,211.0,254.0,3.0,238.0,1634.763
1634774.0,210.0,253.0,4.0,238.0,1634.774
1634784.0,215.0,260.0,3.0,243.0,1634.784
1634794.0,217.0,255.0,5.0,240.0,1634.794
1634804.0,208.0,251.0,4.0,233.0,1634.804
1634814.0,211.0,255.0,4.0,235.0,1634.814
1634824.0,212.0,256.0,3.0,239.0,1634.824
1634834.0,215.0,263.0,3.0,242.0,1634.834
1634844.0,215.0,256.0,4.0,240.0,1634.844
1634854.0,207.0,254.0,4.0,232.0,1634.854
1634864.0,211.0,256.0,4.0,238.0,1634.864
1634874.0,211.0,259.0,4.0,242.0,1634.874
1634884.0,214.0,265.0,4.0,244.0,1634.884
1634894.0,215.0,258.0,3.0,240.0,1634.894
1634904.0,208.0,260.0,4.0,235.0,1634.904
1634914.0,210.0,259.0,4.0,238.0,1634.914
1634924.0,213.0,262.0,4.0,242.0,1634.924
1634934.0,214.0,265.0,4.0,241.0,1634.934
1634944.0,217.0,261.0,4.0,240.0,1634.944
1634954.0,208.0,257.0,3.0,235.0,1634.954
1634964.0,211.0,259.0,3.0,235.0,1634.964
1634974.0,215.0,263.0,4.0,241.0,1634.974
1634984.0,215.0,265.0,4.0,241.0,1634.984
1634994.0,217.0,260.0,4.0,240.0,1634.994
1635004.0,208.0,254.0,3.0,233.0,1635.004
1635014.0,211.0,257.0,4.0,237.0,1635.014
1635024.0,215.0,263.0,3.0,242.0,1635.024
1635034.0,216.0,263.0,4.0,242.0,1635.034
1635044.0,216.0,259.0,4.0,240.0,1635.044
1635054.0,209.0,252.0,5.0,233.0,1635.054
1635064.0,210.0,256.0,3.0,238.0,1635.064
1635074.0,212.0,257.0,4.0,240.0,1635.074
1635084.0,215.0,262.0,3.0,243.0,1635.084
1635094.0,215.0,257.0,4.0,240.0,1635.094
1635104.0,207.0,251.0,3.0,232.0,1635.104
1635115.0,211.0,256.0,4.0,238.0,1635.115
1635125.0,217.0,262.0,4.0,244.0,1635.125
1635135.0,214.0,261.0,4.0,239.0,1635.135
1635145.0,214.0,259.0,4.0,239.0,1635.145
1635155.0,207.0,252.0,3.0,232.0,1635.155
1635165.0,212.0,258.0,4.0,238.0,1635.165
1635175.0,217.0,262.0,5.0,243.0,1635.175
1635185.0,213.0,256.0,4.0,238.0,1635.185
1635195.0,212.0,254.0,4.0,238.0,1635.195
1635205.0,207.0,248.0,3.0,231.0,1635.205
1635215.0,211.0,256.0,3.0,239.0,1635.215
1635225.0,217.0,260.0,4.0,243.0,1635.225
1635235.0,212.0,253.0,4.0,238.0,1635.235
1635245.0,213.0,254.0,5.0,237.0,1635.245
1635255.0,206.0,248.0,4.0,231.0,1635.255
1635265.0,212.0,256.0,4.0,239.0,1635.265
1635275.0,218.0,262.0,3.0,243.0,1635.275
1635286.0,212.0,254.0,4.0,236.0,1635.286
1635296.0,213.0,254.0,3.0,236.0,1635.296
1635306.0,210.0,253.0,5.0,234.0,1635.306
1635316.0,216.0,260.0,2.0,241.0,1635.316
1635326.0,218.0,257.0,4.0,240.0,1635.326
1635336.0,212.0,256.0,3.0,237.0,1635.336
1635346.0,214.0,257.0,3.0,236.0,1635.346
1635356.0,213.0,256.0,3.0,236.0,1635.356
1635366.0,218.0,264.0,4.0,240.0,1635.366
1635376.0,221.0,261.0,4.0,241.0,1635.376
1635386.0,212.0,257.0,4.0,235.0,1635.386
1635396.0,214.0,257.0,4.0,235.0,1635.396
1635406.0,214.0,258.0,3.0,238.0,1635.406
1635416.0,217.0,261.0,4.0,241.0,1635.416
1635426.0,219.0,260.0,4.0,241.0,1635.426
1635436.0,212.0,256.0,4.0,235.0,1635.436
1635446.0,214.0,257.0,3.0,236.0,1635.446
1635456.0,209.0,254.0,3.0,233.0,1635.456
1635466.0,217.0,266.0,3.0,243.0,1635.466
1635476.0,218.0,261.0,4.0,242.0,1635.476
1635486.0,211.0,257.0,3.0,234.0,1635.486
1635496.0,213.0,259.0,5.0,235.0,1635.496
1635506.0,211.0,257.0,4.0,235.0,1635.506
1635516.0,217.0,266.0,4.0,242.0,1635.516
1635526.0,220.0,260.0,4.0,241.0,1635.526
1635536.0,211.0,259.0,3.0,234.0,1635.536
1635546.0,214.0,260.0,4.0,236.0,1635.546
1635556.0,211.0,260.0,4.0,236.0,1635.556
1635566.0,218.0,269.0,5.0,242.0,1635.566
1635576.0,218.0,262.0,2.0,239.0,1635.576
1635586.0,212.0,261.0,4.0,234.0,1635.586
1635596.0,213.0,261.0,4.0,236.0,1635.596
1635606.0,212.0,262.0,4.0,237.0,1635.606
1635616.0,217.0,270.0,3.0,242.0,1635.616
1635627.0,218.0,262.0,4.0,240.0,1635.627
1635637.0,210.0,259.0,4.0,232.0,1635.637
1635647.0,212.0,261.0,4.0,235.0,1635.647
1635657.0,218.0,266.0,3.0,245.0,1635.657
1635667.0,217.0,265.0,3.0,241.0,1635.667
1635677.0,217.0,260.0,4.0,241.0,1635.677
1635687.0,209.0,256.0,4.0,234.0,1635.687
1635697.0,213.0,260.0,4.0,238.0,1635.697
1635707.0,218.0,265.0,4.0,244.0,1635.707
1635717.0,217.0,266.0,3.0,243.0,1635.717
1635727.0,216.0,260.0,3.0,239.0,1635.727
1635737.0,209.0,254.0,4.0,232.0,1635.737
1635747.0,212.0,260.0,4.0,239.0,1635.747
1635757.0,216.0,261.0,5.0,242.0,1635.757
1635767.0,216.0,264.0,4.0,243.0,1635.767
1635777.0,215.0,258.0,3.0,240.0,1635.777
1635787.0,207.0,254.0,4.0,231.0,1635.787
1635798.0,213.0,260.0,3.0,239.0,1635.798
1635808.0,218.0,264.0,3.0,244.0,1635.808
1635818.0,215.0,260.0,5.0,238.0,1635.818
1635828.0,214.0,259.0,2.0,237.0,1635.828
1635838.0,209.0,253.0,4.0,233.0,1635.838
1635848.0,214.0,260.0,4.0,239.0,1635.848
1635858.0,219.0,264.0,3.0,243.0,1635.858
1635868.0,213.0,259.0,3.0,236.0,1635.868
1635878.0,213.0,257.0,4.0,235.0,1635.878
1635888.0,208.0,251.0,4.0,229.0,1635.888
1635898.0,215.0,261.0,4.0,239.0,1635.898
1635908.0,220.0,261.0,4.0,242.0,1635.908
1635918.0,214.0,258.0,3.0,235.0,1635.918
1635928.0,216.0,256.0,4.0,236.0,1635.928
1635938.0,208.0,249.0,4.0,230.0,1635.938
1635948.0,215.0,258.0,4.0,240.0,1635.948
1635958.0,219.0,259.0,4.0,242.0,1635.958
1635968.0,215.0,252.0,4.0,238.0,1635.968
1635978.0,214.0,257.0,3.0,239.0,1635.978
1635988.0,208.0,246.0,3.0,232.0,1635.988
1635998.0,215.0,255.0,4.0,241.0,1635.998
1636008.0,219.0,256.0,4.0,243.0,1636.008
1636018.0,214.0,252.0,4.0,240.0,1636.018
1636028.0,214.0,253.0,4.0,239.0,1636.028
1636038.0,209.0,249.0,4.0,235.0,1636.038
1636048.0,216.0,260.0,3.0,243.0,1636.048
1636058.0,220.0,263.0,4.0,244.0,1636.058
1636068.0,214.0,255.0,4.0,238.0,1636.068
1636078.0,216.0,258.0,4.0,239.0,1636.078
1636088.0,210.0,254.0,4.0,236.0,1636.088
1636098.0,215.0,259.0,4.0,240.0,1636.098
1636108.0,221.0,262.0,4.0,244.0,1636.108
1636118.0,215.0,257.0,4.0,237.0,1636.118
1636128.0,215.0,256.0,3.0,238.0,1636.128
1636139.0,212.0,256.0,5.0,238.0,1636.139
1636149.0,219.0,264.0,4.0,243.0,1636.149
1636159.0,220.0,257.0,4.0,241.0,1636.159
1636169.0,211.0,256.0,3.0,236.0,1636.169
1636179.0,213.0,257.0,4.0,236.0,1636.179
1636189.0,213.0,256.0,4.0,238.0,1636.189
1636199.0,218.0,266.0,4.0,242.0,1636.199
1636209.0,219.0,259.0,4.0,240.0,1636.209
1636219.0,211.0,258.0,4.0,232.0,1636.219
1636229.0,215.0,262.0,4.0,235.0,1636.229
1636239.0,215.0,266.0,3.0,238.0,1636.239
1636249.0,218.0,271.0,3.0,242.0,1636.249
1636259.0,217.0,266.0,3.0,240.0,1636.259
1636269.0,214.0,263.0,4.0,234.0,1636.269
1636279.0,214.0,262.0,2.0,235.0,1636.279
1636289.0,214.0,263.0,4.0,237.0,1636.289
1636299.0,217.0,269.0,3.0,240.0,1636.299
1636310.0,216.0,262.0,4.0,238.0,1636.31
1636320.0,209.0,258.0,4.0,230.0,1636.32
1636330.0,213.0,262.0,5.0,235.0,1636.33
1636340.0,218.0,265.0,4.0,241.0,1636.34
1636350.0,215.0,263.0,3.0,234.0,1636.35
1636360.0,216.0,260.0,3.0,235.0,1636.36
1636370.0,209.0,254.0,3.0,228.0,1636.37
1636380.0,213.0,260.0,4.0,234.0,1636.38
1636390.0,219.0,265.0,4.0,241.0,1636.39
1636400.0,218.0,265.0,5.0,239.0,1636.4
1636410.0,216.0,261.0,4.0,237.0,1636.41
1636420.0,209.0,256.0,4.0,228.0,1636.42
1636430.0,214.0,265.0,3.0,237.0,1636.43
1636440.0,218.0,266.0,4.0,240.0,1636.44
1636450.0,216.0,265.0,4.0,237.0,1636.45
1636460.0,217.0,259.0,4.0,235.0,1636.46
1636470.0,208.0,253.0,2.0,228.0,1636.47
1636480.0,212.0,257.0,3.0,232.0,1636.48
1636490.0,217.0,263.0,4.0,239.0,1636.49
1636500.0,215.0,258.0,4.0,235.0,1636.5
1636510.0,215.0,258.0,4.0,235.0,1636.51
1636520.0,207.0,250.0,4.0,227.0,1636.52
1636530.0,212.0,256.0,3.0,234.0,1636.53
1636540.0,217.0,263.0,3.0,240.0,1636.54
1636550.0,214.0,259.0,4.0,237.0,1636.55
1636560.0,213.0,259.0,3.0,234.0,1636.56
1636570.0,208.0,251.0,4.0,226.0,1636.57
1636580.0,212.0,258.0,4.0,234.0,1636.58
1636590.0,219.0,262.0,4.0,240.0,1636.59
1636600.0,215.0,257.0,4.0,236.0,1636.6
1636610.0,216.0,256.0,3.0,237.0,1636.61
1636620.0,209.0,250.0,3.0,229.0,1636.62
1636630.0,213.0,257.0,3.0,236.0,1636.63
1636640.0,219.0,263.0,4.0,241.0,1636.64
1636651.0,216.0,256.0,5.0,235.0,1636.651
1636661.0,215.0,257.0,3.0,235.0,1636.661
1636671.0,210.0,253.0,4.0,233.0,1636.671
1636681.0,217.0,263.0,3.0,242.0,1636.681
1636691.0,219.0,258.0,3.0,241.0,1636.691
1636701.0,214.0,257.0,4.0,236.0,1636.701
1636711.0,215.0,257.0,4.0,236.0,1636.711
1636721.0,211.0,257.0,4.0,235.0,1636.721
1636731.0,217.0,269.0,3.0,241.0,1636.731
1636741.0,219.0,266.0,4.0,242.0,1636.741
1636751.0,212.0,264.0,3.0,236.0,1636.751
1636761.0,214.0,261.0,4.0,236.0,1636.761
1636771.0,212.0,261.0,4.0,235.0,1636.771
1636781.0,217.0,267.0,4.0,240.0,1636.781
1636791.0,220.0,266.0,4.0,242.0,1636.791
1636801.0,213.0,261.0,4.0,235.0,1636.801
1636811.0,214.0,260.0,4.0,236.0,1636.811
1636822.0,214.0,260.0,3.0,238.0,1636.822
1636832.0,219.0,267.0,3.0,241.0,1636.832
1636842.0,219.0,263.0,5.0,239.0,1636.842
1636852.0,210.0,257.0,3.0,232.0,1636.852
1636862.0,212.0,259.0,4.0,235.0,1636.862
1636872.0,214.0,261.0,4.0,239.0,1636.872
1636882.0,218.0,268.0,3.0,240.0,1636.882
1636892.0,218.0,260.0,4.0,238.0,1636.892
1636902.0,210.0,257.0,3.0,232.0,1636.902
1636912.0,214.0,259.0,4.0,235.0,1636.912
1636922.0,215.0,261.0,4.0,240.0,1636.922
1636932.0,218.0,264.0,4.0,241.0,1636.932
1636942.0,216.0,258.0,3.0,238.0,1636.942
1636952.0,211.0,258.0,3.0,234.0,1636.952
1636962.0,213.0,259.0,4.0,236.0,1636.962
1636972.0,217.0,264.0,5.0,241.0,1636.972
1636982.0,218.0,267.0,4.0,241.0,1636.982
1636992.0,219.0,262.0,3.0,240.0,1636.992
1637002.0,211.0,260.0,3.0,234.0,1637.002
1637012.0,214.0,261.0,4.0,235.0,1637.012
1637022.0,217.0,263.0,4.0,241.0,1637.022
1637032.0,217.0,266.0,5.0,240.0,1637.032
1637042.0,218.0,261.0,4.0,240.0,1637.042
1637052.0,210.0,257.0,4.0,233.0,1637.052
1637062.0,213.0,259.0,4.0,237.0,1637.062
1637072.0,218.0,265.0,3.0,243.0,1637.072
1637082.0,218.0,264.0,3.0,243.0,1637.082
1637092.0,217.0,260.0,3.0,240.0,1637.092
1637102.0,211.0,252.0,4.0,234.0,1637.102
1637112.0,212.0,256.0,4.0,238.0,1637.112
1637122.0,214.0,258.0,4.0,241.0,1637.122
1637132.0,218.0,262.0,3.0,244.0,1637.132
1637142.0,217.0,257.0,3.0,240.0,1637.142
1637152.0,209.0,249.0,4.0,232.0,1637.152
1637163.0,213.0,254.0,3.0,239.0,1637.163
1637173.0,218.0,259.0,4.0,245.0,1637.173
1637183.0,216.0,254.0,3.0,240.0,1637.183
1637193.0,214.0,254.0,4.0,239.0,1637.193
1637203.0,208.0,246.0,3.0,233.0,1637.203
1637213.0,213.0,252.0,4.0,238.0,1637.213
1637223.0,219.0,260.0,4.0,243.0,1637.223
1637233.0,216.0,255.0,4.0,238.0,1637.233
1637243.0,215.0,254.0,4.0,237.0,1637.243
1637253.0,210.0,248.0,4.0,230.0,1637.253
1637263.0,215.0,257.0,3.0,240.0,1637.263
1637273.0,220.0,261.0,3.0,244.0,1637.273
1637283.0,215.0,256.0,3.0,238.0,1637.283
1637293.0,218.0,256.0,5.0,239.0,1637.293
1637303.0,209.0,248.0,4.0,232.0,1637.303
1637313.0,215.0,257.0,4.0,240.0,1637.313
1637323.0,221.0,261.0,3.0,245.0,1637.323
1637334.0,215.0,255.0,3.0,236.0,1637.334
1637344.0,215.0,256.0,3.0,237.0,1637.344
1637354.0,213.0,254.0,5.0,235.0,1637.354
1637364.0,218.0,261.0,4.0,240.0,1637.364
1637374.0,219.0,256.0,3.0,239.0,1637.374
1637384.0,214.0,258.0,4.0,235.0,1637.384
1637394.0,214.0,258.0,3.0,234.0,1637.394
1637404.0,214.0,259.0,4.0,235.0,1637.404
1637414.0,219.0,266.0,4.0,239.0,1637.414
1637424.0,221.0,263.0,4.0,240.0,1637.424
1637434.0,214.0,259.0,2.0,232.0,1637.434
1637444.0,215.0,258.0,3.0,233.0,1637.444
1637454.0,215.0,259.0,3.0,237.0,1637.454
1637464.0,219.0,266.0,3.0,242.0,1637.464
1637474.0,220.0,262.0,3.0,242.0,1637.474
1637484.0,215.0,259.0,4.0,234.0,1637.484
1637494.0,215.0,260.0,4.0,236.0,1637.494
1637504.0,211.0,255.0,4.0,234.0,1637.504
1637514.0,218.0,268.0,3.0,244.0,1637.514
1637524.0,220.0,264.0,4.0,243.0,1637.524
1637534.0,213.0,258.0,3.0,235.0,1637.534
1637544.0,213.0,259.0,5.0,236.0,1637.544
1637554.0,211.0,256.0,3.0,237.0,1637.554
1637564.0,218.0,266.0,4.0,243.0,1637.564
1637574.0,220.0,261.0,4.0,242.0,1637.574
1637584.0,213.0,257.0,3.0,234.0,1637.584
1637594.0,215.0,259.0,3.0,237.0,1637.594
1637604.0,213.0,258.0,4.0,236.0,1637.604
1637614.0,220.0,267.0,5.0,242.0,1637.614
1637624.0,220.0,262.0,4.0,242.0,1637.624
1637634.0,215.0,260.0,4.0,237.0,1637.634
1637644.0,215.0,261.0,3.0,239.0,1637.644
1637654.0,215.0,259.0,3.0,239.0,1637.654
1637664.0,219.0,265.0,3.0,243.0,1637.664
1637675.0,219.0,259.0,3.0,241.0,1637.675
1637685.0,211.0,255.0,4.0,234.0,1637.685
1637695.0,214.0,257.0,4.0,236.0,1637.695
1637705.0,219.0,266.0,3.0,244.0,1637.705
1637715.0,218.0,265.0,4.0,239.0,1637.715
1637725.0,218.0,262.0,3.0,238.0,1637.725
1637735.0,211.0,257.0,4.0,229.0,1637.735
