time (ms),signal 0,signal 1,signal 2,signal 3,time (sec)
1723747.0,204.0,243.0,220.0,229.0,1723.747
1723757.0,208.0,251.0,222.0,236.0,1723.757
1723767.0,214.0,254.0,226.0,242.0,1723.767
1723777.0,211.0,253.0,227.0,240.0,1723.777
1723787.0,211.0,249.0,219.0,235.0,1723.787
1723797.0,203.0,242.0,218.0,229.0,1723.797
1723807.0,208.0,250.0,220.0,236.0,1723.807
1723817.0,214.0,253.0,223.0,241.0,1723.817
1723827.0,210.0,252.0,225.0,238.0,1723.827
1723837.0,210.0,250.0,217.0,235.0,1723.837
1723847.0,203.0,244.0,217.0,228.0,1723.847
1723857.0,209.0,252.0,221.0,237.0,1723.857
1723867.0,212.0,254.0,225.0,240.0,1723.867
1723877.0,210.0,255.0,226.0,240.0,1723.877
1723887.0,210.0,252.0,219.0,237.0,1723.887
1723897.0,203.0,241.0,217.0,230.0,1723.897
1723907.0,207.0,249.0,219.0,236.0,1723.907
1723917.0,214.0,254.0,227.0,242.0,1723.917
1723927.0,210.0,254.0,227.0,239.0,1723.927
1723937.0,211.0,252.0,220.0,237.0,1723.937
1723947.0,205.0,248.0,220.0,233.0,1723.947
1723957.0,209.0,252.0,222.0,238.0,1723.957
1723967.0,215.0,259.0,227.0,244.0,1723.967
1723977.0,212.0,253.0,228.0,240.0,1723.977
1723987.0,211.0,254.0,220.0,238.0,1723.987
1723997.0,206.0,246.0,221.0,233.0,1723.997
1724007.0,210.0,253.0,224.0,241.0,1724.007
1724017.0,217.0,257.0,228.0,246.0,1724.017
1724027.0,212.0,254.0,228.0,240.0,1724.027
1724037.0,213.0,253.0,221.0,240.0,1724.037
1724047.0,206.0,248.0,220.0,233.0,1724.047
1724057.0,212.0,257.0,226.0,243.0,1724.057
1724067.0,217.0,257.0,227.0,246.0,1724.067
1724077.0,213.0,259.0,230.0,244.0,1724.077
1724087.0,213.0,252.0,222.0,241.0,1724.087
1724097.0,205.0,248.0,219.0,235.0,1724.097
1724107.0,215.0,259.0,228.0,246.0,1724.107
1724118.0,217.0,259.0,228.0,247.0,1724.118
1724128.0,211.0,257.0,226.0,241.0,1724.128
1724138.0,211.0,257.0,220.0,240.0,1724.138
1724148.0,210.0,253.0,224.0,242.0,1724.148
1724158.0,216.0,263.0,231.0,249.0,1724.158
1724168.0,218.0,261.0,229.0,246.0,1724.168
1724178.0,211.0,256.0,227.0,242.0,1724.178
1724188.0,212.0,256.0,221.0,241.0,1724.188
1724198.0,211.0,255.0,224.0,244.0,1724.198
1724208.0,215.0,261.0,230.0,248.0,1724.208
1724218.0,218.0,263.0,226.0,248.0,1724.218
1724228.0,210.0,253.0,223.0,241.0,1724.228
1724238.0,212.0,254.0,220.0,241.0,1724.238
1724248.0,207.0,249.0,218.0,240.0,1724.248
1724258.0,216.0,259.0,229.0,249.0,1724.258
1724268.0,218.0,258.0,225.0,248.0,1724.268
1724278.0,210.0,250.0,221.0,240.0,1724.278
1724288.0,213.0,254.0,219.0,242.0,1724.288
1724298.0,209.0,250.0,219.0,239.0,1724.298
1724308.0,215.0,260.0,226.0,247.0,1724.308
1724318.0,220.0,260.0,224.0,247.0,1724.318
1724328.0,210.0,253.0,221.0,240.0,1724.328
1724338.0,214.0,256.0,218.0,242.0,1724.338
1724348.0,211.0,252.0,218.0,241.0,1724.348
1724358.0,217.0,262.0,225.0,246.0,1724.358
1724368.0,220.0,260.0,220.0,245.0,1724.368
1724378.0,212.0,256.0,219.0,240.0,1724.378
1724388.0,213.0,256.0,216.0,241.0,1724.388
1724398.0,212.0,253.0,217.0,242.0,1724.398
1724408.0,216.0,261.0,223.0,246.0,1724.408
1724418.0,219.0,261.0,221.0,247.0,1724.418
1724428.0,212.0,255.0,220.0,241.0,1724.428
1724438.0,213.0,256.0,215.0,241.0,1724.438
1724448.0,212.0,255.0,219.0,244.0,1724.448
1724459.0,215.0,261.0,224.0,249.0,1724.459
1724469.0,217.0,257.0,218.0,245.0,1724.469
1724479.0,207.0,250.0,215.0,241.0,1724.479
1724489.0,210.0,255.0,216.0,245.0,1724.489
1724499.0,216.0,260.0,222.0,252.0,1724.499
1724509.0,214.0,262.0,223.0,250.0,1724.509
1724519.0,216.0,259.0,217.0,247.0,1724.519
1724529.0,207.0,252.0,212.0,240.0,1724.529
1724539.0,211.0,257.0,216.0,245.0,1724.539
1724549.0,212.0,256.0,219.0,248.0,1724.549
1724559.0,214.0,260.0,221.0,249.0,1724.559
1724569.0,215.0,255.0,215.0,245.0,1724.569
1724579.0,206.0,251.0,211.0,237.0,1724.579
1724589.0,211.0,256.0,213.0,242.0,1724.589
1724599.0,215.0,258.0,219.0,247.0,1724.599
1724609.0,215.0,261.0,220.0,247.0,1724.609
1724619.0,215.0,256.0,215.0,243.0,1724.619
1724630.0,207.0,249.0,209.0,236.0,1724.63
1724640.0,213.0,256.0,215.0,243.0,1724.64
1724650.0,219.0,262.0,221.0,249.0,1724.65
1724660.0,213.0,256.0,219.0,243.0,1724.66
1724670.0,214.0,256.0,214.0,242.0,1724.67
1724680.0,207.0,250.0,211.0,236.0,1724.68
1724690.0,213.0,258.0,218.0,245.0,1724.69
1724700.0,219.0,261.0,221.0,249.0,1724.7
1724710.0,212.0,256.0,218.0,245.0,1724.71
1724720.0,215.0,256.0,215.0,245.0,1724.72
1724730.0,206.0,249.0,212.0,238.0,1724.73
1724740.0,213.0,259.0,220.0,247.0,1724.74
1724750.0,219.0,259.0,221.0,250.0,1724.75
1724760.0,213.0,257.0,220.0,247.0,1724.76
1724770.0,214.0,254.0,214.0,243.0,1724.77
1724780.0,206.0,249.0,211.0,238.0,1724.78
1724790.0,214.0,259.0,220.0,246.0,1724.79
1724800.0,217.0,260.0,222.0,249.0,1724.8
1724810.0,214.0,257.0,221.0,243.0,1724.81
1724820.0,214.0,255.0,214.0,241.0,1724.82
1724830.0,206.0,249.0,212.0,238.0,1724.83
1724840.0,212.0,259.0,221.0,248.0,1724.84
1724850.0,215.0,258.0,222.0,248.0,1724.85
1724860.0,210.0,254.0,219.0,242.0,1724.86
1724870.0,209.0,252.0,214.0,240.0,1724.87
1724880.0,205.0,247.0,212.0,237.0,1724.88
1724890.0,209.0,255.0,216.0,244.0,1724.89
1724900.0,215.0,257.0,221.0,249.0,1724.9
1724910.0,210.0,254.0,219.0,243.0,1724.91
1724920.0,213.0,254.0,214.0,241.0,1724.92
1724930.0,205.0,248.0,210.0,235.0,1724.93
1724940.0,214.0,257.0,220.0,245.0,1724.94
1724950.0,219.0,261.0,222.0,248.0,1724.95
1724960.0,213.0,255.0,219.0,243.0,1724.96
1724971.0,215.0,258.0,215.0,245.0,1724.971
1724981.0,211.0,252.0,214.0,242.0,1724.981
1724991.0,217.0,258.0,221.0,247.0,1724.991
1725001.0,219.0,258.0,217.0,243.0,1725.001
1725011.0,209.0,251.0,212.0,237.0,1725.011
1725021.0,213.0,255.0,212.0,240.0,1725.021
1725031.0,211.0,252.0,214.0,241.0,1725.031
1725041.0,217.0,262.0,222.0,248.0,1725.041
1725051.0,221.0,262.0,218.0,246.0,1725.051
1725061.0,214.0,256.0,217.0,243.0,1725.061
1725071.0,216.0,257.0,215.0,241.0,1725.071
1725081.0,215.0,254.0,215.0,241.0,1725.081
1725091.0,218.0,258.0,219.0,245.0,1725.091
1725101.0,224.0,262.0,219.0,249.0,1725.101
1725111.0,213.0,252.0,212.0,241.0,1725.111
1725121.0,217.0,257.0,211.0,244.0,1725.121
1725131.0,216.0,256.0,219.0,248.0,1725.131
1725142.0,214.0,261.0,227.0,255.0,1725.142
1725152.0,215.0,261.0,224.0,256.0,1725.152
1725162.0,226.0,275.0,226.0,255.0,1725.162
1725172.0,227.0,280.0,231.0,266.0,1725.172
1725182.0,236.0,287.0,235.0,271.0,1725.182
1725192.0,235.0,290.0,238.0,281.0,1725.192
1725202.0,225.0,282.0,231.0,275.0,1725.202
1725212.0,225.0,288.0,237.0,277.0,1725.212
1725222.0,227.0,291.0,228.0,273.0,1725.222
1725232.0,230.0,289.0,226.0,267.0,1725.232
1725242.0,232.0,289.0,229.0,265.0,1725.242
1725252.0,233.0,291.0,228.0,265.0,1725.252
1725262.0,239.0,303.0,227.0,258.0,1725.262
1725272.0,258.0,324.0,235.0,268.0,1725.272
1725282.0,268.0,323.0,248.0,277.0,1725.282
1725292.0,258.0,307.0,237.0,271.0,1725.292
1725302.0,259.0,305.0,235.0,269.0,1725.302
1725312.0,258.0,310.0,230.0,263.0,1725.312
1725322.0,257.0,312.0,225.0,247.0,1725.322
1725332.0,257.0,308.0,227.0,246.0,1725.332
1725342.0,245.0,289.0,213.0,237.0,1725.342
1725352.0,243.0,294.0,210.0,247.0,1725.352
1725362.0,235.0,285.0,206.0,241.0,1725.362
1725372.0,236.0,289.0,210.0,244.0,1725.372
1725382.0,240.0,290.0,215.0,253.0,1725.382
1725392.0,239.0,287.0,212.0,252.0,1725.392
1725402.0,244.0,303.0,221.0,261.0,1725.402
1725412.0,238.0,292.0,212.0,256.0,1725.412
1725422.0,248.0,308.0,226.0,274.0,1725.422
1725432.0,258.0,312.0,234.0,271.0,1725.432
1725442.0,253.0,310.0,229.0,273.0,1725.442
1725452.0,250.0,308.0,229.0,275.0,1725.452
1725462.0,239.0,285.0,214.0,260.0,1725.462
1725472.0,246.0,291.0,221.0,269.0,1725.472
1725483.0,249.0,298.0,228.0,269.0,1725.483
1725493.0,241.0,286.0,217.0,259.0,1725.493
1725503.0,241.0,279.0,215.0,263.0,1725.503
1725513.0,234.0,268.0,217.0,282.0,1725.513
1725523.0,249.0,290.0,231.0,292.0,1725.523
1725533.0,249.0,297.0,230.0,292.0,1725.533
1725543.0,238.0,283.0,222.0,284.0,1725.543
1725553.0,240.0,288.0,219.0,273.0,1725.553
1725563.0,242.0,291.0,222.0,275.0,1725.563
1725573.0,243.0,292.0,220.0,268.0,1725.573
1725583.0,245.0,291.0,221.0,257.0,1725.583
1725593.0,234.0,278.0,210.0,242.0,1725.593
1725603.0,236.0,283.0,217.0,249.0,1725.603
1725613.0,228.0,268.0,208.0,243.0,1725.613
1725623.0,233.0,276.0,212.0,249.0,1725.623
1725633.0,236.0,276.0,214.0,250.0,1725.633
1725643.0,223.0,257.0,205.0,239.0,1725.643
1725654.0,224.0,253.0,203.0,241.0,1725.654
1725664.0,224.0,253.0,210.0,261.0,1725.664
1725674.0,230.0,263.0,215.0,264.0,1725.674
1725684.0,233.0,261.0,213.0,261.0,1725.684
1725694.0,222.0,249.0,208.0,262.0,1725.694
1725704.0,222.0,252.0,211.0,274.0,1725.704
1725714.0,227.0,254.0,221.0,299.0,1725.714
1725724.0,236.0,277.0,232.0,303.0,1725.724
1725734.0,241.0,283.0,227.0,303.0,1725.734
1725744.0,232.0,273.0,221.0,290.0,1725.744
1725754.0,235.0,274.0,215.0,273.0,1725.754
1725764.0,235.0,273.0,219.0,275.0,1725.764
1725774.0,233.0,276.0,225.0,283.0,1725.774
1725784.0,236.0,277.0,224.0,297.0,1725.784
1725794.0,224.0,264.0,217.0,276.0,1725.794
1725804.0,228.0,268.0,213.0,268.0,1725.804
1725814.0,228.0,261.0,218.0,271.0,1725.814
1725824.0,230.0,266.0,222.0,282.0,1725.824
1725834.0,226.0,259.0,215.0,277.0,1725.834
1725844.0,231.0,265.0,217.0,270.0,1725.844
1725854.0,246.0,269.0,218.0,269.0,1725.854
1725864.0,241.0,261.0,221.0,264.0,1725.864
1725874.0,231.0,258.0,222.0,261.0,1725.874
1725884.0,252.0,263.0,218.0,257.0,1725.884
1725894.0,243.0,256.0,221.0,244.0,1725.894
1725904.0,247.0,253.0,223.0,247.0,1725.904
1725914.0,250.0,252.0,229.0,250.0,1725.914
1725924.0,256.0,269.0,242.0,258.0,1725.924
1725934.0,263.0,277.0,241.0,271.0,1725.934
1725944.0,254.0,265.0,243.0,256.0,1725.944
1725954.0,249.0,258.0,241.0,258.0,1725.954
1725964.0,255.0,256.0,248.0,268.0,1725.964
1725974.0,251.0,269.0,253.0,268.0,1725.974
1725984.0,256.0,268.0,243.0,265.0,1725.984
1725995.0,250.0,259.0,247.0,261.0,1725.995
1726005.0,249.0,258.0,243.0,267.0,1726.005
1726015.0,252.0,260.0,253.0,268.0,1726.015
1726025.0,247.0,264.0,262.0,260.0,1726.025
1726035.0,243.0,251.0,249.0,252.0,1726.035
1726045.0,231.0,247.0,246.0,237.0,1726.045
1726055.0,235.0,252.0,250.0,245.0,1726.055
1726065.0,242.0,254.0,250.0,257.0,1726.065
1726075.0,237.0,253.0,250.0,247.0,1726.075
1726085.0,236.0,246.0,241.0,249.0,1726.085
1726095.0,229.0,238.0,238.0,237.0,1726.095
1726105.0,242.0,250.0,248.0,253.0,1726.105
1726115.0,251.0,260.0,279.0,276.0,1726.115
1726125.0,244.0,265.0,273.0,270.0,1726.125
1726135.0,247.0,263.0,264.0,281.0,1726.135
1726145.0,237.0,254.0,253.0,269.0,1726.145
1726155.0,242.0,265.0,265.0,274.0,1726.155
1726166.0,250.0,271.0,271.0,280.0,1726.166
1726176.0,243.0,271.0,265.0,274.0,1726.176
1726186.0,250.0,274.0,262.0,281.0,1726.186
1726196.0,251.0,277.0,266.0,285.0,1726.196
1726206.0,256.0,288.0,276.0,297.0,1726.206
1726216.0,255.0,286.0,273.0,285.0,1726.216
1726226.0,245.0,278.0,253.0,268.0,1726.226
1726236.0,245.0,280.0,249.0,267.0,1726.236
1726246.0,243.0,276.0,245.0,267.0,1726.246
1726256.0,251.0,283.0,246.0,273.0,1726.256
1726266.0,253.0,279.0,252.0,268.0,1726.266
1726276.0,245.0,274.0,237.0,267.0,1726.276
1726286.0,247.0,275.0,233.0,260.0,1726.286
1726296.0,239.0,268.0,227.0,257.0,1726.296
1726306.0,250.0,279.0,231.0,269.0,1726.306
1726316.0,256.0,281.0,240.0,278.0,1726.316
1726326.0,244.0,273.0,221.0,270.0,1726.326
1726336.0,245.0,274.0,229.0,271.0,1726.336
1726346.0,243.0,277.0,222.0,267.0,1726.346
1726356.0,250.0,287.0,228.0,274.0,1726.356
1726366.0,250.0,284.0,235.0,273.0,1726.366
1726376.0,239.0,274.0,216.0,267.0,1726.376
1726386.0,239.0,275.0,225.0,266.0,1726.386
1726396.0,234.0,265.0,216.0,272.0,1726.396
1726406.0,241.0,276.0,224.0,279.0,1726.406
1726416.0,244.0,275.0,239.0,277.0,1726.416
1726426.0,236.0,271.0,220.0,280.0,1726.426
1726436.0,237.0,270.0,231.0,277.0,1726.436
1726446.0,235.0,266.0,226.0,276.0,1726.446
1726456.0,241.0,275.0,224.0,276.0,1726.456
1726466.0,243.0,271.0,234.0,271.0,1726.466
1726476.0,237.0,271.0,214.0,266.0,1726.476
1726486.0,242.0,274.0,224.0,259.0,1726.486
1726496.0,239.0,270.0,221.0,263.0,1726.496
1726507.0,246.0,281.0,223.0,269.0,1726.507
1726517.0,245.0,275.0,228.0,262.0,1726.517
1726527.0,236.0,267.0,208.0,259.0,1726.527
1726537.0,237.0,270.0,217.0,261.0,1726.537
1726547.0,244.0,272.0,225.0,268.0,1726.547
1726557.0,240.0,276.0,218.0,265.0,1726.557
1726567.0,240.0,273.0,231.0,260.0,1726.567
1726577.0,232.0,268.0,211.0,259.0,1726.577
1726587.0,234.0,271.0,221.0,263.0,1726.587
1726597.0,237.0,269.0,225.0,265.0,1726.597
1726607.0,241.0,275.0,220.0,267.0,1726.607
1726617.0,239.0,270.0,226.0,261.0,1726.617
1726627.0,233.0,261.0,208.0,261.0,1726.627
1726637.0,236.0,265.0,218.0,266.0,1726.637
1726647.0,241.0,267.0,229.0,272.0,1726.647
1726657.0,246.0,276.0,223.0,277.0,1726.657
1726667.0,241.0,271.0,230.0,272.0,1726.667
1726678.0,235.0,262.0,213.0,267.0,1726.678
1726688.0,238.0,270.0,220.0,274.0,1726.688
1726698.0,244.0,269.0,233.0,282.0,1726.698
1726708.0,240.0,273.0,217.0,274.0,1726.708
1726718.0,238.0,268.0,224.0,271.0,1726.718
1726728.0,234.0,267.0,208.0,264.0,1726.728
1726738.0,244.0,276.0,224.0,271.0,1726.738
1726748.0,246.0,273.0,233.0,271.0,1726.748
1726758.0,241.0,273.0,216.0,264.0,1726.758
1726768.0,242.0,272.0,227.0,266.0,1726.768
1726778.0,236.0,269.0,212.0,265.0,1726.778
1726788.0,242.0,279.0,224.0,276.0,1726.788
1726798.0,253.0,280.0,238.0,281.0,1726.798
1726808.0,248.0,281.0,222.0,273.0,1726.808
1726818.0,245.0,274.0,227.0,265.0,1726.818
1726828.0,237.0,267.0,212.0,260.0,1726.828
1726838.0,243.0,277.0,221.0,270.0,1726.838
1726848.0,248.0,274.0,234.0,281.0,1726.848
1726858.0,244.0,275.0,219.0,273.0,1726.858
1726868.0,242.0,271.0,228.0,266.0,1726.868
1726878.0,234.0,263.0,214.0,259.0,1726.878
1726888.0,243.0,274.0,224.0,266.0,1726.888
1726898.0,244.0,269.0,232.0,268.0,1726.898
1726908.0,239.0,270.0,216.0,262.0,1726.908
1726918.0,239.0,269.0,227.0,261.0,1726.918
1726928.0,236.0,264.0,217.0,256.0,1726.928
1726938.0,240.0,273.0,222.0,262.0,1726.938
1726948.0,247.0,273.0,235.0,265.0,1726.948
1726958.0,241.0,276.0,216.0,260.0,1726.958
1726968.0,240.0,272.0,227.0,256.0,1726.968
1726978.0,234.0,269.0,213.0,251.0,1726.978
1726988.0,239.0,277.0,224.0,259.0,1726.988
1726998.0,246.0,278.0,242.0,270.0,1726.998
1727008.0,238.0,279.0,221.0,260.0,1727.008
1727019.0,239.0,273.0,231.0,255.0,1727.019
1727029.0,234.0,269.0,224.0,254.0,1727.029
1727039.0,240.0,281.0,228.0,260.0,1727.039
1727049.0,243.0,276.0,239.0,253.0,1727.049
1727059.0,235.0,272.0,219.0,246.0,1727.059
1727069.0,237.0,274.0,232.0,251.0,1727.069
1727079.0,235.0,270.0,229.0,250.0,1727.079
1727089.0,238.0,280.0,229.0,252.0,1727.089
1727099.0,238.0,271.0,244.0,251.0,1727.099
1727109.0,232.0,276.0,222.0,246.0,1727.109
1727119.0,233.0,272.0,236.0,246.0,1727.119
1727129.0,233.0,273.0,235.0,250.0,1727.129
1727139.0,237.0,282.0,232.0,255.0,1727.139
1727149.0,240.0,279.0,248.0,258.0,1727.149
1727159.0,230.0,270.0,223.0,247.0,1727.159
1727169.0,231.0,270.0,235.0,247.0,1727.169
1727179.0,233.0,269.0,235.0,250.0,1727.179
1727190.0,235.0,274.0,229.0,249.0,1727.19
1727200.0,233.0,267.0,240.0,248.0,1727.2
1727210.0,224.0,265.0,219.0,239.0,1727.21
1727220.0,228.0,270.0,229.0,244.0,1727.22
1727230.0,236.0,274.0,240.0,252.0,1727.23
1727240.0,234.0,279.0,228.0,253.0,1727.24
1727250.0,235.0,272.0,244.0,254.0,1727.25
1727260.0,225.0,267.0,224.0,250.0,1727.26
1727270.0,229.0,272.0,233.0,252.0,1727.27
1727280.0,230.0,269.0,240.0,254.0,1727.28
1727290.0,232.0,276.0,230.0,252.0,1727.29
1727300.0,236.0,273.0,243.0,252.0,1727.3
1727310.0,226.0,268.0,223.0,240.0,1727.31
1727320.0,230.0,273.0,233.0,245.0,1727.32
1727330.0,232.0,272.0,240.0,249.0,1727.33
1727340.0,231.0,275.0,226.0,244.0,1727.34
1727350.0,228.0,269.0,234.0,240.0,1727.35
1727360.0,222.0,266.0,215.0,235.0,1727.36
1727370.0,224.0,267.0,225.0,240.0,1727.37
1727380.0,229.0,268.0,236.0,249.0,1727.38
1727390.0,226.0,274.0,222.0,247.0,1727.39
1727400.0,227.0,268.0,237.0,249.0,1727.4
1727410.0,221.0,268.0,218.0,239.0,1727.41
1727420.0,223.0,269.0,226.0,245.0,1727.42
1727430.0,229.0,272.0,238.0,254.0,1727.43
1727440.0,225.0,272.0,222.0,245.0,1727.44
1727450.0,225.0,267.0,238.0,246.0,1727.45
1727460.0,216.0,266.0,217.0,237.0,1727.46
1727470.0,219.0,269.0,226.0,243.0,1727.47
1727480.0,224.0,271.0,237.0,247.0,1727.48
1727490.0,223.0,276.0,223.0,242.0,1727.49
1727500.0,221.0,268.0,236.0,241.0,1727.5
1727510.0,215.0,267.0,216.0,234.0,1727.51
1727520.0,220.0,271.0,228.0,241.0,1727.52
1727531.0,225.0,272.0,241.0,247.0,1727.531
1727541.0,219.0,274.0,222.0,240.0,1727.541
1727551.0,217.0,268.0,234.0,241.0,1727.551
1727561.0,213.0,264.0,224.0,237.0,1727.561
1727571.0,222.0,274.0,231.0,247.0,1727.571
1727581.0,223.0,270.0,243.0,250.0,1727.581
1727591.0,217.0,269.0,223.0,241.0,1727.591
1727601.0,218.0,266.0,237.0,243.0,1727.601
1727611.0,213.0,262.0,229.0,240.0,1727.611
1727621.0,218.0,269.0,232.0,245.0,1727.621
1727631.0,221.0,268.0,246.0,251.0,1727.631
1727641.0,216.0,266.0,225.0,242.0,1727.641
1727651.0,215.0,262.0,237.0,242.0,1727.651
1727661.0,210.0,259.0,224.0,235.0,1727.661
1727671.0,215.0,270.0,232.0,246.0,1727.671
1727681.0,219.0,267.0,247.0,251.0,1727.681
1727691.0,213.0,264.0,224.0,240.0,1727.691
1727702.0,215.0,261.0,233.0,242.0,1727.702
1727712.0,212.0,259.0,229.0,241.0,1727.712
1727722.0,218.0,268.0,229.0,245.0,1727.722
1727732.0,217.0,263.0,242.0,243.0,1727.732
1727742.0,210.0,257.0,220.0,235.0,1727.742
1727752.0,213.0,261.0,232.0,240.0,1727.752
1727762.0,213.0,258.0,229.0,241.0,1727.762
1727772.0,217.0,266.0,225.0,243.0,1727.772
1727782.0,218.0,261.0,238.0,241.0,1727.782
1727792.0,213.0,258.0,218.0,237.0,1727.792
1727802.0,214.0,259.0,227.0,237.0,1727.802
1727812.0,216.0,258.0,231.0,240.0,1727.812
1727822.0,218.0,264.0,224.0,241.0,1727.822
1727832.0,221.0,261.0,240.0,242.0,1727.832
1727842.0,216.0,259.0,216.0,236.0,1727.842
1727852.0,218.0,256.0,225.0,237.0,1727.852
1727862.0,218.0,256.0,228.0,243.0,1727.862
1727872.0,219.0,259.0,221.0,242.0,1727.872
1727882.0,219.0,258.0,234.0,243.0,1727.882
1727892.0,212.0,250.0,212.0,234.0,1727.892
1727902.0,213.0,254.0,221.0,236.0,1727.902
1727912.0,218.0,256.0,228.0,244.0,1727.912
1727922.0,219.0,263.0,221.0,245.0,1727.922
1727932.0,220.0,258.0,234.0,243.0,1727.932
1727942.0,214.0,254.0,212.0,236.0,1727.942
1727952.0,217.0,256.0,219.0,238.0,1727.952
1727962.0,218.0,256.0,222.0,241.0,1727.962
1727972.0,221.0,269.0,221.0,246.0,1727.972
1727982.0,222.0,260.0,232.0,242.0,1727.982
1727992.0,212.0,259.0,210.0,233.0,1727.992
1728002.0,215.0,259.0,222.0,237.0,1728.002
1728012.0,216.0,262.0,221.0,241.0,1728.012
1728022.0,220.0,270.0,216.0,243.0,1728.022
1728032.0,222.0,263.0,228.0,242.0,1728.032
1728043.0,213.0,260.0,207.0,233.0,1728.043
1728053.0,215.0,262.0,215.0,239.0,1728.053
1728063.0,221.0,267.0,228.0,246.0,1728.063
1728073.0,217.0,263.0,213.0,241.0,1728.073
1728083.0,215.0,261.0,221.0,240.0,1728.083
1728093.0,208.0,253.0,204.0,235.0,1728.093
1728103.0,210.0,258.0,212.0,239.0,1728.103
1728113.0,217.0,262.0,223.0,246.0,1728.113
1728123.0,213.0,258.0,208.0,240.0,1728.123
1728133.0,214.0,258.0,219.0,241.0,1728.133
1728143.0,205.0,249.0,200.0,233.0,1728.143
1728153.0,212.0,256.0,209.0,241.0,1728.153
1728163.0,218.0,260.0,218.0,248.0,1728.163
1728173.0,215.0,260.0,207.0,245.0,1728.173
1728183.0,215.0,259.0,214.0,244.0,1728.183
1728193.0,208.0,250.0,198.0,234.0,1728.193
1728203.0,213.0,258.0,207.0,243.0,1728.203
1728214.0,219.0,261.0,216.0,247.0,1728.214
1728224.0,214.0,255.0,201.0,240.0,1728.224
1728234.0,213.0,255.0,204.0,237.0,1728.234
1728244.0,209.0,250.0,198.0,238.0,1728.244
1728254.0,216.0,260.0,204.0,244.0,1728.254
1728264.0,218.0,260.0,212.0,245.0,1728.264
1728274.0,212.0,252.0,196.0,240.0,1728.274
1728284.0,214.0,253.0,200.0,240.0,1728.284
1728294.0,211.0,250.0,198.0,240.0,1728.294
1728304.0,215.0,257.0,200.0,244.0,1728.304
1728314.0,219.0,261.0,208.0,246.0,1728.314
1728324.0,212.0,252.0,193.0,239.0,1728.324
1728334.0,212.0,254.0,198.0,240.0,1728.334
1728344.0,209.0,249.0,192.0,236.0,1728.344
1728354.0,214.0,259.0,200.0,245.0,1728.354
1728364.0,219.0,258.0,207.0,245.0,1728.364
1728374.0,211.0,254.0,191.0,239.0,1728.374
1728384.0,214.0,254.0,198.0,238.0,1728.384
1728394.0,208.0,249.0,191.0,234.0,1728.394
1728404.0,217.0,261.0,201.0,242.0,1728.404
1728414.0,220.0,259.0,206.0,244.0,1728.414
1728424.0,212.0,255.0,191.0,235.0,1728.424
1728434.0,214.0,257.0,198.0,238.0,1728.434
1728444.0,210.0,252.0,193.0,236.0,1728.444
1728454.0,217.0,262.0,201.0,244.0,1728.454
1728464.0,220.0,261.0,205.0,243.0,1728.464
1728474.0,215.0,254.0,195.0,240.0,1728.474
1728484.0,214.0,255.0,196.0,239.0,1728.484
1728494.0,210.0,251.0,194.0,238.0,1728.494
1728504.0,217.0,260.0,201.0,245.0,1728.504
1728514.0,219.0,259.0,207.0,244.0,1728.514
1728524.0,211.0,252.0,194.0,238.0,1728.524
1728534.0,213.0,253.0,199.0,238.0,1728.534
1728544.0,212.0,252.0,197.0,238.0,1728.544
1728555.0,217.0,256.0,202.0,243.0,1728.555
1728565.0,216.0,260.0,203.0,242.0,1728.565
1728575.0,206.0,250.0,193.0,234.0,1728.575
1728585.0,209.0,253.0,195.0,238.0,1728.585
1728595.0,215.0,255.0,205.0,245.0,1728.595
1728605.0,214.0,257.0,203.0,244.0,1728.605
1728615.0,214.0,254.0,202.0,241.0,1728.615
1728625.0,207.0,248.0,192.0,235.0,1728.625
1728635.0,210.0,252.0,197.0,238.0,1728.635
1728645.0,213.0,250.0,201.0,242.0,1728.645
1728655.0,214.0,257.0,203.0,244.0,1728.655
1728665.0,217.0,254.0,203.0,242.0,1728.665
1728675.0,207.0,248.0,194.0,235.0,1728.675
1728685.0,212.0,253.0,199.0,239.0,1728.685
1728695.0,215.0,253.0,205.0,244.0,1728.695
1728705.0,216.0,259.0,205.0,244.0,1728.705
1728715.0,216.0,255.0,203.0,243.0,1728.715
1728726.0,206.0,246.0,196.0,235.0,1728.726
1728736.0,211.0,251.0,202.0,241.0,1728.736
1728746.0,217.0,253.0,209.0,246.0,1728.746
1728756.0,212.0,251.0,205.0,242.0,1728.756
1728766.0,212.0,249.0,203.0,240.0,1728.766
1728776.0,206.0,243.0,198.0,234.0,1728.776
1728786.0,212.0,251.0,204.0,241.0,1728.786
1728796.0,219.0,255.0,211.0,245.0,1728.796
1728806.0,212.0,249.0,207.0,240.0,1728.806
1728816.0,215.0,251.0,206.0,239.0,1728.816
1728826.0,206.0,246.0,200.0,233.0,1728.826
1728836.0,213.0,254.0,209.0,242.0,1728.836
1728846.0,222.0,257.0,213.0,247.0,1728.846
1728856.0,217.0,256.0,212.0,243.0,1728.856
1728866.0,217.0,254.0,208.0,242.0,1728.866
1728876.0,208.0,245.0,203.0,235.0,1728.876
1728886.0,215.0,254.0,212.0,245.0,1728.886
1728896.0,219.0,254.0,215.0,247.0,1728.896
1728906.0,214.0,253.0,213.0,244.0,1728.906
1728916.0,215.0,252.0,210.0,242.0,1728.916
1728926.0,207.0,245.0,206.0,235.0,1728.926
1728936.0,214.0,255.0,215.0,245.0,1728.936
1728946.0,218.0,254.0,217.0,248.0,1728.946
1728956.0,214.0,254.0,216.0,242.0,1728.956
1728966.0,214.0,252.0,211.0,241.0,1728.966
1728976.0,207.0,247.0,207.0,236.0,1728.976
1728986.0,213.0,254.0,214.0,242.0,1728.986
1728996.0,219.0,257.0,218.0,248.0,1728.996
1729006.0,213.0,254.0,216.0,241.0,1729.006
1729016.0,214.0,254.0,212.0,241.0,1729.016
1729026.0,207.0,246.0,209.0,233.0,1729.026
1729036.0,213.0,254.0,215.0,241.0,1729.036
1729046.0,219.0,257.0,221.0,246.0,1729.046
1729056.0,213.0,252.0,217.0,240.0,1729.056
1729067.0,214.0,254.0,214.0,239.0,1729.067
1729077.0,209.0,248.0,214.0,238.0,1729.077
1729087.0,215.0,259.0,223.0,244.0,1729.087
1729097.0,219.0,258.0,218.0,244.0,1729.097
1729107.0,208.0,250.0,217.0,235.0,1729.107
1729117.0,213.0,253.0,216.0,238.0,1729.117
1729127.0,209.0,250.0,218.0,239.0,1729.127
1729137.0,216.0,260.0,226.0,244.0,1729.137
1729147.0,219.0,259.0,220.0,243.0,1729.147
1729157.0,211.0,254.0,223.0,238.0,1729.157
1729167.0,212.0,255.0,219.0,239.0,1729.167
1729177.0,212.0,251.0,224.0,240.0,1729.177
1729187.0,215.0,260.0,230.0,244.0,1729.187
1729197.0,219.0,258.0,227.0,246.0,1729.197
1729207.0,209.0,253.0,227.0,240.0,1729.207
1729217.0,211.0,252.0,222.0,238.0,1729.217
1729227.0,212.0,249.0,227.0,242.0,1729.227
1729238.0,215.0,256.0,233.0,244.0,1729.238
1729248.0,218.0,258.0,225.0,243.0,1729.248
1729258.0,208.0,248.0,226.0,236.0,1729.258
1729268.0,211.0,252.0,225.0,238.0,1729.268
1729278.0,218.0,254.0,232.0,245.0,1729.278
1729288.0,216.0,255.0,235.0,244.0,1729.288
1729298.0,216.0,254.0,228.0,242.0,1729.298
1729308.0,207.0,244.0,231.0,235.0,1729.308
1729318.0,210.0,249.0,230.0,240.0,1729.318
1729328.0,214.0,248.0,235.0,244.0,1729.328
1729338.0,215.0,253.0,240.0,246.0,1729.338
1729348.0,216.0,251.0,231.0,243.0,1729.348
1729358.0,207.0,244.0,232.0,235.0,1729.358
1729368.0,212.0,249.0,232.0,240.0,1729.368
1729378.0,216.0,250.0,238.0,247.0,1729.378
1729388.0,214.0,253.0,242.0,246.0,1729.388
1729398.0,216.0,253.0,233.0,244.0,1729.398
1729408.0,208.0,245.0,237.0,238.0,1729.408
1729418.0,211.0,247.0,233.0,240.0,1729.418
1729428.0,216.0,247.0,240.0,247.0,1729.428
1729438.0,214.0,251.0,243.0,245.0,1729.438
1729448.0,214.0,249.0,233.0,243.0,1729.448
1729458.0,207.0,241.0,237.0,237.0,1729.458
1729468.0,210.0,248.0,233.0,240.0,1729.468
1729478.0,217.0,254.0,240.0,246.0,1729.478
1729488.0,214.0,250.0,243.0,244.0,1729.488
1729498.0,218.0,259.0,236.0,243.0,1729.498
1729508.0,208.0,251.0,238.0,236.0,1729.508
1729518.0,211.0,254.0,236.0,241.0,1729.518
1729528.0,218.0,256.0,243.0,247.0,1729.528
1729538.0,216.0,261.0,247.0,246.0,1729.538
1729548.0,216.0,255.0,237.0,242.0,1729.548
1729558.0,207.0,249.0,241.0,236.0,1729.558
1729568.0,212.0,255.0,240.0,241.0,1729.568
1729579.0,219.0,257.0,245.0,248.0,1729.579
1729589.0,213.0,257.0,247.0,242.0,1729.589
1729599.0,213.0,254.0,237.0,241.0,1729.599
1729609.0,206.0,247.0,241.0,237.0,1729.609
1729619.0,213.0,258.0,247.0,245.0,1729.619
1729629.0,219.0,255.0,247.0,247.0,1729.629
1729639.0,212.0,254.0,248.0,242.0,1729.639
1729649.0,213.0,251.0,240.0,241.0,1729.649
1729659.0,208.0,248.0,243.0,239.0,1729.659
1729669.0,212.0,254.0,245.0,243.0,1729.669
1729679.0,219.0,255.0,247.0,248.0,1729.679
1729689.0,212.0,253.0,250.0,242.0,1729.689
1729699.0,213.0,252.0,241.0,241.0,1729.699
1729709.0,205.0,246.0,243.0,235.0,1729.709
1729719.0,213.0,257.0,248.0,245.0,1729.719
1729729.0,218.0,257.0,248.0,247.0,1729.729
1729739.0,211.0,252.0,251.0,240.0,1729.739
1729750.0,213.0,251.0,241.0,239.0,1729.75
1729760.0,211.0,247.0,247.0,239.0,1729.76
1729770.0,214.0,257.0,254.0,245.0,1729.77
1729780.0,218.0,254.0,244.0,242.0,1729.78
1729790.0,208.0,248.0,249.0,236.0,1729.79
1729800.0,213.0,250.0,243.0,239.0,1729.8
1729810.0,211.0,246.0,248.0,241.0,1729.81
1729820.0,216.0,254.0,254.0,244.0,1729.82
1729830.0,217.0,250.0,242.0,242.0,1729.83
1729840.0,209.0,247.0,251.0,238.0,1729.84
1729850.0,211.0,249.0,243.0,240.0,1729.85
1729860.0,212.0,245.0,250.0,242.0,1729.86
1729870.0,216.0,255.0,254.0,244.0,1729.87
1729880.0,219.0,252.0,247.0,245.0,1729.88
1729890.0,210.0,250.0,250.0,237.0,1729.89
1729900.0,211.0,250.0,243.0,238.0,1729.9
1729910.0,214.0,250.0,250.0,242.0,1729.91
1729920.0,215.0,259.0,254.0,244.0,1729.92
1729930.0,219.0,256.0,246.0,243.0,1729.93
1729940.0,209.0,250.0,251.0,236.0,1729.94
1729950.0,213.0,251.0,245.0,236.0,1729.95
1729960.0,215.0,253.0,251.0,242.0,1729.96
1729970.0,216.0,259.0,254.0,243.0,1729.97
1729980.0,219.0,257.0,246.0,242.0,1729.98
1729990.0,209.0,250.0,252.0,235.0,1729.99
1730000.0,212.0,252.0,245.0,236.0,1730.0
1730010.0,212.0,250.0,252.0,239.0,1730.01
1730020.0,216.0,260.0,257.0,244.0,1730.02
1730030.0,218.0,255.0,247.0,241.0,1730.03
1730040.0,209.0,249.0,252.0,236.0,1730.04
1730050.0,213.0,253.0,246.0,238.0,1730.05
1730060.0,213.0,250.0,252.0,241.0,1730.06
1730070.0,216.0,257.0,258.0,244.0,1730.07
1730080.0,217.0,254.0,247.0,241.0,1730.08
1730091.0,208.0,247.0,251.0,235.0,1730.091
1730101.0,210.0,250.0,247.0,237.0,1730.101
1730111.0,217.0,253.0,253.0,245.0,1730.111
1730121.0,214.0,253.0,257.0,241.0,1730.121
1730131.0,214.0,252.0,245.0,240.0,1730.131
1730141.0,209.0,246.0,252.0,234.0,1730.141
1730151.0,212.0,250.0,248.0,240.0,1730.151
1730161.0,219.0,252.0,255.0,246.0,1730.161
1730171.0,215.0,255.0,257.0,244.0,1730.171
1730181.0,217.0,254.0,247.0,242.0,1730.181
1730191.0,208.0,247.0,251.0,234.0,1730.191
1730201.0,213.0,253.0,250.0,241.0,1730.201
1730211.0,220.0,254.0,254.0,246.0,1730.211
1730221.0,216.0,257.0,257.0,244.0,1730.221
1730231.0,217.0,252.0,247.0,242.0,1730.231
1730241.0,208.0,246.0,249.0,233.0,1730.241
1730251.0,212.0,254.0,249.0,240.0,1730.251
1730262.0,219.0,254.0,251.0,245.0,1730.262
1730272.0,214.0,254.0,253.0,240.0,1730.272
1730282.0,213.0,251.0,244.0,239.0,1730.282
1730292.0,209.0,248.0,246.0,237.0,1730.292
1730302.0,215.0,259.0,253.0,245.0,1730.302
1730312.0,218.0,256.0,250.0,245.0,1730.312
1730322.0,212.0,255.0,253.0,242.0,1730.322
1730332.0,214.0,252.0,245.0,240.0,1730.332
1730342.0,209.0,249.0,248.0,239.0,1730.342
1730352.0,214.0,256.0,251.0,243.0,1730.352
1730362.0,219.0,255.0,249.0,247.0,1730.362
1730372.0,211.0,252.0,251.0,238.0,1730.372
1730382.0,212.0,251.0,242.0,239.0,1730.382
1730392.0,205.0,246.0,244.0,234.0,1730.392
1730402.0,214.0,256.0,250.0,243.0,1730.402
1730412.0,218.0,256.0,247.0,246.0,1730.412
1730422.0,212.0,254.0,249.0,238.0,1730.422
1730432.0,214.0,253.0,241.0,240.0,1730.432
1730442.0,208.0,250.0,243.0,234.0,1730.442
1730452.0,216.0,262.0,249.0,244.0,1730.452
1730462.0,221.0,260.0,246.0,246.0,1730.462
1730472.0,212.0,255.0,246.0,239.0,1730.472
1730482.0,215.0,256.0,240.0,240.0,1730.482
1730492.0,210.0,253.0,242.0,238.0,1730.492
1730502.0,217.0,263.0,249.0,245.0,1730.502
1730512.0,220.0,260.0,242.0,245.0,1730.512
1730522.0,215.0,260.0,247.0,240.0,1730.522
1730532.0,215.0,256.0,238.0,240.0,1730.532
1730542.0,210.0,251.0,241.0,237.0,1730.542
1730552.0,218.0,262.0,248.0,245.0,1730.552
1730562.0,220.0,259.0,244.0,246.0,1730.562
1730572.0,214.0,254.0,246.0,240.0,1730.572
1730582.0,213.0,253.0,237.0,240.0,1730.582
1730592.0,213.0,249.0,242.0,239.0,1730.592
1730603.0,218.0,260.0,248.0,245.0,1730.603
1730613.0,220.0,255.0,239.0,243.0,1730.613
1730623.0,213.0,253.0,241.0,237.0,1730.623
1730633.0,214.0,254.0,237.0,238.0,1730.633
1730643.0,217.0,254.0,243.0,245.0,1730.643
1730653.0,219.0,259.0,247.0,245.0,1730.653
1730663.0,219.0,255.0,238.0,242.0,1730.663
1730673.0,211.0,249.0,240.0,235.0,1730.673
1730683.0,213.0,252.0,235.0,238.0,1730.683
1730693.0,215.0,251.0,241.0,240.0,1730.693
1730703.0,219.0,258.0,246.0,244.0,1730.703
1730713.0,217.0,253.0,236.0,242.0,1730.713
1730723.0,211.0,249.0,239.0,234.0,1730.723
1730733.0,214.0,253.0,234.0,238.0,1730.733
1730743.0,215.0,252.0,241.0,242.0,1730.743
1730753.0,218.0,261.0,246.0,244.0,1730.753
1730763.0,218.0,255.0,237.0,242.0,1730.763
1730774.0,210.0,251.0,238.0,236.0,1730.774
1730784.0,214.0,254.0,238.0,241.0,1730.784
1730794.0,220.0,256.0,242.0,247.0,1730.794
1730804.0,217.0,257.0,243.0,243.0,1730.804
1730814.0,216.0,255.0,235.0,242.0,1730.814
1730824.0,210.0,249.0,237.0,236.0,1730.824
1730834.0,213.0,255.0,237.0,243.0,1730.834
1730844.0,220.0,258.0,244.0,250.0,1730.844
1730854.0,215.0,259.0,245.0,245.0,1730.854
1730864.0,216.0,256.0,236.0,244.0,1730.864
1730874.0,209.0,251.0,237.0,237.0,1730.874
1730884.0,214.0,258.0,239.0,243.0,1730.884
1730894.0,220.0,260.0,242.0,249.0,1730.894
1730904.0,216.0,259.0,244.0,246.0,1730.904
1730914.0,216.0,255.0,234.0,243.0,1730.914
1730924.0,208.0,248.0,234.0,236.0,1730.924
1730934.0,215.0,256.0,239.0,245.0,1730.934
1730944.0,219.0,257.0,241.0,249.0,1730.944
1730954.0,218.0,259.0,243.0,246.0,1730.954
1730964.0,218.0,257.0,235.0,244.0,1730.964
1730974.0,210.0,249.0,236.0,235.0,1730.974
1730984.0,217.0,259.0,240.0,245.0,1730.984
1730994.0,220.0,257.0,242.0,248.0,1730.994
1731004.0,218.0,256.0,243.0,246.0,1731.004
1731014.0,216.0,254.0,234.0,242.0,1731.014
1731024.0,208.0,247.0,234.0,238.0,1731.024
1731034.0,213.0,253.0,235.0,242.0,1731.034
1731044.0,220.0,256.0,241.0,247.0,1731.044
1731054.0,215.0,253.0,242.0,244.0,1731.054
1731064.0,216.0,253.0,233.0,242.0,1731.064
1731074.0,210.0,246.0,234.0,236.0,1731.074
1731084.0,215.0,252.0,236.0,242.0,1731.084
1731094.0,221.0,256.0,240.0,248.0,1731.094
1731104.0,217.0,255.0,243.0,243.0,1731.104
1731115.0,216.0,254.0,233.0,241.0,1731.115
1731125.0,211.0,248.0,236.0,239.0,1731.125
1731135.0,218.0,258.0,244.0,249.0,1731.135
1731145.0,221.0,257.0,239.0,247.0,1731.145
1731155.0,213.0,250.0,240.0,240.0,1731.155
1731165.0,215.0,254.0,234.0,242.0,1731.165
1731175.0,211.0,249.0,237.0,240.0,1731.175
1731185.0,219.0,260.0,245.0,248.0,1731.185
1731195.0,221.0,261.0,236.0,247.0,1731.195
1731205.0,215.0,255.0,240.0,242.0,1731.205
1731215.0,216.0,253.0,233.0,241.0,1731.215
1731225.0,212.0,249.0,236.0,240.0,1731.225
1731235.0,219.0,259.0,243.0,247.0,1731.235
1731245.0,221.0,257.0,238.0,247.0,1731.245
1731255.0,214.0,253.0,238.0,241.0,1731.255
1731265.0,215.0,254.0,232.0,240.0,1731.265
1731275.0,213.0,250.0,236.0,241.0,1731.275
1731286.0,218.0,259.0,242.0,246.0,1731.286
1731296.0,219.0,256.0,235.0,243.0,1731.296
1731306.0,211.0,249.0,236.0,236.0,1731.306
1731316.0,214.0,251.0,232.0,239.0,1731.316
1731326.0,219.0,254.0,239.0,245.0,1731.326
1731336.0,220.0,257.0,242.0,244.0,1731.336
1731346.0,219.0,256.0,233.0,242.0,1731.346
1731356.0,212.0,247.0,235.0,234.0,1731.356
1731366.0,215.0,250.0,232.0,239.0,1731.366
1731376.0,216.0,249.0,238.0,241.0,1731.376
1731386.0,220.0,255.0,242.0,243.0,1731.386
1731396.0,219.0,255.0,232.0,240.0,1731.396
1731406.0,211.0,244.0,233.0,233.0,1731.406
1731416.0,214.0,251.0,230.0,238.0,1731.416
1731426.0,217.0,248.0,236.0,242.0,1731.426
1731436.0,218.0,254.0,240.0,242.0,1731.436
1731446.0,217.0,251.0,231.0,240.0,1731.446
1731456.0,212.0,246.0,235.0,236.0,1731.456
1731466.0,214.0,248.0,230.0,238.0,1731.466
1731476.0,218.0,248.0,237.0,245.0,1731.476
1731486.0,219.0,251.0,241.0,242.0,1731.486
1731496.0,218.0,251.0,230.0,239.0,1731.496
1731506.0,213.0,243.0,233.0,234.0,1731.506
1731516.0,215.0,247.0,230.0,237.0,1731.516
1731526.0,219.0,248.0,238.0,244.0,1731.526
1731536.0,219.0,253.0,240.0,243.0,1731.536
1731546.0,221.0,253.0,233.0,243.0,1731.546
1731556.0,213.0,244.0,234.0,236.0,1731.556
1731566.0,214.0,248.0,230.0,238.0,1731.566
1731576.0,221.0,249.0,237.0,245.0,1731.576
1731586.0,219.0,251.0,238.0,244.0,1731.586
1731596.0,219.0,250.0,230.0,242.0,1731.596
1731606.0,211.0,241.0,231.0,235.0,1731.606
1731616.0,214.0,246.0,230.0,240.0,1731.616
1731627.0,220.0,247.0,236.0,246.0,1731.627
1731637.0,217.0,245.0,237.0,242.0,1731.637
1731647.0,216.0,248.0,228.0,241.0,1731.647
1731657.0,209.0,240.0,229.0,234.0,1731.657
1731667.0,218.0,250.0,237.0,243.0,1731.667
1731677.0,220.0,248.0,237.0,246.0,1731.677
1731687.0,217.0,248.0,238.0,241.0,1731.687
1731697.0,215.0,245.0,230.0,239.0,1731.697
1731707.0,210.0,241.0,230.0,234.0,1731.707
1731717.0,214.0,248.0,233.0,241.0,1731.717
1731727.0,220.0,249.0,237.0,247.0,1731.727
1731737.0,216.0,247.0,238.0,241.0,1731.737
1731747.0,216.0,246.0,230.0,240.0,1731.747
1731757.0,209.0,240.0,230.0,233.0,1731.757
1731767.0,214.0,248.0,234.0,240.0,1731.767
1731777.0,220.0,248.0,236.0,245.0,1731.777
1731787.0,215.0,245.0,237.0,239.0,1731.787
1731798.0,215.0,246.0,230.0,239.0,1731.798
1731808.0,212.0,240.0,234.0,237.0,1731.808
1731818.0,218.0,249.0,240.0,245.0,1731.818
1731828.0,220.0,249.0,233.0,244.0,1731.828
1731838.0,212.0,240.0,234.0,238.0,1731.838
1731848.0,215.0,244.0,230.0,239.0,1731.848
1731858.0,213.0,240.0,233.0,239.0,1731.858
1731868.0,218.0,253.0,241.0,244.0,1731.868
1731878.0,220.0,249.0,233.0,243.0,1731.878
1731888.0,214.0,246.0,238.0,240.0,1731.888
1731898.0,215.0,247.0,231.0,240.0,1731.898
1731908.0,213.0,244.0,235.0,241.0,1731.908
1731918.0,218.0,251.0,241.0,246.0,1731.918
1731928.0,220.0,251.0,235.0,247.0,1731.928
1731938.0,214.0,243.0,236.0,239.0,1731.938
1731948.0,214.0,244.0,229.0,240.0,1731.948
1731958.0,214.0,241.0,235.0,243.0,1731.958
1731968.0,217.0,249.0,238.0,247.0,1731.968
1731978.0,219.0,247.0,234.0,246.0,1731.978
1731988.0,212.0,242.0,233.0,239.0,1731.988
1731998.0,213.0,243.0,229.0,239.0,1731.998
1732008.0,215.0,242.0,233.0,244.0,1732.008
1732018.0,217.0,249.0,238.0,246.0,1732.018
1732028.0,221.0,248.0,232.0,246.0,1732.028
1732038.0,212.0,241.0,232.0,238.0,1732.038
1732048.0,214.0,243.0,227.0,239.0,1732.048
1732058.0,212.0,240.0,230.0,239.0,1732.058
1732068.0,220.0,250.0,238.0,245.0,1732.068
1732078.0,220.0,249.0,230.0,244.0,1732.078
1732088.0,212.0,242.0,231.0,237.0,1732.088
1732098.0,215.0,245.0,227.0,240.0,1732.098
1732108.0,213.0,240.0,231.0,242.0,1732.108
1732118.0,217.0,251.0,236.0,245.0,1732.118
1732128.0,220.0,248.0,229.0,243.0,1732.128
1732139.0,211.0,242.0,230.0,236.0,1732.139
1732149.0,213.0,244.0,226.0,239.0,1732.149
1732159.0,218.0,245.0,234.0,246.0,1732.159
1732169.0,217.0,250.0,236.0,243.0,1732.169
1732179.0,217.0,245.0,228.0,240.0,1732.179
1732189.0,211.0,242.0,228.0,235.0,1732.189
1732199.0,214.0,244.0,226.0,238.0,1732.199
1732209.0,218.0,246.0,233.0,245.0,1732.209
1732219.0,215.0,245.0,234.0,243.0,1732.219
1732229.0,217.0,248.0,227.0,243.0,1732.229
1732239.0,210.0,238.0,227.0,234.0,1732.239
1732249.0,212.0,242.0,226.0,240.0,1732.249
1732259.0,219.0,243.0,233.0,246.0,1732.259
1732269.0,216.0,246.0,234.0,245.0,1732.269
1732279.0,217.0,243.0,226.0,241.0,1732.279
1732289.0,208.0,235.0,226.0,235.0,1732.289
1732299.0,213.0,240.0,228.0,240.0,1732.299
1732310.0,220.0,241.0,233.0,246.0,1732.31
1732320.0,214.0,242.0,233.0,241.0,1732.32
1732330.0,214.0,241.0,225.0,240.0,1732.33
1732340.0,208.0,235.0,227.0,235.0,1732.34
1732350.0,216.0,248.0,235.0,244.0,1732.35
1732360.0,220.0,245.0,234.0,245.0,1732.36
1732370.0,213.0,246.0,234.0,240.0,1732.37
1732380.0,213.0,243.0,227.0,239.0,1732.38
1732390.0,208.0,239.0,227.0,236.0,1732.39
1732400.0,212.0,247.0,230.0,241.0,1732.4
1732410.0,218.0,247.0,233.0,245.0,1732.41
1732420.0,211.0,248.0,232.0,241.0,1732.42
1732430.0,214.0,244.0,226.0,239.0,1732.43
1732440.0,207.0,240.0,224.0,233.0,1732.44
1732450.0,214.0,249.0,233.0,243.0,1732.45
1732460.0,219.0,248.0,233.0,247.0,1732.46
1732470.0,213.0,244.0,234.0,240.0,1732.47
1732480.0,215.0,244.0,227.0,241.0,1732.48
1732490.0,207.0,239.0,225.0,234.0,1732.49
1732500.0,216.0,248.0,234.0,244.0,1732.5
1732510.0,220.0,247.0,234.0,247.0,1732.51
1732520.0,213.0,244.0,232.0,239.0,1732.52
1732530.0,215.0,244.0,226.0,240.0,1732.53
1732540.0,208.0,239.0,227.0,235.0,1732.54
1732550.0,216.0,250.0,235.0,244.0,1732.55
1732560.0,221.0,247.0,233.0,246.0,1732.56
1732570.0,215.0,245.0,235.0,240.0,1732.57
1732580.0,216.0,245.0,228.0,240.0,1732.58
1732590.0,209.0,238.0,228.0,236.0,1732.59
1732600.0,218.0,248.0,236.0,244.0,1732.6
1732610.0,220.0,245.0,234.0,247.0,1732.61
1732620.0,215.0,243.0,235.0,239.0,1732.62
1732630.0,216.0,243.0,228.0,239.0,1732.63
1732640.0,211.0,238.0,230.0,237.0,1732.64
1732651.0,217.0,249.0,236.0,244.0,1732.651
1732661.0,220.0,246.0,230.0,243.0,1732.661
1732671.0,212.0,241.0,229.0,237.0,1732.671
1732681.0,213.0,242.0,225.0,238.0,1732.681
1732691.0,218.0,242.0,232.0,243.0,1732.691
1732701.0,219.0,251.0,236.0,244.0,1732.701
1732711.0,220.0,247.0,228.0,242.0,1732.711
1732721.0,211.0,242.0,230.0,235.0,1732.721
1732731.0,215.0,245.0,227.0,237.0,1732.731
1732741.0,213.0,243.0,230.0,238.0,1732.741
1732751.0,219.0,253.0,237.0,243.0,1732.751
1732761.0,220.0,249.0,229.0,242.0,1732.761
1732771.0,212.0,244.0,230.0,235.0,1732.771
1732781.0,214.0,247.0,227.0,238.0,1732.781
1732791.0,215.0,245.0,233.0,240.0,1732.791
1732801.0,219.0,254.0,237.0,244.0,1732.801
1732811.0,219.0,249.0,229.0,241.0,1732.811
1732822.0,211.0,245.0,230.0,234.0,1732.822
1732832.0,214.0,247.0,228.0,239.0,1732.832
1732842.0,220.0,249.0,236.0,245.0,1732.842
1732852.0,217.0,253.0,237.0,241.0,1732.852
1732862.0,216.0,249.0,228.0,239.0,1732.862
1732872.0,210.0,245.0,230.0,234.0,1732.872
1732882.0,213.0,248.0,230.0,239.0,1732.882
1732892.0,219.0,248.0,236.0,246.0,1732.892
1732902.0,216.0,253.0,237.0,241.0,1732.902
1732912.0,218.0,250.0,229.0,242.0,1732.912
1732922.0,211.0,244.0,229.0,233.0,1732.922
1732932.0,215.0,251.0,230.0,241.0,1732.932
1732942.0,220.0,250.0,235.0,245.0,1732.942
1732952.0,218.0,257.0,236.0,244.0,1732.952
1732962.0,219.0,251.0,229.0,241.0,1732.962
1732972.0,210.0,244.0,228.0,232.0,1732.972
1732982.0,215.0,251.0,230.0,240.0,1732.982
1732992.0,219.0,247.0,234.0,245.0,1732.992
1733002.0,218.0,253.0,236.0,243.0,1733.002
1733012.0,218.0,248.0,228.0,240.0,1733.012
1733022.0,210.0,242.0,225.0,232.0,1733.022
1733032.0,216.0,250.0,230.0,242.0,1733.032
1733042.0,219.0,247.0,234.0,245.0,1733.042
1733052.0,218.0,250.0,234.0,243.0,1733.052
1733062.0,217.0,247.0,226.0,241.0,1733.062
1733072.0,209.0,241.0,223.0,233.0,1733.072
1733082.0,213.0,247.0,225.0,240.0,1733.082
1733092.0,221.0,248.0,234.0,246.0,1733.092
1733102.0,217.0,251.0,233.0,242.0,1733.102
1733112.0,216.0,247.0,225.0,240.0,1733.112
1733122.0,211.0,242.0,225.0,235.0,1733.122
1733132.0,213.0,247.0,225.0,240.0,1733.132
1733142.0,220.0,247.0,233.0,247.0,1733.142
1733152.0,217.0,249.0,233.0,242.0,1733.152
1733163.0,216.0,245.0,225.0,241.0,1733.163
1733173.0,209.0,241.0,225.0,236.0,1733.173
1733183.0,218.0,251.0,234.0,246.0,1733.183
1733193.0,220.0,250.0,230.0,247.0,1733.193
1733203.0,213.0,246.0,231.0,240.0,1733.203
1733213.0,216.0,247.0,227.0,242.0,1733.213
1733223.0,211.0,242.0,227.0,238.0,1733.223
1733233.0,219.0,252.0,235.0,247.0,1733.233
1733243.0,221.0,250.0,231.0,247.0,1733.243
1733253.0,216.0,247.0,235.0,243.0,1733.253
1733263.0,216.0,245.0,229.0,242.0,1733.263
1733273.0,211.0,240.0,229.0,241.0,1733.273
1733283.0,219.0,249.0,238.0,247.0,1733.283
1733293.0,222.0,244.0,234.0,249.0,1733.293
1733303.0,215.0,245.0,234.0,241.0,1733.303
1733313.0,215.0,244.0,228.0,242.0,1733.313
1733323.0,213.0,239.0,231.0,241.0,1733.323
1733334.0,220.0,251.0,239.0,249.0,1733.334
1733344.0,221.0,246.0,233.0,246.0,1733.344
1733354.0,213.0,243.0,232.0,238.0,1733.354
1733364.0,214.0,244.0,228.0,240.0,1733.364
1733374.0,219.0,245.0,234.0,247.0,1733.374
1733384.0,219.0,253.0,236.0,246.0,1733.384
1733394.0,221.0,249.0,230.0,244.0,1733.394
1733404.0,212.0,245.0,229.0,237.0,1733.404
1733414.0,214.0,246.0,225.0,240.0,1733.414
1733424.0,216.0,244.0,230.0,242.0,1733.424
1733434.0,219.0,252.0,235.0,245.0,1733.434
1733444.0,220.0,249.0,228.0,244.0,1733.444
1733454.0,212.0,242.0,227.0,236.0,1733.454
1733464.0,216.0,245.0,226.0,241.0,1733.464
1733474.0,217.0,243.0,231.0,243.0,1733.474
1733484.0,219.0,253.0,235.0,246.0,1733.484
1733494.0,219.0,248.0,227.0,243.0,1733.494
1733504.0,214.0,245.0,229.0,239.0,1733.504
1733514.0,214.0,246.0,225.0,241.0,1733.514
1733524.0,218.0,244.0,231.0,245.0,1733.524
1733534.0,220.0,252.0,234.0,247.0,1733.534
1733544.0,220.0,246.0,226.0,244.0,1733.544
1733554.0,214.0,243.0,226.0,239.0,1733.554
1733564.0,217.0,244.0,225.0,241.0,1733.564
1733574.0,219.0,245.0,230.0,247.0,1733.574
1733584.0,219.0,247.0,231.0,245.0,1733.584
1733594.0,221.0,249.0,226.0,246.0,1733.594
1733604.0,213.0,240.0,226.0,238.0,1733.604
1733614.0,215.0,243.0,222.0,240.0,1733.614
1733624.0,219.0,243.0,230.0,246.0,1733.624
1733634.0,220.0,249.0,232.0,248.0,1733.634
1733644.0,220.0,248.0,225.0,245.0,1733.644
1733654.0,212.0,239.0,223.0,237.0,1733.654
1733664.0,215.0,242.0,221.0,240.0,1733.664
1733675.0,221.0,243.0,229.0,248.0,1733.675
1733685.0,218.0,248.0,228.0,245.0,1733.685
1733695.0,218.0,243.0,222.0,243.0,1733.695
1733705.0,211.0,238.0,219.0,237.0,1733.705
1733715.0,219.0,246.0,228.0,246.0,1733.715
1733725.0,223.0,244.0,229.0,247.0,1733.725
1733735.0,220.0,248.0,229.0,243.0,1733.735
1733745.0,219.0,244.0,222.0,242.0,1733.745
1733755.0,213.0,239.0,220.0,235.0,1733.755
1733765.0,216.0,246.0,222.0,241.0,1733.765
1733775.0,223.0,247.0,228.0,247.0,1733.775
