time (ms),signal 0,signal 1,signal 2,signal 3,time (sec)
1709940.0,210.0,259.0,225.0,234.0,1709.94
1709950.0,210.0,253.0,217.0,234.0,1709.95
1709960.0,204.0,252.0,218.0,227.0,1709.96
1709970.0,206.0,253.0,216.0,229.0,1709.97
1709980.0,211.0,258.0,223.0,237.0,1709.98
1709990.0,209.0,260.0,225.0,234.0,1709.99
1710000.0,212.0,256.0,219.0,234.0,1710.0
1710010.0,202.0,251.0,217.0,226.0,1710.01
1710020.0,207.0,255.0,217.0,231.0,1710.02
1710030.0,213.0,262.0,223.0,238.0,1710.03
1710040.0,211.0,264.0,225.0,236.0,1710.04
1710050.0,211.0,258.0,217.0,235.0,1710.05
1710060.0,203.0,256.0,217.0,226.0,1710.06
1710070.0,207.0,258.0,216.0,232.0,1710.07
1710080.0,211.0,259.0,222.0,237.0,1710.08
1710090.0,211.0,262.0,223.0,236.0,1710.09
1710100.0,211.0,258.0,217.0,234.0,1710.1
1710110.0,203.0,252.0,215.0,226.0,1710.11
1710120.0,209.0,258.0,219.0,233.0,1710.12
1710130.0,213.0,261.0,224.0,237.0,1710.13
1710140.0,212.0,263.0,225.0,237.0,1710.14
1710150.0,212.0,259.0,218.0,235.0,1710.15
1710160.0,203.0,250.0,215.0,226.0,1710.16
1710170.0,208.0,254.0,216.0,232.0,1710.17
1710180.0,214.0,260.0,224.0,240.0,1710.18
1710190.0,212.0,261.0,226.0,237.0,1710.19
1710200.0,212.0,256.0,217.0,236.0,1710.2
1710210.0,206.0,251.0,220.0,230.0,1710.21
1710220.0,208.0,256.0,219.0,235.0,1710.22
1710230.0,215.0,261.0,226.0,240.0,1710.23
1710240.0,213.0,259.0,227.0,236.0,1710.24
1710251.0,212.0,255.0,220.0,236.0,1710.251
1710261.0,205.0,248.0,218.0,229.0,1710.261
1710271.0,212.0,259.0,227.0,238.0,1710.271
1710281.0,216.0,259.0,226.0,243.0,1710.281
1710291.0,209.0,253.0,224.0,234.0,1710.291
1710301.0,213.0,254.0,221.0,237.0,1710.301
1710311.0,205.0,250.0,219.0,231.0,1710.311
1710321.0,214.0,260.0,229.0,240.0,1710.321
1710331.0,217.0,260.0,227.0,242.0,1710.331
1710341.0,211.0,256.0,228.0,236.0,1710.341
1710351.0,212.0,255.0,221.0,236.0,1710.351
1710361.0,205.0,250.0,221.0,232.0,1710.361
1710371.0,213.0,262.0,230.0,241.0,1710.371
1710381.0,217.0,260.0,230.0,244.0,1710.381
1710391.0,210.0,255.0,229.0,237.0,1710.391
1710401.0,212.0,257.0,224.0,238.0,1710.401
1710411.0,207.0,253.0,224.0,234.0,1710.411
1710422.0,215.0,263.0,234.0,243.0,1710.422
1710432.0,219.0,259.0,230.0,243.0,1710.432
1710442.0,209.0,258.0,229.0,233.0,1710.442
1710452.0,211.0,257.0,224.0,236.0,1710.452
1710462.0,214.0,260.0,231.0,241.0,1710.462
1710472.0,216.0,266.0,234.0,242.0,1710.472
1710482.0,217.0,262.0,227.0,242.0,1710.482
1710492.0,209.0,256.0,226.0,233.0,1710.492
1710502.0,211.0,259.0,223.0,236.0,1710.502
1710512.0,212.0,258.0,227.0,236.0,1710.512
1710522.0,215.0,267.0,232.0,241.0,1710.522
1710532.0,216.0,261.0,225.0,240.0,1710.532
1710542.0,208.0,256.0,225.0,231.0,1710.542
1710552.0,211.0,258.0,222.0,236.0,1710.552
1710562.0,210.0,259.0,226.0,237.0,1710.562
1710572.0,215.0,267.0,232.0,240.0,1710.572
1710582.0,215.0,260.0,224.0,241.0,1710.582
1710592.0,210.0,258.0,226.0,234.0,1710.592
1710602.0,212.0,259.0,222.0,237.0,1710.602
1710612.0,212.0,256.0,227.0,239.0,1710.612
1710622.0,216.0,262.0,231.0,241.0,1710.622
1710632.0,216.0,257.0,224.0,240.0,1710.632
1710642.0,211.0,256.0,225.0,234.0,1710.642
1710652.0,210.0,257.0,220.0,235.0,1710.652
1710662.0,214.0,258.0,227.0,239.0,1710.662
1710672.0,215.0,262.0,231.0,240.0,1710.672
1710682.0,219.0,260.0,226.0,242.0,1710.682
1710692.0,209.0,255.0,225.0,233.0,1710.692
1710702.0,213.0,256.0,223.0,236.0,1710.702
1710712.0,215.0,259.0,228.0,242.0,1710.712
1710722.0,217.0,264.0,233.0,242.0,1710.722
1710732.0,219.0,261.0,226.0,242.0,1710.732
1710742.0,209.0,253.0,226.0,231.0,1710.742
1710752.0,212.0,255.0,223.0,235.0,1710.752
1710763.0,216.0,260.0,231.0,242.0,1710.763
1710773.0,215.0,259.0,233.0,239.0,1710.773
1710783.0,214.0,258.0,225.0,239.0,1710.783
1710793.0,206.0,251.0,224.0,231.0,1710.793
1710803.0,212.0,261.0,230.0,238.0,1710.803
1710813.0,216.0,263.0,233.0,243.0,1710.813
1710823.0,213.0,258.0,233.0,238.0,1710.823
1710833.0,214.0,257.0,225.0,237.0,1710.833
1710843.0,206.0,249.0,224.0,230.0,1710.843
1710853.0,211.0,257.0,226.0,236.0,1710.853
1710863.0,218.0,264.0,235.0,244.0,1710.863
1710873.0,214.0,259.0,235.0,238.0,1710.873
1710883.0,215.0,259.0,227.0,239.0,1710.883
1710893.0,208.0,250.0,229.0,230.0,1710.893
1710903.0,214.0,259.0,230.0,238.0,1710.903
1710913.0,221.0,266.0,236.0,243.0,1710.913
1710923.0,216.0,259.0,235.0,238.0,1710.923
1710934.0,215.0,259.0,228.0,237.0,1710.934
1710944.0,210.0,253.0,228.0,232.0,1710.944
1710954.0,216.0,265.0,235.0,242.0,1710.954
1710964.0,221.0,265.0,233.0,244.0,1710.964
1710974.0,213.0,256.0,232.0,235.0,1710.974
1710984.0,215.0,259.0,228.0,238.0,1710.984
1710994.0,210.0,253.0,228.0,235.0,1710.994
1711004.0,218.0,264.0,237.0,243.0,1711.004
1711014.0,219.0,263.0,233.0,245.0,1711.014
1711024.0,214.0,259.0,233.0,237.0,1711.024
1711034.0,214.0,259.0,226.0,238.0,1711.034
1711044.0,212.0,255.0,227.0,235.0,1711.044
1711054.0,222.0,265.0,233.0,243.0,1711.054
1711064.0,224.0,266.0,229.0,244.0,1711.064
1711074.0,216.0,256.0,226.0,237.0,1711.074
1711084.0,217.0,258.0,222.0,237.0,1711.084
1711094.0,215.0,256.0,224.0,239.0,1711.094
1711104.0,221.0,264.0,230.0,246.0,1711.104
1711114.0,224.0,267.0,231.0,252.0,1711.114
1711124.0,215.0,263.0,230.0,244.0,1711.124
1711134.0,216.0,265.0,227.0,246.0,1711.134
1711144.0,221.0,277.0,241.0,258.0,1711.144
1711154.0,215.0,273.0,241.0,258.0,1711.154
1711164.0,224.0,273.0,238.0,258.0,1711.164
1711174.0,215.0,258.0,226.0,243.0,1711.174
1711184.0,213.0,260.0,220.0,244.0,1711.184
1711194.0,216.0,258.0,221.0,244.0,1711.194
1711204.0,235.0,286.0,237.0,257.0,1711.204
1711214.0,249.0,300.0,243.0,262.0,1711.214
1711224.0,243.0,299.0,236.0,255.0,1711.224
1711234.0,248.0,307.0,237.0,256.0,1711.234
1711244.0,236.0,289.0,227.0,250.0,1711.244
1711254.0,240.0,296.0,233.0,254.0,1711.254
1711264.0,245.0,301.0,238.0,262.0,1711.264
1711275.0,244.0,300.0,233.0,256.0,1711.275
1711285.0,246.0,306.0,237.0,260.0,1711.285
1711295.0,251.0,310.0,241.0,269.0,1711.295
1711305.0,248.0,309.0,233.0,261.0,1711.305
1711315.0,245.0,300.0,230.0,259.0,1711.315
1711325.0,240.0,288.0,218.0,264.0,1711.325
1711335.0,246.0,297.0,219.0,267.0,1711.335
1711345.0,266.0,318.0,232.0,275.0,1711.345
1711355.0,264.0,315.0,220.0,270.0,1711.355
1711365.0,279.0,326.0,229.0,277.0,1711.365
1711375.0,264.0,313.0,213.0,274.0,1711.375
1711385.0,267.0,321.0,217.0,282.0,1711.385
1711395.0,278.0,332.0,233.0,290.0,1711.395
1711405.0,266.0,313.0,220.0,275.0,1711.405
1711415.0,265.0,313.0,225.0,276.0,1711.415
1711425.0,251.0,299.0,210.0,265.0,1711.425
1711435.0,248.0,297.0,217.0,272.0,1711.435
1711446.0,252.0,299.0,227.0,276.0,1711.446
1711456.0,252.0,308.0,222.0,274.0,1711.456
1711466.0,258.0,317.0,235.0,273.0,1711.466
1711476.0,244.0,296.0,217.0,265.0,1711.476
1711486.0,248.0,304.0,227.0,272.0,1711.486
1711496.0,248.0,298.0,237.0,279.0,1711.496
1711506.0,238.0,286.0,220.0,276.0,1711.506
1711516.0,240.0,288.0,236.0,280.0,1711.516
1711526.0,229.0,277.0,221.0,266.0,1711.526
1711536.0,237.0,281.0,229.0,262.0,1711.536
1711546.0,252.0,288.0,244.0,282.0,1711.546
1711556.0,243.0,275.0,224.0,264.0,1711.556
1711566.0,238.0,272.0,231.0,257.0,1711.566
1711576.0,230.0,262.0,218.0,254.0,1711.576
1711586.0,238.0,278.0,232.0,275.0,1711.586
1711596.0,241.0,283.0,245.0,282.0,1711.596
1711606.0,234.0,271.0,227.0,266.0,1711.606
1711616.0,230.0,271.0,240.0,270.0,1711.616
1711626.0,223.0,259.0,220.0,255.0,1711.626
1711636.0,224.0,267.0,227.0,261.0,1711.636
1711646.0,229.0,271.0,242.0,268.0,1711.646
1711656.0,239.0,285.0,230.0,263.0,1711.656
1711666.0,247.0,297.0,249.0,267.0,1711.666
1711676.0,233.0,284.0,229.0,254.0,1711.676
1711686.0,237.0,292.0,239.0,261.0,1711.686
1711696.0,250.0,297.0,250.0,265.0,1711.696
1711706.0,250.0,297.0,231.0,253.0,1711.706
1711716.0,257.0,292.0,243.0,261.0,1711.716
1711726.0,267.0,294.0,229.0,253.0,1711.726
1711736.0,276.0,310.0,238.0,263.0,1711.736
1711746.0,272.0,305.0,245.0,266.0,1711.746
1711756.0,269.0,306.0,226.0,259.0,1711.756
1711766.0,266.0,302.0,241.0,269.0,1711.766
1711776.0,261.0,305.0,234.0,266.0,1711.776
1711787.0,265.0,313.0,239.0,268.0,1711.787
1711797.0,263.0,312.0,253.0,268.0,1711.797
1711807.0,250.0,301.0,225.0,245.0,1711.807
1711817.0,253.0,302.0,239.0,248.0,1711.817
1711827.0,254.0,303.0,241.0,253.0,1711.827
1711837.0,256.0,305.0,240.0,260.0,1711.837
1711847.0,259.0,303.0,259.0,263.0,1711.847
1711857.0,248.0,299.0,242.0,255.0,1711.857
1711867.0,245.0,301.0,265.0,253.0,1711.867
1711877.0,250.0,300.0,262.0,267.0,1711.877
1711887.0,254.0,308.0,273.0,266.0,1711.887
1711897.0,249.0,295.0,291.0,250.0,1711.897
1711907.0,236.0,288.0,278.0,239.0,1711.907
1711917.0,239.0,290.0,306.0,246.0,1711.917
1711927.0,238.0,292.0,299.0,254.0,1711.927
1711937.0,240.0,298.0,305.0,252.0,1711.937
1711947.0,243.0,294.0,339.0,249.0,1711.947
1711958.0,231.0,287.0,317.0,244.0,1711.958
1711968.0,231.0,285.0,343.0,237.0,1711.968
1711978.0,240.0,292.0,359.0,251.0,1711.978
1711988.0,239.0,290.0,347.0,254.0,1711.988
1711998.0,239.0,287.0,384.0,254.0,1711.998
1712008.0,232.0,276.0,360.0,252.0,1712.008
1712018.0,234.0,280.0,389.0,255.0,1712.018
1712028.0,241.0,286.0,404.0,266.0,1712.028
1712038.0,237.0,283.0,383.0,266.0,1712.038
1712048.0,240.0,281.0,422.0,263.0,1712.048
1712058.0,232.0,275.0,397.0,263.0,1712.058
1712068.0,236.0,280.0,426.0,267.0,1712.068
1712078.0,242.0,283.0,442.0,271.0,1712.078
1712088.0,241.0,285.0,425.0,267.0,1712.088
1712098.0,241.0,279.0,463.0,266.0,1712.098
1712108.0,231.0,272.0,439.0,258.0,1712.108
1712118.0,236.0,279.0,465.0,261.0,1712.118
1712128.0,239.0,281.0,471.0,267.0,1712.128
1712138.0,240.0,285.0,459.0,262.0,1712.138
1712148.0,237.0,279.0,494.0,260.0,1712.148
1712158.0,228.0,270.0,466.0,253.0,1712.158
1712168.0,233.0,277.0,487.0,260.0,1712.168
1712178.0,239.0,278.0,500.0,269.0,1712.178
1712188.0,235.0,277.0,481.0,264.0,1712.188
1712198.0,235.0,274.0,510.0,258.0,1712.198
1712208.0,225.0,268.0,486.0,251.0,1712.208
1712218.0,229.0,272.0,510.0,255.0,1712.218
1712228.0,236.0,277.0,513.0,261.0,1712.228
1712238.0,234.0,280.0,491.0,261.0,1712.238
1712248.0,234.0,275.0,522.0,256.0,1712.248
1712258.0,228.0,273.0,491.0,254.0,1712.258
1712268.0,231.0,275.0,513.0,256.0,1712.268
1712278.0,238.0,280.0,518.0,264.0,1712.278
1712288.0,236.0,278.0,493.0,261.0,1712.288
1712299.0,234.0,274.0,520.0,258.0,1712.299
1712309.0,228.0,268.0,492.0,251.0,1712.309
1712319.0,236.0,281.0,499.0,262.0,1712.319
1712329.0,241.0,282.0,523.0,263.0,1712.329
1712339.0,234.0,281.0,488.0,257.0,1712.339
1712349.0,233.0,277.0,513.0,257.0,1712.349
1712359.0,225.0,273.0,485.0,250.0,1712.359
1712369.0,234.0,284.0,490.0,258.0,1712.369
1712379.0,237.0,285.0,509.0,256.0,1712.379
1712389.0,233.0,284.0,475.0,251.0,1712.389
1712399.0,233.0,280.0,499.0,250.0,1712.399
1712409.0,228.0,274.0,472.0,250.0,1712.409
1712419.0,237.0,285.0,472.0,256.0,1712.419
1712429.0,240.0,285.0,488.0,257.0,1712.429
1712439.0,236.0,278.0,460.0,251.0,1712.439
1712449.0,235.0,278.0,483.0,251.0,1712.449
1712459.0,230.0,270.0,459.0,249.0,1712.459
1712470.0,235.0,280.0,458.0,255.0,1712.47
1712480.0,238.0,278.0,477.0,254.0,1712.48
1712490.0,230.0,271.0,442.0,247.0,1712.49
1712500.0,231.0,271.0,465.0,247.0,1712.5
1712510.0,235.0,273.0,453.0,251.0,1712.51
1712520.0,236.0,278.0,443.0,251.0,1712.52
1712530.0,238.0,278.0,462.0,250.0,1712.53
1712540.0,229.0,267.0,429.0,242.0,1712.54
1712550.0,230.0,270.0,448.0,243.0,1712.55
1712560.0,229.0,268.0,434.0,243.0,1712.56
1712570.0,237.0,278.0,428.0,250.0,1712.57
1712580.0,236.0,275.0,447.0,248.0,1712.58
1712590.0,229.0,269.0,418.0,240.0,1712.59
1712600.0,232.0,273.0,441.0,246.0,1712.6
1712610.0,233.0,272.0,424.0,252.0,1712.61
1712620.0,237.0,282.0,420.0,254.0,1712.62
1712630.0,239.0,278.0,436.0,251.0,1712.63
1712640.0,231.0,273.0,410.0,241.0,1712.64
1712650.0,232.0,275.0,432.0,243.0,1712.65
1712660.0,231.0,275.0,415.0,245.0,1712.66
1712670.0,234.0,279.0,411.0,247.0,1712.67
1712680.0,235.0,276.0,426.0,246.0,1712.68
1712690.0,229.0,268.0,404.0,241.0,1712.69
1712700.0,232.0,271.0,425.0,240.0,1712.7
1712710.0,234.0,271.0,408.0,246.0,1712.71
1712720.0,236.0,276.0,403.0,244.0,1712.72
1712730.0,239.0,276.0,413.0,247.0,1712.73
1712740.0,230.0,268.0,396.0,239.0,1712.74
1712750.0,232.0,271.0,416.0,242.0,1712.75
1712760.0,235.0,273.0,401.0,248.0,1712.76
1712770.0,236.0,279.0,401.0,251.0,1712.77
1712780.0,238.0,277.0,405.0,252.0,1712.78
1712790.0,230.0,269.0,392.0,242.0,1712.79
1712800.0,230.0,273.0,406.0,244.0,1712.8
1712811.0,235.0,276.0,392.0,248.0,1712.811
1712821.0,236.0,272.0,390.0,243.0,1712.821
1712831.0,236.0,271.0,395.0,244.0,1712.831
1712841.0,233.0,261.0,385.0,233.0,1712.841
1712851.0,240.0,272.0,394.0,241.0,1712.851
1712861.0,243.0,273.0,385.0,240.0,1712.861
1712871.0,239.0,275.0,378.0,239.0,1712.871
1712881.0,239.0,271.0,380.0,243.0,1712.881
1712891.0,232.0,267.0,369.0,235.0,1712.891
1712901.0,236.0,276.0,372.0,244.0,1712.901
1712911.0,239.0,277.0,367.0,251.0,1712.911
1712921.0,232.0,275.0,366.0,240.0,1712.921
1712931.0,231.0,270.0,363.0,245.0,1712.931
1712941.0,223.0,264.0,359.0,234.0,1712.941
1712951.0,224.0,268.0,356.0,240.0,1712.951
1712961.0,230.0,273.0,350.0,244.0,1712.961
1712971.0,225.0,271.0,346.0,232.0,1712.971
1712982.0,224.0,268.0,339.0,238.0,1712.982
1712992.0,218.0,262.0,335.0,230.0,1712.992
1713002.0,225.0,274.0,328.0,238.0,1713.002
1713012.0,229.0,272.0,322.0,241.0,1713.012
1713022.0,220.0,268.0,315.0,228.0,1713.022
1713032.0,221.0,267.0,308.0,232.0,1713.032
1713042.0,216.0,263.0,301.0,226.0,1713.042
1713052.0,221.0,271.0,292.0,230.0,1713.052
1713062.0,223.0,267.0,285.0,234.0,1713.062
1713072.0,216.0,266.0,277.0,223.0,1713.072
1713082.0,218.0,262.0,269.0,230.0,1713.082
1713092.0,212.0,257.0,261.0,227.0,1713.092
1713102.0,219.0,268.0,252.0,236.0,1713.102
1713112.0,220.0,266.0,245.0,243.0,1713.112
1713122.0,214.0,261.0,237.0,231.0,1713.122
1713132.0,212.0,260.0,229.0,234.0,1713.132
1713142.0,215.0,258.0,222.0,236.0,1713.142
1713152.0,217.0,264.0,214.0,237.0,1713.152
1713162.0,220.0,265.0,207.0,245.0,1713.162
1713172.0,213.0,261.0,199.0,235.0,1713.172
1713182.0,213.0,259.0,192.0,236.0,1713.182
1713192.0,213.0,257.0,185.0,235.0,1713.192
1713202.0,216.0,264.0,179.0,238.0,1713.202
1713212.0,220.0,264.0,172.0,245.0,1713.212
1713222.0,211.0,260.0,166.0,236.0,1713.222
1713232.0,212.0,258.0,159.0,243.0,1713.232
1713242.0,206.0,255.0,154.0,236.0,1713.242
1713252.0,213.0,264.0,147.0,240.0,1713.252
1713262.0,214.0,262.0,141.0,243.0,1713.262
1713272.0,206.0,258.0,137.0,234.0,1713.272
1713282.0,209.0,257.0,130.0,240.0,1713.282
1713292.0,207.0,253.0,125.0,236.0,1713.292
1713302.0,214.0,266.0,119.0,246.0,1713.302
1713312.0,217.0,262.0,114.0,247.0,1713.312
1713323.0,209.0,256.0,109.0,235.0,1713.323
1713333.0,212.0,257.0,104.0,238.0,1713.333
1713343.0,214.0,259.0,99.0,244.0,1713.343
1713353.0,215.0,265.0,94.0,243.0,1713.353
1713363.0,216.0,260.0,90.0,244.0,1713.363
1713373.0,211.0,257.0,87.0,234.0,1713.373
1713383.0,214.0,258.0,83.0,238.0,1713.383
1713393.0,217.0,262.0,79.0,245.0,1713.393
1713403.0,217.0,263.0,75.0,243.0,1713.403
1713413.0,218.0,262.0,70.0,244.0,1713.413
1713423.0,209.0,254.0,68.0,233.0,1713.423
1713433.0,212.0,258.0,64.0,238.0,1713.433
1713443.0,216.0,261.0,61.0,241.0,1713.443
1713453.0,214.0,260.0,58.0,238.0,1713.453
1713463.0,216.0,258.0,55.0,238.0,1713.463
1713473.0,207.0,251.0,52.0,228.0,1713.473
1713483.0,208.0,253.0,49.0,231.0,1713.483
1713494.0,214.0,258.0,47.0,238.0,1713.494
1713504.0,212.0,257.0,45.0,234.0,1713.504
1713514.0,212.0,253.0,41.0,234.0,1713.514
1713524.0,204.0,246.0,40.0,227.0,1713.524
1713534.0,212.0,255.0,36.0,238.0,1713.534
1713544.0,215.0,258.0,34.0,240.0,1713.544
1713554.0,212.0,253.0,32.0,235.0,1713.554
1713564.0,211.0,255.0,30.0,235.0,1713.564
1713574.0,207.0,249.0,28.0,231.0,1713.574
1713584.0,210.0,255.0,25.0,237.0,1713.584
1713594.0,218.0,259.0,25.0,241.0,1713.594
1713604.0,210.0,254.0,22.0,237.0,1713.604
1713614.0,212.0,253.0,20.0,234.0,1713.614
1713624.0,206.0,247.0,19.0,228.0,1713.624
1713634.0,210.0,254.0,18.0,234.0,1713.634
1713644.0,215.0,257.0,16.0,240.0,1713.644
1713654.0,211.0,252.0,15.0,235.0,1713.654
1713664.0,212.0,253.0,14.0,236.0,1713.664
1713674.0,204.0,245.0,13.0,227.0,1713.674
1713684.0,210.0,255.0,12.0,235.0,1713.684
1713694.0,216.0,258.0,10.0,238.0,1713.694
1713704.0,211.0,252.0,10.0,232.0,1713.704
1713714.0,213.0,252.0,9.0,230.0,1713.714
1713724.0,206.0,243.0,10.0,223.0,1713.724
1713734.0,212.0,253.0,7.0,233.0,1713.734
1713744.0,216.0,257.0,7.0,237.0,1713.744
1713754.0,213.0,251.0,7.0,235.0,1713.754
1713764.0,211.0,252.0,7.0,231.0,1713.764
1713774.0,205.0,245.0,6.0,225.0,1713.774
1713784.0,213.0,256.0,7.0,236.0,1713.784
1713794.0,216.0,259.0,6.0,239.0,1713.794
1713804.0,213.0,253.0,6.0,236.0,1713.804
1713814.0,211.0,253.0,5.0,236.0,1713.814
1713824.0,206.0,246.0,6.0,232.0,1713.824
1713835.0,216.0,258.0,5.0,240.0,1713.835
1713845.0,218.0,260.0,5.0,240.0,1713.845
1713855.0,211.0,252.0,5.0,234.0,1713.855
1713865.0,211.0,252.0,5.0,234.0,1713.865
1713875.0,211.0,253.0,5.0,237.0,1713.875
1713885.0,214.0,258.0,4.0,241.0,1713.885
1713895.0,219.0,256.0,4.0,240.0,1713.895
1713905.0,210.0,249.0,4.0,235.0,1713.905
1713915.0,213.0,250.0,6.0,235.0,1713.915
1713925.0,209.0,247.0,4.0,235.0,1713.925
1713935.0,216.0,256.0,4.0,241.0,1713.935
1713945.0,217.0,255.0,3.0,241.0,1713.945
1713955.0,211.0,247.0,5.0,234.0,1713.955
1713965.0,214.0,251.0,4.0,237.0,1713.965
1713975.0,211.0,249.0,5.0,236.0,1713.975
1713985.0,216.0,257.0,4.0,242.0,1713.985
1713995.0,217.0,253.0,4.0,240.0,1713.995
1714006.0,210.0,247.0,4.0,235.0,1714.006
1714016.0,211.0,250.0,3.0,237.0,1714.016
1714026.0,216.0,254.0,4.0,242.0,1714.026
1714036.0,216.0,254.0,4.0,243.0,1714.036
1714046.0,214.0,253.0,5.0,239.0,1714.046
1714056.0,209.0,248.0,4.0,235.0,1714.056
1714066.0,211.0,252.0,4.0,237.0,1714.066
1714076.0,217.0,257.0,4.0,246.0,1714.076
1714086.0,218.0,255.0,4.0,244.0,1714.086
1714096.0,220.0,256.0,4.0,242.0,1714.096
1714106.0,213.0,249.0,5.0,236.0,1714.106
1714116.0,215.0,254.0,4.0,241.0,1714.116
1714126.0,220.0,256.0,4.0,247.0,1714.126
1714136.0,220.0,260.0,4.0,247.0,1714.136
1714146.0,219.0,254.0,3.0,242.0,1714.146
1714156.0,210.0,250.0,4.0,236.0,1714.156
1714166.0,213.0,257.0,4.0,243.0,1714.166
1714176.0,217.0,256.0,4.0,245.0,1714.176
1714186.0,216.0,263.0,4.0,247.0,1714.186
1714196.0,216.0,256.0,4.0,242.0,1714.196
1714206.0,209.0,252.0,3.0,236.0,1714.206
1714216.0,215.0,258.0,4.0,244.0,1714.216
1714226.0,217.0,258.0,4.0,246.0,1714.226
1714236.0,217.0,258.0,5.0,247.0,1714.236
1714246.0,216.0,257.0,4.0,242.0,1714.246
1714256.0,209.0,249.0,4.0,235.0,1714.256
1714266.0,211.0,256.0,3.0,240.0,1714.266
1714276.0,217.0,258.0,4.0,246.0,1714.276
1714286.0,216.0,259.0,4.0,245.0,1714.286
1714296.0,214.0,255.0,5.0,241.0,1714.296
1714306.0,208.0,249.0,4.0,237.0,1714.306
1714316.0,210.0,254.0,4.0,240.0,1714.316
1714326.0,216.0,258.0,4.0,247.0,1714.326
1714336.0,214.0,254.0,3.0,245.0,1714.336
1714347.0,210.0,252.0,4.0,242.0,1714.347
1714357.0,202.0,245.0,4.0,238.0,1714.357
1714367.0,211.0,256.0,4.0,246.0,1714.367
1714377.0,215.0,258.0,4.0,249.0,1714.377
1714387.0,210.0,253.0,4.0,243.0,1714.387
1714397.0,212.0,255.0,3.0,244.0,1714.397
1714407.0,205.0,248.0,4.0,240.0,1714.407
1714417.0,213.0,260.0,4.0,249.0,1714.417
1714427.0,217.0,258.0,5.0,248.0,1714.427
1714437.0,212.0,256.0,2.0,246.0,1714.437
1714447.0,212.0,254.0,3.0,244.0,1714.447
1714457.0,207.0,250.0,4.0,241.0,1714.457
1714467.0,208.0,259.0,4.0,249.0,1714.467
1714477.0,212.0,258.0,4.0,248.0,1714.477
1714487.0,207.0,260.0,4.0,245.0,1714.487
1714497.0,209.0,257.0,4.0,243.0,1714.497
1714507.0,204.0,256.0,4.0,240.0,1714.507
1714518.0,213.0,268.0,3.0,250.0,1714.518
1714528.0,214.0,260.0,3.0,246.0,1714.528
1714538.0,208.0,260.0,4.0,242.0,1714.538
1714548.0,209.0,260.0,4.0,243.0,1714.548
1714558.0,212.0,262.0,4.0,247.0,1714.558
1714568.0,214.0,267.0,4.0,249.0,1714.568
1714578.0,215.0,260.0,4.0,245.0,1714.578
1714588.0,208.0,258.0,3.0,241.0,1714.588
1714598.0,211.0,257.0,4.0,242.0,1714.598
1714608.0,210.0,256.0,3.0,244.0,1714.608
1714618.0,216.0,264.0,5.0,249.0,1714.618
1714628.0,216.0,259.0,4.0,245.0,1714.628
1714638.0,209.0,252.0,3.0,241.0,1714.638
1714648.0,212.0,255.0,3.0,244.0,1714.648
1714658.0,212.0,253.0,3.0,246.0,1714.658
1714668.0,216.0,258.0,4.0,250.0,1714.668
1714678.0,216.0,255.0,4.0,245.0,1714.678
1714688.0,213.0,249.0,4.0,243.0,1714.688
1714698.0,212.0,253.0,3.0,243.0,1714.698
1714708.0,213.0,253.0,4.0,246.0,1714.708
1714718.0,216.0,259.0,3.0,250.0,1714.718
1714728.0,216.0,256.0,3.0,246.0,1714.728
1714738.0,211.0,251.0,4.0,242.0,1714.738
1714748.0,214.0,252.0,5.0,242.0,1714.748
1714758.0,214.0,253.0,4.0,246.0,1714.758
1714768.0,216.0,254.0,4.0,248.0,1714.768
1714778.0,217.0,256.0,4.0,247.0,1714.778
1714788.0,209.0,247.0,3.0,242.0,1714.788
1714798.0,211.0,250.0,3.0,242.0,1714.798
1714808.0,214.0,253.0,5.0,248.0,1714.808
1714818.0,216.0,255.0,4.0,250.0,1714.818
1714828.0,216.0,257.0,4.0,245.0,1714.828
1714838.0,209.0,245.0,4.0,241.0,1714.838
1714848.0,210.0,250.0,3.0,243.0,1714.848
1714859.0,214.0,253.0,4.0,249.0,1714.859
1714869.0,214.0,253.0,4.0,248.0,1714.869
1714879.0,213.0,254.0,5.0,244.0,1714.879
1714889.0,206.0,244.0,4.0,239.0,1714.889
1714899.0,212.0,253.0,4.0,247.0,1714.899
1714909.0,215.0,257.0,4.0,249.0,1714.909
1714919.0,214.0,252.0,4.0,247.0,1714.919
1714929.0,213.0,252.0,4.0,243.0,1714.929
1714939.0,206.0,245.0,5.0,238.0,1714.939
1714949.0,211.0,251.0,4.0,243.0,1714.949
1714959.0,216.0,257.0,4.0,249.0,1714.959
1714969.0,214.0,255.0,4.0,247.0,1714.969
1714979.0,213.0,252.0,3.0,243.0,1714.979
1714989.0,208.0,247.0,4.0,238.0,1714.989
1714999.0,211.0,254.0,4.0,242.0,1714.999
1715009.0,217.0,257.0,4.0,249.0,1715.009
1715019.0,212.0,256.0,4.0,246.0,1715.019
1715030.0,211.0,250.0,4.0,243.0,1715.03
1715040.0,205.0,247.0,3.0,240.0,1715.04
1715050.0,213.0,258.0,4.0,248.0,1715.05
1715060.0,216.0,257.0,4.0,248.0,1715.06
1715070.0,212.0,253.0,5.0,243.0,1715.07
1715080.0,214.0,254.0,4.0,243.0,1715.08
1715090.0,208.0,249.0,4.0,240.0,1715.09
1715100.0,215.0,262.0,3.0,250.0,1715.1
1715110.0,218.0,258.0,4.0,247.0,1715.11
1715120.0,213.0,256.0,4.0,244.0,1715.12
1715130.0,213.0,255.0,5.0,243.0,1715.13
1715140.0,210.0,250.0,4.0,244.0,1715.14
1715150.0,218.0,259.0,4.0,250.0,1715.15
1715160.0,220.0,259.0,4.0,251.0,1715.16
1715170.0,214.0,256.0,3.0,245.0,1715.17
1715180.0,215.0,254.0,4.0,244.0,1715.18
1715190.0,211.0,252.0,4.0,244.0,1715.19
1715200.0,216.0,259.0,4.0,250.0,1715.2
1715210.0,218.0,259.0,4.0,249.0,1715.21
1715220.0,215.0,254.0,5.0,244.0,1715.22
1715230.0,215.0,255.0,3.0,244.0,1715.23
1715240.0,213.0,252.0,4.0,244.0,1715.24
1715250.0,216.0,258.0,4.0,248.0,1715.25
1715260.0,219.0,256.0,5.0,247.0,1715.26
1715270.0,212.0,252.0,4.0,242.0,1715.27
1715280.0,213.0,251.0,4.0,241.0,1715.28
1715290.0,208.0,248.0,3.0,240.0,1715.29
1715300.0,215.0,259.0,3.0,249.0,1715.3
1715310.0,218.0,254.0,4.0,248.0,1715.31
1715320.0,210.0,253.0,4.0,242.0,1715.32
1715330.0,213.0,252.0,4.0,243.0,1715.33
1715340.0,209.0,250.0,3.0,240.0,1715.34
1715350.0,216.0,261.0,4.0,249.0,1715.35
1715360.0,218.0,257.0,4.0,247.0,1715.36
1715371.0,210.0,250.0,4.0,240.0,1715.371
1715381.0,212.0,252.0,4.0,240.0,1715.381
1715391.0,214.0,254.0,4.0,245.0,1715.391
1715401.0,214.0,258.0,4.0,247.0,1715.401
1715411.0,214.0,253.0,4.0,242.0,1715.411
1715421.0,209.0,249.0,4.0,239.0,1715.421
1715431.0,210.0,252.0,4.0,240.0,1715.431
1715441.0,213.0,256.0,4.0,246.0,1715.441
1715451.0,214.0,259.0,5.0,246.0,1715.451
1715461.0,216.0,256.0,3.0,244.0,1715.461
1715471.0,207.0,249.0,4.0,239.0,1715.471
1715481.0,210.0,252.0,4.0,241.0,1715.481
1715491.0,215.0,256.0,4.0,248.0,1715.491
1715501.0,217.0,259.0,4.0,248.0,1715.501
1715511.0,220.0,255.0,4.0,245.0,1715.511
1715521.0,211.0,249.0,4.0,241.0,1715.521
1715531.0,212.0,252.0,4.0,243.0,1715.531
1715542.0,218.0,256.0,4.0,249.0,1715.542
1715552.0,214.0,258.0,3.0,248.0,1715.552
1715562.0,214.0,254.0,4.0,243.0,1715.562
1715572.0,206.0,248.0,4.0,237.0,1715.572
1715582.0,214.0,259.0,5.0,247.0,1715.582
1715592.0,216.0,259.0,3.0,248.0,1715.592
1715602.0,212.0,254.0,4.0,245.0,1715.602
1715612.0,212.0,254.0,3.0,243.0,1715.612
1715622.0,205.0,245.0,4.0,237.0,1715.622
1715632.0,205.0,252.0,4.0,242.0,1715.632
1715642.0,212.0,257.0,4.0,247.0,1715.642
1715652.0,209.0,255.0,4.0,243.0,1715.652
1715662.0,208.0,253.0,4.0,241.0,1715.662
1715672.0,203.0,247.0,4.0,236.0,1715.672
1715682.0,209.0,255.0,3.0,243.0,1715.682
1715692.0,215.0,258.0,4.0,247.0,1715.692
1715702.0,210.0,253.0,4.0,242.0,1715.702
1715712.0,212.0,255.0,5.0,240.0,1715.712
1715722.0,205.0,246.0,4.0,236.0,1715.722
1715732.0,211.0,253.0,4.0,244.0,1715.732
1715742.0,216.0,259.0,4.0,248.0,1715.742
1715752.0,213.0,250.0,4.0,243.0,1715.752
1715762.0,216.0,254.0,4.0,242.0,1715.762
1715772.0,208.0,245.0,5.0,235.0,1715.772
1715782.0,213.0,253.0,3.0,244.0,1715.782
1715792.0,217.0,256.0,4.0,246.0,1715.792
1715802.0,214.0,255.0,3.0,243.0,1715.802
1715812.0,212.0,254.0,3.0,240.0,1715.812
1715822.0,204.0,244.0,4.0,235.0,1715.822
1715832.0,211.0,253.0,4.0,243.0,1715.832
1715842.0,216.0,253.0,5.0,245.0,1715.842
1715852.0,210.0,251.0,3.0,242.0,1715.852
1715862.0,210.0,250.0,4.0,239.0,1715.862
1715872.0,204.0,248.0,3.0,235.0,1715.872
1715883.0,212.0,257.0,4.0,243.0,1715.883
1715893.0,215.0,259.0,3.0,243.0,1715.893
1715903.0,209.0,250.0,5.0,236.0,1715.903
1715913.0,210.0,252.0,4.0,237.0,1715.913
1715923.0,209.0,252.0,4.0,240.0,1715.923
1715933.0,213.0,258.0,4.0,243.0,1715.933
1715943.0,216.0,258.0,4.0,242.0,1715.943
1715953.0,208.0,251.0,4.0,237.0,1715.953
1715963.0,210.0,253.0,4.0,237.0,1715.963
1715973.0,207.0,250.0,4.0,237.0,1715.973
1715983.0,210.0,257.0,3.0,244.0,1715.983
1715993.0,212.0,256.0,4.0,244.0,1715.993
1716003.0,205.0,248.0,3.0,237.0,1716.003
1716013.0,208.0,252.0,4.0,238.0,1716.013
1716023.0,205.0,249.0,4.0,239.0,1716.023
1716033.0,211.0,257.0,5.0,244.0,1716.033
1716043.0,212.0,256.0,3.0,241.0,1716.043
1716054.0,205.0,246.0,4.0,235.0,1716.054
1716064.0,208.0,251.0,3.0,237.0,1716.064
1716074.0,211.0,254.0,4.0,242.0,1716.074
1716084.0,211.0,253.0,4.0,242.0,1716.084
1716094.0,212.0,253.0,5.0,239.0,1716.094
1716104.0,209.0,247.0,4.0,236.0,1716.104
1716114.0,211.0,251.0,4.0,238.0,1716.114
1716124.0,217.0,255.0,4.0,246.0,1716.124
1716134.0,214.0,254.0,3.0,244.0,1716.134
1716144.0,215.0,254.0,4.0,243.0,1716.144
1716154.0,207.0,245.0,4.0,237.0,1716.154
1716164.0,210.0,250.0,4.0,239.0,1716.164
1716174.0,215.0,255.0,3.0,244.0,1716.174
1716184.0,216.0,256.0,4.0,243.0,1716.184
1716194.0,216.0,254.0,3.0,240.0,1716.194
1716204.0,208.0,246.0,4.0,234.0,1716.204
1716214.0,210.0,250.0,3.0,240.0,1716.214
1716224.0,214.0,251.0,5.0,243.0,1716.224
1716234.0,215.0,254.0,3.0,245.0,1716.234
1716244.0,218.0,252.0,3.0,241.0,1716.244
1716254.0,209.0,245.0,3.0,235.0,1716.254
1716264.0,214.0,252.0,4.0,239.0,1716.264
1716274.0,217.0,254.0,3.0,243.0,1716.274
1716284.0,216.0,253.0,4.0,245.0,1716.284
1716294.0,215.0,253.0,4.0,241.0,1716.294
1716304.0,207.0,244.0,4.0,234.0,1716.304
1716314.0,212.0,250.0,4.0,239.0,1716.314
1716324.0,216.0,254.0,4.0,245.0,1716.324
1716334.0,214.0,253.0,4.0,243.0,1716.334
1716344.0,213.0,251.0,4.0,241.0,1716.344
1716354.0,208.0,246.0,4.0,235.0,1716.354
1716364.0,212.0,251.0,4.0,239.0,1716.364
1716374.0,217.0,254.0,4.0,244.0,1716.374
1716384.0,214.0,254.0,3.0,242.0,1716.384
1716395.0,213.0,252.0,4.0,238.0,1716.395
1716405.0,205.0,244.0,4.0,233.0,1716.405
1716415.0,213.0,254.0,5.0,242.0,1716.415
1716425.0,217.0,257.0,4.0,245.0,1716.425
1716435.0,211.0,253.0,4.0,238.0,1716.435
1716445.0,213.0,254.0,4.0,239.0,1716.445
1716455.0,206.0,249.0,3.0,234.0,1716.455
1716465.0,213.0,259.0,4.0,243.0,1716.465
1716475.0,217.0,260.0,5.0,244.0,1716.475
1716485.0,216.0,256.0,4.0,241.0,1716.485
1716495.0,216.0,254.0,4.0,239.0,1716.495
1716505.0,209.0,248.0,4.0,235.0,1716.505
1716515.0,217.0,262.0,3.0,245.0,1716.515
1716525.0,219.0,260.0,4.0,244.0,1716.525
1716535.0,213.0,258.0,4.0,240.0,1716.535
1716545.0,214.0,254.0,5.0,240.0,1716.545
1716555.0,210.0,251.0,4.0,237.0,1716.555
1716566.0,216.0,261.0,4.0,247.0,1716.566
1716576.0,217.0,256.0,3.0,246.0,1716.576
1716586.0,208.0,252.0,4.0,238.0,1716.586
1716596.0,210.0,253.0,4.0,239.0,1716.596
1716606.0,213.0,256.0,4.0,243.0,1716.606
1716616.0,215.0,261.0,4.0,245.0,1716.616
1716626.0,216.0,258.0,3.0,243.0,1716.626
1716636.0,208.0,250.0,4.0,236.0,1716.636
1716646.0,211.0,253.0,3.0,237.0,1716.646
1716656.0,210.0,250.0,4.0,239.0,1716.656
1716666.0,215.0,258.0,4.0,244.0,1716.666
1716676.0,217.0,258.0,5.0,241.0,1716.676
1716686.0,208.0,249.0,4.0,235.0,1716.686
1716696.0,212.0,252.0,4.0,237.0,1716.696
1716706.0,211.0,250.0,3.0,238.0,1716.706
1716716.0,217.0,258.0,4.0,242.0,1716.716
1716726.0,217.0,253.0,4.0,239.0,1716.726
1716736.0,212.0,250.0,4.0,235.0,1716.736
1716746.0,211.0,251.0,4.0,237.0,1716.746
1716756.0,212.0,250.0,3.0,239.0,1716.756
1716766.0,215.0,256.0,3.0,244.0,1716.766
1716776.0,215.0,254.0,4.0,240.0,1716.776
1716786.0,210.0,247.0,4.0,235.0,1716.786
1716796.0,208.0,250.0,4.0,235.0,1716.796
1716806.0,210.0,251.0,4.0,239.0,1716.806
1716816.0,212.0,256.0,4.0,241.0,1716.816
1716826.0,215.0,256.0,4.0,241.0,1716.826
1716836.0,208.0,251.0,3.0,235.0,1716.836
1716846.0,210.0,251.0,4.0,235.0,1716.846
1716856.0,212.0,253.0,4.0,241.0,1716.856
1716866.0,215.0,258.0,5.0,242.0,1716.866
1716876.0,216.0,256.0,4.0,240.0,1716.876
1716886.0,208.0,248.0,4.0,233.0,1716.886
1716896.0,210.0,251.0,3.0,236.0,1716.896
1716907.0,213.0,254.0,4.0,240.0,1716.907
1716917.0,213.0,256.0,4.0,240.0,1716.917
1716927.0,213.0,253.0,4.0,237.0,1716.927
1716937.0,208.0,245.0,3.0,231.0,1716.937
1716947.0,215.0,252.0,4.0,239.0,1716.947
1716957.0,217.0,253.0,3.0,243.0,1716.957
1716967.0,216.0,255.0,3.0,240.0,1716.967
1716977.0,214.0,252.0,4.0,239.0,1716.977
1716987.0,207.0,243.0,4.0,232.0,1716.987
1716997.0,212.0,249.0,4.0,237.0,1716.997
1717007.0,216.0,253.0,4.0,244.0,1717.007
1717017.0,214.0,252.0,3.0,241.0,1717.017
1717027.0,213.0,252.0,3.0,239.0,1717.027
1717037.0,208.0,245.0,4.0,232.0,1717.037
1717047.0,210.0,250.0,3.0,238.0,1717.047
1717057.0,217.0,256.0,5.0,243.0,1717.057
1717067.0,212.0,255.0,4.0,240.0,1717.067
1717078.0,212.0,251.0,4.0,239.0,1717.078
1717088.0,206.0,247.0,3.0,234.0,1717.088
1717098.0,213.0,258.0,4.0,242.0,1717.098
1717108.0,217.0,258.0,4.0,244.0,1717.108
1717118.0,210.0,254.0,3.0,235.0,1717.118
1717128.0,212.0,254.0,4.0,238.0,1717.128
1717138.0,206.0,250.0,4.0,234.0,1717.138
1717148.0,210.0,261.0,3.0,242.0,1717.148
1717158.0,212.0,261.0,3.0,242.0,1717.158
1717168.0,208.0,254.0,4.0,239.0,1717.168
1717178.0,209.0,255.0,3.0,238.0,1717.178
1717188.0,206.0,249.0,5.0,235.0,1717.188
1717198.0,212.0,257.0,4.0,244.0,1717.198
1717208.0,215.0,260.0,4.0,245.0,1717.208
1717218.0,210.0,253.0,3.0,240.0,1717.218
1717228.0,210.0,253.0,4.0,238.0,1717.228
1717238.0,207.0,249.0,4.0,237.0,1717.238
1717248.0,212.0,256.0,5.0,241.0,1717.248
1717258.0,216.0,261.0,3.0,243.0,1717.258
1717268.0,210.0,249.0,4.0,237.0,1717.268
1717278.0,210.0,254.0,3.0,238.0,1717.278
1717288.0,208.0,250.0,3.0,237.0,1717.288
1717298.0,208.0,255.0,4.0,240.0,1717.298
1717308.0,212.0,258.0,4.0,242.0,1717.308
1717318.0,206.0,249.0,4.0,236.0,1717.318
1717328.0,207.0,251.0,4.0,235.0,1717.328
1717338.0,202.0,245.0,4.0,232.0,1717.338
1717348.0,210.0,255.0,3.0,243.0,1717.348
1717358.0,214.0,256.0,3.0,242.0,1717.358
1717368.0,206.0,247.0,4.0,234.0,1717.368
1717378.0,209.0,252.0,5.0,236.0,1717.378
1717388.0,204.0,245.0,4.0,231.0,1717.388
1717398.0,212.0,255.0,4.0,240.0,1717.398
1717408.0,214.0,258.0,3.0,241.0,1717.408
1717419.0,207.0,247.0,3.0,234.0,1717.419
1717429.0,211.0,250.0,3.0,236.0,1717.429
1717439.0,213.0,250.0,5.0,241.0,1717.439
1717449.0,214.0,254.0,4.0,241.0,1717.449
1717459.0,214.0,253.0,4.0,239.0,1717.459
1717469.0,208.0,248.0,4.0,234.0,1717.469
1717479.0,210.0,250.0,3.0,236.0,1717.479
1717489.0,214.0,251.0,4.0,242.0,1717.489
1717499.0,214.0,253.0,4.0,240.0,1717.499
1717509.0,217.0,253.0,4.0,240.0,1717.509
1717519.0,208.0,246.0,3.0,232.0,1717.519
1717529.0,210.0,248.0,4.0,235.0,1717.529
1717539.0,214.0,252.0,3.0,242.0,1717.539
1717549.0,214.0,254.0,5.0,242.0,1717.549
1717559.0,215.0,256.0,8.0,239.0,1717.559
1717569.0,208.0,246.0,15.0,231.0,1717.569
1717579.0,206.0,249.0,12.0,235.0,1717.579
1717590.0,211.0,251.0,20.0,241.0,1717.59
1717600.0,209.0,250.0,25.0,240.0,1717.6
1717610.0,209.0,248.0,24.0,237.0,1717.61
1717620.0,202.0,241.0,33.0,230.0,1717.62
1717630.0,211.0,252.0,31.0,241.0,1717.63
1717640.0,214.0,251.0,38.0,242.0,1717.64
1717650.0,211.0,249.0,44.0,239.0,1717.65
1717660.0,211.0,249.0,42.0,237.0,1717.66
1717670.0,205.0,243.0,51.0,232.0,1717.67
1717680.0,209.0,250.0,46.0,237.0,1717.68
1717690.0,215.0,253.0,55.0,242.0,1717.69
1717700.0,213.0,251.0,63.0,238.0,1717.7
1717710.0,212.0,251.0,58.0,237.0,1717.71
1717720.0,207.0,244.0,70.0,230.0,1717.72
1717730.0,211.0,252.0,62.0,238.0,1717.73
1717740.0,217.0,255.0,71.0,242.0,1717.74
1717750.0,213.0,250.0,81.0,237.0,1717.75
1717760.0,213.0,251.0,75.0,238.0,1717.76
1717770.0,205.0,243.0,86.0,230.0,1717.77
1717780.0,210.0,252.0,80.0,238.0,1717.78
1717790.0,215.0,255.0,89.0,243.0,1717.79
1717800.0,210.0,250.0,99.0,236.0,1717.8
1717810.0,211.0,250.0,90.0,238.0,1717.81
1717820.0,204.0,243.0,104.0,230.0,1717.82
1717830.0,212.0,251.0,100.0,240.0,1717.83
1717840.0,215.0,254.0,104.0,243.0,1717.84
1717850.0,212.0,251.0,116.0,239.0,1717.85
1717860.0,211.0,252.0,105.0,238.0,1717.86
1717870.0,205.0,242.0,120.0,230.0,1717.87
1717880.0,212.0,254.0,118.0,240.0,1717.88
1717890.0,215.0,254.0,121.0,243.0,1717.89
1717900.0,213.0,257.0,132.0,238.0,1717.9
1717910.0,212.0,252.0,120.0,237.0,1717.91
1717920.0,207.0,248.0,136.0,232.0,1717.92
1717931.0,215.0,258.0,139.0,240.0,1717.931
1717941.0,218.0,259.0,136.0,244.0,1717.941
1717951.0,212.0,253.0,151.0,234.0,1717.951
1717961.0,213.0,253.0,137.0,235.0,1717.961
1717971.0,212.0,253.0,150.0,238.0,1717.971
1717981.0,216.0,261.0,156.0,241.0,1717.981
1717991.0,221.0,258.0,150.0,242.0,1717.991
1718001.0,212.0,254.0,164.0,233.0,1718.001
1718011.0,213.0,254.0,152.0,234.0,1718.011
1718021.0,210.0,249.0,165.0,232.0,1718.021
1718031.0,216.0,258.0,171.0,240.0,1718.031
1718041.0,219.0,257.0,164.0,241.0,1718.041
1718051.0,210.0,250.0,176.0,234.0,1718.051
1718061.0,214.0,252.0,164.0,236.0,1718.061
1718071.0,210.0,249.0,176.0,236.0,1718.071
1718081.0,218.0,258.0,184.0,242.0,1718.081
1718091.0,219.0,255.0,176.0,241.0,1718.091
1718102.0,211.0,250.0,190.0,233.0,1718.102
1718112.0,212.0,253.0,178.0,237.0,1718.112
1718122.0,215.0,256.0,185.0,241.0,1718.122
1718132.0,212.0,260.0,195.0,241.0,1718.132
1718142.0,211.0,254.0,182.0,238.0,1718.142
1718152.0,207.0,252.0,196.0,232.0,1718.152
1718162.0,208.0,255.0,186.0,236.0,1718.162
1718172.0,215.0,257.0,193.0,242.0,1718.172
1718182.0,214.0,262.0,203.0,241.0,1718.182
1718192.0,215.0,256.0,193.0,240.0,1718.192
1718202.0,208.0,254.0,205.0,232.0,1718.202
1718212.0,211.0,257.0,199.0,236.0,1718.212
1718222.0,216.0,260.0,201.0,242.0,1718.222
1718232.0,217.0,262.0,213.0,241.0,1718.232
1718242.0,215.0,258.0,201.0,239.0,1718.242
1718252.0,208.0,253.0,212.0,231.0,1718.252
1718262.0,211.0,256.0,207.0,236.0,1718.262
1718272.0,213.0,255.0,211.0,239.0,1718.272
1718282.0,215.0,262.0,221.0,240.0,1718.282
1718292.0,214.0,255.0,208.0,238.0,1718.292
1718302.0,208.0,253.0,220.0,230.0,1718.302
1718312.0,212.0,258.0,217.0,238.0,1718.312
1718322.0,215.0,257.0,219.0,241.0,1718.322
1718332.0,216.0,263.0,229.0,241.0,1718.332
1718342.0,216.0,256.0,217.0,238.0,1718.342
1718352.0,207.0,253.0,226.0,230.0,1718.352
1718362.0,212.0,255.0,222.0,235.0,1718.362
1718372.0,215.0,257.0,226.0,242.0,1718.372
1718382.0,215.0,261.0,236.0,239.0,1718.382
1718392.0,214.0,257.0,224.0,237.0,1718.392
1718402.0,209.0,255.0,235.0,231.0,1718.402
1718412.0,211.0,257.0,227.0,234.0,1718.412
1718422.0,215.0,260.0,232.0,242.0,1718.422
1718432.0,216.0,263.0,242.0,239.0,1718.432
1718443.0,214.0,258.0,230.0,237.0,1718.443
1718453.0,207.0,252.0,235.0,230.0,1718.453
1718463.0,214.0,263.0,239.0,239.0,1718.463
1718473.0,218.0,261.0,237.0,242.0,1718.473
1718483.0,208.0,257.0,242.0,235.0,1718.483
1718493.0,210.0,256.0,232.0,237.0,1718.493
1718503.0,204.0,248.0,237.0,229.0,1718.503
1718513.0,212.0,262.0,242.0,238.0,1718.513
1718523.0,216.0,260.0,239.0,240.0,1718.523
1718533.0,212.0,259.0,246.0,236.0,1718.533
1718543.0,211.0,257.0,234.0,236.0,1718.543
1718553.0,207.0,250.0,239.0,231.0,1718.553
1718563.0,214.0,262.0,245.0,241.0,1718.563
1718573.0,217.0,260.0,241.0,242.0,1718.573
1718583.0,215.0,258.0,247.0,237.0,1718.583
1718593.0,215.0,255.0,236.0,236.0,1718.593
1718603.0,210.0,249.0,240.0,232.0,1718.603
1718614.0,217.0,260.0,248.0,240.0,1718.614
1718624.0,219.0,257.0,240.0,242.0,1718.624
1718634.0,211.0,252.0,246.0,233.0,1718.634
1718644.0,212.0,252.0,237.0,236.0,1718.644
1718654.0,214.0,253.0,243.0,240.0,1718.654
1718664.0,217.0,259.0,250.0,241.0,1718.664
1718674.0,218.0,256.0,240.0,240.0,1718.674
1718684.0,211.0,250.0,247.0,233.0,1718.684
1718694.0,211.0,253.0,238.0,235.0,1718.694
1718704.0,210.0,250.0,242.0,236.0,1718.704
1718714.0,216.0,259.0,250.0,242.0,1718.714
1718724.0,218.0,256.0,241.0,240.0,1718.724
1718734.0,211.0,250.0,245.0,232.0,1718.734
1718744.0,215.0,253.0,238.0,236.0,1718.744
1718754.0,213.0,251.0,243.0,237.0,1718.754
1718764.0,217.0,257.0,250.0,240.0,1718.764
1718774.0,217.0,253.0,239.0,240.0,1718.774
1718784.0,211.0,250.0,247.0,234.0,1718.784
1718794.0,213.0,250.0,240.0,235.0,1718.794
1718804.0,211.0,250.0,244.0,239.0,1718.804
1718814.0,215.0,255.0,252.0,241.0,1718.814
1718824.0,214.0,252.0,240.0,240.0,1718.824
1718834.0,212.0,249.0,250.0,235.0,1718.834
1718844.0,213.0,251.0,241.0,237.0,1718.844
1718854.0,214.0,251.0,248.0,242.0,1718.854
1718864.0,216.0,258.0,255.0,243.0,1718.864
1718874.0,218.0,255.0,246.0,244.0,1718.874
1718884.0,210.0,254.0,250.0,236.0,1718.884
1718894.0,211.0,255.0,243.0,236.0,1718.894
1718904.0,214.0,258.0,249.0,242.0,1718.904
1718914.0,215.0,264.0,254.0,243.0,1718.914
1718924.0,216.0,258.0,245.0,242.0,1718.924
1718934.0,208.0,255.0,250.0,234.0,1718.934
1718944.0,211.0,255.0,242.0,237.0,1718.944
1718955.0,213.0,257.0,248.0,244.0,1718.955
1718965.0,213.0,262.0,255.0,243.0,1718.965
1718975.0,213.0,256.0,242.0,239.0,1718.975
1718985.0,206.0,251.0,247.0,232.0,1718.985
1718995.0,212.0,261.0,247.0,240.0,1718.995
1719005.0,216.0,261.0,250.0,243.0,1719.005
1719015.0,215.0,265.0,254.0,241.0,1719.015
1719025.0,214.0,259.0,243.0,239.0,1719.025
1719035.0,207.0,254.0,246.0,232.0,1719.035
1719045.0,211.0,259.0,244.0,236.0,1719.045
1719055.0,216.0,263.0,249.0,243.0,1719.055
1719065.0,211.0,265.0,255.0,239.0,1719.065
1719075.0,210.0,260.0,242.0,239.0,1719.075
1719085.0,206.0,257.0,248.0,232.0,1719.085
1719095.0,209.0,261.0,245.0,237.0,1719.095
1719105.0,215.0,265.0,250.0,243.0,1719.105
1719115.0,212.0,263.0,253.0,238.0,1719.115
1719126.0,211.0,259.0,242.0,236.0,1719.126
1719136.0,206.0,254.0,245.0,231.0,1719.136
1719146.0,214.0,265.0,251.0,241.0,1719.146
1719156.0,217.0,263.0,246.0,243.0,1719.156
1719166.0,211.0,258.0,251.0,235.0,1719.166
1719176.0,213.0,258.0,243.0,237.0,1719.176
1719186.0,207.0,253.0,245.0,233.0,1719.186
1719196.0,212.0,263.0,253.0,240.0,1719.196
1719206.0,214.0,260.0,244.0,242.0,1719.206
1719216.0,210.0,258.0,252.0,236.0,1719.216
1719226.0,210.0,256.0,243.0,238.0,1719.226
1719236.0,206.0,252.0,247.0,234.0,1719.236
1719246.0,215.0,262.0,254.0,242.0,1719.246
1719256.0,217.0,261.0,250.0,243.0,1719.256
1719266.0,213.0,257.0,253.0,236.0,1719.266
1719276.0,212.0,255.0,243.0,236.0,1719.276
1719286.0,210.0,253.0,247.0,235.0,1719.286
1719296.0,216.0,260.0,249.0,239.0,1719.296
1719306.0,221.0,260.0,249.0,243.0,1719.306
1719316.0,214.0,257.0,250.0,236.0,1719.316
1719326.0,215.0,255.0,242.0,236.0,1719.326
1719336.0,212.0,254.0,245.0,237.0,1719.336
1719346.0,215.0,259.0,249.0,240.0,1719.346
1719356.0,218.0,261.0,245.0,244.0,1719.356
1719366.0,214.0,255.0,247.0,233.0,1719.366
1719376.0,213.0,255.0,239.0,235.0,1719.376
1719386.0,209.0,249.0,241.0,231.0,1719.386
1719396.0,216.0,260.0,248.0,241.0,1719.396
1719406.0,221.0,260.0,242.0,241.0,1719.406
1719416.0,215.0,252.0,244.0,233.0,1719.416
1719426.0,216.0,255.0,237.0,236.0,1719.426
1719436.0,211.0,250.0,239.0,232.0,1719.436
1719446.0,218.0,262.0,246.0,241.0,1719.446
1719456.0,220.0,259.0,240.0,242.0,1719.456
1719467.0,213.0,253.0,242.0,234.0,1719.467
1719477.0,214.0,256.0,236.0,235.0,1719.477
1719487.0,216.0,260.0,242.0,238.0,1719.487
1719497.0,218.0,264.0,247.0,239.0,1719.497
1719507.0,217.0,259.0,236.0,238.0,1719.507
1719517.0,213.0,253.0,241.0,232.0,1719.517
1719527.0,213.0,258.0,234.0,234.0,1719.527
1719537.0,217.0,263.0,241.0,240.0,1719.537
1719547.0,216.0,265.0,245.0,241.0,1719.547
1719557.0,218.0,263.0,237.0,240.0,1719.557
1719567.0,210.0,255.0,240.0,233.0,1719.567
1719577.0,210.0,256.0,236.0,235.0,1719.577
1719587.0,215.0,259.0,242.0,243.0,1719.587
1719597.0,215.0,261.0,247.0,241.0,1719.597
1719607.0,216.0,257.0,237.0,240.0,1719.607
1719617.0,209.0,249.0,241.0,232.0,1719.617
1719627.0,210.0,252.0,237.0,235.0,1719.627
1719638.0,215.0,256.0,243.0,242.0,1719.638
1719648.0,216.0,256.0,246.0,238.0,1719.648
1719658.0,217.0,255.0,235.0,238.0,1719.658
1719668.0,209.0,248.0,236.0,230.0,1719.668
1719678.0,217.0,256.0,241.0,239.0,1719.678
1719688.0,220.0,256.0,243.0,243.0,1719.688
1719698.0,217.0,255.0,245.0,239.0,1719.698
1719708.0,214.0,252.0,235.0,237.0,1719.708
1719718.0,208.0,245.0,236.0,230.0,1719.718
1719728.0,212.0,252.0,236.0,236.0,1719.728
1719738.0,218.0,256.0,242.0,242.0,1719.738
1719748.0,214.0,255.0,244.0,236.0,1719.748
1719758.0,214.0,251.0,234.0,235.0,1719.758
1719768.0,208.0,246.0,238.0,229.0,1719.768
1719778.0,213.0,253.0,240.0,236.0,1719.778
1719788.0,220.0,258.0,243.0,242.0,1719.788
1719798.0,215.0,256.0,245.0,236.0,1719.798
1719808.0,216.0,253.0,236.0,238.0,1719.808
1719818.0,209.0,248.0,240.0,228.0,1719.818
1719828.0,213.0,256.0,241.0,236.0,1719.828
1719838.0,219.0,259.0,243.0,241.0,1719.838
1719848.0,212.0,255.0,245.0,235.0,1719.848
1719858.0,214.0,255.0,237.0,236.0,1719.858
1719868.0,206.0,247.0,240.0,229.0,1719.868
1719878.0,213.0,257.0,244.0,238.0,1719.878
1719888.0,217.0,259.0,244.0,241.0,1719.888
1719898.0,213.0,258.0,248.0,236.0,1719.898
1719908.0,213.0,254.0,238.0,235.0,1719.908
1719918.0,206.0,248.0,239.0,228.0,1719.918
1719928.0,213.0,257.0,244.0,238.0,1719.928
1719938.0,217.0,259.0,244.0,241.0,1719.938
1719948.0,215.0,255.0,246.0,235.0,1719.948
1719958.0,213.0,254.0,236.0,235.0,1719.958
1719968.0,206.0,248.0,237.0,229.0,1719.968
