time (ms),signal 0,signal 1,signal 2,signal 3,time (sec)
1695403.0,212.0,260.0,202.0,248.0,1695.403
1695413.0,215.0,255.0,200.0,243.0,1695.413
1695423.0,204.0,250.0,191.0,237.0,1695.423
1695433.0,209.0,255.0,195.0,240.0,1695.433
1695443.0,215.0,257.0,205.0,247.0,1695.443
1695453.0,210.0,259.0,199.0,247.0,1695.453
1695463.0,211.0,254.0,199.0,242.0,1695.463
1695473.0,202.0,249.0,190.0,239.0,1695.473
1695483.0,206.0,253.0,194.0,243.0,1695.483
1695493.0,209.0,257.0,199.0,247.0,1695.493
1695503.0,209.0,260.0,198.0,247.0,1695.503
1695513.0,210.0,254.0,197.0,243.0,1695.513
1695523.0,203.0,250.0,189.0,239.0,1695.523
1695533.0,209.0,254.0,193.0,243.0,1695.533
1695543.0,214.0,259.0,201.0,250.0,1695.543
1695553.0,213.0,260.0,200.0,250.0,1695.553
1695563.0,213.0,256.0,197.0,244.0,1695.563
1695574.0,204.0,248.0,189.0,239.0,1695.574
1695584.0,210.0,257.0,197.0,246.0,1695.584
1695594.0,215.0,258.0,204.0,248.0,1695.594
1695604.0,208.0,255.0,195.0,245.0,1695.604
1695614.0,209.0,254.0,197.0,242.0,1695.614
1695624.0,203.0,250.0,189.0,240.0,1695.624
1695634.0,211.0,260.0,199.0,248.0,1695.634
1695644.0,216.0,260.0,204.0,250.0,1695.644
1695654.0,210.0,260.0,194.0,244.0,1695.654
1695664.0,213.0,258.0,198.0,246.0,1695.664
1695674.0,206.0,254.0,190.0,241.0,1695.674
1695684.0,213.0,264.0,200.0,250.0,1695.684
1695694.0,217.0,262.0,205.0,249.0,1695.694
1695704.0,213.0,259.0,196.0,247.0,1695.704
1695714.0,213.0,256.0,197.0,244.0,1695.714
1695724.0,206.0,253.0,189.0,241.0,1695.724
1695734.0,214.0,265.0,199.0,250.0,1695.734
1695744.0,217.0,263.0,205.0,250.0,1695.744
1695754.0,212.0,263.0,196.0,247.0,1695.754
1695764.0,214.0,260.0,199.0,244.0,1695.764
1695774.0,207.0,258.0,193.0,242.0,1695.774
1695784.0,214.0,269.0,202.0,250.0,1695.784
1695794.0,215.0,267.0,206.0,249.0,1695.794
1695804.0,209.0,262.0,193.0,244.0,1695.804
1695814.0,209.0,259.0,197.0,243.0,1695.814
1695824.0,206.0,257.0,194.0,242.0,1695.824
1695834.0,212.0,266.0,200.0,247.0,1695.834
1695844.0,216.0,265.0,206.0,248.0,1695.844
1695854.0,209.0,261.0,192.0,243.0,1695.854
1695864.0,211.0,261.0,198.0,242.0,1695.864
1695874.0,204.0,255.0,188.0,237.0,1695.874
1695884.0,213.0,266.0,198.0,247.0,1695.884
1695894.0,219.0,265.0,209.0,247.0,1695.894
1695904.0,209.0,260.0,192.0,243.0,1695.904
1695915.0,211.0,259.0,198.0,241.0,1695.915
1695925.0,209.0,260.0,198.0,245.0,1695.925
1695935.0,213.0,268.0,201.0,248.0,1695.935
1695945.0,215.0,260.0,209.0,245.0,1695.945
1695955.0,206.0,257.0,192.0,240.0,1695.955
1695965.0,209.0,260.0,203.0,242.0,1695.965
1695975.0,210.0,260.0,205.0,245.0,1695.975
1695985.0,213.0,263.0,203.0,250.0,1695.985
1695995.0,214.0,261.0,214.0,246.0,1695.995
1696005.0,208.0,255.0,197.0,244.0,1696.005
1696015.0,209.0,256.0,208.0,243.0,1696.015
1696025.0,211.0,259.0,213.0,247.0,1696.025
1696035.0,210.0,260.0,208.0,249.0,1696.035
1696045.0,214.0,260.0,226.0,248.0,1696.045
1696055.0,205.0,254.0,203.0,243.0,1696.055
1696065.0,207.0,255.0,216.0,242.0,1696.065
1696075.0,211.0,260.0,223.0,247.0,1696.075
1696086.0,212.0,259.0,216.0,247.0,1696.086
1696096.0,211.0,254.0,232.0,244.0,1696.096
1696106.0,203.0,248.0,212.0,237.0,1696.106
1696116.0,209.0,256.0,226.0,245.0,1696.116
1696126.0,214.0,260.0,243.0,249.0,1696.126
1696136.0,211.0,259.0,226.0,247.0,1696.136
1696146.0,213.0,256.0,247.0,244.0,1696.146
1696156.0,204.0,250.0,227.0,238.0,1696.156
1696166.0,208.0,257.0,241.0,245.0,1696.166
1696176.0,213.0,260.0,254.0,247.0,1696.176
1696186.0,211.0,258.0,241.0,246.0,1696.186
1696196.0,211.0,256.0,263.0,244.0,1696.196
1696206.0,202.0,247.0,245.0,238.0,1696.206
1696216.0,208.0,254.0,262.0,243.0,1696.216
1696226.0,214.0,261.0,276.0,250.0,1696.226
1696236.0,211.0,256.0,261.0,248.0,1696.236
1696246.0,211.0,256.0,286.0,245.0,1696.246
1696256.0,205.0,248.0,266.0,240.0,1696.256
1696266.0,208.0,254.0,284.0,244.0,1696.266
1696276.0,217.0,261.0,301.0,250.0,1696.276
1696286.0,212.0,256.0,283.0,247.0,1696.286
1696296.0,212.0,256.0,309.0,245.0,1696.296
1696306.0,205.0,248.0,290.0,239.0,1696.306
1696316.0,209.0,255.0,308.0,243.0,1696.316
1696326.0,216.0,260.0,325.0,249.0,1696.326
1696336.0,211.0,256.0,306.0,245.0,1696.336
1696346.0,214.0,256.0,336.0,243.0,1696.346
1696356.0,205.0,248.0,314.0,239.0,1696.356
1696366.0,210.0,254.0,332.0,246.0,1696.366
1696376.0,216.0,261.0,352.0,251.0,1696.376
1696386.0,213.0,258.0,331.0,248.0,1696.386
1696396.0,213.0,256.0,361.0,245.0,1696.396
1696406.0,206.0,247.0,342.0,237.0,1696.406
1696416.0,210.0,257.0,358.0,246.0,1696.416
1696427.0,217.0,260.0,381.0,251.0,1696.427
1696437.0,211.0,254.0,358.0,247.0,1696.437
1696447.0,213.0,255.0,390.0,244.0,1696.447
1696457.0,210.0,252.0,381.0,244.0,1696.457
1696467.0,216.0,261.0,383.0,251.0,1696.467
1696477.0,219.0,261.0,414.0,250.0,1696.477
1696487.0,211.0,256.0,389.0,244.0,1696.487
1696497.0,213.0,256.0,419.0,244.0,1696.497
1696507.0,211.0,255.0,414.0,244.0,1696.507
1696517.0,215.0,262.0,417.0,248.0,1696.517
1696527.0,219.0,262.0,445.0,249.0,1696.527
1696537.0,212.0,256.0,423.0,243.0,1696.537
1696547.0,212.0,257.0,452.0,242.0,1696.547
1696557.0,207.0,251.0,437.0,238.0,1696.557
1696567.0,213.0,261.0,447.0,242.0,1696.567
1696577.0,219.0,260.0,477.0,242.0,1696.577
1696587.0,209.0,254.0,450.0,238.0,1696.587
1696598.0,211.0,255.0,480.0,236.0,1696.598
1696608.0,212.0,256.0,478.0,240.0,1696.608
1696618.0,214.0,263.0,468.0,243.0,1696.618
1696628.0,215.0,258.0,501.0,242.0,1696.628
1696638.0,206.0,252.0,474.0,234.0,1696.638
1696648.0,210.0,257.0,502.0,239.0,1696.648
1696658.0,212.0,259.0,500.0,244.0,1696.658
1696668.0,215.0,263.0,488.0,246.0,1696.668
1696678.0,215.0,261.0,521.0,243.0,1696.678
1696688.0,210.0,256.0,493.0,239.0,1696.688
1696698.0,213.0,259.0,520.0,241.0,1696.698
1696708.0,215.0,262.0,518.0,246.0,1696.708
1696718.0,214.0,265.0,504.0,246.0,1696.718
1696728.0,219.0,260.0,539.0,245.0,1696.728
1696738.0,208.0,256.0,508.0,239.0,1696.738
1696748.0,211.0,258.0,533.0,240.0,1696.748
1696758.0,216.0,263.0,531.0,247.0,1696.758
1696768.0,215.0,265.0,520.0,248.0,1696.768
1696778.0,217.0,259.0,551.0,246.0,1696.778
1696788.0,207.0,254.0,523.0,241.0,1696.788
1696798.0,211.0,257.0,546.0,243.0,1696.798
1696808.0,216.0,263.0,542.0,248.0,1696.808
1696818.0,216.0,263.0,531.0,248.0,1696.818
1696828.0,217.0,259.0,557.0,245.0,1696.828
1696838.0,209.0,250.0,530.0,238.0,1696.838
1696848.0,211.0,254.0,550.0,241.0,1696.848
1696858.0,213.0,257.0,541.0,243.0,1696.858
1696868.0,215.0,262.0,534.0,246.0,1696.868
1696878.0,216.0,257.0,554.0,243.0,1696.878
1696888.0,207.0,252.0,531.0,237.0,1696.888
1696898.0,211.0,256.0,555.0,240.0,1696.898
1696908.0,213.0,258.0,537.0,244.0,1696.908
1696918.0,215.0,262.0,532.0,245.0,1696.918
1696928.0,215.0,258.0,547.0,242.0,1696.928
1696939.0,206.0,252.0,529.0,235.0,1696.939
1696949.0,210.0,257.0,544.0,241.0,1696.949
1696959.0,217.0,262.0,533.0,247.0,1696.959
1696969.0,211.0,259.0,521.0,243.0,1696.969
1696979.0,212.0,258.0,535.0,242.0,1696.979
1696989.0,206.0,253.0,517.0,235.0,1696.989
1696999.0,210.0,262.0,529.0,244.0,1696.999
1697009.0,217.0,264.0,518.0,247.0,1697.009
1697019.0,211.0,263.0,509.0,242.0,1697.019
1697029.0,213.0,260.0,515.0,242.0,1697.029
1697039.0,206.0,253.0,503.0,236.0,1697.039
1697049.0,214.0,266.0,511.0,245.0,1697.049
1697059.0,220.0,267.0,499.0,248.0,1697.059
1697069.0,214.0,266.0,495.0,244.0,1697.069
1697079.0,214.0,262.0,495.0,243.0,1697.079
1697089.0,208.0,256.0,488.0,234.0,1697.089
1697099.0,217.0,269.0,488.0,246.0,1697.099
1697110.0,223.0,271.0,480.0,251.0,1697.11
1697120.0,214.0,270.0,475.0,245.0,1697.12
1697130.0,217.0,269.0,471.0,246.0,1697.13
1697140.0,214.0,267.0,467.0,244.0,1697.14
1697150.0,220.0,275.0,461.0,250.0,1697.15
1697160.0,220.0,271.0,457.0,250.0,1697.16
1697170.0,211.0,263.0,448.0,246.0,1697.17
1697180.0,217.0,265.0,441.0,249.0,1697.18
1697190.0,216.0,270.0,433.0,254.0,1697.19
1697200.0,218.0,274.0,425.0,257.0,1697.2
1697210.0,220.0,272.0,416.0,257.0,1697.21
1697220.0,210.0,261.0,406.0,245.0,1697.22
1697230.0,211.0,261.0,396.0,244.0,1697.23
1697240.0,213.0,263.0,389.0,241.0,1697.24
1697250.0,217.0,269.0,377.0,246.0,1697.25
1697260.0,224.0,271.0,368.0,254.0,1697.26
1697270.0,215.0,263.0,358.0,241.0,1697.27
1697280.0,226.0,270.0,348.0,245.0,1697.28
1697290.0,219.0,266.0,339.0,242.0,1697.29
1697300.0,231.0,283.0,328.0,252.0,1697.3
1697310.0,238.0,280.0,319.0,251.0,1697.31
1697320.0,226.0,266.0,308.0,244.0,1697.32
1697330.0,226.0,261.0,299.0,241.0,1697.33
1697340.0,224.0,261.0,290.0,255.0,1697.34
1697350.0,230.0,270.0,280.0,253.0,1697.35
1697360.0,230.0,268.0,271.0,251.0,1697.36
1697370.0,221.0,266.0,264.0,246.0,1697.37
1697380.0,224.0,268.0,253.0,248.0,1697.38
1697390.0,218.0,262.0,245.0,241.0,1697.39
1697400.0,216.0,261.0,236.0,233.0,1697.4
1697410.0,221.0,266.0,229.0,237.0,1697.41
1697420.0,212.0,255.0,221.0,230.0,1697.42
1697430.0,218.0,262.0,212.0,234.0,1697.43
1697440.0,219.0,265.0,204.0,233.0,1697.44
1697451.0,220.0,264.0,196.0,229.0,1697.451
1697461.0,223.0,267.0,188.0,232.0,1697.461
1697471.0,212.0,258.0,181.0,224.0,1697.471
1697481.0,218.0,264.0,174.0,224.0,1697.481
1697491.0,225.0,273.0,167.0,233.0,1697.491
1697501.0,225.0,269.0,162.0,232.0,1697.501
1697511.0,226.0,269.0,154.0,227.0,1697.511
1697521.0,216.0,257.0,148.0,220.0,1697.521
1697531.0,221.0,268.0,142.0,234.0,1697.531
1697541.0,227.0,273.0,137.0,239.0,1697.541
1697551.0,228.0,273.0,131.0,246.0,1697.551
1697561.0,232.0,275.0,125.0,246.0,1697.561
1697571.0,227.0,268.0,119.0,249.0,1697.571
1697581.0,229.0,270.0,115.0,253.0,1697.581
1697591.0,232.0,275.0,109.0,256.0,1697.591
1697601.0,230.0,272.0,104.0,253.0,1697.601
1697611.0,230.0,271.0,100.0,244.0,1697.611
1697622.0,217.0,258.0,96.0,224.0,1697.622
1697632.0,223.0,264.0,91.0,236.0,1697.632
1697642.0,228.0,272.0,86.0,240.0,1697.642
1697652.0,221.0,260.0,83.0,235.0,1697.652
1697662.0,221.0,260.0,78.0,233.0,1697.662
1697672.0,212.0,250.0,76.0,224.0,1697.672
1697682.0,221.0,259.0,71.0,236.0,1697.682
1697692.0,228.0,268.0,68.0,236.0,1697.692
1697702.0,221.0,259.0,64.0,229.0,1697.702
1697712.0,224.0,266.0,60.0,235.0,1697.712
1697722.0,222.0,259.0,58.0,225.0,1697.722
1697732.0,233.0,272.0,55.0,234.0,1697.732
1697742.0,240.0,279.0,51.0,244.0,1697.742
1697752.0,233.0,268.0,49.0,242.0,1697.752
1697762.0,235.0,269.0,46.0,247.0,1697.762
1697772.0,225.0,260.0,44.0,237.0,1697.772
1697782.0,230.0,269.0,41.0,249.0,1697.782
1697792.0,233.0,275.0,39.0,251.0,1697.792
1697802.0,227.0,266.0,37.0,239.0,1697.802
1697812.0,229.0,268.0,33.0,246.0,1697.812
1697822.0,224.0,261.0,33.0,249.0,1697.822
1697832.0,232.0,273.0,30.0,258.0,1697.832
1697842.0,234.0,273.0,28.0,259.0,1697.842
1697852.0,231.0,270.0,26.0,252.0,1697.852
1697862.0,232.0,277.0,23.0,248.0,1697.862
1697872.0,222.0,268.0,21.0,243.0,1697.872
1697882.0,233.0,276.0,21.0,252.0,1697.882
1697892.0,239.0,281.0,18.0,257.0,1697.892
1697902.0,234.0,273.0,16.0,252.0,1697.902
1697912.0,242.0,278.0,16.0,255.0,1697.912
1697922.0,239.0,269.0,15.0,243.0,1697.922
1697932.0,248.0,278.0,13.0,250.0,1697.932
1697942.0,249.0,284.0,12.0,255.0,1697.942
1697952.0,246.0,275.0,12.0,246.0,1697.952
1697963.0,251.0,278.0,10.0,248.0,1697.963
1697973.0,249.0,274.0,10.0,245.0,1697.973
1697983.0,258.0,288.0,9.0,252.0,1697.983
1697993.0,255.0,284.0,8.0,254.0,1697.993
1698003.0,241.0,272.0,7.0,240.0,1698.003
1698013.0,242.0,274.0,7.0,242.0,1698.013
1698023.0,237.0,272.0,7.0,241.0,1698.023
1698033.0,240.0,279.0,7.0,244.0,1698.033
1698043.0,242.0,278.0,6.0,246.0,1698.043
1698053.0,233.0,270.0,7.0,231.0,1698.053
1698063.0,233.0,273.0,6.0,238.0,1698.063
1698073.0,228.0,272.0,7.0,239.0,1698.073
1698083.0,229.0,275.0,6.0,240.0,1698.083
1698093.0,232.0,274.0,5.0,244.0,1698.093
1698103.0,227.0,271.0,6.0,235.0,1698.103
1698113.0,229.0,273.0,5.0,240.0,1698.113
1698123.0,230.0,272.0,5.0,244.0,1698.123
1698134.0,233.0,278.0,5.0,247.0,1698.134
1698144.0,236.0,275.0,5.0,250.0,1698.144
1698154.0,228.0,269.0,4.0,242.0,1698.154
1698164.0,233.0,275.0,5.0,250.0,1698.164
1698174.0,240.0,282.0,5.0,254.0,1698.174
1698184.0,238.0,281.0,5.0,250.0,1698.184
1698194.0,237.0,276.0,5.0,249.0,1698.194
1698204.0,229.0,270.0,5.0,244.0,1698.204
1698214.0,234.0,279.0,4.0,249.0,1698.214
1698224.0,236.0,279.0,4.0,251.0,1698.224
1698234.0,235.0,280.0,4.0,248.0,1698.234
1698244.0,236.0,278.0,5.0,244.0,1698.244
1698254.0,227.0,268.0,4.0,237.0,1698.254
1698264.0,233.0,274.0,4.0,246.0,1698.264
1698274.0,236.0,278.0,5.0,252.0,1698.274
1698284.0,228.0,274.0,4.0,246.0,1698.284
1698294.0,231.0,271.0,4.0,244.0,1698.294
1698304.0,225.0,269.0,3.0,246.0,1698.304
1698314.0,228.0,272.0,4.0,248.0,1698.314
1698324.0,238.0,280.0,4.0,260.0,1698.324
1698334.0,233.0,280.0,5.0,259.0,1698.334
1698344.0,233.0,274.0,4.0,255.0,1698.344
1698354.0,224.0,270.0,4.0,258.0,1698.354
1698364.0,228.0,274.0,3.0,262.0,1698.364
1698374.0,238.0,280.0,4.0,267.0,1698.374
1698384.0,234.0,281.0,4.0,268.0,1698.384
1698394.0,240.0,281.0,4.0,270.0,1698.394
1698404.0,227.0,272.0,4.0,263.0,1698.404
1698414.0,233.0,278.0,4.0,266.0,1698.414
1698424.0,242.0,283.0,5.0,287.0,1698.424
1698434.0,237.0,282.0,3.0,281.0,1698.434
1698444.0,236.0,277.0,4.0,271.0,1698.444
1698454.0,228.0,269.0,4.0,269.0,1698.454
1698464.0,236.0,281.0,5.0,280.0,1698.464
1698475.0,241.0,286.0,4.0,281.0,1698.475
1698485.0,233.0,281.0,4.0,279.0,1698.485
1698495.0,236.0,282.0,4.0,276.0,1698.495
1698505.0,228.0,274.0,4.0,271.0,1698.505
1698515.0,235.0,284.0,4.0,277.0,1698.515
1698525.0,241.0,286.0,5.0,275.0,1698.525
1698535.0,233.0,278.0,4.0,275.0,1698.535
1698545.0,235.0,278.0,4.0,270.0,1698.545
1698555.0,231.0,273.0,4.0,274.0,1698.555
1698565.0,237.0,282.0,3.0,277.0,1698.565
1698575.0,244.0,286.0,5.0,280.0,1698.575
1698585.0,236.0,277.0,5.0,275.0,1698.585
1698595.0,237.0,275.0,4.0,271.0,1698.595
1698605.0,228.0,268.0,4.0,270.0,1698.605
1698615.0,236.0,278.0,5.0,274.0,1698.615
1698625.0,243.0,285.0,3.0,279.0,1698.625
1698635.0,237.0,277.0,4.0,272.0,1698.635
1698646.0,237.0,278.0,4.0,268.0,1698.646
1698656.0,236.0,277.0,5.0,270.0,1698.656
1698666.0,237.0,284.0,4.0,270.0,1698.666
1698676.0,241.0,280.0,4.0,267.0,1698.676
1698686.0,233.0,275.0,3.0,265.0,1698.686
1698696.0,235.0,277.0,3.0,264.0,1698.696
1698706.0,236.0,279.0,4.0,268.0,1698.706
1698716.0,239.0,286.0,4.0,276.0,1698.716
1698726.0,238.0,280.0,4.0,269.0,1698.726
1698736.0,231.0,276.0,4.0,266.0,1698.736
1698746.0,234.0,278.0,4.0,267.0,1698.746
1698756.0,235.0,281.0,3.0,267.0,1698.756
1698766.0,236.0,286.0,4.0,266.0,1698.766
1698776.0,237.0,282.0,4.0,264.0,1698.776
1698786.0,231.0,275.0,5.0,257.0,1698.786
1698796.0,231.0,277.0,4.0,256.0,1698.796
1698806.0,235.0,280.0,3.0,268.0,1698.806
1698816.0,237.0,285.0,4.0,269.0,1698.816
1698826.0,238.0,278.0,4.0,263.0,1698.826
1698836.0,230.0,272.0,3.0,256.0,1698.836
1698846.0,233.0,272.0,4.0,256.0,1698.846
1698856.0,235.0,274.0,4.0,260.0,1698.856
1698866.0,236.0,277.0,4.0,260.0,1698.866
1698876.0,237.0,273.0,4.0,257.0,1698.876
1698886.0,230.0,270.0,4.0,254.0,1698.886
1698896.0,232.0,273.0,4.0,257.0,1698.896
1698906.0,233.0,273.0,5.0,256.0,1698.906
1698916.0,238.0,280.0,4.0,257.0,1698.916
1698926.0,242.0,278.0,4.0,256.0,1698.926
1698936.0,234.0,268.0,4.0,249.0,1698.936
1698946.0,235.0,274.0,3.0,253.0,1698.946
1698956.0,238.0,273.0,4.0,259.0,1698.956
1698966.0,241.0,283.0,3.0,262.0,1698.966
1698976.0,242.0,275.0,5.0,258.0,1698.976
1698987.0,231.0,270.0,4.0,249.0,1698.987
1698997.0,234.0,274.0,4.0,251.0,1698.997
1699007.0,243.0,281.0,3.0,255.0,1699.007
1699017.0,237.0,277.0,3.0,251.0,1699.017
1699027.0,236.0,275.0,3.0,253.0,1699.027
1699037.0,229.0,271.0,4.0,246.0,1699.037
1699047.0,234.0,281.0,4.0,247.0,1699.047
1699057.0,241.0,287.0,3.0,254.0,1699.057
1699067.0,238.0,285.0,3.0,250.0,1699.067
1699077.0,240.0,282.0,3.0,250.0,1699.077
1699087.0,233.0,274.0,4.0,243.0,1699.087
1699097.0,239.0,282.0,4.0,253.0,1699.097
1699107.0,246.0,286.0,4.0,258.0,1699.107
1699117.0,242.0,286.0,4.0,255.0,1699.117
1699127.0,240.0,280.0,4.0,253.0,1699.127
1699137.0,231.0,273.0,5.0,244.0,1699.137
1699147.0,238.0,282.0,4.0,252.0,1699.147
1699158.0,243.0,285.0,4.0,258.0,1699.158
1699168.0,240.0,280.0,4.0,249.0,1699.168
1699178.0,238.0,278.0,4.0,248.0,1699.178
1699188.0,234.0,276.0,4.0,247.0,1699.188
1699198.0,242.0,289.0,3.0,259.0,1699.198
1699208.0,244.0,285.0,4.0,260.0,1699.208
1699218.0,236.0,283.0,4.0,251.0,1699.218
1699228.0,236.0,280.0,4.0,251.0,1699.228
1699238.0,233.0,279.0,4.0,251.0,1699.238
1699248.0,236.0,287.0,4.0,254.0,1699.248
1699258.0,241.0,287.0,3.0,256.0,1699.258
1699268.0,233.0,283.0,3.0,245.0,1699.268
1699278.0,234.0,280.0,4.0,247.0,1699.278
1699288.0,227.0,273.0,4.0,241.0,1699.288
1699298.0,237.0,286.0,4.0,254.0,1699.298
1699308.0,240.0,285.0,4.0,256.0,1699.308
1699318.0,233.0,277.0,4.0,245.0,1699.318
1699328.0,235.0,279.0,3.0,250.0,1699.328
1699338.0,229.0,273.0,3.0,242.0,1699.338
1699348.0,237.0,285.0,4.0,250.0,1699.348
1699358.0,239.0,282.0,5.0,253.0,1699.358
1699368.0,230.0,275.0,4.0,242.0,1699.368
1699378.0,232.0,277.0,4.0,245.0,1699.378
1699388.0,227.0,272.0,5.0,243.0,1699.388
1699398.0,233.0,285.0,3.0,249.0,1699.398
1699408.0,238.0,280.0,4.0,251.0,1699.408
1699418.0,231.0,281.0,4.0,243.0,1699.418
1699428.0,232.0,278.0,4.0,247.0,1699.428
1699438.0,228.0,274.0,4.0,243.0,1699.438
1699448.0,235.0,283.0,4.0,248.0,1699.448
1699458.0,237.0,282.0,3.0,253.0,1699.458
1699468.0,230.0,276.0,4.0,238.0,1699.468
1699478.0,229.0,272.0,3.0,240.0,1699.478
1699488.0,227.0,269.0,5.0,239.0,1699.488
1699499.0,232.0,277.0,4.0,246.0,1699.499
1699509.0,232.0,273.0,4.0,244.0,1699.509
1699519.0,225.0,268.0,3.0,235.0,1699.519
1699529.0,225.0,270.0,4.0,240.0,1699.529
1699539.0,230.0,274.0,4.0,248.0,1699.539
1699549.0,230.0,277.0,5.0,247.0,1699.549
1699559.0,229.0,271.0,4.0,248.0,1699.559
1699569.0,221.0,269.0,4.0,236.0,1699.569
1699579.0,223.0,271.0,4.0,243.0,1699.579
1699589.0,225.0,274.0,3.0,244.0,1699.589
1699599.0,229.0,280.0,4.0,244.0,1699.599
1699609.0,228.0,276.0,4.0,246.0,1699.609
1699619.0,224.0,273.0,4.0,235.0,1699.619
1699629.0,226.0,274.0,4.0,243.0,1699.629
1699639.0,228.0,276.0,4.0,245.0,1699.639
1699649.0,233.0,282.0,3.0,245.0,1699.649
1699659.0,231.0,273.0,4.0,249.0,1699.659
1699670.0,223.0,269.0,4.0,237.0,1699.67
1699680.0,226.0,274.0,5.0,243.0,1699.68
1699690.0,230.0,278.0,4.0,249.0,1699.69
1699700.0,228.0,276.0,4.0,242.0,1699.7
1699710.0,227.0,273.0,4.0,246.0,1699.71
1699720.0,221.0,267.0,4.0,238.0,1699.72
1699730.0,224.0,271.0,4.0,243.0,1699.73
1699740.0,233.0,275.0,5.0,248.0,1699.74
1699750.0,227.0,272.0,4.0,237.0,1699.75
1699760.0,226.0,268.0,4.0,241.0,1699.76
1699770.0,221.0,261.0,4.0,233.0,1699.77
1699780.0,226.0,272.0,3.0,244.0,1699.78
1699790.0,228.0,270.0,4.0,250.0,1699.79
1699800.0,224.0,271.0,3.0,239.0,1699.8
1699810.0,223.0,267.0,5.0,242.0,1699.81
1699820.0,217.0,263.0,4.0,230.0,1699.82
1699830.0,222.0,269.0,3.0,239.0,1699.83
1699840.0,229.0,272.0,4.0,246.0,1699.84
1699850.0,227.0,271.0,4.0,237.0,1699.85
1699860.0,225.0,267.0,4.0,241.0,1699.86
1699870.0,219.0,260.0,4.0,233.0,1699.87
1699880.0,225.0,269.0,4.0,240.0,1699.88
1699890.0,227.0,269.0,3.0,244.0,1699.89
1699900.0,224.0,267.0,4.0,236.0,1699.9
1699910.0,223.0,264.0,3.0,240.0,1699.91
1699920.0,216.0,259.0,4.0,234.0,1699.92
1699930.0,221.0,264.0,4.0,239.0,1699.93
1699940.0,226.0,268.0,4.0,248.0,1699.94
1699950.0,224.0,267.0,4.0,238.0,1699.95
1699960.0,222.0,264.0,4.0,242.0,1699.96
1699970.0,219.0,258.0,3.0,233.0,1699.97
1699980.0,224.0,265.0,3.0,240.0,1699.98
1699990.0,227.0,268.0,4.0,245.0,1699.99
1700000.0,223.0,264.0,5.0,233.0,1700.0
1700011.0,220.0,263.0,3.0,237.0,1700.011
1700021.0,215.0,259.0,4.0,233.0,1700.021
1700031.0,223.0,271.0,4.0,240.0,1700.031
1700041.0,223.0,265.0,4.0,244.0,1700.041
1700051.0,216.0,263.0,3.0,234.0,1700.051
1700061.0,218.0,265.0,4.0,238.0,1700.061
1700071.0,219.0,262.0,4.0,235.0,1700.071
1700081.0,224.0,270.0,4.0,241.0,1700.081
1700091.0,226.0,267.0,5.0,242.0,1700.091
1700101.0,220.0,265.0,3.0,231.0,1700.101
1700111.0,220.0,262.0,4.0,232.0,1700.111
1700121.0,216.0,260.0,4.0,231.0,1700.121
1700131.0,222.0,268.0,4.0,235.0,1700.131
1700141.0,223.0,264.0,4.0,238.0,1700.141
1700151.0,216.0,260.0,4.0,225.0,1700.151
1700161.0,216.0,261.0,3.0,232.0,1700.161
1700171.0,215.0,259.0,3.0,232.0,1700.171
1700182.0,219.0,265.0,4.0,235.0,1700.182
1700192.0,219.0,259.0,5.0,237.0,1700.192
1700202.0,211.0,254.0,4.0,228.0,1700.202
1700212.0,213.0,256.0,5.0,231.0,1700.212
1700222.0,217.0,261.0,4.0,239.0,1700.222
1700232.0,216.0,263.0,3.0,236.0,1700.232
1700242.0,216.0,258.0,4.0,238.0,1700.242
1700252.0,209.0,251.0,4.0,229.0,1700.252
1700262.0,212.0,256.0,4.0,236.0,1700.262
1700272.0,214.0,259.0,4.0,240.0,1700.272
1700282.0,216.0,263.0,4.0,239.0,1700.282
1700292.0,213.0,259.0,3.0,240.0,1700.292
1700302.0,204.0,253.0,4.0,229.0,1700.302
1700312.0,209.0,258.0,4.0,233.0,1700.312
1700322.0,215.0,261.0,5.0,238.0,1700.322
1700332.0,215.0,266.0,4.0,237.0,1700.332
1700342.0,215.0,260.0,3.0,237.0,1700.342
1700352.0,210.0,260.0,3.0,232.0,1700.352
1700362.0,212.0,261.0,3.0,234.0,1700.362
1700372.0,215.0,265.0,4.0,240.0,1700.372
1700382.0,215.0,265.0,4.0,238.0,1700.382
1700392.0,214.0,259.0,4.0,238.0,1700.392
1700402.0,208.0,258.0,4.0,229.0,1700.402
1700412.0,212.0,260.0,4.0,235.0,1700.412
1700422.0,216.0,265.0,4.0,241.0,1700.422
1700432.0,214.0,266.0,5.0,236.0,1700.432
1700442.0,215.0,262.0,3.0,239.0,1700.442
1700452.0,210.0,257.0,5.0,229.0,1700.452
1700462.0,210.0,259.0,2.0,236.0,1700.462
1700472.0,216.0,262.0,4.0,241.0,1700.472
1700482.0,215.0,267.0,3.0,239.0,1700.482
1700492.0,214.0,259.0,3.0,236.0,1700.492
1700502.0,207.0,256.0,3.0,226.0,1700.502
1700512.0,209.0,262.0,5.0,233.0,1700.512
1700523.0,214.0,265.0,4.0,241.0,1700.523
1700533.0,211.0,265.0,4.0,235.0,1700.533
1700543.0,211.0,261.0,4.0,236.0,1700.543
1700553.0,204.0,257.0,3.0,228.0,1700.553
1700563.0,212.0,266.0,4.0,240.0,1700.563
1700573.0,216.0,268.0,4.0,243.0,1700.573
1700583.0,212.0,262.0,4.0,237.0,1700.583
1700593.0,212.0,261.0,4.0,236.0,1700.593
1700603.0,205.0,253.0,4.0,234.0,1700.603
1700613.0,210.0,258.0,3.0,241.0,1700.613
1700623.0,217.0,261.0,4.0,246.0,1700.623
1700633.0,209.0,257.0,3.0,240.0,1700.633
1700643.0,211.0,254.0,5.0,240.0,1700.643
1700653.0,204.0,250.0,4.0,232.0,1700.653
1700663.0,211.0,259.0,4.0,239.0,1700.663
1700673.0,217.0,263.0,4.0,245.0,1700.673
1700683.0,211.0,256.0,4.0,237.0,1700.683
1700694.0,211.0,257.0,3.0,238.0,1700.694
1700704.0,209.0,253.0,5.0,236.0,1700.704
1700714.0,215.0,262.0,4.0,243.0,1700.714
1700724.0,217.0,260.0,4.0,242.0,1700.724
1700734.0,209.0,254.0,3.0,235.0,1700.734
1700744.0,211.0,257.0,3.0,238.0,1700.744
1700754.0,208.0,254.0,4.0,238.0,1700.754
1700764.0,209.0,262.0,4.0,242.0,1700.764
1700774.0,212.0,259.0,4.0,239.0,1700.774
1700784.0,206.0,253.0,4.0,237.0,1700.784
1700794.0,208.0,255.0,4.0,237.0,1700.794
1700804.0,208.0,256.0,4.0,239.0,1700.804
1700814.0,213.0,254.0,4.0,241.0,1700.814
1700824.0,216.0,260.0,4.0,243.0,1700.824
1700834.0,209.0,252.0,4.0,237.0,1700.834
1700844.0,210.0,255.0,4.0,238.0,1700.844
1700854.0,212.0,256.0,4.0,240.0,1700.854
1700864.0,215.0,261.0,4.0,246.0,1700.864
1700874.0,216.0,260.0,3.0,246.0,1700.874
1700884.0,210.0,254.0,4.0,240.0,1700.884
1700894.0,212.0,255.0,4.0,241.0,1700.894
1700904.0,214.0,258.0,4.0,245.0,1700.904
1700914.0,216.0,261.0,2.0,246.0,1700.914
1700924.0,218.0,259.0,4.0,244.0,1700.924
1700934.0,210.0,252.0,4.0,238.0,1700.934
1700944.0,211.0,254.0,3.0,239.0,1700.944
1700954.0,209.0,252.0,4.0,241.0,1700.954
1700964.0,217.0,260.0,5.0,249.0,1700.964
1700974.0,218.0,259.0,4.0,247.0,1700.974
1700984.0,211.0,252.0,4.0,240.0,1700.984
1700994.0,214.0,257.0,4.0,243.0,1700.994
1701004.0,212.0,256.0,4.0,243.0,1701.004
1701014.0,217.0,263.0,4.0,247.0,1701.014
1701024.0,218.0,259.0,4.0,244.0,1701.024
1701035.0,211.0,253.0,3.0,237.0,1701.035
1701045.0,212.0,256.0,3.0,241.0,1701.045
1701055.0,217.0,260.0,4.0,245.0,1701.055
1701065.0,216.0,258.0,3.0,242.0,1701.065
1701075.0,216.0,255.0,4.0,240.0,1701.075
1701085.0,209.0,250.0,4.0,234.0,1701.085
1701095.0,214.0,255.0,5.0,240.0,1701.095
1701105.0,218.0,260.0,3.0,246.0,1701.105
1701115.0,215.0,258.0,4.0,242.0,1701.115
1701125.0,217.0,257.0,3.0,242.0,1701.125
1701135.0,210.0,250.0,4.0,234.0,1701.135
1701145.0,212.0,255.0,3.0,240.0,1701.145
1701155.0,220.0,261.0,5.0,246.0,1701.155
1701165.0,217.0,259.0,4.0,244.0,1701.165
1701175.0,216.0,256.0,3.0,241.0,1701.175
1701185.0,209.0,250.0,4.0,239.0,1701.185
1701195.0,215.0,257.0,4.0,244.0,1701.195
1701206.0,220.0,263.0,4.0,247.0,1701.206
1701216.0,215.0,257.0,3.0,242.0,1701.216
1701226.0,215.0,255.0,4.0,243.0,1701.226
1701236.0,213.0,250.0,3.0,240.0,1701.236
1701246.0,221.0,261.0,4.0,248.0,1701.246
1701256.0,222.0,261.0,4.0,249.0,1701.256
1701266.0,217.0,254.0,4.0,244.0,1701.266
1701276.0,217.0,255.0,4.0,243.0,1701.276
1701286.0,212.0,249.0,4.0,241.0,1701.286
1701296.0,216.0,256.0,4.0,246.0,1701.296
1701306.0,221.0,260.0,4.0,248.0,1701.306
1701316.0,214.0,256.0,3.0,244.0,1701.316
1701326.0,215.0,256.0,4.0,242.0,1701.326
1701336.0,208.0,248.0,3.0,237.0,1701.336
1701346.0,215.0,257.0,4.0,246.0,1701.346
1701356.0,220.0,263.0,4.0,248.0,1701.356
1701366.0,212.0,255.0,3.0,244.0,1701.366
1701376.0,214.0,258.0,3.0,244.0,1701.376
1701386.0,207.0,251.0,3.0,238.0,1701.386
1701396.0,214.0,260.0,4.0,247.0,1701.396
1701406.0,217.0,260.0,4.0,249.0,1701.406
1701416.0,212.0,254.0,4.0,243.0,1701.416
1701426.0,213.0,255.0,4.0,244.0,1701.426
1701436.0,206.0,250.0,4.0,240.0,1701.436
1701446.0,214.0,262.0,3.0,250.0,1701.446
1701456.0,218.0,262.0,4.0,250.0,1701.456
1701466.0,213.0,259.0,3.0,247.0,1701.466
1701476.0,213.0,257.0,4.0,245.0,1701.476
1701486.0,208.0,251.0,4.0,242.0,1701.486
1701496.0,215.0,260.0,4.0,249.0,1701.496
1701506.0,218.0,260.0,3.0,249.0,1701.506
1701516.0,213.0,256.0,3.0,245.0,1701.516
1701526.0,213.0,254.0,4.0,243.0,1701.526
1701536.0,209.0,248.0,5.0,242.0,1701.536
1701547.0,217.0,259.0,4.0,250.0,1701.547
1701557.0,219.0,257.0,4.0,247.0,1701.557
1701567.0,211.0,251.0,4.0,240.0,1701.567
1701577.0,211.0,254.0,3.0,241.0,1701.577
1701587.0,215.0,256.0,4.0,246.0,1701.587
1701597.0,216.0,261.0,4.0,247.0,1701.597
1701607.0,218.0,255.0,4.0,245.0,1701.607
1701617.0,208.0,251.0,4.0,241.0,1701.617
1701627.0,209.0,253.0,4.0,241.0,1701.627
1701637.0,208.0,255.0,4.0,243.0,1701.637
1701647.0,212.0,262.0,4.0,247.0,1701.647
1701657.0,214.0,256.0,3.0,245.0,1701.657
1701667.0,207.0,257.0,4.0,239.0,1701.667
1701677.0,210.0,259.0,4.0,241.0,1701.677
1701687.0,210.0,260.0,4.0,242.0,1701.687
1701697.0,214.0,269.0,4.0,247.0,1701.697
1701707.0,214.0,261.0,3.0,243.0,1701.707
1701718.0,206.0,260.0,4.0,236.0,1701.718
1701728.0,209.0,261.0,4.0,242.0,1701.728
1701738.0,216.0,266.0,5.0,247.0,1701.738
1701748.0,213.0,267.0,4.0,244.0,1701.748
1701758.0,213.0,262.0,4.0,243.0,1701.758
1701768.0,207.0,259.0,3.0,238.0,1701.768
1701778.0,211.0,263.0,4.0,242.0,1701.778
1701788.0,217.0,266.0,4.0,247.0,1701.788
1701798.0,215.0,264.0,5.0,243.0,1701.798
1701808.0,214.0,262.0,4.0,243.0,1701.808
1701818.0,206.0,256.0,4.0,236.0,1701.818
1701828.0,211.0,262.0,3.0,244.0,1701.828
1701838.0,217.0,266.0,4.0,248.0,1701.838
1701848.0,215.0,265.0,4.0,247.0,1701.848
1701858.0,214.0,258.0,4.0,243.0,1701.858
1701868.0,206.0,253.0,4.0,237.0,1701.868
1701878.0,212.0,261.0,4.0,244.0,1701.878
1701888.0,215.0,263.0,4.0,247.0,1701.888
1701898.0,214.0,264.0,3.0,246.0,1701.898
1701908.0,215.0,259.0,4.0,243.0,1701.908
1701918.0,207.0,252.0,4.0,237.0,1701.918
1701928.0,215.0,262.0,4.0,245.0,1701.928
1701938.0,218.0,262.0,4.0,247.0,1701.938
1701948.0,215.0,261.0,3.0,244.0,1701.948
1701958.0,213.0,258.0,3.0,243.0,1701.958
1701968.0,207.0,252.0,4.0,236.0,1701.968
1701978.0,211.0,258.0,4.0,241.0,1701.978
1701988.0,222.0,264.0,5.0,247.0,1701.988
1701998.0,218.0,263.0,4.0,246.0,1701.998
1702008.0,217.0,259.0,3.0,244.0,1702.008
1702018.0,210.0,254.0,3.0,239.0,1702.018
1702028.0,213.0,262.0,3.0,243.0,1702.028
1702038.0,219.0,265.0,4.0,248.0,1702.038
1702048.0,214.0,261.0,4.0,245.0,1702.048
1702059.0,214.0,260.0,4.0,243.0,1702.059
1702069.0,207.0,252.0,4.0,240.0,1702.069
1702079.0,216.0,263.0,4.0,250.0,1702.079
1702089.0,218.0,262.0,4.0,248.0,1702.089
1702099.0,210.0,253.0,4.0,242.0,1702.099
1702109.0,213.0,259.0,3.0,244.0,1702.109
1702119.0,209.0,253.0,5.0,240.0,1702.119
1702129.0,214.0,261.0,4.0,249.0,1702.129
1702139.0,218.0,261.0,3.0,247.0,1702.139
1702149.0,212.0,256.0,4.0,244.0,1702.149
1702159.0,212.0,255.0,4.0,242.0,1702.159
1702169.0,208.0,252.0,3.0,241.0,1702.169
1702179.0,215.0,262.0,5.0,248.0,1702.179
1702189.0,218.0,262.0,4.0,249.0,1702.189
1702199.0,211.0,254.0,4.0,243.0,1702.199
1702209.0,213.0,255.0,4.0,243.0,1702.209
1702219.0,210.0,253.0,3.0,242.0,1702.219
1702230.0,216.0,260.0,4.0,247.0,1702.23
1702240.0,217.0,257.0,5.0,244.0,1702.24
1702250.0,209.0,250.0,5.0,239.0,1702.25
1702260.0,211.0,254.0,4.0,241.0,1702.26
1702270.0,216.0,259.0,4.0,249.0,1702.27
1702280.0,215.0,267.0,3.0,251.0,1702.28
1702290.0,216.0,260.0,4.0,246.0,1702.29
1702300.0,208.0,254.0,4.0,240.0,1702.3
1702310.0,211.0,256.0,5.0,242.0,1702.31
1702320.0,212.0,257.0,4.0,246.0,1702.32
1702330.0,215.0,261.0,4.0,249.0,1702.33
1702340.0,216.0,258.0,4.0,246.0,1702.34
1702350.0,206.0,250.0,3.0,238.0,1702.35
1702360.0,211.0,254.0,4.0,241.0,1702.36
1702370.0,212.0,256.0,5.0,245.0,1702.37
1702380.0,216.0,260.0,4.0,247.0,1702.38
1702390.0,218.0,258.0,3.0,243.0,1702.39
1702400.0,210.0,252.0,4.0,241.0,1702.4
1702410.0,212.0,255.0,4.0,240.0,1702.41
1702420.0,215.0,258.0,3.0,245.0,1702.42
1702430.0,215.0,259.0,3.0,247.0,1702.43
1702440.0,216.0,257.0,5.0,243.0,1702.44
1702450.0,208.0,252.0,2.0,240.0,1702.45
1702460.0,212.0,255.0,5.0,240.0,1702.46
1702470.0,215.0,259.0,3.0,247.0,1702.47
1702480.0,214.0,260.0,3.0,245.0,1702.48
1702490.0,218.0,258.0,4.0,244.0,1702.49
1702500.0,207.0,250.0,4.0,239.0,1702.5
1702510.0,211.0,254.0,3.0,242.0,1702.51
1702520.0,215.0,259.0,4.0,248.0,1702.52
1702530.0,215.0,261.0,4.0,250.0,1702.53
1702540.0,217.0,257.0,3.0,247.0,1702.54
1702550.0,207.0,250.0,4.0,240.0,1702.55
1702560.0,210.0,256.0,4.0,243.0,1702.56
1702571.0,216.0,261.0,4.0,249.0,1702.571
1702581.0,212.0,261.0,4.0,247.0,1702.581
1702591.0,214.0,256.0,4.0,243.0,1702.591
1702601.0,204.0,251.0,3.0,239.0,1702.601
1702611.0,212.0,260.0,4.0,247.0,1702.611
1702621.0,215.0,259.0,3.0,249.0,1702.621
1702631.0,213.0,259.0,5.0,245.0,1702.631
1702641.0,213.0,255.0,3.0,244.0,1702.641
1702651.0,205.0,251.0,4.0,239.0,1702.651
1702661.0,210.0,258.0,4.0,243.0,1702.661
1702671.0,217.0,263.0,4.0,248.0,1702.671
1702681.0,212.0,260.0,4.0,243.0,1702.681
1702691.0,213.0,258.0,3.0,242.0,1702.691
1702701.0,207.0,251.0,4.0,236.0,1702.701
1702711.0,211.0,260.0,4.0,243.0,1702.711
1702721.0,217.0,264.0,4.0,247.0,1702.721
1702731.0,210.0,260.0,3.0,241.0,1702.731
1702742.0,213.0,258.0,4.0,240.0,1702.742
1702752.0,207.0,254.0,3.0,237.0,1702.752
1702762.0,215.0,265.0,5.0,245.0,1702.762
1702772.0,217.0,261.0,4.0,244.0,1702.772
1702782.0,209.0,257.0,3.0,239.0,1702.782
1702792.0,213.0,259.0,3.0,241.0,1702.792
1702802.0,209.0,256.0,4.0,240.0,1702.802
1702812.0,215.0,264.0,3.0,247.0,1702.812
1702822.0,218.0,263.0,4.0,244.0,1702.822
1702832.0,212.0,257.0,4.0,241.0,1702.832
1702842.0,214.0,259.0,4.0,239.0,1702.842
1702852.0,211.0,257.0,4.0,240.0,1702.852
1702862.0,217.0,264.0,3.0,246.0,1702.862
1702872.0,219.0,264.0,4.0,247.0,1702.872
1702882.0,210.0,255.0,4.0,241.0,1702.882
1702892.0,212.0,256.0,4.0,241.0,1702.892
1702902.0,208.0,256.0,4.0,243.0,1702.902
1702912.0,212.0,261.0,4.0,247.0,1702.912
1702922.0,216.0,262.0,4.0,247.0,1702.922
1702932.0,208.0,253.0,4.0,240.0,1702.932
1702942.0,209.0,255.0,3.0,240.0,1702.942
1702952.0,211.0,255.0,5.0,242.0,1702.952
1702962.0,212.0,260.0,4.0,246.0,1702.962
1702972.0,217.0,260.0,5.0,245.0,1702.972
1702982.0,206.0,252.0,3.0,241.0,1702.982
1702992.0,210.0,254.0,3.0,242.0,1702.992
1703002.0,206.0,250.0,4.0,240.0,1703.002
1703012.0,213.0,262.0,3.0,249.0,1703.012
1703022.0,217.0,262.0,4.0,247.0,1703.022
1703032.0,206.0,254.0,3.0,240.0,1703.032
1703042.0,211.0,256.0,4.0,242.0,1703.042
1703052.0,206.0,253.0,4.0,241.0,1703.052
1703062.0,213.0,261.0,3.0,247.0,1703.062
1703072.0,217.0,261.0,4.0,245.0,1703.072
1703083.0,208.0,254.0,5.0,238.0,1703.083
1703093.0,210.0,257.0,4.0,240.0,1703.093
1703103.0,215.0,261.0,4.0,245.0,1703.103
1703113.0,213.0,261.0,3.0,247.0,1703.113
1703123.0,215.0,258.0,3.0,243.0,1703.123
1703133.0,207.0,252.0,4.0,238.0,1703.133
1703143.0,211.0,256.0,5.0,240.0,1703.143
1703153.0,215.0,260.0,3.0,247.0,1703.153
1703163.0,213.0,260.0,4.0,244.0,1703.163
1703173.0,217.0,259.0,4.0,243.0,1703.173
1703183.0,207.0,252.0,3.0,236.0,1703.183
1703193.0,211.0,256.0,4.0,240.0,1703.193
1703203.0,217.0,262.0,4.0,247.0,1703.203
1703213.0,215.0,260.0,4.0,246.0,1703.213
1703223.0,216.0,260.0,4.0,241.0,1703.223
1703233.0,206.0,249.0,4.0,235.0,1703.233
1703243.0,211.0,257.0,3.0,240.0,1703.243
1703254.0,217.0,262.0,3.0,245.0,1703.254
1703264.0,212.0,257.0,4.0,243.0,1703.264
1703274.0,215.0,257.0,5.0,240.0,1703.274
1703284.0,206.0,251.0,4.0,237.0,1703.284
1703294.0,214.0,259.0,4.0,245.0,1703.294
1703304.0,219.0,265.0,3.0,249.0,1703.304
1703314.0,212.0,258.0,4.0,244.0,1703.314
1703324.0,214.0,258.0,4.0,243.0,1703.324
1703334.0,207.0,253.0,5.0,242.0,1703.334
1703344.0,212.0,259.0,4.0,246.0,1703.344
1703354.0,218.0,264.0,3.0,250.0,1703.354
1703364.0,212.0,254.0,4.0,246.0,1703.364
1703374.0,214.0,258.0,4.0,244.0,1703.374
1703384.0,206.0,250.0,4.0,237.0,1703.384
1703394.0,213.0,258.0,3.0,246.0,1703.394
1703404.0,220.0,262.0,5.0,248.0,1703.404
1703414.0,211.0,256.0,4.0,243.0,1703.414
1703424.0,214.0,256.0,4.0,243.0,1703.424
1703434.0,206.0,248.0,3.0,237.0,1703.434
1703444.0,213.0,255.0,4.0,245.0,1703.444
1703454.0,218.0,259.0,3.0,248.0,1703.454
1703464.0,211.0,248.0,4.0,240.0,1703.464
1703474.0,213.0,253.0,3.0,241.0,1703.474
1703484.0,205.0,245.0,4.0,235.0,1703.484
1703494.0,214.0,257.0,3.0,246.0,1703.494
1703504.0,219.0,260.0,4.0,246.0,1703.504
1703514.0,212.0,253.0,3.0,244.0,1703.514
1703524.0,214.0,255.0,2.0,242.0,1703.524
1703534.0,207.0,248.0,4.0,238.0,1703.534
1703544.0,214.0,258.0,4.0,247.0,1703.544
1703554.0,218.0,260.0,4.0,248.0,1703.554
1703564.0,211.0,253.0,3.0,245.0,1703.564
1703574.0,212.0,254.0,4.0,242.0,1703.574
1703584.0,206.0,248.0,3.0,239.0,1703.584
1703595.0,214.0,258.0,5.0,247.0,1703.595
1703605.0,217.0,260.0,2.0,248.0,1703.605
1703615.0,208.0,249.0,4.0,241.0,1703.615
1703625.0,211.0,255.0,3.0,243.0,1703.625
1703635.0,213.0,258.0,3.0,246.0,1703.635
1703645.0,215.0,260.0,3.0,248.0,1703.645
1703655.0,219.0,262.0,5.0,246.0,1703.655
1703665.0,209.0,254.0,4.0,240.0,1703.665
1703675.0,212.0,258.0,4.0,240.0,1703.675
1703685.0,210.0,256.0,3.0,241.0,1703.685
1703695.0,216.0,264.0,3.0,247.0,1703.695
1703705.0,219.0,260.0,4.0,244.0,1703.705
1703715.0,209.0,252.0,4.0,238.0,1703.715
1703725.0,213.0,257.0,4.0,240.0,1703.725
1703735.0,211.0,255.0,4.0,242.0,1703.735
1703745.0,216.0,261.0,4.0,247.0,1703.745
1703755.0,217.0,260.0,3.0,246.0,1703.755
1703766.0,208.0,248.0,4.0,239.0,1703.766
1703776.0,211.0,253.0,3.0,241.0,1703.776
1703786.0,217.0,258.0,5.0,247.0,1703.786
1703796.0,214.0,257.0,4.0,245.0,1703.796
1703806.0,214.0,257.0,4.0,243.0,1703.806
1703816.0,207.0,252.0,4.0,239.0,1703.816
1703826.0,210.0,255.0,3.0,242.0,1703.826
1703836.0,216.0,262.0,3.0,248.0,1703.836
1703846.0,213.0,256.0,4.0,245.0,1703.846
1703856.0,216.0,257.0,4.0,243.0,1703.856
1703866.0,206.0,248.0,4.0,236.0,1703.866
1703876.0,210.0,254.0,3.0,241.0,1703.876
1703886.0,216.0,258.0,3.0,247.0,1703.886
1703896.0,213.0,258.0,4.0,245.0,1703.896
1703906.0,213.0,254.0,4.0,242.0,1703.906
1703916.0,207.0,251.0,5.0,236.0,1703.916
1703926.0,210.0,257.0,4.0,243.0,1703.926
1703936.0,213.0,258.0,4.0,247.0,1703.936
1703946.0,214.0,259.0,3.0,246.0,1703.946
1703956.0,215.0,256.0,3.0,243.0,1703.956
1703966.0,206.0,248.0,4.0,236.0,1703.966
1703976.0,212.0,258.0,4.0,244.0,1703.976
1703986.0,216.0,260.0,4.0,246.0,1703.986
1703996.0,214.0,256.0,4.0,245.0,1703.996
1704006.0,214.0,256.0,3.0,243.0,1704.006
1704016.0,206.0,248.0,4.0,235.0,1704.016
1704026.0,211.0,255.0,4.0,240.0,1704.026
1704036.0,216.0,261.0,4.0,246.0,1704.036
1704046.0,215.0,259.0,4.0,245.0,1704.046
1704056.0,213.0,257.0,4.0,242.0,1704.056
1704066.0,208.0,250.0,4.0,238.0,1704.066
1704076.0,211.0,257.0,3.0,243.0,1704.076
1704086.0,217.0,261.0,4.0,247.0,1704.086
1704096.0,214.0,259.0,3.0,245.0,1704.096
1704107.0,215.0,257.0,5.0,242.0,1704.107
1704117.0,207.0,250.0,4.0,236.0,1704.117
1704127.0,216.0,261.0,4.0,248.0,1704.127
1704137.0,219.0,267.0,3.0,247.0,1704.137
1704147.0,213.0,257.0,3.0,240.0,1704.147
1704157.0,215.0,262.0,4.0,241.0,1704.157
1704167.0,209.0,255.0,4.0,238.0,1704.167
1704177.0,219.0,265.0,4.0,247.0,1704.177
1704187.0,220.0,268.0,3.0,248.0,1704.187
1704197.0,216.0,259.0,4.0,244.0,1704.197
1704207.0,215.0,261.0,4.0,242.0,1704.207
1704217.0,210.0,253.0,4.0,239.0,1704.217
1704227.0,218.0,263.0,4.0,246.0,1704.227
1704237.0,221.0,263.0,5.0,247.0,1704.237
1704247.0,215.0,259.0,2.0,241.0,1704.247
1704257.0,216.0,258.0,5.0,239.0,1704.257
1704267.0,211.0,254.0,3.0,240.0,1704.267
1704278.0,218.0,264.0,4.0,245.0,1704.278
1704288.0,219.0,260.0,4.0,244.0,1704.288
1704298.0,212.0,254.0,4.0,237.0,1704.298
1704308.0,214.0,257.0,4.0,239.0,1704.308
1704318.0,217.0,258.0,10.0,244.0,1704.318
1704328.0,218.0,263.0,10.0,246.0,1704.328
1704338.0,218.0,258.0,13.0,242.0,1704.338
1704348.0,210.0,252.0,19.0,237.0,1704.348
1704358.0,212.0,256.0,17.0,239.0,1704.358
1704368.0,213.0,254.0,24.0,241.0,1704.368
1704378.0,217.0,262.0,25.0,246.0,1704.378
1704388.0,217.0,255.0,27.0,243.0,1704.388
1704398.0,209.0,250.0,35.0,237.0,1704.398
1704408.0,212.0,254.0,31.0,238.0,1704.408
1704418.0,213.0,254.0,39.0,242.0,1704.418
1704428.0,218.0,261.0,43.0,244.0,1704.428
1704438.0,217.0,256.0,42.0,242.0,1704.438
1704448.0,212.0,253.0,51.0,237.0,1704.448
1704458.0,212.0,257.0,45.0,239.0,1704.458
1704468.0,215.0,257.0,53.0,241.0,1704.468
1704478.0,217.0,263.0,58.0,242.0,1704.478
1704488.0,216.0,259.0,56.0,240.0,1704.488
1704498.0,212.0,255.0,66.0,236.0,1704.498
1704508.0,212.0,258.0,58.0,237.0,1704.508
1704518.0,214.0,261.0,67.0,243.0,1704.518
1704528.0,216.0,263.0,73.0,242.0,1704.528
1704538.0,219.0,262.0,69.0,242.0,1704.538
1704548.0,211.0,252.0,77.0,235.0,1704.548
1704558.0,213.0,255.0,69.0,237.0,1704.558
1704568.0,216.0,260.0,80.0,244.0,1704.568
1704578.0,217.0,261.0,87.0,244.0,1704.578
1704588.0,218.0,258.0,81.0,244.0,1704.588
1704598.0,209.0,250.0,94.0,236.0,1704.598
1704608.0,211.0,253.0,81.0,238.0,1704.608
1704619.0,217.0,259.0,95.0,245.0,1704.619
1704629.0,215.0,259.0,102.0,243.0,1704.629
1704639.0,215.0,257.0,93.0,240.0,1704.639
1704649.0,207.0,248.0,105.0,233.0,1704.649
1704659.0,214.0,257.0,102.0,241.0,1704.659
1704669.0,218.0,259.0,106.0,244.0,1704.669
1704679.0,215.0,256.0,117.0,241.0,1704.679
1704689.0,215.0,257.0,106.0,239.0,1704.689
1704699.0,206.0,248.0,117.0,233.0,1704.699
1704709.0,213.0,254.0,109.0,239.0,1704.709
1704719.0,219.0,261.0,117.0,246.0,1704.719
1704729.0,216.0,256.0,128.0,242.0,1704.729
1704739.0,216.0,255.0,117.0,242.0,1704.739
1704749.0,210.0,249.0,131.0,235.0,1704.749
1704759.0,214.0,257.0,122.0,241.0,1704.759
1704769.0,219.0,263.0,129.0,246.0,1704.769
1704779.0,215.0,260.0,142.0,242.0,1704.779
1704790.0,214.0,257.0,129.0,240.0,1704.79
1704800.0,209.0,251.0,140.0,236.0,1704.8
1704810.0,217.0,261.0,144.0,245.0,1704.81
1704820.0,219.0,261.0,139.0,245.0,1704.82
1704830.0,212.0,254.0,150.0,236.0,1704.83
1704840.0,213.0,256.0,138.0,239.0,1704.84
1704850.0,210.0,252.0,149.0,237.0,1704.85
1704860.0,218.0,262.0,155.0,244.0,1704.86
1704870.0,219.0,260.0,149.0,243.0,1704.87
1704880.0,216.0,258.0,161.0,239.0,1704.88
1704890.0,214.0,258.0,148.0,238.0,1704.89
1704900.0,213.0,254.0,159.0,238.0,1704.9
1704910.0,219.0,265.0,166.0,244.0,1704.91
1704920.0,221.0,262.0,160.0,244.0,1704.92
1704930.0,216.0,258.0,171.0,237.0,1704.93
1704940.0,215.0,256.0,159.0,238.0,1704.94
1704950.0,215.0,255.0,169.0,239.0,1704.95
1704960.0,218.0,261.0,173.0,242.0,1704.96
1704970.0,222.0,262.0,170.0,244.0,1704.97
1704980.0,216.0,256.0,181.0,236.0,1704.98
1704990.0,216.0,256.0,169.0,237.0,1704.99
1705000.0,217.0,255.0,178.0,239.0,1705.0
1705010.0,220.0,261.0,184.0,242.0,1705.01
1705020.0,222.0,262.0,179.0,245.0,1705.02
1705030.0,217.0,257.0,189.0,237.0,1705.03
1705040.0,217.0,258.0,179.0,238.0,1705.04
1705050.0,215.0,252.0,186.0,236.0,1705.05
1705060.0,221.0,263.0,192.0,244.0,1705.06
1705070.0,223.0,262.0,188.0,245.0,1705.07
1705080.0,217.0,254.0,194.0,236.0,1705.08
1705090.0,218.0,257.0,186.0,238.0,1705.09
1705100.0,215.0,253.0,193.0,238.0,1705.1
1705110.0,222.0,262.0,202.0,246.0,1705.11
1705120.0,222.0,260.0,193.0,243.0,1705.12
1705131.0,217.0,252.0,203.0,236.0,1705.131
1705141.0,217.0,256.0,193.0,238.0,1705.141
1705151.0,221.0,257.0,199.0,243.0,1705.151
1705161.0,223.0,259.0,210.0,243.0,1705.161
1705171.0,220.0,258.0,198.0,239.0,1705.171
1705181.0,218.0,253.0,208.0,234.0,1705.181
1705191.0,217.0,256.0,200.0,236.0,1705.191
1705201.0,223.0,261.0,206.0,242.0,1705.201
1705211.0,224.0,261.0,216.0,241.0,1705.211
1705221.0,223.0,261.0,207.0,241.0,1705.221
1705231.0,219.0,255.0,213.0,234.0,1705.231
1705241.0,219.0,257.0,207.0,237.0,1705.241
1705251.0,225.0,262.0,212.0,244.0,1705.251
1705261.0,229.0,264.0,222.0,243.0,1705.261
1705271.0,226.0,262.0,211.0,240.0,1705.271
1705281.0,220.0,255.0,218.0,233.0,1705.281
1705291.0,221.0,260.0,214.0,238.0,1705.291
1705302.0,227.0,265.0,218.0,244.0,1705.302
1705312.0,225.0,263.0,226.0,241.0,1705.312
1705322.0,223.0,260.0,217.0,240.0,1705.322
1705332.0,219.0,254.0,221.0,234.0,1705.332
1705342.0,225.0,265.0,226.0,243.0,1705.342
1705352.0,226.0,266.0,224.0,246.0,1705.352
1705362.0,224.0,261.0,231.0,240.0,1705.362
1705372.0,222.0,259.0,220.0,240.0,1705.372
1705382.0,217.0,250.0,225.0,235.0,1705.382
1705392.0,221.0,257.0,227.0,240.0,1705.392
1705402.0,225.0,263.0,228.0,246.0,1705.402
1705412.0,222.0,258.0,235.0,240.0,1705.412
1705422.0,219.0,258.0,225.0,240.0,1705.422
1705432.0,216.0,248.0,229.0,231.0,1705.432
