time (ms),signal 0,signal 1,signal 2,signal 3,time (sec)
1738888.0,214.0,252.0,103.0,238.0,1738.888
1738898.0,209.0,257.0,99.0,233.0,1738.898
1738908.0,209.0,250.0,95.0,233.0,1738.908
1738918.0,206.0,248.0,91.0,230.0,1738.918
1738928.0,209.0,256.0,87.0,235.0,1738.928
1738938.0,214.0,254.0,83.0,238.0,1738.938
1738948.0,207.0,256.0,79.0,232.0,1738.948
1738958.0,209.0,250.0,75.0,233.0,1738.958
1738968.0,203.0,249.0,72.0,228.0,1738.968
1738978.0,210.0,258.0,69.0,237.0,1738.978
1738988.0,216.0,254.0,66.0,241.0,1738.988
1738998.0,207.0,255.0,62.0,234.0,1738.998
1739008.0,211.0,250.0,60.0,235.0,1739.008
1739018.0,203.0,247.0,57.0,230.0,1739.018
1739028.0,211.0,257.0,54.0,238.0,1739.028
1739038.0,215.0,253.0,51.0,240.0,1739.038
1739048.0,207.0,251.0,49.0,233.0,1739.048
1739058.0,212.0,248.0,46.0,235.0,1739.058
1739068.0,204.0,245.0,44.0,230.0,1739.068
1739078.0,212.0,257.0,41.0,239.0,1739.078
1739088.0,217.0,254.0,38.0,241.0,1739.088
1739098.0,210.0,255.0,37.0,235.0,1739.098
1739108.0,211.0,249.0,33.0,236.0,1739.108
1739118.0,206.0,246.0,33.0,232.0,1739.118
1739128.0,212.0,257.0,30.0,239.0,1739.128
1739138.0,216.0,252.0,29.0,241.0,1739.138
1739148.0,210.0,255.0,27.0,236.0,1739.148
1739158.0,211.0,249.0,25.0,236.0,1739.158
1739168.0,207.0,246.0,23.0,234.0,1739.168
1739179.0,214.0,257.0,20.0,241.0,1739.179
1739189.0,216.0,251.0,19.0,240.0,1739.189
1739199.0,207.0,248.0,18.0,232.0,1739.199
1739209.0,209.0,249.0,16.0,235.0,1739.209
1739219.0,213.0,249.0,15.0,240.0,1739.219
1739229.0,214.0,258.0,14.0,241.0,1739.229
1739239.0,216.0,253.0,13.0,239.0,1739.239
1739249.0,208.0,250.0,13.0,233.0,1739.249
1739259.0,210.0,251.0,11.0,236.0,1739.259
1739269.0,209.0,251.0,10.0,237.0,1739.269
1739279.0,214.0,260.0,10.0,243.0,1739.279
1739289.0,214.0,253.0,9.0,240.0,1739.289
1739299.0,205.0,251.0,8.0,233.0,1739.299
1739309.0,211.0,252.0,9.0,237.0,1739.309
1739319.0,210.0,250.0,7.0,241.0,1739.319
1739329.0,212.0,259.0,7.0,244.0,1739.329
1739339.0,215.0,255.0,7.0,245.0,1739.339
1739350.0,205.0,247.0,6.0,236.0,1739.35
1739360.0,209.0,250.0,5.0,241.0,1739.36
1739370.0,216.0,250.0,7.0,249.0,1739.37
1739380.0,214.0,256.0,6.0,245.0,1739.38
1739390.0,214.0,251.0,5.0,241.0,1739.39
1739400.0,208.0,248.0,5.0,236.0,1739.4
1739410.0,211.0,253.0,6.0,240.0,1739.41
1739420.0,219.0,252.0,5.0,246.0,1739.42
1739430.0,215.0,258.0,5.0,240.0,1739.43
1739440.0,218.0,252.0,6.0,239.0,1739.44
1739450.0,208.0,253.0,4.0,233.0,1739.45
1739460.0,214.0,258.0,5.0,241.0,1739.46
1739470.0,219.0,259.0,5.0,246.0,1739.47
1739480.0,216.0,262.0,5.0,242.0,1739.48
1739490.0,216.0,256.0,4.0,241.0,1739.49
1739500.0,209.0,251.0,5.0,233.0,1739.5
1739510.0,215.0,259.0,4.0,242.0,1739.51
1739520.0,218.0,256.0,4.0,245.0,1739.52
1739530.0,217.0,262.0,5.0,244.0,1739.53
1739540.0,217.0,255.0,4.0,242.0,1739.54
1739550.0,209.0,250.0,4.0,234.0,1739.55
1739560.0,216.0,260.0,5.0,244.0,1739.56
1739570.0,220.0,255.0,5.0,246.0,1739.57
1739580.0,215.0,259.0,4.0,244.0,1739.58
1739590.0,215.0,253.0,4.0,241.0,1739.59
1739600.0,207.0,247.0,4.0,233.0,1739.6
1739610.0,213.0,256.0,4.0,240.0,1739.61
1739620.0,223.0,257.0,4.0,249.0,1739.62
1739630.0,219.0,259.0,5.0,246.0,1739.63
1739640.0,218.0,255.0,3.0,244.0,1739.64
1739650.0,212.0,251.0,4.0,237.0,1739.65
1739660.0,216.0,256.0,5.0,243.0,1739.66
1739670.0,221.0,256.0,5.0,249.0,1739.67
1739680.0,217.0,258.0,4.0,243.0,1739.68
1739691.0,217.0,253.0,5.0,241.0,1739.691
1739701.0,214.0,250.0,4.0,239.0,1739.701
1739711.0,222.0,261.0,4.0,249.0,1739.711
1739721.0,225.0,258.0,4.0,249.0,1739.721
1739731.0,217.0,253.0,3.0,241.0,1739.731
1739741.0,221.0,255.0,4.0,244.0,1739.741
1739751.0,214.0,249.0,4.0,240.0,1739.751
1739761.0,223.0,260.0,4.0,251.0,1739.761
1739771.0,223.0,256.0,4.0,249.0,1739.771
1739781.0,217.0,255.0,4.0,242.0,1739.781
1739791.0,217.0,254.0,4.0,243.0,1739.791
1739801.0,212.0,248.0,4.0,243.0,1739.801
1739811.0,219.0,260.0,4.0,251.0,1739.811
1739821.0,221.0,256.0,5.0,250.0,1739.821
1739831.0,213.0,254.0,4.0,243.0,1739.831
1739841.0,216.0,253.0,4.0,243.0,1739.841
1739851.0,212.0,248.0,4.0,244.0,1739.851
1739862.0,217.0,258.0,4.0,249.0,1739.862
1739872.0,222.0,254.0,4.0,248.0,1739.872
1739882.0,213.0,248.0,4.0,246.0,1739.882
1739892.0,216.0,249.0,4.0,248.0,1739.892
1739902.0,221.0,249.0,4.0,252.0,1739.902
1739912.0,223.0,257.0,4.0,253.0,1739.912
1739922.0,222.0,255.0,4.0,250.0,1739.922
1739932.0,214.0,246.0,4.0,244.0,1739.932
1739942.0,214.0,247.0,4.0,245.0,1739.942
1739952.0,221.0,246.0,5.0,248.0,1739.952
1739962.0,225.0,254.0,4.0,249.0,1739.962
1739972.0,226.0,255.0,4.0,241.0,1739.972
1739982.0,216.0,244.0,4.0,232.0,1739.982
1739992.0,219.0,246.0,4.0,236.0,1739.992
1740002.0,220.0,250.0,4.0,242.0,1740.002
1740012.0,229.0,251.0,4.0,245.0,1740.012
1740022.0,230.0,253.0,4.0,243.0,1740.022
1740032.0,226.0,254.0,4.0,243.0,1740.032
1740042.0,231.0,264.0,4.0,244.0,1740.042
1740052.0,249.0,275.0,3.0,251.0,1740.052
1740062.0,257.0,284.0,4.0,255.0,1740.062
1740072.0,254.0,284.0,4.0,248.0,1740.072
1740082.0,243.0,271.0,5.0,239.0,1740.082
1740092.0,244.0,274.0,3.0,244.0,1740.092
1740102.0,243.0,265.0,4.0,246.0,1740.102
1740112.0,251.0,265.0,3.0,256.0,1740.112
1740122.0,252.0,260.0,4.0,265.0,1740.122
1740132.0,237.0,254.0,3.0,260.0,1740.132
1740142.0,231.0,253.0,4.0,258.0,1740.142
1740152.0,236.0,254.0,4.0,266.0,1740.152
1740162.0,233.0,261.0,4.0,267.0,1740.162
1740172.0,234.0,261.0,4.0,270.0,1740.172
1740182.0,220.0,251.0,3.0,261.0,1740.182
1740192.0,226.0,258.0,4.0,263.0,1740.192
1740203.0,235.0,259.0,4.0,265.0,1740.203
1740213.0,231.0,262.0,4.0,258.0,1740.213
1740223.0,228.0,255.0,4.0,254.0,1740.223
1740233.0,218.0,249.0,4.0,248.0,1740.233
1740243.0,227.0,260.0,3.0,260.0,1740.243
1740253.0,236.0,260.0,4.0,263.0,1740.253
1740263.0,229.0,257.0,4.0,256.0,1740.263
1740273.0,231.0,253.0,5.0,257.0,1740.273
1740283.0,218.0,247.0,4.0,248.0,1740.283
1740293.0,215.0,253.0,4.0,253.0,1740.293
1740303.0,231.0,256.0,3.0,261.0,1740.303
1740313.0,239.0,263.0,4.0,256.0,1740.313
1740323.0,237.0,256.0,3.0,251.0,1740.323
1740333.0,227.0,250.0,5.0,237.0,1740.333
1740343.0,231.0,250.0,4.0,246.0,1740.343
1740353.0,234.0,247.0,4.0,242.0,1740.353
1740363.0,230.0,248.0,4.0,234.0,1740.363
1740374.0,231.0,248.0,3.0,242.0,1740.374
1740384.0,223.0,241.0,4.0,237.0,1740.384
1740394.0,236.0,257.0,4.0,248.0,1740.394
1740404.0,243.0,253.0,4.0,247.0,1740.404
1740414.0,242.0,261.0,4.0,241.0,1740.414
1740424.0,238.0,253.0,4.0,237.0,1740.424
1740434.0,234.0,251.0,3.0,238.0,1740.434
1740444.0,240.0,265.0,4.0,257.0,1740.444
1740454.0,245.0,262.0,4.0,268.0,1740.454
1740464.0,234.0,257.0,4.0,254.0,1740.464
1740474.0,232.0,256.0,4.0,249.0,1740.474
1740484.0,229.0,255.0,4.0,245.0,1740.484
1740494.0,236.0,268.0,4.0,261.0,1740.494
1740504.0,244.0,271.0,4.0,271.0,1740.504
1740514.0,233.0,264.0,4.0,255.0,1740.514
1740524.0,237.0,267.0,4.0,268.0,1740.524
1740534.0,234.0,261.0,4.0,268.0,1740.534
1740544.0,235.0,265.0,4.0,269.0,1740.544
1740554.0,242.0,263.0,4.0,267.0,1740.554
1740564.0,232.0,259.0,3.0,256.0,1740.564
1740574.0,237.0,260.0,4.0,266.0,1740.574
1740584.0,237.0,254.0,4.0,269.0,1740.584
1740594.0,239.0,259.0,4.0,267.0,1740.594
1740604.0,243.0,259.0,4.0,265.0,1740.604
1740614.0,232.0,252.0,4.0,258.0,1740.614
1740624.0,237.0,257.0,3.0,251.0,1740.624
1740634.0,233.0,250.0,4.0,254.0,1740.634
1740644.0,242.0,263.0,4.0,270.0,1740.644
1740654.0,244.0,261.0,3.0,259.0,1740.654
1740664.0,232.0,251.0,4.0,252.0,1740.664
1740674.0,236.0,254.0,4.0,254.0,1740.674
1740684.0,230.0,249.0,4.0,254.0,1740.684
1740694.0,239.0,263.0,3.0,265.0,1740.694
1740704.0,245.0,262.0,4.0,268.0,1740.704
1740715.0,233.0,255.0,4.0,263.0,1740.715
1740725.0,236.0,256.0,5.0,263.0,1740.725
1740735.0,242.0,256.0,4.0,271.0,1740.735
1740745.0,240.0,262.0,4.0,273.0,1740.745
1740755.0,240.0,258.0,3.0,268.0,1740.755
1740765.0,232.0,255.0,4.0,263.0,1740.765
1740775.0,234.0,256.0,4.0,265.0,1740.775
1740785.0,241.0,258.0,5.0,274.0,1740.785
1740795.0,238.0,265.0,4.0,273.0,1740.795
1740805.0,240.0,261.0,4.0,269.0,1740.805
1740815.0,231.0,257.0,4.0,267.0,1740.815
1740825.0,234.0,261.0,4.0,268.0,1740.825
1740835.0,239.0,263.0,3.0,275.0,1740.835
1740845.0,239.0,272.0,4.0,278.0,1740.845
1740855.0,240.0,268.0,4.0,278.0,1740.855
1740865.0,230.0,264.0,2.0,274.0,1740.865
1740875.0,235.0,266.0,4.0,278.0,1740.875
1740886.0,239.0,265.0,3.0,280.0,1740.886
1740896.0,238.0,271.0,4.0,277.0,1740.896
1740906.0,237.0,265.0,4.0,269.0,1740.906
1740916.0,230.0,261.0,4.0,268.0,1740.916
1740926.0,237.0,272.0,4.0,275.0,1740.926
1740936.0,242.0,268.0,4.0,280.0,1740.936
1740946.0,238.0,271.0,4.0,275.0,1740.946
1740956.0,236.0,266.0,4.0,270.0,1740.956
1740966.0,230.0,263.0,4.0,269.0,1740.966
1740976.0,234.0,270.0,5.0,273.0,1740.976
1740986.0,239.0,270.0,4.0,275.0,1740.986
1740996.0,234.0,274.0,4.0,268.0,1740.996
1741006.0,234.0,269.0,4.0,266.0,1741.006
1741016.0,227.0,262.0,3.0,260.0,1741.016
1741026.0,235.0,272.0,4.0,266.0,1741.026
1741036.0,239.0,271.0,4.0,269.0,1741.036
1741046.0,235.0,273.0,4.0,260.0,1741.046
1741056.0,235.0,270.0,4.0,260.0,1741.056
1741066.0,227.0,264.0,4.0,254.0,1741.066
1741076.0,235.0,271.0,3.0,263.0,1741.076
1741086.0,239.0,267.0,4.0,265.0,1741.086
1741096.0,233.0,266.0,3.0,260.0,1741.096
1741106.0,235.0,264.0,5.0,256.0,1741.106
1741116.0,226.0,258.0,4.0,250.0,1741.116
1741126.0,235.0,268.0,4.0,260.0,1741.126
1741136.0,240.0,267.0,4.0,263.0,1741.136
1741146.0,236.0,265.0,4.0,259.0,1741.146
1741156.0,234.0,263.0,4.0,256.0,1741.156
1741166.0,228.0,256.0,4.0,252.0,1741.166
1741176.0,237.0,268.0,4.0,262.0,1741.176
1741186.0,240.0,263.0,4.0,262.0,1741.186
1741196.0,239.0,271.0,4.0,260.0,1741.196
1741206.0,235.0,266.0,3.0,261.0,1741.206
1741216.0,231.0,259.0,5.0,254.0,1741.216
1741227.0,239.0,273.0,4.0,262.0,1741.227
1741237.0,241.0,269.0,4.0,260.0,1741.237
1741247.0,237.0,271.0,4.0,255.0,1741.247
1741257.0,239.0,269.0,3.0,256.0,1741.257
1741267.0,241.0,268.0,3.0,261.0,1741.267
1741277.0,243.0,278.0,4.0,262.0,1741.277
1741287.0,243.0,274.0,4.0,259.0,1741.287
1741297.0,235.0,268.0,4.0,247.0,1741.297
1741307.0,235.0,268.0,4.0,251.0,1741.307
1741317.0,231.0,263.0,4.0,249.0,1741.317
1741327.0,237.0,274.0,4.0,256.0,1741.327
1741337.0,238.0,272.0,3.0,260.0,1741.337
1741347.0,231.0,266.0,4.0,249.0,1741.347
1741357.0,233.0,266.0,4.0,252.0,1741.357
1741367.0,233.0,265.0,5.0,253.0,1741.367
1741377.0,238.0,277.0,3.0,259.0,1741.377
1741387.0,238.0,269.0,4.0,258.0,1741.387
1741398.0,231.0,272.0,3.0,251.0,1741.398
1741408.0,232.0,272.0,4.0,253.0,1741.408
1741418.0,237.0,277.0,4.0,258.0,1741.418
1741428.0,241.0,283.0,4.0,256.0,1741.428
1741438.0,238.0,275.0,4.0,258.0,1741.438
1741448.0,234.0,274.0,3.0,255.0,1741.448
1741458.0,235.0,275.0,3.0,258.0,1741.458
1741468.0,238.0,274.0,4.0,262.0,1741.468
1741478.0,236.0,278.0,4.0,256.0,1741.478
1741488.0,236.0,274.0,5.0,257.0,1741.488
1741498.0,229.0,265.0,4.0,247.0,1741.498
1741508.0,233.0,269.0,5.0,254.0,1741.508
1741518.0,250.0,270.0,4.0,259.0,1741.518
1741528.0,248.0,273.0,3.0,256.0,1741.528
1741538.0,246.0,269.0,4.0,254.0,1741.538
1741548.0,239.0,260.0,4.0,245.0,1741.548
1741558.0,243.0,267.0,4.0,253.0,1741.558
1741568.0,242.0,264.0,4.0,257.0,1741.568
1741578.0,240.0,272.0,4.0,252.0,1741.578
1741588.0,237.0,265.0,3.0,256.0,1741.588
1741598.0,230.0,261.0,4.0,246.0,1741.598
1741608.0,234.0,268.0,4.0,253.0,1741.608
1741618.0,237.0,264.0,4.0,259.0,1741.618
1741628.0,236.0,269.0,3.0,252.0,1741.628
1741638.0,232.0,262.0,4.0,253.0,1741.638
1741648.0,225.0,259.0,4.0,243.0,1741.648
1741658.0,226.0,263.0,3.0,250.0,1741.658
1741668.0,232.0,263.0,4.0,259.0,1741.668
1741678.0,230.0,273.0,4.0,251.0,1741.678
1741688.0,228.0,265.0,4.0,255.0,1741.688
1741698.0,222.0,266.0,3.0,244.0,1741.698
1741708.0,223.0,266.0,5.0,246.0,1741.708
1741718.0,227.0,269.0,3.0,255.0,1741.718
1741728.0,225.0,270.0,4.0,247.0,1741.728
1741739.0,223.0,263.0,4.0,250.0,1741.739
1741749.0,217.0,257.0,5.0,237.0,1741.749
1741759.0,222.0,267.0,4.0,246.0,1741.759
1741769.0,226.0,264.0,4.0,250.0,1741.769
1741779.0,219.0,262.0,3.0,239.0,1741.779
1741789.0,221.0,259.0,4.0,244.0,1741.789
1741799.0,213.0,253.0,4.0,237.0,1741.799
1741809.0,217.0,263.0,5.0,243.0,1741.809
1741819.0,221.0,261.0,4.0,250.0,1741.819
1741829.0,216.0,262.0,4.0,237.0,1741.829
1741839.0,215.0,257.0,3.0,241.0,1741.839
1741849.0,211.0,254.0,3.0,238.0,1741.849
1741859.0,219.0,265.0,4.0,244.0,1741.859
1741869.0,221.0,261.0,4.0,247.0,1741.869
1741879.0,218.0,261.0,5.0,236.0,1741.879
1741889.0,215.0,256.0,4.0,238.0,1741.889
1741899.0,211.0,252.0,4.0,235.0,1741.899
1741910.0,219.0,265.0,3.0,243.0,1741.91
1741920.0,221.0,261.0,4.0,246.0,1741.92
1741930.0,214.0,254.0,4.0,233.0,1741.93
1741940.0,217.0,255.0,5.0,235.0,1741.94
1741950.0,218.0,254.0,4.0,240.0,1741.95
1741960.0,220.0,261.0,4.0,241.0,1741.96
1741970.0,221.0,257.0,4.0,244.0,1741.97
1741980.0,213.0,250.0,4.0,231.0,1741.98
1741990.0,215.0,252.0,4.0,235.0,1741.99
1742000.0,214.0,249.0,4.0,238.0,1742.0
1742010.0,219.0,258.0,4.0,242.0,1742.01
1742020.0,220.0,255.0,4.0,242.0,1742.02
1742030.0,212.0,247.0,4.0,233.0,1742.03
1742040.0,215.0,252.0,3.0,239.0,1742.04
1742050.0,215.0,248.0,4.0,239.0,1742.05
1742060.0,219.0,256.0,4.0,241.0,1742.06
1742070.0,219.0,252.0,5.0,243.0,1742.07
1742080.0,213.0,251.0,4.0,237.0,1742.08
1742090.0,214.0,250.0,4.0,239.0,1742.09
1742100.0,216.0,250.0,4.0,242.0,1742.1
1742110.0,219.0,258.0,4.0,240.0,1742.11
1742120.0,219.0,253.0,3.0,240.0,1742.12
1742130.0,214.0,251.0,5.0,233.0,1742.13
1742140.0,216.0,252.0,4.0,236.0,1742.14
1742150.0,217.0,253.0,3.0,240.0,1742.15
1742160.0,218.0,260.0,4.0,241.0,1742.16
1742170.0,221.0,261.0,3.0,243.0,1742.17
1742180.0,213.0,254.0,4.0,233.0,1742.18
1742190.0,213.0,256.0,4.0,236.0,1742.19
1742200.0,219.0,256.0,5.0,241.0,1742.2
1742210.0,220.0,263.0,3.0,243.0,1742.21
1742220.0,220.0,259.0,4.0,244.0,1742.22
1742230.0,212.0,252.0,3.0,234.0,1742.23
1742240.0,214.0,251.0,4.0,237.0,1742.24
1742251.0,218.0,251.0,4.0,246.0,1742.251
1742261.0,219.0,257.0,4.0,241.0,1742.261
1742271.0,218.0,252.0,3.0,240.0,1742.271
1742281.0,210.0,247.0,4.0,229.0,1742.281
1742291.0,216.0,257.0,3.0,240.0,1742.291
1742301.0,219.0,254.0,4.0,242.0,1742.301
1742311.0,218.0,258.0,4.0,239.0,1742.311
1742321.0,217.0,254.0,4.0,239.0,1742.321
1742331.0,209.0,248.0,4.0,233.0,1742.331
1742341.0,213.0,254.0,4.0,239.0,1742.341
1742351.0,220.0,255.0,4.0,247.0,1742.351
1742361.0,217.0,259.0,3.0,242.0,1742.361
1742371.0,217.0,254.0,3.0,240.0,1742.371
1742381.0,210.0,250.0,4.0,234.0,1742.381
1742391.0,214.0,254.0,4.0,240.0,1742.391
1742401.0,220.0,257.0,4.0,250.0,1742.401
1742411.0,216.0,256.0,3.0,245.0,1742.411
1742422.0,215.0,255.0,4.0,246.0,1742.422
1742432.0,208.0,247.0,4.0,239.0,1742.432
1742442.0,217.0,258.0,3.0,248.0,1742.442
1742452.0,220.0,258.0,4.0,248.0,1742.452
1742462.0,213.0,253.0,3.0,240.0,1742.462
1742472.0,215.0,253.0,4.0,243.0,1742.472
1742482.0,210.0,248.0,3.0,239.0,1742.482
1742492.0,218.0,260.0,4.0,245.0,1742.492
1742502.0,221.0,258.0,4.0,245.0,1742.502
1742512.0,215.0,254.0,4.0,239.0,1742.512
1742522.0,216.0,254.0,5.0,240.0,1742.522
1742532.0,211.0,249.0,4.0,237.0,1742.532
1742542.0,219.0,259.0,4.0,243.0,1742.542
1742552.0,222.0,257.0,3.0,246.0,1742.552
1742562.0,216.0,252.0,3.0,238.0,1742.562
1742572.0,215.0,253.0,3.0,239.0,1742.572
1742582.0,213.0,247.0,5.0,238.0,1742.582
1742592.0,216.0,255.0,3.0,243.0,1742.592
1742602.0,220.0,256.0,4.0,245.0,1742.602
1742612.0,215.0,251.0,3.0,238.0,1742.612
1742622.0,215.0,252.0,4.0,238.0,1742.622
1742632.0,213.0,246.0,4.0,239.0,1742.632
1742642.0,216.0,255.0,4.0,244.0,1742.642
1742652.0,221.0,255.0,4.0,248.0,1742.652
1742662.0,213.0,250.0,4.0,238.0,1742.662
1742672.0,214.0,251.0,3.0,239.0,1742.672
1742682.0,209.0,245.0,3.0,236.0,1742.682
1742692.0,216.0,254.0,4.0,244.0,1742.692
1742702.0,219.0,255.0,4.0,245.0,1742.702
1742712.0,213.0,247.0,5.0,237.0,1742.712
1742722.0,214.0,250.0,3.0,238.0,1742.722
1742732.0,209.0,245.0,3.0,235.0,1742.732
1742742.0,218.0,258.0,3.0,245.0,1742.742
1742752.0,220.0,256.0,4.0,244.0,1742.752
1742763.0,214.0,250.0,4.0,237.0,1742.763
1742773.0,215.0,251.0,5.0,239.0,1742.773
1742783.0,217.0,251.0,4.0,242.0,1742.783
1742793.0,218.0,258.0,3.0,243.0,1742.793
1742803.0,217.0,253.0,4.0,241.0,1742.803
1742813.0,211.0,250.0,3.0,235.0,1742.813
1742823.0,213.0,249.0,4.0,237.0,1742.823
1742833.0,216.0,249.0,4.0,242.0,1742.833
1742843.0,218.0,255.0,5.0,242.0,1742.843
1742853.0,218.0,255.0,4.0,243.0,1742.853
1742863.0,210.0,247.0,4.0,234.0,1742.863
1742873.0,212.0,253.0,3.0,237.0,1742.873
1742883.0,217.0,252.0,3.0,242.0,1742.883
1742893.0,217.0,259.0,4.0,243.0,1742.893
1742903.0,218.0,254.0,4.0,241.0,1742.903
1742913.0,210.0,247.0,4.0,233.0,1742.913
1742923.0,212.0,251.0,4.0,236.0,1742.923
1742934.0,218.0,253.0,4.0,244.0,1742.934
1742944.0,217.0,256.0,4.0,241.0,1742.944
1742954.0,216.0,253.0,4.0,240.0,1742.954
1742964.0,207.0,245.0,4.0,232.0,1742.964
1742974.0,216.0,254.0,3.0,243.0,1742.974
1742984.0,218.0,253.0,4.0,245.0,1742.984
1742994.0,216.0,253.0,4.0,241.0,1742.994
1743004.0,215.0,252.0,3.0,241.0,1743.004
1743014.0,208.0,244.0,4.0,233.0,1743.014
1743024.0,212.0,249.0,4.0,239.0,1743.024
1743034.0,219.0,250.0,5.0,245.0,1743.034
1743044.0,214.0,250.0,4.0,240.0,1743.044
1743054.0,214.0,249.0,4.0,238.0,1743.054
1743064.0,208.0,242.0,3.0,231.0,1743.064
1743074.0,212.0,248.0,3.0,238.0,1743.074
1743084.0,219.0,250.0,4.0,245.0,1743.084
1743094.0,215.0,246.0,5.0,239.0,1743.094
1743104.0,216.0,249.0,4.0,240.0,1743.104
1743114.0,208.0,240.0,4.0,231.0,1743.114
1743124.0,214.0,249.0,4.0,241.0,1743.124
1743134.0,219.0,251.0,3.0,245.0,1743.134
1743144.0,213.0,246.0,4.0,237.0,1743.144
1743154.0,215.0,250.0,4.0,239.0,1743.154
1743164.0,210.0,240.0,4.0,230.0,1743.164
1743174.0,215.0,248.0,4.0,241.0,1743.174
1743184.0,220.0,249.0,4.0,245.0,1743.184
1743194.0,217.0,249.0,3.0,242.0,1743.194
1743204.0,216.0,246.0,4.0,242.0,1743.204
1743214.0,208.0,240.0,4.0,233.0,1743.214
1743224.0,217.0,250.0,5.0,243.0,1743.224
1743234.0,218.0,247.0,4.0,246.0,1743.234
1743244.0,215.0,249.0,4.0,239.0,1743.244
1743254.0,216.0,247.0,3.0,240.0,1743.254
1743264.0,209.0,241.0,4.0,232.0,1743.264
1743275.0,217.0,252.0,4.0,241.0,1743.275
1743285.0,221.0,250.0,4.0,243.0,1743.285
1743295.0,213.0,245.0,4.0,235.0,1743.295
1743305.0,214.0,246.0,3.0,238.0,1743.305
1743315.0,213.0,244.0,4.0,238.0,1743.315
1743325.0,216.0,252.0,3.0,241.0,1743.325
1743335.0,219.0,250.0,4.0,242.0,1743.335
1743345.0,212.0,245.0,4.0,231.0,1743.345
1743355.0,213.0,245.0,4.0,234.0,1743.355
1743365.0,208.0,241.0,4.0,231.0,1743.365
1743375.0,216.0,251.0,3.0,241.0,1743.375
1743385.0,219.0,252.0,3.0,243.0,1743.385
1743395.0,212.0,242.0,4.0,232.0,1743.395
1743405.0,215.0,246.0,4.0,236.0,1743.405
1743415.0,211.0,241.0,5.0,234.0,1743.415
1743425.0,218.0,252.0,4.0,240.0,1743.425
1743435.0,219.0,251.0,4.0,241.0,1743.435
1743446.0,210.0,244.0,4.0,233.0,1743.446
1743456.0,213.0,245.0,3.0,236.0,1743.456
1743466.0,216.0,243.0,4.0,242.0,1743.466
1743476.0,217.0,249.0,4.0,242.0,1743.476
1743486.0,216.0,247.0,4.0,240.0,1743.486
1743496.0,210.0,242.0,3.0,234.0,1743.496
1743506.0,213.0,244.0,4.0,237.0,1743.506
1743516.0,218.0,245.0,3.0,245.0,1743.516
1743526.0,217.0,248.0,4.0,242.0,1743.526
1743536.0,220.0,248.0,4.0,245.0,1743.536
1743546.0,213.0,242.0,5.0,235.0,1743.546
1743556.0,215.0,244.0,4.0,240.0,1743.556
1743566.0,220.0,244.0,4.0,245.0,1743.566
1743576.0,220.0,250.0,3.0,245.0,1743.576
1743586.0,219.0,247.0,4.0,244.0,1743.586
1743596.0,212.0,240.0,5.0,235.0,1743.596
1743606.0,214.0,243.0,4.0,240.0,1743.606
1743616.0,216.0,242.0,4.0,242.0,1743.616
1743626.0,218.0,251.0,4.0,243.0,1743.626
1743636.0,217.0,247.0,4.0,241.0,1743.636
1743646.0,210.0,240.0,3.0,232.0,1743.646
1743656.0,213.0,244.0,3.0,236.0,1743.656
1743666.0,215.0,242.0,3.0,239.0,1743.666
1743676.0,218.0,250.0,4.0,239.0,1743.676
1743686.0,217.0,246.0,4.0,239.0,1743.686
1743696.0,210.0,240.0,4.0,230.0,1743.696
1743706.0,213.0,245.0,3.0,238.0,1743.706
1743716.0,217.0,244.0,4.0,242.0,1743.716
1743726.0,217.0,251.0,3.0,243.0,1743.726
1743736.0,216.0,246.0,4.0,241.0,1743.736
1743746.0,213.0,243.0,4.0,235.0,1743.746
1743756.0,214.0,245.0,4.0,238.0,1743.756
1743766.0,219.0,245.0,4.0,245.0,1743.766
1743776.0,218.0,250.0,3.0,242.0,1743.776
1743787.0,217.0,246.0,4.0,240.0,1743.787
1743797.0,209.0,238.0,4.0,232.0,1743.797
1743807.0,216.0,247.0,4.0,242.0,1743.807
1743817.0,220.0,247.0,4.0,247.0,1743.817
1743827.0,213.0,244.0,4.0,239.0,1743.827
1743837.0,215.0,245.0,3.0,241.0,1743.837
1743847.0,209.0,238.0,4.0,232.0,1743.847
1743857.0,216.0,247.0,4.0,243.0,1743.857
1743867.0,221.0,248.0,5.0,246.0,1743.867
1743877.0,216.0,248.0,2.0,242.0,1743.877
1743887.0,215.0,245.0,4.0,240.0,1743.887
1743897.0,209.0,241.0,3.0,234.0,1743.897
1743907.0,216.0,250.0,3.0,244.0,1743.907
1743917.0,220.0,246.0,5.0,245.0,1743.917
1743927.0,216.0,244.0,4.0,240.0,1743.927
1743937.0,217.0,245.0,3.0,242.0,1743.937
1743947.0,210.0,240.0,3.0,236.0,1743.947
1743958.0,218.0,248.0,4.0,247.0,1743.958
1743968.0,222.0,247.0,4.0,247.0,1743.968
1743978.0,214.0,242.0,3.0,240.0,1743.978
1743988.0,216.0,244.0,4.0,241.0,1743.988
1743998.0,217.0,242.0,4.0,243.0,1743.998
1744008.0,219.0,249.0,3.0,246.0,1744.008
1744018.0,223.0,247.0,5.0,245.0,1744.018
1744028.0,213.0,243.0,3.0,238.0,1744.028
1744038.0,214.0,243.0,4.0,239.0,1744.038
1744048.0,211.0,239.0,4.0,238.0,1744.048
1744058.0,220.0,249.0,5.0,247.0,1744.058
1744068.0,221.0,246.0,4.0,246.0,1744.068
1744078.0,212.0,239.0,3.0,237.0,1744.078
1744088.0,214.0,242.0,4.0,239.0,1744.088
1744098.0,213.0,237.0,4.0,238.0,1744.098
1744108.0,220.0,249.0,5.0,247.0,1744.108
1744118.0,221.0,247.0,4.0,245.0,1744.118
1744128.0,215.0,241.0,4.0,240.0,1744.128
1744138.0,215.0,242.0,3.0,240.0,1744.138
1744148.0,212.0,239.0,4.0,239.0,1744.148
1744158.0,219.0,248.0,3.0,245.0,1744.158
1744168.0,220.0,244.0,4.0,241.0,1744.168
1744178.0,213.0,239.0,3.0,237.0,1744.178
1744188.0,214.0,239.0,4.0,238.0,1744.188
1744198.0,212.0,236.0,4.0,239.0,1744.198
1744208.0,218.0,245.0,4.0,244.0,1744.208
1744218.0,220.0,244.0,3.0,246.0,1744.218
1744228.0,212.0,238.0,3.0,239.0,1744.228
1744238.0,213.0,240.0,4.0,239.0,1744.238
1744248.0,215.0,239.0,5.0,243.0,1744.248
1744258.0,218.0,248.0,4.0,248.0,1744.258
1744268.0,220.0,246.0,3.0,248.0,1744.268
1744278.0,212.0,239.0,4.0,238.0,1744.278
1744288.0,213.0,241.0,3.0,240.0,1744.288
1744299.0,217.0,239.0,4.0,245.0,1744.299
1744309.0,217.0,246.0,4.0,245.0,1744.309
1744319.0,218.0,242.0,4.0,243.0,1744.319
1744329.0,210.0,235.0,4.0,236.0,1744.329
1744339.0,214.0,239.0,4.0,242.0,1744.339
1744349.0,217.0,237.0,3.0,247.0,1744.349
1744359.0,217.0,243.0,4.0,246.0,1744.359
1744369.0,216.0,240.0,4.0,243.0,1744.369
1744379.0,209.0,232.0,4.0,237.0,1744.379
1744389.0,213.0,237.0,4.0,243.0,1744.389
1744399.0,218.0,237.0,4.0,251.0,1744.399
1744409.0,216.0,243.0,3.0,250.0,1744.409
1744419.0,215.0,239.0,4.0,246.0,1744.419
1744429.0,210.0,235.0,4.0,241.0,1744.429
1744439.0,212.0,238.0,4.0,243.0,1744.439
1744449.0,218.0,238.0,4.0,249.0,1744.449
1744459.0,215.0,241.0,4.0,247.0,1744.459
1744470.0,215.0,237.0,4.0,244.0,1744.47
1744480.0,207.0,233.0,3.0,237.0,1744.48
1744490.0,215.0,242.0,4.0,247.0,1744.49
1744500.0,219.0,240.0,4.0,249.0,1744.5
1744510.0,214.0,239.0,4.0,241.0,1744.51
1744520.0,214.0,239.0,4.0,243.0,1744.52
1744530.0,207.0,232.0,4.0,237.0,1744.53
1744540.0,216.0,244.0,3.0,248.0,1744.54
1744550.0,219.0,239.0,4.0,248.0,1744.55
1744560.0,215.0,242.0,4.0,242.0,1744.56
1744570.0,215.0,238.0,3.0,241.0,1744.57
1744580.0,210.0,236.0,4.0,235.0,1744.58
1744590.0,219.0,248.0,3.0,245.0,1744.59
1744600.0,221.0,242.0,4.0,247.0,1744.6
1744610.0,216.0,247.0,3.0,241.0,1744.61
1744620.0,217.0,242.0,5.0,239.0,1744.62
1744630.0,210.0,238.0,4.0,237.0,1744.63
1744640.0,216.0,244.0,4.0,241.0,1744.64
1744650.0,220.0,243.0,4.0,245.0,1744.65
1744660.0,215.0,245.0,3.0,239.0,1744.66
1744670.0,215.0,242.0,4.0,240.0,1744.67
1744680.0,211.0,238.0,4.0,237.0,1744.68
1744690.0,215.0,245.0,4.0,241.0,1744.69
1744700.0,220.0,243.0,4.0,244.0,1744.7
1744710.0,214.0,244.0,4.0,238.0,1744.71
1744720.0,215.0,241.0,3.0,238.0,1744.72
1744730.0,209.0,238.0,4.0,234.0,1744.73
1744740.0,218.0,248.0,4.0,245.0,1744.74
1744750.0,220.0,246.0,4.0,246.0,1744.75
1744760.0,215.0,245.0,4.0,238.0,1744.76
1744770.0,217.0,242.0,4.0,240.0,1744.77
1744780.0,209.0,239.0,3.0,236.0,1744.78
1744790.0,217.0,248.0,4.0,245.0,1744.79
1744800.0,221.0,244.0,3.0,246.0,1744.8
1744811.0,213.0,244.0,4.0,239.0,1744.811
1744821.0,213.0,241.0,4.0,241.0,1744.821
1744831.0,214.0,240.0,4.0,243.0,1744.831
1744841.0,218.0,250.0,4.0,246.0,1744.841
1744851.0,219.0,245.0,4.0,243.0,1744.851
1744861.0,213.0,242.0,3.0,240.0,1744.861
1744871.0,215.0,241.0,4.0,239.0,1744.871
1744881.0,216.0,239.0,4.0,243.0,1744.881
1744891.0,219.0,247.0,4.0,245.0,1744.891
1744901.0,220.0,245.0,4.0,245.0,1744.901
1744911.0,213.0,241.0,3.0,239.0,1744.911
1744921.0,214.0,242.0,3.0,241.0,1744.921
1744931.0,216.0,240.0,4.0,245.0,1744.931
1744941.0,219.0,248.0,4.0,247.0,1744.941
1744951.0,220.0,245.0,4.0,246.0,1744.951
1744961.0,213.0,239.0,5.0,240.0,1744.961
1744971.0,214.0,241.0,3.0,243.0,1744.971
1744982.0,218.0,240.0,4.0,248.0,1744.982
1744992.0,216.0,248.0,3.0,246.0,1744.992
1745002.0,216.0,242.0,4.0,244.0,1745.002
1745012.0,209.0,238.0,3.0,237.0,1745.012
1745022.0,217.0,245.0,5.0,245.0,1745.022
1745032.0,218.0,243.0,4.0,249.0,1745.032
1745042.0,217.0,249.0,4.0,247.0,1745.042
1745052.0,215.0,244.0,3.0,245.0,1745.052
1745062.0,208.0,238.0,4.0,237.0,1745.062
1745072.0,212.0,243.0,4.0,243.0,1745.072
1745082.0,217.0,243.0,4.0,249.0,1745.082
1745092.0,216.0,250.0,4.0,247.0,1745.092
1745102.0,215.0,244.0,3.0,243.0,1745.102
1745112.0,210.0,243.0,3.0,238.0,1745.112
1745122.0,214.0,247.0,3.0,243.0,1745.122
1745132.0,219.0,246.0,4.0,249.0,1745.132
1745142.0,217.0,250.0,3.0,245.0,1745.142
1745152.0,220.0,246.0,5.0,243.0,1745.152
1745162.0,212.0,243.0,4.0,236.0,1745.162
1745172.0,215.0,247.0,4.0,242.0,1745.172
1745182.0,220.0,249.0,3.0,248.0,1745.182
1745192.0,217.0,250.0,4.0,244.0,1745.192
1745202.0,218.0,246.0,4.0,245.0,1745.202
1745212.0,212.0,240.0,5.0,237.0,1745.212
1745222.0,216.0,246.0,4.0,244.0,1745.222
1745232.0,220.0,245.0,4.0,248.0,1745.232
1745242.0,218.0,252.0,4.0,248.0,1745.242
1745252.0,217.0,245.0,3.0,244.0,1745.252
1745262.0,210.0,241.0,4.0,238.0,1745.262
1745272.0,216.0,249.0,4.0,246.0,1745.272
1745282.0,219.0,247.0,4.0,249.0,1745.282
1745292.0,218.0,252.0,4.0,247.0,1745.292
1745302.0,217.0,247.0,4.0,244.0,1745.302
1745312.0,210.0,242.0,3.0,238.0,1745.312
1745323.0,216.0,248.0,4.0,246.0,1745.323
1745333.0,221.0,247.0,4.0,249.0,1745.333
1745343.0,216.0,245.0,4.0,242.0,1745.343
1745353.0,215.0,243.0,4.0,242.0,1745.353
1745363.0,212.0,238.0,4.0,241.0,1745.363
1745373.0,217.0,245.0,3.0,247.0,1745.373
1745383.0,221.0,245.0,3.0,248.0,1745.383
1745393.0,214.0,242.0,4.0,243.0,1745.393
1745403.0,214.0,240.0,4.0,243.0,1745.403
1745413.0,208.0,235.0,4.0,239.0,1745.413
1745423.0,216.0,247.0,4.0,249.0,1745.423
1745433.0,219.0,244.0,4.0,249.0,1745.433
1745443.0,211.0,240.0,4.0,243.0,1745.443
1745453.0,215.0,240.0,4.0,244.0,1745.453
1745463.0,209.0,235.0,4.0,241.0,1745.463
1745473.0,218.0,247.0,5.0,249.0,1745.473
1745483.0,220.0,244.0,4.0,249.0,1745.483
1745494.0,212.0,241.0,4.0,240.0,1745.494
1745504.0,213.0,243.0,4.0,242.0,1745.504
1745514.0,215.0,242.0,4.0,244.0,1745.514
1745524.0,217.0,252.0,3.0,246.0,1745.524
1745534.0,218.0,245.0,5.0,243.0,1745.534
1745544.0,213.0,245.0,3.0,240.0,1745.544
1745554.0,213.0,244.0,4.0,240.0,1745.554
1745564.0,215.0,244.0,3.0,246.0,1745.564
1745574.0,217.0,251.0,4.0,244.0,1745.574
1745584.0,219.0,247.0,4.0,245.0,1745.584
1745594.0,211.0,241.0,4.0,239.0,1745.594
1745604.0,213.0,243.0,4.0,240.0,1745.604
1745614.0,216.0,244.0,4.0,247.0,1745.614
1745624.0,218.0,251.0,4.0,248.0,1745.624
1745634.0,219.0,248.0,3.0,246.0,1745.634
1745644.0,210.0,240.0,4.0,239.0,1745.644
1745654.0,213.0,242.0,4.0,241.0,1745.654
1745664.0,213.0,240.0,5.0,243.0,1745.664
1745674.0,217.0,248.0,4.0,248.0,1745.674
1745684.0,217.0,244.0,4.0,245.0,1745.684
1745694.0,208.0,240.0,3.0,240.0,1745.694
1745704.0,211.0,241.0,4.0,242.0,1745.704
1745714.0,213.0,239.0,4.0,245.0,1745.714
1745724.0,217.0,248.0,4.0,248.0,1745.724
1745734.0,216.0,243.0,3.0,245.0,1745.734
1745744.0,208.0,237.0,3.0,236.0,1745.744
1745754.0,213.0,241.0,4.0,241.0,1745.754
1745764.0,214.0,240.0,3.0,245.0,1745.764
1745774.0,217.0,246.0,4.0,246.0,1745.774
1745784.0,216.0,241.0,4.0,243.0,1745.784
1745794.0,211.0,239.0,4.0,238.0,1745.794
1745804.0,214.0,240.0,4.0,239.0,1745.804
1745814.0,216.0,240.0,4.0,244.0,1745.814
1745824.0,218.0,250.0,3.0,245.0,1745.824
1745835.0,217.0,242.0,4.0,242.0,1745.835
1745845.0,209.0,240.0,3.0,234.0,1745.845
1745855.0,216.0,245.0,5.0,241.0,1745.855
1745865.0,220.0,245.0,4.0,246.0,1745.865
1745875.0,216.0,248.0,3.0,240.0,1745.875
1745885.0,219.0,245.0,4.0,240.0,1745.885
1745895.0,209.0,240.0,4.0,232.0,1745.895
1745905.0,215.0,249.0,3.0,241.0,1745.905
1745915.0,221.0,248.0,5.0,244.0,1745.915
1745925.0,218.0,252.0,4.0,242.0,1745.925
1745935.0,216.0,246.0,4.0,240.0,1745.935
1745945.0,208.0,239.0,4.0,233.0,1745.945
1745955.0,215.0,249.0,3.0,241.0,1745.955
1745965.0,220.0,245.0,4.0,244.0,1745.965
1745975.0,217.0,253.0,3.0,241.0,1745.975
1745985.0,218.0,247.0,5.0,240.0,1745.985
1745995.0,210.0,244.0,4.0,233.0,1745.995
1746006.0,218.0,254.0,4.0,243.0,1746.006
1746016.0,222.0,253.0,3.0,247.0,1746.016
1746026.0,214.0,252.0,4.0,238.0,1746.026
1746036.0,214.0,249.0,4.0,240.0,1746.036
1746046.0,213.0,248.0,4.0,240.0,1746.046
1746056.0,216.0,257.0,3.0,245.0,1746.056
1746066.0,220.0,255.0,3.0,245.0,1746.066
1746076.0,212.0,252.0,4.0,239.0,1746.076
1746086.0,214.0,250.0,4.0,238.0,1746.086
1746096.0,208.0,246.0,4.0,234.0,1746.096
1746106.0,216.0,259.0,4.0,243.0,1746.106
1746116.0,221.0,255.0,5.0,245.0,1746.116
1746126.0,210.0,254.0,3.0,238.0,1746.126
1746136.0,214.0,252.0,4.0,240.0,1746.136
1746146.0,209.0,249.0,3.0,238.0,1746.146
1746156.0,216.0,256.0,4.0,246.0,1746.156
1746166.0,218.0,253.0,3.0,247.0,1746.166
1746176.0,213.0,251.0,4.0,241.0,1746.176
1746186.0,214.0,247.0,4.0,240.0,1746.186
1746196.0,211.0,243.0,4.0,238.0,1746.196
1746206.0,217.0,254.0,4.0,245.0,1746.206
1746216.0,219.0,251.0,4.0,244.0,1746.216
1746226.0,212.0,247.0,4.0,239.0,1746.226
1746236.0,214.0,245.0,4.0,240.0,1746.236
1746246.0,211.0,242.0,4.0,241.0,1746.246
1746256.0,217.0,252.0,4.0,247.0,1746.256
1746266.0,220.0,248.0,4.0,246.0,1746.266
1746276.0,212.0,245.0,2.0,237.0,1746.276
1746286.0,213.0,244.0,4.0,238.0,1746.286
1746296.0,212.0,241.0,4.0,239.0,1746.296
1746306.0,216.0,251.0,5.0,242.0,1746.306
1746316.0,220.0,249.0,4.0,244.0,1746.316
1746326.0,212.0,245.0,4.0,236.0,1746.326
1746336.0,213.0,247.0,4.0,238.0,1746.336
1746347.0,214.0,245.0,4.0,240.0,1746.347
1746357.0,216.0,252.0,4.0,243.0,1746.357
1746367.0,218.0,247.0,5.0,241.0,1746.367
1746377.0,208.0,240.0,4.0,234.0,1746.377
1746387.0,211.0,244.0,4.0,239.0,1746.387
1746397.0,215.0,243.0,4.0,242.0,1746.397
1746407.0,217.0,253.0,3.0,244.0,1746.407
1746417.0,217.0,247.0,4.0,242.0,1746.417
1746427.0,208.0,243.0,4.0,235.0,1746.427
1746437.0,213.0,245.0,4.0,238.0,1746.437
1746447.0,215.0,246.0,4.0,244.0,1746.447
1746457.0,216.0,252.0,4.0,244.0,1746.457
1746467.0,217.0,248.0,3.0,242.0,1746.467
1746477.0,210.0,246.0,4.0,236.0,1746.477
1746487.0,212.0,248.0,3.0,238.0,1746.487
1746497.0,217.0,249.0,5.0,244.0,1746.497
1746507.0,216.0,256.0,4.0,245.0,1746.507
1746518.0,217.0,249.0,4.0,243.0,1746.518
1746528.0,208.0,247.0,3.0,237.0,1746.528
1746538.0,214.0,253.0,4.0,245.0,1746.538
1746548.0,219.0,253.0,3.0,248.0,1746.548
1746558.0,213.0,252.0,4.0,242.0,1746.558
1746568.0,216.0,250.0,4.0,242.0,1746.568
1746578.0,206.0,244.0,4.0,234.0,1746.578
1746588.0,215.0,253.0,4.0,244.0,1746.588
1746598.0,218.0,252.0,3.0,246.0,1746.598
1746608.0,214.0,254.0,4.0,242.0,1746.608
1746618.0,214.0,248.0,4.0,240.0,1746.618
1746628.0,207.0,243.0,4.0,234.0,1746.628
1746638.0,213.0,252.0,4.0,244.0,1746.638
1746648.0,217.0,248.0,3.0,245.0,1746.648
1746658.0,212.0,252.0,3.0,243.0,1746.658
1746668.0,213.0,247.0,4.0,240.0,1746.668
1746678.0,206.0,243.0,3.0,235.0,1746.678
1746688.0,213.0,250.0,4.0,242.0,1746.688
1746698.0,218.0,251.0,4.0,247.0,1746.698
1746708.0,214.0,255.0,4.0,242.0,1746.708
1746718.0,215.0,250.0,4.0,242.0,1746.718
1746728.0,208.0,248.0,4.0,236.0,1746.728
1746738.0,214.0,254.0,3.0,241.0,1746.738
1746748.0,220.0,254.0,4.0,248.0,1746.748
1746758.0,215.0,254.0,4.0,241.0,1746.758
1746768.0,214.0,251.0,3.0,241.0,1746.768
1746778.0,207.0,245.0,4.0,233.0,1746.778
1746788.0,214.0,254.0,3.0,244.0,1746.788
1746798.0,220.0,253.0,4.0,248.0,1746.798
1746808.0,213.0,251.0,3.0,241.0,1746.808
1746818.0,217.0,251.0,5.0,241.0,1746.818
1746828.0,207.0,243.0,4.0,233.0,1746.828
1746838.0,214.0,251.0,4.0,242.0,1746.838
1746848.0,220.0,252.0,3.0,247.0,1746.848
1746859.0,212.0,250.0,3.0,238.0,1746.859
1746869.0,214.0,248.0,4.0,238.0,1746.869
1746879.0,212.0,245.0,4.0,239.0,1746.879
1746889.0,217.0,256.0,4.0,243.0,1746.889
1746899.0,220.0,252.0,5.0,243.0,1746.899
1746909.0,212.0,248.0,4.0,238.0,1746.909
1746919.0,214.0,248.0,4.0,239.0,1746.919
1746929.0,213.0,245.0,4.0,240.0,1746.929
1746939.0,217.0,255.0,4.0,244.0,1746.939
1746949.0,222.0,251.0,5.0,245.0,1746.949
1746959.0,212.0,247.0,4.0,237.0,1746.959
1746969.0,214.0,248.0,4.0,238.0,1746.969
1746979.0,215.0,246.0,3.0,240.0,1746.979
1746989.0,217.0,254.0,3.0,242.0,1746.989
1746999.0,221.0,252.0,3.0,244.0,1746.999
1747009.0,212.0,248.0,5.0,234.0,1747.009
1747019.0,214.0,248.0,3.0,238.0,1747.019
1747030.0,215.0,247.0,3.0,241.0,1747.03
1747040.0,216.0,253.0,4.0,243.0,1747.04
1747050.0,218.0,250.0,3.0,241.0,1747.05
1747060.0,208.0,242.0,4.0,231.0,1747.06
1747070.0,213.0,248.0,4.0,239.0,1747.07
1747080.0,217.0,246.0,6.0,243.0,1747.08
1747090.0,217.0,252.0,6.0,242.0,1747.09
1747100.0,218.0,249.0,8.0,241.0,1747.1
1747110.0,208.0,243.0,11.0,231.0,1747.11
1747120.0,214.0,246.0,12.0,236.0,1747.12
1747130.0,217.0,245.0,17.0,243.0,1747.13
1747140.0,217.0,251.0,21.0,241.0,1747.14
1747150.0,217.0,246.0,20.0,240.0,1747.15
1747160.0,210.0,245.0,26.0,233.0,1747.16
1747170.0,212.0,247.0,22.0,237.0,1747.17
1747180.0,217.0,246.0,28.0,244.0,1747.18
1747190.0,215.0,252.0,31.0,241.0,1747.19
1747200.0,219.0,249.0,31.0,242.0,1747.2
1747210.0,210.0,243.0,36.0,233.0,1747.21
1747220.0,212.0,247.0,30.0,239.0,1747.22
1747230.0,219.0,249.0,37.0,246.0,1747.23
1747240.0,216.0,253.0,43.0,241.0,1747.24
1747250.0,219.0,249.0,40.0,242.0,1747.25
1747260.0,210.0,243.0,47.0,233.0,1747.26
1747270.0,215.0,248.0,41.0,238.0,1747.27
1747280.0,220.0,249.0,46.0,244.0,1747.28
1747290.0,218.0,255.0,52.0,241.0,1747.29
1747300.0,218.0,249.0,48.0,240.0,1747.3
1747310.0,210.0,246.0,57.0,230.0,1747.31
1747320.0,213.0,252.0,49.0,236.0,1747.32
1747330.0,217.0,250.0,59.0,240.0,1747.33
1747340.0,216.0,255.0,64.0,239.0,1747.34
1747350.0,215.0,251.0,58.0,239.0,1747.35
1747360.0,207.0,246.0,66.0,230.0,1747.36
1747371.0,213.0,252.0,59.0,238.0,1747.371
1747381.0,220.0,251.0,67.0,243.0,1747.381
1747391.0,214.0,251.0,77.0,237.0,1747.391
1747401.0,216.0,249.0,68.0,238.0,1747.401
1747411.0,210.0,245.0,78.0,234.0,1747.411
1747421.0,215.0,253.0,73.0,241.0,1747.421
1747431.0,221.0,254.0,78.0,246.0,1747.431
1747441.0,214.0,252.0,88.0,238.0,1747.441
1747451.0,215.0,249.0,77.0,240.0,1747.451
1747461.0,208.0,245.0,90.0,231.0,1747.461
1747471.0,214.0,254.0,84.0,240.0,1747.471
1747481.0,220.0,253.0,87.0,244.0,1747.481
1747491.0,212.0,253.0,96.0,236.0,1747.491
1747501.0,215.0,250.0,87.0,237.0,1747.501
1747511.0,206.0,245.0,96.0,230.0,1747.511
1747521.0,214.0,256.0,95.0,238.0,1747.521
1747531.0,220.0,254.0,94.0,243.0,1747.531
1747542.0,211.0,253.0,103.0,233.0,1747.542
1747552.0,213.0,253.0,93.0,236.0,1747.552
1747562.0,213.0,253.0,101.0,236.0,1747.562
1747572.0,218.0,264.0,108.0,240.0,1747.572
1747582.0,219.0,257.0,101.0,240.0,1747.582
1747592.0,212.0,257.0,113.0,232.0,1747.592
1747602.0,213.0,256.0,100.0,236.0,1747.602
1747612.0,214.0,253.0,110.0,239.0,1747.612
1747622.0,216.0,265.0,118.0,241.0,1747.622
1747632.0,219.0,260.0,111.0,242.0,1747.632
1747642.0,211.0,256.0,120.0,231.0,1747.642
1747652.0,212.0,255.0,109.0,235.0,1747.652
1747662.0,214.0,254.0,118.0,239.0,1747.662
1747672.0,215.0,261.0,124.0,241.0,1747.672
1747682.0,219.0,257.0,118.0,242.0,1747.682
1747692.0,210.0,252.0,128.0,231.0,1747.692
1747702.0,212.0,253.0,117.0,236.0,1747.702
1747712.0,210.0,249.0,127.0,234.0,1747.712
1747722.0,217.0,259.0,134.0,239.0,1747.722
1747732.0,219.0,257.0,127.0,241.0,1747.732
1747742.0,209.0,248.0,137.0,232.0,1747.742
1747752.0,212.0,250.0,126.0,236.0,1747.752
1747762.0,212.0,246.0,136.0,237.0,1747.762
1747772.0,216.0,256.0,144.0,241.0,1747.772
1747782.0,219.0,252.0,137.0,241.0,1747.782
1747792.0,209.0,246.0,146.0,232.0,1747.792
1747802.0,213.0,248.0,136.0,236.0,1747.802
1747812.0,212.0,246.0,144.0,239.0,1747.812
1747822.0,216.0,255.0,153.0,241.0,1747.822
1747832.0,217.0,252.0,145.0,240.0,1747.832
1747842.0,211.0,250.0,154.0,234.0,1747.842
1747852.0,213.0,249.0,144.0,236.0,1747.852
1747862.0,214.0,248.0,151.0,240.0,1747.862
1747872.0,217.0,256.0,162.0,241.0,1747.872
1747883.0,217.0,251.0,152.0,240.0,1747.883
1747893.0,208.0,245.0,162.0,231.0,1747.893
1747903.0,212.0,250.0,157.0,238.0,1747.903
1747913.0,219.0,250.0,163.0,245.0,1747.913
1747923.0,215.0,253.0,174.0,240.0,1747.923
1747933.0,217.0,251.0,165.0,241.0,1747.933
1747943.0,210.0,248.0,173.0,233.0,1747.943
1747953.0,215.0,252.0,170.0,238.0,1747.953
1747963.0,221.0,254.0,172.0,245.0,1747.963
1747973.0,219.0,256.0,182.0,240.0,1747.973
1747983.0,218.0,251.0,170.0,240.0,1747.983
1747993.0,210.0,245.0,179.0,230.0,1747.993
1748003.0,215.0,253.0,177.0,239.0,1748.003
1748013.0,218.0,250.0,178.0,241.0,1748.013
1748023.0,218.0,256.0,187.0,239.0,1748.023
1748033.0,217.0,250.0,176.0,238.0,1748.033
1748043.0,209.0,245.0,182.0,229.0,1748.043
1748054.0,215.0,254.0,185.0,238.0,1748.054
1748064.0,221.0,254.0,184.0,245.0,1748.064
1748074.0,214.0,251.0,191.0,237.0,1748.074
1748084.0,215.0,250.0,181.0,238.0,1748.084
1748094.0,212.0,248.0,186.0,236.0,1748.094
1748104.0,217.0,257.0,191.0,240.0,1748.104
1748114.0,220.0,256.0,187.0,244.0,1748.114
1748124.0,213.0,255.0,195.0,235.0,1748.124
1748134.0,214.0,253.0,185.0,238.0,1748.134
1748144.0,209.0,246.0,191.0,232.0,1748.144
1748154.0,215.0,259.0,195.0,243.0,1748.154
1748164.0,220.0,258.0,192.0,246.0,1748.164
1748174.0,213.0,255.0,198.0,236.0,1748.174
1748184.0,215.0,255.0,189.0,239.0,1748.184
1748194.0,209.0,250.0,192.0,232.0,1748.194
1748204.0,216.0,262.0,199.0,241.0,1748.204
1748214.0,220.0,259.0,194.0,244.0,1748.214
1748224.0,215.0,260.0,203.0,238.0,1748.224
1748234.0,216.0,256.0,194.0,239.0,1748.234
1748244.0,210.0,255.0,197.0,236.0,1748.244
1748254.0,217.0,264.0,205.0,243.0,1748.254
1748264.0,221.0,263.0,200.0,245.0,1748.264
1748274.0,216.0,260.0,206.0,237.0,1748.274
1748284.0,216.0,257.0,197.0,239.0,1748.284
1748294.0,213.0,252.0,201.0,236.0,1748.294
1748304.0,220.0,264.0,210.0,243.0,1748.304
1748314.0,223.0,260.0,206.0,246.0,1748.314
1748324.0,216.0,258.0,210.0,237.0,1748.324
1748334.0,216.0,255.0,202.0,238.0,1748.334
1748344.0,215.0,251.0,207.0,237.0,1748.344
1748354.0,219.0,260.0,211.0,240.0,1748.354
1748364.0,224.0,259.0,209.0,244.0,1748.364
1748374.0,215.0,255.0,215.0,237.0,1748.374
1748384.0,217.0,255.0,207.0,239.0,1748.384
1748395.0,215.0,252.0,209.0,241.0,1748.395
1748405.0,220.0,262.0,219.0,246.0,1748.405
1748415.0,220.0,256.0,212.0,243.0,1748.415
1748425.0,213.0,252.0,215.0,234.0,1748.425
1748435.0,214.0,254.0,210.0,238.0,1748.435
1748445.0,215.0,253.0,214.0,240.0,1748.445
1748455.0,220.0,264.0,222.0,244.0,1748.455
1748465.0,219.0,256.0,213.0,242.0,1748.465
1748475.0,211.0,255.0,216.0,234.0,1748.475
1748485.0,215.0,256.0,211.0,237.0,1748.485
1748495.0,217.0,255.0,214.0,241.0,1748.495
1748505.0,218.0,263.0,222.0,244.0,1748.505
1748515.0,218.0,256.0,214.0,243.0,1748.515
1748525.0,211.0,254.0,218.0,236.0,1748.525
1748535.0,214.0,254.0,213.0,237.0,1748.535
1748545.0,216.0,254.0,215.0,241.0,1748.545
1748555.0,219.0,262.0,224.0,242.0,1748.555
1748566.0,217.0,256.0,215.0,240.0,1748.566
1748576.0,209.0,252.0,217.0,230.0,1748.576
1748586.0,214.0,257.0,218.0,239.0,1748.586
1748596.0,220.0,257.0,221.0,245.0,1748.596
1748606.0,216.0,258.0,225.0,239.0,1748.606
1748616.0,218.0,257.0,219.0,240.0,1748.616
1748626.0,209.0,252.0,220.0,231.0,1748.626
1748636.0,215.0,257.0,223.0,240.0,1748.636
1748646.0,221.0,258.0,224.0,247.0,1748.646
1748656.0,217.0,261.0,230.0,243.0,1748.656
1748666.0,218.0,256.0,221.0,242.0,1748.666
1748676.0,211.0,251.0,221.0,233.0,1748.676
1748686.0,218.0,261.0,226.0,243.0,1748.686
1748696.0,221.0,260.0,224.0,245.0,1748.696
1748706.0,220.0,262.0,230.0,242.0,1748.706
1748716.0,219.0,257.0,220.0,241.0,1748.716
1748726.0,212.0,252.0,221.0,232.0,1748.726
1748736.0,215.0,258.0,222.0,239.0,1748.736
1748746.0,222.0,259.0,227.0,246.0,1748.746
1748756.0,219.0,260.0,230.0,241.0,1748.756
1748766.0,218.0,257.0,223.0,240.0,1748.766
1748776.0,211.0,251.0,222.0,235.0,1748.776
1748786.0,216.0,258.0,223.0,239.0,1748.786
1748796.0,222.0,260.0,226.0,246.0,1748.796
1748806.0,218.0,258.0,231.0,239.0,1748.806
1748816.0,218.0,255.0,222.0,240.0,1748.816
1748826.0,211.0,247.0,223.0,232.0,1748.826
1748836.0,216.0,254.0,225.0,241.0,1748.836
1748846.0,222.0,258.0,227.0,246.0,1748.846
1748856.0,217.0,255.0,229.0,240.0,1748.856
1748866.0,217.0,255.0,223.0,242.0,1748.866
1748876.0,212.0,248.0,222.0,233.0,1748.876
1748886.0,216.0,256.0,225.0,241.0,1748.886
1748896.0,221.0,257.0,227.0,246.0,1748.896
1748907.0,216.0,256.0,228.0,238.0,1748.907
1748917.0,216.0,254.0,221.0,238.0,1748.917
