time (ms),signal 0,signal 1,signal 2,signal 3,time (sec)
1864648.0,212.0,32.0,140.0,242.0,1864.648
1864658.0,218.0,34.0,144.0,249.0,1864.658
1864668.0,216.0,32.0,153.0,246.0,1864.668
1864678.0,218.0,32.0,146.0,244.0,1864.678
1864688.0,208.0,32.0,153.0,236.0,1864.688
1864698.0,212.0,33.0,148.0,242.0,1864.698
1864708.0,214.0,32.0,153.0,245.0,1864.708
1864718.0,215.0,32.0,164.0,245.0,1864.718
1864728.0,216.0,33.0,155.0,244.0,1864.728
1864738.0,206.0,32.0,164.0,236.0,1864.738
1864748.0,212.0,32.0,157.0,241.0,1864.748
1864758.0,216.0,33.0,167.0,245.0,1864.758
1864768.0,214.0,33.0,177.0,245.0,1864.768
1864778.0,217.0,32.0,168.0,243.0,1864.778
1864788.0,207.0,33.0,175.0,235.0,1864.788
1864798.0,212.0,32.0,169.0,240.0,1864.798
1864808.0,217.0,33.0,175.0,247.0,1864.808
1864818.0,216.0,32.0,187.0,245.0,1864.818
1864828.0,217.0,33.0,175.0,242.0,1864.828
1864838.0,208.0,33.0,185.0,238.0,1864.838
1864848.0,211.0,33.0,179.0,242.0,1864.848
1864858.0,218.0,33.0,184.0,248.0,1864.858
1864868.0,215.0,32.0,195.0,245.0,1864.868
1864878.0,217.0,33.0,186.0,245.0,1864.878
1864888.0,209.0,33.0,194.0,237.0,1864.888
1864898.0,212.0,32.0,189.0,243.0,1864.898
1864908.0,219.0,32.0,193.0,250.0,1864.908
1864918.0,216.0,33.0,204.0,249.0,1864.918
1864928.0,217.0,32.0,194.0,246.0,1864.928
1864938.0,207.0,32.0,200.0,237.0,1864.938
1864948.0,212.0,32.0,200.0,245.0,1864.948
1864958.0,218.0,33.0,201.0,252.0,1864.958
1864968.0,215.0,32.0,212.0,249.0,1864.968
1864978.0,216.0,32.0,201.0,247.0,1864.978
1864988.0,207.0,32.0,207.0,238.0,1864.988
1864998.0,213.0,32.0,206.0,247.0,1864.998
1865008.0,215.0,33.0,208.0,251.0,1865.008
1865018.0,215.0,32.0,218.0,249.0,1865.018
1865028.0,215.0,32.0,206.0,247.0,1865.028
1865038.0,207.0,32.0,213.0,239.0,1865.038
1865048.0,212.0,33.0,209.0,245.0,1865.048
1865058.0,218.0,32.0,213.0,250.0,1865.058
1865068.0,215.0,32.0,221.0,248.0,1865.068
1865078.0,217.0,33.0,211.0,246.0,1865.078
1865088.0,208.0,31.0,216.0,240.0,1865.088
1865098.0,212.0,32.0,212.0,244.0,1865.098
1865108.0,218.0,33.0,214.0,250.0,1865.108
1865118.0,215.0,32.0,222.0,246.0,1865.118
1865128.0,216.0,32.0,212.0,245.0,1865.128
1865138.0,209.0,32.0,217.0,238.0,1865.138
1865148.0,213.0,32.0,216.0,246.0,1865.148
1865158.0,220.0,33.0,217.0,251.0,1865.158
1865168.0,215.0,32.0,224.0,246.0,1865.168
1865178.0,218.0,33.0,214.0,246.0,1865.178
1865188.0,209.0,32.0,217.0,237.0,1865.188
1865198.0,213.0,32.0,216.0,244.0,1865.198
1865208.0,221.0,32.0,217.0,251.0,1865.208
1865218.0,216.0,32.0,223.0,248.0,1865.218
1865228.0,217.0,32.0,213.0,245.0,1865.228
1865238.0,207.0,33.0,213.0,239.0,1865.238
1865248.0,213.0,32.0,214.0,246.0,1865.248
1865259.0,219.0,32.0,215.0,251.0,1865.259
1865269.0,213.0,32.0,217.0,245.0,1865.269
1865279.0,214.0,32.0,208.0,244.0,1865.279
1865289.0,209.0,32.0,206.0,241.0,1865.289
1865299.0,217.0,33.0,213.0,250.0,1865.299
1865309.0,219.0,32.0,207.0,250.0,1865.309
1865319.0,212.0,32.0,205.0,244.0,1865.319
1865329.0,213.0,32.0,199.0,243.0,1865.329
1865339.0,210.0,32.0,195.0,243.0,1865.339
1865349.0,215.0,32.0,200.0,247.0,1865.349
1865359.0,220.0,33.0,197.0,249.0,1865.359
1865369.0,212.0,33.0,192.0,243.0,1865.369
1865379.0,214.0,32.0,190.0,242.0,1865.379
1865389.0,207.0,32.0,183.0,238.0,1865.389
1865399.0,215.0,32.0,191.0,247.0,1865.399
1865409.0,219.0,33.0,188.0,249.0,1865.409
1865419.0,211.0,32.0,181.0,243.0,1865.419
1865430.0,212.0,34.0,185.0,245.0,1865.43
1865440.0,212.0,32.0,178.0,246.0,1865.44
1865450.0,215.0,33.0,185.0,250.0,1865.45
1865460.0,218.0,33.0,186.0,247.0,1865.46
1865470.0,208.0,33.0,175.0,239.0,1865.47
1865480.0,213.0,33.0,187.0,242.0,1865.48
1865490.0,213.0,33.0,179.0,246.0,1865.49
1865500.0,217.0,32.0,187.0,248.0,1865.5
1865510.0,217.0,33.0,189.0,246.0,1865.51
1865520.0,211.0,33.0,183.0,242.0,1865.52
1865530.0,214.0,33.0,195.0,243.0,1865.53
1865540.0,214.0,33.0,186.0,248.0,1865.54
1865550.0,216.0,33.0,190.0,249.0,1865.55
1865560.0,219.0,33.0,191.0,250.0,1865.56
1865570.0,210.0,32.0,190.0,240.0,1865.57
1865580.0,212.0,33.0,197.0,243.0,1865.58
1865590.0,216.0,33.0,201.0,247.0,1865.59
1865600.0,216.0,33.0,204.0,249.0,1865.6
1865610.0,218.0,33.0,207.0,246.0,1865.61
1865620.0,209.0,33.0,210.0,240.0,1865.62
1865630.0,211.0,33.0,210.0,241.0,1865.63
1865640.0,216.0,33.0,210.0,248.0,1865.64
1865650.0,217.0,33.0,209.0,249.0,1865.65
1865660.0,218.0,33.0,206.0,246.0,1865.66
1865670.0,208.0,33.0,204.0,239.0,1865.67
1865680.0,212.0,33.0,200.0,243.0,1865.68
1865690.0,213.0,34.0,196.0,245.0,1865.69
1865700.0,215.0,33.0,191.0,250.0,1865.7
1865710.0,216.0,33.0,187.0,246.0,1865.71
1865720.0,209.0,32.0,182.0,238.0,1865.72
1865730.0,212.0,33.0,176.0,241.0,1865.73
1865740.0,213.0,32.0,172.0,245.0,1865.74
1865750.0,215.0,34.0,165.0,248.0,1865.75
1865760.0,215.0,32.0,160.0,244.0,1865.76
1865771.0,206.0,33.0,154.0,238.0,1865.771
1865781.0,211.0,32.0,149.0,243.0,1865.781
1865791.0,216.0,33.0,142.0,250.0,1865.791
1865801.0,212.0,32.0,138.0,245.0,1865.801
1865811.0,212.0,33.0,132.0,244.0,1865.811
1865821.0,205.0,32.0,127.0,237.0,1865.821
1865831.0,211.0,32.0,122.0,243.0,1865.831
1865841.0,217.0,32.0,117.0,247.0,1865.841
1865851.0,212.0,33.0,112.0,243.0,1865.851
1865861.0,213.0,33.0,107.0,244.0,1865.861
1865871.0,206.0,32.0,103.0,236.0,1865.871
1865881.0,211.0,33.0,98.0,244.0,1865.881
1865891.0,217.0,32.0,94.0,247.0,1865.891
1865901.0,213.0,33.0,89.0,244.0,1865.901
1865911.0,214.0,32.0,86.0,241.0,1865.911
1865921.0,204.0,32.0,81.0,234.0,1865.921
1865931.0,212.0,32.0,77.0,242.0,1865.931
1865942.0,216.0,32.0,74.0,246.0,1865.942
1865952.0,209.0,32.0,70.0,240.0,1865.952
1865962.0,211.0,32.0,66.0,239.0,1865.962
1865972.0,208.0,32.0,63.0,239.0,1865.972
1865982.0,214.0,31.0,60.0,247.0,1865.982
1865992.0,216.0,32.0,57.0,246.0,1865.992
1866002.0,209.0,31.0,54.0,241.0,1866.002
1866012.0,211.0,32.0,50.0,240.0,1866.012
1866022.0,209.0,32.0,48.0,241.0,1866.022
1866032.0,212.0,32.0,45.0,245.0,1866.032
1866042.0,216.0,32.0,43.0,246.0,1866.042
1866052.0,209.0,32.0,40.0,242.0,1866.052
1866062.0,212.0,32.0,37.0,241.0,1866.062
1866072.0,206.0,33.0,35.0,238.0,1866.072
1866082.0,215.0,31.0,33.0,245.0,1866.082
1866092.0,217.0,32.0,31.0,245.0,1866.092
1866102.0,210.0,31.0,30.0,239.0,1866.102
1866112.0,212.0,31.0,26.0,241.0,1866.112
1866122.0,206.0,31.0,25.0,240.0,1866.122
1866132.0,214.0,32.0,23.0,249.0,1866.132
1866142.0,215.0,32.0,21.0,245.0,1866.142
1866152.0,209.0,31.0,19.0,240.0,1866.152
1866162.0,212.0,32.0,17.0,242.0,1866.162
1866172.0,208.0,31.0,16.0,240.0,1866.172
1866182.0,214.0,31.0,14.0,246.0,1866.182
1866192.0,217.0,31.0,14.0,244.0,1866.192
1866202.0,210.0,32.0,11.0,241.0,1866.202
1866212.0,210.0,32.0,11.0,240.0,1866.212
1866222.0,207.0,31.0,9.0,242.0,1866.222
1866232.0,215.0,31.0,11.0,247.0,1866.232
1866242.0,217.0,31.0,8.0,247.0,1866.242
1866252.0,209.0,31.0,8.0,241.0,1866.252
1866262.0,211.0,32.0,8.0,238.0,1866.262
1866272.0,222.0,32.0,8.0,242.0,1866.272
1866283.0,223.0,32.0,6.0,247.0,1866.283
1866293.0,221.0,32.0,8.0,243.0,1866.293
1866303.0,213.0,31.0,6.0,235.0,1866.303
1866313.0,212.0,31.0,6.0,240.0,1866.313
1866323.0,210.0,32.0,6.0,253.0,1866.323
1866333.0,204.0,31.0,5.0,249.0,1866.333
1866343.0,208.0,32.0,6.0,242.0,1866.343
1866353.0,201.0,32.0,5.0,239.0,1866.353
1866363.0,203.0,31.0,6.0,238.0,1866.363
1866373.0,206.0,31.0,4.0,243.0,1866.373
1866383.0,210.0,31.0,4.0,245.0,1866.383
1866393.0,216.0,32.0,3.0,244.0,1866.393
1866403.0,206.0,32.0,4.0,235.0,1866.403
1866413.0,202.0,33.0,5.0,245.0,1866.413
1866423.0,206.0,31.0,5.0,254.0,1866.423
1866433.0,208.0,32.0,4.0,254.0,1866.433
1866443.0,215.0,32.0,4.0,259.0,1866.443
1866454.0,207.0,33.0,4.0,252.0,1866.454
1866464.0,211.0,32.0,5.0,256.0,1866.464
1866474.0,219.0,33.0,5.0,262.0,1866.474
1866484.0,224.0,32.0,5.0,257.0,1866.484
1866494.0,228.0,31.0,4.0,258.0,1866.494
1866504.0,219.0,32.0,5.0,250.0,1866.504
1866514.0,225.0,33.0,4.0,260.0,1866.514
1866524.0,230.0,33.0,5.0,263.0,1866.524
1866534.0,222.0,32.0,4.0,254.0,1866.534
1866544.0,219.0,33.0,3.0,251.0,1866.544
1866554.0,212.0,32.0,4.0,245.0,1866.554
1866564.0,217.0,33.0,4.0,253.0,1866.564
1866574.0,221.0,32.0,4.0,249.0,1866.574
1866584.0,218.0,32.0,4.0,246.0,1866.584
1866594.0,220.0,32.0,4.0,246.0,1866.594
1866604.0,212.0,32.0,4.0,238.0,1866.604
1866614.0,219.0,32.0,5.0,248.0,1866.614
1866624.0,220.0,32.0,4.0,249.0,1866.624
1866634.0,217.0,32.0,4.0,243.0,1866.634
1866644.0,219.0,33.0,4.0,243.0,1866.644
1866654.0,212.0,32.0,4.0,242.0,1866.654
1866664.0,223.0,32.0,4.0,254.0,1866.664
1866674.0,227.0,33.0,3.0,254.0,1866.674
1866684.0,221.0,32.0,4.0,244.0,1866.684
1866694.0,218.0,33.0,4.0,240.0,1866.694
1866704.0,212.0,33.0,3.0,236.0,1866.704
1866714.0,218.0,33.0,4.0,243.0,1866.714
1866724.0,225.0,32.0,5.0,250.0,1866.724
1866734.0,220.0,32.0,4.0,246.0,1866.734
1866744.0,223.0,33.0,5.0,247.0,1866.744
1866754.0,213.0,32.0,4.0,241.0,1866.754
1866764.0,220.0,32.0,4.0,249.0,1866.764
1866774.0,228.0,34.0,4.0,256.0,1866.774
1866784.0,222.0,32.0,4.0,246.0,1866.784
1866795.0,225.0,33.0,4.0,246.0,1866.795
1866805.0,222.0,33.0,4.0,245.0,1866.805
1866815.0,226.0,32.0,4.0,250.0,1866.815
1866825.0,228.0,33.0,5.0,249.0,1866.825
1866835.0,224.0,33.0,4.0,243.0,1866.835
1866845.0,227.0,32.0,4.0,244.0,1866.845
1866855.0,223.0,32.0,4.0,247.0,1866.855
1866865.0,227.0,32.0,5.0,247.0,1866.865
1866875.0,227.0,33.0,4.0,246.0,1866.875
1866885.0,222.0,33.0,4.0,244.0,1866.885
1866895.0,220.0,33.0,4.0,240.0,1866.895
1866905.0,224.0,33.0,3.0,240.0,1866.905
1866915.0,228.0,32.0,4.0,240.0,1866.915
1866925.0,229.0,35.0,3.0,240.0,1866.925
1866935.0,226.0,33.0,5.0,234.0,1866.935
1866945.0,225.0,33.0,4.0,236.0,1866.945
1866955.0,227.0,33.0,4.0,241.0,1866.955
1866966.0,226.0,34.0,3.0,235.0,1866.966
1866976.0,225.0,32.0,4.0,234.0,1866.976
1866986.0,218.0,32.0,4.0,227.0,1866.986
1866996.0,220.0,33.0,5.0,234.0,1866.996
1867006.0,226.0,33.0,4.0,241.0,1867.006
1867016.0,225.0,32.0,5.0,243.0,1867.016
1867026.0,223.0,33.0,3.0,243.0,1867.026
1867036.0,215.0,33.0,3.0,238.0,1867.036
1867046.0,218.0,32.0,4.0,243.0,1867.046
1867056.0,223.0,33.0,3.0,245.0,1867.056
1867066.0,221.0,33.0,4.0,241.0,1867.066
1867076.0,218.0,33.0,4.0,239.0,1867.076
1867086.0,212.0,32.0,4.0,232.0,1867.086
1867096.0,216.0,33.0,4.0,237.0,1867.096
1867106.0,221.0,32.0,4.0,240.0,1867.106
1867116.0,221.0,32.0,4.0,243.0,1867.116
1867126.0,221.0,33.0,5.0,242.0,1867.126
1867136.0,216.0,33.0,3.0,241.0,1867.136
1867146.0,219.0,32.0,4.0,241.0,1867.146
1867156.0,223.0,33.0,4.0,247.0,1867.156
1867166.0,223.0,32.0,4.0,242.0,1867.166
1867176.0,221.0,33.0,4.0,240.0,1867.176
1867186.0,216.0,32.0,4.0,235.0,1867.186
1867196.0,219.0,33.0,4.0,240.0,1867.196
1867206.0,224.0,33.0,4.0,246.0,1867.206
1867216.0,220.0,32.0,4.0,245.0,1867.216
1867226.0,220.0,32.0,4.0,247.0,1867.226
1867236.0,214.0,32.0,5.0,239.0,1867.236
1867246.0,221.0,32.0,4.0,247.0,1867.246
1867256.0,231.0,33.0,5.0,250.0,1867.256
1867266.0,226.0,33.0,4.0,248.0,1867.266
1867276.0,226.0,32.0,3.0,249.0,1867.276
1867286.0,219.0,33.0,3.0,243.0,1867.286
1867296.0,222.0,33.0,3.0,250.0,1867.296
1867307.0,227.0,32.0,4.0,257.0,1867.307
1867317.0,223.0,33.0,4.0,252.0,1867.317
1867327.0,222.0,33.0,4.0,250.0,1867.327
1867337.0,219.0,32.0,4.0,247.0,1867.337
1867347.0,223.0,33.0,4.0,259.0,1867.347
1867357.0,226.0,33.0,4.0,262.0,1867.357
1867367.0,221.0,32.0,4.0,259.0,1867.367
1867377.0,220.0,33.0,4.0,255.0,1867.377
1867387.0,218.0,33.0,4.0,250.0,1867.387
1867397.0,222.0,33.0,4.0,253.0,1867.397
1867407.0,226.0,33.0,4.0,255.0,1867.407
1867417.0,222.0,33.0,3.0,248.0,1867.417
1867427.0,222.0,32.0,3.0,250.0,1867.427
1867437.0,219.0,33.0,3.0,243.0,1867.437
1867447.0,226.0,33.0,5.0,252.0,1867.447
1867457.0,228.0,33.0,4.0,250.0,1867.457
1867467.0,222.0,32.0,4.0,242.0,1867.467
1867478.0,222.0,33.0,3.0,245.0,1867.478
1867488.0,221.0,32.0,4.0,243.0,1867.488
1867498.0,225.0,33.0,3.0,245.0,1867.498
1867508.0,224.0,33.0,4.0,245.0,1867.508
1867518.0,218.0,31.0,4.0,243.0,1867.518
1867528.0,223.0,32.0,4.0,250.0,1867.528
1867538.0,223.0,33.0,4.0,250.0,1867.538
1867548.0,226.0,33.0,3.0,253.0,1867.548
1867558.0,230.0,32.0,4.0,252.0,1867.558
1867568.0,225.0,32.0,4.0,247.0,1867.568
1867578.0,227.0,32.0,5.0,250.0,1867.578
1867588.0,228.0,32.0,4.0,251.0,1867.588
1867598.0,232.0,32.0,4.0,252.0,1867.598
1867608.0,231.0,33.0,4.0,251.0,1867.608
1867618.0,225.0,32.0,4.0,242.0,1867.618
1867628.0,224.0,33.0,4.0,242.0,1867.628
1867638.0,227.0,33.0,5.0,247.0,1867.638
1867648.0,228.0,33.0,4.0,254.0,1867.648
1867658.0,227.0,33.0,4.0,248.0,1867.658
1867668.0,221.0,33.0,3.0,240.0,1867.668
1867678.0,217.0,32.0,4.0,238.0,1867.678
1867688.0,222.0,33.0,4.0,246.0,1867.688
1867698.0,224.0,33.0,3.0,248.0,1867.698
1867708.0,225.0,33.0,4.0,246.0,1867.708
1867718.0,218.0,32.0,2.0,238.0,1867.718
1867728.0,220.0,32.0,4.0,241.0,1867.728
1867738.0,222.0,33.0,4.0,250.0,1867.738
1867748.0,225.0,32.0,4.0,254.0,1867.748
1867758.0,225.0,33.0,4.0,249.0,1867.758
1867768.0,220.0,32.0,5.0,239.0,1867.768
1867778.0,222.0,32.0,4.0,241.0,1867.778
1867788.0,223.0,32.0,4.0,243.0,1867.788
1867798.0,226.0,33.0,3.0,246.0,1867.798
1867808.0,223.0,33.0,3.0,241.0,1867.808
1867819.0,217.0,32.0,4.0,233.0,1867.819
1867829.0,221.0,32.0,5.0,240.0,1867.829
1867839.0,226.0,33.0,4.0,247.0,1867.839
1867849.0,223.0,32.0,4.0,243.0,1867.849
1867859.0,223.0,33.0,4.0,239.0,1867.859
1867869.0,217.0,32.0,3.0,234.0,1867.869
1867879.0,221.0,32.0,4.0,240.0,1867.879
1867889.0,225.0,32.0,4.0,245.0,1867.889
1867899.0,223.0,32.0,4.0,243.0,1867.899
1867909.0,223.0,32.0,4.0,242.0,1867.909
1867919.0,217.0,32.0,4.0,235.0,1867.919
1867929.0,222.0,33.0,3.0,245.0,1867.929
1867939.0,228.0,32.0,4.0,250.0,1867.939
1867949.0,226.0,33.0,3.0,250.0,1867.949
1867959.0,225.0,32.0,5.0,245.0,1867.959
1867969.0,217.0,33.0,4.0,238.0,1867.969
1867979.0,222.0,32.0,4.0,245.0,1867.979
1867990.0,228.0,34.0,3.0,252.0,1867.99
1868000.0,221.0,32.0,3.0,244.0,1868.0
1868010.0,222.0,33.0,4.0,242.0,1868.01
1868020.0,218.0,33.0,5.0,241.0,1868.02
1868030.0,225.0,33.0,4.0,248.0,1868.03
1868040.0,223.0,32.0,5.0,244.0,1868.04
1868050.0,216.0,32.0,4.0,238.0,1868.05
1868060.0,214.0,33.0,3.0,238.0,1868.06
1868070.0,212.0,32.0,4.0,238.0,1868.07
1868080.0,216.0,33.0,3.0,243.0,1868.08
1868090.0,220.0,32.0,5.0,241.0,1868.09
1868100.0,214.0,32.0,4.0,237.0,1868.1
1868110.0,213.0,33.0,4.0,234.0,1868.11
1868120.0,209.0,33.0,3.0,233.0,1868.12
1868130.0,217.0,32.0,4.0,241.0,1868.13
1868140.0,219.0,32.0,3.0,241.0,1868.14
1868150.0,214.0,32.0,5.0,235.0,1868.15
1868160.0,216.0,32.0,4.0,239.0,1868.16
1868170.0,212.0,32.0,4.0,238.0,1868.17
1868180.0,220.0,32.0,4.0,252.0,1868.18
1868190.0,222.0,33.0,3.0,251.0,1868.19
1868200.0,217.0,32.0,4.0,242.0,1868.2
1868210.0,218.0,32.0,3.0,244.0,1868.21
1868220.0,216.0,31.0,4.0,243.0,1868.22
1868230.0,222.0,32.0,3.0,251.0,1868.23
1868240.0,222.0,33.0,4.0,246.0,1868.24
1868250.0,218.0,32.0,4.0,240.0,1868.25
1868260.0,217.0,33.0,3.0,241.0,1868.26
1868270.0,216.0,32.0,3.0,241.0,1868.27
1868280.0,221.0,33.0,5.0,246.0,1868.28
1868290.0,223.0,33.0,3.0,246.0,1868.29
1868300.0,218.0,32.0,4.0,239.0,1868.3
1868310.0,217.0,33.0,4.0,239.0,1868.31
1868320.0,216.0,32.0,4.0,238.0,1868.32
1868331.0,221.0,32.0,4.0,244.0,1868.331
1868341.0,221.0,32.0,5.0,238.0,1868.341
1868351.0,216.0,31.0,4.0,231.0,1868.351
1868361.0,217.0,32.0,4.0,234.0,1868.361
1868371.0,221.0,33.0,4.0,241.0,1868.371
1868381.0,221.0,33.0,3.0,241.0,1868.381
1868391.0,219.0,32.0,4.0,239.0,1868.391
1868401.0,212.0,32.0,4.0,234.0,1868.401
1868411.0,215.0,32.0,4.0,238.0,1868.411
1868421.0,216.0,32.0,4.0,242.0,1868.421
1868431.0,219.0,32.0,4.0,244.0,1868.431
1868441.0,216.0,34.0,3.0,243.0,1868.441
1868451.0,209.0,32.0,4.0,236.0,1868.451
1868461.0,213.0,33.0,3.0,238.0,1868.461
1868471.0,217.0,32.0,4.0,243.0,1868.471
1868481.0,218.0,31.0,4.0,245.0,1868.481
1868491.0,216.0,32.0,4.0,241.0,1868.491
1868502.0,210.0,32.0,4.0,237.0,1868.502
1868512.0,215.0,32.0,4.0,244.0,1868.512
1868522.0,220.0,32.0,4.0,247.0,1868.522
1868532.0,217.0,32.0,4.0,242.0,1868.532
1868542.0,216.0,33.0,4.0,241.0,1868.542
1868552.0,211.0,32.0,3.0,234.0,1868.552
1868562.0,215.0,32.0,4.0,243.0,1868.562
1868572.0,219.0,33.0,3.0,247.0,1868.572
1868582.0,216.0,32.0,4.0,241.0,1868.582
1868592.0,217.0,33.0,4.0,242.0,1868.592
1868602.0,211.0,31.0,5.0,234.0,1868.602
1868612.0,216.0,32.0,4.0,246.0,1868.612
1868622.0,220.0,32.0,4.0,246.0,1868.622
1868632.0,217.0,33.0,3.0,243.0,1868.632
1868642.0,214.0,32.0,3.0,240.0,1868.642
1868652.0,208.0,32.0,4.0,232.0,1868.652
1868662.0,216.0,33.0,5.0,242.0,1868.662
1868672.0,219.0,32.0,4.0,245.0,1868.672
1868682.0,216.0,32.0,4.0,241.0,1868.682
1868692.0,215.0,33.0,4.0,240.0,1868.692
1868702.0,209.0,32.0,3.0,234.0,1868.702
1868712.0,216.0,32.0,4.0,243.0,1868.712
1868722.0,219.0,33.0,4.0,245.0,1868.722
1868732.0,217.0,31.0,4.0,240.0,1868.732
1868742.0,214.0,33.0,3.0,239.0,1868.742
1868752.0,208.0,32.0,4.0,234.0,1868.752
1868762.0,213.0,33.0,3.0,239.0,1868.762
1868772.0,218.0,32.0,4.0,244.0,1868.772
1868782.0,213.0,32.0,4.0,240.0,1868.782
1868792.0,214.0,32.0,5.0,239.0,1868.792
1868802.0,208.0,31.0,4.0,233.0,1868.802
1868812.0,213.0,32.0,4.0,242.0,1868.812
1868822.0,218.0,33.0,3.0,247.0,1868.822
1868832.0,214.0,32.0,4.0,240.0,1868.832
1868843.0,213.0,32.0,4.0,240.0,1868.843
1868853.0,209.0,32.0,5.0,238.0,1868.853
1868863.0,216.0,31.0,4.0,246.0,1868.863
1868873.0,216.0,33.0,4.0,243.0,1868.873
1868883.0,210.0,32.0,4.0,236.0,1868.883
1868893.0,213.0,33.0,3.0,239.0,1868.893
1868903.0,211.0,32.0,4.0,238.0,1868.903
1868913.0,217.0,32.0,4.0,244.0,1868.913
1868923.0,219.0,32.0,4.0,242.0,1868.923
1868933.0,213.0,32.0,4.0,238.0,1868.933
1868943.0,213.0,32.0,4.0,238.0,1868.943
1868953.0,211.0,33.0,3.0,240.0,1868.953
1868963.0,217.0,32.0,4.0,244.0,1868.963
1868973.0,218.0,33.0,3.0,245.0,1868.973
1868983.0,213.0,32.0,5.0,237.0,1868.983
1868993.0,213.0,32.0,4.0,238.0,1868.993
1869003.0,214.0,32.0,4.0,239.0,1869.003
1869014.0,218.0,33.0,3.0,244.0,1869.014
1869024.0,215.0,33.0,3.0,240.0,1869.024
1869034.0,209.0,32.0,4.0,233.0,1869.034
1869044.0,212.0,32.0,5.0,238.0,1869.044
1869054.0,218.0,32.0,4.0,245.0,1869.054
1869064.0,217.0,32.0,5.0,243.0,1869.064
1869074.0,215.0,33.0,4.0,241.0,1869.074
1869084.0,209.0,33.0,3.0,233.0,1869.084
1869094.0,213.0,33.0,4.0,240.0,1869.094
1869104.0,215.0,33.0,3.0,243.0,1869.104
1869114.0,217.0,32.0,5.0,243.0,1869.114
1869124.0,214.0,33.0,4.0,240.0,1869.124
1869134.0,208.0,32.0,4.0,232.0,1869.134
1869144.0,211.0,33.0,3.0,237.0,1869.144
1869154.0,214.0,32.0,4.0,242.0,1869.154
1869164.0,215.0,32.0,4.0,242.0,1869.164
1869174.0,214.0,32.0,5.0,241.0,1869.174
1869184.0,209.0,32.0,3.0,235.0,1869.184
1869194.0,211.0,32.0,4.0,238.0,1869.194
1869204.0,216.0,32.0,4.0,245.0,1869.204
1869214.0,215.0,32.0,4.0,242.0,1869.214
1869224.0,214.0,32.0,4.0,240.0,1869.224
1869234.0,209.0,32.0,3.0,234.0,1869.234
1869244.0,212.0,32.0,5.0,237.0,1869.244
1869254.0,216.0,32.0,4.0,242.0,1869.254
1869264.0,215.0,32.0,4.0,238.0,1869.264
1869274.0,215.0,33.0,4.0,238.0,1869.274
1869284.0,208.0,32.0,4.0,230.0,1869.284
1869294.0,211.0,33.0,3.0,237.0,1869.294
1869304.0,217.0,33.0,5.0,243.0,1869.304
1869314.0,216.0,32.0,4.0,240.0,1869.314
1869324.0,215.0,32.0,4.0,238.0,1869.324
1869334.0,207.0,33.0,4.0,233.0,1869.334
1869344.0,211.0,32.0,4.0,238.0,1869.344
1869355.0,217.0,32.0,4.0,242.0,1869.355
1869365.0,213.0,32.0,5.0,237.0,1869.365
1869375.0,213.0,32.0,4.0,237.0,1869.375
1869385.0,208.0,33.0,3.0,232.0,1869.385
1869395.0,216.0,33.0,4.0,242.0,1869.395
1869405.0,218.0,32.0,4.0,243.0,1869.405
1869415.0,214.0,32.0,4.0,238.0,1869.415
1869425.0,213.0,32.0,4.0,238.0,1869.425
1869435.0,209.0,31.0,5.0,235.0,1869.435
1869445.0,213.0,32.0,4.0,240.0,1869.445
1869455.0,218.0,32.0,4.0,244.0,1869.455
1869465.0,213.0,33.0,3.0,239.0,1869.465
1869475.0,213.0,32.0,4.0,238.0,1869.475
1869485.0,207.0,33.0,3.0,233.0,1869.485
1869495.0,215.0,32.0,5.0,242.0,1869.495
1869505.0,217.0,32.0,4.0,246.0,1869.505
1869515.0,211.0,32.0,4.0,239.0,1869.515
1869526.0,212.0,32.0,3.0,239.0,1869.526
1869536.0,210.0,32.0,4.0,238.0,1869.536
1869546.0,216.0,32.0,4.0,243.0,1869.546
1869556.0,217.0,33.0,4.0,241.0,1869.556
1869566.0,210.0,31.0,4.0,234.0,1869.566
1869576.0,212.0,32.0,4.0,237.0,1869.576
1869586.0,212.0,32.0,4.0,239.0,1869.586
1869596.0,216.0,33.0,3.0,243.0,1869.596
1869606.0,217.0,32.0,4.0,241.0,1869.606
1869616.0,211.0,33.0,3.0,237.0,1869.616
1869626.0,213.0,32.0,5.0,238.0,1869.626
1869636.0,212.0,32.0,4.0,240.0,1869.636
1869646.0,216.0,32.0,4.0,242.0,1869.646
1869656.0,218.0,32.0,4.0,244.0,1869.656
1869666.0,210.0,32.0,4.0,235.0,1869.666
1869676.0,211.0,32.0,4.0,238.0,1869.676
1869686.0,214.0,32.0,5.0,241.0,1869.686
1869696.0,216.0,32.0,4.0,244.0,1869.696
1869706.0,218.0,32.0,4.0,243.0,1869.706
1869716.0,209.0,32.0,4.0,236.0,1869.716
1869726.0,212.0,32.0,3.0,237.0,1869.726
1869736.0,216.0,32.0,4.0,241.0,1869.736
1869746.0,217.0,32.0,3.0,244.0,1869.746
1869756.0,218.0,33.0,4.0,242.0,1869.756
1869766.0,209.0,32.0,4.0,234.0,1869.766
1869776.0,211.0,32.0,4.0,237.0,1869.776
1869786.0,210.0,33.0,4.0,237.0,1869.786
1869796.0,215.0,32.0,4.0,242.0,1869.796
1869806.0,216.0,32.0,4.0,241.0,1869.806
1869816.0,208.0,32.0,4.0,234.0,1869.816
1869826.0,211.0,32.0,3.0,238.0,1869.826
1869836.0,210.0,32.0,4.0,240.0,1869.836
1869846.0,214.0,33.0,4.0,244.0,1869.846
1869856.0,214.0,32.0,4.0,242.0,1869.856
1869867.0,206.0,32.0,3.0,234.0,1869.867
1869877.0,209.0,32.0,4.0,239.0,1869.877
1869887.0,216.0,32.0,4.0,245.0,1869.887
1869897.0,212.0,32.0,4.0,242.0,1869.897
1869907.0,211.0,32.0,4.0,241.0,1869.907
1869917.0,206.0,32.0,4.0,235.0,1869.917
1869927.0,209.0,33.0,4.0,240.0,1869.927
1869937.0,216.0,33.0,4.0,246.0,1869.937
1869947.0,213.0,32.0,4.0,242.0,1869.947
1869957.0,213.0,32.0,4.0,241.0,1869.957
1869967.0,205.0,32.0,4.0,233.0,1869.967
1869977.0,210.0,33.0,3.0,241.0,1869.977
1869987.0,216.0,32.0,4.0,246.0,1869.987
1869997.0,213.0,33.0,3.0,245.0,1869.997
1870007.0,213.0,33.0,5.0,241.0,1870.007
1870017.0,205.0,32.0,4.0,232.0,1870.017
1870027.0,210.0,33.0,3.0,241.0,1870.027
1870038.0,216.0,33.0,4.0,245.0,1870.038
1870048.0,211.0,32.0,4.0,240.0,1870.048
1870058.0,211.0,32.0,4.0,238.0,1870.058
1870068.0,207.0,32.0,4.0,237.0,1870.068
1870078.0,215.0,31.0,4.0,245.0,1870.078
1870088.0,217.0,32.0,4.0,245.0,1870.088
1870098.0,211.0,32.0,3.0,239.0,1870.098
1870108.0,212.0,33.0,3.0,240.0,1870.108
1870118.0,208.0,32.0,3.0,239.0,1870.118
1870128.0,212.0,33.0,3.0,244.0,1870.128
1870138.0,218.0,32.0,5.0,244.0,1870.138
1870148.0,210.0,32.0,4.0,239.0,1870.148
1870158.0,211.0,32.0,4.0,239.0,1870.158
1870168.0,205.0,32.0,3.0,234.0,1870.168
1870178.0,212.0,32.0,4.0,244.0,1870.178
1870188.0,216.0,32.0,4.0,245.0,1870.188
1870198.0,209.0,32.0,5.0,238.0,1870.198
1870208.0,211.0,32.0,3.0,240.0,1870.208
1870218.0,204.0,32.0,4.0,234.0,1870.218
1870228.0,212.0,32.0,4.0,244.0,1870.228
1870238.0,215.0,33.0,3.0,244.0,1870.238
1870248.0,208.0,32.0,3.0,236.0,1870.248
1870258.0,210.0,33.0,3.0,238.0,1870.258
1870268.0,206.0,31.0,4.0,235.0,1870.268
1870278.0,212.0,32.0,2.0,243.0,1870.278
1870288.0,215.0,32.0,4.0,242.0,1870.288
1870298.0,210.0,32.0,4.0,238.0,1870.298
1870308.0,211.0,32.0,4.0,238.0,1870.308
1870318.0,206.0,32.0,4.0,237.0,1870.318
1870328.0,216.0,32.0,4.0,243.0,1870.328
1870338.0,217.0,32.0,3.0,243.0,1870.338
1870348.0,211.0,32.0,4.0,237.0,1870.348
1870358.0,211.0,33.0,3.0,238.0,1870.358
1870368.0,208.0,32.0,3.0,238.0,1870.368
1870379.0,214.0,32.0,3.0,242.0,1870.379
1870389.0,216.0,32.0,4.0,239.0,1870.389
1870399.0,207.0,31.0,4.0,232.0,1870.399
1870409.0,209.0,32.0,4.0,235.0,1870.409
1870419.0,215.0,32.0,4.0,241.0,1870.419
1870429.0,214.0,32.0,2.0,242.0,1870.429
1870439.0,215.0,32.0,4.0,239.0,1870.439
1870449.0,206.0,31.0,3.0,233.0,1870.449
1870459.0,210.0,32.0,4.0,237.0,1870.459
1870469.0,212.0,32.0,4.0,240.0,1870.469
1870479.0,215.0,32.0,4.0,242.0,1870.479
1870489.0,215.0,33.0,3.0,241.0,1870.489
1870499.0,206.0,32.0,3.0,233.0,1870.499
1870509.0,210.0,33.0,3.0,238.0,1870.509
1870519.0,211.0,32.0,5.0,241.0,1870.519
1870529.0,214.0,31.0,2.0,244.0,1870.529
1870539.0,213.0,32.0,4.0,240.0,1870.539
1870550.0,207.0,32.0,4.0,235.0,1870.55
1870560.0,210.0,32.0,3.0,241.0,1870.56
1870570.0,216.0,32.0,4.0,246.0,1870.57
1870580.0,212.0,32.0,4.0,243.0,1870.58
1870590.0,213.0,31.0,4.0,241.0,1870.59
1870600.0,207.0,32.0,4.0,234.0,1870.6
1870610.0,212.0,31.0,4.0,241.0,1870.61
1870620.0,218.0,32.0,3.0,246.0,1870.62
1870630.0,214.0,32.0,4.0,240.0,1870.63
1870640.0,215.0,32.0,3.0,241.0,1870.64
1870650.0,207.0,31.0,5.0,232.0,1870.65
1870660.0,212.0,31.0,3.0,242.0,1870.66
1870670.0,218.0,31.0,4.0,245.0,1870.67
1870680.0,214.0,31.0,4.0,243.0,1870.68
1870690.0,213.0,32.0,3.0,240.0,1870.69
1870700.0,207.0,31.0,4.0,233.0,1870.7
1870710.0,214.0,32.0,4.0,242.0,1870.71
1870720.0,216.0,32.0,3.0,245.0,1870.72
1870730.0,214.0,31.0,4.0,242.0,1870.73
1870740.0,213.0,32.0,4.0,241.0,1870.74
1870750.0,206.0,32.0,3.0,234.0,1870.75
1870760.0,213.0,31.0,4.0,244.0,1870.76
1870770.0,216.0,33.0,3.0,246.0,1870.77
1870780.0,214.0,31.0,5.0,242.0,1870.78
1870790.0,212.0,31.0,4.0,240.0,1870.79
1870800.0,206.0,32.0,4.0,236.0,1870.8
1870810.0,211.0,31.0,2.0,242.0,1870.81
1870820.0,217.0,32.0,4.0,246.0,1870.82
1870830.0,213.0,31.0,4.0,242.0,1870.83
1870840.0,213.0,32.0,5.0,241.0,1870.84
1870850.0,207.0,31.0,4.0,234.0,1870.85
1870860.0,212.0,32.0,3.0,241.0,1870.86
1870870.0,217.0,32.0,4.0,246.0,1870.87
1870880.0,211.0,32.0,4.0,240.0,1870.88
1870891.0,212.0,31.0,4.0,240.0,1870.891
1870901.0,208.0,32.0,4.0,237.0,1870.901
1870911.0,215.0,31.0,4.0,245.0,1870.911
1870921.0,215.0,33.0,3.0,244.0,1870.921
1870931.0,209.0,31.0,4.0,237.0,1870.931
1870941.0,212.0,32.0,3.0,239.0,1870.941
1870951.0,209.0,32.0,4.0,237.0,1870.951
1870961.0,215.0,32.0,3.0,245.0,1870.961
1870971.0,217.0,33.0,5.0,242.0,1870.971
1870981.0,210.0,32.0,4.0,239.0,1870.981
1870991.0,212.0,32.0,4.0,239.0,1870.991
1871001.0,210.0,33.0,3.0,240.0,1871.001
1871011.0,215.0,32.0,4.0,245.0,1871.011
1871021.0,217.0,33.0,4.0,245.0,1871.021
1871031.0,210.0,33.0,5.0,238.0,1871.031
1871041.0,211.0,32.0,4.0,238.0,1871.041
1871051.0,211.0,32.0,4.0,241.0,1871.051
1871062.0,215.0,32.0,4.0,246.0,1871.062
1871072.0,214.0,33.0,3.0,243.0,1871.072
1871082.0,208.0,32.0,4.0,236.0,1871.082
1871092.0,209.0,32.0,4.0,240.0,1871.092
1871102.0,216.0,32.0,4.0,245.0,1871.102
1871112.0,215.0,32.0,4.0,245.0,1871.112
1871122.0,215.0,32.0,4.0,241.0,1871.122
1871132.0,207.0,33.0,3.0,235.0,1871.132
1871142.0,210.0,32.0,3.0,240.0,1871.142
1871152.0,211.0,34.0,3.0,243.0,1871.152
1871162.0,215.0,32.0,4.0,243.0,1871.162
1871172.0,213.0,32.0,4.0,241.0,1871.172
1871182.0,204.0,32.0,4.0,235.0,1871.182
1871192.0,205.0,33.0,3.0,240.0,1871.192
1871202.0,209.0,33.0,3.0,244.0,1871.202
1871212.0,211.0,32.0,4.0,244.0,1871.212
1871222.0,213.0,32.0,4.0,240.0,1871.222
1871232.0,206.0,32.0,3.0,236.0,1871.232
1871242.0,208.0,33.0,3.0,238.0,1871.242
1871252.0,213.0,32.0,4.0,245.0,1871.252
1871262.0,213.0,32.0,3.0,244.0,1871.262
1871272.0,213.0,32.0,4.0,240.0,1871.272
1871282.0,207.0,33.0,3.0,236.0,1871.282
1871292.0,211.0,33.0,4.0,239.0,1871.292
1871302.0,214.0,32.0,4.0,245.0,1871.302
1871312.0,212.0,32.0,4.0,242.0,1871.312
1871322.0,214.0,34.0,3.0,242.0,1871.322
1871332.0,205.0,32.0,3.0,234.0,1871.332
1871342.0,208.0,33.0,4.0,238.0,1871.342
1871352.0,215.0,33.0,5.0,245.0,1871.352
1871362.0,213.0,32.0,4.0,243.0,1871.362
1871372.0,213.0,32.0,4.0,240.0,1871.372
1871382.0,206.0,32.0,4.0,233.0,1871.382
1871392.0,210.0,33.0,3.0,238.0,1871.392
1871403.0,215.0,32.0,4.0,244.0,1871.403
1871413.0,212.0,32.0,4.0,240.0,1871.413
1871423.0,212.0,32.0,4.0,237.0,1871.423
1871433.0,205.0,32.0,4.0,233.0,1871.433
1871443.0,213.0,33.0,3.0,242.0,1871.443
1871453.0,216.0,32.0,4.0,243.0,1871.453
1871463.0,211.0,32.0,3.0,238.0,1871.463
1871473.0,211.0,32.0,4.0,237.0,1871.473
1871483.0,207.0,32.0,5.0,234.0,1871.483
1871493.0,211.0,33.0,3.0,240.0,1871.493
1871503.0,216.0,33.0,4.0,244.0,1871.503
1871513.0,211.0,32.0,3.0,239.0,1871.513
1871523.0,211.0,32.0,4.0,237.0,1871.523
1871533.0,204.0,33.0,3.0,232.0,1871.533
1871543.0,213.0,33.0,5.0,241.0,1871.543
1871553.0,216.0,33.0,4.0,243.0,1871.553
1871563.0,211.0,32.0,4.0,236.0,1871.563
1871574.0,212.0,32.0,4.0,237.0,1871.574
1871584.0,208.0,33.0,4.0,235.0,1871.584
1871594.0,215.0,32.0,4.0,242.0,1871.594
1871604.0,215.0,33.0,4.0,241.0,1871.604
1871614.0,208.0,31.0,4.0,232.0,1871.614
1871624.0,210.0,32.0,4.0,236.0,1871.624
1871634.0,209.0,32.0,4.0,237.0,1871.634
1871644.0,214.0,33.0,3.0,243.0,1871.644
1871654.0,214.0,32.0,4.0,240.0,1871.654
1871664.0,208.0,33.0,3.0,236.0,1871.664
1871674.0,211.0,32.0,4.0,235.0,1871.674
1871684.0,209.0,32.0,4.0,239.0,1871.684
1871694.0,214.0,32.0,4.0,241.0,1871.694
1871704.0,216.0,31.0,4.0,243.0,1871.704
1871714.0,208.0,32.0,3.0,235.0,1871.714
1871724.0,210.0,32.0,4.0,237.0,1871.724
1871734.0,211.0,32.0,5.0,240.0,1871.734
1871744.0,214.0,32.0,3.0,243.0,1871.744
1871754.0,215.0,33.0,4.0,241.0,1871.754
1871764.0,208.0,32.0,4.0,234.0,1871.764
1871774.0,210.0,33.0,3.0,235.0,1871.774
1871784.0,213.0,32.0,4.0,240.0,1871.784
1871794.0,214.0,33.0,3.0,242.0,1871.794
1871804.0,217.0,33.0,5.0,240.0,1871.804
1871814.0,207.0,31.0,4.0,232.0,1871.814
1871824.0,211.0,32.0,4.0,235.0,1871.824
1871834.0,209.0,33.0,3.0,238.0,1871.834
1871844.0,215.0,32.0,4.0,242.0,1871.844
1871854.0,217.0,32.0,4.0,240.0,1871.854
1871864.0,209.0,32.0,5.0,233.0,1871.864
1871874.0,213.0,32.0,5.0,236.0,1871.874
1871884.0,210.0,32.0,4.0,238.0,1871.884
1871894.0,215.0,32.0,4.0,243.0,1871.894
1871904.0,215.0,32.0,4.0,240.0,1871.904
1871915.0,208.0,31.0,4.0,232.0,1871.915
1871925.0,209.0,32.0,3.0,237.0,1871.925
1871935.0,216.0,31.0,4.0,244.0,1871.935
1871945.0,212.0,31.0,3.0,241.0,1871.945
1871955.0,212.0,32.0,4.0,239.0,1871.955
1871965.0,207.0,32.0,3.0,233.0,1871.965
1871975.0,211.0,31.0,4.0,238.0,1871.975
1871985.0,216.0,32.0,3.0,244.0,1871.985
1871995.0,214.0,31.0,5.0,239.0,1871.995
1872005.0,214.0,31.0,4.0,239.0,1872.005
1872015.0,206.0,31.0,4.0,231.0,1872.015
1872025.0,211.0,33.0,3.0,239.0,1872.025
1872035.0,216.0,32.0,3.0,242.0,1872.035
1872045.0,214.0,32.0,3.0,241.0,1872.045
1872055.0,214.0,32.0,4.0,238.0,1872.055
1872065.0,207.0,31.0,4.0,230.0,1872.065
1872075.0,212.0,32.0,3.0,239.0,1872.075
1872086.0,218.0,32.0,4.0,243.0,1872.086
1872096.0,214.0,32.0,3.0,238.0,1872.096
1872106.0,213.0,31.0,4.0,237.0,1872.106
1872116.0,208.0,31.0,4.0,234.0,1872.116
1872126.0,216.0,31.0,4.0,243.0,1872.126
1872136.0,217.0,32.0,4.0,244.0,1872.136
1872146.0,212.0,32.0,4.0,239.0,1872.146
1872156.0,213.0,33.0,3.0,240.0,1872.156
1872166.0,209.0,32.0,4.0,238.0,1872.166
1872176.0,213.0,32.0,3.0,243.0,1872.176
1872186.0,218.0,32.0,5.0,245.0,1872.186
1872196.0,211.0,31.0,4.0,239.0,1872.196
1872206.0,211.0,32.0,4.0,238.0,1872.206
1872216.0,205.0,31.0,4.0,233.0,1872.216
1872226.0,213.0,32.0,4.0,242.0,1872.226
1872236.0,217.0,32.0,4.0,244.0,1872.236
1872246.0,209.0,32.0,5.0,237.0,1872.246
1872256.0,211.0,32.0,4.0,238.0,1872.256
1872266.0,204.0,32.0,4.0,233.0,1872.266
1872276.0,213.0,31.0,4.0,243.0,1872.276
1872286.0,216.0,33.0,3.0,244.0,1872.286
1872296.0,208.0,32.0,4.0,236.0,1872.296
1872306.0,211.0,33.0,3.0,238.0,1872.306
1872316.0,207.0,32.0,5.0,235.0,1872.316
1872326.0,213.0,31.0,4.0,244.0,1872.326
1872336.0,216.0,33.0,4.0,243.0,1872.336
1872346.0,210.0,32.0,4.0,240.0,1872.346
1872356.0,210.0,32.0,4.0,238.0,1872.356
1872366.0,207.0,32.0,4.0,235.0,1872.366
1872376.0,214.0,33.0,4.0,243.0,1872.376
1872386.0,217.0,32.0,4.0,244.0,1872.386
1872396.0,210.0,32.0,3.0,239.0,1872.396
1872406.0,211.0,32.0,4.0,239.0,1872.406
1872416.0,207.0,33.0,3.0,238.0,1872.416
1872427.0,214.0,32.0,4.0,244.0,1872.427
1872437.0,216.0,32.0,4.0,242.0,1872.437
1872447.0,208.0,31.0,5.0,235.0,1872.447
1872457.0,210.0,32.0,3.0,237.0,1872.457
1872467.0,213.0,33.0,4.0,243.0,1872.467
1872477.0,214.0,32.0,3.0,244.0,1872.477
1872487.0,214.0,32.0,4.0,242.0,1872.487
1872497.0,207.0,33.0,4.0,234.0,1872.497
1872507.0,210.0,32.0,4.0,236.0,1872.507
1872517.0,210.0,33.0,3.0,239.0,1872.517
1872527.0,213.0,32.0,4.0,243.0,1872.527
1872537.0,213.0,34.0,3.0,242.0,1872.537
1872547.0,206.0,32.0,4.0,233.0,1872.547
1872557.0,210.0,33.0,3.0,238.0,1872.557
1872567.0,211.0,32.0,5.0,240.0,1872.567
1872577.0,213.0,33.0,4.0,241.0,1872.577
1872587.0,214.0,33.0,4.0,240.0,1872.587
1872598.0,205.0,32.0,3.0,232.0,1872.598
1872608.0,209.0,33.0,3.0,238.0,1872.608
1872618.0,215.0,32.0,4.0,244.0,1872.618
1872628.0,211.0,33.0,4.0,240.0,1872.628
1872638.0,212.0,33.0,4.0,239.0,1872.638
1872648.0,204.0,33.0,4.0,232.0,1872.648
1872658.0,210.0,32.0,4.0,239.0,1872.658
1872668.0,216.0,34.0,3.0,244.0,1872.668
1872678.0,212.0,32.0,3.0,239.0,1872.678
1872688.0,213.0,34.0,3.0,240.0,1872.688
1872698.0,207.0,33.0,5.0,231.0,1872.698
1872708.0,210.0,33.0,4.0,240.0,1872.708
1872718.0,217.0,33.0,4.0,242.0,1872.718
1872728.0,213.0,32.0,4.0,239.0,1872.728
1872738.0,212.0,33.0,3.0,238.0,1872.738
1872748.0,205.0,32.0,4.0,230.0,1872.748
1872758.0,211.0,33.0,4.0,239.0,1872.758
1872768.0,215.0,33.0,4.0,242.0,1872.768
1872778.0,211.0,33.0,2.0,239.0,1872.778
1872788.0,211.0,33.0,4.0,237.0,1872.788
1872798.0,203.0,33.0,3.0,231.0,1872.798
1872808.0,212.0,32.0,4.0,240.0,1872.808
1872818.0,214.0,34.0,3.0,244.0,1872.818
1872828.0,213.0,33.0,5.0,241.0,1872.828
1872838.0,212.0,33.0,4.0,239.0,1872.838
1872848.0,204.0,32.0,4.0,232.0,1872.848
1872858.0,210.0,32.0,4.0,239.0,1872.858
1872868.0,216.0,32.0,3.0,244.0,1872.868
1872878.0,213.0,32.0,3.0,240.0,1872.878
1872888.0,212.0,32.0,5.0,240.0,1872.888
1872898.0,206.0,32.0,3.0,232.0,1872.898
1872908.0,211.0,32.0,4.0,239.0,1872.908
1872918.0,217.0,32.0,4.0,244.0,1872.918
1872928.0,212.0,32.0,4.0,238.0,1872.928
1872939.0,212.0,32.0,4.0,238.0,1872.939
1872949.0,206.0,33.0,4.0,234.0,1872.949
1872959.0,216.0,32.0,4.0,242.0,1872.959
1872969.0,216.0,32.0,4.0,242.0,1872.969
1872979.0,209.0,32.0,3.0,235.0,1872.979
1872989.0,211.0,32.0,4.0,238.0,1872.989
1872999.0,208.0,32.0,4.0,236.0,1872.999
1873009.0,215.0,32.0,4.0,242.0,1873.009
1873019.0,217.0,32.0,5.0,241.0,1873.019
1873029.0,211.0,32.0,3.0,237.0,1873.029
1873039.0,211.0,32.0,3.0,237.0,1873.039
1873049.0,208.0,33.0,3.0,238.0,1873.049
1873059.0,214.0,32.0,3.0,242.0,1873.059
1873069.0,217.0,33.0,4.0,243.0,1873.069
1873079.0,209.0,32.0,4.0,236.0,1873.079
1873089.0,210.0,32.0,3.0,238.0,1873.089
1873099.0,209.0,33.0,3.0,237.0,1873.099
1873110.0,215.0,32.0,4.0,242.0,1873.11
1873120.0,215.0,32.0,3.0,240.0,1873.12
1873130.0,208.0,32.0,4.0,231.0,1873.13
1873140.0,209.0,32.0,4.0,236.0,1873.14
1873150.0,214.0,32.0,4.0,243.0,1873.15
1873160.0,213.0,32.0,4.0,242.0,1873.16
1873170.0,214.0,32.0,4.0,240.0,1873.17
1873180.0,206.0,33.0,3.0,234.0,1873.18
1873190.0,210.0,32.0,4.0,237.0,1873.19
1873200.0,212.0,32.0,3.0,241.0,1873.2
1873210.0,215.0,32.0,5.0,242.0,1873.21
1873220.0,213.0,31.0,4.0,240.0,1873.22
1873230.0,206.0,31.0,4.0,231.0,1873.23
1873240.0,210.0,32.0,4.0,237.0,1873.24
1873250.0,213.0,32.0,3.0,240.0,1873.25
1873260.0,214.0,31.0,4.0,240.0,1873.26
1873270.0,213.0,32.0,4.0,238.0,1873.27
1873280.0,208.0,32.0,4.0,231.0,1873.28
1873290.0,210.0,32.0,4.0,235.0,1873.29
1873300.0,214.0,32.0,4.0,241.0,1873.3
1873310.0,213.0,32.0,3.0,240.0,1873.31
1873320.0,214.0,31.0,4.0,238.0,1873.32
1873330.0,208.0,32.0,3.0,232.0,1873.33
1873340.0,212.0,31.0,4.0,235.0,1873.34
1873350.0,215.0,31.0,4.0,241.0,1873.35
1873360.0,214.0,31.0,4.0,238.0,1873.36
1873370.0,215.0,31.0,4.0,239.0,1873.37
1873380.0,208.0,30.0,4.0,230.0,1873.38
1873390.0,210.0,31.0,4.0,235.0,1873.39
1873400.0,216.0,31.0,5.0,242.0,1873.4
1873410.0,215.0,31.0,4.0,240.0,1873.41
1873420.0,214.0,31.0,3.0,238.0,1873.42
1873430.0,207.0,31.0,4.0,231.0,1873.43
1873440.0,210.0,31.0,4.0,236.0,1873.44
1873451.0,217.0,31.0,4.0,241.0,1873.451
1873461.0,213.0,31.0,4.0,237.0,1873.461
1873471.0,213.0,31.0,4.0,236.0,1873.471
1873481.0,205.0,32.0,3.0,230.0,1873.481
1873491.0,213.0,32.0,4.0,239.0,1873.491
1873501.0,216.0,33.0,3.0,241.0,1873.501
1873511.0,211.0,32.0,4.0,234.0,1873.511
1873521.0,211.0,32.0,4.0,236.0,1873.521
1873531.0,206.0,32.0,5.0,231.0,1873.531
1873541.0,210.0,31.0,4.0,238.0,1873.541
1873551.0,215.0,33.0,4.0,242.0,1873.551
1873561.0,210.0,32.0,4.0,237.0,1873.561
1873571.0,211.0,32.0,3.0,237.0,1873.571
1873581.0,204.0,32.0,3.0,230.0,1873.581
1873591.0,210.0,33.0,4.0,239.0,1873.591
1873601.0,216.0,33.0,4.0,243.0,1873.601
1873611.0,209.0,33.0,3.0,237.0,1873.611
1873622.0,211.0,33.0,3.0,238.0,1873.622
1873632.0,207.0,33.0,4.0,236.0,1873.632
1873642.0,213.0,32.0,4.0,242.0,1873.642
1873652.0,214.0,33.0,4.0,241.0,1873.652
1873662.0,207.0,33.0,5.0,232.0,1873.662
1873672.0,209.0,33.0,4.0,236.0,1873.672
1873682.0,208.0,33.0,4.0,236.0,1873.682
1873692.0,213.0,34.0,3.0,243.0,1873.692
1873702.0,215.0,32.0,4.0,240.0,1873.702
1873712.0,208.0,34.0,4.0,238.0,1873.712
1873722.0,210.0,33.0,5.0,238.0,1873.722
1873732.0,209.0,33.0,4.0,239.0,1873.732
1873742.0,213.0,33.0,4.0,242.0,1873.742
1873752.0,216.0,33.0,4.0,243.0,1873.752
1873762.0,209.0,33.0,3.0,235.0,1873.762
1873772.0,210.0,33.0,4.0,236.0,1873.772
1873782.0,211.0,33.0,4.0,239.0,1873.782
1873792.0,214.0,32.0,3.0,242.0,1873.792
1873802.0,216.0,34.0,3.0,241.0,1873.802
1873812.0,208.0,33.0,4.0,233.0,1873.812
1873822.0,210.0,34.0,3.0,235.0,1873.822
1873832.0,212.0,33.0,4.0,238.0,1873.832
1873842.0,214.0,32.0,3.0,241.0,1873.842
1873852.0,216.0,33.0,4.0,241.0,1873.852
1873862.0,207.0,33.0,4.0,233.0,1873.862
1873872.0,210.0,33.0,4.0,235.0,1873.872
1873882.0,208.0,33.0,4.0,237.0,1873.882
1873892.0,214.0,32.0,4.0,242.0,1873.892
1873902.0,216.0,33.0,4.0,241.0,1873.902
1873912.0,207.0,32.0,4.0,233.0,1873.912
1873922.0,211.0,33.0,3.0,237.0,1873.922
1873932.0,210.0,32.0,4.0,237.0,1873.932
1873942.0,215.0,32.0,4.0,243.0,1873.942
1873952.0,216.0,33.0,4.0,240.0,1873.952
1873963.0,207.0,32.0,4.0,233.0,1873.963
1873973.0,210.0,32.0,4.0,236.0,1873.973
1873983.0,215.0,33.0,4.0,242.0,1873.983
1873993.0,214.0,32.0,2.0,239.0,1873.993
1874003.0,212.0,33.0,4.0,237.0,1874.003
1874013.0,206.0,33.0,4.0,231.0,1874.013
1874023.0,210.0,32.0,4.0,236.0,1874.023
1874033.0,214.0,33.0,4.0,241.0,1874.033
1874043.0,213.0,32.0,5.0,239.0,1874.043
1874053.0,214.0,32.0,4.0,239.0,1874.053
1874063.0,205.0,32.0,4.0,231.0,1874.063
1874073.0,209.0,33.0,3.0,239.0,1874.073
1874083.0,215.0,33.0,4.0,244.0,1874.083
1874093.0,213.0,32.0,3.0,243.0,1874.093
1874103.0,212.0,32.0,4.0,238.0,1874.103
1874113.0,206.0,31.0,4.0,231.0,1874.113
1874123.0,210.0,33.0,3.0,239.0,1874.123
1874134.0,215.0,33.0,4.0,243.0,1874.134
1874144.0,211.0,32.0,3.0,239.0,1874.144
1874154.0,211.0,32.0,4.0,237.0,1874.154
1874164.0,205.0,33.0,4.0,234.0,1874.164
1874174.0,216.0,32.0,4.0,243.0,1874.174
1874184.0,216.0,33.0,4.0,243.0,1874.184
1874194.0,211.0,32.0,4.0,239.0,1874.194
1874204.0,211.0,33.0,3.0,239.0,1874.204
1874214.0,207.0,32.0,4.0,236.0,1874.214
1874224.0,213.0,33.0,3.0,243.0,1874.224
1874234.0,217.0,32.0,5.0,244.0,1874.234
1874244.0,212.0,31.0,4.0,239.0,1874.244
1874254.0,211.0,32.0,4.0,238.0,1874.254
1874264.0,205.0,33.0,4.0,233.0,1874.264
1874274.0,214.0,33.0,3.0,245.0,1874.274
1874284.0,217.0,32.0,4.0,245.0,1874.284
1874294.0,209.0,32.0,4.0,239.0,1874.294
1874304.0,212.0,33.0,5.0,240.0,1874.304
1874314.0,204.0,33.0,4.0,235.0,1874.314
1874324.0,212.0,32.0,4.0,244.0,1874.324
1874334.0,216.0,34.0,3.0,245.0,1874.334
1874344.0,208.0,32.0,4.0,240.0,1874.344
1874354.0,211.0,33.0,3.0,242.0,1874.354
1874364.0,205.0,32.0,5.0,238.0,1874.364
1874374.0,213.0,33.0,2.0,246.0,1874.374
1874384.0,215.0,33.0,4.0,245.0,1874.384
1874394.0,211.0,32.0,4.0,243.0,1874.394
1874404.0,211.0,32.0,4.0,241.0,1874.404
1874414.0,206.0,32.0,4.0,239.0,1874.414
1874424.0,214.0,33.0,4.0,247.0,1874.424
1874434.0,216.0,33.0,3.0,247.0,1874.434
1874444.0,210.0,32.0,3.0,243.0,1874.444
1874454.0,211.0,32.0,4.0,241.0,1874.454
1874464.0,208.0,32.0,3.0,240.0,1874.464
1874475.0,215.0,32.0,4.0,246.0,1874.475
1874485.0,216.0,32.0,4.0,244.0,1874.485
1874495.0,209.0,32.0,4.0,238.0,1874.495
1874505.0,210.0,33.0,4.0,239.0,1874.505
1874515.0,213.0,32.0,4.0,245.0,1874.515
1874525.0,214.0,33.0,4.0,247.0,1874.525
1874535.0,216.0,34.0,4.0,242.0,1874.535
1874545.0,208.0,32.0,3.0,237.0,1874.545
1874555.0,210.0,33.0,5.0,238.0,1874.555
1874565.0,209.0,33.0,4.0,241.0,1874.565
1874575.0,214.0,33.0,4.0,245.0,1874.575
1874585.0,214.0,33.0,4.0,244.0,1874.585
1874595.0,207.0,32.0,3.0,236.0,1874.595
1874605.0,210.0,33.0,4.0,240.0,1874.605
1874615.0,211.0,32.0,4.0,243.0,1874.615
1874625.0,215.0,31.0,4.0,247.0,1874.625
1874635.0,214.0,33.0,4.0,243.0,1874.635
1874646.0,207.0,32.0,4.0,237.0,1874.646
1874656.0,210.0,33.0,3.0,241.0,1874.656
1874666.0,216.0,32.0,4.0,247.0,1874.666
1874676.0,213.0,32.0,3.0,244.0,1874.676
