time (ms),signal 0,signal 1,signal 2,signal 3,time (sec)
1918818.0,213.0,30.0,217.0,239.0,1918.818
1918828.0,215.0,30.0,212.0,237.0,1918.828
1918838.0,206.0,30.0,209.0,228.0,1918.838
1918848.0,210.0,31.0,208.0,231.0,1918.848
1918858.0,208.0,30.0,210.0,233.0,1918.858
1918868.0,213.0,29.0,216.0,237.0,1918.868
1918878.0,214.0,32.0,210.0,236.0,1918.878
1918888.0,206.0,30.0,208.0,226.0,1918.888
1918898.0,209.0,30.0,207.0,231.0,1918.898
1918908.0,210.0,31.0,213.0,235.0,1918.908
1918918.0,212.0,29.0,217.0,238.0,1918.918
1918928.0,212.0,31.0,210.0,235.0,1918.928
1918938.0,206.0,31.0,211.0,230.0,1918.938
1918948.0,208.0,30.0,209.0,231.0,1918.948
1918958.0,210.0,31.0,214.0,236.0,1918.958
1918968.0,212.0,32.0,218.0,237.0,1918.968
1918978.0,214.0,32.0,213.0,238.0,1918.978
1918988.0,206.0,31.0,210.0,229.0,1918.988
1918998.0,208.0,31.0,208.0,232.0,1918.998
1919008.0,211.0,32.0,213.0,238.0,1919.008
1919019.0,212.0,30.0,217.0,238.0,1919.019
1919029.0,212.0,31.0,210.0,237.0,1919.029
1919039.0,205.0,31.0,208.0,229.0,1919.039
1919049.0,208.0,32.0,211.0,237.0,1919.049
1919059.0,216.0,32.0,216.0,241.0,1919.059
1919069.0,213.0,33.0,217.0,239.0,1919.069
1919079.0,213.0,32.0,211.0,237.0,1919.079
1919089.0,205.0,32.0,208.0,228.0,1919.089
1919099.0,211.0,32.0,214.0,238.0,1919.099
1919109.0,214.0,32.0,216.0,241.0,1919.109
1919119.0,212.0,32.0,216.0,237.0,1919.119
1919129.0,213.0,33.0,210.0,238.0,1919.129
1919139.0,203.0,32.0,206.0,228.0,1919.139
1919149.0,209.0,33.0,210.0,235.0,1919.149
1919159.0,215.0,33.0,217.0,241.0,1919.159
1919169.0,213.0,32.0,217.0,237.0,1919.169
1919179.0,212.0,33.0,210.0,237.0,1919.179
1919190.0,204.0,32.0,207.0,229.0,1919.19
1919200.0,212.0,34.0,216.0,240.0,1919.2
1919210.0,218.0,32.0,216.0,242.0,1919.21
1919220.0,210.0,33.0,213.0,233.0,1919.22
1919230.0,212.0,33.0,211.0,235.0,1919.23
1919240.0,205.0,33.0,208.0,230.0,1919.24
1919250.0,214.0,33.0,217.0,239.0,1919.25
1919260.0,218.0,35.0,216.0,242.0,1919.26
1919270.0,210.0,32.0,213.0,232.0,1919.27
1919280.0,213.0,34.0,210.0,237.0,1919.28
1919290.0,207.0,33.0,209.0,231.0,1919.29
1919300.0,215.0,33.0,216.0,240.0,1919.3
1919310.0,218.0,34.0,214.0,241.0,1919.31
1919320.0,212.0,33.0,214.0,235.0,1919.32
1919330.0,212.0,34.0,210.0,237.0,1919.33
1919340.0,208.0,32.0,209.0,233.0,1919.34
1919350.0,215.0,33.0,217.0,241.0,1919.35
1919360.0,219.0,32.0,216.0,242.0,1919.36
1919370.0,212.0,32.0,214.0,236.0,1919.37
1919380.0,213.0,33.0,211.0,237.0,1919.38
1919390.0,211.0,33.0,211.0,236.0,1919.39
1919400.0,217.0,33.0,219.0,242.0,1919.4
1919410.0,219.0,34.0,218.0,244.0,1919.41
1919420.0,213.0,33.0,215.0,237.0,1919.42
1919430.0,214.0,34.0,210.0,238.0,1919.43
1919440.0,211.0,33.0,213.0,237.0,1919.44
1919450.0,215.0,33.0,217.0,243.0,1919.45
1919460.0,219.0,34.0,217.0,245.0,1919.46
1919470.0,211.0,33.0,214.0,238.0,1919.47
1919480.0,212.0,34.0,211.0,239.0,1919.48
1919490.0,206.0,34.0,209.0,235.0,1919.49
1919500.0,214.0,34.0,219.0,245.0,1919.5
1919510.0,218.0,34.0,218.0,247.0,1919.51
1919520.0,210.0,35.0,214.0,239.0,1919.52
1919531.0,212.0,34.0,211.0,240.0,1919.531
1919541.0,212.0,35.0,215.0,243.0,1919.541
1919551.0,216.0,34.0,221.0,245.0,1919.551
1919561.0,215.0,35.0,213.0,243.0,1919.561
1919571.0,206.0,33.0,210.0,235.0,1919.571
1919581.0,211.0,34.0,211.0,239.0,1919.581
1919591.0,213.0,34.0,216.0,243.0,1919.591
1919601.0,215.0,34.0,219.0,244.0,1919.601
1919611.0,216.0,34.0,214.0,242.0,1919.611
1919621.0,209.0,34.0,211.0,236.0,1919.621
1919631.0,211.0,34.0,209.0,239.0,1919.631
1919641.0,214.0,34.0,216.0,245.0,1919.641
1919651.0,215.0,34.0,218.0,243.0,1919.651
1919661.0,218.0,33.0,213.0,244.0,1919.661
1919671.0,208.0,33.0,209.0,235.0,1919.671
1919681.0,212.0,33.0,209.0,238.0,1919.681
1919691.0,215.0,33.0,215.0,245.0,1919.691
1919702.0,215.0,33.0,216.0,243.0,1919.702
1919712.0,215.0,33.0,210.0,241.0,1919.712
1919722.0,207.0,32.0,206.0,232.0,1919.722
1919732.0,212.0,32.0,212.0,242.0,1919.732
1919742.0,220.0,33.0,217.0,246.0,1919.742
1919752.0,215.0,32.0,217.0,242.0,1919.752
1919762.0,215.0,32.0,210.0,240.0,1919.762
1919772.0,207.0,33.0,206.0,235.0,1919.772
1919782.0,214.0,32.0,215.0,243.0,1919.782
1919792.0,219.0,33.0,217.0,247.0,1919.792
1919802.0,215.0,32.0,217.0,243.0,1919.802
1919812.0,215.0,33.0,210.0,241.0,1919.812
1919822.0,207.0,32.0,206.0,235.0,1919.822
1919832.0,213.0,32.0,211.0,241.0,1919.832
1919842.0,218.0,34.0,217.0,246.0,1919.842
1919852.0,214.0,32.0,215.0,242.0,1919.852
1919862.0,215.0,33.0,209.0,240.0,1919.862
1919872.0,208.0,32.0,206.0,234.0,1919.872
1919882.0,213.0,32.0,210.0,241.0,1919.882
1919892.0,219.0,33.0,216.0,247.0,1919.892
1919902.0,215.0,33.0,214.0,242.0,1919.902
1919912.0,215.0,32.0,210.0,240.0,1919.912
1919922.0,209.0,32.0,207.0,236.0,1919.922
1919932.0,214.0,32.0,214.0,243.0,1919.932
1919942.0,219.0,33.0,217.0,248.0,1919.942
1919952.0,213.0,32.0,214.0,241.0,1919.952
1919962.0,216.0,32.0,210.0,242.0,1919.962
1919972.0,208.0,32.0,206.0,234.0,1919.972
1919982.0,214.0,32.0,213.0,242.0,1919.982
1919992.0,220.0,32.0,217.0,247.0,1919.992
1920002.0,217.0,32.0,216.0,243.0,1920.002
1920012.0,216.0,33.0,210.0,240.0,1920.012
1920022.0,209.0,31.0,207.0,234.0,1920.022
1920032.0,215.0,32.0,215.0,243.0,1920.032
1920043.0,220.0,32.0,217.0,246.0,1920.043
1920053.0,214.0,33.0,214.0,239.0,1920.053
1920063.0,215.0,32.0,210.0,239.0,1920.063
1920073.0,212.0,32.0,213.0,239.0,1920.073
1920083.0,219.0,31.0,221.0,243.0,1920.083
1920093.0,220.0,33.0,218.0,246.0,1920.093
1920103.0,213.0,32.0,215.0,238.0,1920.103
1920113.0,213.0,33.0,212.0,240.0,1920.113
1920123.0,213.0,32.0,217.0,241.0,1920.123
1920133.0,216.0,32.0,221.0,245.0,1920.133
1920143.0,219.0,32.0,218.0,244.0,1920.143
1920153.0,210.0,32.0,216.0,237.0,1920.153
1920163.0,213.0,33.0,212.0,238.0,1920.163
1920173.0,209.0,32.0,214.0,239.0,1920.173
1920183.0,217.0,32.0,224.0,249.0,1920.183
1920193.0,220.0,33.0,220.0,248.0,1920.193
1920203.0,212.0,32.0,216.0,241.0,1920.203
1920214.0,215.0,33.0,215.0,247.0,1920.214
1920224.0,215.0,34.0,219.0,251.0,1920.224
1920234.0,220.0,32.0,224.0,256.0,1920.234
1920244.0,221.0,34.0,214.0,249.0,1920.244
1920254.0,215.0,34.0,207.0,235.0,1920.254
1920264.0,220.0,35.0,208.0,239.0,1920.264
1920274.0,224.0,37.0,211.0,239.0,1920.274
1920284.0,223.0,37.0,210.0,241.0,1920.284
1920294.0,220.0,37.0,207.0,238.0,1920.294
1920304.0,216.0,36.0,209.0,248.0,1920.304
1920314.0,221.0,37.0,216.0,257.0,1920.314
1920324.0,223.0,37.0,221.0,269.0,1920.324
1920334.0,220.0,36.0,218.0,263.0,1920.334
1920344.0,215.0,35.0,215.0,261.0,1920.344
1920354.0,207.0,35.0,211.0,266.0,1920.354
1920364.0,214.0,34.0,214.0,267.0,1920.364
1920374.0,225.0,34.0,217.0,266.0,1920.374
1920384.0,229.0,33.0,214.0,261.0,1920.384
1920394.0,230.0,34.0,212.0,258.0,1920.394
1920404.0,224.0,33.0,203.0,249.0,1920.404
1920414.0,224.0,34.0,208.0,256.0,1920.414
1920424.0,231.0,32.0,215.0,258.0,1920.424
1920434.0,226.0,32.0,211.0,257.0,1920.434
1920444.0,224.0,33.0,211.0,262.0,1920.444
1920454.0,215.0,31.0,201.0,256.0,1920.454
1920464.0,218.0,32.0,203.0,256.0,1920.464
1920474.0,220.0,33.0,207.0,262.0,1920.474
1920484.0,223.0,32.0,206.0,256.0,1920.484
1920494.0,226.0,32.0,200.0,246.0,1920.494
1920504.0,216.0,31.0,190.0,233.0,1920.504
1920514.0,218.0,32.0,195.0,237.0,1920.514
1920524.0,233.0,32.0,204.0,245.0,1920.524
1920534.0,229.0,31.0,201.0,245.0,1920.534
1920544.0,226.0,33.0,201.0,246.0,1920.544
1920555.0,215.0,31.0,195.0,237.0,1920.555
1920565.0,217.0,32.0,204.0,250.0,1920.565
1920575.0,225.0,32.0,210.0,250.0,1920.575
1920585.0,216.0,31.0,208.0,250.0,1920.585
1920595.0,218.0,32.0,205.0,242.0,1920.595
1920605.0,213.0,33.0,196.0,234.0,1920.605
1920615.0,226.0,31.0,208.0,246.0,1920.615
1920625.0,228.0,32.0,212.0,249.0,1920.625
1920635.0,222.0,32.0,207.0,243.0,1920.635
1920645.0,223.0,31.0,206.0,245.0,1920.645
1920655.0,215.0,32.0,202.0,246.0,1920.655
1920665.0,222.0,32.0,214.0,258.0,1920.665
1920675.0,228.0,32.0,216.0,258.0,1920.675
1920685.0,225.0,30.0,211.0,246.0,1920.685
1920695.0,229.0,32.0,210.0,253.0,1920.695
1920705.0,231.0,31.0,208.0,243.0,1920.705
1920715.0,235.0,32.0,219.0,255.0,1920.715
1920726.0,240.0,32.0,222.0,260.0,1920.726
1920736.0,235.0,33.0,218.0,251.0,1920.736
1920746.0,232.0,32.0,213.0,250.0,1920.746
1920756.0,231.0,32.0,216.0,253.0,1920.756
1920766.0,236.0,31.0,229.0,263.0,1920.766
1920776.0,234.0,33.0,224.0,270.0,1920.776
1920786.0,227.0,32.0,224.0,263.0,1920.786
1920796.0,226.0,33.0,225.0,271.0,1920.796
1920806.0,230.0,32.0,229.0,266.0,1920.806
1920816.0,230.0,32.0,227.0,258.0,1920.816
1920826.0,233.0,32.0,224.0,258.0,1920.826
1920836.0,227.0,31.0,223.0,255.0,1920.836
1920846.0,226.0,32.0,221.0,260.0,1920.846
1920856.0,225.0,32.0,220.0,257.0,1920.856
1920866.0,231.0,33.0,227.0,259.0,1920.866
1920876.0,232.0,32.0,228.0,260.0,1920.876
1920886.0,225.0,32.0,222.0,244.0,1920.886
1920896.0,230.0,31.0,223.0,250.0,1920.896
1920906.0,230.0,32.0,226.0,251.0,1920.906
1920916.0,235.0,32.0,234.0,257.0,1920.916
1920926.0,234.0,33.0,227.0,258.0,1920.926
1920936.0,228.0,32.0,226.0,251.0,1920.936
1920946.0,235.0,32.0,224.0,253.0,1920.946
1920956.0,233.0,32.0,230.0,252.0,1920.956
1920966.0,240.0,31.0,240.0,260.0,1920.966
1920976.0,241.0,32.0,234.0,264.0,1920.976
1920986.0,235.0,32.0,235.0,252.0,1920.986
1920996.0,235.0,32.0,230.0,252.0,1920.996
1921006.0,235.0,32.0,233.0,247.0,1921.006
1921016.0,233.0,32.0,234.0,248.0,1921.016
1921026.0,239.0,32.0,227.0,254.0,1921.026
1921036.0,234.0,31.0,230.0,247.0,1921.036
1921046.0,234.0,32.0,225.0,249.0,1921.046
1921056.0,233.0,33.0,230.0,250.0,1921.056
1921067.0,238.0,32.0,236.0,248.0,1921.067
1921077.0,237.0,32.0,225.0,246.0,1921.077
1921087.0,230.0,32.0,229.0,239.0,1921.087
1921097.0,226.0,32.0,230.0,247.0,1921.097
1921107.0,227.0,32.0,233.0,249.0,1921.107
1921117.0,224.0,33.0,235.0,247.0,1921.117
1921127.0,222.0,32.0,222.0,238.0,1921.127
1921137.0,216.0,31.0,216.0,225.0,1921.137
1921147.0,225.0,32.0,225.0,238.0,1921.147
1921157.0,227.0,32.0,230.0,247.0,1921.157
1921167.0,230.0,32.0,236.0,245.0,1921.167
1921177.0,230.0,32.0,231.0,245.0,1921.177
1921187.0,222.0,32.0,229.0,232.0,1921.187
1921197.0,227.0,32.0,230.0,242.0,1921.197
1921207.0,233.0,32.0,238.0,251.0,1921.207
1921217.0,234.0,31.0,244.0,250.0,1921.217
1921227.0,228.0,32.0,231.0,248.0,1921.227
1921238.0,220.0,32.0,231.0,239.0,1921.238
1921248.0,227.0,33.0,240.0,253.0,1921.248
1921258.0,231.0,32.0,235.0,250.0,1921.258
1921268.0,229.0,32.0,238.0,242.0,1921.268
1921278.0,234.0,32.0,231.0,243.0,1921.278
1921288.0,225.0,31.0,230.0,235.0,1921.288
1921298.0,232.0,32.0,237.0,244.0,1921.298
1921308.0,236.0,33.0,234.0,248.0,1921.308
1921318.0,233.0,32.0,235.0,238.0,1921.318
1921328.0,232.0,32.0,230.0,243.0,1921.328
1921338.0,226.0,32.0,232.0,236.0,1921.338
1921348.0,230.0,32.0,240.0,249.0,1921.348
1921358.0,232.0,33.0,237.0,255.0,1921.358
1921368.0,230.0,32.0,245.0,257.0,1921.368
1921378.0,227.0,33.0,234.0,258.0,1921.378
1921388.0,223.0,32.0,233.0,248.0,1921.388
1921398.0,227.0,32.0,234.0,247.0,1921.398
1921408.0,235.0,33.0,236.0,253.0,1921.408
1921418.0,229.0,31.0,238.0,247.0,1921.418
1921428.0,228.0,32.0,230.0,245.0,1921.428
1921438.0,222.0,33.0,232.0,242.0,1921.438
1921448.0,229.0,32.0,239.0,248.0,1921.448
1921458.0,233.0,32.0,237.0,252.0,1921.458
1921468.0,227.0,32.0,239.0,243.0,1921.468
1921478.0,228.0,31.0,233.0,244.0,1921.478
1921488.0,225.0,32.0,235.0,240.0,1921.488
1921498.0,228.0,32.0,235.0,239.0,1921.498
1921508.0,231.0,33.0,238.0,246.0,1921.508
1921518.0,223.0,32.0,239.0,238.0,1921.518
1921528.0,222.0,33.0,232.0,238.0,1921.528
1921538.0,218.0,32.0,233.0,233.0,1921.538
1921548.0,225.0,33.0,240.0,243.0,1921.548
1921558.0,230.0,33.0,239.0,245.0,1921.558
1921568.0,222.0,34.0,242.0,239.0,1921.568
1921579.0,223.0,33.0,234.0,237.0,1921.579
1921589.0,221.0,34.0,239.0,239.0,1921.589
1921599.0,228.0,33.0,247.0,244.0,1921.599
1921609.0,227.0,34.0,236.0,242.0,1921.609
1921619.0,220.0,33.0,239.0,233.0,1921.619
1921629.0,223.0,34.0,236.0,239.0,1921.629
1921639.0,220.0,34.0,239.0,242.0,1921.639
1921649.0,221.0,34.0,244.0,244.0,1921.649
1921659.0,223.0,35.0,236.0,243.0,1921.659
1921669.0,218.0,34.0,240.0,239.0,1921.669
1921679.0,222.0,35.0,236.0,243.0,1921.679
1921689.0,223.0,35.0,241.0,246.0,1921.689
1921699.0,226.0,36.0,245.0,250.0,1921.699
1921709.0,226.0,36.0,238.0,251.0,1921.709
1921719.0,217.0,38.0,236.0,244.0,1921.719
1921729.0,219.0,39.0,232.0,247.0,1921.729
1921739.0,220.0,41.0,235.0,252.0,1921.739
1921750.0,221.0,40.0,236.0,248.0,1921.75
1921760.0,220.0,42.0,226.0,248.0,1921.76
1921770.0,214.0,42.0,226.0,238.0,1921.77
1921780.0,218.0,42.0,229.0,248.0,1921.78
1921790.0,225.0,43.0,235.0,252.0,1921.79
1921800.0,222.0,42.0,234.0,248.0,1921.8
1921810.0,219.0,42.0,226.0,245.0,1921.81
1921820.0,212.0,47.0,222.0,235.0,1921.82
1921830.0,218.0,44.0,227.0,244.0,1921.83
1921840.0,222.0,46.0,229.0,243.0,1921.84
1921850.0,220.0,43.0,228.0,237.0,1921.85
1921860.0,219.0,43.0,219.0,237.0,1921.86
1921870.0,212.0,41.0,216.0,229.0,1921.87
1921880.0,217.0,40.0,220.0,236.0,1921.88
1921890.0,222.0,40.0,227.0,242.0,1921.89
1921900.0,221.0,38.0,226.0,238.0,1921.9
1921910.0,219.0,38.0,218.0,238.0,1921.91
1921920.0,217.0,38.0,220.0,231.0,1921.92
1921930.0,218.0,38.0,220.0,238.0,1921.93
1921940.0,223.0,37.0,226.0,244.0,1921.94
1921950.0,221.0,37.0,226.0,239.0,1921.95
1921960.0,220.0,34.0,218.0,238.0,1921.96
1921970.0,215.0,34.0,217.0,231.0,1921.97
1921980.0,218.0,33.0,220.0,238.0,1921.98
1921990.0,224.0,33.0,225.0,244.0,1921.99
1922000.0,219.0,32.0,222.0,239.0,1922.0
1922010.0,217.0,32.0,217.0,241.0,1922.01
1922020.0,209.0,31.0,212.0,231.0,1922.02
1922030.0,215.0,30.0,218.0,240.0,1922.03
1922040.0,220.0,31.0,221.0,245.0,1922.04
1922050.0,218.0,31.0,222.0,243.0,1922.05
1922060.0,216.0,30.0,214.0,242.0,1922.06
1922070.0,208.0,29.0,210.0,233.0,1922.07
1922080.0,214.0,31.0,216.0,244.0,1922.08
1922091.0,222.0,30.0,222.0,249.0,1922.091
1922101.0,215.0,29.0,216.0,242.0,1922.101
1922111.0,216.0,30.0,213.0,242.0,1922.111
1922121.0,212.0,30.0,212.0,240.0,1922.121
1922131.0,220.0,29.0,218.0,245.0,1922.131
1922141.0,221.0,30.0,217.0,248.0,1922.141
1922151.0,215.0,28.0,210.0,239.0,1922.151
1922161.0,214.0,30.0,207.0,240.0,1922.161
1922171.0,212.0,29.0,207.0,240.0,1922.171
1922181.0,216.0,29.0,209.0,244.0,1922.181
1922191.0,220.0,29.0,212.0,246.0,1922.191
1922201.0,213.0,29.0,203.0,240.0,1922.201
1922211.0,214.0,29.0,203.0,240.0,1922.211
1922221.0,209.0,28.0,199.0,237.0,1922.221
1922231.0,217.0,29.0,207.0,244.0,1922.231
1922241.0,221.0,29.0,211.0,245.0,1922.241
1922251.0,214.0,29.0,200.0,238.0,1922.251
1922262.0,215.0,28.0,201.0,239.0,1922.262
1922272.0,215.0,30.0,203.0,243.0,1922.272
1922282.0,219.0,28.0,204.0,246.0,1922.282
1922292.0,219.0,29.0,204.0,244.0,1922.292
1922302.0,212.0,29.0,193.0,236.0,1922.302
1922312.0,214.0,29.0,198.0,242.0,1922.312
1922322.0,215.0,29.0,202.0,246.0,1922.322
1922332.0,217.0,29.0,200.0,248.0,1922.332
1922342.0,217.0,29.0,202.0,244.0,1922.342
1922352.0,212.0,28.0,192.0,240.0,1922.352
1922362.0,213.0,29.0,195.0,241.0,1922.362
1922372.0,217.0,29.0,201.0,246.0,1922.372
1922382.0,218.0,29.0,197.0,246.0,1922.382
1922392.0,220.0,29.0,206.0,247.0,1922.392
1922402.0,213.0,30.0,189.0,239.0,1922.402
1922412.0,215.0,28.0,194.0,242.0,1922.412
1922422.0,219.0,30.0,201.0,248.0,1922.422
1922432.0,220.0,29.0,198.0,248.0,1922.432
1922442.0,219.0,30.0,204.0,244.0,1922.442
1922452.0,211.0,29.0,186.0,237.0,1922.452
1922462.0,213.0,29.0,194.0,241.0,1922.462
1922472.0,218.0,30.0,204.0,246.0,1922.472
1922482.0,219.0,30.0,197.0,245.0,1922.482
1922492.0,218.0,30.0,209.0,243.0,1922.492
1922502.0,211.0,29.0,190.0,237.0,1922.502
1922512.0,212.0,30.0,199.0,241.0,1922.512
1922522.0,214.0,29.0,204.0,244.0,1922.522
1922532.0,218.0,30.0,201.0,246.0,1922.532
1922542.0,217.0,30.0,213.0,243.0,1922.542
1922552.0,209.0,30.0,195.0,237.0,1922.552
1922562.0,214.0,30.0,208.0,241.0,1922.562
1922572.0,214.0,31.0,212.0,245.0,1922.572
1922582.0,218.0,29.0,208.0,246.0,1922.582
1922592.0,217.0,31.0,222.0,244.0,1922.592
1922603.0,209.0,30.0,203.0,236.0,1922.603
1922613.0,213.0,31.0,213.0,242.0,1922.613
1922623.0,219.0,30.0,229.0,247.0,1922.623
1922633.0,214.0,30.0,210.0,243.0,1922.633
1922643.0,215.0,30.0,225.0,241.0,1922.643
1922653.0,209.0,31.0,209.0,236.0,1922.653
1922663.0,213.0,31.0,222.0,244.0,1922.663
1922673.0,219.0,31.0,237.0,248.0,1922.673
1922683.0,214.0,31.0,218.0,242.0,1922.683
1922693.0,216.0,31.0,237.0,242.0,1922.693
1922703.0,208.0,31.0,217.0,235.0,1922.703
1922713.0,214.0,31.0,230.0,245.0,1922.713
1922723.0,219.0,31.0,245.0,248.0,1922.723
1922733.0,217.0,30.0,227.0,245.0,1922.733
1922743.0,215.0,31.0,245.0,243.0,1922.743
1922753.0,209.0,31.0,227.0,235.0,1922.753
1922763.0,215.0,31.0,238.0,245.0,1922.763
1922774.0,220.0,31.0,254.0,247.0,1922.774
1922784.0,214.0,32.0,231.0,243.0,1922.784
1922794.0,214.0,31.0,248.0,242.0,1922.794
1922804.0,213.0,31.0,243.0,242.0,1922.804
1922814.0,219.0,30.0,243.0,248.0,1922.814
1922824.0,221.0,31.0,260.0,248.0,1922.824
1922834.0,214.0,31.0,236.0,241.0,1922.834
1922844.0,214.0,32.0,252.0,242.0,1922.844
1922854.0,214.0,32.0,251.0,243.0,1922.854
1922864.0,217.0,30.0,250.0,247.0,1922.864
1922874.0,219.0,32.0,269.0,247.0,1922.874
1922884.0,212.0,31.0,245.0,240.0,1922.884
1922894.0,214.0,31.0,260.0,241.0,1922.894
1922904.0,209.0,31.0,251.0,238.0,1922.904
1922914.0,217.0,33.0,256.0,248.0,1922.914
1922924.0,220.0,32.0,273.0,246.0,1922.924
1922934.0,211.0,31.0,248.0,239.0,1922.934
1922944.0,215.0,32.0,267.0,241.0,1922.944
1922954.0,210.0,32.0,256.0,240.0,1922.954
1922964.0,217.0,32.0,259.0,246.0,1922.964
1922974.0,219.0,33.0,277.0,247.0,1922.974
1922984.0,210.0,32.0,250.0,238.0,1922.984
1922994.0,214.0,32.0,269.0,240.0,1922.994
1923004.0,211.0,32.0,260.0,240.0,1923.004
1923014.0,217.0,31.0,259.0,246.0,1923.014
1923024.0,218.0,32.0,277.0,244.0,1923.024
1923034.0,212.0,32.0,252.0,241.0,1923.034
1923044.0,213.0,32.0,267.0,241.0,1923.044
1923054.0,212.0,32.0,261.0,242.0,1923.054
1923064.0,217.0,32.0,257.0,247.0,1923.064
1923074.0,221.0,33.0,276.0,248.0,1923.074
1923084.0,212.0,32.0,249.0,240.0,1923.084
1923094.0,213.0,32.0,264.0,241.0,1923.094
1923104.0,213.0,34.0,262.0,245.0,1923.104
1923115.0,217.0,32.0,255.0,247.0,1923.115
1923125.0,217.0,33.0,272.0,245.0,1923.125
1923135.0,209.0,32.0,247.0,238.0,1923.135
1923145.0,211.0,32.0,256.0,243.0,1923.145
1923155.0,218.0,32.0,266.0,249.0,1923.155
1923165.0,217.0,33.0,250.0,248.0,1923.165
1923175.0,217.0,32.0,267.0,244.0,1923.175
1923185.0,209.0,32.0,241.0,236.0,1923.185
1923195.0,213.0,33.0,252.0,241.0,1923.195
1923205.0,216.0,31.0,257.0,244.0,1923.205
1923215.0,216.0,32.0,245.0,245.0,1923.215
1923225.0,217.0,32.0,261.0,243.0,1923.225
1923235.0,209.0,32.0,237.0,235.0,1923.235
1923245.0,213.0,32.0,250.0,240.0,1923.245
1923255.0,216.0,32.0,255.0,244.0,1923.255
1923265.0,217.0,32.0,242.0,245.0,1923.265
1923275.0,216.0,32.0,256.0,242.0,1923.275
1923286.0,208.0,32.0,235.0,235.0,1923.286
1923296.0,214.0,33.0,245.0,244.0,1923.296
1923306.0,219.0,32.0,257.0,249.0,1923.306
1923316.0,213.0,32.0,235.0,243.0,1923.316
1923326.0,214.0,32.0,249.0,243.0,1923.326
1923336.0,207.0,32.0,231.0,236.0,1923.336
1923346.0,214.0,32.0,241.0,245.0,1923.346
1923356.0,219.0,33.0,254.0,249.0,1923.356
1923366.0,212.0,32.0,231.0,242.0,1923.366
1923376.0,214.0,32.0,247.0,243.0,1923.376
1923386.0,206.0,32.0,228.0,236.0,1923.386
1923396.0,214.0,32.0,238.0,245.0,1923.396
1923406.0,218.0,33.0,249.0,248.0,1923.406
1923416.0,213.0,32.0,229.0,244.0,1923.416
1923426.0,213.0,33.0,242.0,243.0,1923.426
1923436.0,206.0,32.0,224.0,236.0,1923.436
1923446.0,214.0,32.0,232.0,246.0,1923.446
1923456.0,219.0,33.0,242.0,247.0,1923.456
1923466.0,214.0,31.0,222.0,244.0,1923.466
1923476.0,214.0,33.0,234.0,241.0,1923.476
1923486.0,207.0,33.0,219.0,239.0,1923.486
1923496.0,215.0,32.0,227.0,246.0,1923.496
1923506.0,218.0,32.0,236.0,247.0,1923.506
1923516.0,213.0,32.0,219.0,243.0,1923.516
1923526.0,214.0,31.0,228.0,242.0,1923.526
1923536.0,208.0,32.0,218.0,239.0,1923.536
1923546.0,213.0,32.0,222.0,244.0,1923.546
1923556.0,219.0,33.0,232.0,248.0,1923.556
1923566.0,214.0,32.0,214.0,242.0,1923.566
1923576.0,215.0,32.0,222.0,242.0,1923.576
1923586.0,209.0,32.0,209.0,236.0,1923.586
1923596.0,215.0,32.0,217.0,246.0,1923.596
1923606.0,221.0,33.0,227.0,248.0,1923.606
1923616.0,213.0,33.0,208.0,244.0,1923.616
1923627.0,213.0,32.0,216.0,242.0,1923.627
1923637.0,211.0,32.0,209.0,242.0,1923.637
1923647.0,217.0,33.0,212.0,248.0,1923.647
1923657.0,218.0,33.0,219.0,246.0,1923.657
1923667.0,209.0,32.0,199.0,240.0,1923.667
1923677.0,212.0,33.0,208.0,244.0,1923.677
1923687.0,211.0,33.0,205.0,244.0,1923.687
1923697.0,216.0,32.0,206.0,249.0,1923.697
1923707.0,217.0,33.0,213.0,246.0,1923.707
1923717.0,212.0,31.0,198.0,243.0,1923.717
1923727.0,212.0,32.0,202.0,243.0,1923.727
1923737.0,213.0,32.0,202.0,245.0,1923.737
1923747.0,217.0,32.0,201.0,249.0,1923.747
1923757.0,219.0,32.0,209.0,247.0,1923.757
1923767.0,211.0,32.0,192.0,242.0,1923.767
1923777.0,213.0,32.0,198.0,242.0,1923.777
1923787.0,214.0,33.0,199.0,246.0,1923.787
1923798.0,217.0,32.0,197.0,248.0,1923.798
1923808.0,216.0,34.0,203.0,245.0,1923.808
1923818.0,208.0,32.0,187.0,238.0,1923.818
1923828.0,211.0,32.0,194.0,243.0,1923.828
1923838.0,218.0,32.0,205.0,249.0,1923.838
1923848.0,216.0,31.0,196.0,248.0,1923.848
1923858.0,215.0,32.0,199.0,245.0,1923.858
1923868.0,208.0,32.0,186.0,237.0,1923.868
1923878.0,213.0,32.0,193.0,244.0,1923.878
1923888.0,215.0,32.0,199.0,247.0,1923.888
1923898.0,215.0,32.0,195.0,247.0,1923.898
1923908.0,215.0,31.0,198.0,243.0,1923.908
1923918.0,207.0,32.0,185.0,237.0,1923.918
1923928.0,213.0,32.0,192.0,241.0,1923.928
1923938.0,217.0,33.0,200.0,248.0,1923.938
1923948.0,216.0,32.0,193.0,246.0,1923.948
1923958.0,216.0,32.0,196.0,242.0,1923.958
1923968.0,210.0,32.0,188.0,238.0,1923.968
1923978.0,212.0,31.0,191.0,242.0,1923.978
1923988.0,218.0,32.0,200.0,248.0,1923.988
1923998.0,215.0,33.0,194.0,246.0,1923.998
1924008.0,214.0,32.0,196.0,242.0,1924.008
1924018.0,209.0,31.0,187.0,238.0,1924.018
1924028.0,212.0,32.0,193.0,242.0,1924.028
1924038.0,218.0,31.0,202.0,248.0,1924.038
1924048.0,214.0,32.0,193.0,245.0,1924.048
1924058.0,217.0,32.0,197.0,244.0,1924.058
1924068.0,208.0,33.0,187.0,237.0,1924.068
1924078.0,213.0,32.0,193.0,243.0,1924.078
1924088.0,217.0,33.0,201.0,248.0,1924.088
1924098.0,217.0,32.0,198.0,247.0,1924.098
1924108.0,214.0,32.0,197.0,243.0,1924.108
1924118.0,208.0,31.0,188.0,238.0,1924.118
1924128.0,214.0,32.0,197.0,247.0,1924.128
1924139.0,218.0,32.0,203.0,248.0,1924.139
1924149.0,213.0,32.0,196.0,245.0,1924.149
1924159.0,214.0,32.0,197.0,243.0,1924.159
1924169.0,208.0,32.0,193.0,241.0,1924.169
1924179.0,216.0,32.0,204.0,251.0,1924.179
1924189.0,218.0,33.0,205.0,251.0,1924.189
1924199.0,213.0,33.0,199.0,246.0,1924.199
1924209.0,213.0,32.0,198.0,244.0,1924.209
1924219.0,209.0,32.0,197.0,243.0,1924.219
1924229.0,216.0,31.0,203.0,249.0,1924.229
1924239.0,218.0,32.0,206.0,251.0,1924.239
1924249.0,213.0,32.0,199.0,244.0,1924.249
1924259.0,213.0,33.0,198.0,244.0,1924.259
1924269.0,207.0,32.0,193.0,238.0,1924.269
1924279.0,215.0,32.0,204.0,249.0,1924.279
1924289.0,219.0,33.0,205.0,249.0,1924.289
1924299.0,212.0,31.0,199.0,243.0,1924.299
1924310.0,212.0,32.0,199.0,243.0,1924.31
1924320.0,211.0,33.0,202.0,245.0,1924.32
1924330.0,217.0,32.0,208.0,250.0,1924.33
1924340.0,218.0,32.0,204.0,246.0,1924.34
1924350.0,210.0,32.0,200.0,240.0,1924.35
1924360.0,214.0,31.0,201.0,242.0,1924.36
1924370.0,214.0,33.0,205.0,245.0,1924.37
1924380.0,217.0,32.0,210.0,249.0,1924.38
1924390.0,217.0,32.0,205.0,245.0,1924.39
1924400.0,212.0,32.0,204.0,241.0,1924.4
1924410.0,213.0,32.0,203.0,242.0,1924.41
1924420.0,216.0,32.0,208.0,246.0,1924.42
1924430.0,217.0,32.0,212.0,248.0,1924.43
1924440.0,219.0,32.0,209.0,247.0,1924.44
1924450.0,210.0,33.0,205.0,241.0,1924.45
1924460.0,212.0,32.0,203.0,242.0,1924.46
1924470.0,215.0,33.0,209.0,247.0,1924.47
1924480.0,217.0,32.0,214.0,248.0,1924.48
1924490.0,218.0,33.0,210.0,245.0,1924.49
1924500.0,209.0,32.0,208.0,239.0,1924.5
1924510.0,212.0,33.0,207.0,242.0,1924.51
1924520.0,216.0,32.0,215.0,247.0,1924.52
1924530.0,217.0,32.0,218.0,248.0,1924.53
1924540.0,217.0,32.0,212.0,245.0,1924.54
1924550.0,210.0,31.0,211.0,239.0,1924.55
1924560.0,211.0,32.0,210.0,241.0,1924.56
1924570.0,213.0,32.0,215.0,244.0,1924.57
1924580.0,217.0,33.0,221.0,248.0,1924.58
1924590.0,217.0,32.0,215.0,244.0,1924.59
1924600.0,209.0,32.0,214.0,238.0,1924.6
1924610.0,214.0,32.0,215.0,241.0,1924.61
1924620.0,214.0,32.0,219.0,244.0,1924.62
1924630.0,216.0,32.0,224.0,247.0,1924.63
1924640.0,216.0,33.0,217.0,246.0,1924.64
1924651.0,208.0,32.0,216.0,237.0,1924.651
1924661.0,212.0,32.0,217.0,242.0,1924.661
1924671.0,218.0,33.0,224.0,248.0,1924.671
1924681.0,214.0,31.0,224.0,245.0,1924.681
1924691.0,214.0,33.0,217.0,242.0,1924.691
1924701.0,207.0,32.0,217.0,236.0,1924.701
1924711.0,211.0,32.0,220.0,244.0,1924.711
1924721.0,218.0,32.0,225.0,249.0,1924.721
1924731.0,213.0,32.0,225.0,244.0,1924.731
1924741.0,216.0,33.0,220.0,244.0,1924.741
1924751.0,207.0,32.0,218.0,237.0,1924.751
1924761.0,213.0,32.0,224.0,245.0,1924.761
1924771.0,219.0,34.0,227.0,249.0,1924.771
1924781.0,216.0,32.0,231.0,247.0,1924.781
1924791.0,216.0,32.0,223.0,243.0,1924.791
1924801.0,209.0,33.0,222.0,237.0,1924.801
1924811.0,214.0,33.0,228.0,246.0,1924.811
1924822.0,219.0,33.0,228.0,249.0,1924.822
1924832.0,214.0,33.0,230.0,245.0,1924.832
1924842.0,214.0,33.0,223.0,242.0,1924.842
1924852.0,211.0,33.0,226.0,242.0,1924.852
1924862.0,218.0,33.0,235.0,249.0,1924.862
1924872.0,220.0,33.0,231.0,248.0,1924.872
1924882.0,213.0,32.0,232.0,243.0,1924.882
1924892.0,214.0,33.0,226.0,243.0,1924.892
1924902.0,211.0,33.0,230.0,243.0,1924.902
1924912.0,215.0,32.0,234.0,247.0,1924.912
1924922.0,219.0,33.0,232.0,249.0,1924.922
1924932.0,213.0,33.0,234.0,242.0,1924.932
1924942.0,214.0,32.0,228.0,243.0,1924.942
1924952.0,208.0,32.0,230.0,239.0,1924.952
1924962.0,215.0,33.0,237.0,249.0,1924.962
1924972.0,219.0,33.0,233.0,248.0,1924.972
1924982.0,212.0,32.0,236.0,242.0,1924.982
1924992.0,215.0,33.0,230.0,243.0,1924.992
1925002.0,209.0,32.0,232.0,240.0,1925.002
1925012.0,217.0,32.0,240.0,249.0,1925.012
1925022.0,219.0,33.0,234.0,248.0,1925.022
1925032.0,211.0,32.0,236.0,241.0,1925.032
1925042.0,214.0,32.0,231.0,242.0,1925.042
1925052.0,209.0,33.0,233.0,241.0,1925.052
1925062.0,217.0,33.0,242.0,249.0,1925.062
1925072.0,218.0,33.0,234.0,248.0,1925.072
1925082.0,212.0,32.0,239.0,245.0,1925.082
1925092.0,213.0,34.0,231.0,245.0,1925.092
1925102.0,210.0,32.0,234.0,244.0,1925.102
1925112.0,216.0,33.0,240.0,250.0,1925.112
1925122.0,220.0,33.0,236.0,250.0,1925.122
1925132.0,211.0,32.0,238.0,245.0,1925.132
1925142.0,213.0,33.0,231.0,243.0,1925.142
1925152.0,211.0,33.0,235.0,244.0,1925.152
1925163.0,216.0,32.0,242.0,248.0,1925.163
1925173.0,217.0,33.0,232.0,245.0,1925.173
1925183.0,209.0,32.0,237.0,239.0,1925.183
1925193.0,212.0,33.0,232.0,241.0,1925.193
1925203.0,216.0,33.0,240.0,247.0,1925.203
1925213.0,216.0,32.0,244.0,249.0,1925.213
1925223.0,218.0,33.0,234.0,246.0,1925.223
1925233.0,210.0,32.0,238.0,239.0,1925.233
1925243.0,212.0,33.0,235.0,243.0,1925.243
1925253.0,215.0,33.0,240.0,245.0,1925.253
1925263.0,216.0,32.0,244.0,248.0,1925.263
1925273.0,217.0,32.0,234.0,245.0,1925.273
1925283.0,209.0,33.0,238.0,238.0,1925.283
1925293.0,213.0,32.0,234.0,241.0,1925.293
1925303.0,215.0,33.0,240.0,246.0,1925.303
1925313.0,217.0,32.0,246.0,247.0,1925.313
1925323.0,216.0,33.0,235.0,244.0,1925.323
1925334.0,208.0,33.0,238.0,237.0,1925.334
1925344.0,213.0,33.0,238.0,244.0,1925.344
1925354.0,219.0,33.0,241.0,248.0,1925.354
1925364.0,214.0,32.0,244.0,245.0,1925.364
1925374.0,214.0,33.0,236.0,243.0,1925.374
1925384.0,209.0,31.0,238.0,237.0,1925.384
1925394.0,214.0,32.0,240.0,245.0,1925.394
1925404.0,220.0,33.0,242.0,249.0,1925.404
1925414.0,214.0,33.0,245.0,245.0,1925.414
1925424.0,215.0,32.0,237.0,244.0,1925.424
1925434.0,207.0,32.0,239.0,238.0,1925.434
1925444.0,216.0,33.0,243.0,247.0,1925.444
1925454.0,220.0,33.0,242.0,249.0,1925.454
1925464.0,215.0,32.0,247.0,248.0,1925.464
1925474.0,215.0,32.0,237.0,245.0,1925.474
1925484.0,208.0,32.0,238.0,238.0,1925.484
1925494.0,214.0,33.0,244.0,248.0,1925.494
1925504.0,218.0,33.0,246.0,250.0,1925.504
1925514.0,215.0,31.0,248.0,248.0,1925.514
1925524.0,214.0,33.0,237.0,245.0,1925.524
1925534.0,206.0,33.0,240.0,240.0,1925.534
1925544.0,215.0,33.0,246.0,248.0,1925.544
1925554.0,217.0,32.0,246.0,250.0,1925.554
1925564.0,213.0,33.0,249.0,247.0,1925.564
1925574.0,214.0,33.0,239.0,245.0,1925.574
1925584.0,206.0,33.0,242.0,241.0,1925.584
1925594.0,212.0,32.0,244.0,246.0,1925.594
1925604.0,219.0,33.0,247.0,251.0,1925.604
1925614.0,214.0,32.0,249.0,246.0,1925.614
1925624.0,213.0,32.0,239.0,244.0,1925.624
1925634.0,207.0,32.0,242.0,238.0,1925.634
1925644.0,212.0,33.0,242.0,247.0,1925.644
1925654.0,218.0,33.0,244.0,249.0,1925.654
1925664.0,214.0,33.0,247.0,245.0,1925.664
1925675.0,213.0,33.0,239.0,243.0,1925.675
1925685.0,210.0,32.0,242.0,241.0,1925.685
1925695.0,218.0,33.0,249.0,248.0,1925.695
1925705.0,219.0,33.0,240.0,246.0,1925.705
1925715.0,211.0,32.0,244.0,240.0,1925.715
1925725.0,214.0,33.0,237.0,243.0,1925.725
1925735.0,211.0,33.0,241.0,243.0,1925.735
1925745.0,218.0,32.0,248.0,248.0,1925.745
1925755.0,219.0,33.0,239.0,246.0,1925.755
1925765.0,213.0,33.0,246.0,242.0,1925.765
1925775.0,214.0,33.0,238.0,242.0,1925.775
1925785.0,213.0,32.0,242.0,242.0,1925.785
1925795.0,218.0,33.0,249.0,248.0,1925.795
1925805.0,220.0,32.0,242.0,247.0,1925.805
1925815.0,212.0,32.0,245.0,240.0,1925.815
1925825.0,214.0,32.0,239.0,241.0,1925.825
1925835.0,214.0,32.0,242.0,244.0,1925.835
1925846.0,217.0,32.0,248.0,248.0,1925.846
1925856.0,217.0,33.0,237.0,246.0,1925.856
1925866.0,210.0,32.0,241.0,238.0,1925.866
1925876.0,212.0,32.0,237.0,241.0,1925.876
1925886.0,219.0,33.0,244.0,248.0,1925.886
1925896.0,218.0,32.0,247.0,246.0,1925.896
1925906.0,216.0,32.0,236.0,243.0,1925.906
1925916.0,208.0,33.0,240.0,237.0,1925.916
1925926.0,213.0,33.0,238.0,243.0,1925.926
1925936.0,216.0,32.0,243.0,246.0,1925.936
1925946.0,216.0,32.0,249.0,247.0,1925.946
1925956.0,217.0,33.0,238.0,244.0,1925.956
1925966.0,209.0,32.0,240.0,237.0,1925.966
1925976.0,212.0,32.0,237.0,241.0,1925.976
1925986.0,216.0,32.0,245.0,247.0,1925.986
1925996.0,216.0,32.0,247.0,246.0,1925.996
1926006.0,215.0,33.0,236.0,243.0,1926.006
1926016.0,210.0,32.0,243.0,238.0,1926.016
1926026.0,213.0,33.0,237.0,241.0,1926.026
1926036.0,218.0,33.0,244.0,247.0,1926.036
1926046.0,216.0,33.0,247.0,246.0,1926.046
1926056.0,216.0,33.0,236.0,243.0,1926.056
1926066.0,210.0,32.0,239.0,237.0,1926.066
1926076.0,213.0,32.0,236.0,241.0,1926.076
1926086.0,219.0,33.0,243.0,248.0,1926.086
1926096.0,215.0,32.0,244.0,245.0,1926.096
1926106.0,218.0,33.0,235.0,244.0,1926.106
1926116.0,209.0,34.0,237.0,237.0,1926.116
1926126.0,212.0,32.0,235.0,242.0,1926.126
1926136.0,218.0,33.0,240.0,249.0,1926.136
1926146.0,215.0,32.0,242.0,247.0,1926.146
1926156.0,215.0,33.0,232.0,244.0,1926.156
1926166.0,208.0,32.0,233.0,236.0,1926.166
1926176.0,212.0,33.0,233.0,243.0,1926.176
1926187.0,219.0,33.0,238.0,247.0,1926.187
1926197.0,215.0,32.0,239.0,242.0,1926.197
1926207.0,215.0,33.0,230.0,242.0,1926.207
1926217.0,208.0,33.0,231.0,237.0,1926.217
1926227.0,216.0,33.0,238.0,246.0,1926.227
1926237.0,219.0,32.0,238.0,248.0,1926.237
1926247.0,214.0,33.0,238.0,243.0,1926.247
1926257.0,215.0,32.0,230.0,242.0,1926.257
1926267.0,209.0,33.0,231.0,239.0,1926.267
1926277.0,215.0,32.0,235.0,243.0,1926.277
1926287.0,220.0,33.0,236.0,247.0,1926.287
1926297.0,213.0,33.0,237.0,242.0,1926.297
1926307.0,214.0,34.0,230.0,242.0,1926.307
1926317.0,207.0,32.0,230.0,236.0,1926.317
1926327.0,214.0,32.0,235.0,245.0,1926.327
1926337.0,220.0,33.0,236.0,248.0,1926.337
1926347.0,212.0,32.0,236.0,242.0,1926.347
1926358.0,213.0,33.0,230.0,242.0,1926.358
1926368.0,210.0,32.0,234.0,244.0,1926.368
1926378.0,215.0,32.0,240.0,249.0,1926.378
1926388.0,217.0,32.0,231.0,246.0,1926.388
1926398.0,207.0,32.0,233.0,239.0,1926.398
1926408.0,212.0,33.0,228.0,242.0,1926.408
1926418.0,211.0,32.0,232.0,243.0,1926.418
1926428.0,216.0,32.0,237.0,247.0,1926.428
1926438.0,216.0,34.0,227.0,243.0,1926.438
1926448.0,210.0,32.0,232.0,240.0,1926.448
1926458.0,211.0,33.0,226.0,240.0,1926.458
1926468.0,214.0,33.0,232.0,243.0,1926.468
1926478.0,216.0,32.0,236.0,246.0,1926.478
1926488.0,218.0,33.0,230.0,246.0,1926.488
1926498.0,211.0,32.0,230.0,239.0,1926.498
1926508.0,212.0,32.0,225.0,240.0,1926.508
1926518.0,214.0,32.0,231.0,244.0,1926.518
1926528.0,216.0,32.0,235.0,246.0,1926.528
1926538.0,218.0,33.0,228.0,245.0,1926.538
1926548.0,209.0,33.0,229.0,237.0,1926.548
1926558.0,210.0,33.0,225.0,240.0,1926.558
1926568.0,214.0,33.0,231.0,245.0,1926.568
1926578.0,215.0,32.0,234.0,246.0,1926.578
1926588.0,217.0,33.0,227.0,244.0,1926.588
1926598.0,210.0,32.0,229.0,237.0,1926.598
1926608.0,210.0,33.0,225.0,238.0,1926.608
1926618.0,210.0,33.0,229.0,239.0,1926.618
1926628.0,216.0,33.0,235.0,247.0,1926.628
1926638.0,217.0,32.0,227.0,243.0,1926.638
1926648.0,207.0,32.0,228.0,235.0,1926.648
1926658.0,212.0,33.0,225.0,239.0,1926.658
1926668.0,212.0,33.0,230.0,240.0,1926.668
1926678.0,216.0,33.0,237.0,244.0,1926.678
1926688.0,216.0,33.0,227.0,243.0,1926.688
1926699.0,208.0,33.0,230.0,234.0,1926.699
1926709.0,211.0,33.0,227.0,238.0,1926.709
1926719.0,217.0,33.0,234.0,245.0,1926.719
1926729.0,215.0,32.0,236.0,241.0,1926.729
1926739.0,214.0,33.0,227.0,239.0,1926.739
1926749.0,208.0,32.0,229.0,233.0,1926.749
1926759.0,211.0,33.0,228.0,239.0,1926.759
1926769.0,218.0,33.0,235.0,245.0,1926.769
1926779.0,213.0,32.0,236.0,240.0,1926.779
1926789.0,216.0,33.0,228.0,240.0,1926.789
1926799.0,207.0,32.0,226.0,233.0,1926.799
1926809.0,211.0,33.0,228.0,239.0,1926.809
1926819.0,217.0,34.0,233.0,247.0,1926.819
1926829.0,214.0,32.0,234.0,244.0,1926.829
1926839.0,215.0,32.0,225.0,241.0,1926.839
1926849.0,206.0,33.0,224.0,233.0,1926.849
1926859.0,212.0,33.0,228.0,241.0,1926.859
1926870.0,218.0,33.0,231.0,245.0,1926.87
1926880.0,212.0,32.0,231.0,240.0,1926.88
1926890.0,213.0,32.0,223.0,238.0,1926.89
1926900.0,208.0,32.0,224.0,236.0,1926.9
1926910.0,215.0,33.0,232.0,243.0,1926.91
1926920.0,219.0,32.0,230.0,244.0,1926.92
1926930.0,211.0,32.0,230.0,238.0,1926.93
1926940.0,213.0,33.0,222.0,239.0,1926.94
1926950.0,210.0,33.0,224.0,237.0,1926.95
1926960.0,213.0,32.0,228.0,241.0,1926.96
1926970.0,218.0,33.0,228.0,245.0,1926.97
1926980.0,212.0,32.0,229.0,237.0,1926.98
1926990.0,212.0,32.0,222.0,238.0,1926.99
1927000.0,207.0,32.0,222.0,232.0,1927.0
1927010.0,215.0,33.0,232.0,245.0,1927.01
1927020.0,219.0,32.0,228.0,245.0,1927.02
1927030.0,211.0,32.0,228.0,236.0,1927.03
1927040.0,213.0,32.0,225.0,240.0,1927.04
1927050.0,207.0,31.0,223.0,235.0,1927.05
1927060.0,214.0,32.0,231.0,243.0,1927.06
1927070.0,219.0,33.0,228.0,246.0,1927.07
1927080.0,210.0,32.0,227.0,236.0,1927.08
1927090.0,213.0,32.0,223.0,239.0,1927.09
1927100.0,207.0,32.0,223.0,236.0,1927.1
1927110.0,215.0,31.0,232.0,245.0,1927.11
1927120.0,218.0,32.0,226.0,246.0,1927.12
1927130.0,213.0,31.0,229.0,239.0,1927.13
1927140.0,213.0,33.0,222.0,240.0,1927.14
1927150.0,209.0,32.0,223.0,236.0,1927.15
1927160.0,215.0,32.0,230.0,243.0,1927.16
1927170.0,219.0,33.0,228.0,245.0,1927.17
1927180.0,212.0,31.0,227.0,237.0,1927.18
1927190.0,214.0,32.0,221.0,238.0,1927.19
1927200.0,210.0,33.0,224.0,237.0,1927.2
1927211.0,216.0,32.0,231.0,243.0,1927.211
1927221.0,218.0,32.0,224.0,242.0,1927.221
1927231.0,209.0,32.0,225.0,233.0,1927.231
1927241.0,211.0,32.0,221.0,236.0,1927.241
1927251.0,215.0,32.0,228.0,243.0,1927.251
1927261.0,214.0,32.0,230.0,243.0,1927.261
1927271.0,217.0,34.0,222.0,241.0,1927.271
1927281.0,208.0,32.0,222.0,232.0,1927.281
1927291.0,209.0,33.0,220.0,237.0,1927.291
1927301.0,212.0,32.0,225.0,240.0,1927.301
1927311.0,215.0,32.0,228.0,242.0,1927.311
1927321.0,216.0,33.0,220.0,241.0,1927.321
1927331.0,208.0,33.0,222.0,233.0,1927.331
1927341.0,211.0,32.0,220.0,238.0,1927.341
1927351.0,213.0,32.0,225.0,241.0,1927.351
1927361.0,216.0,32.0,230.0,243.0,1927.361
1927371.0,217.0,31.0,222.0,241.0,1927.371
1927382.0,207.0,32.0,221.0,232.0,1927.382
1927392.0,211.0,32.0,222.0,239.0,1927.392
1927402.0,219.0,33.0,227.0,244.0,1927.402
1927412.0,214.0,32.0,228.0,238.0,1927.412
1927422.0,214.0,33.0,221.0,238.0,1927.422
1927432.0,208.0,31.0,222.0,231.0,1927.432
1927442.0,212.0,32.0,226.0,239.0,1927.442
1927452.0,219.0,33.0,229.0,245.0,1927.452
1927462.0,214.0,33.0,230.0,240.0,1927.462
1927472.0,215.0,32.0,224.0,241.0,1927.472
1927482.0,206.0,32.0,223.0,232.0,1927.482
1927492.0,213.0,33.0,227.0,242.0,1927.492
1927502.0,218.0,33.0,230.0,247.0,1927.502
1927512.0,215.0,32.0,232.0,242.0,1927.512
1927522.0,214.0,33.0,223.0,242.0,1927.522
1927532.0,207.0,32.0,223.0,232.0,1927.532
1927542.0,214.0,33.0,229.0,242.0,1927.542
1927552.0,218.0,33.0,231.0,246.0,1927.552
1927562.0,216.0,31.0,232.0,242.0,1927.562
1927572.0,215.0,32.0,224.0,241.0,1927.572
1927582.0,207.0,32.0,223.0,234.0,1927.582
1927592.0,215.0,32.0,231.0,243.0,1927.592
1927602.0,219.0,32.0,232.0,245.0,1927.602
1927612.0,214.0,32.0,232.0,241.0,1927.612
1927622.0,215.0,32.0,225.0,240.0,1927.622
1927632.0,206.0,33.0,224.0,235.0,1927.632
1927642.0,212.0,32.0,227.0,239.0,1927.642
1927652.0,219.0,34.0,231.0,246.0,1927.652
1927662.0,214.0,32.0,232.0,240.0,1927.662
1927672.0,214.0,33.0,224.0,239.0,1927.672
1927682.0,207.0,32.0,225.0,232.0,1927.682
1927692.0,214.0,32.0,228.0,240.0,1927.692
1927702.0,218.0,32.0,231.0,244.0,1927.702
1927712.0,213.0,32.0,231.0,239.0,1927.712
1927723.0,214.0,33.0,224.0,240.0,1927.723
1927733.0,208.0,32.0,225.0,237.0,1927.733
1927743.0,215.0,33.0,233.0,245.0,1927.743
1927753.0,218.0,33.0,228.0,245.0,1927.753
1927763.0,208.0,33.0,226.0,236.0,1927.763
1927773.0,213.0,32.0,222.0,239.0,1927.773
1927783.0,208.0,33.0,224.0,238.0,1927.783
1927793.0,214.0,32.0,232.0,245.0,1927.793
1927803.0,217.0,33.0,225.0,244.0,1927.803
1927813.0,212.0,32.0,229.0,239.0,1927.813
1927823.0,212.0,33.0,222.0,240.0,1927.823
1927833.0,209.0,33.0,224.0,239.0,1927.833
1927843.0,215.0,33.0,231.0,246.0,1927.843
1927853.0,218.0,33.0,227.0,246.0,1927.853
1927863.0,209.0,32.0,227.0,239.0,1927.863
1927873.0,212.0,32.0,223.0,240.0,1927.873
1927883.0,210.0,31.0,225.0,241.0,1927.883
1927894.0,214.0,32.0,230.0,245.0,1927.894
1927904.0,217.0,33.0,223.0,243.0,1927.904
1927914.0,206.0,32.0,223.0,235.0,1927.914
1927924.0,210.0,32.0,222.0,239.0,1927.924
1927934.0,215.0,33.0,229.0,247.0,1927.934
1927944.0,215.0,31.0,232.0,245.0,1927.944
1927954.0,215.0,33.0,223.0,244.0,1927.954
1927964.0,206.0,32.0,223.0,236.0,1927.964
1927974.0,210.0,33.0,222.0,242.0,1927.974
1927984.0,213.0,32.0,227.0,244.0,1927.984
1927994.0,215.0,32.0,231.0,246.0,1927.994
1928004.0,216.0,33.0,224.0,243.0,1928.004
1928014.0,207.0,32.0,224.0,235.0,1928.014
1928024.0,211.0,32.0,222.0,239.0,1928.024
1928034.0,214.0,33.0,229.0,245.0,1928.034
1928044.0,215.0,32.0,232.0,244.0,1928.044
1928054.0,215.0,32.0,223.0,242.0,1928.054
1928064.0,208.0,32.0,227.0,238.0,1928.064
1928074.0,211.0,32.0,223.0,239.0,1928.074
1928084.0,215.0,33.0,230.0,245.0,1928.084
1928094.0,214.0,32.0,233.0,244.0,1928.094
1928104.0,215.0,33.0,224.0,242.0,1928.104
1928114.0,208.0,31.0,228.0,237.0,1928.114
1928124.0,210.0,32.0,224.0,240.0,1928.124
1928134.0,217.0,31.0,233.0,248.0,1928.134
1928144.0,213.0,32.0,234.0,246.0,1928.144
1928154.0,217.0,32.0,227.0,245.0,1928.154
1928164.0,207.0,33.0,229.0,238.0,1928.164
1928174.0,210.0,32.0,226.0,241.0,1928.174
1928184.0,216.0,32.0,232.0,248.0,1928.184
1928194.0,215.0,32.0,236.0,247.0,1928.194
1928204.0,216.0,31.0,226.0,244.0,1928.204
1928214.0,207.0,31.0,228.0,236.0,1928.214
1928224.0,211.0,32.0,228.0,242.0,1928.224
1928235.0,217.0,32.0,235.0,248.0,1928.235
1928245.0,214.0,32.0,236.0,243.0,1928.245
1928255.0,215.0,32.0,229.0,242.0,1928.255
1928265.0,207.0,31.0,229.0,236.0,1928.265
1928275.0,214.0,32.0,237.0,247.0,1928.275
1928285.0,218.0,32.0,236.0,248.0,1928.285
1928295.0,212.0,33.0,237.0,243.0,1928.295
1928305.0,214.0,32.0,229.0,241.0,1928.305
1928315.0,207.0,32.0,229.0,238.0,1928.315
1928325.0,213.0,32.0,233.0,243.0,1928.325
1928335.0,218.0,33.0,235.0,248.0,1928.335
1928345.0,211.0,32.0,235.0,242.0,1928.345
1928355.0,214.0,33.0,227.0,243.0,1928.355
1928365.0,205.0,32.0,226.0,234.0,1928.365
1928375.0,212.0,32.0,231.0,244.0,1928.375
1928385.0,219.0,32.0,233.0,247.0,1928.385
1928395.0,211.0,31.0,232.0,241.0,1928.395
1928406.0,212.0,32.0,225.0,241.0,1928.406
1928416.0,208.0,32.0,228.0,240.0,1928.416
1928426.0,215.0,32.0,235.0,247.0,1928.426
1928436.0,217.0,32.0,228.0,246.0,1928.436
1928446.0,207.0,32.0,229.0,239.0,1928.446
1928456.0,212.0,33.0,225.0,242.0,1928.456
1928466.0,209.0,32.0,228.0,242.0,1928.466
1928476.0,215.0,32.0,234.0,246.0,1928.476
1928486.0,216.0,33.0,226.0,245.0,1928.486
1928496.0,210.0,32.0,230.0,240.0,1928.496
1928506.0,211.0,32.0,224.0,241.0,1928.506
1928516.0,212.0,32.0,230.0,242.0,1928.516
1928526.0,215.0,31.0,234.0,246.0,1928.526
1928536.0,219.0,32.0,229.0,246.0,1928.536
1928546.0,210.0,32.0,230.0,240.0,1928.546
1928556.0,212.0,32.0,225.0,240.0,1928.556
1928566.0,213.0,32.0,231.0,244.0,1928.566
1928576.0,215.0,33.0,235.0,247.0,1928.576
1928586.0,219.0,33.0,229.0,247.0,1928.586
1928596.0,210.0,32.0,231.0,240.0,1928.596
1928606.0,213.0,32.0,226.0,241.0,1928.606
1928616.0,214.0,33.0,232.0,245.0,1928.616
1928626.0,216.0,32.0,235.0,247.0,1928.626
1928636.0,218.0,33.0,228.0,246.0,1928.636
1928646.0,210.0,32.0,230.0,239.0,1928.646
1928656.0,211.0,32.0,225.0,240.0,1928.656
1928666.0,210.0,32.0,228.0,240.0,1928.666
1928676.0,216.0,33.0,235.0,247.0,1928.676
1928686.0,219.0,32.0,228.0,244.0,1928.686
1928696.0,209.0,31.0,228.0,238.0,1928.696
1928706.0,213.0,32.0,225.0,240.0,1928.706
1928716.0,211.0,31.0,227.0,242.0,1928.716
1928726.0,215.0,32.0,235.0,247.0,1928.726
1928736.0,217.0,32.0,227.0,244.0,1928.736
1928747.0,207.0,32.0,228.0,238.0,1928.747
1928757.0,211.0,32.0,225.0,241.0,1928.757
1928767.0,217.0,33.0,233.0,248.0,1928.767
1928777.0,214.0,31.0,235.0,246.0,1928.777
1928787.0,214.0,33.0,226.0,243.0,1928.787
1928797.0,207.0,32.0,228.0,237.0,1928.797
1928807.0,211.0,33.0,227.0,241.0,1928.807
1928817.0,217.0,32.0,234.0,247.0,1928.817
1928827.0,213.0,32.0,234.0,245.0,1928.827
1928837.0,216.0,33.0,228.0,244.0,1928.837
1928847.0,207.0,31.0,227.0,237.0,1928.847
