time (ms),signal 0,signal 1,signal 2,signal 3,time (sec)
1877804.0,211.0,33.0,187.0,237.0,1877.804
1877814.0,215.0,32.0,191.0,238.0,1877.814
1877824.0,210.0,33.0,180.0,233.0,1877.824
1877834.0,210.0,32.0,191.0,232.0,1877.834
1877844.0,207.0,33.0,181.0,232.0,1877.844
1877854.0,210.0,33.0,189.0,235.0,1877.854
1877864.0,215.0,32.0,196.0,238.0,1877.864
1877874.0,209.0,33.0,187.0,232.0,1877.874
1877884.0,209.0,33.0,200.0,232.0,1877.884
1877894.0,204.0,32.0,188.0,226.0,1877.894
1877904.0,211.0,32.0,201.0,236.0,1877.904
1877914.0,215.0,34.0,205.0,238.0,1877.914
1877924.0,209.0,32.0,198.0,231.0,1877.924
1877934.0,210.0,33.0,216.0,232.0,1877.934
1877944.0,205.0,33.0,203.0,226.0,1877.944
1877954.0,212.0,33.0,216.0,236.0,1877.954
1877964.0,214.0,33.0,219.0,237.0,1877.964
1877974.0,211.0,33.0,215.0,234.0,1877.974
1877984.0,210.0,33.0,231.0,232.0,1877.984
1877994.0,204.0,32.0,221.0,229.0,1877.994
1878004.0,213.0,33.0,235.0,237.0,1878.004
1878014.0,215.0,34.0,235.0,239.0,1878.014
1878024.0,209.0,33.0,231.0,233.0,1878.024
1878034.0,210.0,33.0,243.0,235.0,1878.034
1878044.0,206.0,34.0,235.0,231.0,1878.044
1878054.0,212.0,33.0,243.0,239.0,1878.054
1878064.0,214.0,33.0,241.0,240.0,1878.064
1878074.0,209.0,33.0,240.0,234.0,1878.074
1878084.0,209.0,34.0,246.0,234.0,1878.084
1878094.0,207.0,33.0,243.0,233.0,1878.094
1878104.0,210.0,35.0,250.0,238.0,1878.104
1878114.0,214.0,34.0,250.0,240.0,1878.114
1878124.0,209.0,33.0,253.0,233.0,1878.124
1878134.0,210.0,33.0,255.0,233.0,1878.134
1878144.0,203.0,33.0,254.0,229.0,1878.144
1878154.0,212.0,33.0,255.0,237.0,1878.154
1878164.0,216.0,34.0,253.0,240.0,1878.164
1878174.0,208.0,33.0,251.0,233.0,1878.174
1878184.0,210.0,34.0,247.0,234.0,1878.184
1878194.0,204.0,34.0,244.0,231.0,1878.194
1878204.0,214.0,33.0,239.0,240.0,1878.204
1878214.0,216.0,34.0,234.0,240.0,1878.214
1878224.0,209.0,32.0,228.0,234.0,1878.224
1878234.0,211.0,34.0,223.0,237.0,1878.234
1878244.0,207.0,32.0,217.0,233.0,1878.244
1878254.0,214.0,33.0,211.0,241.0,1878.254
1878264.0,216.0,33.0,204.0,242.0,1878.264
1878274.0,210.0,33.0,198.0,237.0,1878.274
1878284.0,211.0,32.0,191.0,237.0,1878.284
1878294.0,207.0,34.0,185.0,236.0,1878.294
1878304.0,214.0,32.0,178.0,242.0,1878.304
1878315.0,215.0,33.0,171.0,241.0,1878.315
1878325.0,207.0,33.0,166.0,235.0,1878.325
1878335.0,210.0,32.0,158.0,237.0,1878.335
1878345.0,213.0,33.0,152.0,241.0,1878.345
1878355.0,214.0,33.0,146.0,242.0,1878.355
1878365.0,216.0,33.0,140.0,241.0,1878.365
1878375.0,208.0,32.0,134.0,234.0,1878.375
1878385.0,209.0,32.0,128.0,236.0,1878.385
1878395.0,215.0,33.0,124.0,242.0,1878.395
1878405.0,215.0,32.0,118.0,243.0,1878.405
1878415.0,215.0,33.0,113.0,240.0,1878.415
1878425.0,207.0,33.0,107.0,234.0,1878.425
1878435.0,210.0,32.0,103.0,237.0,1878.435
1878445.0,211.0,32.0,97.0,240.0,1878.445
1878455.0,214.0,32.0,93.0,243.0,1878.455
1878465.0,215.0,32.0,89.0,240.0,1878.465
1878475.0,206.0,32.0,85.0,232.0,1878.475
1878486.0,209.0,32.0,80.0,237.0,1878.486
1878496.0,215.0,32.0,76.0,244.0,1878.496
1878506.0,212.0,32.0,72.0,242.0,1878.506
1878516.0,213.0,32.0,69.0,240.0,1878.516
1878526.0,204.0,32.0,65.0,234.0,1878.526
1878536.0,209.0,32.0,63.0,240.0,1878.536
1878546.0,216.0,32.0,59.0,246.0,1878.546
1878556.0,212.0,32.0,55.0,241.0,1878.556
1878566.0,213.0,32.0,52.0,239.0,1878.566
1878576.0,207.0,31.0,49.0,232.0,1878.576
1878586.0,214.0,32.0,46.0,240.0,1878.586
1878596.0,220.0,31.0,44.0,244.0,1878.596
1878606.0,214.0,31.0,42.0,238.0,1878.606
1878616.0,216.0,31.0,38.0,239.0,1878.616
1878626.0,208.0,30.0,36.0,231.0,1878.626
1878636.0,213.0,32.0,34.0,241.0,1878.636
1878646.0,219.0,32.0,32.0,244.0,1878.646
1878656.0,214.0,31.0,29.0,241.0,1878.656
1878666.0,214.0,31.0,28.0,239.0,1878.666
1878676.0,205.0,32.0,25.0,231.0,1878.676
1878686.0,212.0,32.0,22.0,241.0,1878.686
1878696.0,217.0,30.0,20.0,246.0,1878.696
1878706.0,212.0,31.0,19.0,243.0,1878.706
1878716.0,212.0,30.0,18.0,240.0,1878.716
1878726.0,206.0,31.0,16.0,234.0,1878.726
1878736.0,214.0,31.0,14.0,244.0,1878.736
1878746.0,216.0,31.0,14.0,246.0,1878.746
1878756.0,215.0,30.0,12.0,242.0,1878.756
1878766.0,215.0,32.0,11.0,242.0,1878.766
1878776.0,207.0,31.0,11.0,236.0,1878.776
1878786.0,210.0,31.0,10.0,242.0,1878.786
1878796.0,217.0,31.0,9.0,246.0,1878.796
1878806.0,213.0,31.0,8.0,245.0,1878.806
1878816.0,216.0,31.0,7.0,242.0,1878.816
1878827.0,215.0,31.0,7.0,246.0,1878.827
1878837.0,211.0,31.0,8.0,241.0,1878.837
1878847.0,220.0,31.0,6.0,241.0,1878.847
1878857.0,208.0,30.0,6.0,242.0,1878.857
1878867.0,217.0,31.0,5.0,250.0,1878.867
1878877.0,227.0,31.0,5.0,253.0,1878.877
1878887.0,236.0,30.0,5.0,263.0,1878.887
1878897.0,239.0,31.0,5.0,252.0,1878.897
1878907.0,240.0,31.0,6.0,239.0,1878.907
1878917.0,254.0,31.0,4.0,250.0,1878.917
1878927.0,242.0,31.0,5.0,242.0,1878.927
1878937.0,248.0,31.0,4.0,255.0,1878.937
1878947.0,242.0,30.0,5.0,252.0,1878.947
1878957.0,235.0,30.0,5.0,248.0,1878.957
1878967.0,237.0,31.0,5.0,249.0,1878.967
1878977.0,228.0,31.0,4.0,250.0,1878.977
1878987.0,230.0,31.0,4.0,256.0,1878.987
1878998.0,230.0,32.0,4.0,260.0,1878.998
1879008.0,223.0,31.0,4.0,249.0,1879.008
1879018.0,219.0,30.0,4.0,238.0,1879.018
1879028.0,225.0,31.0,5.0,240.0,1879.028
1879038.0,230.0,31.0,4.0,234.0,1879.038
1879048.0,237.0,31.0,4.0,239.0,1879.048
1879058.0,223.0,31.0,4.0,236.0,1879.058
1879068.0,226.0,32.0,3.0,239.0,1879.068
1879078.0,231.0,30.0,5.0,245.0,1879.078
1879088.0,225.0,31.0,3.0,249.0,1879.088
1879098.0,224.0,31.0,5.0,246.0,1879.098
1879108.0,216.0,31.0,4.0,236.0,1879.108
1879118.0,220.0,31.0,4.0,240.0,1879.118
1879128.0,221.0,32.0,3.0,241.0,1879.128
1879138.0,224.0,30.0,4.0,246.0,1879.138
1879148.0,225.0,31.0,4.0,243.0,1879.148
1879158.0,220.0,31.0,5.0,240.0,1879.158
1879168.0,222.0,31.0,4.0,241.0,1879.168
1879178.0,221.0,31.0,4.0,241.0,1879.178
1879188.0,215.0,32.0,4.0,240.0,1879.188
1879198.0,216.0,32.0,3.0,241.0,1879.198
1879208.0,209.0,32.0,4.0,236.0,1879.208
1879218.0,213.0,32.0,3.0,241.0,1879.218
1879228.0,221.0,31.0,4.0,243.0,1879.228
1879238.0,218.0,31.0,4.0,241.0,1879.238
1879248.0,217.0,32.0,4.0,235.0,1879.248
1879258.0,214.0,32.0,4.0,229.0,1879.258
1879268.0,217.0,32.0,5.0,232.0,1879.268
1879278.0,227.0,32.0,3.0,245.0,1879.278
1879288.0,227.0,31.0,5.0,240.0,1879.288
1879298.0,229.0,32.0,3.0,240.0,1879.298
1879308.0,220.0,31.0,4.0,235.0,1879.308
1879318.0,224.0,33.0,3.0,246.0,1879.318
1879328.0,228.0,32.0,4.0,253.0,1879.328
1879339.0,224.0,32.0,4.0,248.0,1879.339
1879349.0,226.0,32.0,5.0,250.0,1879.349
1879359.0,224.0,32.0,4.0,250.0,1879.359
1879369.0,234.0,32.0,4.0,261.0,1879.369
1879379.0,242.0,32.0,4.0,266.0,1879.379
1879389.0,233.0,33.0,3.0,263.0,1879.389
1879399.0,235.0,32.0,4.0,262.0,1879.399
1879409.0,225.0,32.0,4.0,251.0,1879.409
1879419.0,232.0,32.0,4.0,259.0,1879.419
1879429.0,235.0,33.0,4.0,257.0,1879.429
1879439.0,230.0,32.0,4.0,249.0,1879.439
1879449.0,230.0,33.0,3.0,247.0,1879.449
1879459.0,223.0,32.0,5.0,244.0,1879.459
1879469.0,229.0,33.0,3.0,254.0,1879.469
1879479.0,231.0,32.0,5.0,254.0,1879.479
1879489.0,221.0,31.0,4.0,245.0,1879.489
1879499.0,225.0,32.0,4.0,244.0,1879.499
1879510.0,220.0,33.0,3.0,242.0,1879.51
1879520.0,226.0,32.0,4.0,256.0,1879.52
1879530.0,226.0,33.0,4.0,254.0,1879.53
1879540.0,216.0,32.0,4.0,241.0,1879.54
1879550.0,217.0,33.0,4.0,240.0,1879.55
1879560.0,212.0,32.0,4.0,242.0,1879.56
1879570.0,218.0,33.0,4.0,249.0,1879.57
1879580.0,218.0,33.0,4.0,246.0,1879.58
1879590.0,211.0,32.0,4.0,240.0,1879.59
1879600.0,214.0,33.0,4.0,242.0,1879.6
1879610.0,216.0,33.0,5.0,241.0,1879.61
1879620.0,217.0,33.0,4.0,252.0,1879.62
1879630.0,219.0,33.0,4.0,254.0,1879.63
1879640.0,213.0,33.0,3.0,246.0,1879.64
1879650.0,217.0,32.0,4.0,246.0,1879.65
1879660.0,216.0,33.0,3.0,247.0,1879.66
1879670.0,220.0,33.0,5.0,250.0,1879.67
1879680.0,224.0,33.0,4.0,250.0,1879.68
1879690.0,217.0,33.0,4.0,244.0,1879.69
1879700.0,217.0,33.0,3.0,245.0,1879.7
1879710.0,219.0,33.0,4.0,250.0,1879.71
1879720.0,223.0,32.0,4.0,251.0,1879.72
1879730.0,226.0,34.0,3.0,254.0,1879.73
1879740.0,217.0,33.0,4.0,242.0,1879.74
1879750.0,220.0,33.0,2.0,243.0,1879.75
1879760.0,219.0,33.0,4.0,248.0,1879.76
1879770.0,220.0,33.0,3.0,253.0,1879.77
1879780.0,223.0,34.0,4.0,250.0,1879.78
1879790.0,217.0,32.0,4.0,244.0,1879.79
1879800.0,220.0,33.0,5.0,248.0,1879.8
1879810.0,221.0,33.0,3.0,250.0,1879.81
1879820.0,231.0,33.0,3.0,254.0,1879.82
1879830.0,233.0,33.0,4.0,255.0,1879.83
1879840.0,224.0,33.0,3.0,249.0,1879.84
1879851.0,226.0,33.0,3.0,249.0,1879.851
1879861.0,233.0,33.0,4.0,255.0,1879.861
1879871.0,232.0,32.0,4.0,251.0,1879.871
1879881.0,230.0,33.0,3.0,250.0,1879.881
1879891.0,220.0,33.0,3.0,243.0,1879.891
1879901.0,225.0,34.0,3.0,248.0,1879.901
1879911.0,235.0,32.0,4.0,254.0,1879.911
1879921.0,228.0,33.0,4.0,249.0,1879.921
1879931.0,226.0,32.0,5.0,248.0,1879.931
1879941.0,218.0,33.0,4.0,241.0,1879.941
1879951.0,225.0,33.0,3.0,241.0,1879.951
1879961.0,229.0,34.0,3.0,249.0,1879.961
1879971.0,224.0,32.0,4.0,246.0,1879.971
1879981.0,228.0,33.0,4.0,246.0,1879.981
1879991.0,219.0,32.0,5.0,237.0,1879.991
1880001.0,222.0,32.0,4.0,244.0,1880.001
1880011.0,228.0,32.0,4.0,251.0,1880.011
1880022.0,223.0,32.0,4.0,248.0,1880.022
1880032.0,223.0,32.0,4.0,244.0,1880.032
1880042.0,217.0,33.0,3.0,239.0,1880.042
1880052.0,224.0,33.0,4.0,249.0,1880.052
1880062.0,230.0,33.0,4.0,252.0,1880.062
1880072.0,223.0,32.0,4.0,248.0,1880.072
1880082.0,223.0,33.0,4.0,246.0,1880.082
1880092.0,216.0,32.0,4.0,238.0,1880.092
1880102.0,224.0,32.0,4.0,246.0,1880.102
1880112.0,227.0,33.0,3.0,251.0,1880.112
1880122.0,224.0,31.0,5.0,243.0,1880.122
1880132.0,223.0,32.0,4.0,241.0,1880.132
1880142.0,221.0,32.0,4.0,241.0,1880.142
1880152.0,226.0,32.0,4.0,248.0,1880.152
1880162.0,231.0,32.0,3.0,252.0,1880.162
1880172.0,222.0,32.0,4.0,243.0,1880.172
1880182.0,224.0,32.0,4.0,244.0,1880.182
1880192.0,216.0,32.0,4.0,241.0,1880.192
1880202.0,224.0,32.0,3.0,250.0,1880.202
1880212.0,227.0,33.0,4.0,254.0,1880.212
1880222.0,221.0,32.0,3.0,246.0,1880.222
1880232.0,224.0,32.0,4.0,247.0,1880.232
1880242.0,217.0,33.0,3.0,243.0,1880.242
1880252.0,225.0,32.0,3.0,253.0,1880.252
1880262.0,230.0,33.0,4.0,256.0,1880.262
1880272.0,224.0,32.0,4.0,253.0,1880.272
1880282.0,229.0,33.0,3.0,258.0,1880.282
1880292.0,221.0,32.0,4.0,248.0,1880.292
1880302.0,227.0,32.0,4.0,256.0,1880.302
1880312.0,233.0,32.0,5.0,253.0,1880.312
1880322.0,226.0,31.0,4.0,244.0,1880.322
1880332.0,227.0,32.0,4.0,244.0,1880.332
1880342.0,218.0,33.0,4.0,242.0,1880.342
1880352.0,225.0,32.0,3.0,249.0,1880.352
1880363.0,228.0,33.0,4.0,248.0,1880.363
1880373.0,220.0,32.0,4.0,241.0,1880.373
1880383.0,216.0,33.0,4.0,240.0,1880.383
1880393.0,222.0,33.0,4.0,244.0,1880.393
1880403.0,223.0,32.0,3.0,244.0,1880.403
1880413.0,225.0,33.0,4.0,242.0,1880.413
1880423.0,214.0,32.0,4.0,235.0,1880.423
1880433.0,212.0,33.0,4.0,236.0,1880.433
1880443.0,217.0,33.0,4.0,248.0,1880.443
1880453.0,220.0,32.0,4.0,248.0,1880.453
1880463.0,225.0,33.0,4.0,245.0,1880.463
1880473.0,214.0,33.0,3.0,240.0,1880.473
1880483.0,218.0,33.0,3.0,240.0,1880.483
1880493.0,218.0,33.0,3.0,243.0,1880.493
1880503.0,222.0,33.0,5.0,248.0,1880.503
1880513.0,222.0,33.0,4.0,245.0,1880.513
1880523.0,213.0,32.0,4.0,237.0,1880.523
1880534.0,217.0,33.0,3.0,243.0,1880.534
1880544.0,227.0,32.0,4.0,249.0,1880.544
1880554.0,224.0,32.0,4.0,247.0,1880.554
1880564.0,224.0,33.0,4.0,246.0,1880.564
1880574.0,217.0,31.0,4.0,239.0,1880.574
1880584.0,221.0,33.0,3.0,246.0,1880.584
1880594.0,226.0,33.0,4.0,250.0,1880.594
1880604.0,221.0,32.0,4.0,246.0,1880.604
1880614.0,222.0,32.0,4.0,244.0,1880.614
1880624.0,214.0,34.0,3.0,238.0,1880.624
1880634.0,219.0,32.0,5.0,244.0,1880.634
1880644.0,226.0,33.0,4.0,250.0,1880.644
1880654.0,225.0,32.0,4.0,249.0,1880.654
1880664.0,229.0,32.0,4.0,253.0,1880.664
1880674.0,219.0,32.0,3.0,246.0,1880.674
1880684.0,223.0,32.0,4.0,252.0,1880.684
1880694.0,228.0,32.0,5.0,253.0,1880.694
1880704.0,223.0,32.0,4.0,252.0,1880.704
1880714.0,221.0,32.0,4.0,249.0,1880.714
1880724.0,208.0,32.0,3.0,232.0,1880.724
1880734.0,215.0,32.0,3.0,243.0,1880.734
1880744.0,219.0,32.0,4.0,244.0,1880.744
1880754.0,216.0,32.0,3.0,242.0,1880.754
1880764.0,214.0,32.0,4.0,239.0,1880.764
1880774.0,204.0,32.0,3.0,237.0,1880.774
1880784.0,211.0,32.0,4.0,241.0,1880.784
1880794.0,213.0,32.0,4.0,244.0,1880.794
1880804.0,212.0,32.0,4.0,241.0,1880.804
1880814.0,208.0,32.0,4.0,239.0,1880.814
1880824.0,201.0,31.0,5.0,231.0,1880.824
1880834.0,206.0,32.0,4.0,234.0,1880.834
1880844.0,211.0,32.0,4.0,238.0,1880.844
1880854.0,210.0,32.0,3.0,233.0,1880.854
1880864.0,210.0,31.0,3.0,232.0,1880.864
1880875.0,205.0,31.0,4.0,227.0,1880.875
1880885.0,212.0,31.0,4.0,238.0,1880.885
1880895.0,216.0,31.0,4.0,242.0,1880.895
1880905.0,210.0,31.0,4.0,233.0,1880.905
1880915.0,211.0,31.0,4.0,232.0,1880.915
1880925.0,207.0,32.0,3.0,229.0,1880.925
1880935.0,214.0,30.0,4.0,235.0,1880.935
1880945.0,216.0,31.0,4.0,236.0,1880.945
1880955.0,212.0,30.0,4.0,229.0,1880.955
1880965.0,212.0,30.0,4.0,232.0,1880.965
1880975.0,207.0,31.0,4.0,229.0,1880.975
1880985.0,214.0,31.0,3.0,239.0,1880.985
1880995.0,216.0,30.0,4.0,238.0,1880.995
1881005.0,212.0,31.0,3.0,236.0,1881.005
1881015.0,212.0,31.0,4.0,235.0,1881.015
1881025.0,210.0,31.0,4.0,234.0,1881.025
1881035.0,216.0,30.0,4.0,240.0,1881.035
1881046.0,217.0,31.0,4.0,243.0,1881.046
1881056.0,213.0,31.0,3.0,233.0,1881.056
1881066.0,216.0,30.0,4.0,233.0,1881.066
1881076.0,219.0,31.0,5.0,238.0,1881.076
1881086.0,220.0,31.0,4.0,238.0,1881.086
1881096.0,220.0,31.0,4.0,240.0,1881.096
1881106.0,212.0,30.0,4.0,233.0,1881.106
1881116.0,214.0,30.0,4.0,236.0,1881.116
1881126.0,218.0,30.0,3.0,241.0,1881.126
1881136.0,219.0,32.0,3.0,241.0,1881.136
1881146.0,218.0,31.0,4.0,238.0,1881.146
1881156.0,210.0,31.0,2.0,233.0,1881.156
1881166.0,211.0,31.0,4.0,235.0,1881.166
1881176.0,213.0,32.0,3.0,238.0,1881.176
1881186.0,217.0,30.0,4.0,240.0,1881.186
1881196.0,216.0,30.0,4.0,237.0,1881.196
1881206.0,209.0,31.0,4.0,230.0,1881.206
1881216.0,211.0,31.0,4.0,236.0,1881.216
1881226.0,213.0,31.0,4.0,240.0,1881.226
1881236.0,216.0,31.0,3.0,242.0,1881.236
1881246.0,215.0,32.0,4.0,240.0,1881.246
1881256.0,209.0,31.0,3.0,231.0,1881.256
1881266.0,211.0,32.0,3.0,234.0,1881.266
1881276.0,214.0,31.0,4.0,240.0,1881.276
1881286.0,214.0,31.0,3.0,242.0,1881.286
1881296.0,213.0,32.0,4.0,239.0,1881.296
1881306.0,209.0,33.0,3.0,235.0,1881.306
1881316.0,210.0,31.0,4.0,236.0,1881.316
1881326.0,214.0,32.0,4.0,243.0,1881.326
1881336.0,215.0,31.0,5.0,242.0,1881.336
1881346.0,215.0,31.0,4.0,241.0,1881.346
1881356.0,207.0,32.0,4.0,233.0,1881.356
1881366.0,209.0,32.0,3.0,237.0,1881.366
1881376.0,216.0,32.0,3.0,243.0,1881.376
1881387.0,215.0,31.0,4.0,242.0,1881.387
1881397.0,214.0,32.0,4.0,240.0,1881.397
1881407.0,207.0,31.0,4.0,233.0,1881.407
1881417.0,214.0,32.0,3.0,242.0,1881.417
1881427.0,218.0,32.0,3.0,245.0,1881.427
1881437.0,215.0,32.0,3.0,242.0,1881.437
1881447.0,214.0,32.0,3.0,240.0,1881.447
1881457.0,207.0,32.0,3.0,234.0,1881.457
1881467.0,215.0,31.0,4.0,244.0,1881.467
1881477.0,217.0,31.0,4.0,246.0,1881.477
1881487.0,214.0,31.0,4.0,242.0,1881.487
1881497.0,214.0,33.0,3.0,242.0,1881.497
1881507.0,207.0,31.0,4.0,236.0,1881.507
1881517.0,211.0,32.0,3.0,242.0,1881.517
1881527.0,217.0,32.0,5.0,247.0,1881.527
1881537.0,214.0,31.0,5.0,242.0,1881.537
1881547.0,212.0,32.0,3.0,241.0,1881.547
1881558.0,207.0,32.0,3.0,238.0,1881.558
1881568.0,215.0,32.0,3.0,245.0,1881.568
1881578.0,217.0,32.0,4.0,245.0,1881.578
1881588.0,210.0,31.0,4.0,238.0,1881.588
1881598.0,211.0,32.0,4.0,239.0,1881.598
1881608.0,208.0,32.0,4.0,237.0,1881.608
1881618.0,216.0,31.0,4.0,245.0,1881.618
1881628.0,217.0,32.0,3.0,243.0,1881.628
1881638.0,211.0,30.0,4.0,236.0,1881.638
1881648.0,213.0,33.0,3.0,239.0,1881.648
1881658.0,211.0,31.0,4.0,238.0,1881.658
1881668.0,216.0,32.0,4.0,243.0,1881.668
1881678.0,217.0,32.0,4.0,241.0,1881.678
1881688.0,211.0,31.0,4.0,237.0,1881.688
1881698.0,211.0,32.0,3.0,238.0,1881.698
1881708.0,211.0,31.0,4.0,237.0,1881.708
1881718.0,217.0,32.0,4.0,242.0,1881.718
1881728.0,219.0,32.0,4.0,242.0,1881.728
1881738.0,212.0,32.0,4.0,234.0,1881.738
1881748.0,214.0,32.0,4.0,236.0,1881.748
1881758.0,213.0,32.0,3.0,238.0,1881.758
1881768.0,217.0,32.0,4.0,243.0,1881.768
1881778.0,218.0,33.0,3.0,244.0,1881.778
1881788.0,212.0,32.0,4.0,237.0,1881.788
1881798.0,212.0,32.0,2.0,239.0,1881.798
1881808.0,213.0,32.0,4.0,241.0,1881.808
1881818.0,216.0,32.0,2.0,245.0,1881.818
1881828.0,217.0,32.0,4.0,244.0,1881.828
1881838.0,210.0,32.0,3.0,237.0,1881.838
1881848.0,213.0,32.0,4.0,238.0,1881.848
1881858.0,209.0,32.0,4.0,236.0,1881.858
1881868.0,215.0,32.0,4.0,244.0,1881.868
1881878.0,217.0,33.0,4.0,242.0,1881.878
1881888.0,210.0,32.0,3.0,235.0,1881.888
1881899.0,212.0,32.0,4.0,237.0,1881.899
1881909.0,214.0,32.0,4.0,242.0,1881.909
1881919.0,214.0,31.0,3.0,242.0,1881.919
1881929.0,212.0,33.0,4.0,240.0,1881.929
1881939.0,206.0,32.0,4.0,233.0,1881.939
1881949.0,208.0,33.0,3.0,238.0,1881.949
1881959.0,213.0,32.0,4.0,244.0,1881.959
1881969.0,213.0,33.0,3.0,243.0,1881.969
1881979.0,212.0,32.0,4.0,240.0,1881.979
1881989.0,207.0,32.0,4.0,236.0,1881.989
1881999.0,210.0,32.0,4.0,239.0,1881.999
1882009.0,215.0,33.0,3.0,247.0,1882.009
1882019.0,213.0,32.0,4.0,244.0,1882.019
1882029.0,214.0,33.0,3.0,244.0,1882.029
1882039.0,207.0,32.0,4.0,235.0,1882.039
1882049.0,209.0,33.0,4.0,239.0,1882.049
1882059.0,215.0,33.0,4.0,245.0,1882.059
1882070.0,212.0,32.0,4.0,242.0,1882.07
1882080.0,211.0,33.0,3.0,239.0,1882.08
1882090.0,203.0,32.0,4.0,234.0,1882.09
1882100.0,209.0,33.0,4.0,243.0,1882.1
1882110.0,214.0,32.0,4.0,244.0,1882.11
1882120.0,209.0,33.0,4.0,241.0,1882.12
1882130.0,210.0,33.0,4.0,238.0,1882.13
1882140.0,203.0,33.0,3.0,234.0,1882.14
1882150.0,211.0,32.0,4.0,242.0,1882.15
1882160.0,214.0,35.0,3.0,244.0,1882.16
1882170.0,212.0,32.0,5.0,239.0,1882.17
1882180.0,210.0,33.0,4.0,238.0,1882.18
1882190.0,206.0,32.0,4.0,234.0,1882.19
1882200.0,210.0,32.0,4.0,240.0,1882.2
1882210.0,216.0,33.0,4.0,244.0,1882.21
1882220.0,211.0,33.0,3.0,239.0,1882.22
1882230.0,212.0,33.0,4.0,238.0,1882.23
1882240.0,205.0,33.0,3.0,230.0,1882.24
1882250.0,211.0,33.0,3.0,239.0,1882.25
1882260.0,216.0,33.0,4.0,243.0,1882.26
1882270.0,209.0,33.0,3.0,237.0,1882.27
1882280.0,211.0,32.0,4.0,237.0,1882.28
1882290.0,204.0,33.0,3.0,230.0,1882.29
1882300.0,213.0,32.0,5.0,239.0,1882.3
1882310.0,216.0,33.0,4.0,242.0,1882.31
1882320.0,210.0,32.0,4.0,236.0,1882.32
1882330.0,212.0,33.0,3.0,238.0,1882.33
1882340.0,205.0,32.0,3.0,231.0,1882.34
1882350.0,214.0,33.0,3.0,242.0,1882.35
1882360.0,219.0,33.0,5.0,243.0,1882.36
1882370.0,213.0,32.0,4.0,239.0,1882.37
1882380.0,212.0,33.0,4.0,237.0,1882.38
1882390.0,206.0,33.0,4.0,234.0,1882.39
1882400.0,214.0,33.0,3.0,243.0,1882.4
1882411.0,216.0,33.0,4.0,243.0,1882.411
1882421.0,208.0,32.0,4.0,235.0,1882.421
1882431.0,211.0,32.0,4.0,236.0,1882.431
1882441.0,211.0,33.0,4.0,239.0,1882.441
1882451.0,214.0,32.0,4.0,242.0,1882.451
1882461.0,215.0,33.0,4.0,243.0,1882.461
1882471.0,208.0,32.0,4.0,235.0,1882.471
1882481.0,209.0,32.0,4.0,237.0,1882.481
1882491.0,211.0,33.0,3.0,241.0,1882.491
1882501.0,213.0,32.0,4.0,242.0,1882.501
1882511.0,216.0,32.0,4.0,241.0,1882.511
1882521.0,209.0,33.0,3.0,234.0,1882.521
1882531.0,211.0,32.0,4.0,234.0,1882.531
1882541.0,209.0,33.0,4.0,236.0,1882.541
1882551.0,214.0,33.0,5.0,241.0,1882.551
1882561.0,216.0,32.0,4.0,239.0,1882.561
1882571.0,208.0,32.0,3.0,233.0,1882.571
1882582.0,210.0,33.0,4.0,236.0,1882.582
1882592.0,215.0,33.0,3.0,242.0,1882.592
1882602.0,214.0,32.0,4.0,240.0,1882.602
1882612.0,213.0,32.0,4.0,237.0,1882.612
1882622.0,206.0,31.0,4.0,230.0,1882.622
1882632.0,209.0,32.0,4.0,235.0,1882.632
1882642.0,214.0,32.0,4.0,242.0,1882.642
1882652.0,212.0,33.0,3.0,240.0,1882.652
1882662.0,213.0,32.0,4.0,237.0,1882.662
1882672.0,207.0,33.0,3.0,233.0,1882.672
1882682.0,211.0,32.0,5.0,236.0,1882.682
1882692.0,215.0,32.0,4.0,243.0,1882.692
1882702.0,212.0,32.0,3.0,239.0,1882.702
1882712.0,213.0,32.0,4.0,239.0,1882.712
1882722.0,205.0,32.0,3.0,231.0,1882.722
1882732.0,209.0,32.0,3.0,237.0,1882.732
1882742.0,215.0,32.0,4.0,243.0,1882.742
1882752.0,213.0,32.0,4.0,241.0,1882.752
1882762.0,213.0,32.0,4.0,239.0,1882.762
1882772.0,205.0,32.0,4.0,231.0,1882.772
1882782.0,210.0,33.0,3.0,238.0,1882.782
1882792.0,215.0,32.0,4.0,243.0,1882.792
1882802.0,213.0,32.0,4.0,240.0,1882.802
1882812.0,213.0,32.0,5.0,238.0,1882.812
1882822.0,205.0,32.0,4.0,229.0,1882.822
1882832.0,211.0,32.0,4.0,237.0,1882.832
1882842.0,214.0,33.0,3.0,242.0,1882.842
1882852.0,214.0,32.0,4.0,238.0,1882.852
1882862.0,212.0,32.0,4.0,237.0,1882.862
1882872.0,206.0,32.0,4.0,229.0,1882.872
1882882.0,210.0,31.0,4.0,235.0,1882.882
1882892.0,215.0,32.0,4.0,241.0,1882.892
1882902.0,214.0,32.0,4.0,239.0,1882.902
1882912.0,211.0,33.0,3.0,236.0,1882.912
1882923.0,205.0,32.0,4.0,230.0,1882.923
1882933.0,213.0,32.0,3.0,240.0,1882.933
1882943.0,223.0,33.0,4.0,244.0,1882.943
1882953.0,214.0,32.0,4.0,236.0,1882.953
1882963.0,214.0,32.0,4.0,236.0,1882.963
1882973.0,208.0,32.0,4.0,231.0,1882.973
1882983.0,216.0,32.0,4.0,240.0,1882.983
1882993.0,219.0,32.0,3.0,242.0,1882.993
1883003.0,212.0,31.0,4.0,235.0,1883.003
1883013.0,213.0,31.0,4.0,238.0,1883.013
1883023.0,207.0,31.0,3.0,232.0,1883.023
1883033.0,215.0,32.0,3.0,242.0,1883.033
1883043.0,217.0,32.0,4.0,242.0,1883.043
1883053.0,213.0,32.0,3.0,238.0,1883.053
1883063.0,212.0,32.0,4.0,238.0,1883.063
1883073.0,208.0,31.0,4.0,235.0,1883.073
1883083.0,214.0,32.0,3.0,243.0,1883.083
1883094.0,217.0,32.0,4.0,242.0,1883.094
1883104.0,210.0,32.0,3.0,234.0,1883.104
1883114.0,211.0,32.0,4.0,236.0,1883.114
1883124.0,213.0,31.0,4.0,240.0,1883.124
1883134.0,216.0,31.0,4.0,242.0,1883.134
1883144.0,217.0,32.0,5.0,242.0,1883.144
1883154.0,210.0,31.0,4.0,234.0,1883.154
1883164.0,211.0,32.0,3.0,237.0,1883.164
1883174.0,215.0,31.0,4.0,241.0,1883.174
1883184.0,216.0,32.0,3.0,244.0,1883.184
1883194.0,218.0,31.0,5.0,241.0,1883.194
1883204.0,211.0,31.0,3.0,234.0,1883.204
1883214.0,212.0,31.0,4.0,237.0,1883.214
1883224.0,212.0,31.0,4.0,239.0,1883.224
1883234.0,216.0,32.0,4.0,244.0,1883.234
1883244.0,216.0,32.0,4.0,240.0,1883.244
1883254.0,209.0,32.0,4.0,233.0,1883.254
1883264.0,211.0,32.0,4.0,236.0,1883.264
1883274.0,212.0,31.0,4.0,238.0,1883.274
1883284.0,215.0,32.0,4.0,242.0,1883.284
1883294.0,215.0,33.0,3.0,239.0,1883.294
1883304.0,208.0,31.0,3.0,231.0,1883.304
1883314.0,210.0,33.0,3.0,236.0,1883.314
1883324.0,214.0,32.0,5.0,240.0,1883.324
1883334.0,215.0,31.0,4.0,242.0,1883.334
1883344.0,213.0,31.0,4.0,240.0,1883.344
1883354.0,210.0,31.0,4.0,236.0,1883.354
1883364.0,211.0,32.0,3.0,239.0,1883.364
1883374.0,215.0,31.0,4.0,243.0,1883.374
1883384.0,216.0,32.0,2.0,243.0,1883.384
1883394.0,218.0,31.0,4.0,242.0,1883.394
1883404.0,210.0,31.0,3.0,235.0,1883.404
1883414.0,211.0,32.0,4.0,237.0,1883.414
1883424.0,214.0,33.0,3.0,244.0,1883.424
1883435.0,215.0,32.0,4.0,243.0,1883.435
1883445.0,214.0,32.0,3.0,240.0,1883.445
1883455.0,207.0,31.0,4.0,232.0,1883.455
1883465.0,212.0,32.0,3.0,241.0,1883.465
1883475.0,216.0,32.0,4.0,245.0,1883.475
1883485.0,213.0,33.0,3.0,243.0,1883.485
1883495.0,213.0,32.0,3.0,240.0,1883.495
1883505.0,204.0,31.0,3.0,233.0,1883.505
1883515.0,214.0,32.0,5.0,241.0,1883.515
1883525.0,218.0,31.0,4.0,246.0,1883.525
1883535.0,215.0,32.0,3.0,242.0,1883.535
1883545.0,214.0,33.0,3.0,241.0,1883.545
1883555.0,206.0,32.0,4.0,233.0,1883.555
1883565.0,210.0,32.0,3.0,239.0,1883.565
1883575.0,216.0,32.0,4.0,245.0,1883.575
1883585.0,213.0,31.0,4.0,241.0,1883.585
1883595.0,212.0,32.0,3.0,239.0,1883.595
1883606.0,206.0,32.0,4.0,234.0,1883.606
1883616.0,214.0,32.0,3.0,243.0,1883.616
1883626.0,218.0,32.0,4.0,243.0,1883.626
1883636.0,211.0,32.0,3.0,237.0,1883.636
1883646.0,214.0,31.0,5.0,239.0,1883.646
1883656.0,207.0,32.0,2.0,237.0,1883.656
1883666.0,216.0,32.0,4.0,245.0,1883.666
1883676.0,217.0,33.0,3.0,245.0,1883.676
1883686.0,210.0,32.0,4.0,236.0,1883.686
1883696.0,212.0,32.0,3.0,238.0,1883.696
1883706.0,207.0,32.0,4.0,236.0,1883.706
1883716.0,214.0,32.0,3.0,243.0,1883.716
1883726.0,215.0,33.0,4.0,242.0,1883.726
1883736.0,211.0,31.0,4.0,238.0,1883.736
1883746.0,211.0,33.0,3.0,238.0,1883.746
1883756.0,208.0,32.0,4.0,235.0,1883.756
1883766.0,215.0,32.0,5.0,242.0,1883.766
1883776.0,217.0,32.0,4.0,242.0,1883.776
1883786.0,211.0,32.0,4.0,236.0,1883.786
1883796.0,211.0,32.0,4.0,237.0,1883.796
1883806.0,210.0,33.0,3.0,238.0,1883.806
1883816.0,215.0,32.0,4.0,242.0,1883.816
1883826.0,217.0,33.0,3.0,243.0,1883.826
1883836.0,211.0,32.0,4.0,235.0,1883.836
1883846.0,212.0,32.0,4.0,236.0,1883.846
1883856.0,210.0,32.0,4.0,237.0,1883.856
1883866.0,214.0,33.0,3.0,240.0,1883.866
1883876.0,217.0,32.0,3.0,242.0,1883.876
1883886.0,209.0,32.0,4.0,235.0,1883.886
1883896.0,211.0,32.0,5.0,236.0,1883.896
1883906.0,206.0,33.0,4.0,234.0,1883.906
1883916.0,214.0,33.0,3.0,243.0,1883.916
1883926.0,216.0,33.0,4.0,243.0,1883.926
1883936.0,208.0,33.0,3.0,235.0,1883.936
1883947.0,211.0,32.0,4.0,236.0,1883.947
1883957.0,211.0,33.0,4.0,240.0,1883.957
1883967.0,214.0,33.0,4.0,242.0,1883.967
1883977.0,214.0,33.0,4.0,240.0,1883.977
1883987.0,206.0,32.0,4.0,231.0,1883.987
1883997.0,210.0,34.0,3.0,236.0,1883.997
1884007.0,212.0,33.0,4.0,240.0,1884.007
1884017.0,216.0,32.0,4.0,241.0,1884.017
1884027.0,218.0,33.0,4.0,239.0,1884.027
1884037.0,210.0,33.0,3.0,234.0,1884.037
1884047.0,212.0,33.0,4.0,236.0,1884.047
1884057.0,216.0,34.0,3.0,243.0,1884.057
1884067.0,215.0,32.0,4.0,240.0,1884.067
1884077.0,217.0,32.0,3.0,240.0,1884.077
1884087.0,208.0,33.0,4.0,232.0,1884.087
1884097.0,211.0,32.0,4.0,236.0,1884.097
1884107.0,214.0,33.0,3.0,242.0,1884.107
1884118.0,213.0,32.0,4.0,240.0,1884.118
1884128.0,213.0,34.0,3.0,238.0,1884.128
1884138.0,205.0,32.0,4.0,230.0,1884.138
1884148.0,213.0,33.0,3.0,241.0,1884.148
1884158.0,220.0,33.0,4.0,243.0,1884.158
1884168.0,215.0,33.0,2.0,240.0,1884.168
1884178.0,217.0,33.0,3.0,238.0,1884.178
1884188.0,208.0,33.0,3.0,232.0,1884.188
1884198.0,216.0,30.0,4.0,242.0,1884.198
1884208.0,218.0,32.0,3.0,244.0,1884.208
1884218.0,214.0,32.0,3.0,239.0,1884.218
1884228.0,214.0,31.0,3.0,238.0,1884.228
1884238.0,207.0,32.0,4.0,232.0,1884.238
1884248.0,213.0,32.0,4.0,240.0,1884.248
1884258.0,218.0,33.0,3.0,243.0,1884.258
1884268.0,213.0,32.0,3.0,239.0,1884.268
1884278.0,213.0,32.0,4.0,237.0,1884.278
1884288.0,206.0,32.0,4.0,229.0,1884.288
1884298.0,212.0,32.0,4.0,238.0,1884.298
1884308.0,217.0,32.0,4.0,243.0,1884.308
1884318.0,211.0,32.0,3.0,238.0,1884.318
1884328.0,212.0,32.0,4.0,238.0,1884.328
1884338.0,203.0,32.0,3.0,231.0,1884.338
1884348.0,209.0,32.0,5.0,241.0,1884.348
1884358.0,214.0,31.0,4.0,243.0,1884.358
1884368.0,208.0,32.0,4.0,237.0,1884.368
1884378.0,210.0,31.0,4.0,238.0,1884.378
1884388.0,203.0,32.0,3.0,232.0,1884.388
1884398.0,209.0,32.0,3.0,242.0,1884.398
1884408.0,214.0,32.0,4.0,245.0,1884.408
1884418.0,210.0,31.0,3.0,240.0,1884.418
1884428.0,210.0,32.0,4.0,238.0,1884.428
1884438.0,202.0,32.0,4.0,233.0,1884.438
1884448.0,210.0,32.0,3.0,242.0,1884.448
1884459.0,215.0,32.0,4.0,243.0,1884.459
1884469.0,207.0,31.0,4.0,237.0,1884.469
1884479.0,209.0,31.0,4.0,238.0,1884.479
1884489.0,207.0,31.0,2.0,240.0,1884.489
1884499.0,212.0,32.0,4.0,243.0,1884.499
1884509.0,214.0,32.0,4.0,244.0,1884.509
1884519.0,207.0,32.0,4.0,236.0,1884.519
1884529.0,208.0,32.0,4.0,237.0,1884.529
1884539.0,214.0,32.0,5.0,240.0,1884.539
1884549.0,215.0,32.0,4.0,242.0,1884.549
1884559.0,218.0,32.0,4.0,243.0,1884.559
1884569.0,209.0,32.0,4.0,236.0,1884.569
1884579.0,211.0,32.0,4.0,237.0,1884.579
1884589.0,208.0,32.0,4.0,236.0,1884.589
1884599.0,215.0,32.0,4.0,243.0,1884.599
1884609.0,217.0,31.0,4.0,242.0,1884.609
1884619.0,208.0,32.0,3.0,235.0,1884.619
1884630.0,211.0,32.0,4.0,237.0,1884.63
1884640.0,213.0,33.0,3.0,243.0,1884.64
1884650.0,214.0,32.0,4.0,244.0,1884.65
1884660.0,213.0,33.0,3.0,241.0,1884.66
1884670.0,205.0,31.0,4.0,234.0,1884.67
1884680.0,210.0,32.0,4.0,238.0,1884.68
1884690.0,218.0,32.0,4.0,245.0,1884.69
1884700.0,217.0,33.0,3.0,244.0,1884.7
1884710.0,216.0,32.0,4.0,240.0,1884.71
1884720.0,209.0,33.0,3.0,237.0,1884.72
1884730.0,212.0,32.0,4.0,238.0,1884.73
1884740.0,216.0,31.0,4.0,245.0,1884.74
1884750.0,213.0,32.0,4.0,242.0,1884.75
1884760.0,215.0,33.0,3.0,241.0,1884.76
1884770.0,207.0,32.0,3.0,234.0,1884.77
1884780.0,210.0,32.0,3.0,238.0,1884.78
1884790.0,215.0,33.0,4.0,245.0,1884.79
1884800.0,211.0,32.0,4.0,243.0,1884.8
1884810.0,210.0,33.0,3.0,241.0,1884.81
1884820.0,204.0,32.0,4.0,234.0,1884.82
1884830.0,208.0,34.0,3.0,240.0,1884.83
1884840.0,214.0,32.0,4.0,244.0,1884.84
1884850.0,213.0,33.0,3.0,243.0,1884.85
1884860.0,213.0,33.0,5.0,240.0,1884.86
1884870.0,204.0,33.0,4.0,233.0,1884.87
1884880.0,210.0,32.0,4.0,239.0,1884.88
1884890.0,213.0,32.0,4.0,244.0,1884.89
1884900.0,215.0,32.0,3.0,244.0,1884.9
1884910.0,214.0,32.0,4.0,241.0,1884.91
1884920.0,207.0,32.0,5.0,233.0,1884.92
1884930.0,211.0,32.0,3.0,240.0,1884.93
1884940.0,215.0,33.0,4.0,245.0,1884.94
1884950.0,216.0,32.0,4.0,243.0,1884.95
1884960.0,214.0,33.0,3.0,241.0,1884.96
1884971.0,207.0,32.0,4.0,233.0,1884.971
1884981.0,213.0,32.0,4.0,243.0,1884.981
1884991.0,218.0,33.0,4.0,245.0,1884.991
1885001.0,212.0,33.0,4.0,239.0,1885.001
1885011.0,212.0,33.0,4.0,237.0,1885.011
1885021.0,206.0,33.0,4.0,232.0,1885.021
1885031.0,213.0,32.0,4.0,242.0,1885.031
1885041.0,217.0,33.0,3.0,245.0,1885.041
1885051.0,211.0,33.0,5.0,239.0,1885.051
1885061.0,213.0,32.0,4.0,239.0,1885.061
1885071.0,206.0,32.0,4.0,234.0,1885.071
1885081.0,214.0,32.0,4.0,244.0,1885.081
1885091.0,216.0,33.0,3.0,246.0,1885.091
1885101.0,213.0,32.0,4.0,242.0,1885.101
1885111.0,212.0,32.0,4.0,240.0,1885.111
1885121.0,210.0,33.0,4.0,235.0,1885.121
1885131.0,218.0,32.0,3.0,245.0,1885.131
1885142.0,220.0,33.0,3.0,245.0,1885.142
1885152.0,213.0,33.0,3.0,238.0,1885.152
1885162.0,213.0,32.0,3.0,239.0,1885.162
1885172.0,213.0,32.0,4.0,243.0,1885.172
1885182.0,218.0,32.0,5.0,245.0,1885.182
1885192.0,217.0,32.0,4.0,245.0,1885.192
1885202.0,210.0,32.0,3.0,239.0,1885.202
1885212.0,211.0,33.0,3.0,240.0,1885.212
1885222.0,213.0,32.0,3.0,244.0,1885.222
1885232.0,216.0,33.0,3.0,246.0,1885.232
1885242.0,216.0,33.0,4.0,244.0,1885.242
1885252.0,209.0,31.0,4.0,238.0,1885.252
1885262.0,210.0,33.0,3.0,240.0,1885.262
1885272.0,210.0,32.0,4.0,241.0,1885.272
1885282.0,214.0,33.0,3.0,247.0,1885.282
1885292.0,215.0,32.0,4.0,244.0,1885.292
1885302.0,207.0,32.0,4.0,237.0,1885.302
1885312.0,211.0,32.0,3.0,240.0,1885.312
1885322.0,208.0,32.0,4.0,240.0,1885.322
1885332.0,214.0,32.0,4.0,245.0,1885.332
1885342.0,215.0,34.0,3.0,243.0,1885.342
1885352.0,207.0,32.0,4.0,235.0,1885.352
1885362.0,210.0,34.0,4.0,239.0,1885.362
1885372.0,215.0,33.0,4.0,242.0,1885.372
1885382.0,217.0,33.0,2.0,246.0,1885.382
1885392.0,216.0,33.0,4.0,241.0,1885.392
1885402.0,211.0,32.0,4.0,238.0,1885.402
1885412.0,212.0,33.0,3.0,240.0,1885.412
1885422.0,213.0,32.0,4.0,242.0,1885.422
1885432.0,217.0,33.0,2.0,245.0,1885.432
1885442.0,218.0,33.0,4.0,244.0,1885.442
1885452.0,210.0,33.0,2.0,237.0,1885.452
1885462.0,212.0,33.0,4.0,237.0,1885.462
1885472.0,215.0,34.0,3.0,242.0,1885.472
1885483.0,216.0,33.0,3.0,242.0,1885.483
1885493.0,215.0,33.0,4.0,240.0,1885.493
1885503.0,208.0,32.0,5.0,233.0,1885.503
1885513.0,212.0,33.0,2.0,241.0,1885.513
1885523.0,218.0,33.0,4.0,244.0,1885.523
1885533.0,215.0,33.0,3.0,242.0,1885.533
1885543.0,215.0,32.0,4.0,239.0,1885.543
1885553.0,207.0,32.0,4.0,232.0,1885.553
1885563.0,214.0,32.0,5.0,240.0,1885.563
1885573.0,216.0,33.0,4.0,243.0,1885.573
1885583.0,216.0,32.0,4.0,242.0,1885.583
1885593.0,215.0,32.0,4.0,238.0,1885.593
1885603.0,207.0,32.0,3.0,232.0,1885.603
1885613.0,211.0,33.0,3.0,238.0,1885.613
1885623.0,216.0,33.0,4.0,243.0,1885.623
1885633.0,215.0,33.0,4.0,242.0,1885.633
1885643.0,214.0,33.0,2.0,239.0,1885.643
1885654.0,207.0,32.0,4.0,233.0,1885.654
1885664.0,215.0,33.0,3.0,243.0,1885.664
1885674.0,221.0,33.0,4.0,245.0,1885.674
1885684.0,213.0,32.0,4.0,238.0,1885.684
1885694.0,215.0,33.0,5.0,237.0,1885.694
1885704.0,208.0,33.0,3.0,233.0,1885.704
1885714.0,215.0,32.0,3.0,243.0,1885.714
1885724.0,218.0,34.0,3.0,243.0,1885.724
1885734.0,211.0,32.0,4.0,236.0,1885.734
1885744.0,213.0,34.0,3.0,238.0,1885.744
1885754.0,207.0,33.0,4.0,234.0,1885.754
1885764.0,216.0,31.0,4.0,243.0,1885.764
1885774.0,218.0,33.0,4.0,242.0,1885.774
1885784.0,214.0,31.0,4.0,239.0,1885.784
1885794.0,213.0,33.0,3.0,238.0,1885.794
1885804.0,208.0,32.0,4.0,235.0,1885.804
1885814.0,214.0,32.0,4.0,245.0,1885.814
1885824.0,217.0,32.0,4.0,244.0,1885.824
1885834.0,211.0,32.0,3.0,240.0,1885.834
1885844.0,212.0,32.0,4.0,239.0,1885.844
1885854.0,208.0,33.0,3.0,238.0,1885.854
1885864.0,215.0,32.0,3.0,245.0,1885.864
1885874.0,217.0,33.0,3.0,246.0,1885.874
1885884.0,212.0,32.0,5.0,240.0,1885.884
1885894.0,212.0,33.0,3.0,239.0,1885.894
1885904.0,210.0,33.0,4.0,239.0,1885.904
1885914.0,214.0,33.0,4.0,243.0,1885.914
1885924.0,217.0,33.0,3.0,245.0,1885.924
1885934.0,211.0,32.0,3.0,239.0,1885.934
1885944.0,211.0,33.0,4.0,238.0,1885.944
1885954.0,206.0,31.0,4.0,235.0,1885.954
1885964.0,212.0,33.0,3.0,243.0,1885.964
1885974.0,216.0,32.0,4.0,244.0,1885.974
1885984.0,209.0,33.0,3.0,238.0,1885.984
1885995.0,210.0,33.0,4.0,238.0,1885.995
1886005.0,210.0,32.0,3.0,242.0,1886.005
1886015.0,215.0,32.0,5.0,245.0,1886.015
1886025.0,214.0,33.0,3.0,242.0,1886.025
1886035.0,206.0,33.0,4.0,235.0,1886.035
1886045.0,210.0,33.0,3.0,239.0,1886.045
1886055.0,212.0,32.0,4.0,242.0,1886.055
1886065.0,214.0,32.0,3.0,244.0,1886.065
1886075.0,215.0,33.0,4.0,240.0,1886.075
1886085.0,208.0,32.0,3.0,236.0,1886.085
1886095.0,210.0,33.0,3.0,238.0,1886.095
1886105.0,213.0,32.0,4.0,242.0,1886.105
1886115.0,217.0,32.0,4.0,244.0,1886.115
1886125.0,221.0,33.0,3.0,243.0,1886.125
1886135.0,209.0,33.0,4.0,236.0,1886.135
1886145.0,213.0,32.0,5.0,237.0,1886.145
1886155.0,215.0,32.0,3.0,244.0,1886.155
1886166.0,214.0,32.0,4.0,244.0,1886.166
1886176.0,214.0,34.0,3.0,241.0,1886.176
1886186.0,206.0,32.0,4.0,233.0,1886.186
1886196.0,212.0,32.0,3.0,243.0,1886.196
1886206.0,217.0,33.0,5.0,246.0,1886.206
1886216.0,212.0,32.0,4.0,244.0,1886.216
1886226.0,213.0,33.0,4.0,241.0,1886.226
1886236.0,205.0,33.0,3.0,234.0,1886.236
1886246.0,212.0,32.0,4.0,242.0,1886.246
1886256.0,215.0,33.0,3.0,246.0,1886.256
1886266.0,213.0,32.0,4.0,243.0,1886.266
1886276.0,213.0,33.0,4.0,241.0,1886.276
1886286.0,204.0,32.0,4.0,233.0,1886.286
1886296.0,211.0,31.0,4.0,239.0,1886.296
1886306.0,215.0,33.0,3.0,245.0,1886.306
1886316.0,213.0,32.0,4.0,241.0,1886.316
1886326.0,213.0,32.0,4.0,239.0,1886.326
1886336.0,207.0,32.0,4.0,233.0,1886.336
1886346.0,210.0,32.0,4.0,240.0,1886.346
1886356.0,216.0,32.0,4.0,245.0,1886.356
1886366.0,215.0,33.0,4.0,243.0,1886.366
1886376.0,216.0,32.0,4.0,240.0,1886.376
1886386.0,208.0,32.0,3.0,235.0,1886.386
1886396.0,214.0,32.0,5.0,241.0,1886.396
1886406.0,218.0,33.0,4.0,247.0,1886.406
1886416.0,213.0,32.0,4.0,241.0,1886.416
1886426.0,214.0,31.0,4.0,242.0,1886.426
1886436.0,206.0,32.0,3.0,234.0,1886.436
1886446.0,212.0,32.0,3.0,243.0,1886.446
1886456.0,217.0,32.0,2.0,246.0,1886.456
1886466.0,214.0,32.0,4.0,243.0,1886.466
1886476.0,213.0,32.0,4.0,240.0,1886.476
1886486.0,206.0,32.0,4.0,233.0,1886.486
1886496.0,213.0,33.0,3.0,243.0,1886.496
1886507.0,218.0,32.0,4.0,244.0,1886.507
1886517.0,212.0,32.0,4.0,239.0,1886.517
1886527.0,212.0,33.0,4.0,239.0,1886.527
1886537.0,210.0,33.0,4.0,239.0,1886.537
1886547.0,216.0,32.0,4.0,245.0,1886.547
1886557.0,218.0,33.0,3.0,244.0,1886.557
1886567.0,211.0,32.0,3.0,238.0,1886.567
1886577.0,212.0,32.0,3.0,238.0,1886.577
1886587.0,210.0,32.0,5.0,240.0,1886.587
1886597.0,214.0,32.0,4.0,243.0,1886.597
1886607.0,216.0,33.0,4.0,244.0,1886.607
1886617.0,209.0,32.0,3.0,237.0,1886.617
1886627.0,211.0,32.0,3.0,238.0,1886.627
1886637.0,207.0,32.0,4.0,235.0,1886.637
1886647.0,213.0,32.0,4.0,243.0,1886.647
1886657.0,218.0,32.0,5.0,242.0,1886.657
1886667.0,208.0,32.0,4.0,235.0,1886.667
1886678.0,210.0,32.0,4.0,236.0,1886.678
1886688.0,211.0,33.0,3.0,241.0,1886.688
1886698.0,214.0,32.0,4.0,242.0,1886.698
1886708.0,214.0,33.0,3.0,239.0,1886.708
1886718.0,206.0,32.0,4.0,233.0,1886.718
1886728.0,209.0,32.0,4.0,237.0,1886.728
1886738.0,212.0,32.0,4.0,241.0,1886.738
1886748.0,214.0,33.0,3.0,243.0,1886.748
1886758.0,217.0,32.0,4.0,240.0,1886.758
1886768.0,211.0,32.0,4.0,236.0,1886.768
1886778.0,212.0,33.0,4.0,238.0,1886.778
1886788.0,216.0,32.0,4.0,244.0,1886.788
1886798.0,214.0,32.0,3.0,243.0,1886.798
1886808.0,217.0,32.0,4.0,242.0,1886.808
1886818.0,208.0,33.0,3.0,235.0,1886.818
1886828.0,210.0,32.0,4.0,238.0,1886.828
1886838.0,215.0,32.0,4.0,245.0,1886.838
1886848.0,214.0,32.0,4.0,244.0,1886.848
1886858.0,214.0,33.0,2.0,241.0,1886.858
1886868.0,206.0,32.0,4.0,233.0,1886.868
1886878.0,208.0,33.0,3.0,239.0,1886.878
1886888.0,214.0,32.0,4.0,244.0,1886.888
1886898.0,214.0,33.0,3.0,244.0,1886.898
1886908.0,214.0,33.0,4.0,241.0,1886.908
1886918.0,206.0,31.0,4.0,234.0,1886.918
1886928.0,209.0,32.0,4.0,239.0,1886.928
1886938.0,215.0,31.0,4.0,243.0,1886.938
1886948.0,216.0,33.0,4.0,244.0,1886.948
1886958.0,216.0,32.0,4.0,241.0,1886.958
1886968.0,207.0,31.0,4.0,233.0,1886.968
1886978.0,212.0,32.0,4.0,237.0,1886.978
1886988.0,214.0,32.0,4.0,242.0,1886.988
1886998.0,215.0,32.0,4.0,241.0,1886.998
1887008.0,215.0,33.0,3.0,240.0,1887.008
1887019.0,207.0,32.0,4.0,231.0,1887.019
1887029.0,211.0,33.0,4.0,240.0,1887.029
1887039.0,218.0,33.0,4.0,245.0,1887.039
1887049.0,212.0,31.0,4.0,239.0,1887.049
1887059.0,212.0,32.0,4.0,239.0,1887.059
1887069.0,205.0,33.0,4.0,234.0,1887.069
1887079.0,211.0,32.0,4.0,240.0,1887.079
1887089.0,221.0,32.0,4.0,246.0,1887.089
1887099.0,216.0,31.0,4.0,239.0,1887.099
1887109.0,216.0,32.0,3.0,240.0,1887.109
1887119.0,208.0,32.0,3.0,232.0,1887.119
1887129.0,215.0,32.0,4.0,243.0,1887.129
1887139.0,219.0,32.0,3.0,246.0,1887.139
1887149.0,216.0,32.0,4.0,241.0,1887.149
1887159.0,213.0,32.0,4.0,239.0,1887.159
1887169.0,207.0,31.0,5.0,232.0,1887.169
1887179.0,214.0,32.0,2.0,242.0,1887.179
1887190.0,218.0,32.0,4.0,244.0,1887.19
1887200.0,211.0,33.0,3.0,237.0,1887.2
1887210.0,211.0,31.0,4.0,237.0,1887.21
1887220.0,209.0,32.0,3.0,239.0,1887.22
1887230.0,215.0,31.0,5.0,243.0,1887.23
1887240.0,216.0,32.0,4.0,243.0,1887.24
1887250.0,210.0,31.0,4.0,236.0,1887.25
1887260.0,211.0,32.0,3.0,239.0,1887.26
1887270.0,211.0,32.0,4.0,240.0,1887.27
1887280.0,215.0,32.0,4.0,244.0,1887.28
1887290.0,217.0,32.0,4.0,243.0,1887.29
1887300.0,210.0,31.0,4.0,236.0,1887.3
1887310.0,211.0,32.0,3.0,237.0,1887.31
1887320.0,208.0,32.0,4.0,235.0,1887.32
1887330.0,215.0,31.0,3.0,243.0,1887.33
1887340.0,217.0,32.0,4.0,242.0,1887.34
1887350.0,209.0,31.0,4.0,234.0,1887.35
1887360.0,212.0,31.0,4.0,237.0,1887.36
1887370.0,208.0,31.0,4.0,236.0,1887.37
1887380.0,211.0,31.0,4.0,241.0,1887.38
1887390.0,213.0,33.0,3.0,241.0,1887.39
1887400.0,205.0,31.0,4.0,233.0,1887.4
1887410.0,208.0,32.0,3.0,237.0,1887.41
1887420.0,207.0,32.0,5.0,237.0,1887.42
1887430.0,212.0,31.0,4.0,243.0,1887.43
1887440.0,214.0,32.0,4.0,241.0,1887.44
1887450.0,208.0,31.0,3.0,237.0,1887.45
1887460.0,209.0,32.0,4.0,237.0,1887.46
1887470.0,209.0,32.0,4.0,239.0,1887.47
1887480.0,213.0,31.0,4.0,243.0,1887.48
1887490.0,215.0,32.0,4.0,242.0,1887.49
1887500.0,208.0,32.0,4.0,235.0,1887.5
1887510.0,210.0,32.0,4.0,237.0,1887.51
1887520.0,211.0,33.0,3.0,241.0,1887.52
1887531.0,214.0,32.0,4.0,243.0,1887.531
1887541.0,212.0,32.0,4.0,241.0,1887.541
1887551.0,205.0,32.0,5.0,232.0,1887.551
1887561.0,208.0,31.0,4.0,238.0,1887.561
1887571.0,215.0,32.0,4.0,244.0,1887.571
1887581.0,214.0,31.0,4.0,242.0,1887.581
1887591.0,213.0,32.0,3.0,240.0,1887.591
1887601.0,206.0,32.0,4.0,232.0,1887.601
1887611.0,211.0,32.0,4.0,239.0,1887.611
1887621.0,214.0,32.0,4.0,242.0,1887.621
1887631.0,215.0,32.0,4.0,242.0,1887.631
1887641.0,214.0,32.0,4.0,241.0,1887.641
1887651.0,207.0,32.0,3.0,233.0,1887.651
1887661.0,211.0,32.0,4.0,237.0,1887.661
1887671.0,216.0,32.0,4.0,244.0,1887.671
1887681.0,216.0,33.0,4.0,243.0,1887.681
1887691.0,214.0,33.0,4.0,240.0,1887.691
1887702.0,209.0,32.0,3.0,231.0,1887.702
1887712.0,216.0,33.0,3.0,241.0,1887.712
1887722.0,220.0,32.0,4.0,244.0,1887.722
1887732.0,215.0,32.0,3.0,238.0,1887.732
1887742.0,215.0,32.0,4.0,237.0,1887.742
1887752.0,208.0,32.0,4.0,232.0,1887.752
1887762.0,216.0,32.0,3.0,241.0,1887.762
1887772.0,219.0,33.0,3.0,244.0,1887.772
1887782.0,213.0,32.0,3.0,237.0,1887.782
1887792.0,214.0,32.0,4.0,239.0,1887.792
1887802.0,207.0,33.0,4.0,234.0,1887.802
1887812.0,216.0,33.0,4.0,243.0,1887.812
1887822.0,218.0,33.0,4.0,244.0,1887.822
1887832.0,215.0,32.0,4.0,240.0,1887.832
