time (ms),signal 0,signal 1,signal 2,signal 3,time (sec)
1905291.0,211.0,32.0,63.0,240.0,1905.291
1905301.0,202.0,32.0,70.0,236.0,1905.301
1905311.0,205.0,32.0,62.0,237.0,1905.311
1905321.0,211.0,32.0,68.0,244.0,1905.321
1905331.0,209.0,32.0,74.0,242.0,1905.331
1905341.0,211.0,32.0,68.0,238.0,1905.341
1905351.0,201.0,32.0,73.0,233.0,1905.351
1905361.0,206.0,31.0,66.0,238.0,1905.361
1905371.0,208.0,32.0,72.0,241.0,1905.371
1905381.0,210.0,30.0,79.0,242.0,1905.381
1905391.0,210.0,33.0,72.0,239.0,1905.391
1905401.0,201.0,32.0,79.0,232.0,1905.401
1905411.0,206.0,32.0,71.0,236.0,1905.411
1905421.0,210.0,32.0,79.0,242.0,1905.421
1905431.0,209.0,33.0,85.0,243.0,1905.431
1905441.0,210.0,32.0,78.0,239.0,1905.441
1905451.0,203.0,32.0,85.0,236.0,1905.451
1905461.0,206.0,33.0,77.0,238.0,1905.461
1905471.0,211.0,32.0,82.0,244.0,1905.471
1905481.0,208.0,32.0,88.0,242.0,1905.481
1905491.0,210.0,33.0,81.0,240.0,1905.491
1905501.0,203.0,32.0,87.0,234.0,1905.501
1905511.0,205.0,32.0,80.0,237.0,1905.511
1905521.0,212.0,32.0,85.0,243.0,1905.521
1905531.0,209.0,32.0,92.0,241.0,1905.531
1905541.0,212.0,32.0,84.0,240.0,1905.541
1905551.0,203.0,31.0,90.0,234.0,1905.551
1905561.0,206.0,32.0,83.0,238.0,1905.561
1905571.0,213.0,32.0,89.0,244.0,1905.571
1905581.0,210.0,31.0,96.0,244.0,1905.581
1905591.0,213.0,32.0,88.0,241.0,1905.591
1905601.0,203.0,31.0,94.0,235.0,1905.601
1905611.0,209.0,32.0,89.0,240.0,1905.611
1905622.0,214.0,33.0,91.0,246.0,1905.622
1905632.0,209.0,32.0,99.0,241.0,1905.632
1905642.0,211.0,32.0,92.0,240.0,1905.642
1905652.0,203.0,32.0,95.0,236.0,1905.652
1905662.0,211.0,31.0,98.0,245.0,1905.662
1905672.0,214.0,33.0,96.0,247.0,1905.672
1905682.0,209.0,31.0,103.0,242.0,1905.682
1905692.0,210.0,33.0,96.0,241.0,1905.692
1905702.0,205.0,32.0,99.0,237.0,1905.702
1905712.0,209.0,32.0,97.0,242.0,1905.712
1905722.0,216.0,32.0,100.0,246.0,1905.722
1905732.0,208.0,32.0,106.0,242.0,1905.732
1905742.0,210.0,32.0,99.0,240.0,1905.742
1905752.0,203.0,32.0,103.0,236.0,1905.752
1905762.0,210.0,32.0,103.0,244.0,1905.762
1905772.0,216.0,33.0,102.0,247.0,1905.772
1905782.0,209.0,32.0,110.0,241.0,1905.782
1905792.0,214.0,31.0,103.0,241.0,1905.792
1905802.0,204.0,32.0,105.0,235.0,1905.802
1905812.0,212.0,32.0,107.0,244.0,1905.812
1905822.0,217.0,33.0,105.0,246.0,1905.822
1905832.0,208.0,32.0,111.0,239.0,1905.832
1905842.0,213.0,33.0,105.0,241.0,1905.842
1905852.0,206.0,32.0,108.0,235.0,1905.852
1905862.0,212.0,32.0,110.0,244.0,1905.862
1905872.0,218.0,32.0,107.0,245.0,1905.872
1905882.0,211.0,33.0,113.0,241.0,1905.882
1905892.0,214.0,32.0,107.0,240.0,1905.892
1905902.0,206.0,33.0,108.0,236.0,1905.902
1905912.0,214.0,32.0,113.0,245.0,1905.912
1905922.0,218.0,33.0,108.0,246.0,1905.922
1905932.0,210.0,32.0,114.0,241.0,1905.932
1905942.0,214.0,33.0,107.0,241.0,1905.942
1905952.0,208.0,32.0,109.0,238.0,1905.952
1905963.0,214.0,32.0,115.0,246.0,1905.963
1905973.0,220.0,33.0,109.0,245.0,1905.973
1905983.0,207.0,31.0,114.0,237.0,1905.983
1905993.0,212.0,32.0,107.0,239.0,1905.993
1906003.0,214.0,32.0,111.0,244.0,1906.003
1906013.0,215.0,33.0,118.0,246.0,1906.013
1906023.0,218.0,32.0,112.0,244.0,1906.023
1906033.0,207.0,32.0,115.0,238.0,1906.033
1906043.0,211.0,33.0,110.0,239.0,1906.043
1906053.0,209.0,33.0,113.0,241.0,1906.053
1906063.0,215.0,32.0,120.0,246.0,1906.063
1906073.0,219.0,34.0,113.0,245.0,1906.073
1906083.0,207.0,32.0,117.0,236.0,1906.083
1906093.0,213.0,32.0,112.0,239.0,1906.093
1906103.0,211.0,32.0,116.0,241.0,1906.103
1906113.0,214.0,33.0,124.0,246.0,1906.113
1906123.0,217.0,33.0,116.0,243.0,1906.123
1906134.0,207.0,33.0,120.0,236.0,1906.134
1906144.0,210.0,33.0,114.0,240.0,1906.144
1906154.0,217.0,32.0,118.0,246.0,1906.154
1906164.0,212.0,32.0,125.0,243.0,1906.164
1906174.0,215.0,33.0,118.0,242.0,1906.174
1906184.0,206.0,32.0,122.0,235.0,1906.184
1906194.0,210.0,32.0,118.0,241.0,1906.194
1906204.0,218.0,33.0,121.0,249.0,1906.204
1906214.0,213.0,32.0,127.0,243.0,1906.214
1906224.0,217.0,33.0,121.0,243.0,1906.224
1906234.0,206.0,32.0,124.0,235.0,1906.234
1906244.0,210.0,33.0,120.0,241.0,1906.244
1906254.0,217.0,33.0,122.0,246.0,1906.254
1906264.0,214.0,33.0,130.0,245.0,1906.264
1906274.0,216.0,32.0,123.0,242.0,1906.274
1906284.0,205.0,33.0,125.0,234.0,1906.284
1906294.0,212.0,32.0,125.0,242.0,1906.294
1906304.0,216.0,32.0,125.0,245.0,1906.304
1906314.0,213.0,32.0,132.0,243.0,1906.314
1906324.0,214.0,33.0,125.0,241.0,1906.324
1906334.0,206.0,32.0,127.0,233.0,1906.334
1906344.0,213.0,32.0,128.0,240.0,1906.344
1906354.0,215.0,32.0,127.0,244.0,1906.354
1906364.0,215.0,32.0,136.0,242.0,1906.364
1906374.0,214.0,33.0,128.0,240.0,1906.374
1906384.0,205.0,32.0,129.0,233.0,1906.384
1906394.0,211.0,33.0,127.0,239.0,1906.394
1906404.0,218.0,32.0,129.0,244.0,1906.404
1906414.0,213.0,32.0,137.0,241.0,1906.414
1906424.0,214.0,33.0,132.0,240.0,1906.424
1906434.0,207.0,32.0,134.0,235.0,1906.434
1906444.0,212.0,32.0,132.0,241.0,1906.444
1906454.0,218.0,33.0,134.0,248.0,1906.454
1906464.0,211.0,32.0,141.0,243.0,1906.464
1906475.0,213.0,33.0,133.0,242.0,1906.475
1906485.0,205.0,33.0,135.0,238.0,1906.485
1906495.0,214.0,32.0,141.0,245.0,1906.495
1906505.0,215.0,34.0,136.0,246.0,1906.505
1906515.0,206.0,32.0,141.0,240.0,1906.515
1906525.0,211.0,34.0,136.0,242.0,1906.525
1906535.0,207.0,32.0,138.0,237.0,1906.535
1906545.0,214.0,32.0,143.0,245.0,1906.545
1906555.0,219.0,32.0,138.0,243.0,1906.555
1906565.0,212.0,32.0,144.0,240.0,1906.565
1906575.0,218.0,32.0,138.0,241.0,1906.575
1906585.0,212.0,33.0,137.0,239.0,1906.585
1906595.0,220.0,32.0,143.0,245.0,1906.595
1906605.0,224.0,33.0,137.0,246.0,1906.605
1906615.0,217.0,32.0,142.0,239.0,1906.615
1906625.0,217.0,31.0,136.0,239.0,1906.625
1906635.0,214.0,33.0,137.0,241.0,1906.635
1906646.0,219.0,32.0,144.0,246.0,1906.646
1906656.0,219.0,34.0,136.0,242.0,1906.656
1906666.0,212.0,32.0,138.0,234.0,1906.666
1906676.0,217.0,32.0,133.0,236.0,1906.676
1906686.0,230.0,32.0,138.0,243.0,1906.686
1906696.0,228.0,32.0,142.0,240.0,1906.696
1906706.0,230.0,33.0,136.0,241.0,1906.706
1906716.0,217.0,33.0,137.0,232.0,1906.716
1906726.0,214.0,32.0,133.0,234.0,1906.726
1906736.0,218.0,33.0,133.0,235.0,1906.736
1906746.0,222.0,32.0,145.0,240.0,1906.746
1906756.0,223.0,33.0,137.0,238.0,1906.756
1906766.0,212.0,32.0,139.0,233.0,1906.766
1906776.0,215.0,33.0,137.0,239.0,1906.776
1906786.0,217.0,32.0,139.0,245.0,1906.786
1906796.0,217.0,32.0,146.0,246.0,1906.796
1906806.0,223.0,33.0,140.0,245.0,1906.806
1906816.0,217.0,31.0,141.0,241.0,1906.816
1906826.0,218.0,33.0,135.0,241.0,1906.826
1906836.0,226.0,32.0,139.0,245.0,1906.836
1906846.0,221.0,33.0,142.0,242.0,1906.846
1906856.0,221.0,32.0,136.0,241.0,1906.856
1906866.0,213.0,32.0,137.0,238.0,1906.866
1906876.0,218.0,33.0,134.0,242.0,1906.876
1906886.0,223.0,33.0,133.0,246.0,1906.886
1906896.0,225.0,32.0,137.0,245.0,1906.896
1906906.0,226.0,33.0,131.0,249.0,1906.906
1906916.0,217.0,32.0,136.0,244.0,1906.916
1906926.0,223.0,33.0,134.0,249.0,1906.926
1906936.0,229.0,33.0,135.0,256.0,1906.936
1906946.0,225.0,33.0,146.0,253.0,1906.946
1906956.0,229.0,33.0,142.0,256.0,1906.956
1906966.0,222.0,33.0,142.0,244.0,1906.966
1906976.0,227.0,33.0,139.0,247.0,1906.976
1906987.0,231.0,33.0,138.0,249.0,1906.987
1906997.0,225.0,33.0,145.0,243.0,1906.997
1907007.0,228.0,33.0,139.0,239.0,1907.007
1907017.0,215.0,32.0,136.0,228.0,1907.017
1907027.0,227.0,32.0,144.0,245.0,1907.027
1907037.0,232.0,33.0,141.0,249.0,1907.037
1907047.0,227.0,32.0,147.0,241.0,1907.047
1907057.0,226.0,33.0,141.0,244.0,1907.057
1907067.0,218.0,32.0,139.0,234.0,1907.067
1907077.0,221.0,33.0,139.0,241.0,1907.077
1907087.0,230.0,33.0,141.0,243.0,1907.087
1907097.0,225.0,33.0,146.0,241.0,1907.097
1907107.0,226.0,32.0,141.0,246.0,1907.107
1907117.0,221.0,32.0,144.0,239.0,1907.117
1907127.0,229.0,33.0,143.0,248.0,1907.127
1907137.0,234.0,32.0,141.0,249.0,1907.137
1907147.0,227.0,32.0,148.0,243.0,1907.147
1907158.0,231.0,32.0,142.0,243.0,1907.158
1907168.0,225.0,32.0,141.0,237.0,1907.168
1907178.0,234.0,32.0,149.0,243.0,1907.178
1907188.0,233.0,32.0,144.0,242.0,1907.188
1907198.0,222.0,31.0,147.0,231.0,1907.198
1907208.0,222.0,32.0,141.0,236.0,1907.208
1907218.0,221.0,31.0,149.0,246.0,1907.218
1907228.0,236.0,31.0,158.0,251.0,1907.228
1907238.0,236.0,32.0,151.0,252.0,1907.238
1907248.0,232.0,32.0,156.0,246.0,1907.248
1907258.0,232.0,32.0,149.0,245.0,1907.258
1907268.0,229.0,32.0,155.0,245.0,1907.268
1907278.0,229.0,32.0,162.0,245.0,1907.278
1907288.0,238.0,32.0,156.0,250.0,1907.288
1907298.0,233.0,32.0,162.0,242.0,1907.298
1907308.0,235.0,32.0,156.0,243.0,1907.308
1907318.0,235.0,32.0,160.0,246.0,1907.318
1907328.0,234.0,31.0,168.0,251.0,1907.328
1907338.0,234.0,32.0,163.0,249.0,1907.338
1907348.0,222.0,31.0,166.0,239.0,1907.348
1907358.0,227.0,32.0,160.0,240.0,1907.358
1907368.0,229.0,32.0,164.0,242.0,1907.368
1907378.0,231.0,32.0,175.0,250.0,1907.378
1907388.0,237.0,32.0,172.0,255.0,1907.388
1907398.0,229.0,31.0,180.0,251.0,1907.398
1907408.0,232.0,32.0,173.0,253.0,1907.408
1907418.0,231.0,33.0,175.0,251.0,1907.418
1907428.0,237.0,32.0,183.0,255.0,1907.428
1907438.0,238.0,32.0,177.0,255.0,1907.438
1907448.0,228.0,32.0,182.0,246.0,1907.448
1907458.0,233.0,31.0,176.0,250.0,1907.458
1907468.0,238.0,32.0,182.0,252.0,1907.468
1907478.0,245.0,32.0,191.0,262.0,1907.478
1907488.0,242.0,33.0,183.0,260.0,1907.488
1907499.0,229.0,32.0,188.0,255.0,1907.499
1907509.0,228.0,33.0,182.0,257.0,1907.509
1907519.0,234.0,32.0,186.0,259.0,1907.519
1907529.0,231.0,32.0,192.0,257.0,1907.529
1907539.0,229.0,32.0,184.0,255.0,1907.539
1907549.0,224.0,33.0,189.0,253.0,1907.549
1907559.0,223.0,32.0,185.0,254.0,1907.559
1907569.0,229.0,33.0,187.0,259.0,1907.569
1907579.0,227.0,32.0,198.0,256.0,1907.579
1907589.0,227.0,32.0,190.0,253.0,1907.589
1907599.0,221.0,32.0,187.0,239.0,1907.599
1907609.0,223.0,33.0,184.0,241.0,1907.609
1907619.0,229.0,32.0,187.0,246.0,1907.619
1907629.0,228.0,32.0,195.0,244.0,1907.629
1907639.0,225.0,33.0,188.0,241.0,1907.639
1907649.0,216.0,31.0,190.0,234.0,1907.649
1907659.0,219.0,32.0,187.0,235.0,1907.659
1907670.0,225.0,32.0,191.0,248.0,1907.67
1907680.0,222.0,33.0,196.0,241.0,1907.68
1907690.0,222.0,32.0,189.0,240.0,1907.69
1907700.0,217.0,32.0,195.0,243.0,1907.7
1907710.0,226.0,33.0,202.0,253.0,1907.71
1907720.0,226.0,33.0,195.0,251.0,1907.72
1907730.0,222.0,32.0,200.0,242.0,1907.73
1907740.0,223.0,34.0,192.0,242.0,1907.74
1907750.0,221.0,32.0,194.0,238.0,1907.75
1907760.0,226.0,32.0,200.0,248.0,1907.76
1907770.0,230.0,33.0,198.0,246.0,1907.77
1907780.0,223.0,32.0,201.0,238.0,1907.78
1907790.0,223.0,33.0,194.0,239.0,1907.79
1907800.0,229.0,32.0,200.0,239.0,1907.8
1907810.0,234.0,32.0,205.0,250.0,1907.81
1907820.0,241.0,33.0,204.0,254.0,1907.82
1907830.0,236.0,32.0,211.0,249.0,1907.83
1907840.0,236.0,32.0,204.0,251.0,1907.84
1907850.0,225.0,32.0,202.0,237.0,1907.85
1907860.0,230.0,32.0,202.0,239.0,1907.86
1907870.0,232.0,34.0,202.0,246.0,1907.87
1907880.0,224.0,32.0,205.0,239.0,1907.88
1907890.0,230.0,33.0,200.0,241.0,1907.89
1907900.0,225.0,33.0,205.0,240.0,1907.9
1907910.0,232.0,32.0,210.0,248.0,1907.91
1907920.0,235.0,33.0,207.0,248.0,1907.92
1907930.0,230.0,33.0,214.0,248.0,1907.93
1907940.0,226.0,33.0,207.0,250.0,1907.94
1907950.0,220.0,32.0,207.0,248.0,1907.95
1907960.0,224.0,33.0,214.0,251.0,1907.96
1907970.0,227.0,33.0,209.0,251.0,1907.97
1907980.0,223.0,33.0,209.0,241.0,1907.98
1907990.0,225.0,33.0,202.0,239.0,1907.99
1908000.0,221.0,33.0,200.0,234.0,1908.0
1908011.0,228.0,32.0,209.0,240.0,1908.011
1908021.0,229.0,33.0,205.0,243.0,1908.021
1908031.0,223.0,32.0,209.0,240.0,1908.031
1908041.0,222.0,33.0,204.0,245.0,1908.041
1908051.0,226.0,32.0,208.0,251.0,1908.051
1908061.0,228.0,33.0,216.0,252.0,1908.061
1908071.0,229.0,33.0,211.0,250.0,1908.071
1908081.0,223.0,33.0,211.0,243.0,1908.081
1908091.0,227.0,33.0,210.0,246.0,1908.091
1908101.0,225.0,32.0,208.0,246.0,1908.101
1908111.0,230.0,32.0,217.0,249.0,1908.111
1908121.0,230.0,33.0,211.0,248.0,1908.121
1908131.0,222.0,32.0,210.0,238.0,1908.131
1908141.0,224.0,33.0,208.0,243.0,1908.141
1908151.0,224.0,33.0,210.0,242.0,1908.151
1908161.0,229.0,33.0,219.0,247.0,1908.161
1908171.0,228.0,33.0,211.0,244.0,1908.171
1908182.0,226.0,32.0,215.0,241.0,1908.182
1908192.0,230.0,34.0,213.0,247.0,1908.192
1908202.0,235.0,32.0,218.0,253.0,1908.202
1908212.0,231.0,33.0,224.0,250.0,1908.212
1908222.0,232.0,33.0,217.0,250.0,1908.222
1908232.0,224.0,33.0,217.0,242.0,1908.232
1908242.0,226.0,33.0,217.0,246.0,1908.242
1908252.0,230.0,34.0,220.0,254.0,1908.252
1908262.0,227.0,32.0,224.0,252.0,1908.262
1908272.0,228.0,33.0,217.0,255.0,1908.272
1908282.0,221.0,33.0,218.0,244.0,1908.282
1908292.0,224.0,33.0,220.0,251.0,1908.292
1908302.0,230.0,33.0,221.0,255.0,1908.302
1908312.0,228.0,33.0,226.0,254.0,1908.312
1908322.0,227.0,34.0,219.0,251.0,1908.322
1908332.0,221.0,33.0,217.0,241.0,1908.332
1908342.0,227.0,33.0,222.0,253.0,1908.342
1908352.0,229.0,33.0,222.0,258.0,1908.352
1908362.0,226.0,33.0,226.0,255.0,1908.362
1908372.0,225.0,33.0,219.0,255.0,1908.372
1908382.0,217.0,34.0,215.0,250.0,1908.382
1908392.0,224.0,32.0,221.0,256.0,1908.392
1908402.0,227.0,33.0,221.0,259.0,1908.402
1908412.0,226.0,33.0,224.0,251.0,1908.412
1908422.0,222.0,33.0,214.0,250.0,1908.422
1908432.0,217.0,32.0,214.0,241.0,1908.432
1908442.0,221.0,33.0,216.0,249.0,1908.442
1908452.0,226.0,33.0,219.0,253.0,1908.452
1908462.0,224.0,33.0,222.0,248.0,1908.462
1908472.0,220.0,33.0,213.0,247.0,1908.472
1908482.0,215.0,33.0,214.0,238.0,1908.482
1908492.0,218.0,34.0,214.0,246.0,1908.492
1908502.0,224.0,33.0,218.0,249.0,1908.502
1908512.0,221.0,33.0,219.0,241.0,1908.512
1908523.0,219.0,33.0,213.0,241.0,1908.523
1908533.0,213.0,32.0,210.0,237.0,1908.533
1908543.0,222.0,33.0,219.0,245.0,1908.543
1908553.0,224.0,33.0,217.0,247.0,1908.553
1908563.0,219.0,33.0,214.0,237.0,1908.563
1908573.0,220.0,34.0,211.0,240.0,1908.573
1908583.0,215.0,32.0,209.0,236.0,1908.583
1908593.0,223.0,33.0,217.0,242.0,1908.593
1908603.0,224.0,33.0,216.0,245.0,1908.603
1908613.0,220.0,33.0,215.0,240.0,1908.613
1908623.0,219.0,33.0,210.0,240.0,1908.623
1908633.0,216.0,33.0,209.0,238.0,1908.633
1908643.0,222.0,32.0,217.0,244.0,1908.643
1908653.0,224.0,32.0,215.0,246.0,1908.653
1908663.0,219.0,33.0,213.0,239.0,1908.663
1908673.0,217.0,33.0,208.0,240.0,1908.673
1908683.0,215.0,33.0,207.0,239.0,1908.683
1908694.0,222.0,33.0,216.0,244.0,1908.694
1908704.0,222.0,34.0,210.0,244.0,1908.704
1908714.0,215.0,32.0,204.0,233.0,1908.714
1908724.0,216.0,33.0,203.0,234.0,1908.724
1908734.0,221.0,33.0,208.0,241.0,1908.734
1908744.0,222.0,32.0,210.0,242.0,1908.744
1908754.0,221.0,32.0,207.0,241.0,1908.754
1908764.0,214.0,33.0,203.0,235.0,1908.764
1908774.0,216.0,32.0,203.0,236.0,1908.774
1908784.0,218.0,32.0,203.0,239.0,1908.784
1908794.0,223.0,32.0,211.0,242.0,1908.794
1908804.0,220.0,33.0,205.0,241.0,1908.804
1908814.0,214.0,33.0,200.0,233.0,1908.814
1908824.0,217.0,33.0,202.0,239.0,1908.824
1908834.0,219.0,33.0,203.0,241.0,1908.834
1908844.0,223.0,32.0,210.0,242.0,1908.844
1908854.0,218.0,32.0,204.0,241.0,1908.854
1908864.0,214.0,32.0,201.0,235.0,1908.864
1908874.0,214.0,32.0,199.0,237.0,1908.874
1908884.0,217.0,32.0,202.0,241.0,1908.884
1908894.0,221.0,33.0,205.0,243.0,1908.894
1908904.0,218.0,32.0,201.0,240.0,1908.904
1908914.0,213.0,32.0,197.0,234.0,1908.914
1908924.0,216.0,32.0,199.0,236.0,1908.924
1908934.0,219.0,32.0,200.0,242.0,1908.934
1908944.0,220.0,32.0,202.0,240.0,1908.944
1908954.0,221.0,33.0,202.0,242.0,1908.954
1908964.0,213.0,32.0,193.0,232.0,1908.964
1908974.0,215.0,32.0,194.0,236.0,1908.974
1908984.0,220.0,33.0,198.0,243.0,1908.984
1908994.0,221.0,31.0,201.0,243.0,1908.994
1909004.0,216.0,33.0,199.0,242.0,1909.004
1909014.0,208.0,32.0,190.0,233.0,1909.014
1909024.0,210.0,33.0,194.0,239.0,1909.024
1909035.0,216.0,32.0,198.0,245.0,1909.035
1909045.0,215.0,32.0,197.0,241.0,1909.045
1909055.0,215.0,32.0,196.0,239.0,1909.055
1909065.0,208.0,32.0,187.0,232.0,1909.065
1909075.0,215.0,32.0,197.0,241.0,1909.075
1909085.0,218.0,34.0,197.0,246.0,1909.085
1909095.0,217.0,32.0,194.0,240.0,1909.095
1909105.0,215.0,32.0,194.0,239.0,1909.105
1909115.0,209.0,32.0,186.0,234.0,1909.115
1909125.0,213.0,31.0,192.0,240.0,1909.125
1909135.0,219.0,32.0,196.0,245.0,1909.135
1909145.0,216.0,32.0,192.0,241.0,1909.145
1909155.0,216.0,33.0,193.0,239.0,1909.155
1909165.0,210.0,32.0,184.0,232.0,1909.165
1909175.0,215.0,32.0,192.0,240.0,1909.175
1909185.0,221.0,33.0,196.0,245.0,1909.185
1909195.0,216.0,32.0,189.0,240.0,1909.195
1909206.0,215.0,32.0,192.0,239.0,1909.206
1909216.0,211.0,34.0,185.0,235.0,1909.216
1909226.0,218.0,32.0,194.0,244.0,1909.226
1909236.0,220.0,33.0,197.0,244.0,1909.236
1909246.0,214.0,32.0,186.0,235.0,1909.246
1909256.0,215.0,33.0,190.0,239.0,1909.256
1909266.0,213.0,32.0,185.0,236.0,1909.266
1909276.0,219.0,33.0,194.0,243.0,1909.276
1909286.0,219.0,33.0,197.0,242.0,1909.286
1909296.0,213.0,32.0,187.0,237.0,1909.296
1909306.0,214.0,33.0,190.0,238.0,1909.306
1909316.0,212.0,33.0,186.0,238.0,1909.316
1909326.0,217.0,32.0,193.0,245.0,1909.326
1909336.0,219.0,33.0,196.0,247.0,1909.336
1909346.0,213.0,33.0,186.0,238.0,1909.346
1909356.0,213.0,32.0,188.0,239.0,1909.356
1909366.0,213.0,32.0,184.0,240.0,1909.366
1909376.0,217.0,32.0,191.0,243.0,1909.376
1909386.0,218.0,33.0,194.0,246.0,1909.386
1909396.0,212.0,32.0,184.0,237.0,1909.396
1909406.0,214.0,33.0,187.0,240.0,1909.406
1909416.0,215.0,32.0,185.0,242.0,1909.416
1909426.0,217.0,32.0,191.0,245.0,1909.426
1909436.0,221.0,33.0,194.0,245.0,1909.436
1909446.0,214.0,31.0,181.0,237.0,1909.446
1909456.0,214.0,32.0,184.0,239.0,1909.456
1909466.0,211.0,33.0,179.0,237.0,1909.466
1909476.0,219.0,33.0,188.0,244.0,1909.476
1909486.0,220.0,33.0,191.0,244.0,1909.486
1909496.0,213.0,33.0,180.0,235.0,1909.496
1909506.0,216.0,32.0,185.0,239.0,1909.506
1909516.0,213.0,33.0,179.0,238.0,1909.516
1909526.0,219.0,32.0,188.0,244.0,1909.526
1909536.0,219.0,34.0,191.0,242.0,1909.536
1909547.0,213.0,32.0,180.0,234.0,1909.547
1909557.0,214.0,32.0,184.0,237.0,1909.557
1909567.0,220.0,32.0,186.0,244.0,1909.567
1909577.0,219.0,32.0,188.0,242.0,1909.577
1909587.0,218.0,33.0,188.0,239.0,1909.587
1909597.0,212.0,33.0,181.0,234.0,1909.597
1909607.0,214.0,32.0,183.0,237.0,1909.607
1909617.0,220.0,32.0,185.0,244.0,1909.617
1909627.0,219.0,32.0,188.0,240.0,1909.627
1909637.0,219.0,33.0,190.0,242.0,1909.637
1909647.0,212.0,32.0,180.0,233.0,1909.647
1909657.0,214.0,32.0,183.0,238.0,1909.657
1909667.0,223.0,32.0,187.0,244.0,1909.667
1909677.0,221.0,32.0,189.0,242.0,1909.677
1909687.0,219.0,32.0,189.0,241.0,1909.687
1909697.0,213.0,31.0,180.0,234.0,1909.697
1909707.0,215.0,33.0,184.0,240.0,1909.707
1909718.0,221.0,32.0,187.0,246.0,1909.718
1909728.0,218.0,33.0,186.0,241.0,1909.728
1909738.0,217.0,32.0,186.0,240.0,1909.738
1909748.0,212.0,32.0,177.0,234.0,1909.748
1909758.0,219.0,32.0,189.0,243.0,1909.758
1909768.0,221.0,33.0,186.0,245.0,1909.768
1909778.0,217.0,31.0,186.0,239.0,1909.778
1909788.0,216.0,33.0,185.0,240.0,1909.788
1909798.0,211.0,32.0,179.0,234.0,1909.798
1909808.0,218.0,32.0,187.0,241.0,1909.808
1909818.0,220.0,33.0,189.0,245.0,1909.818
1909828.0,217.0,31.0,185.0,238.0,1909.828
1909838.0,215.0,32.0,186.0,239.0,1909.838
1909848.0,210.0,32.0,179.0,233.0,1909.848
1909858.0,216.0,32.0,187.0,242.0,1909.858
1909868.0,221.0,32.0,189.0,245.0,1909.868
1909878.0,216.0,32.0,185.0,238.0,1909.878
1909888.0,217.0,32.0,187.0,240.0,1909.888
1909898.0,210.0,32.0,180.0,233.0,1909.898
1909908.0,218.0,32.0,189.0,241.0,1909.908
1909918.0,222.0,33.0,190.0,246.0,1909.918
1909928.0,219.0,32.0,186.0,236.0,1909.928
1909938.0,221.0,32.0,187.0,239.0,1909.938
1909948.0,214.0,32.0,181.0,232.0,1909.948
1909958.0,221.0,31.0,190.0,242.0,1909.958
1909968.0,224.0,32.0,191.0,245.0,1909.968
1909978.0,220.0,33.0,189.0,239.0,1909.978
1909988.0,218.0,33.0,187.0,238.0,1909.988
1909998.0,213.0,32.0,182.0,232.0,1909.998
1910008.0,220.0,32.0,193.0,242.0,1910.008
1910018.0,223.0,31.0,192.0,243.0,1910.018
1910028.0,218.0,32.0,190.0,238.0,1910.028
1910038.0,217.0,32.0,189.0,238.0,1910.038
1910048.0,212.0,33.0,184.0,235.0,1910.048
1910059.0,223.0,32.0,195.0,243.0,1910.059
1910069.0,224.0,32.0,194.0,244.0,1910.069
1910079.0,218.0,32.0,190.0,235.0,1910.079
1910089.0,218.0,32.0,188.0,238.0,1910.089
1910099.0,220.0,32.0,190.0,241.0,1910.099
1910109.0,221.0,33.0,196.0,245.0,1910.109
1910119.0,222.0,32.0,195.0,244.0,1910.119
1910129.0,215.0,32.0,188.0,235.0,1910.129
1910139.0,216.0,32.0,189.0,238.0,1910.139
1910149.0,215.0,32.0,187.0,238.0,1910.149
1910159.0,220.0,32.0,196.0,243.0,1910.159
1910169.0,220.0,33.0,195.0,243.0,1910.169
1910179.0,213.0,32.0,187.0,234.0,1910.179
1910189.0,217.0,32.0,189.0,237.0,1910.189
1910199.0,216.0,33.0,188.0,239.0,1910.199
1910209.0,221.0,32.0,197.0,243.0,1910.209
1910219.0,220.0,33.0,194.0,241.0,1910.219
1910230.0,213.0,32.0,189.0,232.0,1910.23
1910240.0,215.0,34.0,189.0,237.0,1910.24
1910250.0,220.0,32.0,193.0,243.0,1910.25
1910260.0,219.0,32.0,195.0,240.0,1910.26
1910270.0,217.0,33.0,192.0,238.0,1910.27
1910280.0,212.0,32.0,188.0,232.0,1910.28
1910290.0,215.0,32.0,190.0,237.0,1910.29
1910300.0,221.0,33.0,194.0,244.0,1910.3
1910310.0,218.0,32.0,196.0,240.0,1910.31
1910320.0,216.0,32.0,195.0,240.0,1910.32
1910330.0,207.0,32.0,189.0,231.0,1910.33
1910340.0,212.0,31.0,194.0,238.0,1910.34
1910350.0,218.0,32.0,196.0,243.0,1910.35
1910360.0,216.0,32.0,199.0,240.0,1910.36
1910370.0,215.0,34.0,195.0,238.0,1910.37
1910380.0,209.0,32.0,191.0,228.0,1910.38
1910390.0,213.0,32.0,195.0,238.0,1910.39
1910400.0,217.0,31.0,196.0,241.0,1910.4
1910410.0,216.0,32.0,199.0,240.0,1910.41
1910420.0,215.0,32.0,195.0,238.0,1910.42
1910430.0,208.0,33.0,191.0,231.0,1910.43
1910440.0,215.0,32.0,197.0,239.0,1910.44
1910450.0,217.0,32.0,197.0,244.0,1910.45
1910460.0,217.0,32.0,203.0,241.0,1910.46
1910470.0,216.0,32.0,197.0,240.0,1910.47
1910480.0,208.0,32.0,191.0,232.0,1910.48
1910490.0,208.0,32.0,194.0,238.0,1910.49
1910500.0,214.0,33.0,198.0,244.0,1910.5
1910510.0,213.0,32.0,201.0,239.0,1910.51
1910520.0,212.0,32.0,197.0,239.0,1910.52
1910530.0,208.0,31.0,195.0,232.0,1910.53
1910540.0,210.0,32.0,196.0,239.0,1910.54
1910550.0,217.0,32.0,200.0,244.0,1910.55
1910560.0,214.0,33.0,203.0,240.0,1910.56
1910571.0,213.0,32.0,198.0,239.0,1910.571
1910581.0,207.0,31.0,195.0,234.0,1910.581
1910591.0,216.0,32.0,206.0,243.0,1910.591
1910601.0,218.0,32.0,204.0,244.0,1910.601
1910611.0,212.0,32.0,201.0,235.0,1910.611
1910621.0,215.0,33.0,200.0,239.0,1910.621
1910631.0,210.0,32.0,198.0,234.0,1910.631
1910641.0,217.0,32.0,207.0,242.0,1910.641
1910651.0,220.0,33.0,207.0,243.0,1910.651
1910661.0,215.0,31.0,206.0,237.0,1910.661
1910671.0,214.0,32.0,201.0,238.0,1910.671
1910681.0,210.0,32.0,199.0,235.0,1910.681
1910691.0,217.0,32.0,210.0,242.0,1910.691
1910701.0,220.0,32.0,208.0,245.0,1910.701
1910711.0,213.0,31.0,208.0,237.0,1910.711
1910721.0,215.0,33.0,204.0,238.0,1910.721
1910731.0,211.0,32.0,202.0,236.0,1910.731
1910742.0,218.0,31.0,211.0,242.0,1910.742
1910752.0,218.0,33.0,207.0,242.0,1910.752
1910762.0,211.0,31.0,205.0,232.0,1910.762
1910772.0,213.0,32.0,203.0,235.0,1910.772
1910782.0,217.0,32.0,208.0,241.0,1910.782
1910792.0,213.0,32.0,213.0,241.0,1910.792
1910802.0,215.0,32.0,208.0,240.0,1910.802
1910812.0,207.0,32.0,207.0,232.0,1910.812
1910822.0,209.0,32.0,206.0,236.0,1910.822
1910832.0,210.0,32.0,207.0,239.0,1910.832
1910842.0,215.0,32.0,216.0,242.0,1910.842
1910852.0,215.0,31.0,209.0,241.0,1910.852
1910862.0,208.0,32.0,206.0,232.0,1910.862
1910872.0,211.0,32.0,206.0,237.0,1910.872
1910882.0,213.0,33.0,208.0,240.0,1910.882
1910892.0,216.0,32.0,215.0,242.0,1910.892
1910902.0,217.0,33.0,208.0,240.0,1910.902
1910912.0,213.0,31.0,211.0,234.0,1910.912
1910922.0,212.0,32.0,207.0,236.0,1910.922
1910932.0,215.0,32.0,210.0,241.0,1910.932
1910942.0,217.0,33.0,217.0,243.0,1910.942
1910952.0,216.0,32.0,210.0,241.0,1910.952
1910962.0,211.0,31.0,211.0,234.0,1910.962
1910972.0,213.0,32.0,209.0,237.0,1910.972
1910982.0,216.0,31.0,212.0,242.0,1910.982
1910992.0,215.0,32.0,218.0,243.0,1910.992
1911002.0,218.0,33.0,213.0,244.0,1911.002
1911012.0,210.0,32.0,212.0,235.0,1911.012
1911022.0,212.0,32.0,209.0,237.0,1911.022
1911032.0,216.0,33.0,215.0,243.0,1911.032
1911042.0,218.0,33.0,220.0,243.0,1911.042
1911052.0,216.0,33.0,212.0,242.0,1911.052
1911062.0,210.0,32.0,212.0,233.0,1911.062
1911072.0,214.0,34.0,210.0,238.0,1911.072
1911083.0,219.0,34.0,217.0,244.0,1911.083
1911093.0,217.0,33.0,219.0,241.0,1911.093
1911103.0,216.0,33.0,214.0,239.0,1911.103
1911113.0,208.0,33.0,210.0,232.0,1911.113
1911123.0,215.0,33.0,218.0,241.0,1911.123
1911133.0,219.0,34.0,220.0,247.0,1911.133
1911143.0,216.0,33.0,222.0,242.0,1911.143
1911153.0,216.0,33.0,216.0,241.0,1911.153
1911163.0,209.0,33.0,215.0,234.0,1911.163
1911173.0,213.0,33.0,218.0,240.0,1911.173
1911183.0,219.0,34.0,222.0,247.0,1911.183
1911193.0,215.0,33.0,223.0,241.0,1911.193
1911203.0,214.0,35.0,215.0,241.0,1911.203
1911213.0,208.0,33.0,214.0,232.0,1911.213
1911223.0,213.0,34.0,217.0,240.0,1911.223
1911233.0,220.0,34.0,222.0,244.0,1911.233
1911243.0,216.0,34.0,220.0,238.0,1911.243
1911254.0,219.0,33.0,215.0,239.0,1911.254
1911264.0,212.0,34.0,214.0,235.0,1911.264
1911274.0,219.0,33.0,222.0,242.0,1911.274
1911284.0,221.0,33.0,219.0,243.0,1911.284
1911294.0,214.0,32.0,219.0,234.0,1911.294
1911304.0,216.0,32.0,214.0,238.0,1911.304
1911314.0,211.0,32.0,215.0,236.0,1911.314
1911324.0,219.0,33.0,225.0,245.0,1911.324
1911334.0,219.0,33.0,220.0,244.0,1911.334
1911344.0,214.0,32.0,221.0,238.0,1911.344
1911354.0,215.0,33.0,216.0,238.0,1911.354
1911364.0,212.0,33.0,217.0,237.0,1911.364
1911374.0,217.0,33.0,226.0,243.0,1911.374
1911384.0,219.0,33.0,223.0,245.0,1911.384
1911394.0,213.0,33.0,221.0,238.0,1911.394
1911404.0,210.0,32.0,216.0,238.0,1911.404
1911414.0,208.0,32.0,217.0,240.0,1911.414
1911424.0,213.0,33.0,223.0,243.0,1911.424
1911434.0,216.0,33.0,220.0,245.0,1911.434
1911444.0,210.0,32.0,219.0,236.0,1911.444
1911454.0,212.0,33.0,214.0,239.0,1911.454
1911464.0,212.0,32.0,217.0,240.0,1911.464
1911474.0,215.0,32.0,223.0,243.0,1911.474
1911484.0,218.0,33.0,220.0,245.0,1911.484
1911494.0,211.0,31.0,220.0,236.0,1911.494
1911504.0,212.0,33.0,215.0,238.0,1911.504
1911514.0,209.0,32.0,215.0,236.0,1911.514
1911524.0,216.0,33.0,224.0,244.0,1911.524
1911534.0,218.0,32.0,219.0,244.0,1911.534
1911544.0,209.0,32.0,217.0,235.0,1911.544
1911554.0,214.0,32.0,216.0,239.0,1911.554
1911564.0,210.0,32.0,214.0,236.0,1911.564
1911574.0,212.0,32.0,223.0,243.0,1911.574
1911584.0,214.0,34.0,217.0,243.0,1911.584
1911595.0,206.0,32.0,218.0,234.0,1911.595
1911605.0,208.0,32.0,213.0,238.0,1911.605
1911615.0,214.0,32.0,222.0,243.0,1911.615
1911625.0,214.0,32.0,225.0,242.0,1911.625
1911635.0,214.0,32.0,216.0,239.0,1911.635
1911645.0,208.0,31.0,218.0,235.0,1911.645
1911655.0,211.0,32.0,216.0,238.0,1911.655
1911665.0,216.0,32.0,222.0,244.0,1911.665
1911675.0,214.0,32.0,225.0,242.0,1911.675
1911685.0,216.0,32.0,218.0,242.0,1911.685
1911695.0,208.0,32.0,218.0,233.0,1911.695
1911705.0,211.0,32.0,216.0,237.0,1911.705
1911715.0,216.0,33.0,223.0,244.0,1911.715
1911725.0,215.0,32.0,225.0,243.0,1911.725
1911735.0,216.0,32.0,217.0,241.0,1911.735
1911745.0,209.0,31.0,216.0,234.0,1911.745
1911755.0,212.0,32.0,216.0,239.0,1911.755
1911766.0,218.0,33.0,222.0,245.0,1911.766
1911776.0,215.0,33.0,223.0,241.0,1911.776
1911786.0,213.0,33.0,215.0,240.0,1911.786
1911796.0,207.0,32.0,213.0,234.0,1911.796
1911806.0,215.0,32.0,224.0,244.0,1911.806
1911816.0,218.0,31.0,222.0,246.0,1911.816
1911826.0,214.0,32.0,222.0,241.0,1911.826
1911836.0,214.0,32.0,216.0,241.0,1911.836
1911846.0,207.0,32.0,215.0,236.0,1911.846
1911856.0,213.0,32.0,219.0,240.0,1911.856
1911866.0,218.0,32.0,223.0,246.0,1911.866
1911876.0,214.0,31.0,222.0,241.0,1911.876
1911886.0,214.0,32.0,217.0,240.0,1911.886
1911896.0,207.0,32.0,217.0,233.0,1911.896
1911906.0,214.0,33.0,221.0,243.0,1911.906
1911916.0,218.0,32.0,223.0,247.0,1911.916
1911926.0,212.0,32.0,223.0,241.0,1911.926
1911936.0,214.0,32.0,218.0,241.0,1911.936
1911946.0,206.0,32.0,215.0,235.0,1911.946
1911956.0,214.0,32.0,222.0,243.0,1911.956
1911966.0,219.0,33.0,223.0,248.0,1911.966
1911976.0,212.0,32.0,223.0,240.0,1911.976
1911986.0,215.0,32.0,217.0,241.0,1911.986
1911996.0,207.0,32.0,216.0,235.0,1911.996
1912006.0,214.0,31.0,222.0,243.0,1912.006
1912016.0,216.0,32.0,222.0,245.0,1912.016
1912026.0,210.0,32.0,225.0,241.0,1912.026
1912036.0,211.0,33.0,217.0,239.0,1912.036
1912046.0,205.0,32.0,217.0,234.0,1912.046
1912056.0,213.0,32.0,225.0,244.0,1912.056
1912066.0,217.0,33.0,226.0,245.0,1912.066
1912076.0,211.0,32.0,224.0,240.0,1912.076
1912086.0,212.0,32.0,218.0,240.0,1912.086
1912096.0,207.0,33.0,218.0,237.0,1912.096
1912107.0,214.0,32.0,227.0,244.0,1912.107
1912117.0,217.0,32.0,223.0,245.0,1912.117
1912127.0,209.0,32.0,221.0,238.0,1912.127
1912137.0,210.0,33.0,215.0,238.0,1912.137
1912147.0,212.0,32.0,220.0,243.0,1912.147
1912157.0,214.0,33.0,224.0,246.0,1912.157
1912167.0,216.0,32.0,219.0,244.0,1912.167
1912177.0,208.0,32.0,217.0,237.0,1912.177
1912187.0,210.0,32.0,215.0,239.0,1912.187
1912197.0,209.0,31.0,216.0,239.0,1912.197
1912207.0,215.0,32.0,223.0,246.0,1912.207
1912217.0,218.0,33.0,218.0,244.0,1912.217
1912227.0,208.0,32.0,217.0,237.0,1912.227
1912237.0,212.0,32.0,214.0,240.0,1912.237
1912247.0,210.0,32.0,216.0,241.0,1912.247
1912257.0,216.0,33.0,223.0,246.0,1912.257
1912267.0,216.0,33.0,216.0,244.0,1912.267
1912278.0,207.0,32.0,215.0,237.0,1912.278
1912288.0,210.0,33.0,214.0,241.0,1912.288
1912298.0,215.0,33.0,221.0,246.0,1912.298
1912308.0,213.0,32.0,222.0,245.0,1912.308
1912318.0,214.0,32.0,216.0,242.0,1912.318
1912328.0,207.0,31.0,215.0,237.0,1912.328
1912338.0,210.0,32.0,215.0,241.0,1912.338
1912348.0,216.0,33.0,223.0,248.0,1912.348
1912358.0,213.0,32.0,223.0,244.0,1912.358
1912368.0,216.0,32.0,217.0,243.0,1912.368
1912378.0,205.0,32.0,215.0,237.0,1912.378
1912388.0,211.0,33.0,216.0,241.0,1912.388
1912398.0,215.0,33.0,223.0,246.0,1912.398
1912408.0,211.0,32.0,223.0,245.0,1912.408
1912418.0,212.0,33.0,216.0,243.0,1912.418
1912428.0,204.0,32.0,215.0,234.0,1912.428
1912438.0,209.0,33.0,217.0,242.0,1912.438
1912448.0,214.0,32.0,222.0,245.0,1912.448
1912458.0,213.0,32.0,224.0,245.0,1912.458
1912468.0,213.0,32.0,216.0,242.0,1912.468
1912478.0,205.0,33.0,215.0,236.0,1912.478
1912488.0,211.0,32.0,219.0,242.0,1912.488
1912498.0,215.0,32.0,222.0,245.0,1912.498
1912508.0,213.0,32.0,224.0,243.0,1912.508
1912518.0,214.0,31.0,216.0,241.0,1912.518
1912528.0,204.0,32.0,212.0,233.0,1912.528
1912538.0,210.0,32.0,215.0,239.0,1912.538
1912548.0,215.0,33.0,221.0,246.0,1912.548
1912558.0,212.0,32.0,223.0,244.0,1912.558
1912568.0,213.0,32.0,216.0,241.0,1912.568
1912578.0,207.0,32.0,217.0,237.0,1912.578
1912588.0,210.0,32.0,217.0,242.0,1912.588
1912598.0,216.0,33.0,224.0,248.0,1912.598
1912608.0,212.0,33.0,225.0,245.0,1912.608
1912619.0,213.0,32.0,217.0,242.0,1912.619
1912629.0,206.0,32.0,216.0,236.0,1912.629
1912639.0,214.0,33.0,225.0,246.0,1912.639
1912649.0,218.0,33.0,222.0,247.0,1912.649
1912659.0,210.0,32.0,221.0,240.0,1912.659
1912669.0,213.0,33.0,217.0,242.0,1912.669
1912679.0,206.0,32.0,217.0,237.0,1912.679
1912689.0,214.0,32.0,225.0,247.0,1912.689
1912699.0,218.0,33.0,223.0,247.0,1912.699
1912709.0,213.0,31.0,225.0,243.0,1912.709
1912719.0,212.0,33.0,218.0,243.0,1912.719
1912729.0,208.0,32.0,218.0,239.0,1912.729
1912739.0,215.0,33.0,227.0,248.0,1912.739
1912749.0,218.0,32.0,225.0,248.0,1912.749
1912759.0,212.0,32.0,225.0,243.0,1912.759
1912769.0,212.0,32.0,220.0,242.0,1912.769
1912779.0,208.0,32.0,220.0,241.0,1912.779
1912790.0,215.0,32.0,228.0,248.0,1912.79
1912800.0,218.0,34.0,222.0,248.0,1912.8
1912810.0,209.0,32.0,222.0,240.0,1912.81
1912820.0,211.0,32.0,218.0,241.0,1912.82
1912830.0,215.0,32.0,225.0,247.0,1912.83
1912840.0,216.0,31.0,230.0,250.0,1912.84
1912850.0,217.0,32.0,221.0,246.0,1912.85
1912860.0,208.0,33.0,221.0,240.0,1912.86
1912870.0,211.0,32.0,219.0,242.0,1912.87
1912880.0,212.0,32.0,222.0,244.0,1912.88
1912890.0,216.0,32.0,229.0,249.0,1912.89
1912900.0,218.0,31.0,222.0,245.0,1912.9
1912910.0,208.0,31.0,221.0,239.0,1912.91
1912920.0,213.0,32.0,219.0,241.0,1912.92
1912930.0,213.0,32.0,223.0,245.0,1912.93
1912940.0,217.0,32.0,228.0,247.0,1912.94
1912950.0,217.0,32.0,220.0,244.0,1912.95
1912960.0,211.0,32.0,224.0,240.0,1912.96
1912970.0,213.0,32.0,218.0,240.0,1912.97
1912980.0,214.0,32.0,223.0,244.0,1912.98
1912990.0,216.0,33.0,227.0,246.0,1912.99
1913000.0,217.0,32.0,219.0,243.0,1913.0
1913010.0,209.0,32.0,220.0,239.0,1913.01
1913020.0,212.0,32.0,217.0,240.0,1913.02
1913030.0,215.0,33.0,222.0,245.0,1913.03
1913040.0,215.0,32.0,226.0,247.0,1913.04
1913050.0,219.0,32.0,221.0,245.0,1913.05
1913060.0,209.0,33.0,219.0,239.0,1913.06
1913070.0,212.0,32.0,218.0,240.0,1913.07
1913080.0,216.0,32.0,224.0,247.0,1913.08
1913090.0,217.0,32.0,228.0,248.0,1913.09
1913100.0,217.0,33.0,220.0,246.0,1913.1
1913110.0,209.0,32.0,220.0,239.0,1913.11
1913120.0,211.0,33.0,217.0,243.0,1913.12
1913131.0,217.0,32.0,224.0,249.0,1913.131
1913141.0,215.0,32.0,227.0,248.0,1913.141
1913151.0,216.0,32.0,220.0,244.0,1913.151
1913161.0,207.0,32.0,217.0,237.0,1913.161
1913171.0,214.0,32.0,223.0,247.0,1913.171
1913181.0,218.0,32.0,225.0,250.0,1913.181
1913191.0,216.0,32.0,226.0,246.0,1913.191
1913201.0,215.0,32.0,219.0,243.0,1913.201
1913211.0,207.0,32.0,217.0,238.0,1913.211
1913221.0,213.0,32.0,219.0,243.0,1913.221
1913231.0,218.0,32.0,224.0,249.0,1913.231
1913241.0,214.0,32.0,224.0,245.0,1913.241
1913251.0,214.0,33.0,216.0,243.0,1913.251
1913261.0,208.0,31.0,215.0,236.0,1913.261
1913271.0,213.0,32.0,217.0,242.0,1913.271
1913281.0,219.0,32.0,225.0,248.0,1913.281
1913291.0,214.0,31.0,224.0,245.0,1913.291
1913302.0,214.0,31.0,218.0,243.0,1913.302
1913312.0,208.0,32.0,218.0,240.0,1913.312
1913322.0,216.0,32.0,226.0,248.0,1913.322
1913332.0,218.0,32.0,223.0,248.0,1913.332
1913342.0,211.0,31.0,220.0,242.0,1913.342
1913352.0,213.0,31.0,217.0,244.0,1913.352
1913362.0,209.0,32.0,218.0,241.0,1913.362
1913372.0,217.0,32.0,226.0,250.0,1913.372
1913382.0,219.0,32.0,222.0,247.0,1913.382
1913392.0,214.0,31.0,223.0,243.0,1913.392
1913402.0,213.0,32.0,217.0,243.0,1913.402
1913412.0,211.0,31.0,218.0,242.0,1913.412
1913422.0,216.0,32.0,224.0,248.0,1913.422
1913432.0,219.0,32.0,221.0,248.0,1913.432
1913442.0,212.0,32.0,219.0,242.0,1913.442
1913452.0,213.0,32.0,215.0,241.0,1913.452
1913462.0,212.0,32.0,217.0,242.0,1913.462
1913472.0,217.0,31.0,223.0,245.0,1913.472
1913482.0,220.0,31.0,222.0,247.0,1913.482
1913492.0,213.0,31.0,220.0,240.0,1913.492
1913502.0,214.0,32.0,215.0,241.0,1913.502
1913512.0,214.0,32.0,220.0,242.0,1913.512
1913522.0,217.0,33.0,223.0,248.0,1913.522
1913532.0,220.0,32.0,221.0,247.0,1913.532
1913542.0,214.0,31.0,220.0,240.0,1913.542
1913552.0,214.0,32.0,216.0,241.0,1913.552
1913562.0,210.0,31.0,216.0,239.0,1913.562
1913572.0,217.0,33.0,225.0,248.0,1913.572
1913582.0,220.0,32.0,221.0,248.0,1913.582
1913592.0,212.0,32.0,220.0,241.0,1913.592
1913602.0,215.0,32.0,217.0,242.0,1913.602
1913612.0,211.0,32.0,218.0,240.0,1913.612
1913622.0,218.0,32.0,227.0,248.0,1913.622
1913632.0,220.0,34.0,222.0,247.0,1913.632
1913643.0,211.0,32.0,219.0,239.0,1913.643
1913653.0,213.0,33.0,216.0,241.0,1913.653
1913663.0,217.0,33.0,223.0,246.0,1913.663
1913673.0,217.0,32.0,224.0,246.0,1913.673
1913683.0,217.0,32.0,217.0,242.0,1913.683
1913693.0,211.0,32.0,217.0,239.0,1913.693
1913703.0,212.0,33.0,215.0,241.0,1913.703
1913713.0,218.0,32.0,222.0,247.0,1913.713
1913723.0,217.0,32.0,224.0,245.0,1913.723
1913733.0,220.0,33.0,217.0,244.0,1913.733
1913743.0,210.0,32.0,216.0,237.0,1913.743
1913753.0,212.0,33.0,215.0,240.0,1913.753
1913763.0,218.0,33.0,223.0,248.0,1913.763
1913773.0,218.0,32.0,224.0,246.0,1913.773
1913783.0,217.0,33.0,217.0,244.0,1913.783
1913793.0,210.0,32.0,217.0,238.0,1913.793
1913803.0,212.0,32.0,216.0,243.0,1913.803
1913814.0,218.0,33.0,223.0,248.0,1913.814
1913824.0,215.0,33.0,222.0,246.0,1913.824
1913834.0,215.0,32.0,216.0,244.0,1913.834
1913844.0,208.0,33.0,213.0,239.0,1913.844
1913854.0,217.0,33.0,225.0,249.0,1913.854
1913864.0,219.0,33.0,222.0,250.0,1913.864
1913874.0,214.0,33.0,222.0,245.0,1913.874
1913884.0,214.0,33.0,215.0,243.0,1913.884
1913894.0,207.0,33.0,213.0,238.0,1913.894
1913904.0,213.0,33.0,216.0,243.0,1913.904
1913914.0,218.0,33.0,221.0,248.0,1913.914
1913924.0,215.0,32.0,220.0,243.0,1913.924
1913934.0,214.0,33.0,214.0,242.0,1913.934
1913944.0,208.0,33.0,212.0,234.0,1913.944
1913954.0,213.0,34.0,217.0,243.0,1913.954
1913964.0,219.0,33.0,220.0,247.0,1913.964
1913974.0,213.0,32.0,219.0,241.0,1913.974
1913984.0,216.0,33.0,214.0,241.0,1913.984
1913994.0,206.0,32.0,210.0,234.0,1913.994
1914004.0,213.0,33.0,217.0,243.0,1914.004
1914014.0,219.0,34.0,219.0,247.0,1914.014
1914024.0,212.0,33.0,219.0,241.0,1914.024
1914034.0,214.0,33.0,215.0,242.0,1914.034
1914044.0,207.0,33.0,214.0,235.0,1914.044
1914054.0,215.0,33.0,222.0,245.0,1914.054
1914064.0,219.0,33.0,222.0,247.0,1914.064
1914074.0,214.0,33.0,225.0,245.0,1914.074
1914084.0,214.0,33.0,217.0,243.0,1914.084
1914094.0,207.0,32.0,217.0,238.0,1914.094
1914104.0,216.0,33.0,226.0,248.0,1914.104
1914114.0,220.0,33.0,225.0,249.0,1914.114
1914124.0,214.0,33.0,224.0,245.0,1914.124
1914134.0,214.0,33.0,217.0,242.0,1914.134
1914144.0,208.0,34.0,216.0,240.0,1914.144
1914155.0,217.0,32.0,226.0,247.0,1914.155
1914165.0,219.0,33.0,221.0,246.0,1914.165
1914175.0,212.0,34.0,219.0,239.0,1914.175
1914185.0,212.0,34.0,215.0,240.0,1914.185
1914195.0,214.0,34.0,221.0,244.0,1914.195
1914205.0,218.0,33.0,226.0,249.0,1914.205
1914215.0,219.0,34.0,220.0,246.0,1914.215
1914225.0,211.0,34.0,219.0,239.0,1914.225
1914235.0,212.0,34.0,216.0,240.0,1914.235
1914245.0,211.0,34.0,216.0,239.0,1914.245
1914255.0,218.0,34.0,225.0,247.0,1914.255
1914265.0,219.0,34.0,220.0,244.0,1914.265
1914275.0,210.0,35.0,219.0,238.0,1914.275
1914285.0,214.0,34.0,217.0,240.0,1914.285
1914295.0,212.0,34.0,219.0,241.0,1914.295
1914305.0,219.0,34.0,227.0,247.0,1914.305
1914315.0,217.0,35.0,220.0,245.0,1914.315
1914326.0,210.0,35.0,217.0,237.0,1914.326
1914336.0,212.0,36.0,216.0,240.0,1914.336
1914346.0,216.0,38.0,223.0,246.0,1914.346
1914356.0,215.0,38.0,224.0,246.0,1914.356
1914366.0,215.0,38.0,218.0,243.0,1914.366
1914376.0,209.0,38.0,218.0,238.0,1914.376
1914386.0,212.0,38.0,216.0,240.0,1914.386
1914396.0,217.0,41.0,224.0,248.0,1914.396
1914406.0,214.0,43.0,224.0,245.0,1914.406
1914416.0,216.0,44.0,219.0,244.0,1914.416
1914426.0,208.0,44.0,217.0,237.0,1914.426
1914436.0,212.0,43.0,218.0,241.0,1914.436
1914446.0,217.0,44.0,224.0,248.0,1914.446
1914456.0,216.0,45.0,226.0,245.0,1914.456
1914466.0,216.0,49.0,218.0,244.0,1914.466
1914476.0,208.0,48.0,217.0,236.0,1914.476
1914486.0,212.0,47.0,218.0,241.0,1914.486
1914496.0,216.0,47.0,224.0,245.0,1914.496
1914506.0,218.0,45.0,226.0,245.0,1914.506
1914516.0,216.0,44.0,218.0,242.0,1914.516
1914526.0,208.0,44.0,214.0,235.0,1914.526
1914536.0,213.0,42.0,218.0,241.0,1914.536
1914546.0,217.0,42.0,222.0,245.0,1914.546
1914556.0,217.0,41.0,225.0,244.0,1914.556
1914566.0,217.0,40.0,219.0,242.0,1914.566
1914576.0,208.0,39.0,216.0,235.0,1914.576
1914586.0,212.0,37.0,218.0,240.0,1914.586
1914596.0,218.0,42.0,226.0,248.0,1914.596
1914606.0,217.0,46.0,226.0,245.0,1914.606
1914616.0,216.0,47.0,218.0,243.0,1914.616
1914626.0,211.0,49.0,221.0,238.0,1914.626
1914636.0,212.0,47.0,218.0,241.0,1914.636
1914646.0,219.0,47.0,225.0,248.0,1914.646
1914656.0,216.0,47.0,226.0,245.0,1914.656
1914667.0,215.0,46.0,218.0,242.0,1914.667
1914677.0,208.0,48.0,215.0,236.0,1914.677
1914687.0,216.0,45.0,223.0,245.0,1914.687
1914697.0,220.0,47.0,222.0,246.0,1914.697
1914707.0,213.0,47.0,222.0,240.0,1914.707
1914717.0,215.0,47.0,217.0,242.0,1914.717
1914727.0,208.0,49.0,215.0,235.0,1914.727
1914737.0,216.0,46.0,224.0,245.0,1914.737
1914747.0,220.0,50.0,221.0,246.0,1914.747
1914757.0,217.0,51.0,223.0,242.0,1914.757
1914767.0,214.0,50.0,218.0,241.0,1914.767
1914777.0,209.0,51.0,217.0,238.0,1914.777
1914787.0,216.0,50.0,225.0,247.0,1914.787
1914797.0,219.0,52.0,225.0,247.0,1914.797
1914807.0,214.0,50.0,224.0,242.0,1914.807
1914817.0,215.0,48.0,221.0,242.0,1914.817
1914827.0,209.0,46.0,219.0,239.0,1914.827
1914838.0,218.0,43.0,228.0,247.0,1914.838
1914848.0,219.0,41.0,223.0,248.0,1914.848
1914858.0,211.0,38.0,223.0,241.0,1914.858
1914868.0,212.0,37.0,218.0,241.0,1914.868
1914878.0,216.0,36.0,225.0,246.0,1914.878
1914888.0,217.0,35.0,229.0,248.0,1914.888
1914898.0,219.0,34.0,221.0,245.0,1914.898
1914908.0,210.0,33.0,220.0,239.0,1914.908
1914918.0,212.0,33.0,217.0,241.0,1914.918
1914928.0,211.0,32.0,221.0,242.0,1914.928
1914938.0,216.0,32.0,225.0,247.0,1914.938
1914948.0,219.0,31.0,220.0,244.0,1914.948
1914958.0,208.0,31.0,219.0,238.0,1914.958
1914968.0,212.0,30.0,217.0,241.0,1914.968
1914978.0,211.0,41.0,221.0,244.0,1914.978
1914988.0,217.0,44.0,227.0,247.0,1914.988
1914998.0,217.0,48.0,220.0,245.0,1914.998
1915008.0,211.0,55.0,221.0,241.0,1915.008
1915018.0,212.0,53.0,217.0,241.0,1915.018
1915028.0,213.0,64.0,222.0,244.0,1915.028
1915038.0,216.0,65.0,227.0,248.0,1915.038
1915048.0,217.0,65.0,219.0,244.0,1915.048
1915058.0,210.0,62.0,221.0,240.0,1915.058
1915068.0,212.0,59.0,217.0,241.0,1915.068
1915078.0,215.0,61.0,224.0,246.0,1915.078
1915088.0,215.0,62.0,226.0,247.0,1915.088
1915098.0,218.0,63.0,221.0,246.0,1915.098
1915108.0,209.0,71.0,219.0,240.0,1915.108
1915118.0,212.0,66.0,217.0,241.0,1915.118
1915128.0,215.0,72.0,223.0,246.0,1915.128
1915138.0,216.0,71.0,226.0,246.0,1915.138
1915148.0,218.0,71.0,220.0,244.0,1915.148
1915158.0,209.0,79.0,219.0,236.0,1915.158
1915168.0,211.0,75.0,216.0,239.0,1915.168
1915179.0,216.0,75.0,223.0,246.0,1915.179
1915189.0,216.0,75.0,226.0,244.0,1915.189
1915199.0,216.0,72.0,219.0,242.0,1915.199
1915209.0,207.0,72.0,215.0,234.0,1915.209
1915219.0,213.0,67.0,221.0,242.0,1915.219
1915229.0,217.0,69.0,224.0,247.0,1915.229
1915239.0,216.0,71.0,226.0,244.0,1915.239
1915249.0,215.0,68.0,219.0,241.0,1915.249
1915259.0,207.0,68.0,217.0,235.0,1915.259
1915269.0,212.0,66.0,220.0,240.0,1915.269
1915279.0,218.0,64.0,226.0,246.0,1915.279
1915289.0,215.0,65.0,227.0,244.0,1915.289
1915299.0,215.0,64.0,219.0,243.0,1915.299
1915309.0,209.0,66.0,220.0,236.0,1915.309
1915319.0,212.0,63.0,221.0,242.0,1915.319
