time (ms),signal 0,signal 1,signal 2,signal 3,time (sec)
1983414.0,222.0,32.0,244.0,242.0,1983.414
1983424.0,223.0,33.0,235.0,243.0,1983.424
1983434.0,214.0,32.0,235.0,235.0,1983.434
1983444.0,222.0,32.0,241.0,244.0,1983.444
1983454.0,226.0,32.0,241.0,246.0,1983.454
1983464.0,221.0,32.0,241.0,241.0,1983.464
1983474.0,223.0,33.0,232.0,241.0,1983.474
1983484.0,214.0,32.0,233.0,235.0,1983.484
1983494.0,220.0,32.0,238.0,241.0,1983.494
1983504.0,227.0,34.0,241.0,247.0,1983.504
1983514.0,222.0,32.0,243.0,241.0,1983.514
1983524.0,223.0,32.0,235.0,242.0,1983.524
1983534.0,216.0,32.0,239.0,235.0,1983.534
1983544.0,223.0,31.0,241.0,245.0,1983.544
1983554.0,229.0,32.0,246.0,249.0,1983.554
1983564.0,222.0,33.0,247.0,245.0,1983.564
1983574.0,225.0,32.0,239.0,244.0,1983.574
1983584.0,217.0,31.0,241.0,236.0,1983.584
1983594.0,223.0,33.0,245.0,246.0,1983.594
1983604.0,230.0,33.0,246.0,251.0,1983.604
1983614.0,222.0,32.0,246.0,243.0,1983.614
1983624.0,225.0,33.0,238.0,245.0,1983.624
1983634.0,216.0,33.0,239.0,237.0,1983.634
1983644.0,224.0,32.0,245.0,247.0,1983.644
1983654.0,229.0,32.0,246.0,250.0,1983.654
1983664.0,225.0,32.0,251.0,245.0,1983.664
1983674.0,224.0,33.0,240.0,245.0,1983.674
1983684.0,216.0,32.0,242.0,239.0,1983.684
1983694.0,225.0,33.0,247.0,249.0,1983.694
1983704.0,229.0,32.0,248.0,250.0,1983.704
1983714.0,224.0,32.0,252.0,245.0,1983.714
1983724.0,225.0,33.0,244.0,245.0,1983.724
1983734.0,217.0,32.0,245.0,239.0,1983.734
1983744.0,223.0,33.0,248.0,246.0,1983.744
1983754.0,230.0,33.0,252.0,253.0,1983.754
1983764.0,224.0,32.0,253.0,246.0,1983.764
1983774.0,226.0,33.0,244.0,245.0,1983.774
1983784.0,219.0,32.0,244.0,241.0,1983.784
1983794.0,225.0,32.0,245.0,245.0,1983.794
1983804.0,230.0,33.0,246.0,250.0,1983.804
1983814.0,224.0,32.0,248.0,245.0,1983.814
1983824.0,225.0,33.0,242.0,246.0,1983.824
1983834.0,217.0,32.0,243.0,238.0,1983.834
1983844.0,224.0,32.0,247.0,248.0,1983.844
1983854.0,232.0,32.0,252.0,252.0,1983.854
1983864.0,223.0,31.0,250.0,246.0,1983.864
1983874.0,227.0,32.0,243.0,246.0,1983.874
1983884.0,218.0,33.0,242.0,240.0,1983.884
1983894.0,226.0,32.0,248.0,248.0,1983.894
1983904.0,232.0,32.0,247.0,252.0,1983.904
1983915.0,223.0,32.0,248.0,245.0,1983.915
1983925.0,225.0,33.0,238.0,244.0,1983.925
1983935.0,222.0,33.0,241.0,245.0,1983.935
1983945.0,229.0,32.0,249.0,251.0,1983.945
1983955.0,231.0,33.0,242.0,250.0,1983.955
1983965.0,224.0,32.0,246.0,244.0,1983.965
1983975.0,225.0,32.0,239.0,246.0,1983.975
1983985.0,227.0,33.0,244.0,248.0,1983.985
1983995.0,230.0,32.0,250.0,252.0,1983.995
1984005.0,234.0,33.0,247.0,255.0,1984.005
1984015.0,224.0,32.0,246.0,246.0,1984.015
1984025.0,226.0,32.0,241.0,247.0,1984.025
1984035.0,226.0,33.0,246.0,251.0,1984.035
1984045.0,229.0,33.0,251.0,253.0,1984.045
1984055.0,233.0,33.0,244.0,255.0,1984.055
1984065.0,222.0,32.0,247.0,245.0,1984.065
1984075.0,225.0,33.0,242.0,247.0,1984.075
1984086.0,226.0,33.0,247.0,250.0,1984.086
1984096.0,229.0,32.0,250.0,250.0,1984.096
1984106.0,229.0,33.0,238.0,248.0,1984.106
1984116.0,220.0,31.0,242.0,240.0,1984.116
1984126.0,224.0,33.0,243.0,247.0,1984.126
1984136.0,228.0,32.0,247.0,251.0,1984.136
1984146.0,229.0,33.0,253.0,251.0,1984.146
1984156.0,230.0,32.0,242.0,248.0,1984.156
1984166.0,220.0,32.0,244.0,240.0,1984.166
1984176.0,226.0,33.0,243.0,244.0,1984.176
1984186.0,230.0,33.0,253.0,252.0,1984.186
1984196.0,229.0,32.0,257.0,251.0,1984.196
1984206.0,229.0,34.0,246.0,249.0,1984.206
1984216.0,222.0,32.0,252.0,243.0,1984.216
1984226.0,225.0,33.0,247.0,247.0,1984.226
1984236.0,231.0,33.0,256.0,253.0,1984.236
1984246.0,229.0,31.0,260.0,251.0,1984.246
1984256.0,233.0,33.0,249.0,252.0,1984.256
1984266.0,225.0,32.0,254.0,243.0,1984.266
1984276.0,227.0,33.0,250.0,247.0,1984.276
1984286.0,233.0,33.0,255.0,253.0,1984.286
1984296.0,231.0,32.0,259.0,250.0,1984.296
1984306.0,236.0,33.0,249.0,249.0,1984.306
1984316.0,224.0,33.0,251.0,242.0,1984.316
1984326.0,228.0,32.0,251.0,248.0,1984.326
1984336.0,234.0,33.0,255.0,254.0,1984.336
1984346.0,230.0,32.0,257.0,251.0,1984.346
1984356.0,232.0,33.0,245.0,248.0,1984.356
1984366.0,222.0,32.0,249.0,239.0,1984.366
1984376.0,226.0,32.0,249.0,247.0,1984.376
1984386.0,230.0,32.0,256.0,251.0,1984.386
1984396.0,229.0,32.0,259.0,251.0,1984.396
1984406.0,230.0,32.0,248.0,248.0,1984.406
1984416.0,220.0,32.0,250.0,241.0,1984.416
1984427.0,225.0,33.0,252.0,249.0,1984.427
1984437.0,233.0,33.0,256.0,255.0,1984.437
1984447.0,225.0,32.0,256.0,250.0,1984.447
1984457.0,228.0,33.0,248.0,249.0,1984.457
1984467.0,221.0,33.0,248.0,244.0,1984.467
1984477.0,226.0,32.0,248.0,249.0,1984.477
1984487.0,233.0,33.0,252.0,254.0,1984.487
1984497.0,225.0,32.0,253.0,249.0,1984.497
1984507.0,228.0,33.0,244.0,248.0,1984.507
1984517.0,219.0,32.0,244.0,241.0,1984.517
1984527.0,227.0,32.0,248.0,252.0,1984.527
1984537.0,233.0,33.0,248.0,255.0,1984.537
1984547.0,224.0,32.0,248.0,248.0,1984.547
1984557.0,229.0,32.0,242.0,249.0,1984.557
1984567.0,219.0,33.0,239.0,242.0,1984.567
1984577.0,227.0,32.0,247.0,252.0,1984.577
1984587.0,233.0,33.0,245.0,255.0,1984.587
1984598.0,223.0,32.0,244.0,248.0,1984.598
1984608.0,227.0,33.0,237.0,248.0,1984.608
1984618.0,224.0,33.0,241.0,249.0,1984.618
1984628.0,230.0,32.0,248.0,253.0,1984.628
1984638.0,232.0,33.0,240.0,251.0,1984.638
1984648.0,224.0,32.0,244.0,247.0,1984.648
1984658.0,226.0,33.0,238.0,248.0,1984.658
1984668.0,229.0,32.0,244.0,250.0,1984.668
1984678.0,229.0,32.0,248.0,254.0,1984.678
1984688.0,236.0,33.0,243.0,255.0,1984.688
1984698.0,225.0,32.0,244.0,248.0,1984.698
1984708.0,228.0,33.0,239.0,248.0,1984.708
1984718.0,230.0,33.0,243.0,253.0,1984.718
1984728.0,228.0,32.0,247.0,254.0,1984.728
1984738.0,233.0,33.0,239.0,253.0,1984.738
1984748.0,221.0,32.0,241.0,244.0,1984.748
1984758.0,225.0,33.0,234.0,246.0,1984.758
1984768.0,222.0,33.0,240.0,248.0,1984.768
1984778.0,228.0,33.0,248.0,255.0,1984.778
1984788.0,232.0,33.0,245.0,256.0,1984.788
1984798.0,221.0,32.0,248.0,247.0,1984.798
1984808.0,221.0,33.0,241.0,249.0,1984.808
1984818.0,221.0,32.0,249.0,250.0,1984.818
1984828.0,226.0,33.0,258.0,256.0,1984.828
1984838.0,231.0,33.0,247.0,254.0,1984.838
1984848.0,219.0,33.0,251.0,246.0,1984.848
1984858.0,225.0,32.0,246.0,247.0,1984.858
1984868.0,224.0,32.0,252.0,252.0,1984.868
1984878.0,230.0,32.0,264.0,259.0,1984.878
1984888.0,232.0,33.0,252.0,255.0,1984.888
1984898.0,224.0,33.0,259.0,255.0,1984.898
1984908.0,227.0,33.0,255.0,258.0,1984.908
1984918.0,226.0,32.0,262.0,258.0,1984.918
1984928.0,226.0,32.0,253.0,253.0,1984.928
1984939.0,227.0,33.0,241.0,248.0,1984.939
1984949.0,215.0,31.0,226.0,236.0,1984.949
1984959.0,219.0,33.0,222.0,244.0,1984.959
1984969.0,225.0,32.0,225.0,242.0,1984.969
1984979.0,225.0,33.0,235.0,253.0,1984.979
1984989.0,231.0,32.0,237.0,254.0,1984.989
1984999.0,221.0,33.0,233.0,263.0,1984.999
1985009.0,231.0,33.0,231.0,281.0,1985.009
1985019.0,242.0,33.0,268.0,330.0,1985.019
1985029.0,235.0,33.0,259.0,323.0,1985.029
1985039.0,240.0,34.0,257.0,311.0,1985.039
1985049.0,235.0,32.0,260.0,318.0,1985.049
1985059.0,238.0,33.0,261.0,317.0,1985.059
1985069.0,241.0,34.0,267.0,323.0,1985.069
1985079.0,233.0,33.0,256.0,313.0,1985.079
1985089.0,237.0,33.0,249.0,302.0,1985.089
1985099.0,224.0,33.0,237.0,297.0,1985.099
1985110.0,225.0,34.0,243.0,301.0,1985.11
1985120.0,237.0,34.0,264.0,320.0,1985.12
1985130.0,239.0,33.0,251.0,310.0,1985.13
1985140.0,238.0,34.0,257.0,302.0,1985.14
1985150.0,225.0,33.0,239.0,294.0,1985.15
1985160.0,236.0,33.0,253.0,312.0,1985.16
1985170.0,239.0,35.0,258.0,320.0,1985.17
1985180.0,238.0,32.0,242.0,308.0,1985.18
1985190.0,237.0,34.0,249.0,300.0,1985.19
1985200.0,233.0,33.0,236.0,299.0,1985.2
1985210.0,238.0,34.0,238.0,286.0,1985.21
1985220.0,239.0,34.0,245.0,279.0,1985.22
1985230.0,230.0,34.0,227.0,275.0,1985.23
1985240.0,230.0,34.0,238.0,269.0,1985.24
1985250.0,227.0,33.0,224.0,273.0,1985.25
1985260.0,235.0,33.0,244.0,294.0,1985.26
1985270.0,243.0,35.0,265.0,290.0,1985.27
1985280.0,239.0,34.0,241.0,279.0,1985.28
1985290.0,238.0,33.0,248.0,282.0,1985.29
1985300.0,233.0,35.0,234.0,275.0,1985.3
1985310.0,234.0,34.0,237.0,275.0,1985.31
1985320.0,239.0,34.0,243.0,270.0,1985.32
1985330.0,236.0,34.0,229.0,267.0,1985.33
1985340.0,235.0,34.0,229.0,259.0,1985.34
1985350.0,229.0,33.0,215.0,253.0,1985.35
1985360.0,232.0,34.0,229.0,270.0,1985.36
1985370.0,240.0,34.0,241.0,283.0,1985.37
1985380.0,237.0,33.0,228.0,274.0,1985.38
1985390.0,236.0,33.0,235.0,277.0,1985.39
1985400.0,232.0,33.0,231.0,280.0,1985.4
1985410.0,236.0,33.0,236.0,282.0,1985.41
1985420.0,242.0,33.0,246.0,296.0,1985.42
1985430.0,238.0,33.0,234.0,285.0,1985.43
1985440.0,235.0,33.0,231.0,284.0,1985.44
1985451.0,232.0,33.0,225.0,274.0,1985.451
1985461.0,242.0,33.0,226.0,275.0,1985.461
1985471.0,240.0,34.0,220.0,257.0,1985.471
1985481.0,230.0,33.0,202.0,244.0,1985.481
1985491.0,233.0,34.0,208.0,252.0,1985.491
1985501.0,232.0,32.0,213.0,256.0,1985.501
1985511.0,235.0,33.0,208.0,248.0,1985.511
1985521.0,236.0,33.0,209.0,247.0,1985.521
1985531.0,227.0,33.0,199.0,243.0,1985.531
1985541.0,230.0,33.0,200.0,239.0,1985.541
1985551.0,232.0,34.0,208.0,247.0,1985.551
1985561.0,238.0,32.0,215.0,250.0,1985.561
1985571.0,235.0,33.0,213.0,249.0,1985.571
1985581.0,230.0,32.0,210.0,250.0,1985.581
1985591.0,230.0,33.0,210.0,248.0,1985.591
1985601.0,234.0,33.0,213.0,249.0,1985.601
1985611.0,237.0,33.0,217.0,247.0,1985.611
1985622.0,237.0,33.0,218.0,253.0,1985.622
1985632.0,228.0,33.0,208.0,243.0,1985.632
1985642.0,231.0,33.0,215.0,246.0,1985.642
1985652.0,240.0,33.0,228.0,260.0,1985.652
1985662.0,238.0,33.0,229.0,261.0,1985.662
1985672.0,241.0,33.0,224.0,261.0,1985.672
1985682.0,233.0,34.0,215.0,249.0,1985.682
1985692.0,239.0,33.0,224.0,259.0,1985.692
1985702.0,243.0,34.0,226.0,258.0,1985.702
1985712.0,239.0,33.0,223.0,243.0,1985.712
1985722.0,238.0,34.0,218.0,248.0,1985.722
1985732.0,232.0,32.0,216.0,245.0,1985.732
1985742.0,238.0,34.0,224.0,259.0,1985.742
1985752.0,243.0,33.0,233.0,269.0,1985.752
1985762.0,243.0,32.0,234.0,262.0,1985.762
1985772.0,242.0,33.0,229.0,259.0,1985.772
1985782.0,233.0,33.0,228.0,252.0,1985.782
1985792.0,240.0,32.0,236.0,262.0,1985.792
1985802.0,242.0,33.0,243.0,272.0,1985.802
1985812.0,241.0,33.0,243.0,270.0,1985.812
1985822.0,238.0,33.0,237.0,262.0,1985.822
1985832.0,228.0,32.0,228.0,246.0,1985.832
1985842.0,234.0,32.0,235.0,252.0,1985.842
1985852.0,240.0,33.0,241.0,263.0,1985.852
1985862.0,239.0,32.0,236.0,252.0,1985.862
1985872.0,237.0,34.0,229.0,251.0,1985.872
1985882.0,231.0,32.0,226.0,240.0,1985.882
1985892.0,236.0,32.0,224.0,231.0,1985.892
1985902.0,244.0,33.0,234.0,243.0,1985.902
1985912.0,249.0,33.0,233.0,241.0,1985.912
1985922.0,248.0,33.0,231.0,247.0,1985.922
1985932.0,237.0,32.0,223.0,234.0,1985.932
1985942.0,239.0,32.0,223.0,238.0,1985.942
1985952.0,243.0,32.0,229.0,242.0,1985.952
1985963.0,237.0,32.0,226.0,231.0,1985.963
1985973.0,236.0,31.0,225.0,237.0,1985.973
1985983.0,234.0,32.0,228.0,242.0,1985.983
1985993.0,240.0,32.0,231.0,247.0,1985.993
1986003.0,238.0,33.0,225.0,248.0,1986.003
1986013.0,234.0,32.0,223.0,236.0,1986.013
1986023.0,236.0,33.0,221.0,240.0,1986.023
1986033.0,236.0,32.0,224.0,250.0,1986.033
1986043.0,241.0,33.0,233.0,258.0,1986.043
1986053.0,246.0,32.0,238.0,266.0,1986.053
1986063.0,239.0,33.0,233.0,256.0,1986.063
1986073.0,240.0,33.0,231.0,260.0,1986.073
1986083.0,237.0,32.0,232.0,260.0,1986.083
1986093.0,239.0,32.0,237.0,264.0,1986.093
1986103.0,241.0,33.0,238.0,266.0,1986.103
1986113.0,233.0,32.0,240.0,258.0,1986.113
1986123.0,228.0,32.0,233.0,259.0,1986.123
1986134.0,227.0,33.0,235.0,257.0,1986.134
1986144.0,235.0,32.0,245.0,266.0,1986.144
1986154.0,235.0,33.0,239.0,268.0,1986.154
1986164.0,228.0,32.0,238.0,251.0,1986.164
1986174.0,228.0,33.0,233.0,251.0,1986.174
1986184.0,231.0,32.0,240.0,256.0,1986.184
1986194.0,232.0,33.0,247.0,259.0,1986.194
1986204.0,233.0,32.0,239.0,258.0,1986.204
1986214.0,225.0,32.0,236.0,246.0,1986.214
1986224.0,230.0,33.0,236.0,251.0,1986.224
1986234.0,230.0,33.0,242.0,253.0,1986.234
1986244.0,234.0,32.0,247.0,254.0,1986.244
1986254.0,234.0,33.0,240.0,256.0,1986.254
1986264.0,228.0,32.0,243.0,246.0,1986.264
1986274.0,230.0,32.0,241.0,250.0,1986.274
1986284.0,232.0,32.0,247.0,256.0,1986.284
1986294.0,235.0,31.0,253.0,254.0,1986.294
1986304.0,236.0,33.0,246.0,258.0,1986.304
1986314.0,227.0,32.0,249.0,244.0,1986.314
1986324.0,229.0,33.0,245.0,248.0,1986.324
1986334.0,232.0,33.0,252.0,253.0,1986.334
1986344.0,233.0,32.0,257.0,249.0,1986.344
1986354.0,234.0,33.0,250.0,254.0,1986.354
1986364.0,226.0,33.0,256.0,240.0,1986.364
1986374.0,220.0,32.0,251.0,245.0,1986.374
1986384.0,223.0,33.0,259.0,254.0,1986.384
1986394.0,225.0,32.0,266.0,248.0,1986.394
1986404.0,228.0,33.0,255.0,255.0,1986.404
1986414.0,221.0,32.0,266.0,238.0,1986.414
1986424.0,223.0,33.0,257.0,244.0,1986.424
1986434.0,223.0,33.0,266.0,247.0,1986.434
1986444.0,226.0,33.0,274.0,247.0,1986.444
1986454.0,229.0,33.0,262.0,252.0,1986.454
1986464.0,220.0,32.0,274.0,238.0,1986.464
1986475.0,223.0,33.0,268.0,245.0,1986.475
1986485.0,231.0,33.0,278.0,254.0,1986.485
1986495.0,226.0,32.0,286.0,240.0,1986.495
1986505.0,226.0,33.0,277.0,247.0,1986.505
1986515.0,216.0,33.0,283.0,235.0,1986.515
1986525.0,223.0,32.0,281.0,240.0,1986.525
1986535.0,233.0,33.0,288.0,252.0,1986.535
1986545.0,228.0,33.0,298.0,241.0,1986.545
1986555.0,228.0,33.0,284.0,246.0,1986.555
1986565.0,220.0,32.0,296.0,235.0,1986.565
1986575.0,225.0,33.0,293.0,244.0,1986.575
1986585.0,231.0,34.0,296.0,251.0,1986.585
1986595.0,225.0,33.0,304.0,241.0,1986.595
1986605.0,229.0,33.0,288.0,249.0,1986.605
1986615.0,219.0,31.0,300.0,234.0,1986.615
1986625.0,224.0,33.0,294.0,243.0,1986.625
1986635.0,230.0,33.0,299.0,252.0,1986.635
1986646.0,223.0,33.0,307.0,240.0,1986.646
1986656.0,224.0,32.0,293.0,246.0,1986.656
1986666.0,218.0,33.0,305.0,242.0,1986.666
1986676.0,228.0,33.0,311.0,248.0,1986.676
1986686.0,230.0,34.0,298.0,255.0,1986.686
1986696.0,223.0,32.0,317.0,243.0,1986.696
1986706.0,225.0,34.0,304.0,250.0,1986.706
1986716.0,220.0,32.0,312.0,246.0,1986.716
1986726.0,228.0,33.0,317.0,250.0,1986.726
1986736.0,232.0,33.0,310.0,255.0,1986.736
1986746.0,222.0,33.0,317.0,241.0,1986.746
1986756.0,224.0,33.0,304.0,245.0,1986.756
1986766.0,222.0,33.0,312.0,245.0,1986.766
1986776.0,225.0,33.0,313.0,247.0,1986.776
1986786.0,231.0,33.0,307.0,253.0,1986.786
1986796.0,224.0,33.0,318.0,240.0,1986.796
1986806.0,225.0,33.0,304.0,245.0,1986.806
1986816.0,218.0,33.0,314.0,238.0,1986.816
1986826.0,227.0,32.0,318.0,247.0,1986.826
1986836.0,231.0,34.0,307.0,253.0,1986.836
1986846.0,223.0,33.0,316.0,239.0,1986.846
1986856.0,224.0,33.0,302.0,244.0,1986.856
1986866.0,220.0,33.0,311.0,240.0,1986.866
1986876.0,227.0,33.0,314.0,249.0,1986.876
1986886.0,231.0,33.0,304.0,253.0,1986.886
1986896.0,223.0,33.0,314.0,242.0,1986.896
1986906.0,227.0,32.0,301.0,245.0,1986.906
1986916.0,221.0,32.0,309.0,240.0,1986.916
1986926.0,229.0,33.0,313.0,247.0,1986.926
1986936.0,232.0,33.0,297.0,251.0,1986.936
1986946.0,224.0,32.0,310.0,240.0,1986.946
1986956.0,226.0,33.0,295.0,243.0,1986.956
1986966.0,222.0,33.0,302.0,240.0,1986.966
1986976.0,230.0,32.0,308.0,246.0,1986.976
1986987.0,231.0,33.0,294.0,249.0,1986.987
1986997.0,223.0,31.0,306.0,236.0,1986.997
1987007.0,224.0,33.0,294.0,241.0,1987.007
1987017.0,228.0,33.0,301.0,247.0,1987.017
1987027.0,227.0,33.0,303.0,244.0,1987.027
1987037.0,230.0,32.0,291.0,246.0,1987.037
1987047.0,221.0,32.0,301.0,236.0,1987.047
1987057.0,224.0,32.0,293.0,241.0,1987.057
1987067.0,229.0,32.0,297.0,249.0,1987.067
1987077.0,229.0,32.0,301.0,247.0,1987.077
1987087.0,229.0,33.0,286.0,248.0,1987.087
1987097.0,221.0,32.0,294.0,238.0,1987.097
1987107.0,223.0,32.0,285.0,243.0,1987.107
1987117.0,225.0,32.0,289.0,246.0,1987.117
1987127.0,229.0,31.0,291.0,249.0,1987.127
1987137.0,228.0,33.0,276.0,247.0,1987.137
1987147.0,220.0,32.0,282.0,239.0,1987.147
1987158.0,223.0,32.0,277.0,244.0,1987.158
1987168.0,230.0,32.0,282.0,252.0,1987.168
1987178.0,228.0,32.0,288.0,247.0,1987.178
1987188.0,228.0,32.0,273.0,247.0,1987.188
1987198.0,220.0,32.0,274.0,241.0,1987.198
1987208.0,225.0,32.0,271.0,247.0,1987.208
1987218.0,231.0,33.0,274.0,253.0,1987.218
1987228.0,227.0,32.0,276.0,246.0,1987.228
1987238.0,227.0,32.0,263.0,246.0,1987.238
1987248.0,224.0,32.0,267.0,239.0,1987.248
1987258.0,229.0,31.0,266.0,247.0,1987.258
1987268.0,234.0,32.0,268.0,253.0,1987.268
1987278.0,230.0,33.0,272.0,249.0,1987.278
1987288.0,230.0,33.0,260.0,249.0,1987.288
1987298.0,223.0,31.0,261.0,240.0,1987.298
1987308.0,228.0,32.0,262.0,249.0,1987.308
1987318.0,234.0,31.0,264.0,253.0,1987.318
1987328.0,230.0,32.0,266.0,250.0,1987.328
1987338.0,229.0,32.0,256.0,249.0,1987.338
1987348.0,221.0,32.0,259.0,242.0,1987.348
1987358.0,228.0,32.0,263.0,252.0,1987.358
1987368.0,233.0,32.0,261.0,255.0,1987.368
1987378.0,230.0,32.0,264.0,251.0,1987.378
1987388.0,229.0,32.0,252.0,250.0,1987.388
1987398.0,220.0,32.0,253.0,243.0,1987.398
1987408.0,228.0,33.0,257.0,253.0,1987.408
1987418.0,232.0,32.0,257.0,254.0,1987.418
1987428.0,228.0,32.0,258.0,252.0,1987.428
1987438.0,229.0,32.0,248.0,250.0,1987.438
1987448.0,221.0,31.0,246.0,245.0,1987.448
1987458.0,226.0,32.0,247.0,251.0,1987.458
1987468.0,232.0,32.0,251.0,256.0,1987.468
1987478.0,227.0,33.0,250.0,251.0,1987.478
1987488.0,227.0,32.0,241.0,248.0,1987.488
1987499.0,220.0,31.0,240.0,244.0,1987.499
1987509.0,230.0,31.0,248.0,253.0,1987.509
1987519.0,231.0,33.0,245.0,254.0,1987.519
1987529.0,224.0,31.0,242.0,248.0,1987.529
1987539.0,225.0,33.0,237.0,249.0,1987.539
1987549.0,222.0,32.0,237.0,247.0,1987.549
1987559.0,229.0,32.0,247.0,255.0,1987.559
1987569.0,232.0,33.0,242.0,254.0,1987.569
1987579.0,223.0,31.0,238.0,248.0,1987.579
1987589.0,225.0,32.0,235.0,249.0,1987.589
1987599.0,222.0,33.0,238.0,250.0,1987.599
1987609.0,229.0,33.0,246.0,258.0,1987.609
1987619.0,232.0,32.0,240.0,255.0,1987.619
1987629.0,225.0,32.0,240.0,253.0,1987.629
1987639.0,227.0,33.0,234.0,253.0,1987.639
1987649.0,224.0,33.0,234.0,252.0,1987.649
1987659.0,230.0,33.0,240.0,259.0,1987.659
1987670.0,231.0,33.0,233.0,255.0,1987.67
1987680.0,223.0,32.0,230.0,248.0,1987.68
1987690.0,224.0,33.0,231.0,251.0,1987.69
1987700.0,230.0,32.0,242.0,257.0,1987.7
1987710.0,228.0,33.0,238.0,257.0,1987.71
1987720.0,231.0,33.0,234.0,255.0,1987.72
1987730.0,222.0,33.0,228.0,250.0,1987.73
1987740.0,224.0,32.0,227.0,252.0,1987.74
1987750.0,230.0,33.0,234.0,258.0,1987.75
1987760.0,229.0,33.0,233.0,257.0,1987.76
1987770.0,229.0,32.0,227.0,254.0,1987.77
1987780.0,221.0,32.0,222.0,248.0,1987.78
1987790.0,224.0,33.0,224.0,252.0,1987.79
1987800.0,226.0,33.0,227.0,254.0,1987.8
1987810.0,230.0,32.0,229.0,257.0,1987.81
1987820.0,229.0,33.0,224.0,254.0,1987.82
1987830.0,221.0,31.0,218.0,247.0,1987.83
1987840.0,224.0,33.0,218.0,250.0,1987.84
1987850.0,227.0,33.0,223.0,255.0,1987.85
1987860.0,228.0,33.0,225.0,257.0,1987.86
1987870.0,228.0,32.0,221.0,253.0,1987.87
1987880.0,219.0,32.0,213.0,247.0,1987.88
1987890.0,224.0,33.0,215.0,250.0,1987.89
1987900.0,227.0,33.0,220.0,256.0,1987.9
1987910.0,228.0,32.0,222.0,255.0,1987.91
1987920.0,227.0,34.0,218.0,253.0,1987.92
1987930.0,221.0,32.0,215.0,248.0,1987.93
1987940.0,224.0,33.0,215.0,250.0,1987.94
1987950.0,229.0,33.0,225.0,257.0,1987.95
1987960.0,228.0,33.0,221.0,255.0,1987.96
1987970.0,230.0,34.0,220.0,254.0,1987.97
1987980.0,220.0,33.0,212.0,249.0,1987.98
1987990.0,223.0,34.0,216.0,252.0,1987.99
1988000.0,230.0,32.0,224.0,257.0,1988.0
1988011.0,226.0,33.0,217.0,256.0,1988.011
1988021.0,227.0,33.0,215.0,251.0,1988.021
1988031.0,217.0,33.0,206.0,244.0,1988.031
1988041.0,225.0,32.0,216.0,254.0,1988.041
1988051.0,230.0,35.0,221.0,257.0,1988.051
1988061.0,226.0,32.0,217.0,255.0,1988.061
1988071.0,227.0,33.0,213.0,252.0,1988.071
1988081.0,219.0,33.0,206.0,247.0,1988.081
1988091.0,226.0,33.0,215.0,256.0,1988.091
1988101.0,230.0,33.0,219.0,258.0,1988.101
1988111.0,225.0,33.0,213.0,256.0,1988.111
1988121.0,226.0,33.0,212.0,252.0,1988.121
1988131.0,219.0,32.0,205.0,248.0,1988.131
1988141.0,224.0,33.0,211.0,254.0,1988.141
1988151.0,232.0,33.0,218.0,258.0,1988.151
1988161.0,224.0,33.0,210.0,255.0,1988.161
1988171.0,226.0,33.0,212.0,253.0,1988.171
1988182.0,220.0,33.0,207.0,251.0,1988.182
1988192.0,227.0,32.0,216.0,258.0,1988.192
1988202.0,231.0,33.0,219.0,258.0,1988.202
1988212.0,222.0,33.0,208.0,251.0,1988.212
1988222.0,224.0,32.0,208.0,252.0,1988.222
1988232.0,220.0,33.0,206.0,252.0,1988.232
1988242.0,227.0,33.0,214.0,261.0,1988.242
1988252.0,231.0,32.0,217.0,257.0,1988.252
1988262.0,220.0,32.0,205.0,253.0,1988.262
1988272.0,225.0,32.0,211.0,254.0,1988.272
1988282.0,222.0,33.0,208.0,254.0,1988.282
1988292.0,228.0,32.0,215.0,261.0,1988.292
1988302.0,230.0,33.0,215.0,259.0,1988.302
1988312.0,223.0,32.0,209.0,256.0,1988.312
1988322.0,225.0,32.0,209.0,253.0,1988.322
1988332.0,222.0,33.0,209.0,255.0,1988.332
1988342.0,229.0,32.0,217.0,261.0,1988.342
1988352.0,231.0,33.0,220.0,260.0,1988.352
1988362.0,222.0,32.0,209.0,254.0,1988.362
1988372.0,224.0,34.0,210.0,253.0,1988.372
1988382.0,223.0,32.0,212.0,254.0,1988.382
1988392.0,226.0,32.0,213.0,258.0,1988.392
1988402.0,231.0,33.0,217.0,257.0,1988.402
1988412.0,221.0,32.0,206.0,253.0,1988.412
1988422.0,224.0,33.0,207.0,253.0,1988.422
1988432.0,225.0,33.0,211.0,258.0,1988.432
1988442.0,227.0,32.0,214.0,260.0,1988.442
1988452.0,231.0,33.0,217.0,260.0,1988.452
1988462.0,221.0,32.0,206.0,254.0,1988.462
1988472.0,223.0,32.0,208.0,253.0,1988.472
1988482.0,220.0,33.0,206.0,252.0,1988.482
1988492.0,228.0,32.0,214.0,260.0,1988.492
1988502.0,231.0,34.0,216.0,258.0,1988.502
1988512.0,221.0,31.0,206.0,252.0,1988.512
1988523.0,223.0,32.0,207.0,252.0,1988.523
1988533.0,228.0,32.0,216.0,256.0,1988.533
1988543.0,226.0,32.0,212.0,257.0,1988.543
1988553.0,227.0,32.0,213.0,253.0,1988.553
1988563.0,218.0,33.0,202.0,247.0,1988.563
1988573.0,223.0,32.0,207.0,251.0,1988.573
1988583.0,228.0,32.0,216.0,258.0,1988.583
1988593.0,228.0,32.0,215.0,258.0,1988.593
1988603.0,227.0,31.0,213.0,254.0,1988.603
1988613.0,220.0,32.0,205.0,250.0,1988.613
1988623.0,223.0,32.0,207.0,254.0,1988.623
1988633.0,228.0,33.0,213.0,258.0,1988.633
1988643.0,226.0,31.0,209.0,256.0,1988.643
1988653.0,229.0,32.0,213.0,254.0,1988.653
1988663.0,220.0,31.0,204.0,250.0,1988.663
1988673.0,223.0,32.0,208.0,253.0,1988.673
1988683.0,230.0,32.0,217.0,259.0,1988.683
1988694.0,226.0,33.0,213.0,257.0,1988.694
1988704.0,227.0,32.0,212.0,253.0,1988.704
1988714.0,218.0,32.0,203.0,248.0,1988.714
1988724.0,227.0,31.0,212.0,256.0,1988.724
1988734.0,231.0,33.0,215.0,257.0,1988.734
1988744.0,225.0,32.0,211.0,253.0,1988.744
1988754.0,227.0,33.0,210.0,252.0,1988.754
1988764.0,218.0,32.0,205.0,246.0,1988.764
1988774.0,227.0,32.0,216.0,257.0,1988.774
1988784.0,230.0,32.0,218.0,259.0,1988.784
1988794.0,225.0,31.0,210.0,253.0,1988.794
1988804.0,225.0,32.0,209.0,252.0,1988.804
1988814.0,219.0,32.0,208.0,249.0,1988.814
1988824.0,223.0,32.0,212.0,254.0,1988.824
1988834.0,230.0,32.0,221.0,259.0,1988.834
1988844.0,223.0,32.0,214.0,254.0,1988.844
1988854.0,225.0,32.0,214.0,253.0,1988.854
1988864.0,217.0,32.0,206.0,247.0,1988.864
1988874.0,225.0,32.0,217.0,256.0,1988.874
1988884.0,231.0,33.0,221.0,261.0,1988.884
1988894.0,223.0,32.0,215.0,254.0,1988.894
1988904.0,224.0,33.0,211.0,253.0,1988.904
1988914.0,217.0,32.0,207.0,248.0,1988.914
1988924.0,224.0,33.0,216.0,258.0,1988.924
1988934.0,230.0,32.0,218.0,259.0,1988.934
1988944.0,222.0,33.0,210.0,253.0,1988.944
1988954.0,225.0,32.0,211.0,252.0,1988.954
1988964.0,217.0,32.0,205.0,246.0,1988.964
1988974.0,226.0,32.0,214.0,255.0,1988.974
1988984.0,232.0,31.0,216.0,255.0,1988.984
1988994.0,224.0,32.0,213.0,252.0,1988.994
1989004.0,226.0,32.0,212.0,250.0,1989.004
1989014.0,219.0,33.0,207.0,246.0,1989.014
1989024.0,227.0,32.0,218.0,256.0,1989.024
1989035.0,231.0,33.0,220.0,256.0,1989.035
1989045.0,222.0,32.0,214.0,250.0,1989.045
1989055.0,224.0,33.0,213.0,250.0,1989.055
1989065.0,224.0,32.0,216.0,253.0,1989.065
1989075.0,226.0,33.0,220.0,258.0,1989.075
1989085.0,231.0,33.0,220.0,258.0,1989.085
1989095.0,220.0,32.0,212.0,251.0,1989.095
1989105.0,224.0,32.0,213.0,251.0,1989.105
1989115.0,225.0,32.0,216.0,255.0,1989.115
1989125.0,227.0,32.0,220.0,259.0,1989.125
1989135.0,231.0,33.0,219.0,257.0,1989.135
1989145.0,220.0,32.0,212.0,250.0,1989.145
1989155.0,223.0,32.0,212.0,251.0,1989.155
1989165.0,221.0,33.0,215.0,253.0,1989.165
1989175.0,228.0,31.0,223.0,258.0,1989.175
1989185.0,230.0,33.0,221.0,256.0,1989.185
1989195.0,219.0,32.0,215.0,249.0,1989.195
1989206.0,222.0,33.0,216.0,252.0,1989.206
1989216.0,228.0,32.0,223.0,256.0,1989.216
1989226.0,225.0,32.0,223.0,256.0,1989.226
1989236.0,227.0,33.0,219.0,253.0,1989.236
1989246.0,218.0,31.0,212.0,247.0,1989.246
1989256.0,223.0,32.0,219.0,251.0,1989.256
1989266.0,229.0,33.0,224.0,258.0,1989.266
1989276.0,226.0,32.0,224.0,255.0,1989.276
1989286.0,227.0,33.0,218.0,252.0,1989.286
1989296.0,219.0,32.0,216.0,247.0,1989.296
1989306.0,222.0,33.0,215.0,250.0,1989.306
1989316.0,230.0,33.0,223.0,256.0,1989.316
1989326.0,226.0,32.0,223.0,254.0,1989.326
1989336.0,228.0,33.0,219.0,253.0,1989.336
1989346.0,219.0,32.0,217.0,246.0,1989.346
1989356.0,223.0,33.0,220.0,251.0,1989.356
1989366.0,231.0,33.0,233.0,259.0,1989.366
1989376.0,228.0,32.0,232.0,257.0,1989.376
1989386.0,228.0,32.0,226.0,254.0,1989.386
1989396.0,219.0,33.0,220.0,248.0,1989.396
1989406.0,223.0,32.0,225.0,254.0,1989.406
1989416.0,230.0,33.0,230.0,260.0,1989.416
1989426.0,228.0,32.0,231.0,256.0,1989.426
1989436.0,227.0,33.0,224.0,252.0,1989.436
1989446.0,218.0,32.0,222.0,245.0,1989.446
1989456.0,225.0,33.0,227.0,254.0,1989.456
1989466.0,228.0,33.0,230.0,256.0,1989.466
1989476.0,227.0,32.0,231.0,256.0,1989.476
1989486.0,227.0,33.0,225.0,253.0,1989.486
1989496.0,218.0,31.0,221.0,245.0,1989.496
1989506.0,222.0,33.0,223.0,250.0,1989.506
1989516.0,229.0,32.0,232.0,256.0,1989.516
1989526.0,225.0,33.0,232.0,254.0,1989.526
1989536.0,227.0,32.0,226.0,252.0,1989.536
1989547.0,217.0,32.0,225.0,246.0,1989.547
1989557.0,226.0,33.0,233.0,255.0,1989.557
1989567.0,231.0,33.0,235.0,259.0,1989.567
1989577.0,223.0,32.0,231.0,252.0,1989.577
1989587.0,226.0,34.0,226.0,252.0,1989.587
1989597.0,217.0,32.0,224.0,246.0,1989.597
1989607.0,228.0,33.0,233.0,258.0,1989.607
1989617.0,232.0,33.0,233.0,259.0,1989.617
1989627.0,223.0,31.0,230.0,252.0,1989.627
1989637.0,226.0,32.0,226.0,251.0,1989.637
1989647.0,218.0,33.0,222.0,248.0,1989.647
1989657.0,227.0,33.0,232.0,256.0,1989.657
1989667.0,232.0,33.0,232.0,257.0,1989.667
1989677.0,225.0,32.0,232.0,254.0,1989.677
1989687.0,227.0,33.0,227.0,251.0,1989.687
1989697.0,220.0,32.0,226.0,248.0,1989.697
1989707.0,228.0,32.0,235.0,257.0,1989.707
1989718.0,232.0,34.0,233.0,257.0,1989.718
1989728.0,223.0,32.0,233.0,251.0,1989.728
1989738.0,224.0,33.0,228.0,251.0,1989.738
1989748.0,227.0,32.0,233.0,254.0,1989.748
1989758.0,228.0,32.0,236.0,257.0,1989.758
1989768.0,232.0,32.0,232.0,256.0,1989.768
1989778.0,221.0,33.0,231.0,250.0,1989.778
1989788.0,224.0,32.0,228.0,251.0,1989.788
1989798.0,227.0,32.0,235.0,256.0,1989.798
1989808.0,229.0,32.0,239.0,259.0,1989.808
1989818.0,232.0,33.0,232.0,255.0,1989.818
1989828.0,220.0,32.0,230.0,248.0,1989.828
1989838.0,224.0,32.0,230.0,250.0,1989.838
1989848.0,223.0,33.0,234.0,252.0,1989.848
1989858.0,227.0,32.0,240.0,256.0,1989.858
1989868.0,230.0,32.0,234.0,254.0,1989.868
1989878.0,221.0,31.0,235.0,247.0,1989.878
1989888.0,225.0,32.0,231.0,249.0,1989.888
1989898.0,224.0,32.0,236.0,251.0,1989.898
1989908.0,228.0,33.0,241.0,256.0,1989.908
1989918.0,230.0,32.0,234.0,252.0,1989.918
1989928.0,219.0,32.0,234.0,246.0,1989.928
1989938.0,224.0,32.0,230.0,248.0,1989.938
1989948.0,224.0,32.0,235.0,251.0,1989.948
1989958.0,227.0,32.0,240.0,255.0,1989.958
1989968.0,229.0,32.0,232.0,253.0,1989.968
1989978.0,220.0,32.0,235.0,248.0,1989.978
1989988.0,224.0,32.0,231.0,249.0,1989.988
1989998.0,225.0,32.0,238.0,254.0,1989.998
1990008.0,228.0,31.0,244.0,256.0,1990.008
1990018.0,230.0,33.0,238.0,255.0,1990.018
1990028.0,221.0,32.0,237.0,249.0,1990.028
1990038.0,223.0,33.0,233.0,251.0,1990.038
1990048.0,227.0,32.0,240.0,256.0,1990.048
1990059.0,227.0,32.0,244.0,257.0,1990.059
1990069.0,228.0,32.0,236.0,254.0,1990.069
1990079.0,218.0,31.0,234.0,246.0,1990.079
1990089.0,224.0,32.0,238.0,253.0,1990.089
1990099.0,231.0,33.0,242.0,259.0,1990.099
1990109.0,227.0,32.0,244.0,256.0,1990.109
1990119.0,227.0,33.0,235.0,253.0,1990.119
1990129.0,218.0,32.0,238.0,246.0,1990.129
1990139.0,225.0,31.0,242.0,255.0,1990.139
1990149.0,228.0,32.0,245.0,257.0,1990.149
1990159.0,227.0,32.0,247.0,257.0,1990.159
1990169.0,227.0,33.0,238.0,253.0,1990.169
1990179.0,218.0,32.0,238.0,245.0,1990.179
1990189.0,222.0,32.0,236.0,250.0,1990.189
1990199.0,230.0,32.0,244.0,257.0,1990.199
1990209.0,225.0,32.0,244.0,254.0,1990.209
1990219.0,226.0,32.0,237.0,251.0,1990.219
1990230.0,217.0,32.0,235.0,246.0,1990.23
1990240.0,225.0,32.0,240.0,255.0,1990.24
1990250.0,230.0,33.0,240.0,256.0,1990.25
1990260.0,223.0,31.0,242.0,250.0,1990.26
1990270.0,224.0,32.0,236.0,250.0,1990.27
1990280.0,218.0,32.0,235.0,245.0,1990.28
1990290.0,226.0,32.0,243.0,256.0,1990.29
1990300.0,231.0,32.0,241.0,255.0,1990.3
1990310.0,221.0,32.0,241.0,249.0,1990.31
1990320.0,225.0,33.0,236.0,249.0,1990.32
1990330.0,218.0,31.0,238.0,247.0,1990.33
1990340.0,226.0,32.0,247.0,256.0,1990.34
1990350.0,231.0,33.0,243.0,256.0,1990.35
1990360.0,224.0,33.0,246.0,253.0,1990.36
1990370.0,226.0,32.0,238.0,250.0,1990.37
1990380.0,219.0,32.0,240.0,249.0,1990.38
1990390.0,228.0,32.0,247.0,256.0,1990.39
1990400.0,230.0,33.0,244.0,257.0,1990.4
1990410.0,223.0,32.0,244.0,251.0,1990.41
1990420.0,225.0,33.0,239.0,251.0,1990.42
1990430.0,221.0,32.0,240.0,248.0,1990.43
1990440.0,228.0,33.0,248.0,255.0,1990.44
1990450.0,231.0,33.0,245.0,256.0,1990.45
1990460.0,223.0,32.0,244.0,251.0,1990.46
1990470.0,225.0,32.0,236.0,250.0,1990.47
1990480.0,222.0,33.0,240.0,251.0,1990.48
1990490.0,226.0,33.0,245.0,256.0,1990.49
1990500.0,231.0,32.0,244.0,257.0,1990.5
1990510.0,223.0,32.0,243.0,250.0,1990.51
1990520.0,225.0,33.0,237.0,250.0,1990.52
1990530.0,218.0,32.0,237.0,246.0,1990.53
1990540.0,226.0,32.0,244.0,256.0,1990.54
1990550.0,231.0,34.0,243.0,257.0,1990.55
1990560.0,222.0,32.0,242.0,250.0,1990.56
1990571.0,224.0,33.0,235.0,250.0,1990.571
1990581.0,225.0,33.0,241.0,252.0,1990.581
1990591.0,226.0,33.0,244.0,256.0,1990.591
1990601.0,228.0,32.0,236.0,252.0,1990.601
1990611.0,218.0,33.0,236.0,246.0,1990.611
1990621.0,223.0,32.0,234.0,249.0,1990.621
1990631.0,225.0,32.0,240.0,253.0,1990.631
1990641.0,227.0,33.0,245.0,255.0,1990.641
1990651.0,229.0,33.0,237.0,252.0,1990.651
1990661.0,220.0,32.0,239.0,247.0,1990.661
1990671.0,224.0,33.0,234.0,249.0,1990.671
1990681.0,226.0,33.0,241.0,253.0,1990.681
1990691.0,227.0,32.0,244.0,253.0,1990.691
1990701.0,229.0,33.0,239.0,253.0,1990.701
1990711.0,221.0,32.0,240.0,246.0,1990.711
1990721.0,223.0,32.0,238.0,249.0,1990.721
1990731.0,227.0,33.0,244.0,254.0,1990.731
1990742.0,226.0,33.0,247.0,255.0,1990.742
1990752.0,227.0,32.0,238.0,250.0,1990.752
1990762.0,217.0,32.0,236.0,243.0,1990.762
1990772.0,225.0,32.0,241.0,251.0,1990.772
1990782.0,230.0,33.0,244.0,255.0,1990.782
1990792.0,225.0,32.0,247.0,253.0,1990.792
1990802.0,226.0,34.0,237.0,251.0,1990.802
1990812.0,217.0,32.0,238.0,242.0,1990.812
1990822.0,224.0,33.0,242.0,251.0,1990.822
1990832.0,228.0,33.0,244.0,254.0,1990.832
1990842.0,225.0,32.0,244.0,250.0,1990.842
1990852.0,226.0,33.0,234.0,248.0,1990.852
1990862.0,217.0,32.0,235.0,241.0,1990.862
1990872.0,222.0,33.0,237.0,247.0,1990.872
1990882.0,229.0,32.0,244.0,253.0,1990.882
1990892.0,225.0,33.0,246.0,249.0,1990.892
1990902.0,227.0,33.0,239.0,246.0,1990.902
1990912.0,218.0,32.0,240.0,240.0,1990.912
1990922.0,222.0,32.0,238.0,244.0,1990.922
1990932.0,229.0,34.0,244.0,252.0,1990.932
1990942.0,225.0,32.0,246.0,245.0,1990.942
1990952.0,225.0,33.0,237.0,245.0,1990.952
1990962.0,218.0,33.0,240.0,238.0,1990.962
1990972.0,224.0,33.0,242.0,246.0,1990.972
1990982.0,230.0,33.0,249.0,253.0,1990.982
1990992.0,225.0,33.0,249.0,248.0,1990.992
1991002.0,227.0,33.0,242.0,248.0,1991.002
1991012.0,219.0,32.0,245.0,241.0,1991.012
1991022.0,225.0,33.0,248.0,250.0,1991.022
1991032.0,233.0,33.0,251.0,254.0,1991.032
1991042.0,228.0,33.0,253.0,252.0,1991.042
1991052.0,228.0,33.0,243.0,249.0,1991.052
1991062.0,219.0,32.0,243.0,242.0,1991.062
1991072.0,226.0,32.0,249.0,251.0,1991.072
1991083.0,232.0,33.0,249.0,254.0,1991.083
1991093.0,225.0,33.0,251.0,247.0,1991.093
1991103.0,226.0,33.0,241.0,247.0,1991.103
1991113.0,222.0,33.0,244.0,246.0,1991.113
1991123.0,228.0,34.0,251.0,253.0,1991.123
1991133.0,232.0,34.0,249.0,254.0,1991.133
1991143.0,223.0,32.0,249.0,247.0,1991.143
1991153.0,225.0,33.0,242.0,247.0,1991.153
1991163.0,223.0,33.0,246.0,248.0,1991.163
1991173.0,226.0,33.0,249.0,253.0,1991.173
1991183.0,231.0,33.0,246.0,256.0,1991.183
1991193.0,223.0,33.0,248.0,248.0,1991.193
1991203.0,224.0,34.0,241.0,248.0,1991.203
1991213.0,218.0,32.0,241.0,245.0,1991.213
1991223.0,228.0,33.0,252.0,255.0,1991.223
1991233.0,231.0,33.0,247.0,256.0,1991.233
1991243.0,223.0,32.0,249.0,248.0,1991.243
1991254.0,225.0,34.0,243.0,250.0,1991.254
1991264.0,225.0,32.0,249.0,252.0,1991.264
1991274.0,228.0,32.0,253.0,255.0,1991.274
1991284.0,230.0,33.0,245.0,251.0,1991.284
1991294.0,220.0,32.0,245.0,244.0,1991.294
1991304.0,223.0,33.0,242.0,247.0,1991.304
1991314.0,226.0,33.0,248.0,253.0,1991.314
1991324.0,228.0,32.0,254.0,254.0,1991.324
1991334.0,228.0,33.0,243.0,250.0,1991.334
1991344.0,221.0,32.0,248.0,246.0,1991.344
1991354.0,225.0,33.0,242.0,248.0,1991.354
1991364.0,228.0,32.0,250.0,254.0,1991.364
1991374.0,228.0,32.0,253.0,255.0,1991.374
1991384.0,231.0,34.0,245.0,254.0,1991.384
1991394.0,222.0,32.0,247.0,247.0,1991.394
1991404.0,224.0,32.0,241.0,248.0,1991.404
1991414.0,229.0,33.0,249.0,254.0,1991.414
1991424.0,229.0,32.0,251.0,255.0,1991.424
1991434.0,230.0,33.0,243.0,252.0,1991.434
1991444.0,221.0,33.0,243.0,246.0,1991.444
1991454.0,223.0,32.0,240.0,248.0,1991.454
1991464.0,229.0,33.0,246.0,255.0,1991.464
1991474.0,229.0,32.0,249.0,255.0,1991.474
1991484.0,230.0,33.0,239.0,252.0,1991.484
1991494.0,221.0,32.0,239.0,244.0,1991.494
1991504.0,224.0,33.0,236.0,248.0,1991.504
1991514.0,226.0,33.0,241.0,251.0,1991.514
1991524.0,229.0,32.0,248.0,254.0,1991.524
1991534.0,229.0,33.0,239.0,251.0,1991.534
1991544.0,221.0,31.0,240.0,243.0,1991.544
1991554.0,224.0,32.0,236.0,246.0,1991.554
1991564.0,226.0,33.0,241.0,251.0,1991.564
1991574.0,229.0,33.0,243.0,253.0,1991.574
1991584.0,228.0,32.0,235.0,249.0,1991.584
1991595.0,220.0,32.0,235.0,242.0,1991.595
1991605.0,226.0,32.0,239.0,248.0,1991.605
1991615.0,231.0,32.0,242.0,254.0,1991.615
1991625.0,227.0,32.0,242.0,249.0,1991.625
1991635.0,227.0,33.0,234.0,249.0,1991.635
1991645.0,220.0,32.0,235.0,241.0,1991.645
1991655.0,226.0,32.0,240.0,250.0,1991.655
1991665.0,232.0,33.0,245.0,255.0,1991.665
1991675.0,228.0,32.0,245.0,250.0,1991.675
1991685.0,228.0,32.0,238.0,250.0,1991.685
1991695.0,221.0,32.0,239.0,243.0,1991.695
1991705.0,227.0,32.0,243.0,252.0,1991.705
1991715.0,233.0,32.0,245.0,256.0,1991.715
1991725.0,229.0,32.0,248.0,253.0,1991.725
1991735.0,229.0,32.0,240.0,250.0,1991.735
1991745.0,220.0,32.0,240.0,243.0,1991.745
1991755.0,228.0,32.0,247.0,252.0,1991.755
1991766.0,233.0,33.0,246.0,256.0,1991.766
1991776.0,227.0,32.0,247.0,248.0,1991.776
1991786.0,227.0,32.0,239.0,249.0,1991.786
1991796.0,226.0,32.0,245.0,248.0,1991.796
1991806.0,231.0,32.0,252.0,255.0,1991.806
1991816.0,232.0,32.0,246.0,253.0,1991.816
1991826.0,226.0,33.0,247.0,248.0,1991.826
1991836.0,227.0,32.0,241.0,246.0,1991.836
1991846.0,226.0,32.0,246.0,248.0,1991.846
1991856.0,229.0,32.0,251.0,253.0,1991.856
1991866.0,232.0,32.0,247.0,255.0,1991.866
1991876.0,225.0,32.0,249.0,247.0,1991.876
1991886.0,227.0,33.0,242.0,248.0,1991.886
1991896.0,222.0,32.0,248.0,245.0,1991.896
1991906.0,230.0,32.0,256.0,253.0,1991.906
1991916.0,233.0,32.0,251.0,254.0,1991.916
1991926.0,226.0,32.0,253.0,246.0,1991.926
1991936.0,227.0,33.0,246.0,248.0,1991.936
1991946.0,222.0,32.0,247.0,245.0,1991.946
1991956.0,230.0,33.0,256.0,255.0,1991.956
1991966.0,234.0,32.0,249.0,254.0,1991.966
1991976.0,224.0,32.0,251.0,246.0,1991.976
1991986.0,228.0,32.0,246.0,248.0,1991.986
1991996.0,224.0,31.0,249.0,246.0,1991.996
1992006.0,230.0,32.0,258.0,254.0,1992.006
1992016.0,233.0,33.0,249.0,253.0,1992.016
1992026.0,226.0,32.0,254.0,248.0,1992.026
1992036.0,227.0,32.0,246.0,248.0,1992.036
1992046.0,225.0,32.0,250.0,250.0,1992.046
1992056.0,231.0,31.0,256.0,256.0,1992.056
1992066.0,232.0,33.0,250.0,256.0,1992.066
1992076.0,225.0,32.0,251.0,248.0,1992.076
1992086.0,226.0,33.0,244.0,249.0,1992.086
1992096.0,225.0,32.0,251.0,249.0,1992.096
1992107.0,229.0,32.0,257.0,254.0,1992.107
1992117.0,231.0,33.0,248.0,251.0,1992.117
1992127.0,222.0,31.0,254.0,244.0,1992.127
1992137.0,224.0,33.0,250.0,248.0,1992.137
1992147.0,230.0,34.0,258.0,256.0,1992.147
1992157.0,229.0,32.0,262.0,254.0,1992.157
1992167.0,229.0,32.0,251.0,251.0,1992.167
1992177.0,221.0,32.0,255.0,243.0,1992.177
1992187.0,224.0,33.0,250.0,248.0,1992.187
1992197.0,226.0,33.0,255.0,250.0,1992.197
1992207.0,229.0,32.0,261.0,254.0,1992.207
1992217.0,229.0,33.0,252.0,252.0,1992.217
1992227.0,221.0,32.0,255.0,243.0,1992.227
1992237.0,224.0,33.0,251.0,248.0,1992.237
1992247.0,228.0,33.0,259.0,253.0,1992.247
1992257.0,228.0,33.0,264.0,255.0,1992.257
1992267.0,228.0,33.0,252.0,251.0,1992.267
1992278.0,219.0,33.0,253.0,243.0,1992.278
1992288.0,226.0,32.0,254.0,250.0,1992.288
1992298.0,231.0,33.0,256.0,255.0,1992.298
1992308.0,228.0,32.0,256.0,248.0,1992.308
1992318.0,226.0,33.0,246.0,248.0,1992.318
1992328.0,220.0,32.0,248.0,241.0,1992.328
1992338.0,226.0,33.0,251.0,251.0,1992.338
1992348.0,231.0,33.0,253.0,254.0,1992.348
1992358.0,227.0,32.0,254.0,249.0,1992.358
1992368.0,228.0,32.0,247.0,249.0,1992.368
1992378.0,221.0,33.0,248.0,242.0,1992.378
1992388.0,226.0,33.0,252.0,250.0,1992.388
1992398.0,232.0,33.0,253.0,253.0,1992.398
1992408.0,229.0,33.0,257.0,250.0,1992.408
1992418.0,227.0,32.0,247.0,247.0,1992.418
1992428.0,219.0,32.0,248.0,240.0,1992.428
1992438.0,228.0,33.0,254.0,249.0,1992.438
1992448.0,231.0,33.0,254.0,252.0,1992.448
1992458.0,228.0,33.0,256.0,249.0,1992.458
1992468.0,227.0,33.0,247.0,248.0,1992.468
1992478.0,221.0,32.0,249.0,242.0,1992.478
1992488.0,228.0,32.0,253.0,252.0,1992.488
1992498.0,232.0,32.0,253.0,254.0,1992.498
1992508.0,228.0,31.0,255.0,250.0,1992.508
1992518.0,227.0,33.0,245.0,248.0,1992.518
1992528.0,221.0,32.0,247.0,244.0,1992.528
1992538.0,226.0,33.0,248.0,248.0,1992.538
1992548.0,232.0,32.0,252.0,254.0,1992.548
1992558.0,227.0,33.0,253.0,248.0,1992.558
1992568.0,228.0,33.0,246.0,247.0,1992.568
1992578.0,221.0,33.0,247.0,240.0,1992.578
1992588.0,227.0,32.0,252.0,249.0,1992.588
1992598.0,233.0,34.0,255.0,255.0,1992.598
1992608.0,228.0,32.0,256.0,249.0,1992.608
1992619.0,228.0,33.0,247.0,249.0,1992.619
1992629.0,225.0,33.0,250.0,246.0,1992.629
1992639.0,232.0,33.0,258.0,255.0,1992.639
1992649.0,233.0,33.0,250.0,253.0,1992.649
1992659.0,225.0,33.0,253.0,247.0,1992.659
1992669.0,227.0,32.0,247.0,249.0,1992.669
1992679.0,225.0,32.0,250.0,248.0,1992.679
1992689.0,232.0,33.0,259.0,255.0,1992.689
1992699.0,233.0,33.0,248.0,253.0,1992.699
1992709.0,226.0,33.0,253.0,246.0,1992.709
1992719.0,227.0,33.0,244.0,247.0,1992.719
1992729.0,225.0,34.0,248.0,247.0,1992.729
1992739.0,231.0,32.0,256.0,253.0,1992.739
1992749.0,233.0,33.0,249.0,254.0,1992.749
1992759.0,227.0,32.0,253.0,246.0,1992.759
1992769.0,226.0,33.0,245.0,247.0,1992.769
1992779.0,226.0,33.0,250.0,249.0,1992.779
1992790.0,231.0,33.0,255.0,253.0,1992.79
1992800.0,230.0,34.0,244.0,249.0,1992.8
1992810.0,223.0,32.0,248.0,241.0,1992.81
1992820.0,226.0,33.0,246.0,245.0,1992.82
1992830.0,232.0,32.0,253.0,253.0,1992.83
1992840.0,231.0,32.0,257.0,251.0,1992.84
1992850.0,231.0,33.0,251.0,251.0,1992.85
1992860.0,223.0,32.0,252.0,242.0,1992.86
1992870.0,226.0,32.0,252.0,247.0,1992.87
1992880.0,229.0,33.0,256.0,251.0,1992.88
1992890.0,231.0,31.0,260.0,252.0,1992.89
1992900.0,230.0,34.0,250.0,250.0,1992.9
1992910.0,222.0,32.0,252.0,243.0,1992.91
1992920.0,226.0,34.0,248.0,248.0,1992.92
1992930.0,229.0,32.0,256.0,254.0,1992.93
1992940.0,230.0,33.0,257.0,253.0,1992.94
1992950.0,231.0,33.0,248.0,250.0,1992.95
1992960.0,224.0,32.0,251.0,244.0,1992.96
1992970.0,226.0,33.0,246.0,246.0,1992.97
1992980.0,230.0,34.0,253.0,254.0,1992.98
1992990.0,230.0,32.0,254.0,252.0,1992.99
1993000.0,229.0,32.0,244.0,250.0,1993.0
1993010.0,224.0,32.0,249.0,244.0,1993.01
1993020.0,226.0,33.0,245.0,246.0,1993.02
1993030.0,231.0,33.0,252.0,253.0,1993.03
1993040.0,230.0,32.0,256.0,251.0,1993.04
1993050.0,231.0,34.0,248.0,250.0,1993.05
1993060.0,223.0,32.0,250.0,242.0,1993.06
1993070.0,225.0,33.0,245.0,246.0,1993.07
1993080.0,232.0,33.0,254.0,253.0,1993.08
1993090.0,230.0,33.0,258.0,252.0,1993.09
1993100.0,230.0,33.0,248.0,249.0,1993.1
1993110.0,222.0,33.0,251.0,243.0,1993.11
1993120.0,225.0,32.0,247.0,247.0,1993.12
1993131.0,233.0,33.0,253.0,253.0,1993.131
1993141.0,230.0,32.0,256.0,248.0,1993.141
1993151.0,228.0,33.0,246.0,247.0,1993.151
1993161.0,222.0,32.0,248.0,240.0,1993.161
1993171.0,229.0,33.0,257.0,253.0,1993.171
1993181.0,233.0,32.0,257.0,254.0,1993.181
1993191.0,228.0,31.0,258.0,248.0,1993.191
1993201.0,228.0,32.0,249.0,247.0,1993.201
1993211.0,222.0,31.0,250.0,243.0,1993.211
1993221.0,227.0,32.0,254.0,249.0,1993.221
1993231.0,234.0,32.0,257.0,256.0,1993.231
1993241.0,228.0,32.0,259.0,248.0,1993.241
1993251.0,228.0,32.0,250.0,247.0,1993.251
1993261.0,221.0,32.0,253.0,241.0,1993.261
1993271.0,229.0,32.0,257.0,249.0,1993.271
1993281.0,233.0,33.0,260.0,255.0,1993.281
1993291.0,228.0,32.0,263.0,248.0,1993.291
1993302.0,228.0,33.0,255.0,248.0,1993.302
1993312.0,224.0,31.0,258.0,245.0,1993.312
1993322.0,231.0,32.0,264.0,252.0,1993.322
1993332.0,233.0,33.0,256.0,250.0,1993.332
1993342.0,224.0,31.0,258.0,243.0,1993.342
1993352.0,227.0,32.0,252.0,246.0,1993.352
1993362.0,225.0,33.0,256.0,246.0,1993.362
1993372.0,231.0,32.0,263.0,252.0,1993.372
1993382.0,232.0,32.0,253.0,250.0,1993.382
1993392.0,226.0,31.0,260.0,245.0,1993.392
1993402.0,228.0,32.0,253.0,246.0,1993.402
1993412.0,226.0,32.0,258.0,248.0,1993.412
1993422.0,231.0,32.0,264.0,253.0,1993.422
1993432.0,233.0,33.0,257.0,254.0,1993.432
1993442.0,225.0,32.0,258.0,244.0,1993.442
