time (ms),signal 0,signal 1,signal 2,signal 3,time (sec)
1933870.0,211.0,32.0,217.0,234.0,1933.87
1933880.0,217.0,32.0,221.0,240.0,1933.88
1933890.0,210.0,32.0,219.0,233.0,1933.89
1933900.0,211.0,32.0,214.0,233.0,1933.9
1933910.0,204.0,32.0,212.0,227.0,1933.91
1933920.0,211.0,32.0,218.0,235.0,1933.92
1933930.0,216.0,32.0,220.0,240.0,1933.93
1933940.0,210.0,32.0,219.0,231.0,1933.94
1933950.0,211.0,32.0,212.0,233.0,1933.95
1933960.0,204.0,32.0,212.0,226.0,1933.96
1933970.0,212.0,32.0,218.0,236.0,1933.97
1933980.0,216.0,32.0,219.0,239.0,1933.98
1933990.0,209.0,31.0,218.0,231.0,1933.99
1934000.0,210.0,32.0,213.0,234.0,1934.0
1934010.0,205.0,31.0,213.0,228.0,1934.01
1934020.0,212.0,32.0,220.0,238.0,1934.02
1934030.0,215.0,33.0,219.0,241.0,1934.03
1934040.0,211.0,33.0,220.0,235.0,1934.04
1934050.0,211.0,32.0,213.0,234.0,1934.05
1934060.0,206.0,32.0,212.0,229.0,1934.06
1934070.0,215.0,32.0,223.0,238.0,1934.07
1934080.0,218.0,31.0,220.0,240.0,1934.08
1934090.0,213.0,32.0,220.0,233.0,1934.09
1934100.0,213.0,32.0,214.0,236.0,1934.1
1934110.0,208.0,32.0,215.0,230.0,1934.11
1934120.0,217.0,31.0,224.0,240.0,1934.12
1934130.0,218.0,32.0,221.0,241.0,1934.13
1934140.0,213.0,31.0,222.0,234.0,1934.14
1934150.0,213.0,32.0,215.0,235.0,1934.15
1934160.0,209.0,32.0,217.0,234.0,1934.16
1934170.0,214.0,33.0,223.0,240.0,1934.17
1934180.0,218.0,32.0,223.0,242.0,1934.18
1934190.0,212.0,32.0,223.0,234.0,1934.19
1934200.0,213.0,32.0,218.0,235.0,1934.2
1934210.0,207.0,32.0,216.0,229.0,1934.21
1934220.0,216.0,32.0,227.0,241.0,1934.22
1934230.0,220.0,33.0,224.0,243.0,1934.23
1934240.0,213.0,31.0,225.0,234.0,1934.24
1934251.0,213.0,32.0,220.0,236.0,1934.251
1934261.0,214.0,32.0,226.0,237.0,1934.261
1934271.0,218.0,31.0,233.0,241.0,1934.271
1934281.0,218.0,32.0,224.0,240.0,1934.281
1934291.0,210.0,32.0,226.0,231.0,1934.291
1934301.0,215.0,32.0,222.0,236.0,1934.301
1934311.0,215.0,32.0,228.0,238.0,1934.311
1934321.0,218.0,32.0,233.0,240.0,1934.321
1934331.0,218.0,31.0,225.0,239.0,1934.331
1934341.0,212.0,32.0,226.0,232.0,1934.341
1934351.0,214.0,32.0,223.0,235.0,1934.351
1934361.0,216.0,33.0,228.0,240.0,1934.361
1934371.0,218.0,32.0,231.0,240.0,1934.371
1934381.0,220.0,33.0,225.0,242.0,1934.381
1934391.0,213.0,32.0,227.0,232.0,1934.391
1934401.0,213.0,32.0,222.0,235.0,1934.401
1934411.0,216.0,32.0,228.0,240.0,1934.411
1934422.0,218.0,33.0,232.0,241.0,1934.422
1934432.0,217.0,32.0,224.0,240.0,1934.432
1934442.0,209.0,32.0,224.0,230.0,1934.442
1934452.0,214.0,32.0,228.0,238.0,1934.452
1934462.0,221.0,31.0,231.0,244.0,1934.462
1934472.0,218.0,32.0,233.0,240.0,1934.472
1934482.0,217.0,32.0,224.0,240.0,1934.482
1934492.0,209.0,32.0,224.0,229.0,1934.492
1934502.0,216.0,32.0,229.0,238.0,1934.502
1934512.0,219.0,32.0,231.0,242.0,1934.512
1934522.0,218.0,31.0,234.0,238.0,1934.522
1934532.0,216.0,33.0,224.0,238.0,1934.532
1934542.0,208.0,32.0,225.0,230.0,1934.542
1934552.0,213.0,33.0,226.0,236.0,1934.552
1934562.0,219.0,32.0,233.0,242.0,1934.562
1934572.0,217.0,32.0,235.0,238.0,1934.572
1934582.0,217.0,32.0,227.0,237.0,1934.582
1934592.0,211.0,31.0,228.0,229.0,1934.592
1934602.0,214.0,32.0,229.0,236.0,1934.602
1934612.0,220.0,33.0,235.0,244.0,1934.612
1934622.0,216.0,32.0,236.0,236.0,1934.622
1934632.0,216.0,32.0,227.0,237.0,1934.632
1934642.0,209.0,32.0,229.0,229.0,1934.642
1934652.0,215.0,31.0,230.0,237.0,1934.652
1934662.0,220.0,33.0,233.0,244.0,1934.662
1934672.0,216.0,32.0,234.0,237.0,1934.672
1934682.0,217.0,33.0,226.0,240.0,1934.682
1934692.0,210.0,32.0,226.0,230.0,1934.692
1934702.0,214.0,32.0,230.0,240.0,1934.702
1934712.0,221.0,32.0,234.0,245.0,1934.712
1934722.0,217.0,31.0,234.0,241.0,1934.722
1934732.0,215.0,32.0,224.0,237.0,1934.732
1934742.0,208.0,32.0,221.0,232.0,1934.742
1934752.0,213.0,32.0,222.0,233.0,1934.752
1934763.0,221.0,32.0,225.0,238.0,1934.763
1934773.0,217.0,32.0,228.0,240.0,1934.773
1934783.0,216.0,33.0,212.0,234.0,1934.783
1934793.0,213.0,32.0,217.0,228.0,1934.793
1934803.0,216.0,33.0,221.0,233.0,1934.803
1934813.0,217.0,33.0,225.0,239.0,1934.813
1934823.0,219.0,32.0,234.0,247.0,1934.823
1934833.0,217.0,33.0,229.0,254.0,1934.833
1934843.0,218.0,33.0,230.0,265.0,1934.843
1934853.0,220.0,33.0,237.0,268.0,1934.853
1934863.0,226.0,33.0,232.0,263.0,1934.863
1934873.0,214.0,33.0,225.0,260.0,1934.873
1934883.0,216.0,32.0,239.0,261.0,1934.883
1934893.0,210.0,33.0,236.0,257.0,1934.893
1934903.0,220.0,33.0,245.0,267.0,1934.903
1934913.0,228.0,34.0,252.0,273.0,1934.913
1934923.0,223.0,33.0,240.0,266.0,1934.923
1934934.0,226.0,34.0,240.0,265.0,1934.934
1934944.0,223.0,32.0,239.0,268.0,1934.944
1934954.0,223.0,32.0,237.0,272.0,1934.954
1934964.0,228.0,34.0,231.0,266.0,1934.964
1934974.0,227.0,33.0,212.0,257.0,1934.974
1934984.0,243.0,34.0,211.0,253.0,1934.984
1934994.0,253.0,33.0,216.0,258.0,1934.994
1935004.0,252.0,33.0,211.0,254.0,1935.004
1935014.0,249.0,33.0,221.0,258.0,1935.014
1935024.0,236.0,33.0,207.0,250.0,1935.024
1935034.0,231.0,33.0,208.0,247.0,1935.034
1935044.0,234.0,33.0,217.0,258.0,1935.044
1935054.0,235.0,33.0,214.0,260.0,1935.054
1935064.0,240.0,35.0,222.0,261.0,1935.064
1935074.0,227.0,32.0,201.0,244.0,1935.074
1935084.0,235.0,33.0,209.0,252.0,1935.084
1935094.0,243.0,33.0,227.0,273.0,1935.094
1935104.0,238.0,32.0,229.0,278.0,1935.104
1935114.0,234.0,33.0,229.0,273.0,1935.114
1935124.0,228.0,33.0,219.0,269.0,1935.124
1935134.0,232.0,33.0,216.0,266.0,1935.134
1935144.0,233.0,33.0,223.0,276.0,1935.144
1935154.0,237.0,33.0,224.0,279.0,1935.154
1935164.0,244.0,33.0,227.0,277.0,1935.164
1935174.0,238.0,32.0,212.0,262.0,1935.174
1935184.0,239.0,33.0,213.0,261.0,1935.184
1935194.0,239.0,34.0,214.0,260.0,1935.194
1935204.0,233.0,32.0,214.0,261.0,1935.204
1935214.0,234.0,33.0,211.0,261.0,1935.214
1935224.0,225.0,32.0,201.0,249.0,1935.224
1935234.0,226.0,32.0,207.0,258.0,1935.234
1935244.0,229.0,33.0,215.0,270.0,1935.244
1935254.0,231.0,33.0,216.0,265.0,1935.254
1935264.0,231.0,32.0,203.0,250.0,1935.264
1935275.0,219.0,32.0,189.0,238.0,1935.275
1935285.0,227.0,32.0,196.0,243.0,1935.285
1935295.0,232.0,32.0,206.0,253.0,1935.295
1935305.0,224.0,32.0,199.0,239.0,1935.305
1935315.0,224.0,33.0,203.0,243.0,1935.315
1935325.0,221.0,31.0,203.0,238.0,1935.325
1935335.0,227.0,32.0,215.0,253.0,1935.335
1935345.0,228.0,33.0,218.0,253.0,1935.345
1935355.0,220.0,31.0,211.0,245.0,1935.355
1935365.0,219.0,32.0,214.0,256.0,1935.365
1935375.0,213.0,32.0,213.0,257.0,1935.375
1935385.0,220.0,33.0,223.0,268.0,1935.385
1935395.0,234.0,32.0,239.0,288.0,1935.395
1935405.0,228.0,33.0,232.0,277.0,1935.405
1935415.0,231.0,32.0,234.0,278.0,1935.415
1935425.0,222.0,33.0,226.0,270.0,1935.425
1935435.0,227.0,32.0,233.0,280.0,1935.435
1935446.0,230.0,33.0,236.0,288.0,1935.446
1935456.0,221.0,32.0,223.0,270.0,1935.456
1935466.0,226.0,33.0,224.0,276.0,1935.466
1935476.0,222.0,33.0,222.0,268.0,1935.476
1935486.0,225.0,32.0,217.0,254.0,1935.486
1935496.0,227.0,33.0,218.0,258.0,1935.496
1935506.0,220.0,32.0,215.0,254.0,1935.506
1935516.0,221.0,33.0,213.0,254.0,1935.516
1935526.0,223.0,32.0,212.0,254.0,1935.526
1935536.0,230.0,33.0,220.0,261.0,1935.536
1935546.0,236.0,33.0,221.0,262.0,1935.546
1935556.0,224.0,33.0,215.0,251.0,1935.556
1935566.0,231.0,33.0,214.0,255.0,1935.566
1935576.0,230.0,33.0,216.0,253.0,1935.576
1935586.0,235.0,32.0,226.0,260.0,1935.586
1935596.0,240.0,33.0,221.0,256.0,1935.596
1935606.0,232.0,32.0,216.0,244.0,1935.606
1935616.0,234.0,32.0,212.0,247.0,1935.616
1935626.0,228.0,32.0,214.0,246.0,1935.626
1935636.0,234.0,33.0,224.0,253.0,1935.636
1935646.0,237.0,34.0,223.0,257.0,1935.646
1935656.0,228.0,32.0,216.0,241.0,1935.656
1935666.0,229.0,33.0,215.0,245.0,1935.666
1935676.0,229.0,32.0,218.0,245.0,1935.676
1935686.0,237.0,32.0,228.0,255.0,1935.686
1935696.0,237.0,33.0,232.0,266.0,1935.696
1935706.0,234.0,33.0,235.0,265.0,1935.706
1935716.0,234.0,32.0,237.0,272.0,1935.716
1935726.0,237.0,32.0,233.0,269.0,1935.726
1935736.0,239.0,33.0,236.0,266.0,1935.736
1935746.0,240.0,33.0,232.0,270.0,1935.746
1935756.0,234.0,32.0,231.0,260.0,1935.756
1935766.0,235.0,34.0,231.0,266.0,1935.766
1935776.0,241.0,32.0,236.0,268.0,1935.776
1935787.0,242.0,32.0,236.0,263.0,1935.787
1935797.0,239.0,33.0,228.0,259.0,1935.797
1935807.0,230.0,32.0,225.0,250.0,1935.807
1935817.0,232.0,32.0,234.0,265.0,1935.817
1935827.0,235.0,32.0,239.0,272.0,1935.827
1935837.0,233.0,32.0,239.0,267.0,1935.837
1935847.0,228.0,32.0,233.0,270.0,1935.847
1935857.0,221.0,32.0,231.0,265.0,1935.857
1935867.0,223.0,32.0,233.0,271.0,1935.867
1935877.0,229.0,33.0,236.0,275.0,1935.877
1935887.0,230.0,32.0,244.0,279.0,1935.887
1935897.0,230.0,33.0,235.0,281.0,1935.897
1935907.0,219.0,32.0,229.0,266.0,1935.907
1935917.0,224.0,33.0,229.0,270.0,1935.917
1935927.0,231.0,33.0,239.0,275.0,1935.927
1935937.0,229.0,32.0,242.0,276.0,1935.937
1935947.0,230.0,33.0,241.0,284.0,1935.947
1935958.0,226.0,33.0,239.0,270.0,1935.958
1935968.0,225.0,32.0,233.0,263.0,1935.968
1935978.0,230.0,33.0,233.0,260.0,1935.978
1935988.0,225.0,32.0,235.0,256.0,1935.988
1935998.0,227.0,31.0,232.0,260.0,1935.998
1936008.0,220.0,32.0,228.0,249.0,1936.008
1936018.0,231.0,32.0,237.0,261.0,1936.018
1936028.0,237.0,33.0,237.0,265.0,1936.028
1936038.0,231.0,32.0,233.0,252.0,1936.038
1936048.0,230.0,32.0,224.0,244.0,1936.048
1936058.0,223.0,32.0,217.0,231.0,1936.058
1936068.0,225.0,32.0,224.0,244.0,1936.068
1936078.0,229.0,32.0,224.0,248.0,1936.078
1936088.0,224.0,33.0,227.0,246.0,1936.088
1936098.0,222.0,32.0,222.0,248.0,1936.098
1936108.0,216.0,32.0,219.0,242.0,1936.108
1936118.0,224.0,32.0,230.0,250.0,1936.118
1936128.0,227.0,31.0,226.0,245.0,1936.128
1936138.0,222.0,32.0,224.0,238.0,1936.138
1936148.0,225.0,33.0,220.0,242.0,1936.148
1936158.0,224.0,32.0,224.0,242.0,1936.158
1936168.0,233.0,32.0,232.0,249.0,1936.168
1936178.0,232.0,32.0,234.0,251.0,1936.178
1936188.0,228.0,32.0,230.0,243.0,1936.188
1936198.0,228.0,32.0,229.0,249.0,1936.198
1936208.0,227.0,32.0,228.0,249.0,1936.208
1936218.0,233.0,33.0,236.0,260.0,1936.218
1936228.0,238.0,32.0,237.0,263.0,1936.228
1936238.0,229.0,32.0,227.0,250.0,1936.238
1936248.0,228.0,32.0,221.0,247.0,1936.248
1936258.0,220.0,32.0,214.0,237.0,1936.258
1936268.0,223.0,32.0,223.0,243.0,1936.268
1936278.0,231.0,34.0,223.0,249.0,1936.278
1936288.0,226.0,32.0,221.0,242.0,1936.288
1936299.0,226.0,32.0,220.0,249.0,1936.299
1936309.0,226.0,32.0,222.0,253.0,1936.309
1936319.0,232.0,31.0,228.0,257.0,1936.319
1936329.0,229.0,33.0,226.0,257.0,1936.329
1936339.0,219.0,32.0,216.0,247.0,1936.339
1936349.0,222.0,33.0,218.0,252.0,1936.349
1936359.0,222.0,32.0,222.0,256.0,1936.359
1936369.0,226.0,32.0,228.0,261.0,1936.369
1936379.0,227.0,32.0,227.0,267.0,1936.379
1936389.0,224.0,32.0,223.0,263.0,1936.389
1936399.0,229.0,33.0,221.0,265.0,1936.399
1936409.0,230.0,33.0,221.0,262.0,1936.409
1936419.0,235.0,32.0,220.0,256.0,1936.419
1936429.0,237.0,32.0,222.0,256.0,1936.429
1936439.0,230.0,32.0,213.0,248.0,1936.439
1936449.0,230.0,32.0,212.0,250.0,1936.449
1936459.0,233.0,32.0,220.0,257.0,1936.459
1936470.0,237.0,33.0,216.0,255.0,1936.47
1936480.0,233.0,32.0,218.0,252.0,1936.48
1936490.0,227.0,32.0,211.0,254.0,1936.49
1936500.0,231.0,32.0,224.0,266.0,1936.5
1936510.0,237.0,33.0,232.0,273.0,1936.51
1936520.0,234.0,33.0,219.0,263.0,1936.52
1936530.0,235.0,33.0,226.0,268.0,1936.53
1936540.0,227.0,33.0,211.0,260.0,1936.54
1936550.0,233.0,32.0,219.0,271.0,1936.55
1936560.0,233.0,33.0,226.0,271.0,1936.56
1936570.0,233.0,33.0,214.0,260.0,1936.57
1936580.0,232.0,33.0,221.0,256.0,1936.58
1936590.0,223.0,32.0,203.0,248.0,1936.59
1936600.0,227.0,33.0,217.0,260.0,1936.6
1936610.0,232.0,32.0,227.0,270.0,1936.61
1936620.0,229.0,32.0,216.0,263.0,1936.62
1936630.0,229.0,32.0,230.0,256.0,1936.63
1936640.0,224.0,31.0,209.0,247.0,1936.64
1936650.0,225.0,32.0,222.0,254.0,1936.65
1936660.0,231.0,33.0,237.0,256.0,1936.66
1936670.0,229.0,32.0,224.0,255.0,1936.67
1936680.0,227.0,32.0,242.0,251.0,1936.68
1936690.0,223.0,33.0,229.0,249.0,1936.69
1936700.0,226.0,33.0,241.0,246.0,1936.7
1936710.0,234.0,33.0,257.0,251.0,1936.71
1936720.0,230.0,32.0,240.0,243.0,1936.72
1936730.0,230.0,34.0,267.0,249.0,1936.73
1936740.0,223.0,32.0,244.0,244.0,1936.74
1936750.0,229.0,32.0,263.0,258.0,1936.75
1936760.0,238.0,33.0,288.0,263.0,1936.76
1936770.0,233.0,32.0,269.0,258.0,1936.77
1936780.0,231.0,33.0,296.0,257.0,1936.78
1936790.0,221.0,34.0,275.0,249.0,1936.79
1936800.0,227.0,32.0,293.0,256.0,1936.8
1936811.0,232.0,32.0,315.0,257.0,1936.811
1936821.0,227.0,32.0,294.0,249.0,1936.821
1936831.0,227.0,32.0,322.0,251.0,1936.831
1936841.0,222.0,33.0,314.0,248.0,1936.841
1936851.0,229.0,33.0,316.0,257.0,1936.851
1936861.0,231.0,33.0,343.0,256.0,1936.861
1936871.0,224.0,32.0,322.0,247.0,1936.871
1936881.0,224.0,33.0,348.0,248.0,1936.881
1936891.0,221.0,32.0,343.0,246.0,1936.891
1936901.0,224.0,32.0,348.0,255.0,1936.901
1936911.0,227.0,33.0,374.0,255.0,1936.911
1936921.0,218.0,33.0,350.0,247.0,1936.921
1936931.0,220.0,32.0,378.0,247.0,1936.931
1936941.0,217.0,33.0,367.0,243.0,1936.941
1936951.0,229.0,33.0,380.0,254.0,1936.951
1936961.0,231.0,33.0,408.0,257.0,1936.961
1936971.0,222.0,32.0,381.0,248.0,1936.971
1936982.0,223.0,33.0,414.0,249.0,1936.982
1936992.0,223.0,34.0,413.0,250.0,1936.992
1937002.0,227.0,33.0,404.0,253.0,1937.002
1937012.0,227.0,33.0,438.0,250.0,1937.012
1937022.0,219.0,33.0,414.0,244.0,1937.022
1937032.0,222.0,33.0,443.0,247.0,1937.032
1937042.0,224.0,33.0,445.0,249.0,1937.042
1937052.0,226.0,34.0,434.0,252.0,1937.052
1937062.0,223.0,34.0,468.0,248.0,1937.062
1937072.0,214.0,34.0,444.0,239.0,1937.072
1937082.0,217.0,33.0,473.0,241.0,1937.082
1937092.0,218.0,34.0,479.0,246.0,1937.092
1937102.0,220.0,33.0,462.0,245.0,1937.102
1937112.0,222.0,35.0,499.0,248.0,1937.112
1937122.0,216.0,33.0,471.0,239.0,1937.122
1937132.0,220.0,34.0,499.0,243.0,1937.132
1937142.0,225.0,34.0,510.0,249.0,1937.142
1937152.0,224.0,34.0,495.0,248.0,1937.152
1937162.0,221.0,34.0,529.0,248.0,1937.162
1937172.0,212.0,33.0,500.0,244.0,1937.172
1937182.0,214.0,34.0,529.0,245.0,1937.182
1937192.0,221.0,34.0,539.0,251.0,1937.192
1937202.0,221.0,34.0,519.0,248.0,1937.202
1937212.0,220.0,34.0,554.0,245.0,1937.212
1937222.0,211.0,34.0,528.0,235.0,1937.222
1937232.0,214.0,33.0,552.0,240.0,1937.232
1937242.0,216.0,35.0,554.0,242.0,1937.242
1937252.0,218.0,34.0,540.0,242.0,1937.252
1937262.0,217.0,35.0,574.0,241.0,1937.262
1937272.0,211.0,34.0,548.0,233.0,1937.272
1937282.0,215.0,34.0,573.0,240.0,1937.282
1937292.0,218.0,33.0,574.0,253.0,1937.292
1937302.0,219.0,35.0,560.0,252.0,1937.302
1937312.0,219.0,34.0,593.0,248.0,1937.312
1937323.0,212.0,33.0,567.0,238.0,1937.323
1937333.0,216.0,34.0,587.0,245.0,1937.333
1937343.0,222.0,34.0,604.0,251.0,1937.343
1937353.0,216.0,34.0,576.0,247.0,1937.353
1937363.0,212.0,34.0,608.0,247.0,1937.363
1937373.0,206.0,34.0,582.0,241.0,1937.373
1937383.0,212.0,34.0,599.0,246.0,1937.383
1937393.0,217.0,34.0,618.0,249.0,1937.393
1937403.0,214.0,33.0,590.0,242.0,1937.403
1937413.0,216.0,34.0,623.0,244.0,1937.413
1937423.0,208.0,33.0,597.0,237.0,1937.423
1937433.0,214.0,35.0,609.0,248.0,1937.433
1937443.0,219.0,34.0,628.0,255.0,1937.443
1937453.0,217.0,33.0,597.0,248.0,1937.453
1937463.0,217.0,34.0,630.0,246.0,1937.463
1937473.0,211.0,33.0,603.0,238.0,1937.473
1937483.0,220.0,33.0,610.0,247.0,1937.483
1937494.0,223.0,34.0,633.0,250.0,1937.494
1937504.0,215.0,33.0,601.0,242.0,1937.504
1937514.0,216.0,33.0,626.0,243.0,1937.514
1937524.0,215.0,33.0,616.0,244.0,1937.524
1937534.0,220.0,33.0,603.0,250.0,1937.534
1937544.0,222.0,33.0,632.0,251.0,1937.544
1937554.0,214.0,32.0,597.0,244.0,1937.554
1937564.0,215.0,34.0,621.0,245.0,1937.564
1937574.0,215.0,32.0,615.0,246.0,1937.574
1937584.0,217.0,33.0,603.0,246.0,1937.584
1937594.0,227.0,33.0,630.0,247.0,1937.594
1937604.0,215.0,33.0,594.0,241.0,1937.604
1937614.0,216.0,33.0,619.0,242.0,1937.614
1937624.0,212.0,34.0,602.0,242.0,1937.624
1937634.0,220.0,32.0,597.0,250.0,1937.634
1937644.0,222.0,32.0,624.0,251.0,1937.644
1937654.0,213.0,32.0,589.0,244.0,1937.654
1937664.0,216.0,33.0,614.0,245.0,1937.664
1937674.0,211.0,33.0,596.0,245.0,1937.674
1937684.0,217.0,33.0,586.0,250.0,1937.684
1937694.0,221.0,33.0,612.0,246.0,1937.694
1937704.0,210.0,32.0,575.0,238.0,1937.704
1937714.0,209.0,32.0,600.0,239.0,1937.714
1937724.0,208.0,32.0,588.0,239.0,1937.724
1937734.0,213.0,33.0,575.0,247.0,1937.734
1937744.0,216.0,33.0,602.0,244.0,1937.744
1937754.0,209.0,33.0,568.0,242.0,1937.754
1937764.0,210.0,32.0,590.0,242.0,1937.764
1937774.0,210.0,32.0,578.0,245.0,1937.774
1937784.0,216.0,32.0,564.0,250.0,1937.784
1937794.0,218.0,33.0,591.0,250.0,1937.794
1937804.0,210.0,32.0,556.0,243.0,1937.804
1937814.0,211.0,32.0,578.0,244.0,1937.814
1937824.0,211.0,32.0,569.0,246.0,1937.824
1937835.0,214.0,32.0,552.0,250.0,1937.835
1937845.0,216.0,32.0,578.0,246.0,1937.845
1937855.0,208.0,31.0,544.0,240.0,1937.855
1937865.0,211.0,32.0,560.0,245.0,1937.865
1937875.0,218.0,32.0,566.0,252.0,1937.875
1937885.0,215.0,33.0,537.0,251.0,1937.885
1937895.0,216.0,32.0,562.0,246.0,1937.895
1937905.0,207.0,32.0,527.0,240.0,1937.905
1937915.0,213.0,32.0,542.0,245.0,1937.915
1937925.0,215.0,32.0,543.0,248.0,1937.925
1937935.0,215.0,32.0,519.0,250.0,1937.935
1937945.0,216.0,33.0,545.0,247.0,1937.945
1937955.0,207.0,32.0,511.0,242.0,1937.955
1937965.0,213.0,32.0,528.0,247.0,1937.965
1937975.0,215.0,32.0,527.0,252.0,1937.975
1937985.0,215.0,31.0,502.0,250.0,1937.985
1937995.0,215.0,32.0,525.0,247.0,1937.995
1938006.0,206.0,32.0,492.0,240.0,1938.006
1938016.0,212.0,32.0,500.0,249.0,1938.016
1938026.0,218.0,32.0,514.0,252.0,1938.026
1938036.0,211.0,32.0,480.0,247.0,1938.036
1938046.0,213.0,31.0,503.0,245.0,1938.046
1938056.0,206.0,32.0,476.0,240.0,1938.056
1938066.0,213.0,32.0,481.0,250.0,1938.066
1938076.0,219.0,33.0,498.0,251.0,1938.076
1938086.0,211.0,31.0,465.0,246.0,1938.086
1938096.0,214.0,32.0,490.0,245.0,1938.096
1938106.0,206.0,31.0,464.0,239.0,1938.106
1938116.0,214.0,31.0,468.0,249.0,1938.116
1938126.0,218.0,32.0,486.0,250.0,1938.126
1938136.0,213.0,32.0,453.0,248.0,1938.136
1938146.0,213.0,32.0,477.0,246.0,1938.146
1938156.0,207.0,31.0,451.0,243.0,1938.156
1938166.0,214.0,32.0,452.0,254.0,1938.166
1938176.0,218.0,31.0,469.0,254.0,1938.176
1938186.0,213.0,31.0,438.0,250.0,1938.186
1938196.0,212.0,31.0,460.0,247.0,1938.196
1938206.0,206.0,32.0,439.0,244.0,1938.206
1938216.0,213.0,30.0,436.0,252.0,1938.216
1938226.0,216.0,31.0,454.0,254.0,1938.226
1938236.0,212.0,31.0,424.0,249.0,1938.236
1938246.0,212.0,31.0,445.0,247.0,1938.246
1938256.0,207.0,32.0,426.0,245.0,1938.256
1938266.0,212.0,33.0,426.0,251.0,1938.266
1938276.0,217.0,32.0,441.0,252.0,1938.276
1938286.0,210.0,31.0,409.0,247.0,1938.286
1938296.0,212.0,31.0,428.0,244.0,1938.296
1938306.0,209.0,31.0,404.0,239.0,1938.306
1938316.0,215.0,31.0,412.0,248.0,1938.316
1938326.0,220.0,32.0,428.0,251.0,1938.326
1938336.0,213.0,32.0,396.0,246.0,1938.336
1938347.0,214.0,30.0,416.0,245.0,1938.347
1938357.0,211.0,32.0,405.0,246.0,1938.357
1938367.0,217.0,31.0,394.0,251.0,1938.367
1938377.0,216.0,32.0,416.0,248.0,1938.377
1938387.0,208.0,31.0,384.0,242.0,1938.387
1938397.0,212.0,32.0,404.0,245.0,1938.397
1938407.0,212.0,31.0,396.0,247.0,1938.407
1938417.0,213.0,31.0,383.0,252.0,1938.417
1938427.0,216.0,31.0,408.0,247.0,1938.427
1938437.0,208.0,31.0,376.0,243.0,1938.437
1938447.0,210.0,31.0,397.0,242.0,1938.447
1938457.0,211.0,32.0,391.0,246.0,1938.457
1938467.0,214.0,31.0,377.0,249.0,1938.467
1938477.0,217.0,31.0,401.0,250.0,1938.477
1938487.0,208.0,31.0,369.0,244.0,1938.487
1938497.0,212.0,31.0,388.0,244.0,1938.497
1938507.0,214.0,31.0,385.0,248.0,1938.507
1938518.0,217.0,31.0,368.0,251.0,1938.518
1938528.0,217.0,32.0,393.0,247.0,1938.528
1938538.0,208.0,31.0,364.0,241.0,1938.538
1938548.0,212.0,32.0,378.0,247.0,1938.548
1938558.0,219.0,31.0,390.0,252.0,1938.558
1938568.0,214.0,31.0,364.0,251.0,1938.568
1938578.0,216.0,31.0,389.0,248.0,1938.578
1938588.0,207.0,32.0,360.0,242.0,1938.588
1938598.0,212.0,32.0,372.0,249.0,1938.598
1938608.0,214.0,31.0,381.0,252.0,1938.608
1938618.0,211.0,31.0,360.0,251.0,1938.618
1938628.0,212.0,31.0,385.0,246.0,1938.628
1938638.0,204.0,31.0,358.0,239.0,1938.638
1938648.0,210.0,32.0,373.0,244.0,1938.648
1938658.0,215.0,32.0,379.0,252.0,1938.658
1938668.0,213.0,31.0,357.0,248.0,1938.668
1938678.0,214.0,32.0,380.0,245.0,1938.678
1938688.0,208.0,31.0,354.0,241.0,1938.688
1938698.0,211.0,32.0,368.0,245.0,1938.698
1938708.0,217.0,32.0,377.0,251.0,1938.708
1938718.0,216.0,32.0,353.0,249.0,1938.718
1938728.0,219.0,32.0,375.0,246.0,1938.728
1938738.0,210.0,31.0,349.0,242.0,1938.738
1938748.0,216.0,31.0,363.0,246.0,1938.748
1938758.0,221.0,31.0,372.0,253.0,1938.758
1938768.0,216.0,32.0,347.0,248.0,1938.768
1938778.0,219.0,33.0,371.0,247.0,1938.778
1938788.0,210.0,31.0,344.0,240.0,1938.788
1938798.0,216.0,32.0,356.0,248.0,1938.798
1938808.0,221.0,32.0,368.0,252.0,1938.808
1938818.0,220.0,31.0,344.0,251.0,1938.818
1938828.0,222.0,32.0,365.0,249.0,1938.828
1938838.0,212.0,32.0,338.0,241.0,1938.838
1938848.0,218.0,32.0,349.0,249.0,1938.848
1938859.0,222.0,32.0,362.0,253.0,1938.859
1938869.0,216.0,32.0,335.0,247.0,1938.869
1938879.0,218.0,31.0,355.0,246.0,1938.879
1938889.0,212.0,32.0,339.0,245.0,1938.889
1938899.0,219.0,32.0,337.0,252.0,1938.899
1938909.0,226.0,33.0,356.0,253.0,1938.909
1938919.0,218.0,32.0,328.0,246.0,1938.919
1938929.0,218.0,32.0,347.0,245.0,1938.929
1938939.0,215.0,32.0,335.0,245.0,1938.939
1938949.0,218.0,31.0,334.0,250.0,1938.949
1938959.0,222.0,32.0,350.0,250.0,1938.959
1938969.0,214.0,32.0,320.0,246.0,1938.969
1938979.0,215.0,32.0,338.0,245.0,1938.979
1938989.0,209.0,32.0,319.0,240.0,1938.989
1938999.0,217.0,32.0,325.0,249.0,1938.999
1939009.0,223.0,33.0,340.0,249.0,1939.009
1939019.0,213.0,32.0,309.0,243.0,1939.019
1939030.0,215.0,33.0,325.0,243.0,1939.03
1939040.0,214.0,33.0,318.0,245.0,1939.04
1939050.0,218.0,32.0,309.0,248.0,1939.05
1939060.0,217.0,33.0,328.0,245.0,1939.06
1939070.0,209.0,33.0,299.0,240.0,1939.07
1939080.0,212.0,32.0,314.0,244.0,1939.08
1939090.0,215.0,32.0,310.0,247.0,1939.09
1939100.0,216.0,33.0,299.0,251.0,1939.1
1939110.0,216.0,33.0,318.0,246.0,1939.11
1939120.0,212.0,33.0,291.0,245.0,1939.12
1939130.0,215.0,33.0,305.0,244.0,1939.13
1939140.0,217.0,33.0,304.0,248.0,1939.14
1939150.0,218.0,32.0,291.0,249.0,1939.15
1939160.0,220.0,33.0,312.0,248.0,1939.16
1939170.0,211.0,33.0,282.0,241.0,1939.17
1939180.0,213.0,32.0,293.0,243.0,1939.18
1939190.0,217.0,33.0,295.0,249.0,1939.19
1939200.0,217.0,32.0,282.0,249.0,1939.2
1939210.0,217.0,33.0,297.0,245.0,1939.21
1939220.0,209.0,32.0,269.0,238.0,1939.22
1939230.0,210.0,33.0,277.0,242.0,1939.23
1939240.0,216.0,32.0,281.0,247.0,1939.24
1939250.0,216.0,33.0,268.0,247.0,1939.25
1939260.0,217.0,33.0,284.0,243.0,1939.26
1939270.0,208.0,31.0,255.0,237.0,1939.27
1939280.0,211.0,32.0,263.0,241.0,1939.28
1939290.0,213.0,32.0,262.0,243.0,1939.29
1939300.0,216.0,32.0,255.0,246.0,1939.3
1939310.0,215.0,33.0,269.0,244.0,1939.31
1939320.0,206.0,32.0,244.0,237.0,1939.32
1939330.0,212.0,32.0,254.0,241.0,1939.33
1939340.0,213.0,32.0,253.0,244.0,1939.34
1939350.0,215.0,32.0,243.0,247.0,1939.35
1939360.0,215.0,34.0,256.0,246.0,1939.36
1939371.0,208.0,32.0,232.0,240.0,1939.371
1939381.0,212.0,32.0,240.0,245.0,1939.381
1939391.0,220.0,33.0,251.0,251.0,1939.391
1939401.0,214.0,32.0,231.0,246.0,1939.401
1939411.0,213.0,33.0,241.0,244.0,1939.411
1939421.0,207.0,33.0,223.0,238.0,1939.421
1939431.0,212.0,32.0,231.0,245.0,1939.431
1939441.0,217.0,33.0,240.0,249.0,1939.441
1939451.0,212.0,32.0,222.0,245.0,1939.451
1939461.0,214.0,32.0,234.0,244.0,1939.461
1939471.0,206.0,33.0,212.0,238.0,1939.471
1939481.0,212.0,32.0,222.0,246.0,1939.481
1939491.0,218.0,33.0,231.0,250.0,1939.491
1939501.0,214.0,32.0,216.0,247.0,1939.501
1939511.0,213.0,33.0,223.0,245.0,1939.511
1939521.0,207.0,32.0,206.0,239.0,1939.521
1939531.0,215.0,32.0,215.0,249.0,1939.531
1939542.0,220.0,33.0,222.0,250.0,1939.542
1939552.0,213.0,33.0,205.0,245.0,1939.552
1939562.0,214.0,32.0,211.0,244.0,1939.562
1939572.0,211.0,32.0,205.0,244.0,1939.572
1939582.0,218.0,32.0,210.0,250.0,1939.582
1939592.0,218.0,33.0,216.0,250.0,1939.592
1939602.0,211.0,32.0,200.0,244.0,1939.602
1939612.0,213.0,33.0,203.0,245.0,1939.612
1939622.0,210.0,32.0,200.0,244.0,1939.622
1939632.0,211.0,32.0,202.0,247.0,1939.632
1939642.0,214.0,33.0,208.0,248.0,1939.642
1939652.0,208.0,32.0,193.0,241.0,1939.652
1939662.0,209.0,32.0,197.0,241.0,1939.662
1939672.0,205.0,32.0,192.0,239.0,1939.672
1939682.0,213.0,33.0,202.0,248.0,1939.682
1939692.0,216.0,33.0,206.0,247.0,1939.692
1939702.0,208.0,32.0,193.0,240.0,1939.702
1939712.0,213.0,32.0,198.0,241.0,1939.712
1939722.0,208.0,32.0,192.0,240.0,1939.722
1939732.0,214.0,32.0,201.0,248.0,1939.732
1939742.0,217.0,33.0,205.0,249.0,1939.742
1939752.0,207.0,32.0,192.0,240.0,1939.752
1939762.0,211.0,32.0,196.0,243.0,1939.762
1939772.0,209.0,32.0,195.0,242.0,1939.772
1939782.0,216.0,31.0,202.0,249.0,1939.782
1939792.0,217.0,33.0,203.0,247.0,1939.792
1939802.0,211.0,32.0,196.0,242.0,1939.802
1939812.0,212.0,33.0,197.0,243.0,1939.812
1939822.0,210.0,32.0,197.0,245.0,1939.822
1939832.0,217.0,32.0,204.0,251.0,1939.832
1939842.0,220.0,31.0,206.0,250.0,1939.842
1939852.0,210.0,32.0,197.0,244.0,1939.852
1939862.0,212.0,33.0,198.0,244.0,1939.862
1939872.0,211.0,33.0,201.0,245.0,1939.872
1939883.0,216.0,32.0,206.0,250.0,1939.883
1939893.0,215.0,32.0,203.0,246.0,1939.893
1939903.0,208.0,32.0,198.0,239.0,1939.903
1939913.0,210.0,32.0,199.0,243.0,1939.913
1939923.0,216.0,32.0,207.0,248.0,1939.923
1939933.0,216.0,33.0,208.0,248.0,1939.933
1939943.0,214.0,32.0,204.0,243.0,1939.943
1939953.0,203.0,32.0,199.0,237.0,1939.953
1939963.0,208.0,32.0,203.0,242.0,1939.963
1939973.0,212.0,31.0,208.0,247.0,1939.973
1939983.0,212.0,32.0,212.0,249.0,1939.983
1939993.0,213.0,32.0,207.0,246.0,1939.993
1940003.0,204.0,32.0,205.0,240.0,1940.003
1940013.0,209.0,32.0,207.0,243.0,1940.013
1940023.0,213.0,32.0,213.0,249.0,1940.023
1940033.0,213.0,31.0,217.0,248.0,1940.033
1940043.0,214.0,32.0,210.0,246.0,1940.043
1940054.0,206.0,32.0,209.0,238.0,1940.054
1940064.0,212.0,33.0,214.0,247.0,1940.064
1940074.0,222.0,32.0,220.0,252.0,1940.074
1940084.0,215.0,32.0,219.0,247.0,1940.084
1940094.0,217.0,32.0,215.0,245.0,1940.094
1940104.0,208.0,31.0,213.0,239.0,1940.104
1940114.0,215.0,31.0,221.0,249.0,1940.114
1940124.0,220.0,33.0,223.0,251.0,1940.124
1940134.0,213.0,32.0,223.0,244.0,1940.134
1940144.0,217.0,32.0,218.0,245.0,1940.144
1940154.0,207.0,32.0,217.0,239.0,1940.154
1940164.0,215.0,31.0,224.0,248.0,1940.164
1940174.0,219.0,32.0,224.0,249.0,1940.174
1940184.0,214.0,32.0,227.0,248.0,1940.184
1940194.0,215.0,33.0,221.0,244.0,1940.194
1940204.0,210.0,32.0,221.0,239.0,1940.204
1940214.0,219.0,32.0,230.0,248.0,1940.214
1940224.0,222.0,32.0,233.0,251.0,1940.224
1940234.0,216.0,32.0,234.0,246.0,1940.234
1940244.0,215.0,32.0,226.0,244.0,1940.244
1940254.0,208.0,33.0,228.0,240.0,1940.254
1940264.0,216.0,32.0,236.0,248.0,1940.264
1940274.0,219.0,32.0,235.0,249.0,1940.274
1940284.0,214.0,33.0,240.0,245.0,1940.284
1940294.0,214.0,33.0,231.0,244.0,1940.294
1940304.0,208.0,32.0,235.0,240.0,1940.304
1940314.0,213.0,32.0,239.0,246.0,1940.314
1940324.0,216.0,33.0,240.0,248.0,1940.324
1940334.0,210.0,32.0,243.0,242.0,1940.334
1940344.0,211.0,33.0,237.0,242.0,1940.344
1940354.0,205.0,31.0,239.0,235.0,1940.354
1940364.0,212.0,32.0,244.0,245.0,1940.364
1940374.0,217.0,32.0,246.0,248.0,1940.374
1940384.0,211.0,32.0,251.0,241.0,1940.384
1940395.0,211.0,32.0,242.0,241.0,1940.395
1940405.0,209.0,32.0,248.0,241.0,1940.405
1940415.0,216.0,32.0,257.0,247.0,1940.415
1940425.0,216.0,33.0,246.0,245.0,1940.425
1940435.0,211.0,31.0,254.0,237.0,1940.435
1940445.0,215.0,33.0,247.0,242.0,1940.445
1940455.0,213.0,32.0,254.0,242.0,1940.455
1940465.0,218.0,32.0,261.0,246.0,1940.465
1940475.0,219.0,33.0,250.0,244.0,1940.475
1940485.0,213.0,32.0,262.0,240.0,1940.485
1940495.0,213.0,32.0,252.0,241.0,1940.495
1940505.0,213.0,32.0,261.0,244.0,1940.505
1940515.0,217.0,32.0,267.0,248.0,1940.515
1940525.0,220.0,33.0,257.0,247.0,1940.525
1940535.0,211.0,32.0,264.0,241.0,1940.535
1940545.0,214.0,32.0,257.0,242.0,1940.545
1940555.0,214.0,32.0,265.0,245.0,1940.555
1940566.0,212.0,32.0,272.0,247.0,1940.566
1940576.0,212.0,33.0,258.0,245.0,1940.576
1940586.0,204.0,32.0,267.0,238.0,1940.586
1940596.0,209.0,32.0,264.0,243.0,1940.596
1940606.0,217.0,32.0,270.0,249.0,1940.606
1940616.0,213.0,31.0,275.0,247.0,1940.616
1940626.0,214.0,32.0,262.0,245.0,1940.626
1940636.0,206.0,33.0,271.0,238.0,1940.636
1940646.0,210.0,32.0,270.0,244.0,1940.646
1940656.0,214.0,33.0,273.0,247.0,1940.656
1940666.0,213.0,32.0,281.0,246.0,1940.666
1940676.0,213.0,33.0,267.0,243.0,1940.676
1940686.0,205.0,32.0,276.0,235.0,1940.686
1940696.0,210.0,32.0,270.0,242.0,1940.696
1940706.0,214.0,33.0,278.0,247.0,1940.706
1940716.0,215.0,32.0,286.0,245.0,1940.716
1940726.0,213.0,32.0,272.0,242.0,1940.726
1940736.0,208.0,32.0,284.0,237.0,1940.736
1940746.0,210.0,32.0,276.0,241.0,1940.746
1940756.0,216.0,32.0,283.0,247.0,1940.756
1940766.0,216.0,32.0,291.0,246.0,1940.766
1940776.0,216.0,32.0,276.0,242.0,1940.776
1940786.0,211.0,32.0,288.0,236.0,1940.786
1940796.0,214.0,32.0,283.0,241.0,1940.796
1940806.0,219.0,32.0,289.0,247.0,1940.806
1940816.0,215.0,32.0,296.0,243.0,1940.816
1940826.0,217.0,32.0,281.0,244.0,1940.826
1940836.0,208.0,32.0,292.0,236.0,1940.836
1940846.0,213.0,32.0,287.0,243.0,1940.846
1940856.0,220.0,32.0,290.0,248.0,1940.856
1940866.0,217.0,31.0,298.0,246.0,1940.866
1940876.0,220.0,32.0,282.0,243.0,1940.876
1940886.0,210.0,32.0,294.0,235.0,1940.886
1940896.0,215.0,33.0,291.0,243.0,1940.896
1940907.0,221.0,32.0,290.0,248.0,1940.907
1940917.0,216.0,31.0,298.0,241.0,1940.917
1940927.0,216.0,32.0,286.0,241.0,1940.927
1940937.0,210.0,31.0,294.0,238.0,1940.937
1940947.0,218.0,32.0,300.0,245.0,1940.947
1940957.0,220.0,33.0,292.0,248.0,1940.957
1940967.0,216.0,32.0,302.0,240.0,1940.967
1940977.0,217.0,32.0,288.0,241.0,1940.977
1940987.0,214.0,32.0,298.0,239.0,1940.987
1940997.0,217.0,31.0,297.0,244.0,1940.997
1941007.0,221.0,32.0,292.0,247.0,1941.007
1941017.0,215.0,32.0,302.0,241.0,1941.017
1941027.0,215.0,32.0,289.0,242.0,1941.027
1941037.0,210.0,32.0,298.0,236.0,1941.037
1941047.0,217.0,32.0,300.0,246.0,1941.047
1941057.0,221.0,33.0,294.0,248.0,1941.057
1941067.0,214.0,32.0,304.0,240.0,1941.067
1941078.0,216.0,32.0,291.0,241.0,1941.078
1941088.0,214.0,34.0,298.0,243.0,1941.088
1941098.0,219.0,32.0,305.0,247.0,1941.098
1941108.0,218.0,32.0,289.0,245.0,1941.108
1941118.0,212.0,33.0,303.0,237.0,1941.118
1941128.0,214.0,33.0,290.0,241.0,1941.128
1941138.0,215.0,32.0,299.0,243.0,1941.138
1941148.0,219.0,33.0,305.0,246.0,1941.148
1941158.0,219.0,32.0,289.0,242.0,1941.158
1941168.0,214.0,32.0,303.0,237.0,1941.168
1941178.0,215.0,33.0,291.0,239.0,1941.178
1941188.0,218.0,31.0,300.0,242.0,1941.188
1941198.0,220.0,33.0,305.0,243.0,1941.198
1941208.0,222.0,32.0,291.0,245.0,1941.208
1941218.0,214.0,33.0,303.0,237.0,1941.218
1941228.0,216.0,32.0,291.0,239.0,1941.228
1941238.0,218.0,33.0,300.0,243.0,1941.238
1941248.0,220.0,32.0,305.0,244.0,1941.248
1941258.0,220.0,32.0,290.0,245.0,1941.258
1941268.0,213.0,32.0,303.0,236.0,1941.268
1941278.0,214.0,32.0,291.0,239.0,1941.278
1941288.0,218.0,32.0,298.0,244.0,1941.288
1941298.0,220.0,32.0,303.0,245.0,1941.298
1941308.0,224.0,32.0,289.0,243.0,1941.308
1941318.0,214.0,32.0,301.0,236.0,1941.318
1941328.0,215.0,32.0,291.0,240.0,1941.328
1941338.0,216.0,33.0,297.0,242.0,1941.338
1941348.0,219.0,33.0,303.0,247.0,1941.348
1941358.0,219.0,33.0,287.0,244.0,1941.358
1941368.0,212.0,32.0,300.0,237.0,1941.368
1941378.0,216.0,32.0,289.0,240.0,1941.378
1941388.0,215.0,33.0,296.0,244.0,1941.388
1941398.0,219.0,32.0,303.0,246.0,1941.398
1941408.0,218.0,34.0,287.0,245.0,1941.408
1941419.0,212.0,32.0,298.0,234.0,1941.419
1941429.0,214.0,33.0,289.0,240.0,1941.429
1941439.0,221.0,33.0,295.0,246.0,1941.439
1941449.0,217.0,33.0,302.0,241.0,1941.449
1941459.0,216.0,33.0,286.0,240.0,1941.459
1941469.0,211.0,34.0,296.0,234.0,1941.469
1941479.0,217.0,32.0,291.0,240.0,1941.479
1941489.0,222.0,33.0,292.0,246.0,1941.489
1941499.0,218.0,33.0,301.0,241.0,1941.499
1941509.0,218.0,33.0,284.0,241.0,1941.509
1941519.0,210.0,32.0,296.0,233.0,1941.519
1941529.0,216.0,33.0,293.0,242.0,1941.529
1941539.0,221.0,34.0,292.0,247.0,1941.539
1941549.0,217.0,32.0,301.0,242.0,1941.549
1941559.0,217.0,33.0,284.0,241.0,1941.559
1941569.0,210.0,33.0,294.0,232.0,1941.569
1941579.0,215.0,33.0,292.0,241.0,1941.579
1941590.0,220.0,33.0,290.0,246.0,1941.59
1941600.0,214.0,33.0,298.0,240.0,1941.6
1941610.0,212.0,32.0,285.0,239.0,1941.61
1941620.0,207.0,33.0,291.0,238.0,1941.62
1941630.0,215.0,33.0,298.0,245.0,1941.63
1941640.0,217.0,33.0,287.0,246.0,1941.64
1941650.0,212.0,33.0,295.0,238.0,1941.65
1941660.0,213.0,34.0,282.0,241.0,1941.66
1941670.0,211.0,33.0,289.0,239.0,1941.67
1941680.0,215.0,33.0,291.0,243.0,1941.68
1941690.0,218.0,34.0,284.0,246.0,1941.69
1941700.0,213.0,32.0,293.0,238.0,1941.7
1941710.0,213.0,33.0,280.0,239.0,1941.71
1941720.0,209.0,33.0,286.0,236.0,1941.72
1941730.0,216.0,34.0,289.0,244.0,1941.73
1941740.0,220.0,32.0,280.0,246.0,1941.74
1941750.0,213.0,33.0,289.0,236.0,1941.75
1941760.0,215.0,32.0,277.0,240.0,1941.76
1941770.0,210.0,33.0,284.0,235.0,1941.77
1941780.0,221.0,33.0,290.0,245.0,1941.78
1941790.0,223.0,34.0,279.0,246.0,1941.79
1941800.0,215.0,32.0,288.0,237.0,1941.8
1941810.0,217.0,34.0,277.0,241.0,1941.81
1941820.0,213.0,33.0,285.0,237.0,1941.82
1941830.0,220.0,33.0,290.0,246.0,1941.83
1941840.0,220.0,33.0,279.0,246.0,1941.84
1941850.0,216.0,33.0,291.0,241.0,1941.85
1941860.0,216.0,33.0,279.0,242.0,1941.86
1941870.0,214.0,32.0,285.0,240.0,1941.87
1941880.0,220.0,33.0,290.0,246.0,1941.88
1941890.0,222.0,33.0,281.0,247.0,1941.89
1941900.0,215.0,32.0,289.0,239.0,1941.9
1941910.0,215.0,33.0,277.0,241.0,1941.91
1941920.0,215.0,33.0,284.0,241.0,1941.92
1941931.0,220.0,32.0,290.0,245.0,1941.931
1941941.0,220.0,33.0,275.0,244.0,1941.941
1941951.0,213.0,33.0,287.0,236.0,1941.951
1941961.0,214.0,32.0,276.0,240.0,1941.961
1941971.0,219.0,32.0,283.0,246.0,1941.971
1941981.0,219.0,33.0,288.0,246.0,1941.981
1941991.0,216.0,32.0,273.0,242.0,1941.991
1942001.0,208.0,32.0,283.0,234.0,1942.001
1942011.0,211.0,33.0,275.0,238.0,1942.011
1942021.0,214.0,33.0,280.0,242.0,1942.021
1942031.0,218.0,33.0,286.0,244.0,1942.031
1942041.0,217.0,33.0,273.0,243.0,1942.041
1942051.0,210.0,33.0,279.0,233.0,1942.051
1942061.0,214.0,32.0,272.0,238.0,1942.061
1942071.0,216.0,32.0,278.0,242.0,1942.071
1942081.0,219.0,33.0,284.0,243.0,1942.081
1942091.0,216.0,33.0,268.0,241.0,1942.091
1942102.0,209.0,32.0,276.0,233.0,1942.102
1942112.0,211.0,33.0,273.0,240.0,1942.112
1942122.0,217.0,32.0,275.0,246.0,1942.122
1942132.0,213.0,32.0,280.0,242.0,1942.132
1942142.0,214.0,32.0,269.0,240.0,1942.142
1942152.0,208.0,32.0,274.0,233.0,1942.152
1942162.0,214.0,32.0,273.0,241.0,1942.162
1942172.0,219.0,33.0,274.0,248.0,1942.172
1942182.0,214.0,32.0,279.0,240.0,1942.182
1942192.0,216.0,32.0,267.0,242.0,1942.192
1942202.0,209.0,32.0,274.0,232.0,1942.202
1942212.0,215.0,32.0,275.0,242.0,1942.212
1942222.0,218.0,33.0,272.0,246.0,1942.222
1942232.0,219.0,32.0,280.0,242.0,1942.232
1942242.0,219.0,33.0,266.0,241.0,1942.242
1942252.0,211.0,32.0,272.0,232.0,1942.252
1942262.0,218.0,32.0,275.0,243.0,1942.262
1942272.0,222.0,33.0,274.0,246.0,1942.272
1942282.0,218.0,32.0,280.0,242.0,1942.282
1942292.0,217.0,33.0,267.0,241.0,1942.292
1942302.0,211.0,33.0,273.0,237.0,1942.302
1942312.0,219.0,32.0,278.0,246.0,1942.312
1942322.0,221.0,33.0,276.0,249.0,1942.322
1942332.0,218.0,32.0,281.0,243.0,1942.332
1942342.0,217.0,32.0,267.0,241.0,1942.342
1942352.0,210.0,32.0,272.0,236.0,1942.352
1942362.0,215.0,33.0,271.0,242.0,1942.362
1942372.0,217.0,33.0,273.0,246.0,1942.372
1942382.0,212.0,32.0,277.0,241.0,1942.382
1942392.0,212.0,33.0,265.0,240.0,1942.392
1942402.0,207.0,33.0,271.0,233.0,1942.402
1942412.0,212.0,33.0,270.0,242.0,1942.412
1942422.0,218.0,33.0,270.0,247.0,1942.422
1942432.0,215.0,35.0,274.0,241.0,1942.432
1942443.0,217.0,34.0,263.0,240.0,1942.443
1942453.0,212.0,33.0,267.0,239.0,1942.453
1942463.0,220.0,34.0,274.0,247.0,1942.463
1942473.0,220.0,34.0,262.0,246.0,1942.473
1942483.0,212.0,33.0,268.0,239.0,1942.483
1942493.0,215.0,34.0,259.0,243.0,1942.493
1942503.0,212.0,33.0,266.0,242.0,1942.503
1942513.0,217.0,33.0,272.0,248.0,1942.513
1942523.0,219.0,34.0,260.0,247.0,1942.523
1942533.0,214.0,33.0,268.0,242.0,1942.533
1942543.0,214.0,34.0,258.0,243.0,1942.543
1942553.0,212.0,33.0,264.0,244.0,1942.553
1942563.0,217.0,34.0,270.0,248.0,1942.563
1942573.0,219.0,34.0,261.0,247.0,1942.573
1942583.0,212.0,33.0,267.0,240.0,1942.583
1942593.0,214.0,34.0,258.0,240.0,1942.593
1942603.0,212.0,34.0,263.0,243.0,1942.603
1942614.0,216.0,33.0,269.0,246.0,1942.614
1942624.0,217.0,35.0,256.0,244.0,1942.624
1942634.0,211.0,32.0,262.0,237.0,1942.634
1942644.0,215.0,34.0,257.0,242.0,1942.644
1942654.0,221.0,34.0,265.0,248.0,1942.654
1942664.0,218.0,34.0,268.0,248.0,1942.664
1942674.0,218.0,34.0,255.0,244.0,1942.674
1942684.0,210.0,34.0,259.0,236.0,1942.684
1942694.0,214.0,34.0,256.0,242.0,1942.694
1942704.0,217.0,34.0,261.0,246.0,1942.704
1942714.0,218.0,34.0,267.0,246.0,1942.714
1942724.0,217.0,34.0,253.0,244.0,1942.724
1942734.0,208.0,33.0,257.0,236.0,1942.734
1942744.0,213.0,34.0,253.0,240.0,1942.744
1942754.0,217.0,34.0,259.0,246.0,1942.754
1942764.0,216.0,32.0,263.0,247.0,1942.764
1942774.0,216.0,34.0,251.0,244.0,1942.774
1942784.0,211.0,33.0,258.0,239.0,1942.784
1942794.0,212.0,33.0,250.0,241.0,1942.794
1942804.0,217.0,33.0,257.0,247.0,1942.804
1942814.0,215.0,34.0,262.0,247.0,1942.814
1942824.0,216.0,34.0,249.0,244.0,1942.824
1942834.0,209.0,33.0,255.0,238.0,1942.834
1942844.0,212.0,34.0,252.0,242.0,1942.844
1942854.0,217.0,34.0,257.0,248.0,1942.854
1942864.0,214.0,33.0,260.0,245.0,1942.864
1942874.0,216.0,33.0,249.0,245.0,1942.874
1942884.0,208.0,33.0,254.0,238.0,1942.884
1942894.0,211.0,32.0,250.0,242.0,1942.894
1942904.0,217.0,33.0,256.0,249.0,1942.904
1942914.0,216.0,33.0,261.0,248.0,1942.914
1942924.0,214.0,33.0,248.0,246.0,1942.924
1942934.0,204.0,33.0,253.0,238.0,1942.934
1942944.0,210.0,34.0,251.0,246.0,1942.944
1942955.0,216.0,34.0,255.0,250.0,1942.955
1942965.0,212.0,33.0,257.0,245.0,1942.965
1942975.0,214.0,34.0,248.0,244.0,1942.975
1942985.0,206.0,36.0,251.0,240.0,1942.985
1942995.0,215.0,36.0,258.0,248.0,1942.995
1943005.0,218.0,40.0,255.0,251.0,1943.005
1943015.0,213.0,44.0,258.0,245.0,1943.015
1943025.0,214.0,45.0,248.0,244.0,1943.025
1943035.0,212.0,50.0,252.0,242.0,1943.035
1943045.0,217.0,48.0,253.0,247.0,1943.045
1943055.0,222.0,50.0,252.0,249.0,1943.055
1943065.0,214.0,53.0,255.0,243.0,1943.065
1943075.0,216.0,53.0,245.0,242.0,1943.075
1943085.0,208.0,58.0,247.0,237.0,1943.085
1943095.0,214.0,55.0,252.0,245.0,1943.095
1943105.0,221.0,57.0,251.0,249.0,1943.105
1943115.0,212.0,57.0,254.0,242.0,1943.115
1943126.0,214.0,54.0,245.0,241.0,1943.126
1943136.0,212.0,55.0,250.0,243.0,1943.136
1943146.0,218.0,51.0,256.0,248.0,1943.146
1943156.0,216.0,55.0,246.0,246.0,1943.156
1943166.0,207.0,59.0,251.0,238.0,1943.166
1943176.0,211.0,56.0,244.0,240.0,1943.176
1943186.0,210.0,57.0,249.0,243.0,1943.186
1943196.0,215.0,58.0,256.0,248.0,1943.196
1943206.0,216.0,60.0,245.0,244.0,1943.206
1943216.0,210.0,63.0,251.0,240.0,1943.216
1943226.0,213.0,61.0,243.0,241.0,1943.226
1943236.0,213.0,63.0,250.0,243.0,1943.236
1943246.0,215.0,61.0,255.0,247.0,1943.246
1943256.0,219.0,61.0,247.0,247.0,1943.256
1943266.0,210.0,66.0,251.0,240.0,1943.266
1943276.0,215.0,60.0,244.0,240.0,1943.276
1943286.0,215.0,64.0,250.0,245.0,1943.286
1943296.0,218.0,61.0,255.0,247.0,1943.296
1943306.0,218.0,62.0,246.0,246.0,1943.306
1943316.0,211.0,64.0,250.0,238.0,1943.316
1943326.0,213.0,61.0,244.0,241.0,1943.326
1943336.0,216.0,64.0,251.0,244.0,1943.336
1943346.0,217.0,60.0,255.0,247.0,1943.346
1943356.0,219.0,59.0,247.0,245.0,1943.356
1943366.0,211.0,60.0,251.0,239.0,1943.366
1943376.0,212.0,56.0,245.0,241.0,1943.376
1943386.0,210.0,63.0,249.0,243.0,1943.386
1943396.0,215.0,64.0,256.0,248.0,1943.396
1943406.0,217.0,64.0,246.0,245.0,1943.406
1943416.0,208.0,70.0,250.0,239.0,1943.416
1943426.0,213.0,66.0,245.0,242.0,1943.426
1943436.0,212.0,69.0,249.0,245.0,1943.436
1943446.0,216.0,67.0,256.0,248.0,1943.446
1943456.0,217.0,68.0,245.0,247.0,1943.456
1943467.0,208.0,68.0,249.0,238.0,1943.467
1943477.0,212.0,63.0,245.0,242.0,1943.477
1943487.0,217.0,67.0,251.0,249.0,1943.487
1943497.0,211.0,69.0,253.0,247.0,1943.497
1943507.0,212.0,65.0,242.0,244.0,1943.507
1943517.0,206.0,71.0,247.0,239.0,1943.517
1943527.0,209.0,66.0,245.0,244.0,1943.527
1943537.0,216.0,67.0,250.0,250.0,1943.537
1943547.0,213.0,69.0,252.0,246.0,1943.547
1943557.0,215.0,65.0,243.0,245.0,1943.557
1943567.0,206.0,66.0,245.0,238.0,1943.567
1943577.0,211.0,61.0,245.0,245.0,1943.577
1943587.0,217.0,61.0,249.0,250.0,1943.587
1943597.0,218.0,60.0,253.0,248.0,1943.597
1943607.0,219.0,60.0,242.0,245.0,1943.607
1943617.0,210.0,57.0,245.0,238.0,1943.617
1943627.0,215.0,55.0,245.0,246.0,1943.627
1943638.0,221.0,52.0,248.0,250.0,1943.638
1943648.0,214.0,54.0,250.0,246.0,1943.648
1943658.0,215.0,50.0,242.0,244.0,1943.658
1943668.0,209.0,52.0,243.0,242.0,1943.668
1943678.0,217.0,51.0,252.0,250.0,1943.678
1943688.0,220.0,53.0,248.0,253.0,1943.688
1943698.0,213.0,54.0,249.0,247.0,1943.698
1943708.0,215.0,53.0,241.0,247.0,1943.708
1943718.0,215.0,54.0,244.0,245.0,1943.718
1943728.0,219.0,52.0,247.0,250.0,1943.728
1943738.0,223.0,55.0,245.0,253.0,1943.738
1943748.0,216.0,56.0,246.0,247.0,1943.748
1943758.0,216.0,54.0,238.0,246.0,1943.758
1943768.0,210.0,54.0,240.0,241.0,1943.768
1943778.0,217.0,54.0,247.0,251.0,1943.778
1943788.0,222.0,52.0,244.0,251.0,1943.788
1943798.0,213.0,54.0,245.0,245.0,1943.798
1943808.0,217.0,53.0,239.0,245.0,1943.808
1943818.0,209.0,56.0,239.0,240.0,1943.818
1943828.0,216.0,54.0,246.0,249.0,1943.828
1943838.0,221.0,57.0,242.0,250.0,1943.838
1943848.0,211.0,58.0,244.0,242.0,1943.848
1943858.0,214.0,57.0,236.0,244.0,1943.858
1943868.0,207.0,57.0,239.0,240.0,1943.868
1943878.0,216.0,55.0,248.0,250.0,1943.878
1943888.0,220.0,53.0,241.0,249.0,1943.888
1943898.0,214.0,52.0,246.0,244.0,1943.898
