time (ms),signal 0,signal 1,signal 2,signal 3,time (sec)
1947760.0,210.0,32.0,231.0,236.0,1947.76
1947770.0,211.0,33.0,223.0,235.0,1947.77
1947780.0,204.0,33.0,223.0,229.0,1947.78
1947790.0,207.0,33.0,223.0,235.0,1947.79
1947800.0,214.0,35.0,229.0,241.0,1947.8
1947810.0,211.0,33.0,231.0,236.0,1947.81
1947820.0,212.0,33.0,222.0,236.0,1947.82
1947830.0,205.0,33.0,223.0,226.0,1947.83
1947840.0,209.0,32.0,224.0,234.0,1947.84
1947850.0,215.0,33.0,229.0,239.0,1947.85
1947860.0,209.0,32.0,230.0,234.0,1947.86
1947870.0,210.0,33.0,223.0,236.0,1947.87
1947880.0,203.0,32.0,223.0,228.0,1947.88
1947890.0,209.0,33.0,227.0,236.0,1947.89
1947900.0,215.0,33.0,230.0,242.0,1947.9
1947910.0,211.0,33.0,232.0,238.0,1947.91
1947920.0,211.0,33.0,224.0,237.0,1947.92
1947930.0,203.0,33.0,223.0,229.0,1947.93
1947940.0,210.0,32.0,227.0,238.0,1947.94
1947950.0,213.0,33.0,229.0,241.0,1947.95
1947960.0,213.0,32.0,232.0,238.0,1947.96
1947970.0,210.0,33.0,223.0,236.0,1947.97
1947980.0,204.0,33.0,222.0,229.0,1947.98
1947990.0,209.0,33.0,224.0,238.0,1947.99
1948000.0,215.0,32.0,231.0,243.0,1948.0
1948010.0,215.0,32.0,233.0,240.0,1948.01
1948020.0,216.0,33.0,224.0,239.0,1948.02
1948030.0,208.0,33.0,223.0,233.0,1948.03
1948040.0,210.0,33.0,226.0,239.0,1948.04
1948050.0,217.0,33.0,231.0,245.0,1948.05
1948060.0,213.0,33.0,232.0,240.0,1948.06
1948070.0,213.0,32.0,225.0,239.0,1948.07
1948080.0,207.0,32.0,225.0,231.0,1948.08
1948090.0,213.0,33.0,229.0,238.0,1948.09
1948100.0,218.0,32.0,232.0,243.0,1948.1
1948110.0,213.0,32.0,233.0,239.0,1948.11
1948120.0,214.0,34.0,226.0,241.0,1948.12
1948130.0,207.0,32.0,227.0,230.0,1948.13
1948140.0,214.0,32.0,231.0,240.0,1948.14
1948150.0,219.0,33.0,233.0,243.0,1948.15
1948160.0,215.0,32.0,236.0,241.0,1948.16
1948170.0,214.0,33.0,228.0,240.0,1948.17
1948180.0,206.0,33.0,226.0,232.0,1948.18
1948190.0,214.0,33.0,233.0,242.0,1948.19
1948200.0,223.0,32.0,234.0,246.0,1948.2
1948210.0,217.0,32.0,237.0,242.0,1948.21
1948220.0,218.0,32.0,228.0,240.0,1948.22
1948230.0,209.0,32.0,226.0,234.0,1948.23
1948240.0,217.0,32.0,235.0,243.0,1948.24
1948250.0,220.0,34.0,235.0,247.0,1948.25
1948260.0,216.0,32.0,238.0,242.0,1948.26
1948270.0,215.0,33.0,229.0,241.0,1948.27
1948280.0,209.0,32.0,230.0,235.0,1948.28
1948290.0,213.0,33.0,231.0,242.0,1948.29
1948300.0,218.0,32.0,237.0,248.0,1948.3
1948310.0,214.0,33.0,237.0,244.0,1948.31
1948320.0,214.0,33.0,230.0,240.0,1948.32
1948331.0,209.0,32.0,229.0,236.0,1948.331
1948341.0,215.0,31.0,236.0,245.0,1948.341
1948351.0,219.0,32.0,233.0,246.0,1948.351
1948361.0,212.0,32.0,234.0,240.0,1948.361
1948371.0,213.0,33.0,229.0,240.0,1948.371
1948381.0,210.0,33.0,232.0,239.0,1948.381
1948391.0,218.0,32.0,240.0,247.0,1948.391
1948401.0,220.0,32.0,234.0,245.0,1948.401
1948411.0,213.0,32.0,234.0,239.0,1948.411
1948421.0,214.0,32.0,228.0,240.0,1948.421
1948431.0,213.0,32.0,228.0,239.0,1948.431
1948441.0,220.0,33.0,234.0,246.0,1948.441
1948451.0,222.0,32.0,228.0,244.0,1948.451
1948461.0,219.0,32.0,235.0,245.0,1948.461
1948471.0,221.0,32.0,231.0,245.0,1948.471
1948481.0,223.0,33.0,233.0,248.0,1948.481
1948491.0,228.0,32.0,248.0,263.0,1948.491
1948502.0,233.0,33.0,248.0,265.0,1948.502
1948512.0,218.0,32.0,237.0,253.0,1948.512
1948522.0,222.0,32.0,234.0,254.0,1948.522
1948532.0,223.0,32.0,240.0,263.0,1948.532
1948542.0,216.0,31.0,237.0,263.0,1948.542
1948552.0,214.0,33.0,225.0,253.0,1948.552
1948562.0,213.0,31.0,224.0,245.0,1948.562
1948572.0,223.0,33.0,230.0,260.0,1948.572
1948582.0,231.0,32.0,236.0,267.0,1948.582
1948592.0,232.0,32.0,232.0,262.0,1948.592
1948602.0,233.0,32.0,227.0,257.0,1948.602
1948612.0,220.0,31.0,220.0,253.0,1948.612
1948622.0,221.0,32.0,225.0,256.0,1948.622
1948632.0,227.0,33.0,223.0,254.0,1948.632
1948642.0,223.0,32.0,224.0,256.0,1948.642
1948652.0,223.0,32.0,217.0,252.0,1948.652
1948662.0,228.0,33.0,217.0,263.0,1948.662
1948672.0,233.0,32.0,214.0,266.0,1948.672
1948682.0,236.0,33.0,222.0,274.0,1948.682
1948692.0,232.0,32.0,219.0,270.0,1948.692
1948702.0,234.0,33.0,218.0,270.0,1948.702
1948712.0,236.0,32.0,214.0,268.0,1948.712
1948722.0,233.0,32.0,213.0,269.0,1948.722
1948732.0,231.0,33.0,225.0,282.0,1948.732
1948742.0,227.0,32.0,222.0,281.0,1948.742
1948752.0,230.0,33.0,220.0,273.0,1948.752
1948762.0,220.0,33.0,209.0,270.0,1948.762
1948772.0,231.0,32.0,214.0,271.0,1948.772
1948782.0,251.0,32.0,228.0,283.0,1948.782
1948792.0,245.0,32.0,223.0,277.0,1948.792
1948802.0,244.0,33.0,224.0,271.0,1948.802
1948812.0,231.0,33.0,207.0,266.0,1948.812
1948822.0,236.0,33.0,214.0,274.0,1948.822
1948832.0,244.0,32.0,225.0,279.0,1948.832
1948843.0,252.0,32.0,222.0,280.0,1948.843
1948853.0,253.0,33.0,226.0,275.0,1948.853
1948863.0,241.0,33.0,216.0,273.0,1948.863
1948873.0,244.0,33.0,224.0,283.0,1948.873
1948883.0,247.0,33.0,224.0,282.0,1948.883
1948893.0,243.0,33.0,219.0,282.0,1948.893
1948903.0,248.0,32.0,230.0,284.0,1948.903
1948913.0,235.0,33.0,213.0,267.0,1948.913
1948923.0,238.0,32.0,216.0,272.0,1948.923
1948933.0,245.0,33.0,221.0,277.0,1948.933
1948943.0,253.0,32.0,228.0,284.0,1948.943
1948953.0,252.0,34.0,240.0,290.0,1948.953
1948963.0,241.0,32.0,228.0,282.0,1948.963
1948973.0,244.0,33.0,231.0,282.0,1948.973
1948983.0,249.0,33.0,249.0,308.0,1948.983
1948993.0,240.0,32.0,230.0,287.0,1948.993
1949003.0,242.0,33.0,236.0,287.0,1949.003
1949014.0,236.0,33.0,226.0,274.0,1949.014
1949024.0,243.0,33.0,232.0,278.0,1949.024
1949034.0,245.0,32.0,226.0,274.0,1949.034
1949044.0,234.0,31.0,205.0,256.0,1949.044
1949054.0,239.0,31.0,209.0,260.0,1949.054
1949064.0,242.0,32.0,207.0,259.0,1949.064
1949074.0,250.0,32.0,219.0,271.0,1949.074
1949084.0,256.0,34.0,226.0,277.0,1949.084
1949094.0,244.0,32.0,213.0,267.0,1949.094
1949104.0,243.0,33.0,219.0,276.0,1949.104
1949114.0,245.0,32.0,221.0,274.0,1949.114
1949124.0,244.0,32.0,216.0,265.0,1949.124
1949134.0,244.0,32.0,220.0,270.0,1949.134
1949144.0,240.0,33.0,212.0,265.0,1949.144
1949154.0,236.0,32.0,207.0,262.0,1949.154
1949164.0,236.0,32.0,208.0,258.0,1949.164
1949174.0,235.0,32.0,200.0,246.0,1949.174
1949184.0,237.0,33.0,204.0,250.0,1949.184
1949194.0,232.0,32.0,199.0,245.0,1949.194
1949204.0,232.0,32.0,205.0,257.0,1949.204
1949214.0,232.0,33.0,215.0,270.0,1949.214
1949224.0,244.0,32.0,223.0,276.0,1949.224
1949234.0,249.0,33.0,224.0,276.0,1949.234
1949244.0,244.0,31.0,218.0,267.0,1949.244
1949254.0,241.0,33.0,215.0,272.0,1949.254
1949264.0,239.0,32.0,223.0,278.0,1949.264
1949274.0,240.0,33.0,222.0,270.0,1949.274
1949284.0,241.0,32.0,221.0,266.0,1949.284
1949294.0,241.0,32.0,219.0,261.0,1949.294
1949304.0,249.0,33.0,224.0,261.0,1949.304
1949314.0,244.0,33.0,227.0,267.0,1949.314
1949324.0,247.0,32.0,231.0,268.0,1949.324
1949334.0,245.0,33.0,229.0,278.0,1949.334
1949344.0,236.0,32.0,219.0,262.0,1949.344
1949355.0,241.0,32.0,219.0,256.0,1949.355
1949365.0,242.0,33.0,227.0,268.0,1949.365
1949375.0,237.0,31.0,228.0,272.0,1949.375
1949385.0,238.0,33.0,231.0,276.0,1949.385
1949395.0,230.0,32.0,221.0,262.0,1949.395
1949405.0,233.0,33.0,224.0,275.0,1949.405
1949415.0,239.0,32.0,231.0,283.0,1949.415
1949425.0,236.0,33.0,231.0,276.0,1949.425
1949435.0,235.0,32.0,229.0,279.0,1949.435
1949445.0,231.0,32.0,228.0,274.0,1949.445
1949455.0,236.0,33.0,235.0,285.0,1949.455
1949465.0,244.0,34.0,246.0,300.0,1949.465
1949475.0,239.0,32.0,243.0,288.0,1949.475
1949485.0,236.0,33.0,244.0,298.0,1949.485
1949495.0,229.0,33.0,235.0,282.0,1949.495
1949505.0,231.0,32.0,233.0,281.0,1949.505
1949515.0,237.0,33.0,235.0,277.0,1949.515
1949526.0,234.0,33.0,228.0,261.0,1949.526
1949536.0,233.0,33.0,223.0,257.0,1949.536
1949546.0,228.0,32.0,216.0,247.0,1949.546
1949556.0,235.0,33.0,228.0,259.0,1949.556
1949566.0,242.0,33.0,236.0,263.0,1949.566
1949576.0,235.0,33.0,226.0,250.0,1949.576
1949586.0,235.0,32.0,222.0,249.0,1949.586
1949596.0,229.0,34.0,219.0,247.0,1949.596
1949606.0,239.0,32.0,227.0,253.0,1949.606
1949616.0,244.0,33.0,226.0,253.0,1949.616
1949626.0,240.0,32.0,227.0,255.0,1949.626
1949636.0,239.0,33.0,224.0,259.0,1949.636
1949646.0,235.0,33.0,227.0,263.0,1949.646
1949656.0,238.0,33.0,231.0,269.0,1949.656
1949666.0,247.0,34.0,236.0,275.0,1949.666
1949676.0,242.0,32.0,232.0,267.0,1949.676
1949686.0,244.0,33.0,231.0,267.0,1949.686
1949696.0,238.0,33.0,231.0,268.0,1949.696
1949706.0,240.0,33.0,231.0,262.0,1949.706
1949716.0,241.0,33.0,229.0,259.0,1949.716
1949726.0,233.0,33.0,223.0,250.0,1949.726
1949736.0,233.0,32.0,220.0,252.0,1949.736
1949746.0,227.0,33.0,220.0,256.0,1949.746
1949756.0,237.0,33.0,233.0,263.0,1949.756
1949766.0,242.0,33.0,240.0,284.0,1949.766
1949776.0,238.0,32.0,237.0,278.0,1949.776
1949786.0,240.0,35.0,238.0,285.0,1949.786
1949796.0,234.0,32.0,231.0,271.0,1949.796
1949806.0,241.0,33.0,237.0,279.0,1949.806
1949816.0,241.0,33.0,238.0,278.0,1949.816
1949826.0,233.0,32.0,233.0,273.0,1949.826
1949836.0,233.0,33.0,229.0,272.0,1949.836
1949846.0,226.0,33.0,224.0,263.0,1949.846
1949856.0,236.0,33.0,238.0,274.0,1949.856
1949867.0,239.0,34.0,231.0,269.0,1949.867
1949877.0,231.0,33.0,225.0,259.0,1949.877
1949887.0,231.0,33.0,222.0,260.0,1949.887
1949897.0,230.0,33.0,224.0,258.0,1949.897
1949907.0,227.0,33.0,223.0,257.0,1949.907
1949917.0,229.0,35.0,219.0,254.0,1949.917
1949927.0,222.0,32.0,214.0,243.0,1949.927
1949937.0,230.0,33.0,213.0,244.0,1949.937
1949947.0,240.0,33.0,221.0,251.0,1949.947
1949957.0,240.0,33.0,222.0,250.0,1949.957
1949967.0,241.0,33.0,217.0,245.0,1949.967
1949977.0,234.0,33.0,213.0,241.0,1949.977
1949987.0,235.0,32.0,216.0,248.0,1949.987
1949997.0,236.0,33.0,217.0,250.0,1949.997
1950007.0,235.0,32.0,223.0,254.0,1950.007
1950017.0,237.0,33.0,216.0,254.0,1950.017
1950027.0,233.0,32.0,211.0,247.0,1950.027
1950038.0,235.0,33.0,219.0,260.0,1950.038
1950048.0,240.0,34.0,230.0,269.0,1950.048
1950058.0,237.0,32.0,230.0,267.0,1950.058
1950068.0,236.0,33.0,222.0,259.0,1950.068
1950078.0,226.0,33.0,208.0,244.0,1950.078
1950088.0,234.0,33.0,214.0,252.0,1950.088
1950098.0,238.0,33.0,222.0,262.0,1950.098
1950108.0,234.0,34.0,213.0,253.0,1950.108
1950118.0,233.0,32.0,213.0,253.0,1950.118
1950128.0,228.0,33.0,207.0,249.0,1950.128
1950138.0,232.0,34.0,214.0,260.0,1950.138
1950148.0,248.0,34.0,228.0,273.0,1950.148
1950158.0,246.0,32.0,221.0,266.0,1950.158
1950168.0,244.0,34.0,221.0,268.0,1950.168
1950178.0,236.0,33.0,212.0,258.0,1950.178
1950188.0,243.0,33.0,220.0,271.0,1950.188
1950198.0,247.0,34.0,224.0,269.0,1950.198
1950208.0,242.0,33.0,214.0,258.0,1950.208
1950218.0,240.0,34.0,219.0,263.0,1950.218
1950228.0,236.0,33.0,208.0,254.0,1950.228
1950238.0,241.0,35.0,217.0,262.0,1950.238
1950248.0,251.0,34.0,226.0,270.0,1950.248
1950258.0,249.0,33.0,216.0,264.0,1950.258
1950268.0,247.0,34.0,221.0,266.0,1950.268
1950278.0,240.0,34.0,214.0,267.0,1950.278
1950288.0,245.0,33.0,223.0,273.0,1950.288
1950298.0,244.0,34.0,226.0,276.0,1950.298
1950308.0,240.0,33.0,218.0,268.0,1950.308
1950318.0,237.0,34.0,224.0,270.0,1950.318
1950328.0,231.0,33.0,209.0,259.0,1950.328
1950338.0,235.0,33.0,217.0,267.0,1950.338
1950348.0,238.0,34.0,222.0,266.0,1950.348
1950358.0,237.0,33.0,211.0,263.0,1950.358
1950368.0,237.0,34.0,218.0,265.0,1950.368
1950379.0,231.0,32.0,205.0,255.0,1950.379
1950389.0,237.0,33.0,213.0,263.0,1950.389
1950399.0,241.0,33.0,220.0,264.0,1950.399
1950409.0,234.0,33.0,202.0,260.0,1950.409
1950419.0,235.0,33.0,210.0,267.0,1950.419
1950429.0,234.0,34.0,208.0,268.0,1950.429
1950439.0,238.0,32.0,215.0,272.0,1950.439
1950449.0,240.0,34.0,221.0,271.0,1950.449
1950459.0,234.0,32.0,205.0,259.0,1950.459
1950469.0,234.0,33.0,213.0,260.0,1950.469
1950479.0,230.0,33.0,205.0,254.0,1950.479
1950489.0,239.0,33.0,211.0,262.0,1950.489
1950499.0,239.0,33.0,218.0,260.0,1950.499
1950509.0,235.0,32.0,203.0,253.0,1950.509
1950519.0,233.0,34.0,209.0,252.0,1950.519
1950529.0,234.0,33.0,207.0,256.0,1950.529
1950539.0,240.0,32.0,213.0,262.0,1950.539
1950550.0,240.0,33.0,219.0,258.0,1950.55
1950560.0,232.0,32.0,201.0,247.0,1950.56
1950570.0,233.0,32.0,206.0,249.0,1950.57
1950580.0,237.0,33.0,213.0,255.0,1950.58
1950590.0,239.0,33.0,209.0,253.0,1950.59
1950600.0,238.0,33.0,216.0,254.0,1950.6
1950610.0,231.0,32.0,199.0,244.0,1950.61
1950620.0,231.0,34.0,205.0,249.0,1950.62
1950630.0,236.0,32.0,213.0,254.0,1950.63
1950640.0,237.0,32.0,208.0,254.0,1950.64
1950650.0,235.0,33.0,212.0,250.0,1950.65
1950660.0,230.0,32.0,195.0,238.0,1950.66
1950670.0,231.0,33.0,202.0,244.0,1950.67
1950680.0,234.0,33.0,206.0,248.0,1950.68
1950690.0,237.0,32.0,207.0,248.0,1950.69
1950700.0,234.0,32.0,211.0,246.0,1950.7
1950710.0,227.0,32.0,196.0,239.0,1950.71
1950720.0,227.0,32.0,200.0,240.0,1950.72
1950730.0,228.0,32.0,204.0,243.0,1950.73
1950740.0,232.0,33.0,204.0,245.0,1950.74
1950750.0,228.0,33.0,208.0,245.0,1950.75
1950760.0,223.0,32.0,195.0,235.0,1950.76
1950770.0,225.0,32.0,201.0,241.0,1950.77
1950780.0,232.0,33.0,208.0,249.0,1950.78
1950790.0,232.0,33.0,204.0,246.0,1950.79
1950800.0,230.0,33.0,208.0,244.0,1950.8
1950810.0,227.0,32.0,197.0,238.0,1950.81
1950820.0,226.0,32.0,201.0,240.0,1950.82
1950830.0,230.0,33.0,209.0,246.0,1950.83
1950840.0,231.0,32.0,204.0,244.0,1950.84
1950850.0,230.0,33.0,210.0,245.0,1950.85
1950860.0,225.0,32.0,195.0,236.0,1950.86
1950870.0,225.0,32.0,199.0,241.0,1950.87
1950880.0,231.0,33.0,209.0,249.0,1950.88
1950891.0,231.0,32.0,201.0,245.0,1950.891
1950901.0,228.0,33.0,204.0,244.0,1950.901
1950911.0,223.0,32.0,190.0,234.0,1950.911
1950921.0,226.0,32.0,199.0,243.0,1950.921
1950931.0,229.0,32.0,207.0,247.0,1950.931
1950941.0,226.0,33.0,195.0,244.0,1950.941
1950951.0,223.0,32.0,199.0,242.0,1950.951
1950961.0,221.0,32.0,188.0,236.0,1950.961
1950971.0,230.0,32.0,199.0,246.0,1950.971
1950981.0,230.0,33.0,206.0,250.0,1950.981
1950991.0,228.0,32.0,196.0,245.0,1950.991
1951001.0,225.0,33.0,201.0,246.0,1951.001
1951011.0,221.0,32.0,193.0,242.0,1951.011
1951021.0,224.0,32.0,199.0,245.0,1951.021
1951031.0,228.0,32.0,209.0,251.0,1951.031
1951041.0,226.0,31.0,194.0,246.0,1951.041
1951051.0,223.0,32.0,200.0,245.0,1951.051
1951062.0,221.0,32.0,192.0,242.0,1951.062
1951072.0,230.0,33.0,201.0,248.0,1951.072
1951082.0,229.0,32.0,209.0,246.0,1951.082
1951092.0,221.0,32.0,190.0,240.0,1951.092
1951102.0,222.0,33.0,197.0,240.0,1951.102
1951112.0,219.0,32.0,192.0,240.0,1951.112
1951122.0,226.0,32.0,199.0,248.0,1951.122
1951132.0,225.0,33.0,207.0,249.0,1951.132
1951142.0,220.0,31.0,190.0,240.0,1951.142
1951152.0,221.0,32.0,197.0,241.0,1951.152
1951162.0,219.0,32.0,194.0,242.0,1951.162
1951172.0,223.0,31.0,198.0,248.0,1951.172
1951182.0,222.0,32.0,204.0,246.0,1951.182
1951192.0,219.0,32.0,192.0,244.0,1951.192
1951202.0,214.0,33.0,196.0,243.0,1951.202
1951212.0,213.0,32.0,195.0,245.0,1951.212
1951222.0,219.0,32.0,198.0,249.0,1951.222
1951232.0,220.0,32.0,207.0,249.0,1951.232
1951242.0,215.0,32.0,190.0,243.0,1951.242
1951252.0,216.0,32.0,196.0,241.0,1951.252
1951262.0,218.0,33.0,197.0,246.0,1951.262
1951272.0,222.0,32.0,199.0,248.0,1951.272
1951282.0,223.0,32.0,207.0,249.0,1951.282
1951292.0,218.0,32.0,191.0,242.0,1951.292
1951302.0,217.0,32.0,196.0,243.0,1951.302
1951312.0,219.0,32.0,199.0,246.0,1951.312
1951322.0,222.0,33.0,199.0,251.0,1951.322
1951332.0,222.0,32.0,208.0,250.0,1951.332
1951342.0,213.0,32.0,190.0,243.0,1951.342
1951352.0,215.0,32.0,196.0,243.0,1951.352
1951362.0,214.0,31.0,193.0,243.0,1951.362
1951372.0,220.0,32.0,199.0,251.0,1951.372
1951382.0,220.0,33.0,206.0,249.0,1951.382
1951392.0,213.0,32.0,190.0,242.0,1951.392
1951403.0,215.0,32.0,195.0,243.0,1951.403
1951413.0,217.0,32.0,201.0,249.0,1951.413
1951423.0,219.0,31.0,197.0,248.0,1951.423
1951433.0,216.0,32.0,200.0,245.0,1951.433
1951443.0,212.0,31.0,186.0,238.0,1951.443
1951453.0,215.0,33.0,192.0,243.0,1951.453
1951463.0,220.0,32.0,201.0,250.0,1951.463
1951473.0,220.0,32.0,194.0,248.0,1951.473
1951483.0,216.0,32.0,199.0,245.0,1951.483
1951493.0,210.0,31.0,187.0,240.0,1951.493
1951503.0,212.0,32.0,192.0,243.0,1951.503
1951513.0,218.0,32.0,202.0,251.0,1951.513
1951523.0,216.0,32.0,195.0,247.0,1951.523
1951533.0,218.0,32.0,201.0,246.0,1951.533
1951543.0,211.0,31.0,188.0,241.0,1951.543
1951553.0,214.0,31.0,194.0,246.0,1951.553
1951563.0,219.0,33.0,203.0,252.0,1951.563
1951574.0,218.0,32.0,194.0,248.0,1951.574
1951584.0,216.0,33.0,198.0,246.0,1951.584
1951594.0,209.0,32.0,189.0,242.0,1951.594
1951604.0,217.0,32.0,199.0,251.0,1951.604
1951614.0,221.0,32.0,205.0,251.0,1951.614
1951624.0,216.0,31.0,194.0,248.0,1951.624
1951634.0,216.0,32.0,197.0,245.0,1951.634
1951644.0,211.0,33.0,190.0,243.0,1951.644
1951654.0,219.0,32.0,200.0,251.0,1951.654
1951664.0,219.0,32.0,205.0,253.0,1951.664
1951674.0,212.0,32.0,195.0,248.0,1951.674
1951684.0,212.0,32.0,197.0,246.0,1951.684
1951694.0,208.0,32.0,191.0,244.0,1951.694
1951704.0,213.0,32.0,196.0,249.0,1951.704
1951714.0,218.0,33.0,203.0,251.0,1951.714
1951724.0,214.0,31.0,195.0,247.0,1951.724
1951734.0,213.0,32.0,196.0,246.0,1951.734
1951744.0,209.0,31.0,190.0,241.0,1951.744
1951754.0,214.0,32.0,199.0,251.0,1951.754
1951764.0,219.0,32.0,204.0,252.0,1951.764
1951774.0,213.0,33.0,194.0,247.0,1951.774
1951784.0,213.0,32.0,197.0,246.0,1951.784
1951794.0,207.0,32.0,190.0,243.0,1951.794
1951804.0,218.0,33.0,201.0,251.0,1951.804
1951814.0,223.0,31.0,206.0,253.0,1951.814
1951824.0,215.0,31.0,197.0,248.0,1951.824
1951834.0,217.0,33.0,199.0,250.0,1951.834
1951844.0,210.0,32.0,192.0,244.0,1951.844
1951854.0,218.0,32.0,202.0,252.0,1951.854
1951864.0,221.0,32.0,206.0,252.0,1951.864
1951874.0,216.0,31.0,200.0,249.0,1951.874
1951884.0,214.0,32.0,199.0,246.0,1951.884
1951894.0,210.0,32.0,195.0,244.0,1951.894
1951904.0,218.0,33.0,203.0,252.0,1951.904
1951915.0,221.0,32.0,206.0,249.0,1951.915
1951925.0,212.0,32.0,198.0,244.0,1951.925
1951935.0,214.0,32.0,200.0,245.0,1951.935
1951945.0,215.0,33.0,204.0,249.0,1951.945
1951955.0,218.0,32.0,207.0,250.0,1951.955
1951965.0,220.0,33.0,207.0,251.0,1951.965
1951975.0,212.0,32.0,201.0,245.0,1951.975
1951985.0,213.0,32.0,201.0,246.0,1951.985
1951995.0,217.0,32.0,208.0,251.0,1951.995
1952005.0,219.0,32.0,209.0,254.0,1952.005
1952015.0,220.0,33.0,209.0,251.0,1952.015
1952025.0,211.0,31.0,202.0,246.0,1952.025
1952035.0,210.0,32.0,203.0,245.0,1952.035
1952045.0,211.0,32.0,205.0,247.0,1952.045
1952055.0,216.0,33.0,212.0,252.0,1952.055
1952065.0,217.0,33.0,209.0,248.0,1952.065
1952075.0,208.0,32.0,202.0,243.0,1952.075
1952086.0,212.0,32.0,203.0,245.0,1952.086
1952096.0,217.0,33.0,210.0,252.0,1952.096
1952106.0,215.0,32.0,211.0,250.0,1952.106
1952116.0,215.0,32.0,205.0,247.0,1952.116
1952126.0,208.0,31.0,202.0,241.0,1952.126
1952136.0,212.0,32.0,204.0,247.0,1952.136
1952146.0,217.0,33.0,213.0,252.0,1952.146
1952156.0,214.0,33.0,212.0,251.0,1952.156
1952166.0,214.0,32.0,208.0,246.0,1952.166
1952176.0,208.0,32.0,205.0,241.0,1952.176
1952186.0,212.0,32.0,208.0,246.0,1952.186
1952196.0,216.0,31.0,215.0,250.0,1952.196
1952206.0,212.0,32.0,214.0,248.0,1952.206
1952216.0,213.0,32.0,210.0,245.0,1952.216
1952226.0,207.0,32.0,206.0,240.0,1952.226
1952236.0,211.0,32.0,211.0,246.0,1952.236
1952246.0,217.0,32.0,218.0,251.0,1952.246
1952256.0,216.0,31.0,219.0,251.0,1952.256
1952266.0,214.0,32.0,212.0,246.0,1952.266
1952276.0,207.0,32.0,208.0,239.0,1952.276
1952286.0,212.0,33.0,214.0,248.0,1952.286
1952296.0,218.0,32.0,219.0,251.0,1952.296
1952306.0,215.0,32.0,220.0,250.0,1952.306
1952316.0,214.0,32.0,214.0,246.0,1952.316
1952326.0,206.0,31.0,210.0,240.0,1952.326
1952336.0,212.0,32.0,216.0,248.0,1952.336
1952346.0,216.0,33.0,221.0,252.0,1952.346
1952356.0,216.0,32.0,222.0,250.0,1952.356
1952366.0,217.0,32.0,216.0,247.0,1952.366
1952376.0,208.0,32.0,215.0,241.0,1952.376
1952386.0,214.0,31.0,218.0,245.0,1952.386
1952396.0,219.0,32.0,225.0,251.0,1952.396
1952406.0,216.0,32.0,225.0,249.0,1952.406
1952416.0,216.0,32.0,218.0,247.0,1952.416
1952427.0,209.0,30.0,218.0,242.0,1952.427
1952437.0,216.0,32.0,225.0,252.0,1952.437
1952447.0,221.0,32.0,227.0,254.0,1952.447
1952457.0,213.0,32.0,226.0,247.0,1952.457
1952467.0,214.0,32.0,220.0,246.0,1952.467
1952477.0,209.0,32.0,220.0,243.0,1952.477
1952487.0,219.0,32.0,229.0,252.0,1952.487
1952497.0,221.0,32.0,227.0,251.0,1952.497
1952507.0,213.0,32.0,230.0,245.0,1952.507
1952517.0,214.0,32.0,225.0,247.0,1952.517
1952527.0,210.0,32.0,227.0,243.0,1952.527
1952537.0,218.0,32.0,235.0,253.0,1952.537
1952547.0,220.0,33.0,231.0,251.0,1952.547
1952557.0,216.0,31.0,233.0,248.0,1952.557
1952567.0,216.0,32.0,225.0,246.0,1952.567
1952577.0,213.0,31.0,228.0,245.0,1952.577
1952587.0,219.0,32.0,234.0,251.0,1952.587
1952598.0,220.0,33.0,228.0,249.0,1952.598
1952608.0,213.0,32.0,228.0,244.0,1952.608
1952618.0,214.0,32.0,225.0,244.0,1952.618
1952628.0,217.0,32.0,231.0,251.0,1952.628
1952638.0,219.0,32.0,235.0,251.0,1952.638
1952648.0,219.0,33.0,228.0,249.0,1952.648
1952658.0,211.0,32.0,230.0,244.0,1952.658
1952668.0,214.0,33.0,227.0,246.0,1952.668
1952678.0,218.0,32.0,235.0,252.0,1952.678
1952688.0,218.0,32.0,239.0,253.0,1952.688
1952698.0,219.0,32.0,231.0,249.0,1952.698
1952708.0,211.0,31.0,231.0,243.0,1952.708
1952718.0,213.0,33.0,228.0,245.0,1952.718
1952728.0,215.0,32.0,233.0,249.0,1952.728
1952738.0,218.0,33.0,239.0,252.0,1952.738
1952748.0,217.0,32.0,230.0,249.0,1952.748
1952758.0,209.0,32.0,231.0,242.0,1952.758
1952768.0,214.0,32.0,229.0,245.0,1952.768
1952778.0,215.0,32.0,233.0,249.0,1952.778
1952788.0,218.0,32.0,239.0,251.0,1952.788
1952798.0,217.0,33.0,230.0,247.0,1952.798
1952808.0,209.0,32.0,231.0,240.0,1952.808
1952818.0,215.0,31.0,229.0,243.0,1952.818
1952828.0,217.0,33.0,236.0,248.0,1952.828
1952838.0,217.0,31.0,240.0,249.0,1952.838
1952848.0,216.0,32.0,229.0,245.0,1952.848
1952858.0,210.0,32.0,234.0,243.0,1952.858
1952868.0,212.0,32.0,229.0,243.0,1952.868
1952878.0,217.0,32.0,237.0,248.0,1952.878
1952888.0,217.0,32.0,240.0,249.0,1952.888
1952898.0,220.0,31.0,232.0,247.0,1952.898
1952908.0,210.0,32.0,235.0,241.0,1952.908
1952918.0,213.0,32.0,230.0,243.0,1952.918
1952928.0,218.0,33.0,238.0,250.0,1952.928
1952939.0,217.0,32.0,241.0,247.0,1952.939
1952949.0,216.0,32.0,232.0,244.0,1952.949
1952959.0,209.0,31.0,233.0,237.0,1952.959
1952969.0,214.0,31.0,237.0,247.0,1952.969
1952979.0,220.0,32.0,238.0,249.0,1952.979
1952989.0,218.0,33.0,242.0,249.0,1952.989
1952999.0,218.0,32.0,233.0,246.0,1952.999
1953009.0,209.0,32.0,233.0,239.0,1953.009
1953019.0,217.0,32.0,242.0,250.0,1953.019
1953029.0,221.0,31.0,241.0,252.0,1953.029
1953039.0,216.0,32.0,242.0,249.0,1953.039
1953049.0,216.0,32.0,234.0,246.0,1953.049
1953059.0,209.0,32.0,234.0,241.0,1953.059
1953069.0,215.0,32.0,236.0,247.0,1953.069
1953079.0,220.0,32.0,241.0,252.0,1953.079
1953089.0,217.0,31.0,243.0,249.0,1953.089
1953099.0,215.0,32.0,234.0,246.0,1953.099
1953110.0,210.0,32.0,235.0,241.0,1953.11
1953120.0,218.0,33.0,242.0,251.0,1953.12
1953130.0,220.0,32.0,237.0,250.0,1953.13
1953140.0,213.0,31.0,239.0,244.0,1953.14
1953150.0,214.0,32.0,234.0,243.0,1953.15
1953160.0,210.0,33.0,234.0,244.0,1953.16
1953170.0,217.0,33.0,243.0,252.0,1953.17
1953180.0,219.0,33.0,236.0,250.0,1953.18
1953190.0,211.0,32.0,239.0,242.0,1953.19
1953200.0,214.0,32.0,234.0,244.0,1953.2
1953210.0,211.0,32.0,237.0,244.0,1953.21
1953220.0,218.0,31.0,245.0,251.0,1953.22
1953230.0,219.0,33.0,237.0,248.0,1953.23
1953240.0,213.0,32.0,241.0,244.0,1953.24
1953250.0,214.0,32.0,234.0,244.0,1953.25
1953260.0,212.0,32.0,238.0,244.0,1953.26
1953270.0,217.0,32.0,245.0,250.0,1953.27
1953280.0,221.0,33.0,240.0,250.0,1953.28
1953290.0,213.0,31.0,242.0,244.0,1953.29
1953300.0,214.0,32.0,235.0,244.0,1953.3
1953310.0,214.0,33.0,240.0,246.0,1953.31
1953320.0,217.0,32.0,247.0,250.0,1953.32
1953330.0,220.0,33.0,240.0,250.0,1953.33
1953340.0,212.0,32.0,243.0,243.0,1953.34
1953350.0,212.0,32.0,235.0,243.0,1953.35
1953360.0,213.0,32.0,241.0,245.0,1953.36
1953370.0,216.0,32.0,245.0,251.0,1953.37
1953380.0,219.0,32.0,239.0,250.0,1953.38
1953390.0,210.0,32.0,243.0,243.0,1953.39
1953400.0,212.0,32.0,236.0,243.0,1953.4
1953410.0,209.0,31.0,240.0,243.0,1953.41
1953420.0,216.0,32.0,247.0,250.0,1953.42
1953430.0,219.0,32.0,240.0,248.0,1953.43
1953440.0,211.0,32.0,243.0,242.0,1953.44
1953451.0,212.0,32.0,237.0,242.0,1953.451
1953461.0,215.0,32.0,245.0,248.0,1953.461
1953471.0,217.0,32.0,249.0,249.0,1953.471
1953481.0,215.0,32.0,238.0,246.0,1953.481
1953491.0,208.0,31.0,239.0,238.0,1953.491
1953501.0,211.0,33.0,237.0,245.0,1953.501
1953511.0,216.0,32.0,244.0,250.0,1953.511
1953521.0,215.0,31.0,248.0,249.0,1953.521
1953531.0,216.0,33.0,238.0,244.0,1953.531
1953541.0,209.0,31.0,242.0,241.0,1953.541
1953551.0,211.0,32.0,237.0,244.0,1953.551
1953561.0,216.0,33.0,245.0,251.0,1953.561
1953571.0,215.0,32.0,248.0,249.0,1953.571
1953581.0,217.0,32.0,238.0,247.0,1953.581
1953591.0,209.0,32.0,242.0,242.0,1953.591
1953601.0,213.0,32.0,239.0,244.0,1953.601
1953611.0,218.0,32.0,246.0,251.0,1953.611
1953622.0,216.0,32.0,248.0,249.0,1953.622
1953632.0,215.0,33.0,239.0,245.0,1953.632
1953642.0,208.0,32.0,239.0,241.0,1953.642
1953652.0,215.0,32.0,245.0,250.0,1953.652
1953662.0,221.0,32.0,244.0,251.0,1953.662
1953672.0,215.0,31.0,248.0,249.0,1953.672
1953682.0,215.0,33.0,239.0,245.0,1953.682
1953692.0,209.0,32.0,241.0,244.0,1953.692
1953702.0,216.0,32.0,248.0,252.0,1953.702
1953712.0,219.0,32.0,247.0,253.0,1953.712
1953722.0,215.0,32.0,250.0,248.0,1953.722
1953732.0,216.0,31.0,240.0,246.0,1953.732
1953742.0,209.0,32.0,243.0,244.0,1953.742
1953752.0,214.0,32.0,245.0,249.0,1953.752
1953762.0,219.0,33.0,248.0,253.0,1953.762
1953772.0,214.0,32.0,251.0,248.0,1953.772
1953782.0,214.0,32.0,241.0,246.0,1953.782
1953792.0,209.0,32.0,245.0,240.0,1953.792
1953802.0,215.0,33.0,248.0,249.0,1953.802
1953812.0,221.0,33.0,249.0,251.0,1953.812
1953822.0,214.0,33.0,251.0,248.0,1953.822
1953832.0,214.0,32.0,243.0,245.0,1953.832
1953842.0,209.0,33.0,245.0,240.0,1953.842
1953852.0,215.0,33.0,252.0,250.0,1953.852
1953862.0,219.0,33.0,248.0,252.0,1953.862
1953872.0,212.0,32.0,250.0,246.0,1953.872
1953882.0,214.0,33.0,242.0,246.0,1953.882
1953892.0,207.0,32.0,243.0,241.0,1953.892
1953902.0,215.0,32.0,249.0,250.0,1953.902
1953912.0,219.0,33.0,245.0,250.0,1953.912
1953922.0,215.0,31.0,251.0,247.0,1953.922
1953932.0,214.0,33.0,241.0,245.0,1953.932
1953942.0,208.0,33.0,243.0,242.0,1953.942
1953952.0,216.0,33.0,251.0,251.0,1953.952
1953963.0,219.0,32.0,244.0,250.0,1953.963
1953973.0,211.0,32.0,247.0,243.0,1953.973
1953983.0,213.0,33.0,240.0,243.0,1953.983
1953993.0,214.0,33.0,245.0,247.0,1953.993
1954003.0,215.0,33.0,251.0,249.0,1954.003
1954013.0,218.0,34.0,242.0,250.0,1954.013
1954023.0,210.0,32.0,247.0,243.0,1954.023
1954033.0,213.0,33.0,241.0,243.0,1954.033
1954043.0,215.0,33.0,248.0,248.0,1954.043
1954053.0,217.0,32.0,252.0,251.0,1954.053
1954063.0,220.0,34.0,242.0,248.0,1954.063
1954073.0,210.0,32.0,245.0,243.0,1954.073
1954083.0,213.0,33.0,239.0,244.0,1954.083
1954093.0,212.0,32.0,243.0,244.0,1954.093
1954103.0,217.0,33.0,249.0,249.0,1954.103
1954113.0,220.0,33.0,242.0,246.0,1954.113
1954123.0,210.0,33.0,244.0,241.0,1954.123
1954134.0,213.0,33.0,240.0,243.0,1954.134
1954144.0,218.0,34.0,248.0,250.0,1954.144
1954154.0,217.0,32.0,252.0,248.0,1954.154
1954164.0,215.0,33.0,239.0,245.0,1954.164
1954174.0,208.0,32.0,243.0,239.0,1954.174
1954184.0,212.0,33.0,240.0,244.0,1954.184
1954194.0,218.0,33.0,247.0,250.0,1954.194
1954204.0,216.0,34.0,250.0,250.0,1954.204
1954214.0,215.0,33.0,239.0,245.0,1954.214
1954224.0,209.0,32.0,243.0,240.0,1954.224
1954234.0,213.0,33.0,242.0,246.0,1954.234
1954244.0,219.0,33.0,246.0,251.0,1954.244
1954254.0,215.0,32.0,250.0,248.0,1954.254
1954264.0,217.0,33.0,240.0,247.0,1954.264
1954274.0,209.0,33.0,243.0,240.0,1954.274
1954284.0,213.0,32.0,244.0,246.0,1954.284
1954294.0,218.0,33.0,248.0,252.0,1954.294
1954304.0,218.0,33.0,253.0,250.0,1954.304
1954314.0,216.0,33.0,240.0,246.0,1954.314
1954324.0,209.0,32.0,242.0,238.0,1954.324
1954334.0,214.0,34.0,243.0,246.0,1954.334
1954344.0,219.0,32.0,247.0,250.0,1954.344
1954354.0,217.0,32.0,250.0,248.0,1954.354
1954364.0,216.0,33.0,240.0,245.0,1954.364
1954374.0,208.0,32.0,240.0,238.0,1954.374
1954384.0,214.0,32.0,243.0,247.0,1954.384
1954394.0,217.0,33.0,246.0,249.0,1954.394
1954404.0,216.0,33.0,249.0,246.0,1954.404
1954414.0,217.0,32.0,239.0,243.0,1954.414
1954424.0,207.0,32.0,239.0,237.0,1954.424
1954434.0,213.0,32.0,240.0,242.0,1954.434
1954444.0,218.0,33.0,245.0,249.0,1954.444
1954454.0,215.0,32.0,249.0,246.0,1954.454
1954464.0,216.0,34.0,239.0,244.0,1954.464
1954475.0,208.0,32.0,241.0,238.0,1954.475
1954485.0,215.0,32.0,246.0,248.0,1954.485
1954495.0,221.0,33.0,245.0,249.0,1954.495
1954505.0,212.0,32.0,246.0,244.0,1954.505
1954515.0,213.0,33.0,238.0,243.0,1954.515
1954525.0,208.0,33.0,239.0,241.0,1954.525
1954535.0,216.0,32.0,247.0,250.0,1954.535
1954545.0,220.0,33.0,243.0,251.0,1954.545
1954555.0,211.0,33.0,247.0,246.0,1954.555
1954565.0,214.0,33.0,239.0,247.0,1954.565
1954575.0,208.0,32.0,241.0,243.0,1954.575
1954585.0,215.0,33.0,248.0,252.0,1954.585
1954595.0,218.0,34.0,242.0,251.0,1954.595
1954605.0,213.0,32.0,247.0,247.0,1954.605
1954615.0,212.0,33.0,237.0,246.0,1954.615
1954625.0,209.0,33.0,243.0,244.0,1954.625
1954635.0,215.0,33.0,249.0,252.0,1954.635
1954646.0,219.0,33.0,241.0,251.0,1954.646
1954656.0,210.0,33.0,245.0,245.0,1954.656
1954666.0,211.0,32.0,240.0,245.0,1954.666
1954676.0,215.0,33.0,247.0,249.0,1954.676
1954686.0,215.0,33.0,251.0,250.0,1954.686
1954696.0,218.0,33.0,241.0,249.0,1954.696
1954706.0,209.0,33.0,245.0,243.0,1954.706
1954716.0,211.0,33.0,239.0,245.0,1954.716
1954726.0,215.0,32.0,247.0,250.0,1954.726
1954736.0,217.0,32.0,250.0,251.0,1954.736
1954746.0,217.0,33.0,240.0,247.0,1954.746
1954756.0,209.0,32.0,244.0,240.0,1954.756
1954766.0,212.0,33.0,239.0,243.0,1954.766
1954776.0,213.0,33.0,243.0,245.0,1954.776
1954786.0,217.0,33.0,249.0,250.0,1954.786
1954796.0,218.0,32.0,239.0,246.0,1954.796
1954806.0,209.0,32.0,241.0,239.0,1954.806
1954816.0,214.0,33.0,238.0,242.0,1954.816
1954826.0,214.0,33.0,242.0,245.0,1954.826
1954836.0,217.0,32.0,249.0,248.0,1954.836
1954846.0,217.0,33.0,239.0,246.0,1954.846
1954856.0,209.0,32.0,242.0,238.0,1954.856
1954866.0,213.0,32.0,238.0,241.0,1954.866
1954876.0,216.0,33.0,245.0,246.0,1954.876
1954886.0,217.0,32.0,248.0,248.0,1954.886
1954896.0,217.0,33.0,237.0,245.0,1954.896
1954906.0,211.0,32.0,242.0,239.0,1954.906
1954916.0,212.0,33.0,236.0,240.0,1954.916
1954926.0,216.0,32.0,244.0,246.0,1954.926
1954936.0,217.0,32.0,248.0,246.0,1954.936
1954946.0,220.0,32.0,239.0,245.0,1954.946
1954956.0,210.0,32.0,240.0,238.0,1954.956
1954966.0,213.0,33.0,236.0,239.0,1954.966
1954976.0,217.0,33.0,244.0,248.0,1954.976
1954987.0,216.0,32.0,247.0,246.0,1954.987
1954997.0,216.0,32.0,237.0,244.0,1954.997
1955007.0,207.0,32.0,239.0,237.0,1955.007
1955017.0,213.0,32.0,242.0,247.0,1955.017
1955027.0,219.0,33.0,243.0,249.0,1955.027
1955037.0,215.0,32.0,247.0,247.0,1955.037
1955047.0,215.0,32.0,237.0,244.0,1955.047
1955057.0,208.0,32.0,237.0,238.0,1955.057
1955067.0,214.0,32.0,244.0,246.0,1955.067
1955077.0,218.0,32.0,245.0,250.0,1955.077
1955087.0,215.0,32.0,247.0,247.0,1955.087
1955097.0,216.0,32.0,238.0,245.0,1955.097
1955107.0,208.0,33.0,239.0,240.0,1955.107
1955117.0,213.0,32.0,240.0,244.0,1955.117
1955127.0,219.0,32.0,246.0,250.0,1955.127
1955137.0,215.0,32.0,248.0,245.0,1955.137
1955147.0,214.0,33.0,237.0,244.0,1955.147
1955158.0,207.0,32.0,239.0,239.0,1955.158
1955168.0,216.0,33.0,246.0,249.0,1955.168
1955178.0,219.0,32.0,240.0,248.0,1955.178
1955188.0,210.0,32.0,242.0,242.0,1955.188
1955198.0,213.0,32.0,239.0,243.0,1955.198
1955208.0,208.0,32.0,240.0,241.0,1955.208
1955218.0,217.0,32.0,247.0,249.0,1955.218
1955228.0,219.0,33.0,240.0,249.0,1955.228
1955238.0,210.0,32.0,244.0,242.0,1955.238
1955248.0,214.0,32.0,239.0,243.0,1955.248
1955258.0,209.0,33.0,241.0,241.0,1955.258
1955268.0,217.0,32.0,249.0,248.0,1955.268
1955278.0,220.0,33.0,240.0,246.0,1955.278
1955288.0,213.0,32.0,246.0,241.0,1955.288
1955298.0,215.0,33.0,238.0,242.0,1955.298
1955308.0,212.0,32.0,242.0,240.0,1955.308
1955318.0,217.0,33.0,248.0,247.0,1955.318
1955328.0,221.0,33.0,244.0,248.0,1955.328
1955338.0,212.0,33.0,244.0,241.0,1955.338
1955348.0,214.0,33.0,237.0,240.0,1955.348
1955358.0,213.0,33.0,242.0,243.0,1955.358
1955368.0,218.0,32.0,248.0,246.0,1955.368
1955378.0,220.0,32.0,240.0,247.0,1955.378
1955388.0,212.0,33.0,243.0,240.0,1955.388
1955398.0,213.0,33.0,236.0,240.0,1955.398
1955408.0,214.0,34.0,241.0,244.0,1955.408
1955418.0,217.0,33.0,245.0,247.0,1955.418
1955428.0,220.0,33.0,240.0,246.0,1955.428
1955438.0,212.0,32.0,243.0,239.0,1955.438
1955448.0,213.0,32.0,237.0,239.0,1955.448
1955458.0,211.0,33.0,240.0,239.0,1955.458
1955468.0,217.0,33.0,246.0,246.0,1955.468
1955478.0,220.0,33.0,238.0,246.0,1955.478
1955488.0,211.0,33.0,241.0,240.0,1955.488
1955499.0,212.0,32.0,236.0,240.0,1955.499
1955509.0,215.0,32.0,242.0,245.0,1955.509
1955519.0,216.0,33.0,247.0,245.0,1955.519
1955529.0,216.0,33.0,236.0,243.0,1955.529
1955539.0,208.0,32.0,237.0,235.0,1955.539
1955549.0,212.0,33.0,234.0,241.0,1955.549
1955559.0,215.0,32.0,241.0,246.0,1955.559
1955569.0,216.0,32.0,244.0,245.0,1955.569
1955579.0,215.0,33.0,234.0,242.0,1955.579
1955589.0,209.0,32.0,238.0,237.0,1955.589
1955599.0,212.0,33.0,234.0,240.0,1955.599
1955609.0,217.0,32.0,241.0,247.0,1955.609
1955619.0,214.0,33.0,243.0,245.0,1955.619
1955629.0,217.0,32.0,234.0,244.0,1955.629
1955639.0,208.0,32.0,238.0,236.0,1955.639
1955649.0,213.0,32.0,236.0,241.0,1955.649
1955659.0,218.0,33.0,243.0,247.0,1955.659
1955670.0,215.0,32.0,246.0,245.0,1955.67
1955680.0,215.0,32.0,237.0,243.0,1955.68
1955690.0,208.0,32.0,238.0,234.0,1955.69
1955700.0,214.0,32.0,243.0,244.0,1955.7
1955710.0,220.0,32.0,243.0,247.0,1955.71
1955720.0,215.0,32.0,247.0,243.0,1955.72
1955730.0,214.0,32.0,238.0,242.0,1955.73
1955740.0,207.0,33.0,240.0,237.0,1955.74
1955750.0,215.0,33.0,247.0,246.0,1955.75
1955760.0,219.0,32.0,245.0,248.0,1955.76
1955770.0,214.0,32.0,249.0,243.0,1955.77
1955780.0,216.0,33.0,240.0,242.0,1955.78
1955790.0,209.0,32.0,242.0,239.0,1955.79
1955800.0,215.0,32.0,244.0,244.0,1955.8
1955810.0,221.0,33.0,246.0,250.0,1955.81
1955820.0,215.0,32.0,247.0,242.0,1955.82
1955830.0,215.0,32.0,237.0,243.0,1955.83
1955840.0,209.0,32.0,240.0,237.0,1955.84
1955850.0,215.0,31.0,243.0,245.0,1955.85
1955860.0,221.0,32.0,244.0,249.0,1955.86
1955870.0,214.0,32.0,246.0,245.0,1955.87
1955880.0,215.0,32.0,237.0,243.0,1955.88
1955890.0,209.0,32.0,237.0,236.0,1955.89
1955900.0,216.0,32.0,243.0,246.0,1955.9
1955910.0,222.0,33.0,242.0,249.0,1955.91
1955920.0,214.0,33.0,243.0,243.0,1955.92
1955930.0,216.0,32.0,236.0,244.0,1955.93
1955940.0,208.0,32.0,237.0,238.0,1955.94
1955950.0,216.0,32.0,241.0,245.0,1955.95
1955960.0,220.0,32.0,239.0,247.0,1955.96
1955970.0,216.0,32.0,244.0,243.0,1955.97
1955980.0,215.0,32.0,234.0,242.0,1955.98
1955990.0,208.0,32.0,235.0,237.0,1955.99
1956000.0,217.0,33.0,243.0,248.0,1956.0
1956011.0,221.0,32.0,239.0,248.0,1956.011
1956021.0,212.0,31.0,239.0,240.0,1956.021
1956031.0,215.0,32.0,234.0,241.0,1956.031
1956041.0,215.0,33.0,238.0,244.0,1956.041
1956051.0,218.0,32.0,244.0,245.0,1956.051
1956061.0,221.0,32.0,236.0,247.0,1956.061
1956071.0,211.0,32.0,238.0,240.0,1956.071
1956081.0,214.0,32.0,233.0,241.0,1956.081
1956091.0,216.0,32.0,238.0,245.0,1956.091
1956101.0,217.0,32.0,241.0,246.0,1956.101
1956111.0,220.0,32.0,234.0,245.0,1956.111
1956121.0,210.0,31.0,236.0,237.0,1956.121
1956131.0,212.0,33.0,231.0,239.0,1956.131
1956141.0,211.0,32.0,234.0,240.0,1956.141
1956151.0,217.0,32.0,241.0,245.0,1956.151
1956161.0,221.0,32.0,234.0,243.0,1956.161
1956171.0,210.0,32.0,234.0,236.0,1956.171
1956182.0,213.0,32.0,230.0,239.0,1956.182
1956192.0,217.0,33.0,237.0,247.0,1956.192
1956202.0,216.0,32.0,240.0,245.0,1956.202
1956212.0,217.0,32.0,230.0,243.0,1956.212
1956222.0,207.0,32.0,231.0,235.0,1956.222
1956232.0,212.0,33.0,229.0,240.0,1956.232
1956242.0,218.0,33.0,236.0,246.0,1956.242
1956252.0,215.0,33.0,238.0,245.0,1956.252
1956262.0,215.0,32.0,230.0,242.0,1956.262
1956272.0,209.0,32.0,232.0,237.0,1956.272
1956282.0,212.0,32.0,230.0,241.0,1956.282
1956292.0,219.0,33.0,237.0,248.0,1956.292
1956302.0,214.0,32.0,237.0,244.0,1956.302
1956312.0,217.0,33.0,230.0,245.0,1956.312
1956322.0,208.0,33.0,232.0,239.0,1956.322
1956332.0,212.0,32.0,232.0,242.0,1956.332
1956342.0,218.0,32.0,237.0,249.0,1956.342
1956352.0,215.0,32.0,240.0,246.0,1956.352
1956362.0,216.0,33.0,229.0,244.0,1956.362
1956372.0,206.0,32.0,230.0,235.0,1956.372
1956382.0,211.0,33.0,231.0,243.0,1956.382
1956392.0,219.0,32.0,235.0,248.0,1956.392
1956402.0,215.0,32.0,239.0,246.0,1956.402
1956412.0,216.0,33.0,230.0,244.0,1956.412
1956422.0,207.0,31.0,229.0,235.0,1956.422
1956432.0,212.0,33.0,233.0,244.0,1956.432
1956442.0,216.0,32.0,236.0,247.0,1956.442
1956452.0,215.0,33.0,239.0,245.0,1956.452
1956462.0,216.0,32.0,230.0,242.0,1956.462
1956472.0,207.0,32.0,229.0,235.0,1956.472
1956482.0,213.0,32.0,231.0,240.0,1956.482
1956492.0,218.0,32.0,236.0,246.0,1956.492
1956502.0,215.0,32.0,238.0,244.0,1956.502
1956512.0,215.0,33.0,229.0,243.0,1956.512
1956523.0,207.0,32.0,229.0,235.0,1956.523
1956533.0,215.0,32.0,236.0,246.0,1956.533
1956543.0,220.0,33.0,235.0,247.0,1956.543
1956553.0,212.0,33.0,234.0,240.0,1956.553
1956563.0,213.0,33.0,228.0,241.0,1956.563
1956573.0,207.0,32.0,228.0,237.0,1956.573
1956583.0,215.0,32.0,237.0,246.0,1956.583
1956593.0,220.0,33.0,234.0,248.0,1956.593
1956603.0,211.0,32.0,234.0,241.0,1956.603
1956613.0,216.0,33.0,229.0,242.0,1956.613
1956623.0,208.0,32.0,229.0,238.0,1956.623
1956633.0,217.0,32.0,238.0,247.0,1956.633
1956643.0,219.0,33.0,234.0,248.0,1956.643
1956653.0,214.0,32.0,237.0,244.0,1956.653
1956663.0,214.0,32.0,229.0,243.0,1956.663
1956673.0,209.0,32.0,232.0,240.0,1956.673
1956683.0,216.0,32.0,240.0,249.0,1956.683
1956694.0,219.0,32.0,233.0,247.0,1956.694
1956704.0,210.0,32.0,235.0,241.0,1956.704
1956714.0,212.0,32.0,229.0,241.0,1956.714
1956724.0,215.0,33.0,237.0,247.0,1956.724
1956734.0,217.0,33.0,241.0,247.0,1956.734
1956744.0,219.0,33.0,233.0,247.0,1956.744
1956754.0,211.0,32.0,235.0,239.0,1956.754
1956764.0,213.0,32.0,231.0,241.0,1956.764
1956774.0,217.0,33.0,237.0,247.0,1956.774
1956784.0,219.0,33.0,241.0,248.0,1956.784
1956794.0,220.0,33.0,233.0,245.0,1956.794
1956804.0,212.0,31.0,235.0,239.0,1956.804
1956814.0,213.0,33.0,230.0,242.0,1956.814
1956824.0,214.0,32.0,236.0,244.0,1956.824
1956834.0,219.0,33.0,242.0,248.0,1956.834
1956844.0,219.0,32.0,233.0,245.0,1956.844
1956854.0,210.0,32.0,235.0,239.0,1956.854
1956864.0,214.0,33.0,233.0,243.0,1956.864
1956874.0,215.0,33.0,238.0,246.0,1956.874
1956884.0,217.0,32.0,243.0,249.0,1956.884
1956894.0,218.0,33.0,233.0,247.0,1956.894
1956904.0,209.0,32.0,234.0,238.0,1956.904
1956914.0,214.0,32.0,231.0,241.0,1956.914
1956924.0,216.0,32.0,238.0,246.0,1956.924
1956934.0,217.0,31.0,243.0,247.0,1956.934
1956944.0,217.0,33.0,232.0,245.0,1956.944
1956954.0,211.0,32.0,237.0,239.0,1956.954
1956964.0,213.0,33.0,232.0,242.0,1956.964
1956974.0,217.0,32.0,240.0,247.0,1956.974
1956984.0,217.0,33.0,242.0,246.0,1956.984
1956994.0,220.0,33.0,236.0,246.0,1956.994
1957004.0,211.0,31.0,236.0,239.0,1957.004
1957014.0,214.0,32.0,231.0,240.0,1957.014
1957024.0,219.0,33.0,239.0,248.0,1957.024
1957035.0,217.0,32.0,242.0,246.0,1957.035
1957045.0,218.0,32.0,233.0,243.0,1957.045
1957055.0,210.0,32.0,234.0,235.0,1957.055
1957065.0,215.0,32.0,237.0,244.0,1957.065
1957075.0,221.0,33.0,239.0,247.0,1957.075
1957085.0,217.0,33.0,241.0,244.0,1957.085
1957095.0,216.0,33.0,232.0,241.0,1957.095
1957105.0,207.0,32.0,233.0,234.0,1957.105
1957115.0,214.0,33.0,238.0,244.0,1957.115
1957125.0,219.0,32.0,241.0,246.0,1957.125
1957135.0,216.0,32.0,242.0,244.0,1957.135
1957145.0,216.0,32.0,233.0,241.0,1957.145
1957155.0,208.0,33.0,232.0,235.0,1957.155
1957165.0,214.0,32.0,234.0,240.0,1957.165
1957175.0,219.0,33.0,240.0,248.0,1957.175
1957185.0,216.0,32.0,243.0,243.0,1957.185
1957195.0,216.0,33.0,232.0,242.0,1957.195
1957206.0,209.0,32.0,233.0,237.0,1957.206
1957216.0,217.0,33.0,241.0,246.0,1957.216
1957226.0,219.0,33.0,237.0,247.0,1957.226
1957236.0,212.0,32.0,237.0,239.0,1957.236
1957246.0,213.0,32.0,232.0,240.0,1957.246
1957256.0,210.0,31.0,233.0,238.0,1957.256
1957266.0,218.0,32.0,241.0,247.0,1957.266
1957276.0,221.0,33.0,236.0,248.0,1957.276
1957286.0,213.0,33.0,237.0,239.0,1957.286
1957296.0,215.0,32.0,233.0,242.0,1957.296
1957306.0,211.0,32.0,234.0,240.0,1957.306
1957316.0,219.0,32.0,242.0,247.0,1957.316
1957326.0,220.0,34.0,234.0,247.0,1957.326
1957336.0,214.0,32.0,238.0,241.0,1957.336
1957346.0,215.0,33.0,231.0,243.0,1957.346
1957356.0,212.0,32.0,235.0,241.0,1957.356
1957366.0,218.0,32.0,241.0,247.0,1957.366
1957376.0,221.0,33.0,237.0,248.0,1957.376
1957386.0,215.0,32.0,237.0,241.0,1957.386
1957396.0,214.0,33.0,230.0,241.0,1957.396
1957406.0,214.0,33.0,235.0,243.0,1957.406
1957416.0,219.0,32.0,241.0,246.0,1957.416
1957426.0,221.0,33.0,236.0,247.0,1957.426
1957436.0,213.0,32.0,236.0,239.0,1957.436
1957446.0,216.0,32.0,231.0,240.0,1957.446
1957456.0,215.0,32.0,234.0,242.0,1957.456
1957466.0,218.0,32.0,239.0,245.0,1957.466
1957476.0,222.0,33.0,234.0,246.0,1957.476
1957486.0,214.0,32.0,235.0,237.0,1957.486
1957496.0,215.0,32.0,229.0,238.0,1957.496
1957506.0,213.0,32.0,232.0,236.0,1957.506
1957516.0,218.0,31.0,238.0,244.0,1957.516
1957526.0,221.0,32.0,233.0,245.0,1957.526
1957536.0,213.0,32.0,233.0,237.0,1957.536
1957547.0,213.0,32.0,229.0,238.0,1957.547
1957557.0,216.0,32.0,235.0,243.0,1957.557
1957567.0,218.0,32.0,239.0,244.0,1957.567
1957577.0,217.0,33.0,228.0,242.0,1957.577
1957587.0,209.0,32.0,229.0,233.0,1957.587
1957597.0,213.0,33.0,227.0,239.0,1957.597
1957607.0,216.0,33.0,234.0,246.0,1957.607
1957617.0,217.0,32.0,238.0,244.0,1957.617
1957627.0,216.0,33.0,229.0,242.0,1957.627
1957637.0,211.0,31.0,231.0,235.0,1957.637
1957647.0,212.0,32.0,227.0,239.0,1957.647
1957657.0,217.0,32.0,234.0,245.0,1957.657
1957667.0,217.0,33.0,235.0,243.0,1957.667
1957677.0,219.0,32.0,229.0,242.0,1957.677
1957687.0,210.0,32.0,229.0,234.0,1957.687
1957697.0,213.0,32.0,227.0,238.0,1957.697
1957707.0,218.0,32.0,234.0,245.0,1957.707
1957718.0,215.0,32.0,234.0,241.0,1957.718
1957728.0,217.0,33.0,226.0,241.0,1957.728
1957738.0,208.0,32.0,223.0,233.0,1957.738
1957748.0,216.0,32.0,232.0,243.0,1957.748
1957758.0,221.0,33.0,231.0,246.0,1957.758
1957768.0,216.0,31.0,232.0,241.0,1957.768
1957778.0,215.0,33.0,224.0,239.0,1957.778
1957788.0,208.0,33.0,224.0,233.0,1957.788
