time (ms),signal 0,signal 1,signal 2,signal 3,time (sec)
2044190.0,219.0,32.0,4.0,243.0,2044.19
2044200.0,219.0,32.0,4.0,241.0,2044.2
2044210.0,212.0,32.0,3.0,237.0,2044.21
2044220.0,214.0,32.0,4.0,237.0,2044.22
2044230.0,216.0,33.0,3.0,242.0,2044.23
2044240.0,218.0,32.0,4.0,244.0,2044.24
2044250.0,221.0,32.0,4.0,243.0,2044.25
2044260.0,212.0,32.0,4.0,237.0,2044.26
2044270.0,214.0,32.0,3.0,238.0,2044.27
2044280.0,218.0,32.0,4.0,243.0,2044.28
2044290.0,219.0,33.0,3.0,245.0,2044.29
2044300.0,221.0,32.0,4.0,243.0,2044.3
2044310.0,212.0,32.0,4.0,237.0,2044.31
2044320.0,215.0,32.0,5.0,239.0,2044.32
2044331.0,219.0,32.0,4.0,245.0,2044.331
2044341.0,219.0,31.0,4.0,245.0,2044.341
2044351.0,219.0,33.0,3.0,243.0,2044.351
2044361.0,210.0,32.0,4.0,234.0,2044.361
2044371.0,217.0,32.0,4.0,244.0,2044.371
2044381.0,220.0,32.0,4.0,246.0,2044.381
2044391.0,219.0,31.0,4.0,245.0,2044.391
2044401.0,219.0,32.0,4.0,242.0,2044.401
2044411.0,210.0,32.0,4.0,235.0,2044.411
2044421.0,215.0,33.0,4.0,240.0,2044.421
2044431.0,222.0,32.0,3.0,247.0,2044.431
2044441.0,218.0,32.0,4.0,244.0,2044.441
2044451.0,220.0,31.0,4.0,241.0,2044.451
2044461.0,212.0,32.0,4.0,236.0,2044.461
2044471.0,215.0,32.0,3.0,241.0,2044.471
2044481.0,222.0,33.0,3.0,248.0,2044.481
2044491.0,219.0,31.0,4.0,244.0,2044.491
2044502.0,219.0,32.0,4.0,242.0,2044.502
2044512.0,212.0,32.0,4.0,236.0,2044.512
2044522.0,219.0,32.0,2.0,246.0,2044.522
2044532.0,224.0,32.0,4.0,247.0,2044.532
2044542.0,216.0,33.0,3.0,241.0,2044.542
2044552.0,219.0,32.0,4.0,242.0,2044.552
2044562.0,212.0,32.0,4.0,237.0,2044.562
2044572.0,220.0,32.0,3.0,247.0,2044.572
2044582.0,224.0,31.0,4.0,248.0,2044.582
2044592.0,219.0,32.0,4.0,243.0,2044.592
2044602.0,219.0,32.0,4.0,243.0,2044.602
2044612.0,214.0,33.0,3.0,240.0,2044.612
2044622.0,222.0,32.0,4.0,247.0,2044.622
2044632.0,225.0,33.0,4.0,249.0,2044.632
2044642.0,220.0,31.0,5.0,243.0,2044.642
2044652.0,220.0,32.0,4.0,243.0,2044.652
2044662.0,215.0,32.0,4.0,241.0,2044.662
2044672.0,220.0,33.0,3.0,246.0,2044.672
2044682.0,225.0,32.0,4.0,249.0,2044.682
2044692.0,219.0,32.0,3.0,244.0,2044.692
2044702.0,221.0,32.0,5.0,243.0,2044.702
2044712.0,216.0,33.0,3.0,241.0,2044.712
2044722.0,221.0,33.0,4.0,246.0,2044.722
2044732.0,226.0,32.0,4.0,249.0,2044.732
2044742.0,219.0,32.0,4.0,244.0,2044.742
2044752.0,220.0,32.0,3.0,244.0,2044.752
2044762.0,213.0,32.0,5.0,238.0,2044.762
2044772.0,222.0,33.0,4.0,248.0,2044.772
2044782.0,226.0,33.0,3.0,250.0,2044.782
2044792.0,219.0,32.0,4.0,243.0,2044.792
2044802.0,221.0,33.0,3.0,245.0,2044.802
2044812.0,215.0,32.0,4.0,240.0,2044.812
2044822.0,223.0,33.0,4.0,250.0,2044.822
2044832.0,227.0,33.0,5.0,251.0,2044.832
2044843.0,218.0,33.0,2.0,244.0,2044.843
2044853.0,220.0,32.0,4.0,244.0,2044.853
2044863.0,220.0,33.0,3.0,247.0,2044.863
2044873.0,225.0,32.0,4.0,250.0,2044.873
2044883.0,224.0,33.0,3.0,247.0,2044.883
2044893.0,219.0,32.0,4.0,242.0,2044.893
2044903.0,221.0,33.0,4.0,244.0,2044.903
2044913.0,221.0,33.0,4.0,247.0,2044.913
2044923.0,224.0,33.0,3.0,250.0,2044.923
2044933.0,226.0,33.0,4.0,249.0,2044.933
2044943.0,218.0,32.0,4.0,242.0,2044.943
2044953.0,220.0,33.0,4.0,243.0,2044.953
2044963.0,223.0,33.0,4.0,249.0,2044.963
2044973.0,224.0,33.0,3.0,250.0,2044.973
2044983.0,225.0,33.0,4.0,248.0,2044.983
2044993.0,217.0,33.0,3.0,242.0,2044.993
2045003.0,219.0,32.0,4.0,244.0,2045.003
2045014.0,223.0,33.0,4.0,249.0,2045.014
2045024.0,225.0,32.0,4.0,249.0,2045.024
2045034.0,223.0,33.0,4.0,246.0,2045.034
2045044.0,215.0,32.0,4.0,238.0,2045.044
2045054.0,221.0,33.0,3.0,248.0,2045.054
2045064.0,225.0,33.0,4.0,249.0,2045.064
2045074.0,224.0,32.0,4.0,249.0,2045.074
2045084.0,224.0,33.0,4.0,247.0,2045.084
2045094.0,215.0,32.0,4.0,239.0,2045.094
2045104.0,220.0,33.0,4.0,245.0,2045.104
2045114.0,225.0,33.0,3.0,252.0,2045.114
2045124.0,224.0,33.0,3.0,249.0,2045.124
2045134.0,223.0,32.0,3.0,247.0,2045.134
2045144.0,217.0,33.0,4.0,241.0,2045.144
2045154.0,221.0,32.0,5.0,244.0,2045.154
2045164.0,226.0,33.0,4.0,252.0,2045.164
2045174.0,224.0,32.0,4.0,248.0,2045.174
2045184.0,224.0,33.0,3.0,247.0,2045.184
2045194.0,217.0,32.0,4.0,240.0,2045.194
2045204.0,220.0,32.0,4.0,245.0,2045.204
2045214.0,227.0,32.0,4.0,251.0,2045.214
2045224.0,224.0,33.0,3.0,247.0,2045.224
2045234.0,224.0,33.0,3.0,246.0,2045.234
2045244.0,218.0,32.0,4.0,238.0,2045.244
2045254.0,221.0,32.0,4.0,245.0,2045.254
2045264.0,228.0,33.0,4.0,251.0,2045.264
2045274.0,226.0,33.0,4.0,250.0,2045.274
2045284.0,225.0,33.0,4.0,247.0,2045.284
2045294.0,216.0,33.0,3.0,239.0,2045.294
2045304.0,222.0,33.0,4.0,247.0,2045.304
2045314.0,226.0,33.0,3.0,250.0,2045.314
2045324.0,227.0,32.0,3.0,249.0,2045.324
2045334.0,225.0,33.0,4.0,246.0,2045.334
2045344.0,218.0,32.0,5.0,238.0,2045.344
2045355.0,223.0,33.0,4.0,247.0,2045.355
2045365.0,228.0,33.0,4.0,251.0,2045.365
2045375.0,223.0,33.0,3.0,245.0,2045.375
2045385.0,223.0,32.0,4.0,244.0,2045.385
2045395.0,219.0,32.0,3.0,243.0,2045.395
2045405.0,224.0,33.0,5.0,247.0,2045.405
2045415.0,228.0,33.0,4.0,250.0,2045.415
2045425.0,222.0,33.0,3.0,243.0,2045.425
2045435.0,223.0,32.0,4.0,242.0,2045.435
2045445.0,216.0,33.0,3.0,238.0,2045.445
2045455.0,224.0,33.0,4.0,247.0,2045.455
2045465.0,228.0,33.0,4.0,250.0,2045.465
2045475.0,223.0,32.0,4.0,244.0,2045.475
2045485.0,224.0,33.0,4.0,245.0,2045.485
2045495.0,217.0,33.0,4.0,239.0,2045.495
2045505.0,225.0,33.0,4.0,250.0,2045.505
2045515.0,230.0,32.0,4.0,252.0,2045.515
2045526.0,223.0,32.0,4.0,245.0,2045.526
2045536.0,224.0,33.0,4.0,244.0,2045.536
2045546.0,222.0,33.0,4.0,248.0,2045.546
2045556.0,228.0,33.0,3.0,252.0,2045.556
2045566.0,226.0,35.0,3.0,251.0,2045.566
2045576.0,222.0,32.0,4.0,246.0,2045.576
2045586.0,224.0,33.0,4.0,248.0,2045.586
2045596.0,226.0,33.0,4.0,251.0,2045.596
2045606.0,230.0,33.0,4.0,255.0,2045.606
2045616.0,233.0,33.0,5.0,255.0,2045.616
2045626.0,223.0,33.0,4.0,249.0,2045.626
2045636.0,223.0,32.0,4.0,248.0,2045.636
2045646.0,225.0,33.0,3.0,251.0,2045.646
2045656.0,227.0,33.0,3.0,254.0,2045.656
2045666.0,235.0,33.0,4.0,253.0,2045.666
2045676.0,226.0,33.0,4.0,247.0,2045.676
2045686.0,228.0,33.0,4.0,250.0,2045.686
2045696.0,230.0,33.0,4.0,253.0,2045.696
2045706.0,234.0,32.0,3.0,259.0,2045.706
2045716.0,237.0,33.0,4.0,256.0,2045.716
2045726.0,229.0,33.0,4.0,250.0,2045.726
2045736.0,228.0,33.0,4.0,250.0,2045.736
2045746.0,229.0,33.0,4.0,250.0,2045.746
2045756.0,234.0,33.0,3.0,258.0,2045.756
2045766.0,233.0,34.0,4.0,253.0,2045.766
2045776.0,225.0,32.0,4.0,245.0,2045.776
2045786.0,234.0,33.0,4.0,247.0,2045.786
2045796.0,232.0,34.0,4.0,250.0,2045.796
2045806.0,236.0,33.0,4.0,255.0,2045.806
2045816.0,233.0,33.0,4.0,252.0,2045.816
2045826.0,226.0,34.0,3.0,249.0,2045.826
2045836.0,229.0,32.0,4.0,249.0,2045.836
2045846.0,233.0,33.0,4.0,253.0,2045.846
2045856.0,236.0,33.0,5.0,255.0,2045.856
2045867.0,236.0,33.0,4.0,251.0,2045.867
2045877.0,227.0,32.0,4.0,245.0,2045.877
2045887.0,228.0,33.0,3.0,249.0,2045.887
2045897.0,233.0,32.0,3.0,254.0,2045.897
2045907.0,228.0,33.0,3.0,252.0,2045.907
2045917.0,229.0,33.0,5.0,249.0,2045.917
2045927.0,222.0,33.0,3.0,242.0,2045.927
2045937.0,228.0,33.0,3.0,245.0,2045.937
2045947.0,236.0,32.0,4.0,249.0,2045.947
2045957.0,233.0,33.0,3.0,247.0,2045.957
2045967.0,233.0,32.0,4.0,244.0,2045.967
2045977.0,222.0,33.0,4.0,239.0,2045.977
2045987.0,226.0,31.0,4.0,246.0,2045.987
2045997.0,230.0,33.0,4.0,255.0,2045.997
2046007.0,239.0,32.0,4.0,257.0,2046.007
2046017.0,244.0,34.0,3.0,255.0,2046.017
2046027.0,233.0,32.0,4.0,247.0,2046.027
2046038.0,227.0,33.0,4.0,253.0,2046.038
2046048.0,227.0,33.0,4.0,249.0,2046.048
2046058.0,223.0,33.0,2.0,239.0,2046.058
2046068.0,226.0,32.0,4.0,241.0,2046.068
2046078.0,227.0,33.0,3.0,241.0,2046.078
2046088.0,232.0,32.0,3.0,246.0,2046.088
2046098.0,242.0,32.0,4.0,254.0,2046.098
2046108.0,235.0,32.0,5.0,250.0,2046.108
2046118.0,240.0,33.0,4.0,250.0,2046.118
2046128.0,230.0,32.0,4.0,245.0,2046.128
2046138.0,239.0,33.0,4.0,258.0,2046.138
2046148.0,239.0,32.0,3.0,258.0,2046.148
2046158.0,237.0,32.0,4.0,258.0,2046.158
2046168.0,246.0,33.0,4.0,261.0,2046.168
2046178.0,240.0,31.0,4.0,253.0,2046.178
2046188.0,247.0,32.0,3.0,262.0,2046.188
2046198.0,251.0,32.0,3.0,262.0,2046.198
2046208.0,252.0,32.0,3.0,258.0,2046.208
2046218.0,253.0,32.0,4.0,256.0,2046.218
2046228.0,240.0,32.0,3.0,249.0,2046.228
2046238.0,252.0,31.0,4.0,260.0,2046.238
2046248.0,258.0,33.0,4.0,262.0,2046.248
2046258.0,257.0,32.0,4.0,258.0,2046.258
2046268.0,264.0,33.0,3.0,259.0,2046.268
2046278.0,255.0,32.0,4.0,252.0,2046.278
2046288.0,256.0,32.0,4.0,259.0,2046.288
2046298.0,260.0,32.0,4.0,262.0,2046.298
2046308.0,256.0,31.0,4.0,258.0,2046.308
2046318.0,255.0,32.0,4.0,258.0,2046.318
2046328.0,250.0,32.0,4.0,255.0,2046.328
2046338.0,253.0,32.0,3.0,258.0,2046.338
2046348.0,258.0,32.0,3.0,259.0,2046.348
2046358.0,246.0,32.0,4.0,250.0,2046.358
2046368.0,246.0,32.0,4.0,247.0,2046.368
2046379.0,243.0,32.0,4.0,246.0,2046.379
2046389.0,250.0,32.0,4.0,257.0,2046.389
2046399.0,251.0,33.0,3.0,256.0,2046.399
2046409.0,241.0,32.0,3.0,246.0,2046.409
2046419.0,239.0,32.0,4.0,246.0,2046.419
2046429.0,240.0,32.0,5.0,247.0,2046.429
2046439.0,246.0,31.0,4.0,254.0,2046.439
2046449.0,247.0,32.0,4.0,253.0,2046.449
2046459.0,241.0,32.0,3.0,246.0,2046.459
2046469.0,237.0,32.0,3.0,247.0,2046.469
2046479.0,236.0,32.0,3.0,248.0,2046.479
2046489.0,239.0,32.0,4.0,254.0,2046.489
2046499.0,240.0,33.0,4.0,251.0,2046.499
2046509.0,232.0,32.0,4.0,245.0,2046.509
2046519.0,233.0,32.0,4.0,244.0,2046.519
2046529.0,233.0,33.0,3.0,248.0,2046.529
2046539.0,237.0,32.0,3.0,251.0,2046.539
2046550.0,237.0,32.0,4.0,249.0,2046.55
2046560.0,231.0,31.0,4.0,240.0,2046.56
2046570.0,231.0,32.0,2.0,247.0,2046.57
2046580.0,239.0,32.0,4.0,255.0,2046.58
2046590.0,237.0,33.0,3.0,253.0,2046.59
2046600.0,238.0,32.0,4.0,254.0,2046.6
2046610.0,232.0,32.0,4.0,246.0,2046.61
2046620.0,235.0,33.0,4.0,251.0,2046.62
2046630.0,243.0,32.0,4.0,256.0,2046.63
2046640.0,245.0,32.0,4.0,254.0,2046.64
2046650.0,248.0,33.0,3.0,253.0,2046.65
2046660.0,241.0,32.0,4.0,244.0,2046.66
2046670.0,243.0,32.0,4.0,252.0,2046.67
2046680.0,249.0,32.0,4.0,256.0,2046.68
2046690.0,248.0,32.0,4.0,255.0,2046.69
2046700.0,247.0,32.0,4.0,252.0,2046.7
2046710.0,238.0,32.0,4.0,244.0,2046.71
2046720.0,240.0,33.0,3.0,249.0,2046.72
2046730.0,244.0,32.0,4.0,255.0,2046.73
2046740.0,243.0,33.0,3.0,255.0,2046.74
2046750.0,247.0,32.0,4.0,253.0,2046.75
2046760.0,238.0,32.0,2.0,244.0,2046.76
2046770.0,238.0,33.0,3.0,246.0,2046.77
2046780.0,247.0,33.0,3.0,255.0,2046.78
2046790.0,247.0,32.0,4.0,250.0,2046.79
2046800.0,248.0,33.0,3.0,250.0,2046.8
2046810.0,241.0,32.0,3.0,243.0,2046.81
2046820.0,242.0,31.0,3.0,247.0,2046.82
2046830.0,244.0,33.0,4.0,252.0,2046.83
2046840.0,247.0,32.0,3.0,251.0,2046.84
2046850.0,256.0,33.0,3.0,251.0,2046.85
2046860.0,251.0,32.0,4.0,244.0,2046.86
2046870.0,249.0,32.0,4.0,250.0,2046.87
2046880.0,255.0,33.0,3.0,257.0,2046.88
2046891.0,248.0,33.0,2.0,253.0,2046.891
2046901.0,246.0,33.0,4.0,251.0,2046.901
2046911.0,237.0,33.0,3.0,244.0,2046.911
2046921.0,245.0,32.0,4.0,254.0,2046.921
2046931.0,251.0,32.0,4.0,256.0,2046.931
2046941.0,250.0,32.0,5.0,253.0,2046.941
2046951.0,256.0,33.0,4.0,254.0,2046.951
2046961.0,247.0,32.0,4.0,249.0,2046.961
2046971.0,257.0,33.0,3.0,260.0,2046.971
2046981.0,258.0,32.0,4.0,260.0,2046.981
2046991.0,248.0,32.0,4.0,251.0,2046.991
2047001.0,251.0,33.0,4.0,251.0,2047.001
2047011.0,241.0,31.0,4.0,246.0,2047.011
2047021.0,242.0,33.0,3.0,252.0,2047.021
2047031.0,250.0,33.0,4.0,257.0,2047.031
2047041.0,247.0,33.0,3.0,250.0,2047.041
2047051.0,254.0,32.0,4.0,251.0,2047.051
2047062.0,248.0,33.0,4.0,248.0,2047.062
2047072.0,259.0,32.0,4.0,257.0,2047.072
2047082.0,259.0,32.0,4.0,258.0,2047.082
2047092.0,249.0,32.0,4.0,248.0,2047.092
2047102.0,247.0,34.0,3.0,252.0,2047.102
2047112.0,252.0,32.0,4.0,251.0,2047.112
2047122.0,256.0,32.0,4.0,257.0,2047.122
2047132.0,254.0,33.0,5.0,256.0,2047.132
2047142.0,242.0,32.0,4.0,247.0,2047.142
2047152.0,244.0,33.0,4.0,249.0,2047.152
2047162.0,240.0,33.0,4.0,253.0,2047.162
2047172.0,243.0,33.0,3.0,256.0,2047.172
2047182.0,244.0,32.0,4.0,256.0,2047.182
2047192.0,239.0,33.0,4.0,249.0,2047.192
2047202.0,239.0,32.0,4.0,249.0,2047.202
2047212.0,238.0,33.0,4.0,251.0,2047.212
2047222.0,244.0,32.0,4.0,256.0,2047.222
2047232.0,246.0,33.0,4.0,256.0,2047.232
2047242.0,239.0,32.0,4.0,246.0,2047.242
2047252.0,238.0,33.0,4.0,247.0,2047.252
2047262.0,243.0,32.0,4.0,250.0,2047.262
2047272.0,245.0,33.0,4.0,252.0,2047.272
2047282.0,245.0,33.0,3.0,253.0,2047.282
2047292.0,239.0,33.0,3.0,244.0,2047.292
2047302.0,249.0,32.0,4.0,247.0,2047.302
2047312.0,247.0,33.0,4.0,253.0,2047.312
2047322.0,249.0,32.0,5.0,255.0,2047.322
2047332.0,248.0,32.0,4.0,255.0,2047.332
2047342.0,240.0,32.0,4.0,246.0,2047.342
2047352.0,236.0,33.0,3.0,249.0,2047.352
2047362.0,238.0,33.0,3.0,248.0,2047.362
2047372.0,246.0,32.0,4.0,253.0,2047.372
2047382.0,245.0,33.0,5.0,253.0,2047.382
2047392.0,236.0,33.0,4.0,243.0,2047.392
2047403.0,238.0,33.0,4.0,247.0,2047.403
2047413.0,243.0,33.0,3.0,255.0,2047.413
2047423.0,243.0,34.0,3.0,253.0,2047.423
2047433.0,249.0,32.0,4.0,251.0,2047.433
2047443.0,242.0,33.0,4.0,243.0,2047.443
2047453.0,246.0,33.0,5.0,248.0,2047.453
2047463.0,252.0,33.0,4.0,255.0,2047.463
2047473.0,249.0,33.0,3.0,253.0,2047.473
2047483.0,247.0,34.0,3.0,253.0,2047.483
2047493.0,240.0,32.0,3.0,246.0,2047.493
2047503.0,241.0,33.0,3.0,250.0,2047.503
2047513.0,246.0,33.0,5.0,257.0,2047.513
2047523.0,247.0,33.0,3.0,254.0,2047.523
2047533.0,246.0,33.0,3.0,254.0,2047.533
2047543.0,238.0,33.0,4.0,245.0,2047.543
2047553.0,240.0,33.0,3.0,250.0,2047.553
2047563.0,247.0,32.0,4.0,257.0,2047.563
2047574.0,243.0,33.0,3.0,252.0,2047.574
2047584.0,241.0,33.0,4.0,251.0,2047.584
2047594.0,232.0,33.0,4.0,242.0,2047.594
2047604.0,240.0,33.0,4.0,253.0,2047.604
2047614.0,243.0,34.0,3.0,255.0,2047.614
2047624.0,239.0,32.0,4.0,250.0,2047.624
2047634.0,239.0,33.0,4.0,250.0,2047.634
2047644.0,233.0,32.0,5.0,243.0,2047.644
2047654.0,240.0,33.0,4.0,254.0,2047.654
2047664.0,244.0,33.0,4.0,254.0,2047.664
2047674.0,240.0,32.0,4.0,248.0,2047.674
2047684.0,239.0,32.0,4.0,250.0,2047.684
2047694.0,233.0,32.0,4.0,246.0,2047.694
2047704.0,238.0,33.0,5.0,253.0,2047.704
2047714.0,243.0,33.0,4.0,259.0,2047.714
2047724.0,236.0,32.0,4.0,251.0,2047.724
2047734.0,235.0,33.0,3.0,252.0,2047.734
2047744.0,231.0,34.0,3.0,244.0,2047.744
2047754.0,238.0,32.0,3.0,254.0,2047.754
2047764.0,241.0,33.0,4.0,257.0,2047.764
2047774.0,236.0,33.0,5.0,251.0,2047.774
2047784.0,236.0,34.0,3.0,253.0,2047.784
2047794.0,228.0,33.0,3.0,245.0,2047.794
2047804.0,234.0,34.0,3.0,254.0,2047.804
2047814.0,245.0,32.0,4.0,264.0,2047.814
2047824.0,233.0,33.0,4.0,253.0,2047.824
2047834.0,235.0,34.0,5.0,258.0,2047.834
2047844.0,224.0,34.0,4.0,250.0,2047.844
2047854.0,231.0,33.0,4.0,257.0,2047.854
2047864.0,234.0,33.0,4.0,258.0,2047.864
2047874.0,229.0,33.0,4.0,249.0,2047.874
2047884.0,228.0,33.0,4.0,249.0,2047.884
2047894.0,220.0,33.0,5.0,241.0,2047.894
2047904.0,230.0,32.0,4.0,254.0,2047.904
2047915.0,233.0,34.0,4.0,259.0,2047.915
2047925.0,225.0,33.0,4.0,248.0,2047.925
2047935.0,227.0,34.0,3.0,249.0,2047.935
2047945.0,229.0,32.0,4.0,250.0,2047.945
2047955.0,233.0,33.0,3.0,253.0,2047.955
2047965.0,236.0,33.0,5.0,254.0,2047.965
2047975.0,226.0,33.0,2.0,246.0,2047.975
2047985.0,227.0,33.0,3.0,248.0,2047.985
2047995.0,229.0,34.0,3.0,253.0,2047.995
2048005.0,231.0,33.0,4.0,254.0,2048.005
2048015.0,233.0,33.0,4.0,255.0,2048.015
2048025.0,225.0,33.0,5.0,245.0,2048.025
2048035.0,226.0,33.0,4.0,246.0,2048.035
2048045.0,223.0,33.0,4.0,243.0,2048.045
2048055.0,230.0,33.0,4.0,251.0,2048.055
2048065.0,232.0,34.0,4.0,248.0,2048.065
2048075.0,223.0,32.0,4.0,239.0,2048.075
2048086.0,224.0,33.0,4.0,243.0,2048.086
2048096.0,228.0,33.0,4.0,248.0,2048.096
2048106.0,227.0,33.0,4.0,246.0,2048.106
2048116.0,226.0,33.0,3.0,245.0,2048.116
2048126.0,218.0,34.0,3.0,236.0,2048.126
2048136.0,222.0,33.0,4.0,242.0,2048.136
2048146.0,227.0,33.0,4.0,249.0,2048.146
2048156.0,227.0,33.0,4.0,246.0,2048.156
2048166.0,225.0,34.0,4.0,244.0,2048.166
2048176.0,220.0,33.0,3.0,237.0,2048.176
2048186.0,222.0,33.0,4.0,241.0,2048.186
2048196.0,228.0,32.0,4.0,249.0,2048.196
2048206.0,226.0,32.0,3.0,246.0,2048.206
2048216.0,228.0,33.0,4.0,246.0,2048.216
2048226.0,220.0,32.0,4.0,238.0,2048.226
2048236.0,222.0,32.0,4.0,243.0,2048.236
2048246.0,229.0,33.0,4.0,249.0,2048.246
2048256.0,227.0,33.0,3.0,248.0,2048.256
2048266.0,226.0,32.0,4.0,245.0,2048.266
2048276.0,219.0,33.0,4.0,238.0,2048.276
2048286.0,224.0,33.0,4.0,244.0,2048.286
2048296.0,228.0,33.0,4.0,250.0,2048.296
2048306.0,228.0,33.0,5.0,249.0,2048.306
2048316.0,225.0,34.0,3.0,247.0,2048.316
2048326.0,218.0,32.0,3.0,238.0,2048.326
2048336.0,222.0,33.0,3.0,245.0,2048.336
2048346.0,224.0,33.0,4.0,249.0,2048.346
2048356.0,226.0,33.0,2.0,249.0,2048.356
2048366.0,224.0,33.0,3.0,247.0,2048.366
2048376.0,217.0,33.0,3.0,240.0,2048.376
2048386.0,220.0,33.0,3.0,244.0,2048.386
2048396.0,224.0,32.0,4.0,250.0,2048.396
2048406.0,225.0,33.0,4.0,249.0,2048.406
2048416.0,225.0,33.0,4.0,247.0,2048.416
2048427.0,216.0,33.0,3.0,239.0,2048.427
2048437.0,223.0,33.0,3.0,249.0,2048.437
2048447.0,227.0,34.0,3.0,252.0,2048.447
2048457.0,222.0,32.0,4.0,246.0,2048.457
2048467.0,221.0,33.0,4.0,245.0,2048.467
2048477.0,215.0,33.0,4.0,239.0,2048.477
2048487.0,222.0,34.0,4.0,249.0,2048.487
2048497.0,227.0,32.0,4.0,251.0,2048.497
2048507.0,220.0,32.0,3.0,245.0,2048.507
2048517.0,221.0,33.0,3.0,246.0,2048.517
2048527.0,213.0,33.0,4.0,239.0,2048.527
2048537.0,222.0,33.0,4.0,249.0,2048.537
2048547.0,225.0,33.0,2.0,251.0,2048.547
2048557.0,221.0,33.0,5.0,247.0,2048.557
2048567.0,221.0,33.0,4.0,246.0,2048.567
2048577.0,213.0,32.0,4.0,240.0,2048.577
2048587.0,222.0,32.0,4.0,250.0,2048.587
2048598.0,225.0,33.0,4.0,250.0,2048.598
2048608.0,219.0,33.0,4.0,243.0,2048.608
2048618.0,219.0,33.0,3.0,244.0,2048.618
2048628.0,219.0,33.0,4.0,247.0,2048.628
2048638.0,223.0,33.0,3.0,250.0,2048.638
2048648.0,225.0,33.0,4.0,251.0,2048.648
2048658.0,217.0,32.0,4.0,242.0,2048.658
2048668.0,219.0,33.0,5.0,243.0,2048.668
2048678.0,220.0,32.0,4.0,248.0,2048.678
2048688.0,222.0,33.0,4.0,251.0,2048.688
2048698.0,224.0,33.0,4.0,250.0,2048.698
2048708.0,216.0,32.0,4.0,242.0,2048.708
2048718.0,218.0,33.0,4.0,244.0,2048.718
2048728.0,216.0,32.0,4.0,244.0,2048.728
2048738.0,222.0,33.0,3.0,251.0,2048.738
2048748.0,224.0,33.0,4.0,249.0,2048.748
2048758.0,216.0,32.0,4.0,243.0,2048.758
2048768.0,220.0,33.0,3.0,244.0,2048.768
2048778.0,218.0,32.0,3.0,244.0,2048.778
2048788.0,223.0,33.0,4.0,251.0,2048.788
2048798.0,225.0,32.0,5.0,248.0,2048.798
2048808.0,215.0,32.0,4.0,241.0,2048.808
2048818.0,218.0,32.0,4.0,244.0,2048.818
2048828.0,217.0,34.0,3.0,246.0,2048.828
2048838.0,222.0,32.0,4.0,250.0,2048.838
2048848.0,221.0,33.0,4.0,247.0,2048.848
2048858.0,216.0,32.0,3.0,243.0,2048.858
2048868.0,218.0,33.0,2.0,244.0,2048.868
2048878.0,218.0,32.0,4.0,246.0,2048.878
2048888.0,222.0,33.0,3.0,251.0,2048.888
2048898.0,224.0,33.0,3.0,250.0,2048.898
2048908.0,216.0,32.0,3.0,242.0,2048.908
2048918.0,218.0,32.0,5.0,244.0,2048.918
2048928.0,219.0,33.0,4.0,248.0,2048.928
2048939.0,222.0,32.0,3.0,249.0,2048.939
2048949.0,222.0,33.0,3.0,248.0,2048.949
2048959.0,214.0,33.0,4.0,240.0,2048.959
2048969.0,217.0,32.0,4.0,245.0,2048.969
2048979.0,223.0,33.0,4.0,250.0,2048.979
2048989.0,223.0,31.0,4.0,248.0,2048.989
2048999.0,220.0,33.0,3.0,246.0,2048.999
2049009.0,212.0,32.0,3.0,239.0,2049.009
2049019.0,217.0,33.0,3.0,246.0,2049.019
2049029.0,220.0,32.0,4.0,249.0,2049.029
2049039.0,221.0,32.0,3.0,249.0,2049.039
2049049.0,222.0,33.0,4.0,245.0,2049.049
2049059.0,212.0,32.0,4.0,238.0,2049.059
2049069.0,217.0,33.0,4.0,243.0,2049.069
2049079.0,221.0,33.0,4.0,250.0,2049.079
2049089.0,220.0,32.0,4.0,248.0,2049.089
2049099.0,220.0,32.0,4.0,245.0,2049.099
2049110.0,213.0,32.0,4.0,238.0,2049.11
2049120.0,220.0,33.0,4.0,247.0,2049.12
2049130.0,224.0,33.0,3.0,251.0,2049.13
2049140.0,218.0,32.0,4.0,245.0,2049.14
2049150.0,219.0,32.0,4.0,244.0,2049.15
2049160.0,212.0,32.0,4.0,239.0,2049.16
2049170.0,220.0,32.0,4.0,247.0,2049.17
2049180.0,226.0,33.0,4.0,250.0,2049.18
2049190.0,218.0,32.0,4.0,243.0,2049.19
2049200.0,221.0,32.0,5.0,243.0,2049.2
2049210.0,212.0,32.0,3.0,238.0,2049.21
2049220.0,220.0,32.0,3.0,247.0,2049.22
2049230.0,224.0,32.0,4.0,249.0,2049.23
2049240.0,219.0,32.0,4.0,244.0,2049.24
2049250.0,219.0,33.0,3.0,243.0,2049.25
2049260.0,211.0,32.0,4.0,238.0,2049.26
2049270.0,219.0,33.0,4.0,248.0,2049.27
2049280.0,223.0,32.0,4.0,248.0,2049.28
2049290.0,218.0,32.0,4.0,245.0,2049.29
2049300.0,218.0,33.0,4.0,244.0,2049.3
2049310.0,213.0,33.0,4.0,240.0,2049.31
2049320.0,220.0,33.0,3.0,249.0,2049.32
2049330.0,224.0,33.0,4.0,250.0,2049.33
2049340.0,218.0,32.0,3.0,245.0,2049.34
2049350.0,219.0,32.0,4.0,243.0,2049.35
2049360.0,213.0,33.0,3.0,241.0,2049.36
2049370.0,218.0,33.0,4.0,246.0,2049.37
2049380.0,224.0,33.0,4.0,250.0,2049.38
2049390.0,217.0,32.0,4.0,244.0,2049.39
2049400.0,218.0,33.0,3.0,245.0,2049.4
2049410.0,211.0,32.0,3.0,238.0,2049.41
2049420.0,219.0,33.0,4.0,247.0,2049.42
2049430.0,223.0,32.0,5.0,250.0,2049.43
2049440.0,217.0,33.0,4.0,243.0,2049.44
2049451.0,217.0,32.0,3.0,244.0,2049.451
2049461.0,215.0,33.0,4.0,244.0,2049.461
2049471.0,221.0,32.0,3.0,248.0,2049.471
2049481.0,222.0,33.0,4.0,246.0,2049.481
2049491.0,213.0,32.0,4.0,240.0,2049.491
2049501.0,217.0,32.0,4.0,243.0,2049.501
2049511.0,215.0,32.0,4.0,245.0,2049.511
2049521.0,221.0,32.0,4.0,250.0,2049.521
2049531.0,222.0,33.0,3.0,247.0,2049.531
2049541.0,215.0,32.0,4.0,242.0,2049.541
2049551.0,218.0,32.0,3.0,243.0,2049.551
2049561.0,217.0,33.0,3.0,246.0,2049.561
2049571.0,222.0,32.0,4.0,249.0,2049.571
2049581.0,224.0,33.0,5.0,250.0,2049.581
2049591.0,216.0,32.0,3.0,243.0,2049.591
2049601.0,217.0,33.0,3.0,242.0,2049.601
2049611.0,219.0,32.0,4.0,247.0,2049.611
2049622.0,221.0,32.0,4.0,250.0,2049.622
2049632.0,222.0,33.0,4.0,246.0,2049.632
2049642.0,213.0,32.0,4.0,240.0,2049.642
2049652.0,218.0,33.0,3.0,247.0,2049.652
2049662.0,223.0,33.0,3.0,252.0,2049.662
2049672.0,222.0,32.0,4.0,251.0,2049.672
2049682.0,221.0,33.0,4.0,247.0,2049.682
2049692.0,214.0,33.0,4.0,240.0,2049.692
2049702.0,218.0,32.0,3.0,247.0,2049.702
2049712.0,222.0,32.0,4.0,251.0,2049.712
2049722.0,221.0,33.0,3.0,251.0,2049.722
2049732.0,221.0,32.0,4.0,248.0,2049.732
2049742.0,213.0,33.0,4.0,240.0,2049.742
2049752.0,217.0,32.0,4.0,246.0,2049.752
2049762.0,222.0,33.0,4.0,252.0,2049.762
2049772.0,222.0,32.0,4.0,251.0,2049.772
2049782.0,221.0,33.0,3.0,249.0,2049.782
2049792.0,215.0,33.0,4.0,242.0,2049.792
2049802.0,218.0,32.0,4.0,245.0,2049.802
2049812.0,223.0,33.0,4.0,252.0,2049.812
2049822.0,221.0,31.0,4.0,250.0,2049.822
2049832.0,220.0,33.0,4.0,247.0,2049.832
2049842.0,215.0,31.0,4.0,241.0,2049.842
2049852.0,217.0,34.0,3.0,246.0,2049.852
2049862.0,224.0,32.0,4.0,252.0,2049.862
2049872.0,220.0,32.0,4.0,248.0,2049.872
2049882.0,222.0,32.0,4.0,247.0,2049.882
2049892.0,214.0,32.0,4.0,240.0,2049.892
2049902.0,218.0,33.0,3.0,246.0,2049.902
2049912.0,224.0,34.0,3.0,251.0,2049.912
2049922.0,222.0,33.0,3.0,250.0,2049.922
2049932.0,221.0,33.0,3.0,247.0,2049.932
2049942.0,213.0,33.0,4.0,240.0,2049.942
2049952.0,218.0,31.0,4.0,247.0,2049.952
2049963.0,224.0,33.0,4.0,252.0,2049.963
2049973.0,219.0,33.0,3.0,248.0,2049.973
2049983.0,219.0,33.0,3.0,246.0,2049.983
2049993.0,214.0,32.0,4.0,241.0,2049.993
2050003.0,223.0,32.0,4.0,251.0,2050.003
2050013.0,225.0,32.0,4.0,252.0,2050.013
2050023.0,220.0,33.0,3.0,246.0,2050.023
2050033.0,220.0,32.0,4.0,246.0,2050.033
2050043.0,216.0,33.0,3.0,244.0,2050.043
2050053.0,221.0,32.0,4.0,249.0,2050.053
2050063.0,225.0,32.0,4.0,252.0,2050.063
2050073.0,220.0,32.0,4.0,246.0,2050.073
2050083.0,220.0,33.0,2.0,246.0,2050.083
2050093.0,215.0,32.0,5.0,239.0,2050.093
2050103.0,221.0,33.0,3.0,250.0,2050.103
2050113.0,225.0,33.0,4.0,251.0,2050.113
2050123.0,219.0,32.0,4.0,245.0,2050.123
2050134.0,220.0,33.0,5.0,245.0,2050.134
2050144.0,218.0,31.0,4.0,245.0,2050.144
2050154.0,224.0,33.0,4.0,251.0,2050.154
2050164.0,225.0,33.0,3.0,248.0,2050.164
2050174.0,218.0,32.0,3.0,242.0,2050.174
2050184.0,221.0,33.0,3.0,245.0,2050.184
2050194.0,220.0,32.0,4.0,245.0,2050.194
2050204.0,226.0,33.0,4.0,251.0,2050.204
2050214.0,224.0,33.0,4.0,247.0,2050.214
2050224.0,221.0,33.0,5.0,243.0,2050.224
2050234.0,221.0,34.0,3.0,245.0,2050.234
2050244.0,222.0,32.0,4.0,247.0,2050.244
2050254.0,225.0,33.0,3.0,250.0,2050.254
2050264.0,227.0,32.0,4.0,249.0,2050.264
2050274.0,220.0,33.0,4.0,243.0,2050.274
2050284.0,221.0,32.0,4.0,244.0,2050.284
2050294.0,222.0,33.0,3.0,249.0,2050.294
2050304.0,224.0,32.0,4.0,250.0,2050.304
2050314.0,226.0,33.0,4.0,250.0,2050.314
2050324.0,220.0,32.0,4.0,242.0,2050.324
2050334.0,221.0,33.0,4.0,244.0,2050.334
2050344.0,223.0,32.0,4.0,249.0,2050.344
2050354.0,226.0,31.0,4.0,250.0,2050.354
2050364.0,226.0,33.0,3.0,249.0,2050.364
2050374.0,219.0,32.0,4.0,240.0,2050.374
2050384.0,220.0,32.0,4.0,244.0,2050.384
2050394.0,220.0,32.0,3.0,244.0,2050.394
2050404.0,225.0,33.0,4.0,250.0,2050.404
2050414.0,226.0,32.0,4.0,247.0,2050.414
2050424.0,219.0,32.0,4.0,240.0,2050.424
2050434.0,221.0,33.0,4.0,243.0,2050.434
2050444.0,221.0,32.0,4.0,244.0,2050.444
2050454.0,227.0,32.0,5.0,248.0,2050.454
2050464.0,225.0,33.0,3.0,246.0,2050.464
2050475.0,218.0,32.0,4.0,239.0,2050.475
2050485.0,221.0,33.0,3.0,244.0,2050.485
2050495.0,226.0,33.0,3.0,250.0,2050.495
2050505.0,224.0,32.0,3.0,247.0,2050.505
2050515.0,224.0,32.0,5.0,245.0,2050.515
2050525.0,218.0,32.0,4.0,240.0,2050.525
2050535.0,220.0,32.0,4.0,244.0,2050.535
2050545.0,226.0,32.0,4.0,251.0,2050.545
2050555.0,224.0,33.0,3.0,247.0,2050.555
2050565.0,224.0,32.0,4.0,247.0,2050.565
2050575.0,217.0,32.0,3.0,239.0,2050.575
2050585.0,220.0,32.0,4.0,245.0,2050.585
2050595.0,226.0,32.0,4.0,251.0,2050.595
2050605.0,226.0,32.0,5.0,249.0,2050.605
2050615.0,223.0,33.0,3.0,247.0,2050.615
2050625.0,217.0,32.0,4.0,238.0,2050.625
2050635.0,221.0,33.0,4.0,246.0,2050.635
2050646.0,227.0,33.0,5.0,251.0,2050.646
2050656.0,223.0,31.0,4.0,246.0,2050.656
2050666.0,222.0,32.0,4.0,245.0,2050.666
2050676.0,217.0,32.0,3.0,243.0,2050.676
2050686.0,224.0,32.0,3.0,251.0,2050.686
2050696.0,226.0,33.0,4.0,252.0,2050.696
2050706.0,222.0,32.0,5.0,247.0,2050.706
2050716.0,222.0,31.0,4.0,246.0,2050.716
2050726.0,218.0,32.0,4.0,244.0,2050.726
2050736.0,223.0,32.0,4.0,250.0,2050.736
2050746.0,226.0,33.0,3.0,253.0,2050.746
2050756.0,222.0,32.0,3.0,247.0,2050.756
2050766.0,221.0,33.0,3.0,247.0,2050.766
2050776.0,215.0,32.0,4.0,240.0,2050.776
2050786.0,222.0,32.0,2.0,251.0,2050.786
2050796.0,226.0,32.0,4.0,252.0,2050.796
2050806.0,221.0,33.0,3.0,247.0,2050.806
2050816.0,222.0,32.0,4.0,245.0,2050.816
2050826.0,216.0,32.0,3.0,240.0,2050.826
2050836.0,224.0,33.0,4.0,251.0,2050.836
2050846.0,228.0,33.0,3.0,253.0,2050.846
2050856.0,221.0,32.0,4.0,245.0,2050.856
2050866.0,222.0,33.0,4.0,246.0,2050.866
2050876.0,216.0,33.0,3.0,241.0,2050.876
2050886.0,224.0,32.0,3.0,250.0,2050.886
2050896.0,227.0,33.0,3.0,250.0,2050.896
2050906.0,223.0,32.0,4.0,246.0,2050.906
2050916.0,222.0,33.0,3.0,245.0,2050.916
2050926.0,217.0,32.0,4.0,241.0,2050.926
2050936.0,225.0,32.0,4.0,250.0,2050.936
2050946.0,227.0,33.0,4.0,251.0,2050.946
2050956.0,222.0,32.0,4.0,245.0,2050.956
2050966.0,223.0,32.0,5.0,245.0,2050.966
2050976.0,217.0,32.0,4.0,243.0,2050.976
2050987.0,224.0,32.0,4.0,250.0,2050.987
2050997.0,225.0,33.0,3.0,249.0,2050.997
2051007.0,219.0,32.0,3.0,242.0,2051.007
2051017.0,220.0,32.0,4.0,244.0,2051.017
2051027.0,223.0,32.0,5.0,249.0,2051.027
2051037.0,225.0,32.0,4.0,251.0,2051.037
2051047.0,226.0,33.0,4.0,248.0,2051.047
2051057.0,218.0,32.0,4.0,242.0,2051.057
2051067.0,219.0,33.0,3.0,244.0,2051.067
2051077.0,218.0,32.0,4.0,245.0,2051.077
2051087.0,225.0,33.0,3.0,251.0,2051.087
2051097.0,225.0,33.0,5.0,248.0,2051.097
2051107.0,217.0,32.0,4.0,241.0,2051.107
2051117.0,221.0,32.0,5.0,243.0,2051.117
2051127.0,219.0,33.0,3.0,247.0,2051.127
2051137.0,224.0,32.0,4.0,250.0,2051.137
2051147.0,224.0,33.0,3.0,247.0,2051.147
2051158.0,218.0,32.0,5.0,240.0,2051.158
2051168.0,219.0,33.0,4.0,244.0,2051.168
2051178.0,225.0,32.0,4.0,250.0,2051.178
2051188.0,224.0,33.0,3.0,249.0,2051.188
2051198.0,223.0,32.0,3.0,244.0,2051.198
2051208.0,217.0,33.0,4.0,239.0,2051.208
2051218.0,220.0,32.0,4.0,243.0,2051.218
2051228.0,226.0,31.0,4.0,250.0,2051.228
2051238.0,224.0,31.0,3.0,247.0,2051.238
2051248.0,224.0,32.0,4.0,246.0,2051.248
2051258.0,217.0,32.0,3.0,238.0,2051.258
2051268.0,221.0,32.0,4.0,244.0,2051.268
2051278.0,226.0,32.0,4.0,250.0,2051.278
2051288.0,225.0,32.0,3.0,249.0,2051.288
2051298.0,223.0,33.0,2.0,246.0,2051.298
2051308.0,216.0,32.0,4.0,238.0,2051.308
2051318.0,221.0,33.0,3.0,246.0,2051.318
2051328.0,224.0,32.0,4.0,248.0,2051.328
2051338.0,224.0,32.0,3.0,248.0,2051.338
2051348.0,224.0,32.0,4.0,245.0,2051.348
2051358.0,216.0,31.0,4.0,237.0,2051.358
2051368.0,222.0,32.0,4.0,245.0,2051.368
2051378.0,225.0,32.0,4.0,248.0,2051.378
2051388.0,224.0,32.0,3.0,248.0,2051.388
2051398.0,223.0,32.0,4.0,245.0,2051.398
2051408.0,217.0,31.0,4.0,237.0,2051.408
2051418.0,220.0,32.0,4.0,243.0,2051.418
2051428.0,226.0,32.0,4.0,249.0,2051.428
2051438.0,225.0,32.0,4.0,247.0,2051.438
2051448.0,223.0,32.0,4.0,244.0,2051.448
2051458.0,219.0,31.0,4.0,239.0,2051.458
2051468.0,221.0,32.0,3.0,244.0,2051.468
2051478.0,228.0,32.0,4.0,251.0,2051.478
2051488.0,224.0,32.0,4.0,248.0,2051.488
2051499.0,223.0,32.0,4.0,245.0,2051.499
2051509.0,217.0,32.0,3.0,241.0,2051.509
2051519.0,224.0,32.0,4.0,250.0,2051.519
2051529.0,227.0,32.0,3.0,251.0,2051.529
2051539.0,222.0,32.0,4.0,244.0,2051.539
2051549.0,223.0,32.0,3.0,245.0,2051.549
2051559.0,217.0,32.0,4.0,240.0,2051.559
2051569.0,225.0,33.0,4.0,251.0,2051.569
2051579.0,227.0,33.0,3.0,250.0,2051.579
2051589.0,224.0,32.0,4.0,247.0,2051.589
2051599.0,223.0,32.0,4.0,245.0,2051.599
2051609.0,218.0,33.0,4.0,243.0,2051.609
2051619.0,224.0,32.0,4.0,250.0,2051.619
2051629.0,226.0,33.0,5.0,251.0,2051.629
2051639.0,222.0,33.0,3.0,247.0,2051.639
2051649.0,221.0,32.0,3.0,245.0,2051.649
2051659.0,217.0,32.0,4.0,244.0,2051.659
2051670.0,226.0,32.0,4.0,251.0,2051.67
2051680.0,226.0,33.0,4.0,250.0,2051.68
2051690.0,219.0,32.0,4.0,243.0,2051.69
2051700.0,221.0,34.0,3.0,246.0,2051.7
2051710.0,224.0,32.0,4.0,248.0,2051.71
2051720.0,226.0,33.0,3.0,252.0,2051.72
2051730.0,226.0,33.0,5.0,249.0,2051.73
2051740.0,219.0,32.0,4.0,242.0,2051.74
2051750.0,220.0,33.0,3.0,243.0,2051.75
2051760.0,220.0,33.0,4.0,246.0,2051.76
2051770.0,226.0,32.0,3.0,251.0,2051.77
2051780.0,226.0,32.0,4.0,247.0,2051.78
2051790.0,219.0,32.0,4.0,241.0,2051.79
2051800.0,221.0,32.0,5.0,244.0,2051.8
2051810.0,221.0,33.0,4.0,246.0,2051.81
2051820.0,226.0,32.0,4.0,249.0,2051.82
2051830.0,225.0,33.0,4.0,247.0,2051.83
2051840.0,221.0,32.0,4.0,242.0,2051.84
2051850.0,221.0,33.0,4.0,243.0,2051.85
2051860.0,223.0,33.0,4.0,246.0,2051.86
2051870.0,225.0,33.0,4.0,250.0,2051.87
2051880.0,224.0,33.0,4.0,246.0,2051.88
2051890.0,220.0,32.0,4.0,243.0,2051.89
2051900.0,221.0,33.0,3.0,244.0,2051.9
2051910.0,223.0,33.0,4.0,248.0,2051.91
2051920.0,226.0,33.0,4.0,250.0,2051.92
2051930.0,227.0,32.0,4.0,249.0,2051.93
2051940.0,219.0,33.0,4.0,243.0,2051.94
2051950.0,220.0,32.0,4.0,245.0,2051.95
2051960.0,223.0,33.0,3.0,249.0,2051.96
2051970.0,225.0,33.0,4.0,251.0,2051.97
2051980.0,226.0,33.0,4.0,249.0,2051.98
2051990.0,219.0,32.0,4.0,241.0,2051.99
2052000.0,220.0,33.0,2.0,244.0,2052.0
2052011.0,224.0,33.0,4.0,249.0,2052.011
2052021.0,224.0,33.0,3.0,250.0,2052.021
2052031.0,223.0,32.0,4.0,246.0,2052.031
2052041.0,215.0,33.0,4.0,238.0,2052.041
2052051.0,221.0,33.0,5.0,248.0,2052.051
2052061.0,225.0,32.0,4.0,251.0,2052.061
2052071.0,224.0,32.0,4.0,249.0,2052.071
2052081.0,223.0,33.0,4.0,248.0,2052.081
2052091.0,215.0,32.0,3.0,239.0,2052.091
2052101.0,220.0,33.0,3.0,245.0,2052.101
2052111.0,224.0,33.0,4.0,251.0,2052.111
2052121.0,224.0,32.0,4.0,248.0,2052.121
2052131.0,223.0,33.0,4.0,245.0,2052.131
2052141.0,217.0,33.0,4.0,239.0,2052.141
2052151.0,219.0,33.0,3.0,244.0,2052.151
2052161.0,225.0,32.0,4.0,249.0,2052.161
2052171.0,223.0,32.0,4.0,246.0,2052.171
2052182.0,223.0,33.0,4.0,243.0,2052.182
2052192.0,214.0,33.0,4.0,238.0,2052.192
2052202.0,223.0,32.0,4.0,248.0,2052.202
2052212.0,227.0,33.0,3.0,251.0,2052.212
2052222.0,220.0,32.0,4.0,243.0,2052.222
2052232.0,222.0,34.0,3.0,246.0,2052.232
2052242.0,216.0,33.0,4.0,240.0,2052.242
2052252.0,224.0,32.0,4.0,250.0,2052.252
2052262.0,226.0,33.0,4.0,249.0,2052.262
2052272.0,222.0,33.0,3.0,246.0,2052.272
2052282.0,221.0,33.0,3.0,244.0,2052.282
2052292.0,216.0,33.0,4.0,242.0,2052.292
2052302.0,224.0,33.0,4.0,251.0,2052.302
2052312.0,227.0,33.0,4.0,251.0,2052.312
2052322.0,221.0,32.0,3.0,246.0,2052.322
2052332.0,221.0,32.0,4.0,245.0,2052.332
2052342.0,217.0,33.0,3.0,242.0,2052.342
2052352.0,221.0,32.0,4.0,246.0,2052.352
2052362.0,225.0,32.0,4.0,250.0,2052.362
2052372.0,221.0,32.0,5.0,244.0,2052.372
2052382.0,221.0,32.0,4.0,244.0,2052.382
2052392.0,217.0,32.0,4.0,244.0,2052.392
2052402.0,222.0,32.0,3.0,249.0,2052.402
2052412.0,226.0,33.0,3.0,250.0,2052.412
2052422.0,220.0,32.0,4.0,245.0,2052.422
2052432.0,221.0,32.0,5.0,244.0,2052.432
2052442.0,215.0,32.0,4.0,240.0,2052.442
2052452.0,222.0,33.0,4.0,249.0,2052.452
2052462.0,226.0,33.0,4.0,252.0,2052.462
2052472.0,219.0,32.0,3.0,244.0,2052.472
2052482.0,221.0,32.0,4.0,247.0,2052.482
2052492.0,214.0,32.0,4.0,242.0,2052.492
2052502.0,224.0,32.0,5.0,251.0,2052.502
2052512.0,226.0,33.0,4.0,251.0,2052.512
2052523.0,219.0,32.0,4.0,244.0,2052.523
2052533.0,220.0,33.0,3.0,245.0,2052.533
2052543.0,221.0,32.0,4.0,246.0,2052.543
2052553.0,223.0,32.0,4.0,250.0,2052.553
2052563.0,224.0,32.0,5.0,247.0,2052.563
2052573.0,217.0,32.0,3.0,243.0,2052.573
2052583.0,218.0,32.0,4.0,244.0,2052.583
2052593.0,220.0,33.0,4.0,249.0,2052.593
2052603.0,223.0,32.0,3.0,250.0,2052.603
2052613.0,225.0,34.0,3.0,250.0,2052.613
2052623.0,217.0,32.0,4.0,243.0,2052.623
2052633.0,218.0,31.0,4.0,243.0,2052.633
2052643.0,221.0,33.0,4.0,248.0,2052.643
2052653.0,224.0,31.0,4.0,250.0,2052.653
2052663.0,225.0,32.0,4.0,248.0,2052.663
2052673.0,217.0,32.0,4.0,240.0,2052.673
2052683.0,218.0,32.0,4.0,243.0,2052.683
2052694.0,223.0,33.0,4.0,249.0,2052.694
2052704.0,222.0,32.0,4.0,247.0,2052.704
2052714.0,222.0,32.0,4.0,245.0,2052.714
2052724.0,214.0,33.0,3.0,239.0,2052.724
2052734.0,221.0,32.0,4.0,246.0,2052.734
2052744.0,225.0,33.0,3.0,250.0,2052.744
2052754.0,225.0,32.0,5.0,247.0,2052.754
2052764.0,223.0,32.0,3.0,245.0,2052.764
2052774.0,215.0,32.0,4.0,236.0,2052.774
2052784.0,220.0,31.0,3.0,243.0,2052.784
2052794.0,225.0,32.0,4.0,250.0,2052.794
2052804.0,223.0,32.0,4.0,246.0,2052.804
2052814.0,223.0,32.0,4.0,245.0,2052.814
2052824.0,217.0,32.0,5.0,238.0,2052.824
2052834.0,219.0,32.0,3.0,244.0,2052.834
2052844.0,225.0,32.0,4.0,250.0,2052.844
2052854.0,222.0,33.0,3.0,246.0,2052.854
2052864.0,223.0,32.0,4.0,245.0,2052.864
2052874.0,214.0,33.0,4.0,237.0,2052.874
2052884.0,219.0,32.0,5.0,243.0,2052.884
2052894.0,225.0,33.0,4.0,248.0,2052.894
2052904.0,221.0,32.0,4.0,244.0,2052.904
2052914.0,223.0,33.0,4.0,244.0,2052.914
2052924.0,215.0,32.0,3.0,236.0,2052.924
2052934.0,220.0,32.0,4.0,244.0,2052.934
2052944.0,226.0,33.0,5.0,249.0,2052.944
2052954.0,223.0,32.0,4.0,247.0,2052.954
2052964.0,223.0,33.0,3.0,245.0,2052.964
2052974.0,215.0,33.0,4.0,238.0,2052.974
2052984.0,221.0,33.0,3.0,246.0,2052.984
2052994.0,224.0,33.0,4.0,249.0,2052.994
2053004.0,223.0,33.0,4.0,247.0,2053.004
2053014.0,222.0,33.0,4.0,245.0,2053.014
2053024.0,214.0,32.0,4.0,237.0,2053.024
2053035.0,220.0,32.0,4.0,248.0,2053.035
2053045.0,225.0,33.0,3.0,252.0,2053.045
2053055.0,219.0,32.0,4.0,244.0,2053.055
2053065.0,219.0,33.0,3.0,244.0,2053.065
2053075.0,217.0,33.0,5.0,244.0,2053.075
2053085.0,220.0,33.0,3.0,248.0,2053.085
2053095.0,225.0,33.0,4.0,250.0,2053.095
2053105.0,219.0,34.0,3.0,244.0,2053.105
2053115.0,219.0,32.0,4.0,244.0,2053.115
2053125.0,214.0,33.0,3.0,239.0,2053.125
2053135.0,222.0,33.0,4.0,248.0,2053.135
2053145.0,225.0,33.0,4.0,250.0,2053.145
2053155.0,217.0,33.0,4.0,241.0,2053.155
2053165.0,220.0,33.0,4.0,245.0,2053.165
2053175.0,213.0,33.0,4.0,239.0,2053.175
2053185.0,222.0,33.0,4.0,247.0,2053.185
2053195.0,224.0,33.0,4.0,249.0,2053.195
2053206.0,219.0,33.0,4.0,241.0,2053.206
2053216.0,220.0,33.0,4.0,241.0,2053.216
2053226.0,220.0,33.0,4.0,245.0,2053.226
2053236.0,224.0,34.0,3.0,248.0,2053.236
2053246.0,224.0,33.0,4.0,245.0,2053.246
2053256.0,218.0,33.0,3.0,240.0,2053.256
2053266.0,220.0,33.0,4.0,242.0,2053.266
2053276.0,221.0,33.0,4.0,246.0,2053.276
2053286.0,224.0,32.0,4.0,248.0,2053.286
2053296.0,225.0,33.0,3.0,249.0,2053.296
2053306.0,218.0,32.0,3.0,239.0,2053.306
2053316.0,219.0,34.0,4.0,241.0,2053.316
2053326.0,223.0,33.0,5.0,246.0,2053.326
2053336.0,225.0,33.0,4.0,247.0,2053.336
2053346.0,224.0,34.0,3.0,245.0,2053.346
2053356.0,217.0,33.0,4.0,239.0,2053.356
2053366.0,219.0,32.0,3.0,240.0,2053.366
2053376.0,218.0,33.0,3.0,243.0,2053.376
2053386.0,223.0,33.0,4.0,248.0,2053.386
2053396.0,225.0,33.0,4.0,246.0,2053.396
2053406.0,216.0,32.0,2.0,238.0,2053.406
2053416.0,218.0,33.0,4.0,241.0,2053.416
2053426.0,219.0,33.0,4.0,243.0,2053.426
2053436.0,224.0,32.0,3.0,247.0,2053.436
2053446.0,224.0,32.0,4.0,246.0,2053.446
2053456.0,217.0,32.0,4.0,237.0,2053.456
2053466.0,220.0,32.0,3.0,242.0,2053.466
2053476.0,220.0,33.0,4.0,245.0,2053.476
2053486.0,225.0,33.0,4.0,247.0,2053.486
2053496.0,224.0,32.0,4.0,244.0,2053.496
2053506.0,219.0,33.0,3.0,239.0,2053.506
2053516.0,219.0,33.0,4.0,241.0,2053.516
2053526.0,222.0,31.0,4.0,246.0,2053.526
2053536.0,224.0,32.0,4.0,246.0,2053.536
2053547.0,224.0,33.0,3.0,245.0,2053.547
2053557.0,215.0,32.0,3.0,236.0,2053.557
2053567.0,220.0,32.0,4.0,242.0,2053.567
2053577.0,225.0,32.0,3.0,248.0,2053.577
2053587.0,223.0,31.0,5.0,243.0,2053.587
2053597.0,223.0,32.0,4.0,244.0,2053.597
2053607.0,215.0,32.0,4.0,236.0,2053.607
2053617.0,220.0,33.0,3.0,244.0,2053.617
2053627.0,226.0,32.0,4.0,248.0,2053.627
2053637.0,223.0,33.0,3.0,246.0,2053.637
2053647.0,222.0,32.0,5.0,243.0,2053.647
2053657.0,214.0,32.0,4.0,236.0,2053.657
2053667.0,220.0,32.0,4.0,244.0,2053.667
2053677.0,224.0,33.0,4.0,249.0,2053.677
2053687.0,223.0,32.0,4.0,245.0,2053.687
2053697.0,222.0,32.0,4.0,243.0,2053.697
2053707.0,217.0,32.0,4.0,237.0,2053.707
2053718.0,226.0,31.0,3.0,247.0,2053.718
2053728.0,229.0,32.0,3.0,250.0,2053.728
2053738.0,224.0,32.0,3.0,242.0,2053.738
2053748.0,224.0,33.0,3.0,243.0,2053.748
2053758.0,220.0,32.0,4.0,241.0,2053.758
2053768.0,223.0,33.0,3.0,246.0,2053.768
2053778.0,227.0,32.0,4.0,248.0,2053.778
2053788.0,219.0,32.0,2.0,242.0,2053.788
2053798.0,219.0,32.0,4.0,241.0,2053.798
2053808.0,212.0,32.0,4.0,236.0,2053.808
2053818.0,220.0,32.0,4.0,246.0,2053.818
2053828.0,224.0,32.0,4.0,248.0,2053.828
2053838.0,218.0,32.0,5.0,240.0,2053.838
2053848.0,220.0,33.0,4.0,243.0,2053.848
2053858.0,213.0,32.0,4.0,237.0,2053.858
2053868.0,222.0,32.0,3.0,247.0,2053.868
2053878.0,225.0,33.0,3.0,249.0,2053.878
2053888.0,219.0,32.0,4.0,244.0,2053.888
2053898.0,220.0,32.0,4.0,244.0,2053.898
2053908.0,215.0,31.0,4.0,239.0,2053.908
2053918.0,223.0,33.0,4.0,247.0,2053.918
2053928.0,226.0,33.0,4.0,249.0,2053.928
2053938.0,220.0,32.0,4.0,243.0,2053.938
2053948.0,219.0,32.0,4.0,242.0,2053.948
2053958.0,212.0,32.0,4.0,239.0,2053.958
2053968.0,221.0,32.0,4.0,247.0,2053.968
2053978.0,223.0,33.0,3.0,248.0,2053.978
2053988.0,217.0,32.0,3.0,241.0,2053.988
2053998.0,219.0,33.0,3.0,243.0,2053.998
2054008.0,216.0,32.0,4.0,240.0,2054.008
2054018.0,220.0,32.0,4.0,247.0,2054.018
2054028.0,225.0,32.0,5.0,249.0,2054.028
2054038.0,218.0,32.0,4.0,241.0,2054.038
2054048.0,219.0,32.0,4.0,241.0,2054.048
2054059.0,217.0,33.0,3.0,243.0,2054.059
2054069.0,223.0,32.0,3.0,248.0,2054.069
2054079.0,225.0,34.0,4.0,246.0,2054.079
2054089.0,215.0,32.0,4.0,237.0,2054.089
2054099.0,219.0,33.0,4.0,240.0,2054.099
2054109.0,219.0,33.0,4.0,242.0,2054.109
2054119.0,223.0,33.0,3.0,247.0,2054.119
2054129.0,223.0,34.0,3.0,246.0,2054.129
2054139.0,214.0,32.0,4.0,237.0,2054.139
2054149.0,218.0,33.0,3.0,242.0,2054.149
2054159.0,220.0,32.0,5.0,244.0,2054.159
2054169.0,223.0,32.0,4.0,247.0,2054.169
2054179.0,222.0,33.0,4.0,244.0,2054.179
2054189.0,216.0,31.0,4.0,240.0,2054.189
2054199.0,218.0,32.0,4.0,241.0,2054.199
2054209.0,220.0,33.0,3.0,246.0,2054.209
2054219.0,222.0,32.0,4.0,248.0,2054.219
