time (ms),signal 0,signal 1,signal 2,signal 3,time (sec)
2010311.0,215.0,31.0,366.0,251.0,2010.311
2010321.0,211.0,32.0,349.0,249.0,2010.321
2010331.0,215.0,31.0,360.0,253.0,2010.331
2010341.0,221.0,33.0,373.0,257.0,2010.341
2010351.0,218.0,32.0,349.0,256.0,2010.351
2010361.0,217.0,32.0,374.0,250.0,2010.361
2010371.0,210.0,32.0,350.0,248.0,2010.371
2010381.0,215.0,32.0,366.0,254.0,2010.381
2010391.0,221.0,32.0,381.0,258.0,2010.391
2010401.0,215.0,32.0,356.0,257.0,2010.401
2010411.0,217.0,32.0,384.0,253.0,2010.411
2010421.0,209.0,33.0,358.0,250.0,2010.421
2010431.0,216.0,32.0,372.0,254.0,2010.431
2010441.0,221.0,32.0,390.0,258.0,2010.441
2010451.0,217.0,32.0,365.0,256.0,2010.451
2010461.0,218.0,31.0,393.0,253.0,2010.461
2010471.0,211.0,32.0,368.0,249.0,2010.471
2010481.0,218.0,33.0,382.0,259.0,2010.481
2010491.0,222.0,32.0,403.0,258.0,2010.491
2010501.0,219.0,32.0,377.0,258.0,2010.501
2010511.0,219.0,32.0,404.0,253.0,2010.511
2010521.0,212.0,31.0,381.0,249.0,2010.521
2010531.0,218.0,32.0,391.0,257.0,2010.531
2010541.0,222.0,33.0,408.0,259.0,2010.541
2010551.0,219.0,33.0,385.0,258.0,2010.551
2010561.0,218.0,32.0,412.0,252.0,2010.561
2010571.0,211.0,32.0,392.0,249.0,2010.571
2010582.0,220.0,32.0,398.0,257.0,2010.582
2010592.0,222.0,33.0,419.0,257.0,2010.592
2010602.0,217.0,32.0,390.0,253.0,2010.602
2010612.0,217.0,33.0,414.0,252.0,2010.612
2010622.0,217.0,32.0,407.0,254.0,2010.622
2010632.0,220.0,32.0,400.0,258.0,2010.632
2010642.0,224.0,33.0,426.0,256.0,2010.642
2010652.0,217.0,31.0,394.0,253.0,2010.652
2010662.0,218.0,33.0,419.0,252.0,2010.662
2010672.0,214.0,32.0,405.0,251.0,2010.672
2010682.0,222.0,33.0,407.0,259.0,2010.682
2010692.0,224.0,33.0,433.0,257.0,2010.692
2010702.0,217.0,32.0,402.0,254.0,2010.702
2010712.0,220.0,33.0,428.0,253.0,2010.712
2010722.0,215.0,33.0,412.0,253.0,2010.722
2010732.0,222.0,33.0,410.0,260.0,2010.732
2010742.0,225.0,34.0,437.0,257.0,2010.742
2010752.0,220.0,32.0,407.0,254.0,2010.752
2010762.0,220.0,33.0,431.0,253.0,2010.762
2010772.0,218.0,33.0,419.0,253.0,2010.772
2010782.0,223.0,33.0,413.0,260.0,2010.782
2010792.0,224.0,33.0,439.0,255.0,2010.792
2010802.0,220.0,33.0,407.0,255.0,2010.802
2010812.0,220.0,33.0,430.0,252.0,2010.812
2010822.0,220.0,32.0,420.0,253.0,2010.822
2010832.0,226.0,32.0,413.0,258.0,2010.832
2010842.0,227.0,33.0,438.0,257.0,2010.842
2010852.0,221.0,33.0,407.0,252.0,2010.852
2010862.0,222.0,32.0,428.0,251.0,2010.862
2010872.0,221.0,33.0,418.0,253.0,2010.872
2010882.0,224.0,32.0,411.0,256.0,2010.882
2010892.0,227.0,33.0,432.0,257.0,2010.892
2010902.0,222.0,32.0,400.0,253.0,2010.902
2010912.0,221.0,32.0,422.0,251.0,2010.912
2010923.0,222.0,32.0,414.0,254.0,2010.923
2010933.0,226.0,33.0,401.0,258.0,2010.933
2010943.0,224.0,32.0,426.0,253.0,2010.943
2010953.0,218.0,32.0,394.0,248.0,2010.953
2010963.0,221.0,33.0,409.0,252.0,2010.963
2010973.0,224.0,33.0,410.0,255.0,2010.973
2010983.0,226.0,32.0,393.0,257.0,2010.983
2010993.0,225.0,33.0,417.0,252.0,2010.993
2011003.0,219.0,32.0,386.0,246.0,2011.003
2011013.0,223.0,32.0,404.0,249.0,2011.013
2011023.0,225.0,32.0,402.0,254.0,2011.023
2011033.0,227.0,32.0,381.0,255.0,2011.033
2011043.0,224.0,33.0,405.0,251.0,2011.043
2011053.0,221.0,32.0,374.0,249.0,2011.053
2011063.0,222.0,34.0,391.0,250.0,2011.063
2011073.0,226.0,32.0,391.0,255.0,2011.073
2011083.0,227.0,32.0,370.0,255.0,2011.083
2011094.0,225.0,33.0,394.0,250.0,2011.094
2011104.0,218.0,31.0,363.0,246.0,2011.104
2011114.0,224.0,32.0,375.0,253.0,2011.114
2011124.0,229.0,33.0,388.0,258.0,2011.124
2011134.0,224.0,32.0,359.0,253.0,2011.134
2011144.0,224.0,32.0,383.0,252.0,2011.144
2011154.0,217.0,33.0,354.0,246.0,2011.154
2011164.0,224.0,32.0,364.0,253.0,2011.164
2011174.0,229.0,32.0,379.0,256.0,2011.174
2011184.0,227.0,32.0,348.0,254.0,2011.184
2011194.0,224.0,33.0,369.0,251.0,2011.194
2011204.0,219.0,32.0,344.0,244.0,2011.204
2011214.0,225.0,32.0,351.0,254.0,2011.214
2011224.0,229.0,33.0,363.0,255.0,2011.224
2011234.0,227.0,32.0,337.0,254.0,2011.234
2011244.0,225.0,32.0,358.0,251.0,2011.244
2011254.0,219.0,33.0,334.0,246.0,2011.254
2011264.0,223.0,32.0,342.0,250.0,2011.264
2011274.0,228.0,33.0,352.0,256.0,2011.274
2011284.0,226.0,32.0,327.0,252.0,2011.284
2011294.0,224.0,32.0,344.0,249.0,2011.294
2011304.0,218.0,32.0,322.0,245.0,2011.304
2011314.0,223.0,32.0,329.0,251.0,2011.314
2011324.0,229.0,32.0,340.0,256.0,2011.324
2011334.0,226.0,32.0,313.0,251.0,2011.334
2011344.0,225.0,32.0,329.0,249.0,2011.344
2011354.0,221.0,31.0,305.0,243.0,2011.354
2011364.0,224.0,33.0,313.0,250.0,2011.364
2011374.0,230.0,32.0,325.0,253.0,2011.374
2011384.0,226.0,33.0,297.0,249.0,2011.384
2011394.0,226.0,32.0,317.0,247.0,2011.394
2011404.0,220.0,32.0,289.0,242.0,2011.404
2011414.0,226.0,32.0,298.0,250.0,2011.414
2011424.0,230.0,33.0,309.0,253.0,2011.424
2011435.0,225.0,32.0,282.0,248.0,2011.435
2011445.0,224.0,33.0,296.0,248.0,2011.445
2011455.0,222.0,32.0,283.0,245.0,2011.455
2011465.0,228.0,32.0,281.0,253.0,2011.465
2011475.0,229.0,32.0,296.0,251.0,2011.475
2011485.0,226.0,31.0,267.0,247.0,2011.485
2011495.0,225.0,32.0,280.0,246.0,2011.495
2011505.0,223.0,32.0,270.0,248.0,2011.505
2011515.0,229.0,32.0,265.0,252.0,2011.515
2011525.0,230.0,32.0,280.0,254.0,2011.525
2011535.0,225.0,32.0,253.0,247.0,2011.535
2011545.0,226.0,32.0,263.0,245.0,2011.545
2011555.0,224.0,32.0,256.0,247.0,2011.555
2011565.0,228.0,32.0,255.0,251.0,2011.565
2011575.0,230.0,33.0,266.0,251.0,2011.575
2011585.0,225.0,32.0,241.0,246.0,2011.585
2011595.0,224.0,32.0,250.0,245.0,2011.595
2011606.0,225.0,32.0,248.0,248.0,2011.606
2011616.0,228.0,31.0,242.0,252.0,2011.616
2011626.0,227.0,32.0,254.0,248.0,2011.626
2011636.0,220.0,33.0,229.0,243.0,2011.636
2011646.0,223.0,32.0,237.0,246.0,2011.646
2011656.0,225.0,32.0,239.0,248.0,2011.656
2011666.0,227.0,32.0,232.0,249.0,2011.666
2011676.0,226.0,31.0,241.0,246.0,2011.676
2011686.0,220.0,32.0,218.0,239.0,2011.686
2011696.0,223.0,32.0,228.0,244.0,2011.696
2011706.0,225.0,32.0,231.0,249.0,2011.706
2011716.0,228.0,32.0,224.0,251.0,2011.716
2011726.0,225.0,32.0,232.0,248.0,2011.726
2011736.0,224.0,31.0,216.0,245.0,2011.736
2011746.0,222.0,32.0,223.0,246.0,2011.746
2011756.0,227.0,32.0,227.0,249.0,2011.756
2011766.0,227.0,33.0,218.0,250.0,2011.766
2011776.0,228.0,32.0,230.0,248.0,2011.776
2011786.0,227.0,32.0,208.0,242.0,2011.786
2011796.0,228.0,32.0,214.0,244.0,2011.796
2011806.0,231.0,31.0,222.0,252.0,2011.806
2011816.0,236.0,32.0,214.0,253.0,2011.816
2011826.0,236.0,32.0,223.0,252.0,2011.826
2011836.0,231.0,32.0,205.0,245.0,2011.836
2011846.0,233.0,32.0,209.0,245.0,2011.846
2011856.0,238.0,32.0,218.0,254.0,2011.856
2011866.0,241.0,31.0,211.0,254.0,2011.866
2011876.0,236.0,32.0,217.0,250.0,2011.876
2011886.0,229.0,32.0,199.0,244.0,2011.886
2011896.0,227.0,32.0,207.0,243.0,2011.896
2011906.0,230.0,32.0,210.0,245.0,2011.906
2011916.0,237.0,32.0,207.0,248.0,2011.916
2011926.0,238.0,31.0,214.0,246.0,2011.926
2011936.0,230.0,31.0,196.0,239.0,2011.936
2011947.0,236.0,32.0,201.0,242.0,2011.947
2011957.0,248.0,33.0,211.0,250.0,2011.957
2011967.0,243.0,31.0,202.0,245.0,2011.967
2011977.0,238.0,32.0,206.0,243.0,2011.977
2011987.0,236.0,31.0,197.0,240.0,2011.987
2011997.0,238.0,31.0,202.0,248.0,2011.997
2012007.0,244.0,32.0,212.0,254.0,2012.007
2012017.0,236.0,31.0,202.0,251.0,2012.017
2012027.0,230.0,32.0,203.0,248.0,2012.027
2012037.0,232.0,31.0,197.0,247.0,2012.037
2012047.0,233.0,31.0,204.0,255.0,2012.047
2012057.0,253.0,31.0,221.0,268.0,2012.057
2012067.0,263.0,32.0,216.0,268.0,2012.067
2012077.0,272.0,32.0,225.0,272.0,2012.077
2012087.0,263.0,32.0,214.0,266.0,2012.087
2012097.0,251.0,30.0,222.0,270.0,2012.097
2012107.0,244.0,32.0,223.0,269.0,2012.107
2012118.0,252.0,31.0,222.0,270.0,2012.118
2012128.0,250.0,32.0,220.0,271.0,2012.128
2012138.0,245.0,31.0,212.0,261.0,2012.138
2012148.0,251.0,33.0,217.0,263.0,2012.148
2012158.0,254.0,32.0,217.0,263.0,2012.158
2012168.0,247.0,31.0,209.0,256.0,2012.168
2012178.0,241.0,32.0,208.0,255.0,2012.178
2012188.0,241.0,31.0,205.0,252.0,2012.188
2012198.0,258.0,31.0,218.0,261.0,2012.198
2012208.0,255.0,32.0,220.0,260.0,2012.208
2012218.0,248.0,32.0,211.0,251.0,2012.218
2012228.0,246.0,32.0,211.0,252.0,2012.228
2012238.0,257.0,32.0,221.0,259.0,2012.238
2012248.0,261.0,31.0,227.0,262.0,2012.248
2012258.0,268.0,32.0,228.0,266.0,2012.258
2012268.0,256.0,32.0,220.0,257.0,2012.268
2012278.0,250.0,33.0,221.0,260.0,2012.278
2012288.0,246.0,31.0,218.0,254.0,2012.288
2012298.0,255.0,31.0,230.0,266.0,2012.298
2012308.0,255.0,32.0,232.0,265.0,2012.308
2012318.0,248.0,31.0,222.0,255.0,2012.318
2012328.0,252.0,32.0,222.0,255.0,2012.328
2012338.0,245.0,32.0,218.0,251.0,2012.338
2012348.0,253.0,32.0,227.0,258.0,2012.348
2012358.0,249.0,32.0,222.0,254.0,2012.358
2012368.0,237.0,32.0,214.0,243.0,2012.368
2012378.0,243.0,31.0,216.0,249.0,2012.378
2012388.0,238.0,32.0,214.0,249.0,2012.388
2012398.0,248.0,32.0,227.0,263.0,2012.398
2012408.0,249.0,33.0,228.0,265.0,2012.408
2012418.0,248.0,32.0,226.0,258.0,2012.418
2012428.0,242.0,32.0,221.0,255.0,2012.428
2012438.0,241.0,31.0,222.0,251.0,2012.438
2012448.0,253.0,32.0,230.0,260.0,2012.448
2012459.0,250.0,32.0,226.0,256.0,2012.459
2012469.0,243.0,32.0,219.0,244.0,2012.469
2012479.0,247.0,32.0,220.0,247.0,2012.479
2012489.0,257.0,33.0,225.0,253.0,2012.489
2012499.0,252.0,32.0,232.0,254.0,2012.499
2012509.0,255.0,33.0,229.0,258.0,2012.509
2012519.0,247.0,32.0,230.0,250.0,2012.519
2012529.0,248.0,32.0,230.0,253.0,2012.529
2012539.0,252.0,32.0,238.0,263.0,2012.539
2012549.0,246.0,32.0,240.0,262.0,2012.549
2012559.0,242.0,32.0,230.0,255.0,2012.559
2012569.0,233.0,32.0,225.0,242.0,2012.569
2012579.0,244.0,32.0,228.0,251.0,2012.579
2012589.0,248.0,32.0,234.0,255.0,2012.589
2012599.0,255.0,33.0,239.0,257.0,2012.599
2012609.0,260.0,32.0,231.0,258.0,2012.609
2012619.0,255.0,32.0,229.0,247.0,2012.619
2012630.0,259.0,32.0,231.0,250.0,2012.63
2012640.0,266.0,32.0,240.0,257.0,2012.64
2012650.0,262.0,32.0,241.0,252.0,2012.65
2012660.0,261.0,33.0,236.0,253.0,2012.66
2012670.0,252.0,32.0,239.0,245.0,2012.67
2012680.0,244.0,32.0,237.0,246.0,2012.68
2012690.0,247.0,33.0,244.0,253.0,2012.69
2012700.0,243.0,31.0,250.0,251.0,2012.7
2012710.0,242.0,33.0,242.0,251.0,2012.71
2012720.0,236.0,32.0,248.0,246.0,2012.72
2012730.0,247.0,33.0,251.0,252.0,2012.73
2012740.0,259.0,32.0,259.0,260.0,2012.74
2012750.0,245.0,32.0,258.0,249.0,2012.75
2012760.0,249.0,33.0,250.0,250.0,2012.76
2012770.0,244.0,32.0,254.0,244.0,2012.77
2012780.0,250.0,32.0,261.0,257.0,2012.78
2012790.0,252.0,33.0,267.0,264.0,2012.79
2012800.0,255.0,32.0,273.0,262.0,2012.8
2012810.0,255.0,33.0,260.0,261.0,2012.81
2012820.0,261.0,32.0,267.0,250.0,2012.82
2012830.0,267.0,32.0,272.0,260.0,2012.83
2012840.0,266.0,33.0,269.0,260.0,2012.84
2012850.0,262.0,32.0,276.0,256.0,2012.85
2012860.0,261.0,33.0,264.0,257.0,2012.86
2012870.0,252.0,32.0,270.0,249.0,2012.87
2012880.0,253.0,32.0,271.0,255.0,2012.88
2012890.0,254.0,32.0,269.0,259.0,2012.89
2012900.0,248.0,33.0,270.0,253.0,2012.9
2012910.0,243.0,32.0,259.0,250.0,2012.91
2012920.0,234.0,33.0,265.0,245.0,2012.92
2012930.0,234.0,32.0,266.0,250.0,2012.93
2012940.0,238.0,33.0,269.0,254.0,2012.94
2012950.0,232.0,32.0,274.0,247.0,2012.95
2012960.0,233.0,33.0,260.0,243.0,2012.96
2012971.0,225.0,32.0,265.0,239.0,2012.971
2012981.0,237.0,33.0,275.0,253.0,2012.981
2012991.0,238.0,32.0,271.0,258.0,2012.991
2013001.0,230.0,32.0,273.0,247.0,2013.001
2013011.0,234.0,33.0,265.0,250.0,2013.011
2013021.0,233.0,31.0,270.0,246.0,2013.021
2013031.0,245.0,32.0,279.0,259.0,2013.031
2013041.0,250.0,33.0,272.0,260.0,2013.041
2013051.0,241.0,33.0,281.0,248.0,2013.051
2013061.0,246.0,32.0,271.0,251.0,2013.061
2013071.0,249.0,33.0,278.0,248.0,2013.071
2013081.0,263.0,33.0,289.0,257.0,2013.081
2013091.0,260.0,33.0,278.0,259.0,2013.091
2013101.0,253.0,33.0,295.0,259.0,2013.101
2013111.0,250.0,34.0,283.0,265.0,2013.111
2013121.0,244.0,32.0,288.0,257.0,2013.121
2013131.0,248.0,33.0,292.0,262.0,2013.131
2013142.0,253.0,33.0,281.0,260.0,2013.142
2013152.0,246.0,33.0,288.0,253.0,2013.152
2013162.0,248.0,33.0,282.0,260.0,2013.162
2013172.0,256.0,34.0,289.0,267.0,2013.172
2013182.0,259.0,32.0,297.0,266.0,2013.182
2013192.0,260.0,34.0,283.0,265.0,2013.192
2013202.0,253.0,32.0,291.0,253.0,2013.202
2013212.0,255.0,33.0,283.0,257.0,2013.212
2013222.0,263.0,33.0,289.0,261.0,2013.222
2013232.0,263.0,33.0,290.0,256.0,2013.232
2013242.0,258.0,34.0,277.0,257.0,2013.242
2013252.0,250.0,32.0,286.0,245.0,2013.252
2013262.0,253.0,33.0,279.0,250.0,2013.262
2013272.0,253.0,33.0,286.0,252.0,2013.272
2013282.0,254.0,33.0,290.0,254.0,2013.282
2013292.0,251.0,33.0,276.0,253.0,2013.292
2013302.0,243.0,34.0,285.0,245.0,2013.302
2013312.0,246.0,33.0,277.0,250.0,2013.312
2013322.0,248.0,33.0,286.0,256.0,2013.322
2013332.0,252.0,33.0,293.0,258.0,2013.332
2013342.0,254.0,33.0,278.0,258.0,2013.342
2013352.0,248.0,33.0,287.0,252.0,2013.352
2013362.0,251.0,33.0,280.0,258.0,2013.362
2013372.0,255.0,33.0,285.0,258.0,2013.372
2013382.0,255.0,33.0,286.0,254.0,2013.382
2013392.0,253.0,33.0,272.0,254.0,2013.392
2013402.0,249.0,33.0,279.0,247.0,2013.402
2013412.0,248.0,33.0,271.0,251.0,2013.412
2013422.0,255.0,33.0,279.0,256.0,2013.422
2013432.0,254.0,34.0,283.0,255.0,2013.432
2013442.0,255.0,32.0,272.0,254.0,2013.442
2013452.0,245.0,33.0,278.0,245.0,2013.452
2013462.0,247.0,33.0,271.0,250.0,2013.462
2013472.0,250.0,33.0,278.0,257.0,2013.472
2013483.0,257.0,32.0,282.0,253.0,2013.483
2013493.0,253.0,34.0,268.0,253.0,2013.493
2013503.0,246.0,32.0,268.0,242.0,2013.503
2013513.0,255.0,32.0,271.0,253.0,2013.513
2013523.0,259.0,33.0,272.0,257.0,2013.523
2013533.0,253.0,33.0,274.0,251.0,2013.533
2013543.0,249.0,32.0,262.0,251.0,2013.543
2013553.0,241.0,33.0,262.0,243.0,2013.553
2013563.0,246.0,33.0,267.0,253.0,2013.563
2013573.0,251.0,32.0,268.0,256.0,2013.573
2013583.0,250.0,32.0,267.0,251.0,2013.583
2013593.0,247.0,32.0,258.0,251.0,2013.593
2013603.0,242.0,32.0,254.0,245.0,2013.603
2013613.0,248.0,32.0,253.0,251.0,2013.613
2013623.0,256.0,34.0,257.0,257.0,2013.623
2013633.0,250.0,32.0,253.0,250.0,2013.633
2013643.0,248.0,32.0,245.0,250.0,2013.643
2013654.0,244.0,33.0,241.0,245.0,2013.654
2013664.0,251.0,33.0,247.0,255.0,2013.664
2013674.0,258.0,33.0,246.0,258.0,2013.674
2013684.0,252.0,33.0,238.0,248.0,2013.684
2013694.0,251.0,32.0,234.0,250.0,2013.694
2013704.0,247.0,32.0,230.0,245.0,2013.704
2013714.0,252.0,32.0,236.0,251.0,2013.714
2013724.0,254.0,33.0,234.0,251.0,2013.724
2013734.0,244.0,32.0,222.0,240.0,2013.734
2013744.0,243.0,33.0,224.0,245.0,2013.744
2013754.0,237.0,33.0,217.0,239.0,2013.754
2013764.0,245.0,32.0,222.0,250.0,2013.764
2013774.0,251.0,34.0,227.0,255.0,2013.774
2013784.0,247.0,33.0,217.0,247.0,2013.784
2013794.0,243.0,34.0,219.0,253.0,2013.794
2013804.0,245.0,33.0,213.0,253.0,2013.804
2013814.0,251.0,33.0,215.0,257.0,2013.814
2013824.0,251.0,32.0,222.0,256.0,2013.824
2013834.0,245.0,33.0,209.0,244.0,2013.834
2013844.0,241.0,33.0,215.0,250.0,2013.844
2013854.0,239.0,33.0,210.0,247.0,2013.854
2013864.0,247.0,33.0,214.0,255.0,2013.864
2013874.0,246.0,33.0,223.0,260.0,2013.874
2013884.0,239.0,33.0,205.0,245.0,2013.884
2013894.0,238.0,34.0,213.0,251.0,2013.894
2013904.0,237.0,33.0,216.0,254.0,2013.904
2013914.0,240.0,33.0,217.0,254.0,2013.914
2013924.0,242.0,33.0,230.0,260.0,2013.924
2013934.0,233.0,33.0,211.0,247.0,2013.934
2013944.0,234.0,34.0,225.0,251.0,2013.944
2013954.0,228.0,33.0,218.0,244.0,2013.954
2013964.0,235.0,33.0,227.0,249.0,2013.964
2013974.0,236.0,34.0,246.0,252.0,2013.974
2013984.0,228.0,33.0,222.0,239.0,2013.984
2013995.0,228.0,33.0,242.0,243.0,2013.995
2014005.0,229.0,34.0,247.0,246.0,2014.005
2014015.0,231.0,33.0,242.0,245.0,2014.015
2014025.0,229.0,34.0,266.0,246.0,2014.025
2014035.0,223.0,33.0,246.0,235.0,2014.035
2014045.0,226.0,33.0,270.0,242.0,2014.045
2014055.0,227.0,34.0,278.0,245.0,2014.055
2014065.0,229.0,33.0,272.0,245.0,2014.065
2014075.0,225.0,34.0,303.0,246.0,2014.075
2014085.0,217.0,32.0,284.0,236.0,2014.085
2014095.0,217.0,33.0,311.0,240.0,2014.095
2014105.0,222.0,34.0,321.0,245.0,2014.105
2014115.0,223.0,34.0,311.0,243.0,2014.115
2014125.0,225.0,33.0,350.0,244.0,2014.125
2014135.0,217.0,34.0,328.0,234.0,2014.135
2014145.0,219.0,34.0,356.0,236.0,2014.145
2014155.0,223.0,34.0,367.0,241.0,2014.155
2014166.0,224.0,34.0,359.0,240.0,2014.166
2014176.0,222.0,34.0,396.0,241.0,2014.176
2014186.0,215.0,33.0,378.0,231.0,2014.186
2014196.0,221.0,34.0,399.0,243.0,2014.196
2014206.0,227.0,34.0,426.0,245.0,2014.206
2014216.0,223.0,33.0,405.0,241.0,2014.216
2014226.0,224.0,34.0,442.0,240.0,2014.226
2014236.0,216.0,34.0,423.0,232.0,2014.236
2014246.0,224.0,33.0,440.0,242.0,2014.246
2014256.0,226.0,35.0,465.0,246.0,2014.256
2014266.0,225.0,34.0,448.0,243.0,2014.266
2014276.0,223.0,34.0,484.0,242.0,2014.276
2014286.0,216.0,34.0,468.0,236.0,2014.286
2014296.0,221.0,34.0,492.0,242.0,2014.296
2014306.0,227.0,35.0,510.0,249.0,2014.306
2014316.0,225.0,33.0,492.0,244.0,2014.316
2014326.0,227.0,35.0,531.0,244.0,2014.326
2014336.0,220.0,34.0,511.0,236.0,2014.336
2014346.0,224.0,34.0,536.0,243.0,2014.346
2014356.0,229.0,35.0,558.0,249.0,2014.356
2014366.0,224.0,34.0,535.0,244.0,2014.366
2014376.0,223.0,35.0,571.0,245.0,2014.376
2014386.0,216.0,34.0,551.0,237.0,2014.386
2014396.0,221.0,35.0,574.0,246.0,2014.396
2014406.0,226.0,34.0,596.0,251.0,2014.406
2014416.0,222.0,35.0,574.0,245.0,2014.416
2014426.0,224.0,35.0,613.0,245.0,2014.426
2014436.0,215.0,34.0,590.0,237.0,2014.436
2014446.0,222.0,35.0,611.0,247.0,2014.446
2014456.0,227.0,34.0,636.0,252.0,2014.456
2014466.0,224.0,34.0,612.0,247.0,2014.466
2014476.0,223.0,35.0,649.0,246.0,2014.476
2014486.0,220.0,34.0,630.0,237.0,2014.486
2014496.0,226.0,35.0,647.0,246.0,2014.496
2014507.0,230.0,34.0,666.0,249.0,2014.507
2014517.0,224.0,34.0,648.0,244.0,2014.517
2014527.0,223.0,34.0,666.0,243.0,2014.527
2014537.0,220.0,34.0,666.0,243.0,2014.537
2014547.0,227.0,33.0,666.0,250.0,2014.547
2014557.0,229.0,33.0,667.0,251.0,2014.557
2014567.0,222.0,33.0,665.0,246.0,2014.567
2014577.0,223.0,33.0,666.0,247.0,2014.577
2014587.0,221.0,34.0,666.0,249.0,2014.587
2014597.0,224.0,32.0,666.0,252.0,2014.597
2014607.0,228.0,33.0,666.0,253.0,2014.607
2014617.0,222.0,32.0,666.0,245.0,2014.617
2014627.0,222.0,33.0,666.0,245.0,2014.627
2014637.0,216.0,32.0,666.0,242.0,2014.637
2014647.0,224.0,33.0,665.0,253.0,2014.647
2014657.0,227.0,32.0,666.0,252.0,2014.657
2014667.0,223.0,31.0,666.0,245.0,2014.667
2014678.0,224.0,32.0,667.0,246.0,2014.678
2014688.0,225.0,31.0,667.0,249.0,2014.688
2014698.0,228.0,32.0,666.0,252.0,2014.698
2014708.0,227.0,33.0,665.0,250.0,2014.708
2014718.0,219.0,32.0,666.0,242.0,2014.718
2014728.0,223.0,32.0,666.0,246.0,2014.728
2014738.0,224.0,32.0,667.0,250.0,2014.738
2014748.0,227.0,31.0,666.0,251.0,2014.748
2014758.0,224.0,32.0,666.0,248.0,2014.758
2014768.0,219.0,31.0,666.0,245.0,2014.768
2014778.0,221.0,32.0,666.0,247.0,2014.778
2014788.0,227.0,32.0,666.0,252.0,2014.788
2014798.0,227.0,31.0,665.0,254.0,2014.798
2014808.0,230.0,32.0,667.0,252.0,2014.808
2014818.0,220.0,31.0,666.0,246.0,2014.818
2014828.0,221.0,32.0,666.0,247.0,2014.828
2014838.0,225.0,33.0,666.0,255.0,2014.838
2014848.0,226.0,32.0,666.0,255.0,2014.848
2014858.0,227.0,32.0,666.0,252.0,2014.858
2014868.0,219.0,31.0,666.0,247.0,2014.868
2014878.0,220.0,31.0,666.0,249.0,2014.878
2014888.0,225.0,32.0,667.0,254.0,2014.888
2014898.0,225.0,31.0,665.0,254.0,2014.898
2014908.0,226.0,33.0,665.0,251.0,2014.908
2014918.0,220.0,31.0,666.0,245.0,2014.918
2014928.0,224.0,32.0,666.0,248.0,2014.928
2014938.0,226.0,32.0,667.0,250.0,2014.938
2014948.0,227.0,32.0,665.0,254.0,2014.948
2014958.0,227.0,32.0,665.0,250.0,2014.958
2014968.0,218.0,33.0,666.0,245.0,2014.968
2014978.0,222.0,32.0,666.0,246.0,2014.978
2014988.0,223.0,32.0,667.0,250.0,2014.988
2014998.0,226.0,32.0,666.0,253.0,2014.998
2015008.0,226.0,31.0,665.0,248.0,2015.008
2015019.0,216.0,32.0,666.0,241.0,2015.019
2015029.0,223.0,32.0,666.0,248.0,2015.029
2015039.0,227.0,32.0,666.0,253.0,2015.039
2015049.0,223.0,32.0,665.0,249.0,2015.049
2015059.0,223.0,33.0,666.0,247.0,2015.059
2015069.0,217.0,31.0,666.0,242.0,2015.069
2015079.0,220.0,33.0,665.0,249.0,2015.079
2015089.0,227.0,32.0,666.0,254.0,2015.089
2015099.0,222.0,33.0,665.0,250.0,2015.099
2015109.0,224.0,32.0,666.0,249.0,2015.109
2015119.0,215.0,32.0,666.0,243.0,2015.119
2015129.0,221.0,33.0,666.0,251.0,2015.129
2015139.0,226.0,33.0,667.0,254.0,2015.139
2015149.0,222.0,32.0,666.0,252.0,2015.149
2015159.0,222.0,34.0,665.0,250.0,2015.159
2015169.0,214.0,32.0,666.0,243.0,2015.169
2015179.0,221.0,32.0,665.0,252.0,2015.179
2015190.0,226.0,34.0,667.0,254.0,2015.19
2015200.0,222.0,32.0,665.0,251.0,2015.2
2015210.0,222.0,33.0,665.0,249.0,2015.21
2015220.0,218.0,33.0,667.0,249.0,2015.22
2015230.0,224.0,33.0,666.0,256.0,2015.23
2015240.0,226.0,33.0,664.0,255.0,2015.24
2015250.0,220.0,33.0,650.0,251.0,2015.25
2015260.0,222.0,33.0,637.0,250.0,2015.26
2015270.0,218.0,33.0,624.0,250.0,2015.27
2015280.0,222.0,33.0,611.0,255.0,2015.28
2015290.0,225.0,33.0,599.0,257.0,2015.29
2015300.0,217.0,33.0,585.0,251.0,2015.3
2015310.0,219.0,33.0,572.0,250.0,2015.31
2015320.0,214.0,33.0,563.0,246.0,2015.32
2015330.0,222.0,33.0,549.0,255.0,2015.33
2015340.0,226.0,33.0,537.0,255.0,2015.34
2015350.0,218.0,33.0,524.0,249.0,2015.35
2015360.0,221.0,33.0,514.0,249.0,2015.36
2015370.0,214.0,32.0,503.0,246.0,2015.37
2015380.0,222.0,32.0,491.0,255.0,2015.38
2015390.0,226.0,33.0,480.0,254.0,2015.39
2015400.0,218.0,32.0,467.0,247.0,2015.4
2015410.0,220.0,32.0,458.0,248.0,2015.41
2015420.0,215.0,33.0,448.0,246.0,2015.42
2015430.0,223.0,32.0,437.0,254.0,2015.43
2015440.0,225.0,32.0,427.0,252.0,2015.44
2015450.0,221.0,31.0,418.0,250.0,2015.45
2015460.0,220.0,32.0,407.0,248.0,2015.46
2015470.0,218.0,31.0,398.0,248.0,2015.47
2015480.0,225.0,32.0,387.0,256.0,2015.48
2015490.0,227.0,32.0,379.0,255.0,2015.49
2015500.0,220.0,30.0,369.0,250.0,2015.5
2015510.0,221.0,32.0,360.0,249.0,2015.51
2015520.0,218.0,31.0,352.0,248.0,2015.52
2015531.0,222.0,31.0,342.0,254.0,2015.531
2015541.0,224.0,31.0,333.0,251.0,2015.541
2015551.0,214.0,32.0,324.0,245.0,2015.551
2015561.0,217.0,32.0,315.0,246.0,2015.561
2015571.0,221.0,32.0,307.0,253.0,2015.571
2015581.0,223.0,31.0,300.0,254.0,2015.581
2015591.0,223.0,31.0,290.0,250.0,2015.591
2015601.0,214.0,31.0,283.0,245.0,2015.601
2015611.0,217.0,33.0,274.0,248.0,2015.611
2015621.0,219.0,31.0,268.0,249.0,2015.621
2015631.0,222.0,31.0,260.0,254.0,2015.631
2015641.0,224.0,32.0,253.0,250.0,2015.641
2015651.0,213.0,31.0,245.0,244.0,2015.651
2015661.0,218.0,32.0,238.0,247.0,2015.661
2015671.0,219.0,32.0,232.0,251.0,2015.671
2015681.0,221.0,31.0,225.0,252.0,2015.681
2015691.0,223.0,31.0,218.0,249.0,2015.691
2015702.0,213.0,31.0,212.0,243.0,2015.702
2015712.0,218.0,31.0,205.0,248.0,2015.712
2015722.0,224.0,32.0,199.0,254.0,2015.722
2015732.0,220.0,31.0,193.0,252.0,2015.732
2015742.0,220.0,32.0,187.0,249.0,2015.742
2015752.0,213.0,30.0,181.0,244.0,2015.752
2015762.0,217.0,31.0,175.0,250.0,2015.762
2015772.0,225.0,31.0,171.0,254.0,2015.772
2015782.0,219.0,31.0,164.0,251.0,2015.782
2015792.0,222.0,32.0,160.0,249.0,2015.792
2015802.0,213.0,32.0,155.0,243.0,2015.802
2015812.0,219.0,31.0,150.0,250.0,2015.812
2015822.0,224.0,32.0,145.0,254.0,2015.822
2015832.0,221.0,32.0,142.0,252.0,2015.832
2015842.0,222.0,31.0,136.0,249.0,2015.842
2015852.0,213.0,31.0,132.0,241.0,2015.852
2015862.0,220.0,32.0,127.0,251.0,2015.862
2015872.0,223.0,32.0,123.0,253.0,2015.872
2015882.0,222.0,30.0,120.0,252.0,2015.882
2015892.0,221.0,32.0,115.0,248.0,2015.892
2015902.0,214.0,31.0,112.0,242.0,2015.902
2015912.0,220.0,32.0,108.0,251.0,2015.912
2015922.0,225.0,32.0,105.0,253.0,2015.922
2015932.0,221.0,33.0,100.0,251.0,2015.932
2015942.0,221.0,31.0,97.0,248.0,2015.942
2015952.0,213.0,32.0,94.0,242.0,2015.952
2015962.0,218.0,32.0,90.0,247.0,2015.962
2015972.0,224.0,32.0,86.0,254.0,2015.972
2015982.0,221.0,32.0,85.0,251.0,2015.982
2015992.0,221.0,32.0,80.0,249.0,2015.992
2016002.0,214.0,32.0,78.0,242.0,2016.002
2016012.0,219.0,32.0,75.0,248.0,2016.012
2016022.0,225.0,32.0,73.0,254.0,2016.022
2016032.0,220.0,31.0,70.0,250.0,2016.032
2016043.0,220.0,32.0,67.0,248.0,2016.043
2016053.0,213.0,32.0,65.0,245.0,2016.053
2016063.0,221.0,33.0,62.0,254.0,2016.063
2016073.0,226.0,32.0,60.0,253.0,2016.073
2016083.0,217.0,32.0,57.0,248.0,2016.083
2016093.0,221.0,32.0,56.0,249.0,2016.093
2016103.0,214.0,32.0,54.0,247.0,2016.103
2016113.0,222.0,32.0,52.0,254.0,2016.113
2016123.0,225.0,33.0,50.0,253.0,2016.123
2016133.0,219.0,32.0,48.0,250.0,2016.133
2016143.0,220.0,33.0,46.0,250.0,2016.143
2016153.0,216.0,32.0,45.0,247.0,2016.153
2016163.0,222.0,31.0,42.0,254.0,2016.163
2016173.0,225.0,33.0,41.0,255.0,2016.173
2016183.0,218.0,32.0,38.0,249.0,2016.183
2016193.0,219.0,32.0,37.0,247.0,2016.193
2016203.0,216.0,31.0,35.0,247.0,2016.203
2016214.0,222.0,32.0,34.0,253.0,2016.214
2016224.0,225.0,31.0,32.0,250.0,2016.224
2016234.0,214.0,32.0,30.0,244.0,2016.234
2016244.0,217.0,32.0,29.0,246.0,2016.244
2016254.0,221.0,33.0,27.0,252.0,2016.254
2016264.0,221.0,32.0,26.0,254.0,2016.264
2016274.0,223.0,33.0,24.0,251.0,2016.274
2016284.0,215.0,31.0,23.0,243.0,2016.284
2016294.0,216.0,31.0,22.0,247.0,2016.294
2016304.0,217.0,32.0,20.0,249.0,2016.304
2016314.0,222.0,32.0,19.0,253.0,2016.314
2016324.0,223.0,32.0,18.0,250.0,2016.324
2016334.0,214.0,32.0,17.0,244.0,2016.334
2016344.0,218.0,32.0,17.0,246.0,2016.344
2016354.0,219.0,31.0,14.0,249.0,2016.354
2016364.0,222.0,32.0,14.0,252.0,2016.364
2016374.0,223.0,32.0,13.0,248.0,2016.374
2016384.0,216.0,32.0,13.0,244.0,2016.384
2016394.0,218.0,32.0,11.0,245.0,2016.394
2016404.0,220.0,32.0,11.0,249.0,2016.404
2016414.0,223.0,31.0,11.0,250.0,2016.414
2016424.0,222.0,32.0,8.0,248.0,2016.424
2016434.0,216.0,31.0,9.0,244.0,2016.434
2016444.0,218.0,32.0,8.0,246.0,2016.444
2016454.0,220.0,32.0,8.0,251.0,2016.454
2016464.0,221.0,31.0,7.0,252.0,2016.464
2016474.0,224.0,32.0,7.0,250.0,2016.474
2016484.0,215.0,31.0,6.0,245.0,2016.484
2016494.0,217.0,31.0,6.0,245.0,2016.494
2016504.0,222.0,33.0,6.0,253.0,2016.504
2016514.0,223.0,32.0,6.0,253.0,2016.514
2016524.0,224.0,32.0,6.0,249.0,2016.524
2016534.0,215.0,32.0,5.0,243.0,2016.534
2016544.0,218.0,31.0,6.0,246.0,2016.544
2016555.0,223.0,33.0,5.0,252.0,2016.555
2016565.0,221.0,32.0,5.0,251.0,2016.565
2016575.0,221.0,33.0,5.0,247.0,2016.575
2016585.0,213.0,32.0,5.0,240.0,2016.585
2016595.0,220.0,32.0,5.0,250.0,2016.595
2016605.0,223.0,32.0,5.0,252.0,2016.605
2016615.0,221.0,32.0,4.0,251.0,2016.615
2016625.0,221.0,32.0,5.0,247.0,2016.625
2016635.0,217.0,33.0,3.0,243.0,2016.635
2016645.0,222.0,32.0,5.0,247.0,2016.645
2016655.0,228.0,33.0,4.0,253.0,2016.655
2016665.0,225.0,32.0,5.0,250.0,2016.665
2016675.0,223.0,33.0,4.0,247.0,2016.675
2016685.0,215.0,33.0,4.0,242.0,2016.685
2016695.0,220.0,33.0,5.0,247.0,2016.695
2016705.0,226.0,32.0,4.0,254.0,2016.705
2016715.0,222.0,32.0,4.0,249.0,2016.715
2016726.0,222.0,33.0,5.0,247.0,2016.726
2016736.0,215.0,33.0,4.0,244.0,2016.736
2016746.0,222.0,33.0,4.0,252.0,2016.746
2016756.0,226.0,33.0,4.0,253.0,2016.756
2016766.0,218.0,33.0,4.0,246.0,2016.766
2016776.0,221.0,33.0,5.0,247.0,2016.776
2016786.0,215.0,32.0,4.0,244.0,2016.786
2016796.0,225.0,32.0,5.0,252.0,2016.796
2016806.0,226.0,33.0,4.0,251.0,2016.806
2016816.0,221.0,32.0,5.0,248.0,2016.816
2016826.0,221.0,33.0,3.0,247.0,2016.826
2016836.0,217.0,32.0,4.0,244.0,2016.836
2016846.0,224.0,32.0,4.0,252.0,2016.846
2016856.0,226.0,33.0,4.0,252.0,2016.856
2016866.0,219.0,31.0,4.0,248.0,2016.866
2016876.0,219.0,34.0,3.0,247.0,2016.876
2016886.0,216.0,33.0,4.0,247.0,2016.886
2016896.0,222.0,32.0,4.0,252.0,2016.896
2016906.0,226.0,32.0,4.0,252.0,2016.906
2016916.0,219.0,32.0,4.0,247.0,2016.916
2016926.0,220.0,32.0,5.0,246.0,2016.926
2016936.0,217.0,33.0,4.0,247.0,2016.936
2016946.0,222.0,31.0,4.0,251.0,2016.946
2016956.0,225.0,33.0,3.0,253.0,2016.956
2016966.0,218.0,32.0,4.0,246.0,2016.966
2016976.0,219.0,32.0,4.0,246.0,2016.976
2016986.0,214.0,32.0,4.0,242.0,2016.986
2016996.0,222.0,31.0,4.0,252.0,2016.996
2017006.0,226.0,32.0,4.0,252.0,2017.006
2017016.0,218.0,33.0,3.0,246.0,2017.016
2017026.0,221.0,32.0,4.0,247.0,2017.026
2017036.0,215.0,32.0,5.0,243.0,2017.036
2017046.0,224.0,32.0,4.0,252.0,2017.046
2017056.0,226.0,31.0,4.0,250.0,2017.056
2017067.0,217.0,32.0,4.0,244.0,2017.067
2017077.0,218.0,32.0,4.0,245.0,2017.077
2017087.0,220.0,33.0,3.0,249.0,2017.087
2017097.0,223.0,31.0,4.0,250.0,2017.097
2017107.0,223.0,32.0,5.0,248.0,2017.107
2017117.0,217.0,31.0,4.0,243.0,2017.117
2017127.0,218.0,32.0,3.0,245.0,2017.127
2017137.0,221.0,32.0,4.0,249.0,2017.137
2017147.0,223.0,33.0,3.0,252.0,2017.147
2017157.0,225.0,32.0,4.0,248.0,2017.157
2017167.0,217.0,31.0,4.0,243.0,2017.167
2017177.0,219.0,32.0,4.0,245.0,2017.177
2017187.0,223.0,31.0,4.0,250.0,2017.187
2017197.0,224.0,31.0,4.0,251.0,2017.197
2017207.0,226.0,33.0,4.0,248.0,2017.207
2017217.0,217.0,31.0,3.0,241.0,2017.217
2017227.0,219.0,32.0,4.0,244.0,2017.227
2017238.0,224.0,32.0,5.0,251.0,2017.238
2017248.0,222.0,31.0,4.0,250.0,2017.248
2017258.0,222.0,32.0,4.0,247.0,2017.258
2017268.0,213.0,32.0,4.0,240.0,2017.268
2017278.0,220.0,33.0,3.0,248.0,2017.278
2017288.0,224.0,32.0,4.0,252.0,2017.288
2017298.0,221.0,32.0,3.0,249.0,2017.298
2017308.0,222.0,31.0,5.0,246.0,2017.308
2017318.0,212.0,31.0,4.0,240.0,2017.318
2017328.0,218.0,32.0,5.0,245.0,2017.328
2017338.0,223.0,33.0,3.0,253.0,2017.338
2017348.0,221.0,31.0,4.0,249.0,2017.348
2017358.0,220.0,32.0,4.0,247.0,2017.358
2017368.0,214.0,32.0,4.0,242.0,2017.368
2017378.0,219.0,31.0,4.0,246.0,2017.378
2017388.0,225.0,33.0,3.0,253.0,2017.388
2017398.0,222.0,32.0,4.0,250.0,2017.398
2017408.0,222.0,32.0,4.0,248.0,2017.408
2017418.0,215.0,32.0,4.0,242.0,2017.418
2017428.0,219.0,33.0,4.0,248.0,2017.428
2017438.0,226.0,32.0,4.0,253.0,2017.438
2017448.0,221.0,32.0,4.0,248.0,2017.448
2017458.0,223.0,31.0,5.0,247.0,2017.458
2017468.0,215.0,32.0,3.0,240.0,2017.468
2017478.0,220.0,32.0,4.0,248.0,2017.478
2017488.0,225.0,33.0,3.0,253.0,2017.488
2017498.0,222.0,32.0,4.0,250.0,2017.498
2017508.0,222.0,32.0,4.0,247.0,2017.508
2017518.0,213.0,32.0,4.0,240.0,2017.518
2017528.0,220.0,33.0,3.0,249.0,2017.528
2017538.0,223.0,33.0,4.0,252.0,2017.538
2017548.0,222.0,32.0,4.0,249.0,2017.548
2017558.0,222.0,33.0,5.0,247.0,2017.558
2017568.0,213.0,31.0,4.0,239.0,2017.568
2017579.0,221.0,32.0,4.0,249.0,2017.579
2017589.0,226.0,32.0,4.0,251.0,2017.589
2017599.0,219.0,32.0,4.0,245.0,2017.599
2017609.0,220.0,32.0,4.0,245.0,2017.609
2017619.0,217.0,33.0,4.0,245.0,2017.619
2017629.0,222.0,32.0,4.0,249.0,2017.629
2017639.0,226.0,32.0,4.0,251.0,2017.639
2017649.0,218.0,32.0,4.0,246.0,2017.649
2017659.0,219.0,34.0,3.0,246.0,2017.659
2017669.0,213.0,32.0,4.0,241.0,2017.669
2017679.0,221.0,32.0,4.0,251.0,2017.679
2017689.0,226.0,32.0,5.0,252.0,2017.689
2017699.0,218.0,32.0,4.0,245.0,2017.699
2017709.0,221.0,32.0,5.0,246.0,2017.709
2017719.0,214.0,33.0,4.0,243.0,2017.719
2017729.0,222.0,33.0,4.0,251.0,2017.729
2017739.0,225.0,33.0,4.0,251.0,2017.739
2017750.0,217.0,32.0,4.0,244.0,2017.75
2017760.0,219.0,33.0,4.0,244.0,2017.76
2017770.0,219.0,32.0,4.0,247.0,2017.77
2017780.0,222.0,32.0,3.0,250.0,2017.78
2017790.0,222.0,33.0,3.0,246.0,2017.79
2017800.0,215.0,33.0,4.0,243.0,2017.8
2017810.0,217.0,33.0,4.0,243.0,2017.81
2017820.0,221.0,32.0,5.0,247.0,2017.82
2017830.0,222.0,33.0,4.0,249.0,2017.83
2017840.0,225.0,33.0,5.0,249.0,2017.84
2017850.0,216.0,33.0,4.0,243.0,2017.85
2017860.0,219.0,32.0,3.0,244.0,2017.86
2017870.0,222.0,32.0,4.0,249.0,2017.87
2017880.0,224.0,32.0,3.0,251.0,2017.88
2017890.0,225.0,33.0,4.0,248.0,2017.89
2017900.0,216.0,33.0,3.0,242.0,2017.9
2017910.0,218.0,33.0,3.0,244.0,2017.91
2017920.0,218.0,33.0,4.0,245.0,2017.92
2017930.0,223.0,32.0,4.0,251.0,2017.93
2017940.0,224.0,32.0,5.0,248.0,2017.94
2017950.0,216.0,31.0,4.0,241.0,2017.95
2017960.0,218.0,33.0,4.0,243.0,2017.96
2017970.0,220.0,33.0,4.0,247.0,2017.97
2017980.0,223.0,33.0,3.0,251.0,2017.98
2017990.0,223.0,32.0,4.0,247.0,2017.99
2018000.0,215.0,32.0,4.0,241.0,2018.0
2018010.0,219.0,32.0,4.0,243.0,2018.01
2018020.0,220.0,32.0,4.0,246.0,2018.02
2018030.0,223.0,32.0,4.0,249.0,2018.03
2018040.0,223.0,33.0,3.0,247.0,2018.04
2018050.0,216.0,32.0,3.0,243.0,2018.05
2018060.0,220.0,32.0,5.0,244.0,2018.06
2018070.0,221.0,32.0,5.0,248.0,2018.07
2018080.0,223.0,33.0,4.0,250.0,2018.08
2018091.0,222.0,33.0,4.0,247.0,2018.091
2018101.0,214.0,32.0,4.0,240.0,2018.101
2018111.0,219.0,32.0,4.0,245.0,2018.111
2018121.0,225.0,32.0,4.0,251.0,2018.121
2018131.0,221.0,33.0,4.0,248.0,2018.131
2018141.0,222.0,32.0,4.0,247.0,2018.141
2018151.0,214.0,32.0,4.0,239.0,2018.151
2018161.0,220.0,32.0,4.0,247.0,2018.161
2018171.0,226.0,34.0,3.0,252.0,2018.171
2018181.0,223.0,32.0,4.0,249.0,2018.181
2018191.0,221.0,33.0,3.0,247.0,2018.191
2018201.0,214.0,33.0,5.0,240.0,2018.201
2018211.0,220.0,33.0,4.0,249.0,2018.211
2018221.0,225.0,33.0,5.0,251.0,2018.221
2018231.0,223.0,33.0,4.0,251.0,2018.231
2018241.0,222.0,33.0,4.0,246.0,2018.241
2018251.0,214.0,33.0,5.0,240.0,2018.251
2018262.0,221.0,33.0,5.0,249.0,2018.262
2018272.0,226.0,34.0,4.0,251.0,2018.272
2018282.0,220.0,32.0,4.0,245.0,2018.282
2018292.0,220.0,34.0,3.0,246.0,2018.292
2018302.0,217.0,34.0,3.0,245.0,2018.302
2018312.0,221.0,33.0,4.0,250.0,2018.312
2018322.0,225.0,34.0,4.0,251.0,2018.322
2018332.0,219.0,33.0,4.0,246.0,2018.332
2018342.0,220.0,33.0,4.0,245.0,2018.342
2018352.0,214.0,33.0,5.0,241.0,2018.352
2018362.0,222.0,35.0,3.0,252.0,2018.362
2018372.0,226.0,34.0,4.0,252.0,2018.372
2018382.0,219.0,33.0,4.0,246.0,2018.382
2018392.0,221.0,34.0,4.0,246.0,2018.392
2018402.0,214.0,33.0,4.0,242.0,2018.402
2018412.0,223.0,33.0,3.0,252.0,2018.412
2018422.0,226.0,34.0,4.0,252.0,2018.422
2018432.0,221.0,33.0,3.0,248.0,2018.432
2018442.0,221.0,33.0,4.0,247.0,2018.442
2018452.0,216.0,34.0,5.0,244.0,2018.452
2018462.0,225.0,33.0,4.0,253.0,2018.462
2018472.0,226.0,33.0,4.0,252.0,2018.472
2018482.0,222.0,33.0,4.0,249.0,2018.482
2018492.0,221.0,34.0,3.0,248.0,2018.492
2018502.0,217.0,32.0,4.0,246.0,2018.502
2018512.0,224.0,33.0,4.0,253.0,2018.512
2018522.0,227.0,32.0,3.0,253.0,2018.522
2018532.0,220.0,33.0,2.0,248.0,2018.532
2018542.0,221.0,33.0,4.0,247.0,2018.542
2018552.0,218.0,33.0,3.0,247.0,2018.552
2018562.0,221.0,33.0,4.0,251.0,2018.562
2018572.0,227.0,33.0,4.0,253.0,2018.572
2018582.0,220.0,33.0,5.0,248.0,2018.582
2018592.0,221.0,33.0,4.0,247.0,2018.592
2018603.0,218.0,33.0,4.0,247.0,2018.603
2018613.0,224.0,33.0,4.0,254.0,2018.613
2018623.0,226.0,33.0,4.0,250.0,2018.623
2018633.0,217.0,32.0,4.0,243.0,2018.633
2018643.0,219.0,32.0,5.0,246.0,2018.643
2018653.0,220.0,32.0,4.0,248.0,2018.653
2018663.0,225.0,33.0,4.0,252.0,2018.663
2018673.0,225.0,33.0,4.0,249.0,2018.673
2018683.0,217.0,33.0,3.0,243.0,2018.683
2018693.0,221.0,33.0,4.0,245.0,2018.693
2018703.0,221.0,33.0,3.0,248.0,2018.703
2018713.0,225.0,32.0,5.0,251.0,2018.713
2018723.0,224.0,33.0,4.0,248.0,2018.723
2018733.0,220.0,32.0,5.0,244.0,2018.733
2018743.0,220.0,33.0,3.0,247.0,2018.743
2018753.0,222.0,32.0,4.0,248.0,2018.753
2018763.0,225.0,32.0,5.0,251.0,2018.763
2018774.0,224.0,32.0,5.0,247.0,2018.774
2018784.0,216.0,32.0,4.0,240.0,2018.784
2018794.0,220.0,32.0,4.0,245.0,2018.794
2018804.0,225.0,33.0,4.0,252.0,2018.804
2018814.0,223.0,32.0,3.0,248.0,2018.814
2018824.0,224.0,33.0,4.0,249.0,2018.824
2018834.0,215.0,32.0,4.0,241.0,2018.834
2018844.0,221.0,33.0,4.0,247.0,2018.844
2018854.0,226.0,32.0,4.0,253.0,2018.854
2018864.0,224.0,33.0,3.0,252.0,2018.864
2018874.0,223.0,33.0,3.0,250.0,2018.874
2018884.0,215.0,32.0,4.0,242.0,2018.884
2018894.0,221.0,32.0,4.0,249.0,2018.894
2018904.0,224.0,32.0,4.0,252.0,2018.904
2018914.0,224.0,31.0,4.0,252.0,2018.914
2018924.0,222.0,33.0,3.0,248.0,2018.924
2018934.0,214.0,33.0,4.0,241.0,2018.934
2018944.0,218.0,32.0,4.0,245.0,2018.944
2018954.0,224.0,32.0,4.0,252.0,2018.954
2018964.0,223.0,32.0,5.0,249.0,2018.964
2018974.0,223.0,31.0,4.0,245.0,2018.974
2018984.0,214.0,32.0,4.0,240.0,2018.984
2018994.0,220.0,33.0,4.0,245.0,2018.994
2019004.0,225.0,33.0,3.0,251.0,2019.004
2019014.0,223.0,32.0,4.0,248.0,2019.014
2019024.0,221.0,33.0,4.0,245.0,2019.024
2019034.0,215.0,32.0,4.0,240.0,2019.034
2019044.0,219.0,32.0,4.0,245.0,2019.044
2019054.0,224.0,32.0,4.0,250.0,2019.054
2019064.0,222.0,33.0,3.0,249.0,2019.064
2019074.0,223.0,32.0,4.0,246.0,2019.074
2019084.0,215.0,32.0,3.0,240.0,2019.084
2019094.0,220.0,32.0,5.0,246.0,2019.094
2019104.0,226.0,32.0,4.0,251.0,2019.104
2019115.0,222.0,32.0,3.0,249.0,2019.115
2019125.0,221.0,33.0,3.0,247.0,2019.125
2019135.0,215.0,33.0,3.0,242.0,2019.135
2019145.0,224.0,32.0,4.0,251.0,2019.145
2019155.0,225.0,33.0,4.0,250.0,2019.155
2019165.0,222.0,31.0,4.0,246.0,2019.165
2019175.0,221.0,33.0,4.0,245.0,2019.175
2019185.0,216.0,32.0,4.0,242.0,2019.185
2019195.0,224.0,33.0,4.0,251.0,2019.195
2019205.0,226.0,32.0,3.0,250.0,2019.205
2019215.0,220.0,32.0,4.0,245.0,2019.215
2019225.0,221.0,32.0,5.0,245.0,2019.225
2019235.0,216.0,32.0,4.0,243.0,2019.235
2019245.0,221.0,32.0,5.0,248.0,2019.245
2019255.0,225.0,33.0,4.0,251.0,2019.255
2019265.0,219.0,32.0,4.0,244.0,2019.265
2019275.0,220.0,33.0,5.0,244.0,2019.275
2019286.0,217.0,33.0,5.0,243.0,2019.286
2019296.0,224.0,32.0,4.0,249.0,2019.296
2019306.0,224.0,33.0,4.0,247.0,2019.306
2019316.0,215.0,33.0,4.0,241.0,2019.316
2019326.0,217.0,32.0,3.0,241.0,2019.326
2019336.0,217.0,32.0,4.0,244.0,2019.336
2019346.0,221.0,33.0,4.0,248.0,2019.346
2019356.0,223.0,33.0,4.0,245.0,2019.356
2019366.0,214.0,32.0,4.0,239.0,2019.366
2019376.0,218.0,33.0,5.0,242.0,2019.376
2019386.0,218.0,34.0,3.0,245.0,2019.386
2019396.0,222.0,32.0,4.0,247.0,2019.396
2019406.0,221.0,33.0,4.0,244.0,2019.406
2019416.0,215.0,33.0,3.0,240.0,2019.416
2019426.0,216.0,32.0,4.0,241.0,2019.426
2019436.0,218.0,33.0,4.0,244.0,2019.436
2019446.0,221.0,34.0,3.0,248.0,2019.446
2019456.0,222.0,33.0,3.0,246.0,2019.456
2019466.0,215.0,32.0,4.0,239.0,2019.466
2019476.0,216.0,33.0,5.0,240.0,2019.476
2019486.0,218.0,33.0,4.0,244.0,2019.486
2019496.0,219.0,33.0,4.0,245.0,2019.496
2019506.0,222.0,33.0,4.0,245.0,2019.506
2019516.0,213.0,33.0,3.0,239.0,2019.516
2019526.0,215.0,32.0,4.0,240.0,2019.526
2019536.0,217.0,32.0,4.0,245.0,2019.536
2019546.0,219.0,32.0,4.0,247.0,2019.546
2019556.0,220.0,33.0,4.0,245.0,2019.556
2019566.0,212.0,32.0,4.0,239.0,2019.566
2019576.0,214.0,33.0,3.0,240.0,2019.576
2019586.0,213.0,33.0,4.0,241.0,2019.586
2019596.0,219.0,32.0,4.0,247.0,2019.596
2019606.0,220.0,34.0,4.0,244.0,2019.606
2019616.0,212.0,32.0,4.0,237.0,2019.616
2019627.0,213.0,34.0,3.0,240.0,2019.627
2019637.0,219.0,33.0,4.0,246.0,2019.637
2019647.0,217.0,33.0,4.0,244.0,2019.647
2019657.0,216.0,33.0,4.0,241.0,2019.657
2019667.0,209.0,32.0,4.0,235.0,2019.667
2019677.0,214.0,32.0,4.0,239.0,2019.677
2019687.0,219.0,33.0,4.0,245.0,2019.687
2019697.0,218.0,33.0,4.0,244.0,2019.697
2019707.0,217.0,34.0,3.0,240.0,2019.707
2019717.0,210.0,32.0,4.0,235.0,2019.717
2019727.0,213.0,33.0,4.0,239.0,2019.727
2019737.0,221.0,33.0,4.0,246.0,2019.737
2019747.0,217.0,33.0,2.0,243.0,2019.747
2019757.0,219.0,33.0,5.0,241.0,2019.757
2019767.0,210.0,33.0,3.0,236.0,2019.767
2019777.0,215.0,33.0,4.0,240.0,2019.777
2019787.0,221.0,33.0,4.0,245.0,2019.787
2019798.0,218.0,32.0,5.0,241.0,2019.798
2019808.0,217.0,33.0,4.0,239.0,2019.808
2019818.0,210.0,33.0,4.0,235.0,2019.818
2019828.0,218.0,33.0,4.0,245.0,2019.828
2019838.0,220.0,33.0,3.0,244.0,2019.838
2019848.0,216.0,32.0,4.0,240.0,2019.848
2019858.0,216.0,32.0,5.0,238.0,2019.858
2019868.0,211.0,33.0,4.0,236.0,2019.868
2019878.0,218.0,32.0,3.0,245.0,2019.878
2019888.0,222.0,32.0,5.0,244.0,2019.888
2019898.0,216.0,33.0,3.0,240.0,2019.898
2019908.0,216.0,32.0,4.0,238.0,2019.908
2019918.0,211.0,33.0,4.0,237.0,2019.918
2019928.0,217.0,32.0,5.0,242.0,2019.928
2019938.0,220.0,33.0,4.0,244.0,2019.938
2019948.0,215.0,32.0,4.0,239.0,2019.948
2019958.0,215.0,33.0,3.0,239.0,2019.958
2019968.0,209.0,32.0,4.0,233.0,2019.968
2019978.0,216.0,32.0,4.0,243.0,2019.978
2019988.0,219.0,33.0,4.0,246.0,2019.988
2019998.0,213.0,31.0,4.0,240.0,2019.998
2020008.0,214.0,33.0,4.0,239.0,2020.008
2020018.0,208.0,32.0,4.0,234.0,2020.018
2020028.0,216.0,33.0,4.0,244.0,2020.028
2020038.0,220.0,32.0,4.0,245.0,2020.038
2020048.0,213.0,32.0,4.0,240.0,2020.048
2020058.0,214.0,32.0,4.0,239.0,2020.058
2020068.0,208.0,32.0,4.0,235.0,2020.068
2020078.0,217.0,32.0,4.0,243.0,2020.078
2020088.0,220.0,34.0,3.0,244.0,2020.088
2020098.0,216.0,32.0,4.0,239.0,2020.098
2020108.0,215.0,32.0,3.0,238.0,2020.108
2020118.0,211.0,33.0,5.0,234.0,2020.118
2020128.0,218.0,32.0,4.0,243.0,2020.128
2020139.0,219.0,34.0,3.0,242.0,2020.139
2020149.0,213.0,33.0,3.0,235.0,2020.149
2020159.0,215.0,32.0,3.0,234.0,2020.159
2020169.0,216.0,32.0,3.0,238.0,2020.169
2020179.0,217.0,32.0,4.0,240.0,2020.179
2020189.0,219.0,32.0,4.0,240.0,2020.189
2020199.0,212.0,32.0,3.0,233.0,2020.199
2020209.0,213.0,32.0,4.0,234.0,2020.209
2020219.0,216.0,33.0,3.0,239.0,2020.219
2020229.0,218.0,32.0,4.0,241.0,2020.229
2020239.0,220.0,33.0,4.0,239.0,2020.239
2020249.0,212.0,32.0,5.0,233.0,2020.249
2020259.0,212.0,33.0,2.0,234.0,2020.259
2020269.0,212.0,32.0,5.0,235.0,2020.269
2020279.0,218.0,32.0,3.0,242.0,2020.279
2020289.0,218.0,32.0,4.0,238.0,2020.289
2020299.0,210.0,32.0,4.0,232.0,2020.299
2020310.0,213.0,32.0,4.0,234.0,2020.31
2020320.0,217.0,33.0,4.0,240.0,2020.32
2020330.0,216.0,33.0,3.0,240.0,2020.33
2020340.0,215.0,33.0,3.0,237.0,2020.34
