time (ms),signal 0,signal 1,signal 2,signal 3,time (sec)
2023178.0,214.0,32.0,224.0,237.0,2023.178
2023188.0,218.0,33.0,220.0,237.0,2023.188
2023198.0,207.0,33.0,217.0,228.0,2023.198
2023208.0,210.0,32.0,213.0,230.0,2023.208
2023218.0,209.0,34.0,214.0,232.0,2023.218
2023228.0,215.0,32.0,222.0,236.0,2023.228
2023238.0,217.0,33.0,216.0,236.0,2023.238
2023248.0,208.0,32.0,216.0,226.0,2023.248
2023258.0,211.0,33.0,212.0,230.0,2023.258
2023268.0,210.0,32.0,214.0,231.0,2023.268
2023278.0,214.0,34.0,221.0,235.0,2023.278
2023288.0,217.0,32.0,215.0,234.0,2023.288
2023298.0,209.0,33.0,217.0,228.0,2023.298
2023308.0,212.0,33.0,213.0,230.0,2023.308
2023318.0,211.0,33.0,214.0,233.0,2023.318
2023328.0,215.0,32.0,221.0,235.0,2023.328
2023339.0,217.0,33.0,214.0,235.0,2023.339
2023349.0,207.0,32.0,214.0,226.0,2023.349
2023359.0,210.0,32.0,212.0,231.0,2023.359
2023369.0,217.0,33.0,218.0,239.0,2023.369
2023379.0,213.0,33.0,220.0,235.0,2023.379
2023389.0,216.0,33.0,214.0,236.0,2023.389
2023399.0,207.0,32.0,213.0,228.0,2023.399
2023409.0,211.0,33.0,213.0,234.0,2023.409
2023419.0,218.0,32.0,219.0,240.0,2023.419
2023429.0,215.0,33.0,221.0,238.0,2023.429
2023439.0,217.0,33.0,215.0,235.0,2023.439
2023449.0,206.0,33.0,212.0,228.0,2023.449
2023459.0,212.0,32.0,215.0,235.0,2023.459
2023469.0,215.0,34.0,218.0,240.0,2023.469
2023479.0,215.0,32.0,222.0,238.0,2023.479
2023489.0,216.0,32.0,215.0,236.0,2023.489
2023499.0,207.0,32.0,215.0,227.0,2023.499
2023510.0,212.0,33.0,216.0,235.0,2023.51
2023520.0,219.0,33.0,222.0,241.0,2023.52
2023530.0,214.0,33.0,221.0,236.0,2023.53
2023540.0,215.0,33.0,215.0,235.0,2023.54
2023550.0,209.0,32.0,216.0,231.0,2023.55
2023560.0,214.0,32.0,219.0,236.0,2023.56
2023570.0,222.0,33.0,223.0,241.0,2023.57
2023580.0,214.0,32.0,222.0,235.0,2023.58
2023590.0,215.0,33.0,217.0,237.0,2023.59
2023600.0,207.0,33.0,216.0,230.0,2023.6
2023610.0,214.0,32.0,223.0,239.0,2023.61
2023620.0,221.0,33.0,224.0,244.0,2023.62
2023630.0,215.0,32.0,224.0,236.0,2023.63
2023640.0,217.0,33.0,218.0,238.0,2023.64
2023650.0,208.0,32.0,217.0,231.0,2023.65
2023660.0,216.0,33.0,225.0,242.0,2023.66
2023670.0,222.0,32.0,226.0,244.0,2023.67
2023680.0,216.0,32.0,228.0,239.0,2023.68
2023690.0,217.0,33.0,221.0,239.0,2023.69
2023700.0,209.0,31.0,218.0,232.0,2023.7
2023710.0,218.0,33.0,226.0,242.0,2023.71
2023720.0,222.0,32.0,226.0,244.0,2023.72
2023730.0,217.0,33.0,227.0,239.0,2023.73
2023740.0,218.0,32.0,221.0,240.0,2023.74
2023750.0,211.0,33.0,220.0,234.0,2023.75
2023760.0,219.0,33.0,229.0,243.0,2023.76
2023770.0,222.0,33.0,228.0,246.0,2023.77
2023780.0,215.0,32.0,228.0,239.0,2023.78
2023790.0,217.0,34.0,222.0,240.0,2023.79
2023800.0,211.0,32.0,221.0,235.0,2023.8
2023810.0,216.0,32.0,225.0,241.0,2023.81
2023820.0,223.0,33.0,230.0,246.0,2023.82
2023830.0,216.0,33.0,228.0,239.0,2023.83
2023840.0,218.0,33.0,222.0,239.0,2023.84
2023851.0,213.0,33.0,222.0,238.0,2023.851
2023861.0,220.0,33.0,232.0,245.0,2023.861
2023871.0,223.0,34.0,228.0,246.0,2023.871
2023881.0,213.0,33.0,227.0,237.0,2023.881
2023891.0,217.0,33.0,223.0,239.0,2023.891
2023901.0,215.0,33.0,224.0,239.0,2023.901
2023911.0,222.0,33.0,231.0,246.0,2023.911
2023921.0,224.0,34.0,226.0,245.0,2023.921
2023931.0,215.0,32.0,224.0,238.0,2023.931
2023941.0,219.0,33.0,222.0,240.0,2023.941
2023951.0,217.0,33.0,224.0,241.0,2023.951
2023961.0,222.0,33.0,230.0,247.0,2023.961
2023971.0,224.0,33.0,224.0,245.0,2023.971
2023981.0,217.0,34.0,225.0,241.0,2023.981
2023991.0,219.0,32.0,221.0,242.0,2023.991
2024001.0,217.0,32.0,222.0,243.0,2024.001
2024011.0,222.0,33.0,229.0,247.0,2024.011
2024022.0,223.0,33.0,222.0,245.0,2024.022
2024032.0,213.0,33.0,220.0,237.0,2024.032
2024042.0,216.0,33.0,218.0,241.0,2024.042
2024052.0,223.0,33.0,226.0,248.0,2024.052
2024062.0,220.0,32.0,227.0,245.0,2024.062
2024072.0,223.0,34.0,221.0,245.0,2024.072
2024082.0,213.0,33.0,219.0,237.0,2024.082
2024092.0,216.0,33.0,218.0,241.0,2024.092
2024102.0,224.0,33.0,226.0,249.0,2024.102
2024112.0,222.0,33.0,227.0,247.0,2024.112
2024122.0,222.0,32.0,222.0,244.0,2024.122
2024132.0,213.0,33.0,217.0,237.0,2024.132
2024142.0,218.0,33.0,221.0,243.0,2024.142
2024152.0,220.0,33.0,224.0,246.0,2024.152
2024162.0,222.0,32.0,227.0,247.0,2024.162
2024172.0,221.0,34.0,220.0,246.0,2024.172
2024182.0,212.0,32.0,218.0,237.0,2024.182
2024192.0,217.0,32.0,218.0,242.0,2024.192
2024202.0,221.0,33.0,225.0,248.0,2024.202
2024212.0,222.0,33.0,227.0,248.0,2024.212
2024222.0,222.0,33.0,220.0,245.0,2024.222
2024232.0,213.0,32.0,216.0,237.0,2024.232
2024242.0,218.0,33.0,218.0,242.0,2024.242
2024252.0,222.0,32.0,224.0,248.0,2024.252
2024262.0,221.0,32.0,227.0,247.0,2024.262
2024272.0,223.0,32.0,220.0,244.0,2024.272
2024282.0,215.0,32.0,218.0,239.0,2024.282
2024292.0,218.0,32.0,218.0,243.0,2024.292
2024302.0,224.0,33.0,224.0,250.0,2024.302
2024312.0,222.0,32.0,226.0,247.0,2024.312
2024322.0,225.0,33.0,220.0,246.0,2024.322
2024332.0,216.0,32.0,220.0,240.0,2024.332
2024342.0,218.0,33.0,219.0,244.0,2024.342
2024352.0,224.0,33.0,226.0,250.0,2024.352
2024363.0,222.0,33.0,227.0,248.0,2024.363
2024373.0,222.0,32.0,220.0,245.0,2024.373
2024383.0,214.0,32.0,217.0,238.0,2024.383
2024393.0,221.0,32.0,225.0,248.0,2024.393
2024403.0,227.0,33.0,226.0,250.0,2024.403
2024413.0,220.0,32.0,225.0,245.0,2024.413
2024423.0,221.0,32.0,219.0,244.0,2024.423
2024433.0,213.0,33.0,215.0,239.0,2024.433
2024443.0,221.0,33.0,223.0,247.0,2024.443
2024453.0,225.0,33.0,224.0,249.0,2024.453
2024463.0,220.0,32.0,223.0,245.0,2024.463
2024473.0,220.0,32.0,217.0,244.0,2024.473
2024483.0,213.0,32.0,214.0,239.0,2024.483
2024493.0,218.0,34.0,218.0,245.0,2024.493
2024503.0,224.0,32.0,223.0,249.0,2024.503
2024513.0,219.0,32.0,221.0,244.0,2024.513
2024523.0,220.0,33.0,217.0,243.0,2024.523
2024534.0,214.0,32.0,214.0,240.0,2024.534
2024544.0,222.0,32.0,223.0,248.0,2024.544
2024554.0,226.0,33.0,220.0,250.0,2024.554
2024564.0,216.0,32.0,217.0,240.0,2024.564
2024574.0,218.0,32.0,214.0,243.0,2024.574
2024584.0,215.0,33.0,214.0,241.0,2024.584
2024594.0,223.0,31.0,224.0,249.0,2024.594
2024604.0,224.0,33.0,220.0,248.0,2024.604
2024614.0,216.0,32.0,218.0,241.0,2024.614
2024624.0,219.0,33.0,217.0,243.0,2024.624
2024634.0,216.0,32.0,217.0,242.0,2024.634
2024644.0,223.0,33.0,225.0,249.0,2024.644
2024654.0,227.0,33.0,222.0,248.0,2024.654
2024664.0,218.0,33.0,220.0,244.0,2024.664
2024674.0,218.0,33.0,217.0,244.0,2024.674
2024684.0,217.0,33.0,217.0,247.0,2024.684
2024694.0,223.0,33.0,226.0,252.0,2024.694
2024704.0,227.0,33.0,224.0,253.0,2024.704
2024714.0,220.0,32.0,220.0,247.0,2024.714
2024724.0,225.0,33.0,217.0,248.0,2024.724
2024734.0,227.0,33.0,219.0,248.0,2024.734
2024744.0,229.0,33.0,225.0,253.0,2024.744
2024754.0,231.0,34.0,224.0,252.0,2024.754
2024764.0,223.0,32.0,219.0,246.0,2024.764
2024774.0,224.0,33.0,218.0,247.0,2024.774
2024784.0,222.0,32.0,222.0,249.0,2024.784
2024794.0,226.0,33.0,226.0,255.0,2024.794
2024804.0,231.0,33.0,226.0,257.0,2024.804
2024814.0,220.0,34.0,220.0,249.0,2024.814
2024824.0,220.0,32.0,217.0,250.0,2024.824
2024834.0,215.0,33.0,216.0,248.0,2024.834
2024844.0,230.0,33.0,225.0,256.0,2024.844
2024854.0,232.0,33.0,224.0,254.0,2024.854
2024864.0,221.0,33.0,220.0,248.0,2024.864
2024875.0,222.0,33.0,216.0,247.0,2024.875
2024885.0,227.0,33.0,221.0,252.0,2024.885
2024895.0,227.0,32.0,225.0,255.0,2024.895
2024905.0,225.0,33.0,218.0,249.0,2024.905
2024915.0,221.0,32.0,211.0,240.0,2024.915
2024925.0,232.0,33.0,211.0,243.0,2024.925
2024935.0,237.0,33.0,218.0,253.0,2024.935
2024945.0,244.0,33.0,231.0,260.0,2024.945
2024955.0,246.0,32.0,228.0,260.0,2024.955
2024965.0,245.0,32.0,240.0,265.0,2024.965
2024975.0,249.0,33.0,249.0,277.0,2024.975
2024985.0,250.0,33.0,256.0,287.0,2024.985
2024995.0,247.0,32.0,241.0,271.0,2024.995
2025005.0,264.0,34.0,236.0,269.0,2025.005
2025015.0,245.0,32.0,221.0,247.0,2025.015
2025025.0,244.0,33.0,222.0,255.0,2025.025
2025035.0,243.0,33.0,229.0,266.0,2025.035
2025046.0,245.0,32.0,236.0,268.0,2025.046
2025056.0,267.0,33.0,240.0,273.0,2025.056
2025066.0,263.0,33.0,235.0,265.0,2025.066
2025076.0,271.0,33.0,241.0,270.0,2025.076
2025086.0,281.0,33.0,242.0,275.0,2025.086
2025096.0,280.0,33.0,246.0,276.0,2025.096
2025106.0,277.0,33.0,241.0,269.0,2025.106
2025116.0,268.0,33.0,238.0,264.0,2025.116
2025126.0,269.0,33.0,248.0,272.0,2025.126
2025136.0,274.0,34.0,248.0,275.0,2025.136
2025146.0,259.0,32.0,242.0,268.0,2025.146
2025156.0,259.0,33.0,233.0,262.0,2025.156
2025166.0,254.0,32.0,230.0,256.0,2025.166
2025176.0,266.0,33.0,235.0,262.0,2025.176
2025186.0,266.0,33.0,239.0,265.0,2025.186
2025196.0,256.0,32.0,233.0,260.0,2025.196
2025206.0,254.0,32.0,228.0,255.0,2025.206
2025216.0,248.0,32.0,221.0,251.0,2025.216
2025226.0,252.0,33.0,229.0,259.0,2025.226
2025236.0,258.0,33.0,233.0,265.0,2025.236
2025246.0,247.0,33.0,226.0,260.0,2025.246
2025256.0,244.0,32.0,223.0,257.0,2025.256
2025266.0,240.0,33.0,219.0,253.0,2025.266
2025276.0,257.0,32.0,229.0,266.0,2025.276
2025286.0,261.0,33.0,233.0,268.0,2025.286
2025296.0,254.0,32.0,225.0,261.0,2025.296
2025306.0,252.0,33.0,223.0,259.0,2025.306
2025316.0,247.0,32.0,217.0,258.0,2025.316
2025326.0,256.0,34.0,223.0,268.0,2025.326
2025336.0,261.0,32.0,229.0,268.0,2025.336
2025346.0,256.0,32.0,223.0,266.0,2025.346
2025356.0,255.0,33.0,222.0,263.0,2025.356
2025366.0,244.0,32.0,212.0,260.0,2025.366
2025376.0,249.0,33.0,222.0,267.0,2025.376
2025387.0,258.0,33.0,225.0,269.0,2025.387
2025397.0,252.0,32.0,217.0,264.0,2025.397
2025407.0,251.0,33.0,220.0,265.0,2025.407
2025417.0,251.0,33.0,219.0,265.0,2025.417
2025427.0,253.0,31.0,221.0,269.0,2025.427
2025437.0,258.0,34.0,221.0,267.0,2025.437
2025447.0,251.0,32.0,212.0,260.0,2025.447
2025457.0,251.0,33.0,214.0,261.0,2025.457
2025467.0,248.0,32.0,214.0,265.0,2025.467
2025477.0,245.0,32.0,217.0,267.0,2025.477
2025487.0,252.0,33.0,221.0,269.0,2025.487
2025497.0,241.0,32.0,214.0,263.0,2025.497
2025507.0,249.0,32.0,215.0,266.0,2025.507
2025517.0,240.0,33.0,209.0,262.0,2025.517
2025527.0,249.0,32.0,220.0,271.0,2025.527
2025537.0,251.0,33.0,218.0,267.0,2025.537
2025547.0,244.0,32.0,212.0,257.0,2025.547
2025558.0,246.0,32.0,213.0,257.0,2025.558
2025568.0,246.0,32.0,216.0,263.0,2025.568
2025578.0,256.0,32.0,220.0,266.0,2025.578
2025588.0,255.0,32.0,218.0,262.0,2025.588
2025598.0,249.0,32.0,212.0,258.0,2025.598
2025608.0,258.0,32.0,213.0,261.0,2025.608
2025618.0,257.0,31.0,220.0,265.0,2025.618
2025628.0,265.0,32.0,221.0,267.0,2025.628
2025638.0,270.0,32.0,216.0,263.0,2025.638
2025648.0,266.0,33.0,214.0,259.0,2025.648
2025658.0,272.0,32.0,214.0,258.0,2025.658
2025668.0,272.0,32.0,219.0,267.0,2025.668
2025678.0,271.0,32.0,222.0,270.0,2025.678
2025688.0,272.0,32.0,220.0,268.0,2025.688
2025698.0,259.0,32.0,212.0,260.0,2025.698
2025708.0,262.0,33.0,211.0,258.0,2025.708
2025718.0,269.0,32.0,218.0,263.0,2025.718
2025728.0,265.0,32.0,222.0,265.0,2025.728
2025738.0,260.0,32.0,217.0,259.0,2025.738
2025748.0,250.0,33.0,210.0,254.0,2025.748
2025758.0,256.0,32.0,212.0,256.0,2025.758
2025768.0,259.0,33.0,218.0,262.0,2025.768
2025778.0,256.0,33.0,220.0,266.0,2025.778
2025788.0,252.0,32.0,216.0,261.0,2025.788
2025798.0,245.0,32.0,214.0,256.0,2025.798
2025808.0,250.0,33.0,217.0,259.0,2025.808
2025818.0,252.0,33.0,219.0,258.0,2025.818
2025828.0,253.0,32.0,223.0,261.0,2025.828
2025838.0,251.0,33.0,217.0,257.0,2025.838
2025848.0,239.0,32.0,210.0,248.0,2025.848
2025858.0,242.0,32.0,213.0,251.0,2025.858
2025868.0,247.0,32.0,219.0,256.0,2025.868
2025878.0,241.0,33.0,218.0,255.0,2025.878
2025888.0,240.0,33.0,215.0,251.0,2025.888
2025899.0,229.0,33.0,212.0,244.0,2025.899
2025909.0,235.0,32.0,218.0,250.0,2025.909
2025919.0,242.0,33.0,222.0,253.0,2025.919
2025929.0,239.0,33.0,218.0,248.0,2025.929
2025939.0,241.0,33.0,215.0,249.0,2025.939
2025949.0,235.0,32.0,212.0,242.0,2025.949
2025959.0,240.0,33.0,220.0,250.0,2025.959
2025969.0,251.0,34.0,230.0,260.0,2025.969
2025979.0,246.0,32.0,227.0,256.0,2025.979
2025989.0,248.0,33.0,224.0,258.0,2025.989
2025999.0,244.0,32.0,222.0,252.0,2025.999
2026009.0,246.0,33.0,227.0,262.0,2026.009
2026019.0,254.0,33.0,230.0,265.0,2026.019
2026029.0,246.0,33.0,222.0,259.0,2026.029
2026039.0,246.0,32.0,219.0,256.0,2026.039
2026049.0,244.0,32.0,216.0,250.0,2026.049
2026059.0,251.0,33.0,228.0,263.0,2026.059
2026070.0,263.0,33.0,232.0,270.0,2026.07
2026080.0,253.0,33.0,228.0,265.0,2026.08
2026090.0,256.0,33.0,225.0,268.0,2026.09
2026100.0,253.0,33.0,224.0,264.0,2026.1
2026110.0,261.0,32.0,233.0,268.0,2026.11
2026120.0,259.0,33.0,232.0,269.0,2026.12
2026130.0,249.0,31.0,227.0,260.0,2026.13
2026140.0,256.0,33.0,224.0,260.0,2026.14
2026150.0,255.0,32.0,228.0,264.0,2026.15
2026160.0,259.0,33.0,234.0,267.0,2026.16
2026170.0,262.0,32.0,233.0,270.0,2026.17
2026180.0,259.0,32.0,229.0,264.0,2026.18
2026190.0,253.0,33.0,225.0,262.0,2026.19
2026200.0,243.0,33.0,222.0,256.0,2026.2
2026210.0,257.0,32.0,231.0,265.0,2026.21
2026220.0,258.0,34.0,231.0,267.0,2026.22
2026230.0,248.0,32.0,225.0,256.0,2026.23
2026240.0,247.0,32.0,225.0,256.0,2026.24
2026250.0,245.0,32.0,225.0,254.0,2026.25
2026260.0,254.0,32.0,232.0,262.0,2026.26
2026270.0,254.0,32.0,233.0,260.0,2026.27
2026280.0,248.0,32.0,227.0,250.0,2026.28
2026290.0,253.0,33.0,228.0,258.0,2026.29
2026300.0,246.0,33.0,225.0,254.0,2026.3
2026310.0,255.0,33.0,234.0,264.0,2026.31
2026320.0,257.0,33.0,233.0,263.0,2026.32
2026330.0,246.0,32.0,226.0,253.0,2026.33
2026340.0,245.0,32.0,225.0,253.0,2026.34
2026350.0,244.0,34.0,222.0,251.0,2026.35
2026360.0,249.0,32.0,228.0,256.0,2026.36
2026370.0,254.0,33.0,228.0,256.0,2026.37
2026380.0,248.0,32.0,223.0,250.0,2026.38
2026390.0,242.0,33.0,221.0,250.0,2026.39
2026400.0,239.0,32.0,220.0,251.0,2026.4
2026411.0,240.0,33.0,226.0,257.0,2026.411
2026421.0,230.0,32.0,223.0,252.0,2026.421
2026431.0,220.0,32.0,213.0,241.0,2026.431
2026441.0,226.0,33.0,213.0,243.0,2026.441
2026451.0,248.0,31.0,220.0,248.0,2026.451
2026461.0,252.0,32.0,220.0,247.0,2026.461
2026471.0,253.0,33.0,221.0,246.0,2026.471
2026481.0,256.0,33.0,211.0,238.0,2026.481
2026491.0,264.0,32.0,214.0,245.0,2026.491
2026501.0,260.0,33.0,213.0,245.0,2026.501
2026511.0,257.0,31.0,213.0,246.0,2026.511
2026521.0,256.0,33.0,213.0,241.0,2026.521
2026531.0,249.0,32.0,202.0,241.0,2026.531
2026541.0,251.0,33.0,210.0,247.0,2026.541
2026551.0,263.0,32.0,216.0,254.0,2026.551
2026561.0,268.0,33.0,219.0,263.0,2026.561
2026571.0,270.0,33.0,227.0,271.0,2026.571
2026582.0,255.0,33.0,208.0,259.0,2026.582
2026592.0,257.0,32.0,223.0,275.0,2026.592
2026602.0,259.0,35.0,229.0,278.0,2026.602
2026612.0,249.0,33.0,214.0,260.0,2026.612
2026622.0,249.0,33.0,220.0,265.0,2026.622
2026632.0,243.0,33.0,209.0,263.0,2026.632
2026642.0,246.0,33.0,212.0,264.0,2026.642
2026652.0,251.0,34.0,217.0,265.0,2026.652
2026662.0,243.0,33.0,204.0,252.0,2026.662
2026672.0,242.0,35.0,218.0,258.0,2026.672
2026682.0,233.0,32.0,199.0,243.0,2026.682
2026692.0,235.0,33.0,205.0,249.0,2026.692
2026702.0,241.0,33.0,221.0,257.0,2026.702
2026712.0,234.0,33.0,208.0,249.0,2026.712
2026722.0,232.0,33.0,220.0,249.0,2026.722
2026732.0,224.0,34.0,201.0,237.0,2026.732
2026742.0,231.0,33.0,213.0,246.0,2026.742
2026752.0,233.0,34.0,224.0,250.0,2026.752
2026762.0,230.0,34.0,213.0,243.0,2026.762
2026772.0,228.0,34.0,225.0,241.0,2026.772
2026782.0,221.0,33.0,207.0,230.0,2026.782
2026792.0,232.0,33.0,224.0,241.0,2026.792
2026802.0,237.0,34.0,238.0,248.0,2026.802
2026812.0,233.0,33.0,225.0,242.0,2026.812
2026822.0,230.0,34.0,247.0,245.0,2026.822
2026832.0,223.0,33.0,231.0,235.0,2026.832
2026842.0,226.0,33.0,244.0,241.0,2026.842
2026852.0,231.0,33.0,260.0,249.0,2026.852
2026862.0,227.0,33.0,246.0,244.0,2026.862
2026872.0,226.0,32.0,272.0,243.0,2026.872
2026882.0,221.0,33.0,253.0,236.0,2026.882
2026892.0,225.0,33.0,274.0,243.0,2026.892
2026902.0,232.0,34.0,286.0,250.0,2026.902
2026912.0,228.0,33.0,272.0,242.0,2026.912
2026923.0,226.0,34.0,302.0,245.0,2026.923
2026933.0,220.0,32.0,289.0,237.0,2026.933
2026943.0,226.0,32.0,303.0,246.0,2026.943
2026953.0,229.0,33.0,324.0,248.0,2026.953
2026963.0,221.0,33.0,305.0,238.0,2026.963
2026973.0,222.0,33.0,334.0,241.0,2026.973
2026983.0,218.0,33.0,322.0,238.0,2026.983
2026993.0,226.0,34.0,335.0,246.0,2026.993
2027003.0,227.0,32.0,354.0,249.0,2027.003
2027013.0,223.0,32.0,340.0,243.0,2027.013
2027023.0,223.0,33.0,371.0,243.0,2027.023
2027033.0,218.0,34.0,356.0,240.0,2027.033
2027043.0,225.0,32.0,369.0,247.0,2027.043
2027053.0,225.0,34.0,379.0,248.0,2027.053
2027063.0,221.0,32.0,375.0,240.0,2027.063
2027073.0,221.0,33.0,400.0,241.0,2027.073
2027083.0,219.0,33.0,394.0,241.0,2027.083
2027094.0,226.0,33.0,404.0,247.0,2027.094
2027104.0,225.0,33.0,414.0,245.0,2027.104
2027114.0,219.0,33.0,414.0,237.0,2027.114
2027124.0,215.0,33.0,429.0,240.0,2027.124
2027134.0,220.0,33.0,431.0,245.0,2027.134
2027144.0,221.0,33.0,439.0,246.0,2027.144
2027154.0,222.0,33.0,443.0,243.0,2027.154
2027164.0,214.0,33.0,446.0,233.0,2027.164
2027174.0,217.0,33.0,447.0,236.0,2027.174
2027184.0,218.0,35.0,446.0,239.0,2027.184
2027194.0,224.0,33.0,443.0,244.0,2027.194
2027204.0,223.0,34.0,438.0,242.0,2027.204
2027214.0,219.0,33.0,434.0,234.0,2027.214
2027224.0,216.0,34.0,426.0,239.0,2027.224
2027234.0,218.0,33.0,420.0,241.0,2027.234
2027244.0,222.0,34.0,411.0,246.0,2027.244
2027254.0,221.0,34.0,402.0,243.0,2027.254
2027264.0,218.0,33.0,394.0,239.0,2027.264
2027274.0,219.0,33.0,384.0,242.0,2027.274
2027284.0,222.0,33.0,376.0,245.0,2027.284
2027294.0,224.0,33.0,365.0,247.0,2027.294
2027304.0,223.0,33.0,355.0,246.0,2027.304
2027314.0,218.0,33.0,347.0,240.0,2027.314
2027324.0,220.0,32.0,337.0,242.0,2027.324
2027334.0,223.0,33.0,328.0,247.0,2027.334
2027344.0,225.0,31.0,318.0,248.0,2027.344
2027354.0,226.0,33.0,309.0,248.0,2027.354
2027364.0,220.0,32.0,299.0,239.0,2027.364
2027374.0,220.0,33.0,289.0,242.0,2027.374
2027384.0,224.0,32.0,280.0,247.0,2027.384
2027394.0,225.0,32.0,271.0,249.0,2027.394
2027404.0,226.0,33.0,263.0,247.0,2027.404
2027414.0,219.0,31.0,252.0,240.0,2027.414
2027424.0,220.0,33.0,244.0,242.0,2027.424
2027435.0,225.0,33.0,235.0,249.0,2027.435
2027445.0,226.0,32.0,227.0,246.0,2027.445
2027455.0,224.0,32.0,217.0,244.0,2027.455
2027465.0,217.0,32.0,211.0,235.0,2027.465
2027475.0,224.0,33.0,202.0,246.0,2027.475
2027485.0,226.0,33.0,195.0,249.0,2027.485
2027495.0,225.0,32.0,187.0,247.0,2027.495
2027505.0,223.0,33.0,179.0,245.0,2027.505
2027515.0,216.0,32.0,174.0,237.0,2027.515
2027525.0,221.0,33.0,167.0,242.0,2027.525
2027535.0,227.0,32.0,160.0,249.0,2027.535
2027545.0,224.0,33.0,153.0,246.0,2027.545
2027555.0,224.0,33.0,147.0,244.0,2027.555
2027565.0,219.0,33.0,142.0,239.0,2027.565
2027575.0,221.0,32.0,135.0,244.0,2027.575
2027585.0,225.0,32.0,129.0,250.0,2027.585
2027595.0,223.0,32.0,125.0,246.0,2027.595
2027606.0,221.0,31.0,118.0,245.0,2027.606
2027616.0,215.0,32.0,114.0,240.0,2027.616
2027626.0,223.0,33.0,109.0,251.0,2027.626
2027636.0,226.0,33.0,104.0,251.0,2027.636
2027646.0,220.0,32.0,99.0,244.0,2027.646
2027656.0,221.0,32.0,95.0,245.0,2027.656
2027666.0,216.0,32.0,91.0,241.0,2027.666
2027676.0,224.0,32.0,86.0,251.0,2027.676
2027686.0,226.0,32.0,82.0,252.0,2027.686
2027696.0,224.0,32.0,78.0,247.0,2027.696
2027706.0,222.0,32.0,75.0,245.0,2027.706
2027716.0,217.0,32.0,71.0,241.0,2027.716
2027726.0,229.0,31.0,69.0,249.0,2027.726
2027736.0,228.0,31.0,64.0,250.0,2027.736
2027746.0,224.0,32.0,62.0,243.0,2027.746
2027756.0,223.0,32.0,58.0,245.0,2027.756
2027766.0,220.0,31.0,55.0,241.0,2027.766
2027776.0,223.0,32.0,53.0,248.0,2027.776
2027786.0,228.0,32.0,50.0,251.0,2027.786
2027796.0,223.0,31.0,47.0,245.0,2027.796
2027806.0,222.0,31.0,44.0,245.0,2027.806
2027816.0,219.0,32.0,42.0,245.0,2027.816
2027826.0,223.0,32.0,39.0,249.0,2027.826
2027836.0,228.0,32.0,37.0,251.0,2027.836
2027846.0,223.0,31.0,34.0,244.0,2027.846
2027856.0,222.0,31.0,33.0,244.0,2027.856
2027866.0,216.0,31.0,31.0,240.0,2027.866
2027876.0,222.0,31.0,29.0,249.0,2027.876
2027886.0,225.0,31.0,26.0,250.0,2027.886
2027896.0,220.0,30.0,25.0,243.0,2027.896
2027906.0,221.0,31.0,22.0,244.0,2027.906
2027916.0,216.0,31.0,22.0,239.0,2027.916
2027926.0,223.0,31.0,18.0,249.0,2027.926
2027936.0,225.0,31.0,17.0,248.0,2027.936
2027947.0,219.0,31.0,16.0,242.0,2027.947
2027957.0,219.0,32.0,15.0,243.0,2027.957
2027967.0,221.0,32.0,14.0,247.0,2027.967
2027977.0,225.0,31.0,13.0,250.0,2027.977
2027987.0,224.0,30.0,11.0,247.0,2027.987
2027997.0,219.0,31.0,11.0,243.0,2027.997
2028007.0,221.0,31.0,9.0,245.0,2028.007
2028017.0,223.0,31.0,9.0,248.0,2028.017
2028027.0,226.0,30.0,9.0,250.0,2028.027
2028037.0,226.0,33.0,8.0,250.0,2028.037
2028047.0,219.0,31.0,8.0,243.0,2028.047
2028057.0,219.0,31.0,6.0,245.0,2028.057
2028067.0,221.0,31.0,7.0,250.0,2028.067
2028077.0,223.0,31.0,6.0,253.0,2028.077
2028087.0,225.0,30.0,6.0,250.0,2028.087
2028097.0,217.0,31.0,5.0,243.0,2028.097
2028107.0,219.0,31.0,7.0,244.0,2028.107
2028118.0,226.0,31.0,5.0,250.0,2028.118
2028128.0,226.0,31.0,6.0,250.0,2028.128
2028138.0,225.0,32.0,5.0,247.0,2028.138
2028148.0,216.0,32.0,5.0,240.0,2028.148
2028158.0,222.0,31.0,5.0,247.0,2028.158
2028168.0,224.0,31.0,5.0,251.0,2028.168
2028178.0,224.0,31.0,5.0,250.0,2028.178
2028188.0,222.0,31.0,4.0,246.0,2028.188
2028198.0,214.0,31.0,4.0,240.0,2028.198
2028208.0,218.0,31.0,4.0,244.0,2028.208
2028218.0,224.0,32.0,5.0,250.0,2028.218
2028228.0,223.0,31.0,4.0,249.0,2028.228
2028238.0,227.0,31.0,5.0,246.0,2028.238
2028248.0,217.0,31.0,4.0,241.0,2028.248
2028258.0,220.0,32.0,4.0,245.0,2028.258
2028268.0,226.0,32.0,3.0,251.0,2028.268
2028278.0,222.0,30.0,4.0,247.0,2028.278
2028288.0,224.0,33.0,3.0,247.0,2028.288
2028298.0,214.0,32.0,5.0,239.0,2028.298
2028308.0,218.0,31.0,4.0,245.0,2028.308
2028318.0,224.0,32.0,4.0,251.0,2028.318
2028328.0,223.0,31.0,4.0,248.0,2028.328
2028338.0,226.0,32.0,4.0,247.0,2028.338
2028348.0,217.0,32.0,4.0,240.0,2028.348
2028358.0,221.0,32.0,4.0,245.0,2028.358
2028368.0,229.0,31.0,5.0,250.0,2028.368
2028378.0,224.0,31.0,4.0,248.0,2028.378
2028388.0,224.0,31.0,4.0,244.0,2028.388
2028398.0,216.0,33.0,3.0,238.0,2028.398
2028408.0,221.0,31.0,5.0,245.0,2028.408
2028418.0,223.0,33.0,3.0,249.0,2028.418
2028428.0,223.0,32.0,5.0,246.0,2028.428
2028438.0,222.0,31.0,4.0,244.0,2028.438
2028448.0,212.0,31.0,4.0,237.0,2028.448
2028459.0,219.0,32.0,3.0,247.0,2028.459
2028469.0,225.0,32.0,4.0,249.0,2028.469
2028479.0,219.0,31.0,4.0,245.0,2028.479
2028489.0,217.0,32.0,4.0,243.0,2028.489
2028499.0,212.0,31.0,4.0,242.0,2028.499
2028509.0,217.0,32.0,5.0,246.0,2028.509
2028519.0,222.0,32.0,4.0,250.0,2028.519
2028529.0,214.0,32.0,4.0,245.0,2028.529
2028539.0,216.0,31.0,4.0,244.0,2028.539
2028549.0,208.0,32.0,3.0,240.0,2028.549
2028559.0,218.0,31.0,5.0,249.0,2028.559
2028569.0,222.0,32.0,4.0,251.0,2028.569
2028579.0,214.0,31.0,4.0,246.0,2028.579
2028589.0,216.0,32.0,4.0,246.0,2028.589
2028599.0,209.0,32.0,4.0,241.0,2028.599
2028609.0,219.0,32.0,4.0,251.0,2028.609
2028619.0,223.0,32.0,5.0,252.0,2028.619
2028630.0,214.0,31.0,4.0,246.0,2028.63
2028640.0,217.0,32.0,4.0,246.0,2028.64
2028650.0,216.0,32.0,4.0,249.0,2028.65
2028660.0,221.0,31.0,4.0,252.0,2028.66
2028670.0,226.0,31.0,4.0,249.0,2028.67
2028680.0,217.0,31.0,3.0,247.0,2028.68
2028690.0,220.0,31.0,4.0,247.0,2028.69
2028700.0,220.0,31.0,4.0,248.0,2028.7
2028710.0,222.0,32.0,4.0,253.0,2028.71
2028720.0,225.0,33.0,3.0,250.0,2028.72
2028730.0,216.0,32.0,4.0,245.0,2028.73
2028740.0,217.0,32.0,4.0,246.0,2028.74
2028750.0,220.0,32.0,5.0,250.0,2028.75
2028760.0,221.0,31.0,4.0,253.0,2028.76
2028770.0,223.0,32.0,4.0,251.0,2028.77
2028780.0,215.0,32.0,3.0,246.0,2028.78
2028790.0,217.0,32.0,3.0,246.0,2028.79
2028800.0,215.0,33.0,3.0,247.0,2028.8
2028810.0,222.0,32.0,5.0,254.0,2028.81
2028820.0,224.0,31.0,4.0,251.0,2028.82
2028830.0,214.0,32.0,4.0,245.0,2028.83
2028840.0,217.0,33.0,4.0,247.0,2028.84
2028850.0,214.0,32.0,4.0,247.0,2028.85
2028860.0,220.0,32.0,4.0,253.0,2028.86
2028870.0,222.0,32.0,4.0,250.0,2028.87
2028880.0,214.0,31.0,4.0,246.0,2028.88
2028890.0,217.0,32.0,4.0,247.0,2028.89
2028900.0,216.0,33.0,4.0,249.0,2028.9
2028910.0,221.0,33.0,3.0,254.0,2028.91
2028920.0,222.0,32.0,4.0,250.0,2028.92
2028930.0,216.0,33.0,3.0,249.0,2028.93
2028940.0,217.0,32.0,5.0,248.0,2028.94
2028950.0,216.0,33.0,2.0,251.0,2028.95
2028960.0,220.0,33.0,4.0,254.0,2028.96
2028971.0,221.0,34.0,3.0,252.0,2028.971
2028981.0,211.0,33.0,3.0,244.0,2028.981
2028991.0,215.0,32.0,4.0,249.0,2028.991
2029001.0,222.0,33.0,5.0,255.0,2029.001
2029011.0,218.0,33.0,4.0,253.0,2029.011
2029021.0,221.0,33.0,4.0,250.0,2029.021
2029031.0,212.0,32.0,4.0,245.0,2029.031
2029041.0,215.0,33.0,3.0,250.0,2029.041
2029051.0,221.0,32.0,4.0,255.0,2029.051
2029061.0,219.0,34.0,4.0,254.0,2029.061
2029071.0,221.0,33.0,4.0,249.0,2029.071
2029081.0,211.0,33.0,4.0,244.0,2029.081
2029091.0,216.0,33.0,4.0,250.0,2029.091
2029101.0,218.0,33.0,4.0,253.0,2029.101
2029111.0,220.0,33.0,4.0,252.0,2029.111
2029121.0,220.0,33.0,4.0,249.0,2029.121
2029131.0,212.0,33.0,5.0,243.0,2029.131
2029142.0,216.0,34.0,4.0,250.0,2029.142
2029152.0,223.0,33.0,4.0,253.0,2029.152
2029162.0,217.0,34.0,3.0,251.0,2029.162
2029172.0,218.0,34.0,4.0,247.0,2029.172
2029182.0,212.0,34.0,4.0,245.0,2029.182
2029192.0,217.0,33.0,3.0,250.0,2029.192
2029202.0,223.0,34.0,4.0,252.0,2029.202
2029212.0,217.0,34.0,4.0,247.0,2029.212
2029222.0,219.0,33.0,4.0,246.0,2029.222
2029232.0,211.0,33.0,3.0,241.0,2029.232
2029242.0,218.0,34.0,4.0,250.0,2029.242
2029252.0,223.0,34.0,4.0,252.0,2029.252
2029262.0,217.0,33.0,5.0,248.0,2029.262
2029272.0,219.0,33.0,4.0,248.0,2029.272
2029282.0,210.0,33.0,4.0,241.0,2029.282
2029292.0,218.0,34.0,3.0,252.0,2029.292
2029302.0,223.0,32.0,4.0,254.0,2029.302
2029312.0,219.0,34.0,3.0,252.0,2029.312
2029322.0,219.0,34.0,5.0,248.0,2029.322
2029332.0,211.0,33.0,4.0,243.0,2029.332
2029342.0,219.0,33.0,4.0,252.0,2029.342
2029352.0,224.0,33.0,4.0,253.0,2029.352
2029362.0,218.0,33.0,4.0,249.0,2029.362
2029372.0,220.0,32.0,4.0,247.0,2029.372
2029382.0,212.0,33.0,4.0,243.0,2029.382
2029392.0,222.0,33.0,4.0,253.0,2029.392
2029402.0,225.0,33.0,3.0,253.0,2029.402
2029412.0,219.0,33.0,4.0,249.0,2029.412
2029422.0,219.0,34.0,3.0,248.0,2029.422
2029432.0,214.0,32.0,4.0,244.0,2029.432
2029442.0,219.0,33.0,3.0,249.0,2029.442
2029452.0,225.0,33.0,5.0,253.0,2029.452
2029462.0,219.0,32.0,3.0,248.0,2029.462
2029472.0,219.0,33.0,4.0,247.0,2029.472
2029483.0,214.0,33.0,4.0,246.0,2029.483
2029493.0,221.0,32.0,4.0,252.0,2029.493
2029503.0,224.0,33.0,3.0,251.0,2029.503
2029513.0,216.0,32.0,5.0,245.0,2029.513
2029523.0,217.0,33.0,4.0,246.0,2029.523
2029533.0,214.0,32.0,5.0,246.0,2029.533
2029543.0,219.0,32.0,3.0,252.0,2029.543
2029553.0,221.0,34.0,3.0,248.0,2029.553
2029563.0,213.0,32.0,4.0,243.0,2029.563
2029573.0,217.0,33.0,4.0,245.0,2029.573
2029583.0,215.0,33.0,4.0,246.0,2029.583
2029593.0,220.0,32.0,4.0,252.0,2029.593
2029603.0,222.0,32.0,4.0,249.0,2029.603
2029613.0,216.0,32.0,4.0,246.0,2029.613
2029623.0,218.0,32.0,4.0,245.0,2029.623
2029633.0,216.0,32.0,4.0,247.0,2029.633
2029643.0,223.0,32.0,5.0,252.0,2029.643
2029654.0,227.0,33.0,4.0,249.0,2029.654
2029664.0,216.0,32.0,4.0,244.0,2029.664
2029674.0,219.0,33.0,3.0,247.0,2029.674
2029684.0,224.0,32.0,4.0,252.0,2029.684
2029694.0,223.0,32.0,3.0,251.0,2029.694
2029704.0,223.0,32.0,3.0,249.0,2029.704
2029714.0,216.0,31.0,4.0,242.0,2029.714
2029724.0,218.0,32.0,4.0,246.0,2029.724
2029734.0,225.0,32.0,4.0,253.0,2029.734
2029744.0,224.0,32.0,4.0,252.0,2029.744
2029754.0,223.0,32.0,4.0,248.0,2029.754
2029764.0,214.0,32.0,4.0,242.0,2029.764
2029774.0,220.0,32.0,4.0,248.0,2029.774
2029784.0,220.0,32.0,4.0,250.0,2029.784
2029794.0,223.0,32.0,4.0,252.0,2029.794
2029804.0,222.0,33.0,3.0,248.0,2029.804
2029814.0,215.0,32.0,3.0,242.0,2029.814
2029824.0,218.0,33.0,3.0,246.0,2029.824
2029834.0,222.0,32.0,4.0,250.0,2029.834
2029844.0,222.0,31.0,4.0,251.0,2029.844
2029854.0,221.0,32.0,4.0,247.0,2029.854
2029864.0,213.0,33.0,4.0,241.0,2029.864
2029874.0,217.0,32.0,4.0,245.0,2029.874
2029884.0,222.0,32.0,4.0,250.0,2029.884
2029894.0,224.0,32.0,4.0,250.0,2029.894
2029904.0,224.0,32.0,4.0,247.0,2029.904
2029914.0,217.0,32.0,5.0,241.0,2029.914
2029924.0,220.0,32.0,4.0,245.0,2029.924
2029934.0,224.0,33.0,4.0,252.0,2029.934
2029944.0,223.0,32.0,4.0,249.0,2029.944
2029954.0,223.0,33.0,3.0,249.0,2029.954
2029964.0,216.0,31.0,5.0,242.0,2029.964
2029974.0,218.0,31.0,4.0,245.0,2029.974
2029984.0,223.0,32.0,4.0,252.0,2029.984
2029995.0,222.0,33.0,3.0,251.0,2029.995
2030005.0,221.0,32.0,4.0,246.0,2030.005
2030015.0,213.0,32.0,4.0,239.0,2030.015
2030025.0,221.0,32.0,5.0,248.0,2030.025
2030035.0,224.0,33.0,3.0,250.0,2030.035
2030045.0,220.0,32.0,3.0,247.0,2030.045
2030055.0,220.0,33.0,4.0,245.0,2030.055
2030065.0,212.0,32.0,4.0,239.0,2030.065
2030075.0,222.0,32.0,4.0,250.0,2030.075
2030085.0,224.0,33.0,4.0,250.0,2030.085
2030095.0,221.0,32.0,4.0,246.0,2030.095
2030105.0,219.0,33.0,4.0,245.0,2030.105
2030115.0,213.0,33.0,4.0,240.0,2030.115
2030125.0,219.0,33.0,4.0,246.0,2030.125
2030135.0,229.0,32.0,4.0,251.0,2030.135
2030145.0,223.0,33.0,4.0,246.0,2030.145
2030155.0,224.0,33.0,4.0,245.0,2030.155
2030166.0,216.0,33.0,4.0,241.0,2030.166
2030176.0,224.0,32.0,4.0,249.0,2030.176
2030186.0,226.0,34.0,3.0,250.0,2030.186
2030196.0,217.0,32.0,3.0,242.0,2030.196
2030206.0,219.0,33.0,3.0,243.0,2030.206
2030216.0,215.0,32.0,4.0,242.0,2030.216
2030226.0,223.0,33.0,4.0,250.0,2030.226
2030236.0,224.0,33.0,4.0,249.0,2030.236
2030246.0,216.0,32.0,4.0,243.0,2030.246
2030256.0,219.0,33.0,4.0,245.0,2030.256
2030266.0,216.0,32.0,4.0,243.0,2030.266
2030276.0,222.0,33.0,4.0,251.0,2030.276
2030286.0,224.0,33.0,4.0,249.0,2030.286
2030296.0,217.0,32.0,4.0,246.0,2030.296
2030306.0,219.0,32.0,4.0,245.0,2030.306
2030316.0,216.0,32.0,3.0,245.0,2030.316
2030326.0,223.0,32.0,4.0,250.0,2030.326
2030336.0,224.0,34.0,3.0,251.0,2030.336
2030346.0,220.0,33.0,5.0,245.0,2030.346
2030356.0,222.0,33.0,4.0,245.0,2030.356
2030366.0,220.0,33.0,4.0,247.0,2030.366
2030376.0,225.0,33.0,3.0,253.0,2030.376
2030386.0,226.0,33.0,3.0,252.0,2030.386
2030396.0,218.0,33.0,4.0,246.0,2030.396
2030406.0,220.0,33.0,4.0,245.0,2030.406
2030416.0,221.0,33.0,4.0,248.0,2030.416
2030426.0,222.0,33.0,4.0,252.0,2030.426
2030436.0,225.0,33.0,3.0,252.0,2030.436
2030446.0,217.0,33.0,3.0,245.0,2030.446
2030456.0,219.0,33.0,4.0,244.0,2030.456
2030466.0,215.0,34.0,3.0,244.0,2030.466
2030476.0,224.0,33.0,5.0,251.0,2030.476
2030486.0,225.0,34.0,4.0,249.0,2030.486
2030496.0,217.0,32.0,4.0,243.0,2030.496
2030507.0,219.0,34.0,3.0,245.0,2030.507
2030517.0,221.0,32.0,4.0,250.0,2030.517
2030527.0,223.0,33.0,4.0,251.0,2030.527
2030537.0,223.0,33.0,5.0,246.0,2030.537
2030547.0,215.0,32.0,4.0,239.0,2030.547
2030557.0,218.0,33.0,4.0,244.0,2030.557
2030567.0,222.0,33.0,4.0,250.0,2030.567
2030577.0,222.0,33.0,4.0,249.0,2030.577
2030587.0,219.0,33.0,4.0,246.0,2030.587
2030597.0,212.0,33.0,3.0,242.0,2030.597
2030607.0,216.0,33.0,4.0,243.0,2030.607
2030617.0,218.0,33.0,4.0,249.0,2030.617
2030627.0,219.0,33.0,4.0,249.0,2030.627
2030637.0,222.0,33.0,4.0,248.0,2030.637
2030647.0,214.0,32.0,4.0,242.0,2030.647
2030657.0,215.0,33.0,4.0,244.0,2030.657
2030667.0,222.0,33.0,5.0,251.0,2030.667
2030678.0,220.0,32.0,4.0,249.0,2030.678
2030688.0,220.0,32.0,4.0,245.0,2030.688
2030698.0,212.0,34.0,3.0,240.0,2030.698
2030708.0,219.0,32.0,4.0,249.0,2030.708
2030718.0,224.0,32.0,4.0,253.0,2030.718
2030728.0,220.0,32.0,4.0,250.0,2030.728
2030738.0,219.0,32.0,4.0,247.0,2030.738
2030748.0,212.0,33.0,4.0,240.0,2030.748
2030758.0,220.0,33.0,4.0,251.0,2030.758
2030768.0,223.0,32.0,4.0,251.0,2030.768
2030778.0,217.0,32.0,4.0,247.0,2030.778
2030788.0,216.0,32.0,4.0,246.0,2030.788
2030798.0,210.0,33.0,4.0,240.0,2030.798
2030808.0,215.0,32.0,4.0,245.0,2030.808
2030818.0,221.0,33.0,4.0,250.0,2030.818
2030828.0,218.0,32.0,3.0,247.0,2030.828
2030838.0,218.0,32.0,4.0,244.0,2030.838
2030848.0,212.0,33.0,3.0,238.0,2030.848
2030858.0,218.0,32.0,5.0,245.0,2030.858
2030868.0,223.0,32.0,4.0,251.0,2030.868
2030878.0,219.0,32.0,4.0,247.0,2030.878
2030888.0,219.0,33.0,3.0,245.0,2030.888
2030898.0,213.0,32.0,4.0,238.0,2030.898
2030908.0,219.0,32.0,4.0,246.0,2030.908
2030918.0,224.0,33.0,4.0,250.0,2030.918
2030928.0,220.0,31.0,4.0,246.0,2030.928
2030938.0,221.0,33.0,4.0,246.0,2030.938
2030948.0,214.0,32.0,3.0,238.0,2030.948
2030958.0,221.0,33.0,3.0,248.0,2030.958
2030968.0,226.0,32.0,4.0,250.0,2030.968
2030978.0,223.0,32.0,4.0,248.0,2030.978
2030988.0,222.0,32.0,5.0,245.0,2030.988
2030998.0,214.0,32.0,4.0,239.0,2030.998
2031008.0,223.0,32.0,4.0,250.0,2031.008
2031019.0,226.0,33.0,3.0,251.0,2031.019
2031029.0,221.0,32.0,4.0,244.0,2031.029
2031039.0,216.0,32.0,4.0,244.0,2031.039
2031049.0,214.0,33.0,5.0,245.0,2031.049
2031059.0,220.0,31.0,4.0,251.0,2031.059
2031069.0,222.0,33.0,4.0,249.0,2031.069
2031079.0,216.0,32.0,4.0,245.0,2031.079
2031089.0,217.0,32.0,3.0,244.0,2031.089
2031099.0,216.0,32.0,4.0,246.0,2031.099
2031109.0,220.0,32.0,3.0,250.0,2031.109
2031119.0,224.0,33.0,4.0,250.0,2031.119
2031129.0,216.0,32.0,4.0,244.0,2031.129
2031139.0,218.0,33.0,3.0,244.0,2031.139
2031149.0,213.0,32.0,3.0,242.0,2031.149
2031159.0,222.0,32.0,4.0,250.0,2031.159
2031169.0,225.0,33.0,3.0,250.0,2031.169
2031179.0,218.0,32.0,5.0,244.0,2031.179
2031190.0,218.0,33.0,4.0,244.0,2031.19
2031200.0,224.0,32.0,4.0,249.0,2031.2
2031210.0,227.0,33.0,3.0,252.0,2031.21
2031220.0,226.0,32.0,3.0,247.0,2031.22
2031230.0,217.0,32.0,3.0,241.0,2031.23
2031240.0,221.0,33.0,4.0,244.0,2031.24
2031250.0,223.0,33.0,3.0,249.0,2031.25
2031260.0,224.0,32.0,3.0,250.0,2031.26
2031270.0,223.0,33.0,4.0,248.0,2031.27
2031280.0,218.0,33.0,3.0,244.0,2031.28
2031290.0,220.0,33.0,4.0,244.0,2031.29
2031300.0,223.0,33.0,2.0,250.0,2031.3
2031310.0,225.0,31.0,4.0,250.0,2031.31
2031320.0,224.0,32.0,4.0,249.0,2031.32
2031330.0,217.0,32.0,4.0,244.0,2031.33
2031340.0,219.0,34.0,3.0,246.0,2031.34
2031350.0,223.0,32.0,4.0,250.0,2031.35
2031360.0,223.0,32.0,4.0,252.0,2031.36
2031370.0,225.0,33.0,5.0,249.0,2031.37
2031380.0,218.0,32.0,4.0,243.0,2031.38
2031390.0,221.0,32.0,4.0,245.0,2031.39
2031400.0,225.0,33.0,3.0,253.0,2031.4
2031410.0,225.0,32.0,3.0,252.0,2031.41
2031420.0,224.0,32.0,4.0,248.0,2031.42
2031430.0,216.0,32.0,5.0,243.0,2031.43
2031440.0,219.0,32.0,4.0,246.0,2031.44
2031450.0,220.0,33.0,4.0,249.0,2031.45
2031460.0,224.0,32.0,4.0,252.0,2031.46
2031470.0,223.0,33.0,3.0,248.0,2031.47
2031480.0,216.0,32.0,4.0,242.0,2031.48
2031490.0,219.0,33.0,3.0,247.0,2031.49
2031500.0,222.0,33.0,4.0,250.0,2031.5
2031510.0,224.0,33.0,2.0,253.0,2031.51
2031520.0,223.0,33.0,4.0,248.0,2031.52
2031531.0,215.0,33.0,3.0,243.0,2031.531
2031541.0,218.0,32.0,4.0,247.0,2031.541
2031551.0,224.0,33.0,4.0,253.0,2031.551
2031561.0,223.0,33.0,3.0,250.0,2031.561
2031571.0,222.0,33.0,4.0,248.0,2031.571
2031581.0,215.0,32.0,4.0,242.0,2031.581
2031591.0,220.0,33.0,4.0,250.0,2031.591
2031601.0,226.0,34.0,4.0,253.0,2031.601
2031611.0,221.0,32.0,4.0,251.0,2031.611
2031621.0,221.0,32.0,4.0,250.0,2031.621
2031631.0,215.0,32.0,4.0,244.0,2031.631
2031641.0,220.0,33.0,4.0,252.0,2031.641
2031651.0,226.0,32.0,4.0,255.0,2031.651
2031661.0,225.0,33.0,3.0,256.0,2031.661
2031671.0,227.0,32.0,4.0,251.0,2031.671
2031681.0,217.0,33.0,4.0,246.0,2031.681
2031691.0,224.0,33.0,4.0,254.0,2031.691
2031702.0,228.0,33.0,4.0,256.0,2031.702
2031712.0,222.0,32.0,4.0,253.0,2031.712
2031722.0,222.0,34.0,3.0,251.0,2031.722
2031732.0,218.0,32.0,4.0,251.0,2031.732
2031742.0,224.0,33.0,3.0,259.0,2031.742
2031752.0,226.0,33.0,4.0,257.0,2031.752
2031762.0,219.0,32.0,4.0,254.0,2031.762
2031772.0,219.0,33.0,4.0,252.0,2031.772
2031782.0,217.0,33.0,3.0,254.0,2031.782
2031792.0,221.0,33.0,4.0,257.0,2031.792
2031802.0,225.0,33.0,4.0,257.0,2031.802
2031812.0,218.0,33.0,4.0,254.0,2031.812
2031822.0,219.0,33.0,4.0,253.0,2031.822
2031832.0,213.0,33.0,4.0,250.0,2031.832
2031842.0,221.0,32.0,4.0,259.0,2031.842
2031852.0,225.0,34.0,3.0,258.0,2031.852
2031862.0,218.0,32.0,4.0,254.0,2031.862
2031872.0,220.0,34.0,3.0,255.0,2031.872
2031882.0,215.0,32.0,5.0,251.0,2031.882
2031892.0,223.0,32.0,4.0,260.0,2031.892
2031902.0,225.0,33.0,4.0,257.0,2031.902
2031912.0,218.0,33.0,3.0,254.0,2031.912
2031922.0,219.0,33.0,3.0,252.0,2031.922
2031932.0,215.0,33.0,3.0,252.0,2031.932
2031942.0,223.0,33.0,4.0,259.0,2031.942
2031952.0,225.0,33.0,4.0,256.0,2031.952
2031962.0,219.0,33.0,4.0,255.0,2031.962
2031972.0,220.0,32.0,4.0,252.0,2031.972
2031982.0,215.0,33.0,3.0,253.0,2031.982
2031992.0,223.0,32.0,3.0,259.0,2031.992
2032002.0,225.0,33.0,4.0,258.0,2032.002
2032012.0,221.0,32.0,5.0,253.0,2032.012
2032022.0,220.0,33.0,4.0,251.0,2032.022
2032032.0,218.0,32.0,4.0,252.0,2032.032
2032043.0,224.0,34.0,3.0,259.0,2032.043
2032053.0,225.0,32.0,4.0,254.0,2032.053
2032063.0,216.0,33.0,4.0,250.0,2032.063
2032073.0,219.0,33.0,5.0,249.0,2032.073
2032083.0,223.0,33.0,2.0,256.0,2032.083
2032093.0,225.0,32.0,5.0,257.0,2032.093
2032103.0,223.0,33.0,3.0,253.0,2032.103
2032113.0,216.0,32.0,3.0,248.0,2032.113
2032123.0,219.0,32.0,4.0,250.0,2032.123
2032133.0,220.0,33.0,3.0,252.0,2032.133
2032143.0,224.0,33.0,4.0,255.0,2032.143
2032153.0,223.0,33.0,3.0,252.0,2032.153
2032163.0,216.0,32.0,4.0,246.0,2032.163
2032173.0,219.0,33.0,3.0,249.0,2032.173
2032183.0,221.0,32.0,4.0,251.0,2032.183
2032193.0,224.0,33.0,3.0,254.0,2032.193
2032203.0,223.0,33.0,4.0,250.0,2032.203
2032214.0,215.0,32.0,4.0,245.0,2032.214
2032224.0,218.0,32.0,4.0,249.0,2032.224
2032234.0,225.0,33.0,3.0,255.0,2032.234
2032244.0,222.0,32.0,4.0,251.0,2032.244
2032254.0,221.0,33.0,4.0,249.0,2032.254
2032264.0,215.0,32.0,3.0,243.0,2032.264
2032274.0,219.0,33.0,3.0,249.0,2032.274
2032284.0,224.0,33.0,4.0,253.0,2032.284
2032294.0,222.0,33.0,3.0,252.0,2032.294
2032304.0,222.0,33.0,3.0,249.0,2032.304
2032314.0,215.0,32.0,4.0,243.0,2032.314
2032324.0,220.0,32.0,4.0,250.0,2032.324
2032334.0,226.0,33.0,4.0,253.0,2032.334
2032344.0,224.0,32.0,2.0,252.0,2032.344
2032354.0,223.0,32.0,4.0,248.0,2032.354
2032364.0,215.0,33.0,3.0,242.0,2032.364
2032374.0,221.0,32.0,4.0,250.0,2032.374
2032384.0,223.0,33.0,3.0,254.0,2032.384
2032394.0,224.0,32.0,4.0,252.0,2032.394
2032404.0,222.0,32.0,2.0,248.0,2032.404
2032414.0,214.0,32.0,4.0,241.0,2032.414
2032424.0,222.0,33.0,3.0,251.0,2032.424
2032434.0,224.0,33.0,3.0,252.0,2032.434
2032444.0,224.0,32.0,3.0,249.0,2032.444
2032454.0,222.0,32.0,4.0,246.0,2032.454
2032464.0,215.0,31.0,4.0,239.0,2032.464
2032474.0,219.0,33.0,3.0,245.0,2032.474
2032484.0,225.0,32.0,4.0,252.0,2032.484
2032494.0,222.0,33.0,3.0,249.0,2032.494
2032504.0,222.0,32.0,4.0,246.0,2032.504
2032514.0,216.0,33.0,3.0,240.0,2032.514
2032524.0,220.0,32.0,5.0,246.0,2032.524
2032534.0,225.0,32.0,4.0,252.0,2032.534
2032544.0,222.0,32.0,4.0,247.0,2032.544
2032555.0,220.0,33.0,3.0,245.0,2032.555
2032565.0,214.0,32.0,4.0,241.0,2032.565
2032575.0,222.0,32.0,4.0,250.0,2032.575
2032585.0,226.0,33.0,5.0,250.0,2032.585
2032595.0,218.0,32.0,4.0,244.0,2032.595
2032605.0,220.0,33.0,4.0,245.0,2032.605
2032615.0,215.0,33.0,3.0,242.0,2032.615
2032625.0,223.0,32.0,3.0,250.0,2032.625
2032635.0,226.0,32.0,4.0,250.0,2032.635
2032645.0,221.0,32.0,4.0,245.0,2032.645
2032655.0,221.0,33.0,4.0,244.0,2032.655
2032665.0,216.0,33.0,3.0,241.0,2032.665
2032675.0,224.0,32.0,4.0,250.0,2032.675
2032685.0,226.0,33.0,4.0,249.0,2032.685
2032695.0,221.0,32.0,4.0,244.0,2032.695
2032705.0,221.0,32.0,4.0,243.0,2032.705
2032715.0,219.0,31.0,4.0,242.0,2032.715
2032726.0,224.0,33.0,4.0,249.0,2032.726
2032736.0,225.0,32.0,4.0,247.0,2032.736
2032746.0,219.0,33.0,3.0,240.0,2032.746
2032756.0,220.0,32.0,4.0,242.0,2032.756
2032766.0,223.0,32.0,4.0,247.0,2032.766
2032776.0,225.0,32.0,4.0,247.0,2032.776
2032786.0,225.0,33.0,4.0,246.0,2032.786
2032796.0,217.0,32.0,4.0,238.0,2032.796
2032806.0,219.0,32.0,4.0,242.0,2032.806
2032816.0,220.0,32.0,4.0,243.0,2032.816
2032826.0,224.0,32.0,3.0,248.0,2032.826
2032836.0,224.0,32.0,4.0,245.0,2032.836
2032846.0,217.0,31.0,4.0,238.0,2032.846
2032856.0,220.0,33.0,4.0,241.0,2032.856
2032866.0,220.0,32.0,4.0,244.0,2032.866
2032876.0,224.0,33.0,3.0,248.0,2032.876
2032886.0,223.0,32.0,4.0,244.0,2032.886
2032896.0,218.0,33.0,3.0,241.0,2032.896
2032906.0,221.0,32.0,5.0,241.0,2032.906
2032916.0,221.0,33.0,4.0,244.0,2032.916
2032926.0,224.0,32.0,4.0,246.0,2032.926
2032936.0,223.0,33.0,3.0,245.0,2032.936
2032946.0,218.0,32.0,4.0,239.0,2032.946
2032956.0,219.0,32.0,4.0,242.0,2032.956
2032966.0,222.0,32.0,5.0,245.0,2032.966
2032976.0,224.0,31.0,4.0,247.0,2032.976
2032986.0,225.0,33.0,4.0,247.0,2032.986
2032996.0,218.0,32.0,4.0,239.0,2032.996
2033006.0,219.0,33.0,3.0,241.0,2033.006
2033016.0,223.0,32.0,3.0,246.0,2033.016
2033026.0,225.0,32.0,3.0,248.0,2033.026
2033036.0,226.0,33.0,5.0,245.0,2033.036
2033046.0,218.0,32.0,4.0,238.0,2033.046
2033056.0,219.0,32.0,3.0,241.0,2033.056
2033067.0,223.0,34.0,3.0,248.0,2033.067
2033077.0,223.0,32.0,3.0,246.0,2033.077
2033087.0,221.0,32.0,3.0,244.0,2033.087
2033097.0,216.0,32.0,5.0,236.0,2033.097
2033107.0,221.0,32.0,4.0,244.0,2033.107
2033117.0,224.0,32.0,3.0,247.0,2033.117
2033127.0,224.0,33.0,3.0,246.0,2033.127
2033137.0,222.0,32.0,3.0,242.0,2033.137
2033147.0,214.0,32.0,4.0,236.0,2033.147
2033157.0,219.0,33.0,4.0,241.0,2033.157
2033167.0,225.0,33.0,4.0,248.0,2033.167
2033177.0,222.0,32.0,4.0,244.0,2033.177
2033187.0,222.0,32.0,4.0,243.0,2033.187
2033197.0,216.0,33.0,3.0,236.0,2033.197
2033207.0,220.0,32.0,4.0,240.0,2033.207
