time (ms),signal 0,signal 1,signal 2,signal 3,time (sec)
2057792.0,218.0,33.0,4.0,240.0,2057.792
2057802.0,214.0,33.0,4.0,235.0,2057.802
2057812.0,213.0,33.0,3.0,234.0,2057.812
2057822.0,206.0,33.0,2.0,228.0,2057.822
2057832.0,212.0,32.0,4.0,235.0,2057.832
2057842.0,217.0,33.0,4.0,239.0,2057.842
2057852.0,213.0,33.0,5.0,233.0,2057.852
2057862.0,214.0,33.0,3.0,234.0,2057.862
2057872.0,206.0,32.0,4.0,225.0,2057.872
2057882.0,213.0,33.0,4.0,236.0,2057.882
2057892.0,218.0,34.0,3.0,240.0,2057.892
2057902.0,215.0,33.0,4.0,236.0,2057.902
2057912.0,214.0,33.0,4.0,235.0,2057.912
2057922.0,207.0,31.0,4.0,227.0,2057.922
2057932.0,214.0,32.0,4.0,237.0,2057.932
2057942.0,218.0,32.0,4.0,241.0,2057.942
2057952.0,215.0,33.0,3.0,238.0,2057.952
2057962.0,215.0,32.0,3.0,236.0,2057.962
2057972.0,208.0,32.0,4.0,230.0,2057.972
2057982.0,218.0,32.0,4.0,240.0,2057.982
2057992.0,220.0,33.0,4.0,243.0,2057.992
2058002.0,217.0,32.0,4.0,237.0,2058.002
2058012.0,217.0,34.0,3.0,238.0,2058.012
2058022.0,210.0,32.0,4.0,231.0,2058.022
2058032.0,215.0,33.0,3.0,238.0,2058.032
2058042.0,222.0,33.0,5.0,243.0,2058.042
2058052.0,216.0,33.0,3.0,238.0,2058.052
2058062.0,217.0,32.0,4.0,237.0,2058.062
2058072.0,211.0,33.0,3.0,230.0,2058.072
2058082.0,216.0,33.0,3.0,239.0,2058.082
2058092.0,222.0,32.0,3.0,243.0,2058.092
2058102.0,216.0,33.0,4.0,236.0,2058.102
2058112.0,218.0,32.0,4.0,238.0,2058.112
2058122.0,210.0,32.0,4.0,230.0,2058.122
2058132.0,216.0,32.0,3.0,240.0,2058.132
2058142.0,222.0,34.0,3.0,245.0,2058.142
2058152.0,217.0,32.0,3.0,237.0,2058.152
2058162.0,218.0,34.0,3.0,240.0,2058.162
2058172.0,210.0,32.0,5.0,231.0,2058.172
2058182.0,217.0,32.0,4.0,241.0,2058.182
2058192.0,222.0,33.0,4.0,244.0,2058.192
2058202.0,218.0,31.0,4.0,240.0,2058.202
2058212.0,218.0,33.0,3.0,239.0,2058.212
2058222.0,211.0,32.0,4.0,232.0,2058.222
2058232.0,220.0,32.0,4.0,242.0,2058.232
2058242.0,223.0,32.0,4.0,244.0,2058.242
2058252.0,219.0,32.0,4.0,239.0,2058.252
2058262.0,219.0,33.0,3.0,239.0,2058.262
2058272.0,211.0,33.0,3.0,234.0,2058.272
2058283.0,220.0,32.0,4.0,242.0,2058.283
2058293.0,224.0,33.0,4.0,244.0,2058.293
2058303.0,216.0,33.0,5.0,235.0,2058.303
2058313.0,217.0,33.0,3.0,238.0,2058.313
2058323.0,218.0,33.0,4.0,240.0,2058.323
2058333.0,221.0,33.0,4.0,244.0,2058.333
2058343.0,223.0,34.0,4.0,244.0,2058.343
2058353.0,215.0,33.0,3.0,235.0,2058.353
2058363.0,218.0,33.0,5.0,237.0,2058.363
2058373.0,213.0,33.0,3.0,236.0,2058.373
2058383.0,220.0,33.0,4.0,244.0,2058.383
2058393.0,223.0,33.0,3.0,245.0,2058.393
2058403.0,214.0,33.0,3.0,236.0,2058.403
2058413.0,217.0,34.0,4.0,239.0,2058.413
2058423.0,214.0,33.0,4.0,237.0,2058.423
2058433.0,223.0,32.0,4.0,243.0,2058.433
2058443.0,222.0,33.0,4.0,243.0,2058.443
2058454.0,215.0,33.0,4.0,235.0,2058.454
2058464.0,217.0,33.0,3.0,238.0,2058.464
2058474.0,221.0,32.0,4.0,243.0,2058.474
2058484.0,222.0,33.0,4.0,242.0,2058.484
2058494.0,221.0,33.0,4.0,240.0,2058.494
2058504.0,215.0,33.0,3.0,234.0,2058.504
2058514.0,217.0,33.0,4.0,237.0,2058.514
2058524.0,223.0,34.0,3.0,245.0,2058.524
2058534.0,222.0,32.0,4.0,242.0,2058.534
2058544.0,223.0,34.0,3.0,244.0,2058.544
2058554.0,215.0,33.0,5.0,234.0,2058.554
2058564.0,217.0,33.0,4.0,238.0,2058.564
2058574.0,222.0,33.0,4.0,245.0,2058.574
2058584.0,223.0,33.0,4.0,244.0,2058.584
2058594.0,223.0,33.0,4.0,242.0,2058.594
2058604.0,215.0,32.0,4.0,234.0,2058.604
2058614.0,218.0,33.0,4.0,240.0,2058.614
2058624.0,220.0,33.0,3.0,243.0,2058.624
2058634.0,222.0,33.0,3.0,245.0,2058.634
2058644.0,223.0,32.0,4.0,242.0,2058.644
2058654.0,214.0,34.0,3.0,236.0,2058.654
2058664.0,218.0,32.0,3.0,240.0,2058.664
2058674.0,221.0,34.0,3.0,245.0,2058.674
2058684.0,224.0,33.0,5.0,244.0,2058.684
2058694.0,222.0,33.0,3.0,242.0,2058.694
2058704.0,215.0,32.0,4.0,233.0,2058.704
2058714.0,220.0,33.0,2.0,240.0,2058.714
2058724.0,223.0,32.0,4.0,245.0,2058.724
2058734.0,224.0,32.0,4.0,245.0,2058.734
2058744.0,224.0,33.0,4.0,243.0,2058.744
2058754.0,217.0,32.0,4.0,237.0,2058.754
2058764.0,220.0,33.0,4.0,241.0,2058.764
2058774.0,225.0,33.0,3.0,250.0,2058.774
2058784.0,225.0,33.0,3.0,248.0,2058.784
2058795.0,225.0,32.0,4.0,248.0,2058.795
2058805.0,217.0,33.0,4.0,239.0,2058.805
2058815.0,224.0,33.0,4.0,247.0,2058.815
2058825.0,227.0,34.0,4.0,250.0,2058.825
2058835.0,222.0,33.0,3.0,244.0,2058.835
2058845.0,220.0,33.0,4.0,243.0,2058.845
2058855.0,212.0,32.0,4.0,234.0,2058.855
2058865.0,222.0,32.0,4.0,247.0,2058.865
2058875.0,237.0,33.0,5.0,260.0,2058.875
2058885.0,233.0,33.0,3.0,257.0,2058.885
2058895.0,236.0,33.0,4.0,257.0,2058.895
2058905.0,229.0,33.0,4.0,251.0,2058.905
2058915.0,235.0,33.0,3.0,259.0,2058.915
2058925.0,240.0,33.0,3.0,260.0,2058.925
2058935.0,243.0,33.0,5.0,260.0,2058.935
2058945.0,238.0,33.0,3.0,259.0,2058.945
2058955.0,242.0,33.0,4.0,263.0,2058.955
2058966.0,251.0,33.0,4.0,269.0,2058.966
2058976.0,243.0,34.0,4.0,265.0,2058.976
2058986.0,239.0,32.0,4.0,259.0,2058.986
2058996.0,241.0,33.0,4.0,260.0,2058.996
2059006.0,265.0,33.0,4.0,272.0,2059.006
2059016.0,272.0,33.0,4.0,276.0,2059.016
2059026.0,282.0,33.0,4.0,280.0,2059.026
2059036.0,270.0,34.0,3.0,267.0,2059.036
2059046.0,269.0,33.0,4.0,264.0,2059.046
2059056.0,265.0,35.0,3.0,260.0,2059.056
2059066.0,273.0,33.0,5.0,265.0,2059.066
2059076.0,272.0,33.0,4.0,270.0,2059.076
2059086.0,259.0,33.0,3.0,263.0,2059.086
2059096.0,264.0,34.0,3.0,262.0,2059.096
2059106.0,260.0,33.0,4.0,259.0,2059.106
2059116.0,265.0,32.0,3.0,266.0,2059.116
2059126.0,266.0,34.0,4.0,267.0,2059.126
2059136.0,257.0,33.0,4.0,262.0,2059.136
2059146.0,258.0,33.0,4.0,260.0,2059.146
2059156.0,252.0,34.0,4.0,261.0,2059.156
2059166.0,259.0,34.0,3.0,269.0,2059.166
2059176.0,263.0,34.0,4.0,271.0,2059.176
2059186.0,255.0,34.0,3.0,266.0,2059.186
2059196.0,253.0,33.0,4.0,262.0,2059.196
2059206.0,254.0,34.0,4.0,262.0,2059.206
2059216.0,257.0,33.0,4.0,267.0,2059.216
2059226.0,255.0,33.0,3.0,266.0,2059.226
2059236.0,248.0,32.0,3.0,263.0,2059.236
2059246.0,248.0,33.0,3.0,263.0,2059.246
2059256.0,256.0,34.0,4.0,271.0,2059.256
2059266.0,259.0,33.0,4.0,280.0,2059.266
2059276.0,272.0,34.0,3.0,281.0,2059.276
2059286.0,269.0,33.0,3.0,278.0,2059.286
2059296.0,259.0,34.0,3.0,266.0,2059.296
2059307.0,263.0,33.0,4.0,268.0,2059.307
2059317.0,262.0,33.0,4.0,269.0,2059.317
2059327.0,267.0,33.0,4.0,269.0,2059.327
2059337.0,255.0,33.0,3.0,262.0,2059.337
2059347.0,268.0,32.0,3.0,265.0,2059.347
2059357.0,271.0,33.0,4.0,270.0,2059.357
2059367.0,270.0,32.0,3.0,270.0,2059.367
2059377.0,266.0,32.0,4.0,266.0,2059.377
2059387.0,257.0,32.0,5.0,259.0,2059.387
2059397.0,261.0,32.0,4.0,261.0,2059.397
2059407.0,265.0,32.0,4.0,266.0,2059.407
2059417.0,270.0,34.0,3.0,264.0,2059.417
2059427.0,264.0,32.0,3.0,259.0,2059.427
2059437.0,256.0,33.0,3.0,258.0,2059.437
2059447.0,256.0,32.0,5.0,257.0,2059.447
2059457.0,257.0,33.0,3.0,265.0,2059.457
2059467.0,253.0,33.0,4.0,263.0,2059.467
2059478.0,250.0,33.0,3.0,259.0,2059.478
2059488.0,243.0,33.0,3.0,252.0,2059.488
2059498.0,256.0,32.0,4.0,263.0,2059.498
2059508.0,259.0,32.0,4.0,266.0,2059.508
2059518.0,252.0,33.0,4.0,260.0,2059.518
2059528.0,253.0,33.0,4.0,259.0,2059.528
2059538.0,247.0,33.0,4.0,250.0,2059.538
2059548.0,254.0,33.0,3.0,260.0,2059.548
2059558.0,257.0,32.0,4.0,265.0,2059.558
2059568.0,252.0,34.0,3.0,263.0,2059.568
2059578.0,254.0,32.0,5.0,261.0,2059.578
2059588.0,244.0,32.0,4.0,251.0,2059.588
2059598.0,245.0,32.0,4.0,259.0,2059.598
2059608.0,250.0,33.0,4.0,263.0,2059.608
2059618.0,247.0,32.0,3.0,258.0,2059.618
2059628.0,247.0,32.0,4.0,253.0,2059.628
2059638.0,246.0,32.0,5.0,249.0,2059.638
2059648.0,251.0,32.0,3.0,256.0,2059.648
2059658.0,255.0,33.0,3.0,260.0,2059.658
2059668.0,249.0,32.0,3.0,255.0,2059.668
2059678.0,249.0,33.0,3.0,253.0,2059.678
2059688.0,239.0,32.0,3.0,248.0,2059.688
2059698.0,243.0,33.0,4.0,255.0,2059.698
2059708.0,251.0,32.0,5.0,262.0,2059.708
2059718.0,244.0,32.0,3.0,255.0,2059.718
2059728.0,244.0,32.0,4.0,254.0,2059.728
2059738.0,240.0,32.0,4.0,248.0,2059.738
2059748.0,243.0,32.0,4.0,257.0,2059.748
2059758.0,249.0,32.0,4.0,262.0,2059.758
2059768.0,245.0,32.0,5.0,257.0,2059.768
2059778.0,251.0,32.0,4.0,260.0,2059.778
2059788.0,246.0,32.0,4.0,253.0,2059.788
2059798.0,249.0,33.0,4.0,262.0,2059.798
2059808.0,253.0,33.0,3.0,263.0,2059.808
2059819.0,245.0,32.0,3.0,256.0,2059.819
2059829.0,241.0,33.0,4.0,254.0,2059.829
2059839.0,243.0,33.0,4.0,251.0,2059.839
2059849.0,250.0,32.0,4.0,256.0,2059.849
2059859.0,254.0,33.0,3.0,257.0,2059.859
2059869.0,250.0,32.0,4.0,252.0,2059.869
2059879.0,250.0,32.0,3.0,253.0,2059.879
2059889.0,249.0,32.0,4.0,250.0,2059.889
2059899.0,250.0,32.0,4.0,254.0,2059.899
2059909.0,252.0,33.0,4.0,258.0,2059.909
2059919.0,244.0,32.0,4.0,251.0,2059.919
2059929.0,248.0,34.0,3.0,253.0,2059.929
2059939.0,247.0,32.0,3.0,256.0,2059.939
2059949.0,248.0,33.0,4.0,260.0,2059.949
2059959.0,253.0,33.0,5.0,261.0,2059.959
2059969.0,251.0,33.0,2.0,253.0,2059.969
2059979.0,250.0,33.0,4.0,255.0,2059.979
2059990.0,248.0,33.0,4.0,259.0,2059.99
2060000.0,249.0,33.0,3.0,258.0,2060.0
2060010.0,252.0,32.0,4.0,255.0,2060.01
2060020.0,245.0,32.0,4.0,247.0,2060.02
2060030.0,248.0,32.0,4.0,254.0,2060.03
2060040.0,249.0,33.0,4.0,256.0,2060.04
2060050.0,250.0,33.0,3.0,255.0,2060.05
2060060.0,249.0,33.0,3.0,255.0,2060.06
2060070.0,239.0,32.0,4.0,244.0,2060.07
2060080.0,243.0,33.0,3.0,250.0,2060.08
2060090.0,245.0,33.0,4.0,255.0,2060.09
2060100.0,250.0,33.0,4.0,255.0,2060.1
2060110.0,248.0,33.0,4.0,253.0,2060.11
2060120.0,243.0,32.0,3.0,245.0,2060.12
2060130.0,249.0,32.0,3.0,251.0,2060.13
2060140.0,250.0,32.0,4.0,256.0,2060.14
2060150.0,250.0,33.0,5.0,255.0,2060.15
2060160.0,250.0,33.0,4.0,255.0,2060.16
2060170.0,242.0,33.0,3.0,248.0,2060.17
2060180.0,239.0,33.0,4.0,252.0,2060.18
2060190.0,251.0,33.0,3.0,259.0,2060.19
2060200.0,249.0,33.0,3.0,254.0,2060.2
2060210.0,249.0,34.0,3.0,254.0,2060.21
2060220.0,239.0,33.0,4.0,243.0,2060.22
2060230.0,238.0,33.0,4.0,250.0,2060.23
2060240.0,245.0,33.0,3.0,256.0,2060.24
2060250.0,244.0,33.0,2.0,255.0,2060.25
2060260.0,243.0,32.0,4.0,253.0,2060.26
2060270.0,237.0,32.0,3.0,246.0,2060.27
2060280.0,244.0,33.0,5.0,251.0,2060.28
2060290.0,247.0,33.0,3.0,253.0,2060.29
2060300.0,254.0,33.0,3.0,253.0,2060.3
2060310.0,252.0,33.0,3.0,253.0,2060.31
2060320.0,242.0,32.0,3.0,243.0,2060.32
2060331.0,245.0,32.0,3.0,254.0,2060.331
2060341.0,249.0,33.0,4.0,259.0,2060.341
2060351.0,245.0,33.0,4.0,255.0,2060.351
2060361.0,250.0,33.0,3.0,257.0,2060.361
2060371.0,249.0,33.0,3.0,250.0,2060.371
2060381.0,244.0,33.0,3.0,252.0,2060.381
2060391.0,252.0,32.0,4.0,262.0,2060.391
2060401.0,245.0,32.0,4.0,256.0,2060.401
2060411.0,248.0,33.0,5.0,253.0,2060.411
2060421.0,241.0,32.0,4.0,245.0,2060.421
2060431.0,249.0,32.0,4.0,256.0,2060.431
2060441.0,251.0,34.0,3.0,261.0,2060.441
2060451.0,243.0,32.0,3.0,253.0,2060.451
2060461.0,250.0,33.0,3.0,258.0,2060.461
2060471.0,240.0,33.0,4.0,247.0,2060.471
2060481.0,248.0,33.0,4.0,261.0,2060.481
2060491.0,253.0,33.0,4.0,260.0,2060.491
2060502.0,249.0,33.0,3.0,252.0,2060.502
2060512.0,248.0,33.0,3.0,252.0,2060.512
2060522.0,245.0,33.0,4.0,252.0,2060.522
2060532.0,253.0,33.0,4.0,259.0,2060.532
2060542.0,255.0,34.0,4.0,257.0,2060.542
2060552.0,249.0,32.0,4.0,252.0,2060.552
2060562.0,254.0,33.0,4.0,256.0,2060.562
2060572.0,260.0,34.0,4.0,258.0,2060.572
2060582.0,284.0,32.0,3.0,263.0,2060.582
2060592.0,285.0,34.0,3.0,262.0,2060.592
2060602.0,271.0,33.0,5.0,253.0,2060.602
2060612.0,266.0,33.0,4.0,253.0,2060.612
2060622.0,263.0,33.0,4.0,256.0,2060.622
2060632.0,267.0,33.0,2.0,260.0,2060.632
2060642.0,273.0,33.0,4.0,262.0,2060.642
2060652.0,259.0,33.0,3.0,251.0,2060.652
2060662.0,257.0,33.0,5.0,253.0,2060.662
2060672.0,247.0,33.0,3.0,249.0,2060.672
2060682.0,253.0,33.0,4.0,258.0,2060.682
2060692.0,253.0,33.0,4.0,258.0,2060.692
2060702.0,245.0,33.0,4.0,247.0,2060.702
2060712.0,245.0,33.0,4.0,250.0,2060.712
2060722.0,243.0,34.0,4.0,248.0,2060.722
2060732.0,256.0,33.0,4.0,255.0,2060.732
2060742.0,256.0,33.0,4.0,255.0,2060.742
2060752.0,243.0,33.0,4.0,243.0,2060.752
2060762.0,244.0,34.0,4.0,247.0,2060.762
2060772.0,240.0,33.0,4.0,246.0,2060.772
2060782.0,245.0,33.0,4.0,251.0,2060.782
2060792.0,245.0,33.0,5.0,251.0,2060.792
2060802.0,237.0,33.0,4.0,244.0,2060.802
2060812.0,242.0,33.0,4.0,247.0,2060.812
2060822.0,245.0,34.0,3.0,250.0,2060.822
2060832.0,255.0,32.0,4.0,256.0,2060.832
2060843.0,254.0,33.0,4.0,254.0,2060.843
2060853.0,243.0,33.0,5.0,244.0,2060.853
2060863.0,242.0,33.0,4.0,248.0,2060.863
2060873.0,244.0,33.0,4.0,257.0,2060.873
2060883.0,255.0,33.0,4.0,257.0,2060.883
2060893.0,255.0,33.0,3.0,258.0,2060.893
2060903.0,246.0,33.0,4.0,247.0,2060.903
2060913.0,244.0,33.0,5.0,253.0,2060.913
2060923.0,255.0,33.0,4.0,260.0,2060.923
2060933.0,249.0,32.0,4.0,258.0,2060.933
2060943.0,253.0,33.0,4.0,256.0,2060.943
2060953.0,248.0,34.0,3.0,246.0,2060.953
2060963.0,250.0,32.0,4.0,253.0,2060.963
2060973.0,251.0,33.0,3.0,257.0,2060.973
2060983.0,256.0,33.0,5.0,259.0,2060.983
2060993.0,255.0,33.0,4.0,260.0,2060.993
2061003.0,244.0,33.0,3.0,249.0,2061.003
2061014.0,245.0,34.0,3.0,257.0,2061.014
2061024.0,252.0,33.0,3.0,262.0,2061.024
2061034.0,251.0,33.0,3.0,254.0,2061.034
2061044.0,252.0,33.0,5.0,253.0,2061.044
2061054.0,242.0,33.0,2.0,249.0,2061.054
2061064.0,250.0,33.0,4.0,255.0,2061.064
2061074.0,260.0,33.0,3.0,262.0,2061.074
2061084.0,250.0,33.0,3.0,254.0,2061.084
2061094.0,249.0,32.0,4.0,254.0,2061.094
2061104.0,244.0,33.0,3.0,246.0,2061.104
2061114.0,250.0,33.0,4.0,257.0,2061.114
2061124.0,255.0,33.0,3.0,262.0,2061.124
2061134.0,247.0,33.0,4.0,253.0,2061.134
2061144.0,246.0,33.0,2.0,255.0,2061.144
2061154.0,235.0,32.0,4.0,246.0,2061.154
2061164.0,240.0,32.0,3.0,255.0,2061.164
2061174.0,248.0,33.0,5.0,257.0,2061.174
2061184.0,240.0,32.0,4.0,252.0,2061.184
2061194.0,242.0,32.0,4.0,252.0,2061.194
2061204.0,235.0,33.0,3.0,247.0,2061.204
2061214.0,243.0,33.0,3.0,256.0,2061.214
2061224.0,246.0,32.0,4.0,259.0,2061.224
2061234.0,242.0,32.0,3.0,256.0,2061.234
2061244.0,243.0,33.0,4.0,255.0,2061.244
2061254.0,230.0,33.0,3.0,248.0,2061.254
2061264.0,242.0,33.0,3.0,259.0,2061.264
2061274.0,247.0,33.0,3.0,261.0,2061.274
2061284.0,244.0,32.0,4.0,255.0,2061.284
2061294.0,243.0,32.0,4.0,256.0,2061.294
2061304.0,237.0,32.0,5.0,249.0,2061.304
2061314.0,240.0,33.0,3.0,254.0,2061.314
2061324.0,244.0,33.0,4.0,260.0,2061.324
2061334.0,239.0,33.0,3.0,254.0,2061.334
2061344.0,239.0,32.0,4.0,253.0,2061.344
2061355.0,231.0,33.0,4.0,249.0,2061.355
2061365.0,241.0,32.0,4.0,258.0,2061.365
2061375.0,242.0,31.0,4.0,258.0,2061.375
2061385.0,234.0,32.0,4.0,249.0,2061.385
2061395.0,235.0,33.0,3.0,251.0,2061.395
2061405.0,230.0,33.0,4.0,249.0,2061.405
2061415.0,244.0,32.0,4.0,261.0,2061.415
2061425.0,246.0,32.0,5.0,261.0,2061.425
2061435.0,244.0,31.0,4.0,263.0,2061.435
2061445.0,249.0,32.0,4.0,269.0,2061.445
2061455.0,242.0,32.0,3.0,264.0,2061.455
2061465.0,251.0,33.0,3.0,280.0,2061.465
2061475.0,254.0,32.0,4.0,285.0,2061.475
2061485.0,245.0,33.0,3.0,271.0,2061.485
2061495.0,242.0,32.0,5.0,267.0,2061.495
2061505.0,236.0,32.0,4.0,258.0,2061.505
2061515.0,244.0,32.0,4.0,260.0,2061.515
2061526.0,247.0,33.0,3.0,261.0,2061.526
2061536.0,241.0,32.0,3.0,252.0,2061.536
2061546.0,246.0,32.0,4.0,257.0,2061.546
2061556.0,248.0,31.0,4.0,261.0,2061.556
2061566.0,246.0,31.0,4.0,255.0,2061.566
2061576.0,246.0,32.0,5.0,266.0,2061.576
2061586.0,233.0,32.0,4.0,252.0,2061.586
2061596.0,233.0,32.0,3.0,249.0,2061.596
2061606.0,238.0,32.0,4.0,262.0,2061.606
2061616.0,236.0,32.0,3.0,255.0,2061.616
2061626.0,236.0,31.0,4.0,252.0,2061.626
2061636.0,226.0,32.0,2.0,238.0,2061.636
2061646.0,229.0,32.0,4.0,243.0,2061.646
2061656.0,228.0,32.0,4.0,242.0,2061.656
2061666.0,231.0,32.0,3.0,244.0,2061.666
2061676.0,229.0,32.0,4.0,247.0,2061.676
2061686.0,221.0,31.0,5.0,237.0,2061.686
2061696.0,224.0,32.0,3.0,243.0,2061.696
2061706.0,226.0,32.0,3.0,246.0,2061.706
2061716.0,227.0,33.0,3.0,247.0,2061.716
2061726.0,226.0,32.0,3.0,246.0,2061.726
2061736.0,218.0,32.0,3.0,235.0,2061.736
2061746.0,221.0,32.0,3.0,238.0,2061.746
2061756.0,225.0,31.0,4.0,244.0,2061.756
2061766.0,224.0,32.0,4.0,243.0,2061.766
2061776.0,224.0,33.0,4.0,242.0,2061.776
2061786.0,216.0,32.0,4.0,234.0,2061.786
2061796.0,218.0,32.0,4.0,238.0,2061.796
2061806.0,222.0,32.0,4.0,245.0,2061.806
2061816.0,222.0,32.0,4.0,243.0,2061.816
2061826.0,224.0,32.0,4.0,246.0,2061.826
2061836.0,215.0,32.0,4.0,236.0,2061.836
2061846.0,217.0,33.0,3.0,240.0,2061.846
2061856.0,223.0,32.0,3.0,246.0,2061.856
2061867.0,221.0,32.0,4.0,243.0,2061.867
2061877.0,220.0,32.0,5.0,242.0,2061.877
2061887.0,213.0,31.0,4.0,234.0,2061.887
2061897.0,220.0,32.0,4.0,243.0,2061.897
2061907.0,224.0,33.0,4.0,247.0,2061.907
2061917.0,220.0,32.0,4.0,240.0,2061.917
2061927.0,218.0,32.0,3.0,241.0,2061.927
2061937.0,211.0,33.0,4.0,232.0,2061.937
2061947.0,219.0,31.0,4.0,243.0,2061.947
2061957.0,222.0,33.0,4.0,246.0,2061.957
2061967.0,218.0,32.0,4.0,242.0,2061.967
2061977.0,217.0,33.0,3.0,242.0,2061.977
2061987.0,211.0,32.0,3.0,235.0,2061.987
2061997.0,216.0,33.0,3.0,241.0,2061.997
2062007.0,223.0,33.0,5.0,246.0,2062.007
2062017.0,217.0,33.0,4.0,242.0,2062.017
2062027.0,217.0,32.0,4.0,243.0,2062.027
2062038.0,212.0,32.0,3.0,239.0,2062.038
2062048.0,221.0,32.0,4.0,246.0,2062.048
2062058.0,224.0,32.0,3.0,246.0,2062.058
2062068.0,217.0,32.0,4.0,238.0,2062.068
2062078.0,216.0,33.0,4.0,239.0,2062.078
2062088.0,214.0,33.0,5.0,237.0,2062.088
2062098.0,221.0,32.0,4.0,246.0,2062.098
2062108.0,222.0,33.0,3.0,246.0,2062.108
2062118.0,214.0,32.0,3.0,238.0,2062.118
2062128.0,217.0,33.0,3.0,241.0,2062.128
2062138.0,214.0,33.0,4.0,239.0,2062.138
2062148.0,220.0,33.0,3.0,245.0,2062.148
2062158.0,221.0,33.0,4.0,245.0,2062.158
2062168.0,214.0,33.0,4.0,240.0,2062.168
2062178.0,216.0,32.0,3.0,240.0,2062.178
2062188.0,213.0,33.0,3.0,240.0,2062.188
2062198.0,221.0,33.0,4.0,247.0,2062.198
2062208.0,222.0,33.0,4.0,247.0,2062.208
2062218.0,216.0,32.0,4.0,240.0,2062.218
2062228.0,217.0,33.0,3.0,241.0,2062.228
2062238.0,215.0,32.0,4.0,242.0,2062.238
2062248.0,221.0,32.0,4.0,247.0,2062.248
2062258.0,222.0,33.0,3.0,247.0,2062.258
2062268.0,216.0,32.0,4.0,240.0,2062.268
2062278.0,216.0,32.0,3.0,241.0,2062.278
2062288.0,217.0,33.0,3.0,245.0,2062.288
2062298.0,220.0,33.0,3.0,247.0,2062.298
2062308.0,223.0,32.0,4.0,247.0,2062.308
2062318.0,215.0,32.0,4.0,240.0,2062.318
2062328.0,217.0,33.0,4.0,241.0,2062.328
2062338.0,212.0,32.0,4.0,239.0,2062.338
2062348.0,221.0,32.0,4.0,247.0,2062.348
2062358.0,223.0,34.0,3.0,247.0,2062.358
2062368.0,214.0,32.0,4.0,239.0,2062.368
2062379.0,216.0,33.0,3.0,240.0,2062.379
2062389.0,220.0,32.0,5.0,244.0,2062.389
2062399.0,221.0,32.0,4.0,246.0,2062.399
2062409.0,220.0,32.0,4.0,244.0,2062.409
2062419.0,212.0,33.0,3.0,236.0,2062.419
2062429.0,216.0,33.0,4.0,240.0,2062.429
2062439.0,219.0,32.0,4.0,245.0,2062.439
2062449.0,221.0,32.0,4.0,246.0,2062.449
2062459.0,221.0,33.0,4.0,243.0,2062.459
2062469.0,213.0,32.0,4.0,238.0,2062.469
2062479.0,216.0,32.0,4.0,241.0,2062.479
2062489.0,220.0,33.0,3.0,248.0,2062.489
2062499.0,220.0,32.0,4.0,246.0,2062.499
2062509.0,222.0,33.0,3.0,246.0,2062.509
2062519.0,214.0,33.0,4.0,238.0,2062.519
2062529.0,215.0,33.0,4.0,241.0,2062.529
2062539.0,221.0,33.0,4.0,247.0,2062.539
2062550.0,219.0,33.0,3.0,247.0,2062.55
2062560.0,219.0,32.0,4.0,243.0,2062.56
2062570.0,211.0,32.0,3.0,236.0,2062.57
2062580.0,220.0,33.0,4.0,245.0,2062.58
2062590.0,223.0,33.0,4.0,248.0,2062.59
2062600.0,221.0,32.0,5.0,243.0,2062.6
2062610.0,220.0,32.0,4.0,242.0,2062.61
2062620.0,212.0,32.0,3.0,235.0,2062.62
2062630.0,220.0,32.0,4.0,244.0,2062.63
2062640.0,223.0,33.0,3.0,247.0,2062.64
2062650.0,220.0,33.0,4.0,243.0,2062.65
2062660.0,218.0,33.0,4.0,242.0,2062.66
2062670.0,212.0,32.0,4.0,236.0,2062.67
2062680.0,217.0,33.0,2.0,241.0,2062.68
2062690.0,223.0,32.0,4.0,247.0,2062.69
2062700.0,218.0,33.0,4.0,242.0,2062.7
2062710.0,220.0,32.0,5.0,242.0,2062.71
2062720.0,212.0,32.0,4.0,236.0,2062.72
2062730.0,218.0,33.0,4.0,243.0,2062.73
2062740.0,224.0,34.0,3.0,249.0,2062.74
2062750.0,218.0,32.0,3.0,241.0,2062.75
2062760.0,219.0,33.0,4.0,241.0,2062.76
2062770.0,212.0,33.0,4.0,234.0,2062.77
2062780.0,218.0,32.0,4.0,243.0,2062.78
2062790.0,223.0,33.0,4.0,246.0,2062.79
2062800.0,217.0,34.0,3.0,242.0,2062.8
2062810.0,218.0,33.0,4.0,241.0,2062.81
2062820.0,210.0,33.0,4.0,234.0,2062.82
2062830.0,218.0,32.0,4.0,243.0,2062.83
2062840.0,223.0,33.0,4.0,246.0,2062.84
2062850.0,219.0,32.0,4.0,243.0,2062.85
2062860.0,219.0,33.0,4.0,241.0,2062.86
2062870.0,210.0,33.0,3.0,234.0,2062.87
2062880.0,217.0,32.0,4.0,244.0,2062.88
2062891.0,221.0,33.0,3.0,247.0,2062.891
2062901.0,215.0,32.0,5.0,240.0,2062.901
2062911.0,216.0,33.0,3.0,241.0,2062.911
2062921.0,214.0,33.0,4.0,241.0,2062.921
2062931.0,220.0,34.0,3.0,248.0,2062.931
2062941.0,223.0,33.0,4.0,247.0,2062.941
2062951.0,216.0,32.0,4.0,240.0,2062.951
2062961.0,218.0,34.0,4.0,241.0,2062.961
2062971.0,218.0,33.0,4.0,242.0,2062.971
2062981.0,221.0,33.0,4.0,247.0,2062.981
2062991.0,224.0,33.0,4.0,248.0,2062.991
2063001.0,215.0,33.0,3.0,240.0,2063.001
2063011.0,217.0,33.0,4.0,240.0,2063.011
2063021.0,212.0,33.0,3.0,239.0,2063.021
2063031.0,221.0,33.0,4.0,247.0,2063.031
2063041.0,222.0,34.0,4.0,247.0,2063.041
2063051.0,214.0,33.0,4.0,239.0,2063.051
2063062.0,216.0,34.0,3.0,242.0,2063.062
2063072.0,217.0,33.0,4.0,244.0,2063.072
2063082.0,220.0,33.0,3.0,246.0,2063.082
2063092.0,221.0,33.0,5.0,243.0,2063.092
2063102.0,212.0,32.0,4.0,236.0,2063.102
2063112.0,217.0,33.0,5.0,240.0,2063.112
2063122.0,219.0,33.0,4.0,246.0,2063.122
2063132.0,219.0,32.0,4.0,246.0,2063.132
2063142.0,219.0,34.0,4.0,243.0,2063.142
2063152.0,212.0,32.0,3.0,238.0,2063.152
2063162.0,216.0,33.0,4.0,241.0,2063.162
2063172.0,219.0,33.0,4.0,246.0,2063.172
2063182.0,219.0,33.0,4.0,247.0,2063.182
2063192.0,220.0,33.0,3.0,246.0,2063.192
2063202.0,212.0,32.0,3.0,238.0,2063.202
2063212.0,215.0,33.0,4.0,241.0,2063.212
2063222.0,220.0,33.0,5.0,248.0,2063.222
2063232.0,219.0,33.0,3.0,248.0,2063.232
2063242.0,221.0,33.0,4.0,245.0,2063.242
2063252.0,211.0,33.0,3.0,239.0,2063.252
2063262.0,215.0,32.0,4.0,241.0,2063.262
2063272.0,220.0,33.0,4.0,248.0,2063.272
2063282.0,220.0,33.0,3.0,246.0,2063.282
2063292.0,221.0,33.0,3.0,244.0,2063.292
2063302.0,212.0,32.0,4.0,237.0,2063.302
2063312.0,216.0,33.0,3.0,243.0,2063.312
2063322.0,217.0,33.0,4.0,245.0,2063.322
2063332.0,220.0,32.0,4.0,246.0,2063.332
2063342.0,220.0,33.0,4.0,244.0,2063.342
2063352.0,213.0,33.0,4.0,236.0,2063.352
2063362.0,216.0,33.0,5.0,240.0,2063.362
2063372.0,219.0,33.0,4.0,245.0,2063.372
2063382.0,219.0,33.0,3.0,245.0,2063.382
2063392.0,220.0,32.0,3.0,243.0,2063.392
2063403.0,210.0,32.0,4.0,235.0,2063.403
2063413.0,217.0,33.0,5.0,243.0,2063.413
2063423.0,222.0,33.0,3.0,248.0,2063.423
2063433.0,217.0,33.0,4.0,243.0,2063.433
2063443.0,217.0,34.0,4.0,242.0,2063.443
2063453.0,210.0,33.0,3.0,235.0,2063.453
2063463.0,217.0,32.0,4.0,244.0,2063.463
2063473.0,222.0,34.0,3.0,249.0,2063.473
2063483.0,216.0,31.0,4.0,242.0,2063.483
2063493.0,219.0,34.0,5.0,243.0,2063.493
2063503.0,210.0,32.0,4.0,234.0,2063.503
2063513.0,217.0,33.0,3.0,244.0,2063.513
2063523.0,223.0,33.0,3.0,248.0,2063.523
2063533.0,218.0,33.0,3.0,243.0,2063.533
2063543.0,219.0,33.0,4.0,242.0,2063.543
2063553.0,209.0,33.0,3.0,235.0,2063.553
2063563.0,217.0,33.0,4.0,244.0,2063.563
2063574.0,222.0,34.0,3.0,247.0,2063.574
2063584.0,214.0,32.0,3.0,239.0,2063.584
2063594.0,216.0,33.0,3.0,240.0,2063.594
2063604.0,215.0,33.0,4.0,240.0,2063.604
2063614.0,220.0,33.0,4.0,245.0,2063.614
2063624.0,223.0,33.0,5.0,247.0,2063.624
2063634.0,215.0,33.0,3.0,240.0,2063.634
2063644.0,217.0,32.0,4.0,240.0,2063.644
2063654.0,215.0,33.0,4.0,241.0,2063.654
2063664.0,219.0,32.0,4.0,246.0,2063.664
2063674.0,223.0,33.0,3.0,247.0,2063.674
2063684.0,214.0,32.0,4.0,238.0,2063.684
2063694.0,216.0,33.0,3.0,241.0,2063.694
2063704.0,210.0,33.0,3.0,238.0,2063.704
2063714.0,219.0,32.0,4.0,247.0,2063.714
2063724.0,223.0,33.0,3.0,248.0,2063.724
2063734.0,215.0,31.0,4.0,240.0,2063.734
2063744.0,217.0,32.0,4.0,242.0,2063.744
2063754.0,212.0,33.0,4.0,238.0,2063.754
2063764.0,219.0,33.0,3.0,247.0,2063.764
2063774.0,222.0,32.0,3.0,246.0,2063.774
2063784.0,213.0,33.0,3.0,239.0,2063.784
2063794.0,216.0,32.0,4.0,240.0,2063.794
2063804.0,212.0,33.0,2.0,239.0,2063.804
2063814.0,219.0,32.0,4.0,246.0,2063.814
2063824.0,222.0,34.0,4.0,245.0,2063.824
2063834.0,215.0,32.0,4.0,240.0,2063.834
2063844.0,216.0,33.0,4.0,240.0,2063.844
2063854.0,214.0,33.0,4.0,240.0,2063.854
2063864.0,220.0,31.0,4.0,246.0,2063.864
2063874.0,222.0,33.0,4.0,246.0,2063.874
2063884.0,215.0,32.0,4.0,240.0,2063.884
2063894.0,216.0,33.0,3.0,241.0,2063.894
2063904.0,215.0,32.0,4.0,242.0,2063.904
2063915.0,220.0,32.0,3.0,247.0,2063.915
2063925.0,223.0,32.0,5.0,244.0,2063.925
2063935.0,212.0,32.0,2.0,238.0,2063.935
2063945.0,214.0,32.0,3.0,241.0,2063.945
2063955.0,220.0,33.0,3.0,248.0,2063.955
2063965.0,220.0,32.0,4.0,246.0,2063.965
2063975.0,220.0,32.0,4.0,244.0,2063.975
2063985.0,211.0,32.0,4.0,237.0,2063.985
2063995.0,214.0,33.0,2.0,242.0,2063.995
2064005.0,216.0,33.0,4.0,244.0,2064.005
2064015.0,218.0,33.0,3.0,248.0,2064.015
2064025.0,218.0,33.0,3.0,244.0,2064.025
2064035.0,209.0,32.0,3.0,237.0,2064.035
2064045.0,214.0,33.0,3.0,240.0,2064.045
2064055.0,217.0,33.0,4.0,244.0,2064.055
2064065.0,218.0,33.0,3.0,245.0,2064.065
2064075.0,219.0,33.0,4.0,242.0,2064.075
2064086.0,210.0,33.0,3.0,235.0,2064.086
2064096.0,215.0,32.0,4.0,241.0,2064.096
2064106.0,221.0,33.0,4.0,247.0,2064.106
2064116.0,217.0,33.0,5.0,241.0,2064.116
2064126.0,217.0,33.0,2.0,241.0,2064.126
2064136.0,211.0,33.0,5.0,234.0,2064.136
2064146.0,215.0,34.0,3.0,244.0,2064.146
2064156.0,221.0,33.0,4.0,248.0,2064.156
2064166.0,216.0,33.0,4.0,242.0,2064.166
2064176.0,218.0,33.0,4.0,242.0,2064.176
2064186.0,209.0,33.0,4.0,235.0,2064.186
2064196.0,217.0,33.0,4.0,245.0,2064.196
2064206.0,222.0,33.0,4.0,248.0,2064.206
2064216.0,219.0,32.0,4.0,244.0,2064.216
2064226.0,219.0,32.0,4.0,241.0,2064.226
2064236.0,210.0,33.0,4.0,234.0,2064.236
2064246.0,220.0,32.0,4.0,245.0,2064.246
2064256.0,221.0,33.0,4.0,246.0,2064.256
2064266.0,219.0,32.0,4.0,243.0,2064.266
2064276.0,218.0,34.0,3.0,241.0,2064.276
2064286.0,211.0,32.0,4.0,234.0,2064.286
2064296.0,220.0,32.0,4.0,245.0,2064.296
2064306.0,222.0,32.0,4.0,246.0,2064.306
2064316.0,218.0,32.0,4.0,243.0,2064.316
2064326.0,218.0,32.0,4.0,241.0,2064.326
2064336.0,211.0,32.0,4.0,235.0,2064.336
2064346.0,216.0,33.0,4.0,242.0,2064.346
2064356.0,222.0,33.0,4.0,246.0,2064.356
2064366.0,218.0,32.0,4.0,243.0,2064.366
2064376.0,218.0,32.0,4.0,241.0,2064.376
2064386.0,212.0,32.0,5.0,235.0,2064.386
2064396.0,216.0,33.0,4.0,243.0,2064.396
2064406.0,222.0,33.0,3.0,247.0,2064.406
2064416.0,217.0,32.0,4.0,242.0,2064.416
2064427.0,217.0,32.0,4.0,241.0,2064.427
2064437.0,213.0,31.0,4.0,238.0,2064.437
2064447.0,220.0,32.0,3.0,247.0,2064.447
2064457.0,223.0,33.0,4.0,247.0,2064.457
2064467.0,215.0,33.0,3.0,239.0,2064.467
2064477.0,218.0,32.0,4.0,241.0,2064.477
2064487.0,214.0,32.0,4.0,239.0,2064.487
2064497.0,221.0,32.0,5.0,246.0,2064.497
2064507.0,222.0,33.0,4.0,246.0,2064.507
2064517.0,217.0,32.0,5.0,241.0,2064.517
2064527.0,217.0,33.0,4.0,242.0,2064.527
2064537.0,214.0,32.0,3.0,240.0,2064.537
2064547.0,220.0,32.0,4.0,247.0,2064.547
2064557.0,222.0,32.0,4.0,247.0,2064.557
2064567.0,216.0,31.0,4.0,241.0,2064.567
2064577.0,217.0,32.0,4.0,241.0,2064.577
2064587.0,215.0,32.0,3.0,242.0,2064.587
2064598.0,221.0,33.0,3.0,246.0,2064.598
2064608.0,222.0,32.0,4.0,243.0,2064.608
2064618.0,213.0,32.0,4.0,238.0,2064.618
2064628.0,216.0,32.0,4.0,240.0,2064.628
2064638.0,220.0,32.0,4.0,247.0,2064.638
2064648.0,222.0,31.0,4.0,248.0,2064.648
2064658.0,221.0,33.0,3.0,245.0,2064.658
2064668.0,213.0,32.0,4.0,238.0,2064.668
2064678.0,215.0,32.0,3.0,242.0,2064.678
2064688.0,217.0,32.0,4.0,244.0,2064.688
2064698.0,220.0,31.0,4.0,248.0,2064.698
2064708.0,220.0,32.0,4.0,245.0,2064.708
2064718.0,212.0,32.0,3.0,239.0,2064.718
2064728.0,215.0,32.0,3.0,242.0,2064.728
2064738.0,218.0,32.0,4.0,246.0,2064.738
2064748.0,219.0,32.0,4.0,248.0,2064.748
2064758.0,219.0,31.0,4.0,244.0,2064.758
2064768.0,213.0,32.0,5.0,239.0,2064.768
2064778.0,216.0,32.0,4.0,241.0,2064.778
2064788.0,218.0,33.0,3.0,246.0,2064.788
2064798.0,220.0,32.0,4.0,246.0,2064.798
2064808.0,219.0,32.0,4.0,244.0,2064.808
2064818.0,213.0,32.0,4.0,239.0,2064.818
2064828.0,216.0,32.0,4.0,241.0,2064.828
2064838.0,220.0,32.0,4.0,247.0,2064.838
2064848.0,220.0,31.0,3.0,247.0,2064.848
2064858.0,221.0,32.0,4.0,245.0,2064.858
2064868.0,213.0,32.0,4.0,239.0,2064.868
2064878.0,216.0,32.0,5.0,241.0,2064.878
2064888.0,220.0,31.0,3.0,247.0,2064.888
2064898.0,220.0,32.0,5.0,247.0,2064.898
2064908.0,221.0,33.0,4.0,245.0,2064.908
2064918.0,211.0,32.0,3.0,238.0,2064.918
2064928.0,215.0,32.0,4.0,241.0,2064.928
2064939.0,221.0,32.0,4.0,248.0,2064.939
2064949.0,220.0,32.0,4.0,245.0,2064.949
2064959.0,218.0,32.0,3.0,244.0,2064.959
2064969.0,210.0,31.0,4.0,237.0,2064.969
2064979.0,218.0,32.0,3.0,246.0,2064.979
2064989.0,221.0,32.0,4.0,248.0,2064.989
2064999.0,217.0,31.0,4.0,244.0,2064.999
2065009.0,218.0,31.0,5.0,241.0,2065.009
2065019.0,210.0,31.0,4.0,236.0,2065.019
2065029.0,215.0,32.0,4.0,243.0,2065.029
2065039.0,221.0,33.0,3.0,249.0,2065.039
2065049.0,218.0,32.0,4.0,244.0,2065.049
2065059.0,217.0,32.0,4.0,242.0,2065.059
2065069.0,211.0,32.0,4.0,234.0,2065.069
2065079.0,216.0,31.0,4.0,242.0,2065.079
2065089.0,221.0,32.0,4.0,247.0,2065.089
2065099.0,216.0,32.0,3.0,243.0,2065.099
2065110.0,216.0,32.0,4.0,241.0,2065.11
2065120.0,212.0,32.0,4.0,237.0,2065.12
2065130.0,219.0,32.0,4.0,246.0,2065.13
2065140.0,222.0,31.0,4.0,247.0,2065.14
2065150.0,214.0,32.0,3.0,238.0,2065.15
2065160.0,218.0,33.0,4.0,241.0,2065.16
2065170.0,212.0,33.0,3.0,240.0,2065.17
2065180.0,221.0,32.0,4.0,247.0,2065.18
2065190.0,221.0,33.0,4.0,246.0,2065.19
2065200.0,217.0,32.0,4.0,241.0,2065.2
2065210.0,216.0,32.0,4.0,243.0,2065.21
2065220.0,214.0,32.0,4.0,241.0,2065.22
2065230.0,221.0,33.0,3.0,249.0,2065.23
2065240.0,222.0,32.0,3.0,248.0,2065.24
2065250.0,216.0,32.0,4.0,241.0,2065.25
2065260.0,216.0,32.0,5.0,242.0,2065.26
2065270.0,216.0,31.0,3.0,241.0,2065.27
2065280.0,220.0,32.0,4.0,247.0,2065.28
2065290.0,222.0,32.0,4.0,248.0,2065.29
2065300.0,215.0,33.0,3.0,241.0,2065.3
2065310.0,217.0,32.0,3.0,242.0,2065.31
2065320.0,216.0,32.0,4.0,243.0,2065.32
2065330.0,219.0,32.0,4.0,246.0,2065.33
2065340.0,223.0,32.0,4.0,248.0,2065.34
2065350.0,215.0,31.0,4.0,239.0,2065.35
2065360.0,217.0,32.0,4.0,241.0,2065.36
2065370.0,213.0,32.0,4.0,237.0,2065.37
2065380.0,221.0,32.0,3.0,246.0,2065.38
2065390.0,224.0,33.0,4.0,247.0,2065.39
2065400.0,216.0,31.0,4.0,239.0,2065.4
2065410.0,218.0,32.0,4.0,241.0,2065.41
2065420.0,214.0,32.0,3.0,239.0,2065.42
2065430.0,221.0,32.0,3.0,246.0,2065.43
2065440.0,223.0,32.0,4.0,246.0,2065.44
2065451.0,215.0,32.0,4.0,237.0,2065.451
2065461.0,217.0,33.0,4.0,240.0,2065.461
2065471.0,219.0,32.0,4.0,245.0,2065.471
2065481.0,221.0,32.0,4.0,246.0,2065.481
2065491.0,220.0,32.0,3.0,243.0,2065.491
2065501.0,214.0,32.0,4.0,237.0,2065.501
2065511.0,216.0,33.0,4.0,239.0,2065.511
2065521.0,222.0,32.0,5.0,245.0,2065.521
2065531.0,220.0,32.0,3.0,245.0,2065.531
2065541.0,223.0,33.0,5.0,244.0,2065.541
2065551.0,213.0,33.0,3.0,238.0,2065.551
2065561.0,215.0,32.0,4.0,240.0,2065.561
2065571.0,220.0,33.0,3.0,246.0,2065.571
2065581.0,220.0,32.0,3.0,246.0,2065.581
2065591.0,220.0,32.0,4.0,243.0,2065.591
2065601.0,213.0,32.0,3.0,237.0,2065.601
2065611.0,215.0,33.0,4.0,241.0,2065.611
2065622.0,221.0,33.0,4.0,247.0,2065.622
2065632.0,219.0,32.0,3.0,245.0,2065.632
2065642.0,217.0,33.0,4.0,243.0,2065.642
2065652.0,211.0,32.0,4.0,235.0,2065.652
2065662.0,218.0,33.0,4.0,246.0,2065.662
2065672.0,222.0,33.0,4.0,248.0,2065.672
2065682.0,219.0,33.0,3.0,245.0,2065.682
2065692.0,219.0,32.0,4.0,242.0,2065.692
2065702.0,211.0,33.0,4.0,236.0,2065.702
2065712.0,216.0,33.0,4.0,243.0,2065.712
2065722.0,222.0,33.0,4.0,247.0,2065.722
2065732.0,219.0,33.0,3.0,244.0,2065.732
2065742.0,218.0,33.0,3.0,242.0,2065.742
2065752.0,212.0,32.0,4.0,236.0,2065.752
2065762.0,216.0,32.0,4.0,242.0,2065.762
2065772.0,223.0,33.0,5.0,248.0,2065.772
2065782.0,219.0,33.0,4.0,243.0,2065.782
2065792.0,221.0,33.0,4.0,243.0,2065.792
2065802.0,212.0,32.0,4.0,236.0,2065.802
2065812.0,218.0,33.0,3.0,244.0,2065.812
2065822.0,223.0,32.0,4.0,248.0,2065.822
2065832.0,217.0,33.0,4.0,242.0,2065.832
2065842.0,220.0,32.0,4.0,243.0,2065.842
2065852.0,212.0,33.0,4.0,235.0,2065.852
2065862.0,218.0,33.0,4.0,244.0,2065.862
2065872.0,223.0,34.0,3.0,248.0,2065.872
2065882.0,220.0,32.0,4.0,244.0,2065.882
2065892.0,219.0,32.0,3.0,243.0,2065.892
2065902.0,212.0,32.0,5.0,235.0,2065.902
2065912.0,219.0,32.0,4.0,246.0,2065.912
2065922.0,223.0,33.0,5.0,248.0,2065.922
2065932.0,220.0,33.0,3.0,247.0,2065.932
2065942.0,218.0,33.0,3.0,243.0,2065.942
2065952.0,212.0,32.0,3.0,238.0,2065.952
2065963.0,220.0,32.0,4.0,247.0,2065.963
2065973.0,223.0,33.0,4.0,249.0,2065.973
2065983.0,218.0,32.0,4.0,242.0,2065.983
2065993.0,218.0,32.0,4.0,243.0,2065.993
2066003.0,217.0,32.0,3.0,244.0,2066.003
2066013.0,221.0,32.0,4.0,248.0,2066.013
2066023.0,223.0,32.0,4.0,248.0,2066.023
2066033.0,219.0,31.0,4.0,242.0,2066.033
2066043.0,218.0,32.0,4.0,242.0,2066.043
2066053.0,214.0,32.0,4.0,240.0,2066.053
2066063.0,222.0,32.0,3.0,249.0,2066.063
2066073.0,224.0,32.0,4.0,248.0,2066.073
2066083.0,218.0,32.0,3.0,242.0,2066.083
2066093.0,220.0,32.0,4.0,242.0,2066.093
2066103.0,216.0,31.0,4.0,240.0,2066.103
2066113.0,224.0,32.0,4.0,248.0,2066.113
2066123.0,224.0,33.0,3.0,248.0,2066.123
2066134.0,219.0,32.0,3.0,240.0,2066.134
2066144.0,220.0,32.0,4.0,241.0,2066.144
2066154.0,222.0,32.0,4.0,246.0,2066.154
2066164.0,224.0,31.0,4.0,246.0,2066.164
2066174.0,222.0,33.0,3.0,244.0,2066.174
2066184.0,219.0,31.0,4.0,239.0,2066.184
2066194.0,219.0,33.0,3.0,240.0,2066.194
2066204.0,223.0,32.0,4.0,247.0,2066.204
2066214.0,224.0,32.0,3.0,246.0,2066.214
2066224.0,225.0,32.0,4.0,246.0,2066.224
2066234.0,218.0,32.0,4.0,239.0,2066.234
2066244.0,219.0,32.0,4.0,240.0,2066.244
2066254.0,224.0,33.0,3.0,248.0,2066.254
2066264.0,226.0,32.0,3.0,247.0,2066.264
2066274.0,225.0,33.0,3.0,245.0,2066.274
2066284.0,219.0,32.0,5.0,237.0,2066.284
2066294.0,220.0,32.0,4.0,240.0,2066.294
2066304.0,222.0,32.0,5.0,242.0,2066.304
2066314.0,226.0,32.0,3.0,247.0,2066.314
2066324.0,223.0,33.0,3.0,244.0,2066.324
2066334.0,217.0,32.0,4.0,236.0,2066.334
2066344.0,219.0,32.0,4.0,241.0,2066.344
2066354.0,222.0,32.0,4.0,243.0,2066.354
2066364.0,224.0,32.0,4.0,246.0,2066.364
2066374.0,223.0,32.0,4.0,243.0,2066.374
2066384.0,217.0,33.0,3.0,235.0,2066.384
2066394.0,220.0,32.0,4.0,239.0,2066.394
2066404.0,222.0,32.0,4.0,242.0,2066.404
2066414.0,225.0,32.0,4.0,243.0,2066.414
2066424.0,223.0,33.0,3.0,242.0,2066.424
2066434.0,220.0,31.0,4.0,235.0,2066.434
2066444.0,219.0,33.0,3.0,239.0,2066.444
2066454.0,223.0,32.0,4.0,243.0,2066.454
2066464.0,224.0,32.0,4.0,243.0,2066.464
2066475.0,222.0,32.0,5.0,241.0,2066.475
2066485.0,216.0,31.0,3.0,232.0,2066.485
2066495.0,220.0,32.0,3.0,241.0,2066.495
2066505.0,225.0,33.0,3.0,246.0,2066.505
2066515.0,221.0,32.0,3.0,240.0,2066.515
2066525.0,222.0,33.0,3.0,242.0,2066.525
2066535.0,215.0,32.0,4.0,233.0,2066.535
2066545.0,222.0,33.0,4.0,242.0,2066.545
2066555.0,226.0,32.0,3.0,246.0,2066.555
2066565.0,224.0,31.0,3.0,243.0,2066.565
2066575.0,222.0,32.0,4.0,241.0,2066.575
2066585.0,215.0,32.0,3.0,233.0,2066.585
2066595.0,221.0,32.0,3.0,244.0,2066.595
2066605.0,224.0,32.0,4.0,246.0,2066.605
2066615.0,223.0,32.0,4.0,244.0,2066.615
2066625.0,221.0,32.0,4.0,242.0,2066.625
2066635.0,215.0,32.0,4.0,235.0,2066.635
2066646.0,222.0,32.0,3.0,244.0,2066.646
2066656.0,225.0,32.0,3.0,246.0,2066.656
2066666.0,221.0,32.0,4.0,239.0,2066.666
2066676.0,220.0,32.0,4.0,240.0,2066.676
2066686.0,219.0,32.0,4.0,240.0,2066.686
2066696.0,223.0,31.0,4.0,245.0,2066.696
2066706.0,226.0,33.0,3.0,246.0,2066.706
2066716.0,220.0,32.0,4.0,238.0,2066.716
2066726.0,219.0,32.0,4.0,238.0,2066.726
2066736.0,216.0,32.0,4.0,234.0,2066.736
2066746.0,222.0,32.0,4.0,243.0,2066.746
2066756.0,226.0,32.0,4.0,244.0,2066.756
2066766.0,219.0,33.0,3.0,236.0,2066.766
2066776.0,220.0,32.0,4.0,239.0,2066.776
2066786.0,215.0,32.0,3.0,236.0,2066.786
2066796.0,224.0,32.0,5.0,244.0,2066.796
2066806.0,224.0,33.0,3.0,245.0,2066.806
2066816.0,221.0,32.0,5.0,238.0,2066.816
2066826.0,219.0,33.0,3.0,241.0,2066.826
2066836.0,216.0,32.0,4.0,236.0,2066.836
2066846.0,223.0,32.0,3.0,244.0,2066.846
2066856.0,224.0,32.0,4.0,245.0,2066.856
2066866.0,219.0,32.0,4.0,238.0,2066.866
2066876.0,219.0,32.0,4.0,239.0,2066.876
2066886.0,217.0,32.0,4.0,239.0,2066.886
2066896.0,223.0,33.0,3.0,244.0,2066.896
2066906.0,225.0,32.0,4.0,246.0,2066.906
2066916.0,218.0,33.0,3.0,238.0,2066.916
2066926.0,219.0,32.0,5.0,239.0,2066.926
2066936.0,217.0,32.0,3.0,240.0,2066.936
2066946.0,222.0,31.0,4.0,243.0,2066.946
2066956.0,223.0,33.0,3.0,247.0,2066.956
2066966.0,218.0,32.0,4.0,236.0,2066.966
2066976.0,219.0,32.0,3.0,239.0,2066.976
2066987.0,219.0,33.0,4.0,240.0,2066.987
2066997.0,223.0,32.0,4.0,243.0,2066.997
2067007.0,222.0,32.0,4.0,242.0,2067.007
2067017.0,215.0,33.0,4.0,234.0,2067.017
2067027.0,218.0,32.0,3.0,238.0,2067.027
2067037.0,220.0,33.0,4.0,242.0,2067.037
2067047.0,223.0,32.0,4.0,243.0,2067.047
2067057.0,223.0,32.0,4.0,242.0,2067.057
2067067.0,215.0,33.0,4.0,233.0,2067.067
2067077.0,219.0,32.0,4.0,238.0,2067.077
2067087.0,220.0,33.0,4.0,241.0,2067.087
2067097.0,223.0,32.0,4.0,242.0,2067.097
2067107.0,221.0,33.0,3.0,241.0,2067.107
2067117.0,218.0,32.0,3.0,235.0,2067.117
2067127.0,218.0,32.0,3.0,238.0,2067.127
2067137.0,221.0,32.0,4.0,243.0,2067.137
2067147.0,222.0,33.0,3.0,242.0,2067.147
2067158.0,221.0,32.0,4.0,240.0,2067.158
2067168.0,213.0,32.0,3.0,233.0,2067.168
2067178.0,218.0,33.0,5.0,241.0,2067.178
2067188.0,223.0,33.0,4.0,246.0,2067.188
2067198.0,219.0,33.0,4.0,239.0,2067.198
2067208.0,220.0,33.0,4.0,242.0,2067.208
2067218.0,211.0,33.0,3.0,232.0,2067.218
2067228.0,218.0,32.0,4.0,242.0,2067.228
2067238.0,223.0,33.0,5.0,246.0,2067.238
2067248.0,220.0,32.0,4.0,242.0,2067.248
2067258.0,218.0,33.0,3.0,241.0,2067.258
2067268.0,211.0,33.0,3.0,233.0,2067.268
2067278.0,218.0,33.0,4.0,242.0,2067.278
2067288.0,222.0,32.0,4.0,245.0,2067.288
2067298.0,220.0,33.0,3.0,241.0,2067.298
2067308.0,220.0,33.0,5.0,240.0,2067.308
2067318.0,212.0,32.0,4.0,232.0,2067.318
2067328.0,218.0,33.0,4.0,239.0,2067.328
2067338.0,223.0,33.0,3.0,246.0,2067.338
2067348.0,220.0,33.0,3.0,240.0,2067.348
2067358.0,218.0,33.0,4.0,240.0,2067.358
2067368.0,211.0,33.0,4.0,233.0,2067.368
2067378.0,217.0,32.0,4.0,240.0,2067.378
2067388.0,222.0,33.0,4.0,245.0,2067.388
2067398.0,218.0,33.0,3.0,240.0,2067.398
2067408.0,217.0,33.0,3.0,240.0,2067.408
2067418.0,211.0,32.0,4.0,233.0,2067.418
2067428.0,216.0,33.0,4.0,241.0,2067.428
2067438.0,222.0,33.0,4.0,246.0,2067.438
2067448.0,216.0,33.0,2.0,239.0,2067.448
2067458.0,219.0,33.0,5.0,240.0,2067.458
2067468.0,211.0,33.0,3.0,233.0,2067.468
2067478.0,217.0,32.0,3.0,242.0,2067.478
2067488.0,222.0,33.0,3.0,246.0,2067.488
2067499.0,218.0,32.0,5.0,239.0,2067.499
2067509.0,217.0,33.0,4.0,240.0,2067.509
2067519.0,213.0,32.0,4.0,237.0,2067.519
2067529.0,220.0,33.0,3.0,245.0,2067.529
2067539.0,222.0,33.0,3.0,244.0,2067.539
2067549.0,216.0,33.0,3.0,239.0,2067.549
2067559.0,217.0,33.0,4.0,239.0,2067.559
2067569.0,215.0,33.0,4.0,238.0,2067.569
2067579.0,220.0,33.0,3.0,244.0,2067.579
2067589.0,223.0,33.0,4.0,246.0,2067.589
2067599.0,215.0,33.0,3.0,237.0,2067.599
2067609.0,217.0,32.0,4.0,240.0,2067.609
2067619.0,214.0,34.0,4.0,239.0,2067.619
2067629.0,218.0,34.0,3.0,243.0,2067.629
2067639.0,222.0,34.0,4.0,246.0,2067.639
2067649.0,215.0,32.0,4.0,236.0,2067.649
2067659.0,216.0,34.0,3.0,240.0,2067.659
2067670.0,215.0,34.0,3.0,240.0,2067.67
2067680.0,219.0,33.0,4.0,243.0,2067.68
2067690.0,220.0,34.0,4.0,242.0,2067.69
2067700.0,212.0,33.0,4.0,233.0,2067.7
2067710.0,214.0,33.0,3.0,238.0,2067.71
2067720.0,215.0,34.0,3.0,242.0,2067.72
2067730.0,219.0,33.0,3.0,244.0,2067.73
2067740.0,219.0,33.0,4.0,241.0,2067.74
2067750.0,211.0,33.0,4.0,233.0,2067.75
2067760.0,215.0,33.0,4.0,238.0,2067.76
2067770.0,216.0,34.0,2.0,242.0,2067.77
2067780.0,219.0,33.0,4.0,243.0,2067.78
2067790.0,219.0,34.0,4.0,242.0,2067.79
2067800.0,213.0,32.0,4.0,236.0,2067.8
2067810.0,214.0,33.0,3.0,238.0,2067.81
2067820.0,218.0,33.0,5.0,243.0,2067.82
