time (ms),signal 0,signal 1,signal 2,signal 3,time (sec)
2140211.0,223.0,32.0,4.0,242.0,2140.211
2140221.0,219.0,32.0,4.0,238.0,2140.221
2140231.0,218.0,32.0,3.0,237.0,2140.231
2140241.0,212.0,32.0,5.0,231.0,2140.241
2140251.0,218.0,32.0,4.0,239.0,2140.251
2140261.0,222.0,32.0,3.0,243.0,2140.261
2140271.0,218.0,32.0,4.0,237.0,2140.271
2140281.0,217.0,32.0,3.0,236.0,2140.281
2140291.0,211.0,32.0,4.0,228.0,2140.291
2140301.0,217.0,32.0,4.0,238.0,2140.301
2140311.0,223.0,33.0,4.0,242.0,2140.311
2140321.0,217.0,31.0,4.0,235.0,2140.321
2140331.0,219.0,31.0,4.0,236.0,2140.331
2140341.0,210.0,32.0,3.0,228.0,2140.341
2140351.0,217.0,32.0,3.0,236.0,2140.351
2140361.0,222.0,32.0,4.0,242.0,2140.361
2140371.0,217.0,32.0,5.0,234.0,2140.371
2140381.0,217.0,32.0,4.0,236.0,2140.381
2140391.0,211.0,32.0,4.0,230.0,2140.391
2140401.0,216.0,33.0,3.0,242.0,2140.401
2140411.0,220.0,32.0,4.0,244.0,2140.411
2140421.0,217.0,32.0,4.0,239.0,2140.421
2140431.0,217.0,32.0,4.0,239.0,2140.431
2140441.0,211.0,31.0,4.0,232.0,2140.441
2140451.0,218.0,33.0,3.0,242.0,2140.451
2140461.0,223.0,31.0,4.0,245.0,2140.461
2140471.0,219.0,32.0,3.0,240.0,2140.471
2140481.0,219.0,32.0,4.0,239.0,2140.481
2140491.0,212.0,33.0,3.0,235.0,2140.491
2140502.0,224.0,32.0,4.0,247.0,2140.502
2140512.0,228.0,32.0,4.0,248.0,2140.512
2140522.0,219.0,32.0,4.0,239.0,2140.522
2140532.0,221.0,33.0,3.0,242.0,2140.532
2140542.0,221.0,32.0,4.0,244.0,2140.542
2140552.0,223.0,33.0,3.0,248.0,2140.552
2140562.0,226.0,33.0,5.0,247.0,2140.562
2140572.0,217.0,33.0,4.0,238.0,2140.572
2140582.0,218.0,32.0,4.0,240.0,2140.582
2140592.0,216.0,33.0,4.0,240.0,2140.592
2140602.0,223.0,33.0,3.0,246.0,2140.602
2140612.0,226.0,33.0,5.0,245.0,2140.612
2140622.0,216.0,33.0,4.0,237.0,2140.622
2140632.0,219.0,32.0,3.0,241.0,2140.632
2140642.0,217.0,33.0,4.0,240.0,2140.642
2140652.0,223.0,32.0,4.0,246.0,2140.652
2140662.0,224.0,34.0,3.0,245.0,2140.662
2140672.0,219.0,32.0,4.0,239.0,2140.672
2140682.0,220.0,32.0,4.0,240.0,2140.682
2140692.0,220.0,33.0,4.0,242.0,2140.692
2140702.0,223.0,32.0,3.0,246.0,2140.702
2140712.0,223.0,33.0,4.0,245.0,2140.712
2140722.0,218.0,32.0,4.0,239.0,2140.722
2140732.0,216.0,32.0,4.0,240.0,2140.732
2140742.0,217.0,33.0,3.0,242.0,2140.742
2140752.0,220.0,33.0,4.0,244.0,2140.752
2140762.0,224.0,32.0,4.0,246.0,2140.762
2140772.0,216.0,33.0,3.0,238.0,2140.772
2140782.0,218.0,33.0,3.0,241.0,2140.782
2140792.0,219.0,33.0,3.0,245.0,2140.792
2140802.0,223.0,32.0,4.0,246.0,2140.802
2140812.0,224.0,33.0,4.0,247.0,2140.812
2140822.0,218.0,33.0,4.0,239.0,2140.822
2140832.0,219.0,33.0,4.0,241.0,2140.832
2140843.0,222.0,33.0,4.0,247.0,2140.843
2140853.0,225.0,34.0,3.0,247.0,2140.853
2140863.0,227.0,32.0,4.0,245.0,2140.863
2140873.0,217.0,33.0,4.0,238.0,2140.873
2140883.0,223.0,33.0,5.0,245.0,2140.883
2140893.0,225.0,33.0,4.0,249.0,2140.893
2140903.0,225.0,33.0,3.0,247.0,2140.903
2140913.0,224.0,34.0,3.0,245.0,2140.913
2140923.0,216.0,32.0,3.0,238.0,2140.923
2140933.0,219.0,33.0,4.0,245.0,2140.933
2140943.0,221.0,33.0,4.0,248.0,2140.943
2140953.0,211.0,33.0,3.0,244.0,2140.953
2140963.0,214.0,33.0,3.0,244.0,2140.963
2140973.0,210.0,33.0,4.0,236.0,2140.973
2140983.0,215.0,34.0,3.0,241.0,2140.983
2140993.0,221.0,32.0,4.0,245.0,2140.993
2141003.0,215.0,33.0,3.0,239.0,2141.003
2141014.0,218.0,33.0,5.0,238.0,2141.014
2141024.0,212.0,33.0,4.0,231.0,2141.024
2141034.0,221.0,33.0,3.0,241.0,2141.034
2141044.0,228.0,34.0,3.0,247.0,2141.044
2141054.0,214.0,32.0,4.0,238.0,2141.054
2141064.0,218.0,35.0,3.0,244.0,2141.064
2141074.0,214.0,33.0,5.0,241.0,2141.074
2141084.0,224.0,33.0,4.0,253.0,2141.084
2141094.0,227.0,33.0,4.0,251.0,2141.094
2141104.0,220.0,33.0,4.0,245.0,2141.104
2141114.0,223.0,34.0,3.0,247.0,2141.114
2141124.0,217.0,34.0,5.0,243.0,2141.124
2141134.0,222.0,33.0,4.0,253.0,2141.134
2141144.0,224.0,33.0,4.0,252.0,2141.144
2141154.0,214.0,34.0,4.0,245.0,2141.154
2141164.0,213.0,33.0,4.0,244.0,2141.164
2141174.0,211.0,35.0,3.0,242.0,2141.174
2141184.0,217.0,33.0,4.0,246.0,2141.184
2141194.0,223.0,34.0,3.0,250.0,2141.194
2141204.0,217.0,33.0,5.0,243.0,2141.204
2141214.0,213.0,34.0,2.0,242.0,2141.214
2141224.0,210.0,33.0,4.0,240.0,2141.224
2141234.0,214.0,34.0,3.0,244.0,2141.234
2141244.0,219.0,34.0,3.0,246.0,2141.244
2141254.0,216.0,33.0,4.0,242.0,2141.254
2141264.0,224.0,34.0,5.0,244.0,2141.264
2141274.0,216.0,34.0,3.0,240.0,2141.274
2141284.0,223.0,35.0,3.0,251.0,2141.284
2141294.0,229.0,34.0,4.0,255.0,2141.294
2141304.0,219.0,33.0,3.0,245.0,2141.304
2141314.0,224.0,33.0,3.0,245.0,2141.314
2141324.0,225.0,34.0,4.0,238.0,2141.324
2141334.0,236.0,33.0,3.0,250.0,2141.334
2141344.0,237.0,34.0,4.0,251.0,2141.344
2141355.0,231.0,33.0,4.0,243.0,2141.355
2141365.0,234.0,34.0,3.0,244.0,2141.365
2141375.0,240.0,34.0,4.0,248.0,2141.375
2141385.0,242.0,33.0,4.0,253.0,2141.385
2141395.0,242.0,34.0,4.0,249.0,2141.395
2141405.0,237.0,33.0,3.0,249.0,2141.405
2141415.0,238.0,33.0,3.0,252.0,2141.415
2141425.0,248.0,34.0,3.0,258.0,2141.425
2141435.0,250.0,32.0,4.0,258.0,2141.435
2141445.0,251.0,35.0,3.0,259.0,2141.445
2141455.0,239.0,33.0,4.0,249.0,2141.455
2141465.0,241.0,33.0,4.0,249.0,2141.465
2141475.0,246.0,35.0,3.0,257.0,2141.475
2141485.0,243.0,33.0,4.0,253.0,2141.485
2141495.0,244.0,34.0,3.0,252.0,2141.495
2141505.0,234.0,32.0,3.0,246.0,2141.505
2141515.0,239.0,33.0,4.0,253.0,2141.515
2141526.0,246.0,33.0,5.0,263.0,2141.526
2141536.0,244.0,33.0,3.0,262.0,2141.536
2141546.0,244.0,33.0,3.0,258.0,2141.546
2141556.0,235.0,34.0,3.0,249.0,2141.556
2141566.0,244.0,32.0,4.0,260.0,2141.566
2141576.0,244.0,34.0,3.0,266.0,2141.576
2141586.0,243.0,33.0,4.0,262.0,2141.586
2141596.0,243.0,33.0,2.0,261.0,2141.596
2141606.0,232.0,33.0,4.0,256.0,2141.606
2141616.0,242.0,33.0,4.0,261.0,2141.616
2141626.0,247.0,33.0,3.0,262.0,2141.626
2141636.0,247.0,32.0,4.0,258.0,2141.636
2141646.0,254.0,33.0,5.0,260.0,2141.646
2141656.0,245.0,32.0,4.0,250.0,2141.656
2141666.0,249.0,33.0,4.0,254.0,2141.666
2141676.0,257.0,32.0,4.0,261.0,2141.676
2141686.0,251.0,33.0,3.0,256.0,2141.686
2141696.0,255.0,32.0,3.0,259.0,2141.696
2141706.0,244.0,32.0,4.0,245.0,2141.706
2141716.0,254.0,32.0,5.0,252.0,2141.716
2141726.0,261.0,33.0,4.0,259.0,2141.726
2141736.0,254.0,32.0,4.0,248.0,2141.736
2141746.0,256.0,33.0,4.0,252.0,2141.746
2141756.0,245.0,32.0,4.0,244.0,2141.756
2141766.0,253.0,32.0,3.0,255.0,2141.766
2141776.0,250.0,32.0,5.0,258.0,2141.776
2141786.0,243.0,32.0,4.0,252.0,2141.786
2141796.0,243.0,33.0,3.0,250.0,2141.796
2141806.0,233.0,32.0,3.0,242.0,2141.806
2141816.0,235.0,33.0,3.0,251.0,2141.816
2141826.0,252.0,32.0,3.0,256.0,2141.826
2141836.0,242.0,32.0,4.0,248.0,2141.836
2141846.0,244.0,33.0,4.0,248.0,2141.846
2141856.0,233.0,33.0,4.0,241.0,2141.856
2141867.0,250.0,32.0,4.0,254.0,2141.867
2141877.0,253.0,33.0,3.0,259.0,2141.877
2141887.0,243.0,32.0,4.0,251.0,2141.887
2141897.0,243.0,33.0,4.0,255.0,2141.897
2141907.0,243.0,33.0,4.0,259.0,2141.907
2141917.0,244.0,32.0,3.0,263.0,2141.917
2141927.0,247.0,33.0,4.0,263.0,2141.927
2141937.0,239.0,33.0,3.0,254.0,2141.937
2141947.0,236.0,32.0,4.0,254.0,2141.947
2141957.0,235.0,33.0,4.0,251.0,2141.957
2141967.0,241.0,32.0,5.0,258.0,2141.967
2141977.0,243.0,32.0,4.0,260.0,2141.977
2141987.0,238.0,33.0,3.0,253.0,2141.987
2141997.0,246.0,32.0,4.0,257.0,2141.997
2142007.0,241.0,33.0,3.0,256.0,2142.007
2142017.0,249.0,32.0,4.0,267.0,2142.017
2142027.0,249.0,32.0,4.0,270.0,2142.027
2142038.0,241.0,31.0,4.0,259.0,2142.038
2142048.0,243.0,32.0,4.0,261.0,2142.048
2142058.0,246.0,32.0,4.0,265.0,2142.058
2142068.0,243.0,33.0,3.0,264.0,2142.068
2142078.0,244.0,32.0,4.0,262.0,2142.078
2142088.0,236.0,32.0,3.0,256.0,2142.088
2142098.0,240.0,32.0,5.0,261.0,2142.098
2142108.0,242.0,32.0,4.0,269.0,2142.108
2142118.0,244.0,32.0,4.0,265.0,2142.118
2142128.0,252.0,32.0,4.0,265.0,2142.128
2142138.0,243.0,32.0,3.0,256.0,2142.138
2142148.0,237.0,32.0,3.0,258.0,2142.148
2142158.0,241.0,33.0,4.0,266.0,2142.158
2142168.0,241.0,32.0,4.0,263.0,2142.168
2142178.0,238.0,33.0,3.0,261.0,2142.178
2142188.0,228.0,32.0,3.0,251.0,2142.188
2142198.0,232.0,33.0,3.0,255.0,2142.198
2142208.0,235.0,32.0,4.0,259.0,2142.208
2142218.0,235.0,32.0,3.0,260.0,2142.218
2142228.0,233.0,32.0,4.0,256.0,2142.228
2142238.0,231.0,32.0,3.0,250.0,2142.238
2142248.0,238.0,32.0,3.0,252.0,2142.248
2142258.0,240.0,33.0,2.0,255.0,2142.258
2142268.0,240.0,32.0,4.0,252.0,2142.268
2142278.0,239.0,32.0,3.0,251.0,2142.278
2142288.0,231.0,32.0,5.0,242.0,2142.288
2142298.0,231.0,32.0,4.0,248.0,2142.298
2142308.0,238.0,32.0,4.0,254.0,2142.308
2142318.0,240.0,32.0,4.0,254.0,2142.318
2142328.0,240.0,33.0,3.0,254.0,2142.328
2142338.0,233.0,32.0,4.0,247.0,2142.338
2142348.0,229.0,32.0,4.0,246.0,2142.348
2142358.0,238.0,31.0,4.0,253.0,2142.358
2142368.0,243.0,32.0,4.0,254.0,2142.368
2142379.0,249.0,32.0,4.0,255.0,2142.379
2142389.0,238.0,33.0,3.0,246.0,2142.389
2142399.0,245.0,32.0,4.0,256.0,2142.399
2142409.0,249.0,33.0,4.0,262.0,2142.409
2142419.0,245.0,32.0,4.0,255.0,2142.419
2142429.0,244.0,33.0,3.0,259.0,2142.429
2142439.0,242.0,32.0,4.0,254.0,2142.439
2142449.0,252.0,33.0,3.0,270.0,2142.449
2142459.0,257.0,33.0,3.0,272.0,2142.459
2142469.0,251.0,34.0,3.0,265.0,2142.469
2142479.0,252.0,33.0,5.0,262.0,2142.479
2142489.0,242.0,33.0,4.0,252.0,2142.489
2142499.0,249.0,34.0,4.0,260.0,2142.499
2142509.0,250.0,33.0,3.0,263.0,2142.509
2142519.0,249.0,32.0,3.0,257.0,2142.519
2142529.0,246.0,32.0,4.0,254.0,2142.529
2142539.0,237.0,33.0,4.0,249.0,2142.539
2142550.0,242.0,31.0,4.0,255.0,2142.55
2142560.0,244.0,33.0,4.0,254.0,2142.56
2142570.0,240.0,32.0,3.0,245.0,2142.57
2142580.0,240.0,33.0,4.0,248.0,2142.58
2142590.0,242.0,32.0,4.0,251.0,2142.59
2142600.0,243.0,33.0,3.0,253.0,2142.6
2142610.0,248.0,33.0,5.0,252.0,2142.61
2142620.0,239.0,32.0,4.0,244.0,2142.62
2142630.0,235.0,33.0,4.0,247.0,2142.63
2142640.0,232.0,33.0,4.0,250.0,2142.64
2142650.0,238.0,33.0,3.0,259.0,2142.65
2142660.0,242.0,33.0,4.0,261.0,2142.66
2142670.0,235.0,33.0,5.0,249.0,2142.67
2142680.0,240.0,33.0,4.0,253.0,2142.68
2142690.0,237.0,32.0,4.0,251.0,2142.69
2142700.0,243.0,33.0,4.0,259.0,2142.7
2142710.0,245.0,34.0,3.0,259.0,2142.71
2142720.0,239.0,33.0,3.0,253.0,2142.72
2142730.0,241.0,33.0,3.0,255.0,2142.73
2142740.0,240.0,32.0,5.0,255.0,2142.74
2142750.0,244.0,33.0,4.0,258.0,2142.75
2142760.0,248.0,32.0,4.0,259.0,2142.76
2142770.0,244.0,33.0,2.0,255.0,2142.77
2142780.0,244.0,32.0,4.0,256.0,2142.78
2142790.0,245.0,33.0,4.0,258.0,2142.79
2142800.0,250.0,32.0,5.0,262.0,2142.8
2142810.0,258.0,33.0,3.0,268.0,2142.81
2142820.0,247.0,32.0,4.0,256.0,2142.82
2142830.0,247.0,33.0,4.0,260.0,2142.83
2142840.0,246.0,33.0,4.0,262.0,2142.84
2142850.0,249.0,33.0,4.0,265.0,2142.85
2142860.0,251.0,32.0,4.0,262.0,2142.86
2142870.0,243.0,32.0,4.0,255.0,2142.87
2142880.0,241.0,33.0,4.0,257.0,2142.88
2142891.0,243.0,33.0,4.0,264.0,2142.891
2142901.0,245.0,33.0,3.0,265.0,2142.901
2142911.0,241.0,32.0,4.0,261.0,2142.911
2142921.0,229.0,32.0,4.0,251.0,2142.921
2142931.0,234.0,32.0,5.0,259.0,2142.931
2142941.0,235.0,33.0,4.0,262.0,2142.941
2142951.0,236.0,32.0,4.0,259.0,2142.951
2142961.0,235.0,34.0,3.0,257.0,2142.961
2142971.0,228.0,32.0,4.0,246.0,2142.971
2142981.0,233.0,34.0,3.0,252.0,2142.981
2142991.0,238.0,33.0,5.0,257.0,2142.991
2143001.0,238.0,33.0,4.0,256.0,2143.001
2143011.0,237.0,33.0,4.0,252.0,2143.011
2143021.0,231.0,33.0,3.0,245.0,2143.021
2143031.0,234.0,33.0,3.0,249.0,2143.031
2143041.0,240.0,33.0,3.0,257.0,2143.041
2143051.0,238.0,33.0,3.0,254.0,2143.051
2143062.0,237.0,33.0,4.0,251.0,2143.062
2143072.0,229.0,32.0,4.0,243.0,2143.072
2143082.0,236.0,32.0,4.0,253.0,2143.082
2143092.0,238.0,33.0,3.0,254.0,2143.092
2143102.0,232.0,32.0,4.0,247.0,2143.102
2143112.0,232.0,33.0,4.0,248.0,2143.112
2143122.0,227.0,32.0,5.0,241.0,2143.122
2143132.0,234.0,33.0,2.0,253.0,2143.132
2143142.0,238.0,33.0,4.0,256.0,2143.142
2143152.0,233.0,33.0,3.0,252.0,2143.152
2143162.0,232.0,32.0,3.0,250.0,2143.162
2143172.0,227.0,32.0,4.0,246.0,2143.172
2143182.0,237.0,32.0,4.0,257.0,2143.182
2143192.0,238.0,33.0,4.0,256.0,2143.192
2143202.0,230.0,33.0,4.0,248.0,2143.202
2143212.0,229.0,33.0,3.0,251.0,2143.212
2143222.0,225.0,33.0,3.0,246.0,2143.222
2143232.0,229.0,33.0,4.0,251.0,2143.232
2143242.0,235.0,33.0,4.0,254.0,2143.242
2143252.0,230.0,32.0,4.0,247.0,2143.252
2143262.0,228.0,33.0,4.0,246.0,2143.262
2143272.0,225.0,32.0,4.0,245.0,2143.272
2143282.0,226.0,33.0,4.0,251.0,2143.282
2143292.0,230.0,33.0,3.0,253.0,2143.292
2143302.0,225.0,32.0,3.0,246.0,2143.302
2143312.0,227.0,32.0,5.0,247.0,2143.312
2143322.0,220.0,32.0,4.0,242.0,2143.322
2143332.0,228.0,32.0,4.0,251.0,2143.332
2143342.0,232.0,33.0,3.0,255.0,2143.342
2143352.0,226.0,32.0,3.0,248.0,2143.352
2143362.0,227.0,32.0,4.0,251.0,2143.362
2143372.0,221.0,32.0,4.0,245.0,2143.372
2143382.0,231.0,31.0,4.0,252.0,2143.382
2143392.0,230.0,33.0,4.0,253.0,2143.392
2143403.0,222.0,32.0,4.0,245.0,2143.403
2143413.0,223.0,33.0,4.0,245.0,2143.413
2143423.0,224.0,32.0,4.0,246.0,2143.423
2143433.0,227.0,33.0,3.0,246.0,2143.433
2143443.0,227.0,33.0,4.0,245.0,2143.443
2143453.0,221.0,32.0,4.0,240.0,2143.453
2143463.0,222.0,32.0,4.0,243.0,2143.463
2143473.0,224.0,33.0,3.0,249.0,2143.473
2143483.0,226.0,32.0,4.0,249.0,2143.483
2143493.0,226.0,34.0,3.0,250.0,2143.493
2143503.0,218.0,32.0,4.0,241.0,2143.503
2143513.0,219.0,33.0,3.0,244.0,2143.513
2143523.0,222.0,33.0,3.0,251.0,2143.523
2143533.0,224.0,31.0,4.0,252.0,2143.533
2143543.0,224.0,33.0,3.0,249.0,2143.543
2143553.0,217.0,32.0,3.0,244.0,2143.553
2143563.0,219.0,32.0,4.0,246.0,2143.563
2143574.0,224.0,33.0,4.0,253.0,2143.574
2143584.0,225.0,32.0,3.0,250.0,2143.584
2143594.0,227.0,32.0,4.0,248.0,2143.594
2143604.0,219.0,33.0,3.0,239.0,2143.604
2143614.0,226.0,32.0,4.0,247.0,2143.614
2143624.0,227.0,33.0,3.0,251.0,2143.624
2143634.0,226.0,32.0,5.0,249.0,2143.634
2143644.0,225.0,32.0,4.0,246.0,2143.644
2143654.0,217.0,32.0,4.0,239.0,2143.654
2143664.0,221.0,34.0,3.0,246.0,2143.664
2143674.0,228.0,32.0,4.0,252.0,2143.674
2143684.0,224.0,33.0,3.0,249.0,2143.684
2143694.0,224.0,33.0,4.0,247.0,2143.694
2143704.0,217.0,32.0,4.0,241.0,2143.704
2143714.0,220.0,33.0,3.0,248.0,2143.714
2143724.0,224.0,32.0,4.0,254.0,2143.724
2143734.0,221.0,32.0,3.0,249.0,2143.734
2143744.0,222.0,33.0,3.0,249.0,2143.744
2143754.0,215.0,32.0,4.0,242.0,2143.754
2143764.0,219.0,32.0,4.0,250.0,2143.764
2143774.0,224.0,33.0,4.0,254.0,2143.774
2143784.0,220.0,32.0,4.0,249.0,2143.784
2143794.0,221.0,32.0,4.0,249.0,2143.794
2143804.0,217.0,32.0,4.0,242.0,2143.804
2143814.0,223.0,33.0,4.0,248.0,2143.814
2143824.0,230.0,32.0,5.0,252.0,2143.824
2143834.0,226.0,32.0,3.0,250.0,2143.834
2143844.0,224.0,33.0,3.0,247.0,2143.844
2143854.0,217.0,33.0,3.0,240.0,2143.854
2143864.0,223.0,32.0,3.0,248.0,2143.864
2143874.0,226.0,32.0,4.0,251.0,2143.874
2143884.0,224.0,32.0,5.0,250.0,2143.884
2143894.0,223.0,32.0,3.0,248.0,2143.894
2143904.0,215.0,32.0,4.0,241.0,2143.904
2143915.0,222.0,33.0,4.0,251.0,2143.915
2143925.0,223.0,33.0,3.0,252.0,2143.925
2143935.0,215.0,32.0,3.0,246.0,2143.935
2143945.0,216.0,33.0,4.0,245.0,2143.945
2143955.0,217.0,31.0,4.0,247.0,2143.955
2143965.0,220.0,33.0,2.0,252.0,2143.965
2143975.0,224.0,32.0,4.0,252.0,2143.975
2143985.0,217.0,33.0,3.0,245.0,2143.985
2143995.0,218.0,32.0,4.0,244.0,2143.995
2144005.0,214.0,32.0,3.0,242.0,2144.005
2144015.0,223.0,32.0,5.0,251.0,2144.015
2144025.0,224.0,33.0,4.0,250.0,2144.025
2144035.0,217.0,32.0,4.0,243.0,2144.035
2144045.0,221.0,33.0,2.0,245.0,2144.045
2144055.0,216.0,32.0,4.0,241.0,2144.055
2144065.0,223.0,32.0,4.0,250.0,2144.065
2144075.0,225.0,33.0,4.0,248.0,2144.075
2144086.0,217.0,32.0,3.0,241.0,2144.086
2144096.0,218.0,32.0,3.0,242.0,2144.096
2144106.0,222.0,33.0,4.0,247.0,2144.106
2144116.0,223.0,33.0,3.0,248.0,2144.116
2144126.0,223.0,32.0,4.0,246.0,2144.126
2144136.0,216.0,33.0,3.0,241.0,2144.136
2144146.0,220.0,32.0,4.0,243.0,2144.146
2144156.0,222.0,32.0,4.0,249.0,2144.156
2144166.0,223.0,32.0,4.0,249.0,2144.166
2144176.0,222.0,33.0,3.0,249.0,2144.176
2144186.0,211.0,32.0,4.0,242.0,2144.186
2144196.0,215.0,32.0,4.0,245.0,2144.196
2144206.0,221.0,33.0,4.0,251.0,2144.206
2144216.0,222.0,32.0,3.0,251.0,2144.216
2144226.0,222.0,34.0,3.0,250.0,2144.226
2144236.0,215.0,32.0,3.0,242.0,2144.236
2144246.0,218.0,32.0,3.0,246.0,2144.246
2144256.0,219.0,33.0,4.0,249.0,2144.256
2144266.0,223.0,32.0,4.0,252.0,2144.266
2144276.0,223.0,31.0,4.0,248.0,2144.276
2144286.0,214.0,32.0,4.0,242.0,2144.286
2144296.0,217.0,32.0,4.0,247.0,2144.296
2144306.0,219.0,32.0,4.0,250.0,2144.306
2144316.0,222.0,32.0,4.0,252.0,2144.316
2144326.0,221.0,33.0,4.0,248.0,2144.326
2144336.0,215.0,32.0,4.0,241.0,2144.336
2144346.0,219.0,32.0,3.0,244.0,2144.346
2144356.0,222.0,32.0,4.0,248.0,2144.356
2144366.0,223.0,33.0,3.0,251.0,2144.366
2144376.0,222.0,32.0,4.0,244.0,2144.376
2144386.0,217.0,32.0,4.0,241.0,2144.386
2144396.0,219.0,33.0,4.0,243.0,2144.396
2144406.0,223.0,32.0,4.0,250.0,2144.406
2144416.0,224.0,32.0,3.0,250.0,2144.416
2144427.0,223.0,33.0,4.0,247.0,2144.427
2144437.0,215.0,32.0,3.0,240.0,2144.437
2144447.0,221.0,32.0,4.0,248.0,2144.447
2144457.0,225.0,32.0,4.0,251.0,2144.457
2144467.0,221.0,31.0,4.0,246.0,2144.467
2144477.0,221.0,33.0,3.0,247.0,2144.477
2144487.0,214.0,32.0,3.0,239.0,2144.487
2144497.0,222.0,33.0,3.0,249.0,2144.497
2144507.0,225.0,32.0,4.0,252.0,2144.507
2144517.0,222.0,33.0,3.0,250.0,2144.517
2144527.0,219.0,32.0,5.0,246.0,2144.527
2144537.0,209.0,31.0,4.0,240.0,2144.537
2144547.0,218.0,32.0,4.0,248.0,2144.547
2144557.0,220.0,33.0,3.0,251.0,2144.557
2144567.0,218.0,32.0,3.0,248.0,2144.567
2144577.0,219.0,32.0,4.0,246.0,2144.577
2144587.0,212.0,32.0,4.0,240.0,2144.587
2144598.0,221.0,31.0,4.0,251.0,2144.598
2144608.0,222.0,32.0,3.0,251.0,2144.608
2144618.0,215.0,33.0,3.0,244.0,2144.618
2144628.0,216.0,33.0,3.0,247.0,2144.628
2144638.0,217.0,32.0,4.0,250.0,2144.638
2144648.0,221.0,33.0,3.0,254.0,2144.648
2144658.0,224.0,33.0,4.0,253.0,2144.658
2144668.0,215.0,33.0,2.0,244.0,2144.668
2144678.0,219.0,32.0,4.0,245.0,2144.678
2144688.0,214.0,33.0,4.0,244.0,2144.688
2144698.0,221.0,32.0,4.0,252.0,2144.698
2144708.0,223.0,33.0,3.0,250.0,2144.708
2144718.0,216.0,32.0,5.0,242.0,2144.718
2144728.0,219.0,32.0,4.0,245.0,2144.728
2144738.0,215.0,34.0,3.0,244.0,2144.738
2144748.0,223.0,32.0,3.0,251.0,2144.748
2144758.0,224.0,33.0,3.0,248.0,2144.758
2144768.0,220.0,33.0,3.0,245.0,2144.768
2144778.0,221.0,32.0,4.0,244.0,2144.778
2144788.0,220.0,32.0,4.0,244.0,2144.788
2144798.0,224.0,33.0,3.0,249.0,2144.798
2144808.0,227.0,32.0,4.0,248.0,2144.808
2144818.0,220.0,33.0,3.0,243.0,2144.818
2144828.0,221.0,32.0,4.0,242.0,2144.828
2144838.0,220.0,32.0,4.0,244.0,2144.838
2144848.0,226.0,32.0,5.0,247.0,2144.848
2144858.0,226.0,33.0,4.0,248.0,2144.858
2144868.0,222.0,32.0,4.0,241.0,2144.868
2144878.0,224.0,33.0,3.0,244.0,2144.878
2144888.0,225.0,32.0,4.0,246.0,2144.888
2144898.0,227.0,32.0,4.0,248.0,2144.898
2144908.0,228.0,33.0,4.0,248.0,2144.908
2144918.0,219.0,32.0,4.0,240.0,2144.918
2144928.0,220.0,33.0,4.0,241.0,2144.928
2144939.0,222.0,33.0,3.0,246.0,2144.939
2144949.0,223.0,33.0,3.0,247.0,2144.949
2144959.0,223.0,32.0,4.0,244.0,2144.959
2144969.0,215.0,32.0,4.0,237.0,2144.969
2144979.0,219.0,33.0,4.0,245.0,2144.979
2144989.0,221.0,33.0,4.0,249.0,2144.989
2144999.0,223.0,33.0,4.0,249.0,2144.999
2145009.0,222.0,34.0,3.0,247.0,2145.009
2145019.0,214.0,32.0,4.0,237.0,2145.019
2145029.0,219.0,33.0,3.0,244.0,2145.029
2145039.0,224.0,33.0,4.0,250.0,2145.039
2145049.0,225.0,33.0,4.0,249.0,2145.049
2145059.0,227.0,33.0,4.0,245.0,2145.059
2145069.0,220.0,33.0,4.0,239.0,2145.069
2145079.0,222.0,33.0,4.0,242.0,2145.079
2145089.0,227.0,33.0,5.0,249.0,2145.089
2145099.0,228.0,33.0,5.0,246.0,2145.099
2145110.0,227.0,33.0,3.0,244.0,2145.11
2145120.0,218.0,32.0,4.0,237.0,2145.12
2145130.0,224.0,33.0,3.0,247.0,2145.13
2145140.0,227.0,34.0,3.0,249.0,2145.14
2145150.0,221.0,32.0,4.0,243.0,2145.15
2145160.0,223.0,34.0,3.0,244.0,2145.16
2145170.0,215.0,33.0,4.0,237.0,2145.17
2145180.0,223.0,33.0,3.0,247.0,2145.18
2145190.0,231.0,33.0,3.0,250.0,2145.19
2145200.0,226.0,33.0,3.0,247.0,2145.2
2145210.0,224.0,33.0,4.0,245.0,2145.21
2145220.0,217.0,33.0,4.0,240.0,2145.22
2145230.0,225.0,33.0,5.0,250.0,2145.23
2145240.0,227.0,34.0,4.0,251.0,2145.24
2145250.0,222.0,34.0,3.0,245.0,2145.25
2145260.0,222.0,34.0,3.0,246.0,2145.26
2145270.0,214.0,33.0,3.0,241.0,2145.27
2145280.0,220.0,33.0,4.0,247.0,2145.28
2145290.0,226.0,33.0,4.0,251.0,2145.29
2145300.0,221.0,32.0,4.0,245.0,2145.3
2145310.0,220.0,33.0,3.0,244.0,2145.31
2145320.0,216.0,33.0,4.0,243.0,2145.32
2145330.0,220.0,34.0,3.0,248.0,2145.33
2145340.0,225.0,32.0,4.0,251.0,2145.34
2145350.0,222.0,33.0,4.0,244.0,2145.35
2145360.0,226.0,33.0,5.0,245.0,2145.36
2145370.0,217.0,32.0,4.0,238.0,2145.37
2145380.0,224.0,33.0,4.0,248.0,2145.38
2145390.0,228.0,35.0,3.0,252.0,2145.39
2145400.0,221.0,32.0,3.0,244.0,2145.4
2145410.0,223.0,32.0,4.0,245.0,2145.41
2145420.0,216.0,33.0,4.0,239.0,2145.42
2145430.0,224.0,33.0,4.0,248.0,2145.43
2145440.0,227.0,33.0,4.0,250.0,2145.44
2145451.0,220.0,33.0,3.0,243.0,2145.451
2145461.0,221.0,33.0,3.0,244.0,2145.461
2145471.0,220.0,33.0,3.0,245.0,2145.471
2145481.0,224.0,32.0,4.0,248.0,2145.481
2145491.0,224.0,33.0,4.0,246.0,2145.491
2145501.0,217.0,32.0,4.0,241.0,2145.501
2145511.0,219.0,33.0,4.0,243.0,2145.511
2145521.0,219.0,33.0,3.0,246.0,2145.521
2145531.0,223.0,32.0,3.0,249.0,2145.531
2145541.0,225.0,33.0,3.0,250.0,2145.541
2145551.0,219.0,32.0,5.0,243.0,2145.551
2145561.0,218.0,33.0,4.0,244.0,2145.561
2145571.0,220.0,33.0,4.0,249.0,2145.571
2145581.0,220.0,33.0,4.0,251.0,2145.581
2145591.0,223.0,33.0,4.0,250.0,2145.591
2145601.0,215.0,32.0,5.0,243.0,2145.601
2145611.0,217.0,33.0,5.0,246.0,2145.611
2145622.0,221.0,32.0,4.0,252.0,2145.622
2145632.0,221.0,32.0,4.0,251.0,2145.632
2145642.0,221.0,33.0,3.0,250.0,2145.642
2145652.0,213.0,32.0,3.0,242.0,2145.652
2145662.0,220.0,32.0,4.0,249.0,2145.662
2145672.0,227.0,33.0,3.0,252.0,2145.672
2145682.0,226.0,31.0,4.0,251.0,2145.682
2145692.0,224.0,33.0,3.0,247.0,2145.692
2145702.0,215.0,33.0,4.0,239.0,2145.702
2145712.0,220.0,32.0,2.0,245.0,2145.712
2145722.0,225.0,32.0,4.0,251.0,2145.722
2145732.0,222.0,32.0,4.0,249.0,2145.732
2145742.0,223.0,33.0,5.0,245.0,2145.742
2145752.0,219.0,32.0,4.0,240.0,2145.752
2145762.0,222.0,33.0,4.0,245.0,2145.762
2145772.0,228.0,34.0,3.0,252.0,2145.772
2145782.0,224.0,33.0,3.0,248.0,2145.782
2145792.0,225.0,33.0,3.0,248.0,2145.792
2145802.0,217.0,32.0,5.0,240.0,2145.802
2145812.0,221.0,33.0,4.0,245.0,2145.812
2145822.0,226.0,33.0,4.0,250.0,2145.822
2145832.0,223.0,32.0,4.0,247.0,2145.832
2145842.0,223.0,33.0,4.0,246.0,2145.842
2145852.0,218.0,32.0,4.0,237.0,2145.852
2145862.0,224.0,33.0,4.0,245.0,2145.862
2145872.0,229.0,32.0,4.0,249.0,2145.872
2145882.0,225.0,33.0,4.0,249.0,2145.882
2145892.0,224.0,33.0,4.0,245.0,2145.892
2145902.0,216.0,33.0,3.0,239.0,2145.902
2145912.0,222.0,32.0,4.0,247.0,2145.912
2145922.0,225.0,33.0,3.0,250.0,2145.922
2145932.0,222.0,32.0,5.0,248.0,2145.932
2145942.0,222.0,33.0,2.0,245.0,2145.942
2145952.0,214.0,32.0,3.0,239.0,2145.952
2145963.0,222.0,33.0,3.0,250.0,2145.963
2145973.0,227.0,33.0,3.0,251.0,2145.973
2145983.0,220.0,32.0,4.0,245.0,2145.983
2145993.0,221.0,32.0,4.0,245.0,2145.993
2146003.0,218.0,32.0,4.0,244.0,2146.003
2146013.0,221.0,33.0,4.0,249.0,2146.013
2146023.0,226.0,32.0,4.0,252.0,2146.023
2146033.0,219.0,33.0,3.0,245.0,2146.033
2146043.0,220.0,32.0,3.0,245.0,2146.043
2146053.0,217.0,33.0,3.0,241.0,2146.053
2146063.0,226.0,33.0,4.0,251.0,2146.063
2146073.0,228.0,33.0,2.0,252.0,2146.073
2146083.0,220.0,32.0,4.0,245.0,2146.083
2146093.0,222.0,32.0,4.0,246.0,2146.093
2146103.0,216.0,32.0,4.0,242.0,2146.103
2146113.0,225.0,32.0,5.0,251.0,2146.113
2146123.0,226.0,33.0,4.0,251.0,2146.123
2146134.0,218.0,31.0,4.0,245.0,2146.134
2146144.0,219.0,33.0,3.0,245.0,2146.144
2146154.0,221.0,33.0,4.0,249.0,2146.154
2146164.0,223.0,33.0,3.0,251.0,2146.164
2146174.0,223.0,32.0,4.0,247.0,2146.174
2146184.0,217.0,32.0,3.0,242.0,2146.184
2146194.0,219.0,32.0,4.0,244.0,2146.194
2146204.0,221.0,32.0,3.0,249.0,2146.204
2146214.0,222.0,32.0,4.0,250.0,2146.214
2146224.0,220.0,33.0,2.0,248.0,2146.224
2146234.0,211.0,32.0,3.0,240.0,2146.234
2146244.0,213.0,33.0,3.0,243.0,2146.244
2146254.0,220.0,32.0,5.0,249.0,2146.254
2146264.0,219.0,33.0,3.0,249.0,2146.264
2146274.0,221.0,33.0,4.0,246.0,2146.274
2146284.0,213.0,33.0,3.0,240.0,2146.284
2146294.0,215.0,32.0,3.0,243.0,2146.294
2146304.0,219.0,33.0,4.0,245.0,2146.304
2146314.0,225.0,32.0,5.0,249.0,2146.314
2146324.0,226.0,31.0,4.0,247.0,2146.324
2146334.0,217.0,32.0,3.0,239.0,2146.334
2146344.0,220.0,33.0,3.0,243.0,2146.344
2146354.0,221.0,33.0,4.0,246.0,2146.354
2146364.0,225.0,32.0,4.0,249.0,2146.364
2146374.0,224.0,33.0,4.0,245.0,2146.374
2146384.0,216.0,31.0,4.0,239.0,2146.384
2146394.0,222.0,32.0,4.0,243.0,2146.394
2146404.0,222.0,33.0,3.0,247.0,2146.404
2146414.0,224.0,33.0,3.0,249.0,2146.414
2146424.0,224.0,32.0,4.0,244.0,2146.424
2146434.0,219.0,33.0,3.0,242.0,2146.434
2146444.0,221.0,33.0,4.0,243.0,2146.444
2146454.0,224.0,32.0,4.0,248.0,2146.454
2146464.0,225.0,33.0,3.0,249.0,2146.464
2146475.0,224.0,34.0,3.0,247.0,2146.475
2146485.0,216.0,33.0,3.0,238.0,2146.485
2146495.0,221.0,32.0,4.0,247.0,2146.495
2146505.0,225.0,32.0,5.0,253.0,2146.505
2146515.0,217.0,32.0,4.0,246.0,2146.515
2146525.0,220.0,33.0,4.0,247.0,2146.525
2146535.0,212.0,33.0,3.0,238.0,2146.535
2146545.0,218.0,33.0,3.0,248.0,2146.545
2146555.0,224.0,32.0,4.0,252.0,2146.555
2146565.0,221.0,33.0,3.0,249.0,2146.565
2146575.0,221.0,32.0,4.0,246.0,2146.575
2146585.0,212.0,33.0,3.0,239.0,2146.585
2146595.0,216.0,32.0,4.0,248.0,2146.595
2146605.0,219.0,33.0,4.0,250.0,2146.605
2146615.0,217.0,32.0,4.0,246.0,2146.615
2146625.0,219.0,32.0,3.0,245.0,2146.625
2146635.0,211.0,32.0,5.0,238.0,2146.635
2146646.0,220.0,33.0,2.0,248.0,2146.646
2146656.0,224.0,33.0,4.0,251.0,2146.656
2146666.0,217.0,33.0,3.0,244.0,2146.666
2146676.0,218.0,32.0,3.0,244.0,2146.676
2146686.0,221.0,32.0,3.0,246.0,2146.686
2146696.0,224.0,32.0,3.0,250.0,2146.696
2146706.0,227.0,33.0,4.0,250.0,2146.706
2146716.0,220.0,33.0,3.0,243.0,2146.716
2146726.0,221.0,32.0,4.0,244.0,2146.726
2146736.0,215.0,32.0,3.0,240.0,2146.736
2146746.0,224.0,32.0,4.0,250.0,2146.746
2146756.0,225.0,33.0,3.0,249.0,2146.756
2146766.0,219.0,32.0,5.0,241.0,2146.766
2146776.0,221.0,32.0,4.0,245.0,2146.776
2146786.0,215.0,32.0,4.0,241.0,2146.786
2146796.0,222.0,33.0,3.0,250.0,2146.796
2146806.0,225.0,33.0,4.0,248.0,2146.806
2146816.0,220.0,33.0,3.0,244.0,2146.816
2146826.0,219.0,33.0,4.0,243.0,2146.826
2146836.0,215.0,33.0,4.0,241.0,2146.836
2146846.0,222.0,33.0,3.0,248.0,2146.846
2146856.0,224.0,33.0,4.0,247.0,2146.856
2146866.0,218.0,33.0,3.0,241.0,2146.866
2146876.0,220.0,33.0,3.0,242.0,2146.876
2146886.0,220.0,32.0,4.0,242.0,2146.886
2146896.0,226.0,33.0,4.0,247.0,2146.896
2146906.0,227.0,33.0,5.0,247.0,2146.906
2146916.0,220.0,32.0,4.0,241.0,2146.916
2146926.0,220.0,34.0,3.0,243.0,2146.926
2146936.0,220.0,32.0,4.0,244.0,2146.936
2146946.0,223.0,34.0,3.0,250.0,2146.946
2146956.0,227.0,33.0,5.0,249.0,2146.956
2146966.0,220.0,33.0,4.0,241.0,2146.966
2146976.0,222.0,34.0,3.0,243.0,2146.976
2146987.0,221.0,33.0,4.0,246.0,2146.987
2146997.0,224.0,33.0,3.0,248.0,2146.997
2147007.0,223.0,34.0,3.0,246.0,2147.007
2147017.0,217.0,33.0,4.0,239.0,2147.017
2147027.0,219.0,33.0,4.0,243.0,2147.027
2147037.0,220.0,33.0,4.0,246.0,2147.037
2147047.0,219.0,33.0,3.0,249.0,2147.047
2147057.0,218.0,34.0,3.0,246.0,2147.057
2147067.0,211.0,32.0,4.0,238.0,2147.067
2147077.0,216.0,33.0,4.0,243.0,2147.077
2147087.0,221.0,33.0,4.0,248.0,2147.087
2147097.0,221.0,33.0,4.0,248.0,2147.097
2147107.0,222.0,33.0,4.0,246.0,2147.107
2147117.0,216.0,33.0,3.0,240.0,2147.117
2147127.0,219.0,33.0,3.0,243.0,2147.127
2147137.0,225.0,33.0,3.0,250.0,2147.137
2147147.0,226.0,33.0,4.0,249.0,2147.147
2147158.0,224.0,33.0,4.0,246.0,2147.158
2147168.0,216.0,33.0,3.0,239.0,2147.168
2147178.0,223.0,33.0,3.0,249.0,2147.178
2147188.0,227.0,33.0,4.0,251.0,2147.188
2147198.0,221.0,32.0,4.0,246.0,2147.198
2147208.0,223.0,33.0,4.0,247.0,2147.208
2147218.0,215.0,33.0,4.0,237.0,2147.218
2147228.0,224.0,33.0,4.0,247.0,2147.228
2147238.0,228.0,33.0,4.0,252.0,2147.238
2147248.0,224.0,33.0,3.0,247.0,2147.248
2147258.0,223.0,34.0,4.0,244.0,2147.258
2147268.0,214.0,33.0,4.0,237.0,2147.268
2147278.0,223.0,32.0,5.0,246.0,2147.278
2147288.0,225.0,33.0,3.0,249.0,2147.288
2147298.0,223.0,32.0,4.0,243.0,2147.298
2147308.0,223.0,34.0,3.0,243.0,2147.308
2147318.0,216.0,32.0,3.0,236.0,2147.318
2147328.0,222.0,33.0,3.0,243.0,2147.328
2147338.0,228.0,33.0,5.0,249.0,2147.338
2147348.0,224.0,33.0,4.0,244.0,2147.348
2147358.0,223.0,33.0,3.0,244.0,2147.358
2147368.0,217.0,33.0,4.0,239.0,2147.368
2147378.0,222.0,33.0,4.0,244.0,2147.378
2147388.0,227.0,32.0,4.0,249.0,2147.388
2147398.0,222.0,33.0,4.0,243.0,2147.398
2147408.0,223.0,33.0,4.0,243.0,2147.408
2147418.0,215.0,32.0,4.0,236.0,2147.418
2147428.0,221.0,32.0,4.0,245.0,2147.428
2147438.0,226.0,34.0,3.0,250.0,2147.438
2147448.0,220.0,32.0,4.0,242.0,2147.448
2147458.0,222.0,33.0,3.0,245.0,2147.458
2147468.0,216.0,32.0,5.0,236.0,2147.468
2147478.0,221.0,33.0,4.0,246.0,2147.478
2147488.0,226.0,33.0,3.0,250.0,2147.488
2147499.0,221.0,33.0,3.0,244.0,2147.499
2147509.0,218.0,32.0,4.0,243.0,2147.509
2147519.0,215.0,33.0,3.0,243.0,2147.519
2147529.0,222.0,33.0,5.0,250.0,2147.529
2147539.0,223.0,33.0,4.0,248.0,2147.539
2147549.0,218.0,32.0,4.0,242.0,2147.549
2147559.0,219.0,33.0,3.0,244.0,2147.559
2147569.0,218.0,33.0,3.0,244.0,2147.569
2147579.0,223.0,32.0,4.0,248.0,2147.579
2147589.0,225.0,34.0,3.0,249.0,2147.589
2147599.0,219.0,32.0,5.0,241.0,2147.599
2147609.0,218.0,33.0,2.0,243.0,2147.609
2147619.0,225.0,32.0,4.0,245.0,2147.619
2147629.0,227.0,33.0,4.0,248.0,2147.629
2147639.0,229.0,32.0,4.0,248.0,2147.639
2147649.0,221.0,33.0,3.0,241.0,2147.649
2147659.0,223.0,33.0,4.0,241.0,2147.659
2147670.0,224.0,33.0,4.0,246.0,2147.67
2147680.0,226.0,33.0,3.0,247.0,2147.68
2147690.0,224.0,34.0,3.0,245.0,2147.69
2147700.0,218.0,32.0,4.0,236.0,2147.7
2147710.0,223.0,32.0,4.0,243.0,2147.71
2147720.0,229.0,32.0,4.0,246.0,2147.72
2147730.0,230.0,31.0,4.0,246.0,2147.73
2147740.0,228.0,33.0,4.0,244.0,2147.74
2147750.0,219.0,32.0,4.0,237.0,2147.75
2147760.0,223.0,33.0,3.0,242.0,2147.76
2147770.0,227.0,32.0,4.0,248.0,2147.77
2147780.0,226.0,32.0,4.0,248.0,2147.78
2147790.0,227.0,33.0,4.0,245.0,2147.79
2147800.0,220.0,32.0,4.0,240.0,2147.8
2147810.0,223.0,33.0,3.0,243.0,2147.81
2147820.0,227.0,33.0,3.0,251.0,2147.82
2147830.0,220.0,32.0,3.0,249.0,2147.83
2147840.0,221.0,32.0,4.0,249.0,2147.84
2147850.0,215.0,33.0,4.0,241.0,2147.85
2147860.0,216.0,32.0,4.0,246.0,2147.86
2147870.0,223.0,33.0,4.0,252.0,2147.87
2147880.0,221.0,33.0,3.0,249.0,2147.88
2147890.0,221.0,33.0,4.0,247.0,2147.89
2147900.0,214.0,32.0,4.0,240.0,2147.9
2147910.0,217.0,32.0,4.0,245.0,2147.91
2147920.0,223.0,33.0,4.0,252.0,2147.92
2147930.0,221.0,32.0,5.0,249.0,2147.93
2147940.0,220.0,32.0,4.0,246.0,2147.94
2147950.0,212.0,33.0,4.0,240.0,2147.95
2147960.0,217.0,32.0,4.0,246.0,2147.96
2147970.0,220.0,33.0,3.0,250.0,2147.97
2147980.0,222.0,32.0,5.0,249.0,2147.98
2147990.0,221.0,32.0,4.0,246.0,2147.99
2148000.0,213.0,32.0,4.0,238.0,2148.0
2148011.0,219.0,34.0,3.0,248.0,2148.011
2148021.0,230.0,32.0,4.0,253.0,2148.021
2148031.0,224.0,32.0,3.0,247.0,2148.031
2148041.0,225.0,32.0,4.0,246.0,2148.041
2148051.0,218.0,32.0,3.0,243.0,2148.051
2148061.0,224.0,32.0,5.0,251.0,2148.061
2148071.0,228.0,33.0,4.0,253.0,2148.071
2148081.0,222.0,32.0,3.0,246.0,2148.081
2148091.0,221.0,32.0,4.0,246.0,2148.091
2148101.0,214.0,33.0,3.0,240.0,2148.101
2148111.0,222.0,32.0,4.0,250.0,2148.111
2148121.0,225.0,33.0,4.0,253.0,2148.121
2148131.0,218.0,32.0,4.0,245.0,2148.131
2148141.0,220.0,32.0,4.0,246.0,2148.141
2148151.0,212.0,32.0,4.0,239.0,2148.151
2148161.0,221.0,32.0,4.0,248.0,2148.161
2148171.0,224.0,33.0,4.0,250.0,2148.171
2148182.0,217.0,33.0,2.0,242.0,2148.182
2148192.0,219.0,33.0,3.0,242.0,2148.192
2148202.0,218.0,33.0,4.0,245.0,2148.202
2148212.0,222.0,32.0,4.0,248.0,2148.212
2148222.0,222.0,33.0,4.0,247.0,2148.222
2148232.0,219.0,32.0,4.0,242.0,2148.232
2148242.0,222.0,31.0,3.0,245.0,2148.242
2148252.0,222.0,33.0,3.0,248.0,2148.252
2148262.0,225.0,32.0,4.0,251.0,2148.262
2148272.0,227.0,33.0,4.0,252.0,2148.272
2148282.0,219.0,32.0,4.0,242.0,2148.282
2148292.0,221.0,32.0,4.0,244.0,2148.292
2148302.0,223.0,33.0,4.0,248.0,2148.302
2148312.0,223.0,32.0,4.0,250.0,2148.312
2148322.0,226.0,32.0,4.0,248.0,2148.322
2148332.0,217.0,33.0,3.0,241.0,2148.332
2148342.0,221.0,32.0,3.0,242.0,2148.342
2148352.0,220.0,32.0,4.0,243.0,2148.352
2148362.0,225.0,32.0,5.0,249.0,2148.362
2148372.0,226.0,33.0,4.0,247.0,2148.372
2148382.0,216.0,32.0,3.0,240.0,2148.382
2148392.0,219.0,33.0,4.0,244.0,2148.392
2148402.0,218.0,32.0,4.0,244.0,2148.402
2148412.0,223.0,32.0,4.0,249.0,2148.412
2148422.0,224.0,33.0,4.0,247.0,2148.422
2148432.0,216.0,31.0,4.0,240.0,2148.432
2148442.0,219.0,32.0,4.0,244.0,2148.442
2148452.0,218.0,32.0,4.0,247.0,2148.452
2148462.0,223.0,33.0,3.0,252.0,2148.462
2148472.0,227.0,32.0,4.0,249.0,2148.472
2148482.0,220.0,33.0,3.0,245.0,2148.482
2148492.0,223.0,32.0,5.0,245.0,2148.492
2148502.0,222.0,32.0,2.0,247.0,2148.502
2148512.0,226.0,32.0,4.0,250.0,2148.512
2148523.0,225.0,34.0,3.0,248.0,2148.523
2148533.0,217.0,32.0,4.0,238.0,2148.533
2148543.0,220.0,32.0,4.0,244.0,2148.543
2148553.0,226.0,33.0,5.0,250.0,2148.553
2148563.0,222.0,32.0,4.0,246.0,2148.563
2148573.0,224.0,33.0,5.0,246.0,2148.573
2148583.0,215.0,32.0,4.0,239.0,2148.583
2148593.0,219.0,33.0,4.0,246.0,2148.593
2148603.0,225.0,33.0,3.0,251.0,2148.603
2148613.0,223.0,32.0,3.0,249.0,2148.613
2148623.0,223.0,33.0,4.0,246.0,2148.623
2148633.0,214.0,32.0,4.0,238.0,2148.633
2148643.0,220.0,32.0,4.0,246.0,2148.643
2148653.0,224.0,32.0,4.0,249.0,2148.653
2148663.0,223.0,32.0,4.0,247.0,2148.663
2148673.0,222.0,33.0,3.0,244.0,2148.673
2148683.0,218.0,32.0,4.0,237.0,2148.683
2148694.0,224.0,33.0,3.0,247.0,2148.694
2148704.0,227.0,34.0,4.0,251.0,2148.704
2148714.0,221.0,33.0,3.0,246.0,2148.714
2148724.0,222.0,32.0,4.0,245.0,2148.724
2148734.0,218.0,32.0,4.0,243.0,2148.734
2148744.0,223.0,32.0,3.0,249.0,2148.744
2148754.0,227.0,33.0,4.0,252.0,2148.754
2148764.0,220.0,32.0,4.0,245.0,2148.764
2148774.0,221.0,33.0,3.0,247.0,2148.774
2148784.0,213.0,32.0,3.0,241.0,2148.784
2148794.0,224.0,32.0,4.0,250.0,2148.794
2148804.0,228.0,33.0,4.0,252.0,2148.804
2148814.0,221.0,33.0,4.0,245.0,2148.814
2148824.0,221.0,33.0,4.0,247.0,2148.824
2148834.0,215.0,32.0,3.0,242.0,2148.834
2148844.0,223.0,34.0,3.0,251.0,2148.844
2148854.0,226.0,32.0,4.0,251.0,2148.854
2148864.0,221.0,32.0,4.0,247.0,2148.864
2148874.0,221.0,33.0,4.0,245.0,2148.874
2148884.0,220.0,33.0,2.0,243.0,2148.884
2148894.0,228.0,32.0,4.0,251.0,2148.894
2148904.0,230.0,34.0,3.0,251.0,2148.904
2148914.0,223.0,32.0,3.0,246.0,2148.914
2148924.0,223.0,32.0,3.0,245.0,2148.924
2148934.0,218.0,33.0,4.0,243.0,2148.934
2148944.0,226.0,32.0,4.0,250.0,2148.944
2148954.0,227.0,33.0,4.0,251.0,2148.954
2148964.0,221.0,32.0,4.0,246.0,2148.964
2148974.0,222.0,33.0,3.0,246.0,2148.974
2148984.0,219.0,32.0,4.0,245.0,2148.984
2148994.0,220.0,33.0,3.0,251.0,2148.994
2149004.0,225.0,33.0,4.0,251.0,2149.004
2149014.0,218.0,32.0,4.0,245.0,2149.014
2149024.0,219.0,32.0,4.0,245.0,2149.024
2149035.0,217.0,33.0,3.0,248.0,2149.035
2149045.0,222.0,32.0,4.0,251.0,2149.045
2149055.0,224.0,31.0,4.0,249.0,2149.055
2149065.0,215.0,32.0,4.0,243.0,2149.065
2149075.0,217.0,32.0,4.0,245.0,2149.075
2149085.0,220.0,33.0,5.0,247.0,2149.085
2149095.0,223.0,33.0,3.0,250.0,2149.095
2149105.0,224.0,32.0,3.0,246.0,2149.105
2149115.0,214.0,32.0,4.0,239.0,2149.115
2149125.0,219.0,32.0,4.0,244.0,2149.125
2149135.0,220.0,32.0,4.0,247.0,2149.135
2149145.0,222.0,32.0,4.0,249.0,2149.145
2149155.0,221.0,32.0,4.0,245.0,2149.155
2149165.0,215.0,32.0,4.0,242.0,2149.165
2149175.0,218.0,32.0,3.0,243.0,2149.175
2149185.0,220.0,32.0,4.0,249.0,2149.185
2149195.0,223.0,32.0,5.0,249.0,2149.195
2149206.0,222.0,33.0,3.0,245.0,2149.206
2149216.0,215.0,32.0,4.0,238.0,2149.216
2149226.0,221.0,33.0,3.0,247.0,2149.226
2149236.0,226.0,32.0,4.0,251.0,2149.236
2149246.0,221.0,32.0,4.0,246.0,2149.246
2149256.0,223.0,32.0,4.0,246.0,2149.256
2149266.0,215.0,31.0,4.0,239.0,2149.266
2149276.0,220.0,32.0,3.0,247.0,2149.276
2149286.0,225.0,33.0,3.0,253.0,2149.286
2149296.0,223.0,32.0,3.0,249.0,2149.296
2149306.0,222.0,32.0,3.0,246.0,2149.306
2149316.0,215.0,32.0,4.0,239.0,2149.316
2149326.0,222.0,31.0,4.0,248.0,2149.326
2149336.0,223.0,33.0,4.0,251.0,2149.336
2149346.0,222.0,32.0,4.0,249.0,2149.346
2149356.0,221.0,33.0,3.0,248.0,2149.356
2149366.0,213.0,32.0,4.0,241.0,2149.366
2149376.0,218.0,33.0,3.0,248.0,2149.376
2149386.0,225.0,32.0,5.0,252.0,2149.386
2149396.0,221.0,31.0,3.0,249.0,2149.396
2149406.0,220.0,32.0,4.0,246.0,2149.406
2149416.0,213.0,33.0,3.0,242.0,2149.416
2149426.0,218.0,32.0,3.0,246.0,2149.426
2149436.0,226.0,32.0,4.0,253.0,2149.436
2149446.0,221.0,32.0,4.0,248.0,2149.446
2149456.0,221.0,33.0,4.0,247.0,2149.456
2149466.0,214.0,32.0,5.0,240.0,2149.466
2149476.0,219.0,32.0,4.0,248.0,2149.476
2149486.0,224.0,33.0,3.0,252.0,2149.486
2149496.0,220.0,32.0,4.0,247.0,2149.496
2149506.0,222.0,33.0,3.0,247.0,2149.506
2149516.0,214.0,31.0,5.0,239.0,2149.516
2149526.0,218.0,32.0,4.0,248.0,2149.526
2149536.0,225.0,32.0,4.0,252.0,2149.536
2149547.0,219.0,33.0,3.0,247.0,2149.547
2149557.0,221.0,32.0,3.0,246.0,2149.557
2149567.0,216.0,31.0,4.0,244.0,2149.567
2149577.0,225.0,32.0,4.0,252.0,2149.577
2149587.0,226.0,32.0,3.0,250.0,2149.587
2149597.0,219.0,32.0,4.0,245.0,2149.597
2149607.0,221.0,32.0,3.0,247.0,2149.607
2149617.0,217.0,32.0,3.0,246.0,2149.617
2149627.0,225.0,31.0,4.0,251.0,2149.627
2149637.0,227.0,32.0,4.0,252.0,2149.637
2149647.0,219.0,31.0,3.0,245.0,2149.647
2149657.0,220.0,32.0,3.0,245.0,2149.657
2149667.0,217.0,32.0,4.0,246.0,2149.667
2149677.0,220.0,32.0,3.0,249.0,2149.677
2149687.0,225.0,32.0,4.0,250.0,2149.687
2149697.0,216.0,32.0,4.0,244.0,2149.697
2149707.0,219.0,32.0,4.0,243.0,2149.707
2149718.0,218.0,32.0,4.0,247.0,2149.718
2149728.0,222.0,31.0,4.0,250.0,2149.728
2149738.0,224.0,33.0,3.0,248.0,2149.738
2149748.0,213.0,31.0,4.0,240.0,2149.748
2149758.0,218.0,31.0,3.0,244.0,2149.758
2149768.0,224.0,32.0,5.0,247.0,2149.768
2149778.0,225.0,31.0,4.0,249.0,2149.778
2149788.0,227.0,32.0,4.0,246.0,2149.788
2149798.0,216.0,33.0,3.0,240.0,2149.798
2149808.0,221.0,32.0,3.0,243.0,2149.808
2149818.0,224.0,32.0,4.0,247.0,2149.818
2149828.0,224.0,32.0,4.0,249.0,2149.828
2149838.0,227.0,32.0,4.0,246.0,2149.838
2149848.0,216.0,32.0,5.0,241.0,2149.848
2149858.0,220.0,32.0,4.0,244.0,2149.858
2149868.0,224.0,33.0,3.0,250.0,2149.868
2149878.0,221.0,32.0,4.0,248.0,2149.878
2149888.0,226.0,34.0,3.0,248.0,2149.888
2149898.0,213.0,32.0,5.0,240.0,2149.898
2149908.0,218.0,32.0,4.0,242.0,2149.908
2149918.0,223.0,33.0,3.0,249.0,2149.918
2149928.0,219.0,33.0,3.0,249.0,2149.928
2149938.0,225.0,32.0,4.0,247.0,2149.938
2149948.0,214.0,32.0,4.0,241.0,2149.948
2149958.0,219.0,33.0,4.0,245.0,2149.958
2149968.0,226.0,33.0,3.0,251.0,2149.968
2149978.0,222.0,32.0,4.0,249.0,2149.978
2149988.0,226.0,33.0,3.0,248.0,2149.988
2149998.0,217.0,32.0,3.0,240.0,2149.998
2150008.0,222.0,32.0,4.0,244.0,2150.008
2150018.0,224.0,33.0,4.0,248.0,2150.018
2150028.0,224.0,33.0,4.0,250.0,2150.028
2150038.0,228.0,33.0,4.0,248.0,2150.038
2150048.0,215.0,32.0,3.0,240.0,2150.048
2150059.0,220.0,33.0,3.0,248.0,2150.059
2150069.0,227.0,32.0,4.0,250.0,2150.069
2150079.0,219.0,33.0,3.0,245.0,2150.079
2150089.0,223.0,32.0,5.0,243.0,2150.089
2150099.0,214.0,33.0,4.0,238.0,2150.099
2150109.0,219.0,32.0,4.0,244.0,2150.109
2150119.0,227.0,34.0,3.0,251.0,2150.119
2150129.0,219.0,32.0,4.0,243.0,2150.129
2150139.0,225.0,32.0,4.0,243.0,2150.139
2150149.0,215.0,32.0,3.0,235.0,2150.149
2150159.0,222.0,33.0,4.0,244.0,2150.159
2150169.0,229.0,32.0,4.0,248.0,2150.169
2150179.0,219.0,32.0,4.0,241.0,2150.179
2150189.0,225.0,33.0,3.0,243.0,2150.189
2150199.0,213.0,32.0,4.0,234.0,2150.199
2150209.0,221.0,32.0,4.0,245.0,2150.209
2150219.0,231.0,31.0,4.0,248.0,2150.219
2150230.0,218.0,32.0,3.0,242.0,2150.23
2150240.0,223.0,32.0,4.0,243.0,2150.24
