time (ms),signal 0,signal 1,signal 2,signal 3,time (sec)
2083485.0,209.0,32.0,4.0,235.0,2083.485
2083495.0,216.0,33.0,4.0,240.0,2083.495
2083505.0,211.0,33.0,4.0,239.0,2083.505
2083515.0,212.0,33.0,4.0,236.0,2083.515
2083525.0,204.0,32.0,4.0,228.0,2083.525
2083535.0,210.0,32.0,4.0,236.0,2083.535
2083545.0,213.0,34.0,3.0,239.0,2083.545
2083555.0,213.0,32.0,4.0,238.0,2083.555
2083565.0,212.0,32.0,4.0,235.0,2083.565
2083575.0,204.0,32.0,4.0,228.0,2083.575
2083585.0,208.0,33.0,4.0,233.0,2083.585
2083595.0,215.0,32.0,4.0,240.0,2083.595
2083605.0,212.0,32.0,3.0,238.0,2083.605
2083615.0,214.0,32.0,5.0,236.0,2083.615
2083625.0,204.0,31.0,4.0,230.0,2083.625
2083635.0,210.0,32.0,5.0,235.0,2083.635
2083645.0,216.0,33.0,4.0,243.0,2083.645
2083655.0,212.0,32.0,3.0,239.0,2083.655
2083665.0,213.0,32.0,4.0,236.0,2083.665
2083675.0,206.0,33.0,3.0,230.0,2083.675
2083685.0,211.0,32.0,4.0,236.0,2083.685
2083695.0,216.0,32.0,4.0,242.0,2083.695
2083705.0,213.0,32.0,3.0,239.0,2083.705
2083715.0,216.0,32.0,3.0,238.0,2083.715
2083725.0,207.0,32.0,4.0,231.0,2083.725
2083735.0,211.0,33.0,3.0,239.0,2083.735
2083745.0,219.0,32.0,5.0,243.0,2083.745
2083755.0,213.0,33.0,4.0,242.0,2083.755
2083765.0,215.0,33.0,4.0,239.0,2083.765
2083775.0,206.0,33.0,3.0,232.0,2083.775
2083785.0,212.0,32.0,3.0,240.0,2083.785
2083795.0,217.0,32.0,3.0,244.0,2083.795
2083805.0,214.0,33.0,3.0,241.0,2083.805
2083815.0,215.0,33.0,4.0,239.0,2083.815
2083825.0,206.0,32.0,4.0,231.0,2083.825
2083835.0,213.0,33.0,3.0,242.0,2083.835
2083845.0,218.0,32.0,4.0,245.0,2083.845
2083855.0,215.0,32.0,4.0,241.0,2083.855
2083865.0,214.0,33.0,4.0,239.0,2083.865
2083875.0,207.0,32.0,4.0,233.0,2083.875
2083885.0,212.0,33.0,3.0,240.0,2083.885
2083895.0,218.0,33.0,4.0,245.0,2083.895
2083905.0,214.0,33.0,3.0,243.0,2083.905
2083915.0,215.0,32.0,4.0,241.0,2083.915
2083926.0,207.0,33.0,4.0,234.0,2083.926
2083936.0,216.0,33.0,5.0,243.0,2083.936
2083946.0,220.0,33.0,4.0,245.0,2083.946
2083956.0,211.0,32.0,4.0,237.0,2083.956
2083966.0,214.0,33.0,3.0,239.0,2083.966
2083976.0,208.0,33.0,4.0,234.0,2083.976
2083986.0,216.0,33.0,3.0,244.0,2083.986
2083996.0,221.0,33.0,4.0,244.0,2083.996
2084006.0,212.0,31.0,4.0,237.0,2084.006
2084016.0,216.0,33.0,4.0,239.0,2084.016
2084026.0,210.0,33.0,4.0,236.0,2084.026
2084036.0,217.0,33.0,3.0,244.0,2084.036
2084046.0,219.0,32.0,4.0,244.0,2084.046
2084056.0,213.0,33.0,3.0,239.0,2084.056
2084066.0,216.0,33.0,4.0,239.0,2084.066
2084076.0,210.0,33.0,4.0,236.0,2084.076
2084086.0,217.0,32.0,4.0,243.0,2084.086
2084096.0,220.0,33.0,2.0,245.0,2084.096
2084106.0,213.0,32.0,4.0,237.0,2084.106
2084116.0,214.0,33.0,3.0,238.0,2084.116
2084126.0,213.0,33.0,5.0,237.0,2084.126
2084136.0,218.0,33.0,3.0,243.0,2084.136
2084146.0,221.0,33.0,5.0,244.0,2084.146
2084156.0,213.0,33.0,3.0,237.0,2084.156
2084166.0,215.0,32.0,3.0,237.0,2084.166
2084176.0,214.0,33.0,4.0,238.0,2084.176
2084186.0,217.0,33.0,3.0,242.0,2084.186
2084196.0,220.0,33.0,4.0,243.0,2084.196
2084206.0,212.0,32.0,4.0,236.0,2084.206
2084216.0,214.0,32.0,4.0,237.0,2084.216
2084226.0,210.0,33.0,4.0,235.0,2084.226
2084236.0,220.0,32.0,4.0,244.0,2084.236
2084246.0,220.0,33.0,4.0,243.0,2084.246
2084256.0,214.0,32.0,5.0,236.0,2084.256
2084267.0,214.0,33.0,4.0,238.0,2084.267
2084277.0,216.0,32.0,4.0,241.0,2084.277
2084287.0,218.0,34.0,3.0,244.0,2084.287
2084297.0,218.0,33.0,4.0,241.0,2084.297
2084307.0,210.0,32.0,3.0,233.0,2084.307
2084317.0,215.0,32.0,3.0,238.0,2084.317
2084327.0,218.0,32.0,4.0,242.0,2084.327
2084337.0,219.0,32.0,4.0,244.0,2084.337
2084347.0,218.0,34.0,3.0,242.0,2084.347
2084357.0,213.0,33.0,3.0,237.0,2084.357
2084367.0,214.0,32.0,3.0,238.0,2084.367
2084377.0,218.0,33.0,5.0,243.0,2084.377
2084387.0,219.0,31.0,4.0,243.0,2084.387
2084397.0,221.0,33.0,4.0,241.0,2084.397
2084407.0,212.0,32.0,4.0,235.0,2084.407
2084417.0,214.0,33.0,3.0,238.0,2084.417
2084427.0,219.0,32.0,4.0,244.0,2084.427
2084438.0,217.0,32.0,4.0,242.0,2084.438
2084448.0,218.0,33.0,5.0,240.0,2084.448
2084458.0,209.0,32.0,4.0,233.0,2084.458
2084468.0,216.0,32.0,4.0,241.0,2084.468
2084478.0,222.0,34.0,3.0,246.0,2084.478
2084488.0,217.0,32.0,3.0,241.0,2084.488
2084498.0,217.0,33.0,3.0,240.0,2084.498
2084508.0,209.0,33.0,5.0,232.0,2084.508
2084518.0,216.0,33.0,4.0,242.0,2084.518
2084528.0,221.0,33.0,5.0,245.0,2084.528
2084538.0,216.0,32.0,4.0,240.0,2084.538
2084548.0,216.0,34.0,3.0,239.0,2084.548
2084558.0,208.0,32.0,4.0,233.0,2084.558
2084568.0,214.0,33.0,3.0,240.0,2084.568
2084578.0,220.0,32.0,4.0,245.0,2084.578
2084588.0,215.0,33.0,3.0,239.0,2084.588
2084598.0,216.0,32.0,4.0,239.0,2084.598
2084608.0,208.0,33.0,4.0,232.0,2084.608
2084618.0,214.0,32.0,4.0,239.0,2084.618
2084628.0,220.0,33.0,3.0,245.0,2084.628
2084638.0,215.0,32.0,5.0,239.0,2084.638
2084648.0,215.0,33.0,4.0,238.0,2084.648
2084658.0,209.0,32.0,4.0,231.0,2084.658
2084668.0,215.0,33.0,3.0,241.0,2084.668
2084678.0,220.0,32.0,4.0,245.0,2084.678
2084688.0,214.0,33.0,3.0,238.0,2084.688
2084698.0,217.0,32.0,4.0,239.0,2084.698
2084708.0,209.0,32.0,4.0,231.0,2084.708
2084718.0,216.0,33.0,4.0,242.0,2084.718
2084728.0,222.0,33.0,4.0,246.0,2084.728
2084738.0,216.0,32.0,4.0,242.0,2084.738
2084748.0,217.0,32.0,4.0,240.0,2084.748
2084758.0,208.0,32.0,3.0,233.0,2084.758
2084768.0,220.0,33.0,4.0,245.0,2084.768
2084779.0,230.0,32.0,4.0,250.0,2084.779
2084789.0,222.0,32.0,3.0,242.0,2084.789
2084799.0,223.0,34.0,3.0,243.0,2084.799
2084809.0,221.0,32.0,4.0,244.0,2084.809
2084819.0,227.0,32.0,4.0,249.0,2084.819
2084829.0,228.0,33.0,3.0,252.0,2084.829
2084839.0,220.0,31.0,4.0,245.0,2084.839
2084849.0,220.0,32.0,4.0,245.0,2084.849
2084859.0,219.0,34.0,4.0,248.0,2084.859
2084869.0,224.0,33.0,3.0,251.0,2084.869
2084879.0,228.0,32.0,4.0,251.0,2084.879
2084889.0,218.0,32.0,4.0,242.0,2084.889
2084899.0,218.0,33.0,4.0,245.0,2084.899
2084909.0,215.0,33.0,4.0,245.0,2084.909
2084919.0,220.0,32.0,4.0,250.0,2084.919
2084929.0,219.0,33.0,3.0,246.0,2084.929
2084939.0,216.0,32.0,4.0,237.0,2084.939
2084950.0,223.0,33.0,4.0,243.0,2084.95
2084960.0,228.0,32.0,5.0,249.0,2084.96
2084970.0,229.0,33.0,4.0,250.0,2084.97
2084980.0,232.0,32.0,3.0,248.0,2084.98
2084990.0,220.0,33.0,3.0,238.0,2084.99
2085000.0,225.0,33.0,4.0,240.0,2085.0
2085010.0,234.0,33.0,4.0,247.0,2085.01
2085020.0,230.0,33.0,5.0,246.0,2085.02
2085030.0,230.0,33.0,3.0,244.0,2085.03
2085040.0,228.0,33.0,5.0,243.0,2085.04
2085050.0,238.0,33.0,3.0,248.0,2085.05
2085060.0,239.0,33.0,3.0,253.0,2085.06
2085070.0,240.0,32.0,4.0,252.0,2085.07
2085080.0,247.0,33.0,3.0,256.0,2085.08
2085090.0,231.0,33.0,4.0,246.0,2085.09
2085100.0,235.0,33.0,3.0,252.0,2085.1
2085110.0,239.0,33.0,4.0,259.0,2085.11
2085120.0,237.0,33.0,4.0,258.0,2085.12
2085130.0,240.0,32.0,4.0,259.0,2085.13
2085140.0,240.0,33.0,3.0,252.0,2085.14
2085150.0,236.0,33.0,5.0,254.0,2085.15
2085160.0,242.0,33.0,4.0,262.0,2085.16
2085170.0,242.0,33.0,5.0,261.0,2085.17
2085180.0,249.0,34.0,3.0,266.0,2085.18
2085190.0,235.0,33.0,3.0,253.0,2085.19
2085200.0,235.0,34.0,4.0,261.0,2085.2
2085210.0,241.0,33.0,4.0,262.0,2085.21
2085220.0,241.0,33.0,4.0,265.0,2085.22
2085230.0,251.0,33.0,3.0,270.0,2085.23
2085240.0,240.0,33.0,4.0,258.0,2085.24
2085250.0,241.0,33.0,3.0,256.0,2085.25
2085260.0,254.0,33.0,4.0,260.0,2085.26
2085270.0,254.0,32.0,4.0,253.0,2085.27
2085280.0,250.0,33.0,4.0,247.0,2085.28
2085291.0,242.0,33.0,4.0,238.0,2085.291
2085301.0,254.0,33.0,3.0,247.0,2085.301
2085311.0,258.0,34.0,3.0,255.0,2085.311
2085321.0,255.0,32.0,4.0,254.0,2085.321
2085331.0,256.0,33.0,4.0,259.0,2085.331
2085341.0,242.0,32.0,4.0,249.0,2085.341
2085351.0,237.0,33.0,4.0,251.0,2085.351
2085361.0,251.0,33.0,3.0,260.0,2085.361
2085371.0,246.0,34.0,3.0,255.0,2085.371
2085381.0,256.0,34.0,3.0,253.0,2085.381
2085391.0,246.0,33.0,4.0,249.0,2085.391
2085401.0,252.0,33.0,5.0,261.0,2085.401
2085411.0,261.0,32.0,4.0,266.0,2085.411
2085421.0,248.0,32.0,5.0,253.0,2085.421
2085431.0,250.0,33.0,4.0,252.0,2085.431
2085441.0,251.0,33.0,3.0,253.0,2085.441
2085451.0,254.0,32.0,4.0,256.0,2085.451
2085462.0,252.0,33.0,4.0,258.0,2085.462
2085472.0,244.0,32.0,4.0,246.0,2085.472
2085482.0,236.0,33.0,2.0,242.0,2085.482
2085492.0,236.0,33.0,4.0,245.0,2085.492
2085502.0,237.0,34.0,3.0,249.0,2085.502
2085512.0,240.0,33.0,3.0,249.0,2085.512
2085522.0,233.0,33.0,4.0,245.0,2085.522
2085532.0,235.0,33.0,5.0,236.0,2085.532
2085542.0,238.0,33.0,4.0,237.0,2085.542
2085552.0,242.0,33.0,4.0,246.0,2085.552
2085562.0,252.0,34.0,4.0,241.0,2085.562
2085572.0,251.0,33.0,4.0,238.0,2085.572
2085582.0,265.0,34.0,4.0,243.0,2085.582
2085592.0,251.0,33.0,4.0,239.0,2085.592
2085602.0,256.0,33.0,4.0,249.0,2085.602
2085612.0,253.0,33.0,4.0,244.0,2085.612
2085622.0,249.0,33.0,4.0,240.0,2085.622
2085632.0,250.0,33.0,4.0,241.0,2085.632
2085642.0,253.0,32.0,4.0,246.0,2085.642
2085652.0,262.0,33.0,3.0,255.0,2085.652
2085662.0,264.0,33.0,5.0,251.0,2085.662
2085672.0,256.0,33.0,4.0,244.0,2085.672
2085682.0,259.0,34.0,4.0,252.0,2085.682
2085692.0,270.0,34.0,3.0,274.0,2085.692
2085702.0,268.0,33.0,3.0,272.0,2085.702
2085712.0,272.0,34.0,3.0,272.0,2085.712
2085722.0,258.0,33.0,4.0,260.0,2085.722
2085732.0,252.0,33.0,3.0,252.0,2085.732
2085742.0,247.0,33.0,3.0,252.0,2085.742
2085752.0,257.0,33.0,3.0,267.0,2085.752
2085762.0,270.0,34.0,4.0,274.0,2085.762
2085772.0,260.0,32.0,4.0,265.0,2085.772
2085782.0,258.0,33.0,4.0,263.0,2085.782
2085792.0,261.0,33.0,4.0,267.0,2085.792
2085803.0,273.0,33.0,4.0,268.0,2085.803
2085813.0,270.0,33.0,3.0,266.0,2085.813
2085823.0,261.0,33.0,3.0,256.0,2085.823
2085833.0,266.0,32.0,4.0,262.0,2085.833
2085843.0,300.0,33.0,3.0,272.0,2085.843
2085853.0,295.0,32.0,3.0,269.0,2085.853
2085863.0,286.0,34.0,4.0,269.0,2085.863
2085873.0,273.0,33.0,4.0,261.0,2085.873
2085883.0,285.0,34.0,4.0,273.0,2085.883
2085893.0,285.0,33.0,3.0,274.0,2085.893
2085903.0,279.0,33.0,4.0,273.0,2085.903
2085913.0,310.0,33.0,5.0,283.0,2085.913
2085923.0,294.0,33.0,3.0,276.0,2085.923
2085933.0,294.0,33.0,5.0,280.0,2085.933
2085943.0,295.0,33.0,4.0,285.0,2085.943
2085953.0,291.0,33.0,3.0,282.0,2085.953
2085963.0,294.0,32.0,4.0,281.0,2085.963
2085974.0,281.0,33.0,4.0,269.0,2085.974
2085984.0,289.0,33.0,4.0,277.0,2085.984
2085994.0,283.0,33.0,4.0,278.0,2085.994
2086004.0,283.0,33.0,4.0,272.0,2086.004
2086014.0,282.0,33.0,3.0,276.0,2086.014
2086024.0,273.0,33.0,4.0,268.0,2086.024
2086034.0,269.0,33.0,3.0,272.0,2086.034
2086044.0,299.0,33.0,5.0,288.0,2086.044
2086054.0,281.0,33.0,4.0,279.0,2086.054
2086064.0,283.0,33.0,4.0,281.0,2086.064
2086074.0,271.0,34.0,3.0,268.0,2086.074
2086084.0,276.0,33.0,3.0,276.0,2086.084
2086094.0,289.0,33.0,3.0,283.0,2086.094
2086104.0,279.0,32.0,3.0,276.0,2086.104
2086114.0,281.0,33.0,4.0,273.0,2086.114
2086124.0,269.0,32.0,4.0,262.0,2086.124
2086134.0,269.0,33.0,3.0,268.0,2086.134
2086144.0,276.0,32.0,4.0,272.0,2086.144
2086154.0,269.0,32.0,4.0,267.0,2086.154
2086164.0,277.0,32.0,4.0,273.0,2086.164
2086174.0,277.0,32.0,5.0,269.0,2086.174
2086184.0,280.0,32.0,4.0,270.0,2086.184
2086194.0,291.0,33.0,4.0,273.0,2086.194
2086204.0,280.0,33.0,3.0,264.0,2086.204
2086214.0,280.0,32.0,4.0,266.0,2086.214
2086224.0,266.0,33.0,4.0,263.0,2086.224
2086234.0,265.0,32.0,4.0,268.0,2086.234
2086244.0,270.0,33.0,4.0,271.0,2086.244
2086254.0,264.0,32.0,3.0,265.0,2086.254
2086264.0,266.0,33.0,3.0,267.0,2086.264
2086274.0,258.0,32.0,3.0,259.0,2086.274
2086284.0,255.0,32.0,4.0,262.0,2086.284
2086294.0,261.0,33.0,5.0,259.0,2086.294
2086304.0,260.0,32.0,4.0,254.0,2086.304
2086315.0,268.0,32.0,4.0,257.0,2086.315
2086325.0,273.0,33.0,4.0,263.0,2086.325
2086335.0,272.0,33.0,3.0,263.0,2086.335
2086345.0,272.0,33.0,3.0,260.0,2086.345
2086355.0,261.0,32.0,4.0,254.0,2086.355
2086365.0,260.0,32.0,4.0,256.0,2086.365
2086375.0,262.0,33.0,3.0,263.0,2086.375
2086385.0,263.0,32.0,4.0,265.0,2086.385
2086395.0,259.0,34.0,3.0,261.0,2086.395
2086405.0,252.0,32.0,3.0,260.0,2086.405
2086415.0,252.0,32.0,4.0,265.0,2086.415
2086425.0,255.0,33.0,4.0,270.0,2086.425
2086435.0,253.0,32.0,4.0,270.0,2086.435
2086445.0,255.0,33.0,5.0,267.0,2086.445
2086455.0,244.0,33.0,4.0,259.0,2086.455
2086465.0,249.0,32.0,4.0,260.0,2086.465
2086475.0,254.0,32.0,4.0,268.0,2086.475
2086486.0,252.0,33.0,4.0,266.0,2086.486
2086496.0,248.0,32.0,4.0,262.0,2086.496
2086506.0,238.0,32.0,4.0,253.0,2086.506
2086516.0,241.0,32.0,4.0,261.0,2086.516
2086526.0,247.0,33.0,3.0,264.0,2086.526
2086536.0,244.0,32.0,4.0,260.0,2086.536
2086546.0,241.0,32.0,4.0,255.0,2086.546
2086556.0,239.0,31.0,4.0,250.0,2086.556
2086566.0,247.0,32.0,3.0,258.0,2086.566
2086576.0,252.0,33.0,5.0,259.0,2086.576
2086586.0,247.0,33.0,3.0,254.0,2086.586
2086596.0,244.0,32.0,4.0,250.0,2086.596
2086606.0,237.0,32.0,4.0,245.0,2086.606
2086616.0,242.0,32.0,4.0,254.0,2086.616
2086626.0,248.0,33.0,4.0,259.0,2086.626
2086636.0,244.0,33.0,3.0,253.0,2086.636
2086646.0,243.0,33.0,3.0,257.0,2086.646
2086656.0,236.0,32.0,4.0,248.0,2086.656
2086666.0,240.0,32.0,4.0,250.0,2086.666
2086676.0,244.0,33.0,3.0,254.0,2086.676
2086686.0,242.0,31.0,4.0,249.0,2086.686
2086696.0,242.0,33.0,4.0,253.0,2086.696
2086706.0,236.0,32.0,4.0,246.0,2086.706
2086716.0,239.0,33.0,4.0,252.0,2086.716
2086726.0,243.0,32.0,4.0,260.0,2086.726
2086736.0,235.0,32.0,4.0,247.0,2086.736
2086746.0,233.0,32.0,4.0,249.0,2086.746
2086756.0,225.0,32.0,4.0,239.0,2086.756
2086766.0,231.0,32.0,4.0,246.0,2086.766
2086776.0,234.0,34.0,3.0,250.0,2086.776
2086786.0,232.0,33.0,3.0,243.0,2086.786
2086796.0,229.0,33.0,3.0,242.0,2086.796
2086806.0,224.0,33.0,4.0,239.0,2086.806
2086816.0,231.0,32.0,3.0,245.0,2086.816
2086827.0,231.0,33.0,4.0,249.0,2086.827
2086837.0,230.0,33.0,3.0,242.0,2086.837
2086847.0,230.0,33.0,3.0,244.0,2086.847
2086857.0,228.0,32.0,4.0,244.0,2086.857
2086867.0,236.0,32.0,4.0,250.0,2086.867
2086877.0,240.0,32.0,4.0,250.0,2086.877
2086887.0,233.0,33.0,4.0,244.0,2086.887
2086897.0,230.0,33.0,3.0,241.0,2086.897
2086907.0,229.0,33.0,3.0,243.0,2086.907
2086917.0,232.0,32.0,4.0,248.0,2086.917
2086927.0,233.0,33.0,4.0,248.0,2086.927
2086937.0,232.0,32.0,5.0,241.0,2086.937
2086947.0,232.0,33.0,4.0,243.0,2086.947
2086957.0,228.0,33.0,4.0,237.0,2086.957
2086967.0,234.0,33.0,3.0,248.0,2086.967
2086977.0,234.0,33.0,3.0,248.0,2086.977
2086987.0,227.0,32.0,3.0,242.0,2086.987
2086998.0,228.0,33.0,4.0,244.0,2086.998
2087008.0,231.0,33.0,4.0,248.0,2087.008
2087018.0,232.0,32.0,4.0,249.0,2087.018
2087028.0,227.0,34.0,3.0,247.0,2087.028
2087038.0,218.0,33.0,4.0,240.0,2087.038
2087048.0,222.0,33.0,4.0,243.0,2087.048
2087058.0,225.0,33.0,4.0,250.0,2087.058
2087068.0,227.0,32.0,5.0,248.0,2087.068
2087078.0,224.0,33.0,4.0,246.0,2087.078
2087088.0,223.0,32.0,5.0,243.0,2087.088
2087098.0,223.0,33.0,3.0,246.0,2087.098
2087108.0,227.0,32.0,4.0,253.0,2087.108
2087118.0,229.0,32.0,4.0,254.0,2087.118
2087128.0,228.0,32.0,4.0,250.0,2087.128
2087138.0,222.0,33.0,2.0,242.0,2087.138
2087148.0,224.0,33.0,4.0,245.0,2087.148
2087158.0,230.0,33.0,4.0,251.0,2087.158
2087168.0,230.0,32.0,4.0,249.0,2087.168
2087178.0,228.0,34.0,3.0,247.0,2087.178
2087188.0,223.0,33.0,4.0,241.0,2087.188
2087198.0,218.0,33.0,4.0,240.0,2087.198
2087208.0,223.0,33.0,3.0,246.0,2087.208
2087218.0,224.0,32.0,4.0,248.0,2087.218
2087228.0,222.0,34.0,3.0,246.0,2087.228
2087238.0,216.0,32.0,4.0,240.0,2087.238
2087248.0,219.0,32.0,4.0,247.0,2087.248
2087258.0,222.0,32.0,4.0,250.0,2087.258
2087268.0,225.0,32.0,2.0,251.0,2087.268
2087278.0,226.0,33.0,4.0,247.0,2087.278
2087288.0,219.0,33.0,3.0,239.0,2087.288
2087298.0,221.0,32.0,4.0,241.0,2087.298
2087308.0,225.0,32.0,4.0,247.0,2087.308
2087318.0,226.0,33.0,4.0,250.0,2087.318
2087328.0,224.0,32.0,4.0,249.0,2087.328
2087339.0,216.0,32.0,4.0,240.0,2087.339
2087349.0,222.0,32.0,4.0,251.0,2087.349
2087359.0,227.0,33.0,3.0,254.0,2087.359
2087369.0,222.0,32.0,4.0,247.0,2087.369
2087379.0,221.0,33.0,4.0,246.0,2087.379
2087389.0,215.0,32.0,4.0,238.0,2087.389
2087399.0,222.0,32.0,3.0,248.0,2087.399
2087409.0,225.0,32.0,4.0,250.0,2087.409
2087419.0,219.0,33.0,3.0,246.0,2087.419
2087429.0,221.0,32.0,4.0,246.0,2087.429
2087439.0,216.0,32.0,3.0,240.0,2087.439
2087449.0,226.0,32.0,5.0,249.0,2087.449
2087459.0,228.0,33.0,4.0,251.0,2087.459
2087469.0,225.0,32.0,5.0,246.0,2087.469
2087479.0,223.0,33.0,3.0,246.0,2087.479
2087489.0,219.0,32.0,4.0,240.0,2087.489
2087499.0,226.0,32.0,3.0,250.0,2087.499
2087510.0,227.0,33.0,4.0,249.0,2087.51
2087520.0,218.0,31.0,3.0,243.0,2087.52
2087530.0,219.0,32.0,3.0,244.0,2087.53
2087540.0,219.0,33.0,3.0,247.0,2087.54
2087550.0,223.0,32.0,3.0,250.0,2087.55
2087560.0,225.0,33.0,4.0,249.0,2087.56
2087570.0,217.0,32.0,4.0,241.0,2087.57
2087580.0,220.0,32.0,4.0,242.0,2087.58
2087590.0,221.0,33.0,3.0,245.0,2087.59
2087600.0,224.0,31.0,4.0,249.0,2087.6
2087610.0,223.0,34.0,3.0,248.0,2087.61
2087620.0,217.0,32.0,4.0,240.0,2087.62
2087630.0,217.0,32.0,4.0,242.0,2087.63
2087640.0,215.0,32.0,4.0,242.0,2087.64
2087650.0,222.0,32.0,4.0,250.0,2087.65
2087660.0,223.0,33.0,4.0,247.0,2087.66
2087670.0,218.0,34.0,3.0,241.0,2087.67
2087680.0,222.0,33.0,4.0,242.0,2087.68
2087690.0,220.0,32.0,4.0,242.0,2087.69
2087700.0,225.0,32.0,4.0,249.0,2087.7
2087710.0,224.0,33.0,4.0,246.0,2087.71
2087720.0,217.0,32.0,4.0,237.0,2087.72
2087730.0,220.0,33.0,4.0,241.0,2087.73
2087740.0,219.0,33.0,3.0,242.0,2087.74
2087750.0,225.0,32.0,4.0,247.0,2087.75
2087760.0,224.0,33.0,4.0,245.0,2087.76
2087770.0,218.0,32.0,3.0,240.0,2087.77
2087780.0,218.0,33.0,2.0,241.0,2087.78
2087790.0,219.0,32.0,4.0,245.0,2087.79
2087800.0,223.0,33.0,3.0,248.0,2087.8
2087810.0,224.0,33.0,4.0,249.0,2087.81
2087820.0,217.0,33.0,3.0,241.0,2087.82
2087830.0,219.0,33.0,5.0,242.0,2087.83
2087840.0,220.0,33.0,2.0,246.0,2087.84
2087851.0,222.0,32.0,4.0,247.0,2087.851
2087861.0,221.0,34.0,3.0,245.0,2087.861
2087871.0,213.0,32.0,4.0,236.0,2087.871
2087881.0,218.0,33.0,3.0,243.0,2087.881
2087891.0,225.0,33.0,4.0,249.0,2087.891
2087901.0,222.0,32.0,3.0,247.0,2087.901
2087911.0,224.0,33.0,3.0,245.0,2087.911
2087921.0,215.0,33.0,3.0,237.0,2087.921
2087931.0,220.0,33.0,3.0,246.0,2087.931
2087941.0,224.0,33.0,3.0,249.0,2087.941
2087951.0,222.0,33.0,4.0,248.0,2087.951
2087961.0,222.0,33.0,5.0,245.0,2087.961
2087971.0,213.0,32.0,4.0,238.0,2087.971
2087981.0,219.0,33.0,4.0,243.0,2087.981
2087991.0,227.0,34.0,3.0,251.0,2087.991
2088001.0,225.0,32.0,3.0,248.0,2088.001
2088011.0,223.0,33.0,3.0,245.0,2088.011
2088022.0,216.0,33.0,4.0,238.0,2088.022
2088032.0,222.0,33.0,3.0,248.0,2088.032
2088042.0,227.0,33.0,4.0,250.0,2088.042
2088052.0,219.0,34.0,3.0,245.0,2088.052
2088062.0,219.0,32.0,4.0,243.0,2088.062
2088072.0,215.0,33.0,3.0,239.0,2088.072
2088082.0,224.0,32.0,4.0,248.0,2088.082
2088092.0,228.0,33.0,4.0,249.0,2088.092
2088102.0,220.0,33.0,4.0,241.0,2088.102
2088112.0,223.0,33.0,4.0,243.0,2088.112
2088122.0,216.0,33.0,3.0,239.0,2088.122
2088132.0,223.0,32.0,4.0,247.0,2088.132
2088142.0,226.0,33.0,4.0,247.0,2088.142
2088152.0,222.0,32.0,4.0,243.0,2088.152
2088162.0,220.0,33.0,3.0,242.0,2088.162
2088172.0,214.0,32.0,4.0,239.0,2088.172
2088182.0,223.0,34.0,3.0,249.0,2088.182
2088192.0,225.0,32.0,4.0,248.0,2088.192
2088202.0,219.0,32.0,4.0,243.0,2088.202
2088212.0,216.0,33.0,4.0,242.0,2088.212
2088222.0,211.0,32.0,4.0,241.0,2088.222
2088232.0,217.0,33.0,3.0,249.0,2088.232
2088242.0,220.0,32.0,4.0,247.0,2088.242
2088252.0,214.0,33.0,3.0,241.0,2088.252
2088262.0,215.0,33.0,3.0,241.0,2088.262
2088272.0,213.0,33.0,5.0,241.0,2088.272
2088282.0,213.0,32.0,3.0,246.0,2088.282
2088292.0,218.0,34.0,3.0,248.0,2088.292
2088302.0,213.0,32.0,4.0,243.0,2088.302
2088312.0,213.0,33.0,3.0,242.0,2088.312
2088322.0,208.0,32.0,4.0,238.0,2088.322
2088332.0,215.0,33.0,3.0,247.0,2088.332
2088342.0,221.0,33.0,3.0,247.0,2088.342
2088352.0,214.0,32.0,4.0,242.0,2088.352
2088363.0,217.0,32.0,4.0,241.0,2088.363
2088373.0,217.0,34.0,3.0,245.0,2088.373
2088383.0,222.0,32.0,4.0,246.0,2088.383
2088393.0,221.0,33.0,3.0,244.0,2088.393
2088403.0,214.0,32.0,5.0,237.0,2088.403
2088413.0,216.0,32.0,4.0,240.0,2088.413
2088423.0,218.0,33.0,4.0,244.0,2088.423
2088433.0,223.0,33.0,4.0,247.0,2088.433
2088443.0,224.0,33.0,3.0,244.0,2088.443
2088453.0,218.0,33.0,4.0,239.0,2088.453
2088463.0,217.0,33.0,4.0,241.0,2088.463
2088473.0,221.0,33.0,4.0,245.0,2088.473
2088483.0,222.0,33.0,4.0,245.0,2088.483
2088493.0,225.0,33.0,4.0,246.0,2088.493
2088503.0,216.0,33.0,3.0,238.0,2088.503
2088513.0,217.0,32.0,4.0,240.0,2088.513
2088523.0,220.0,33.0,4.0,245.0,2088.523
2088534.0,221.0,32.0,5.0,243.0,2088.534
2088544.0,219.0,33.0,4.0,241.0,2088.544
2088554.0,212.0,32.0,4.0,234.0,2088.554
2088564.0,218.0,34.0,3.0,245.0,2088.564
2088574.0,223.0,33.0,4.0,246.0,2088.574
2088584.0,220.0,33.0,3.0,244.0,2088.584
2088594.0,220.0,33.0,4.0,240.0,2088.594
2088604.0,211.0,33.0,3.0,234.0,2088.604
2088614.0,218.0,33.0,3.0,244.0,2088.614
2088624.0,222.0,33.0,4.0,248.0,2088.624
2088634.0,220.0,32.0,3.0,245.0,2088.634
2088644.0,219.0,32.0,4.0,242.0,2088.644
2088654.0,210.0,33.0,4.0,236.0,2088.654
2088664.0,215.0,32.0,4.0,242.0,2088.664
2088674.0,220.0,33.0,4.0,246.0,2088.674
2088684.0,215.0,32.0,4.0,242.0,2088.684
2088694.0,214.0,34.0,3.0,241.0,2088.694
2088704.0,208.0,33.0,3.0,234.0,2088.704
2088714.0,212.0,33.0,4.0,241.0,2088.714
2088724.0,220.0,33.0,5.0,247.0,2088.724
2088734.0,215.0,32.0,4.0,242.0,2088.734
2088744.0,215.0,33.0,4.0,240.0,2088.744
2088754.0,209.0,32.0,4.0,234.0,2088.754
2088764.0,209.0,32.0,4.0,242.0,2088.764
2088774.0,213.0,32.0,4.0,246.0,2088.774
2088784.0,211.0,33.0,4.0,241.0,2088.784
2088794.0,212.0,33.0,3.0,241.0,2088.794
2088804.0,206.0,33.0,4.0,233.0,2088.804
2088814.0,213.0,33.0,4.0,242.0,2088.814
2088824.0,218.0,34.0,3.0,245.0,2088.824
2088834.0,216.0,32.0,4.0,243.0,2088.834
2088844.0,213.0,33.0,4.0,240.0,2088.844
2088854.0,206.0,32.0,5.0,232.0,2088.854
2088864.0,212.0,33.0,4.0,241.0,2088.864
2088875.0,218.0,33.0,4.0,244.0,2088.875
2088885.0,212.0,33.0,3.0,238.0,2088.885
2088895.0,212.0,32.0,3.0,238.0,2088.895
2088905.0,209.0,33.0,4.0,238.0,2088.905
2088915.0,217.0,33.0,4.0,243.0,2088.915
2088925.0,216.0,33.0,4.0,243.0,2088.925
2088935.0,208.0,32.0,4.0,236.0,2088.935
2088945.0,210.0,33.0,4.0,238.0,2088.945
2088955.0,209.0,33.0,3.0,238.0,2088.955
2088965.0,213.0,33.0,3.0,243.0,2088.965
2088975.0,217.0,32.0,4.0,243.0,2088.975
2088985.0,210.0,33.0,4.0,238.0,2088.985
2088995.0,211.0,33.0,3.0,237.0,2088.995
2089005.0,208.0,33.0,4.0,234.0,2089.005
2089015.0,216.0,33.0,3.0,242.0,2089.015
2089025.0,219.0,33.0,3.0,243.0,2089.025
2089035.0,211.0,33.0,3.0,235.0,2089.035
2089046.0,214.0,32.0,5.0,235.0,2089.046
2089056.0,215.0,33.0,3.0,240.0,2089.056
2089066.0,217.0,33.0,4.0,242.0,2089.066
2089076.0,216.0,34.0,3.0,240.0,2089.076
2089086.0,208.0,32.0,4.0,233.0,2089.086
2089096.0,211.0,32.0,3.0,238.0,2089.096
2089106.0,217.0,32.0,5.0,242.0,2089.106
2089116.0,218.0,33.0,4.0,241.0,2089.116
2089126.0,217.0,32.0,4.0,239.0,2089.126
2089136.0,210.0,32.0,4.0,232.0,2089.136
2089146.0,211.0,32.0,3.0,234.0,2089.146
2089156.0,216.0,32.0,3.0,240.0,2089.156
2089166.0,216.0,33.0,4.0,238.0,2089.166
2089176.0,217.0,33.0,4.0,238.0,2089.176
2089186.0,209.0,33.0,3.0,232.0,2089.186
2089196.0,207.0,33.0,4.0,233.0,2089.196
2089206.0,211.0,33.0,3.0,239.0,2089.206
2089216.0,212.0,32.0,4.0,238.0,2089.216
2089226.0,213.0,33.0,3.0,236.0,2089.226
2089236.0,206.0,31.0,4.0,228.0,2089.236
2089246.0,206.0,32.0,3.0,232.0,2089.246
2089256.0,213.0,32.0,4.0,237.0,2089.256
2089266.0,212.0,32.0,4.0,238.0,2089.266
2089276.0,213.0,32.0,3.0,234.0,2089.276
2089286.0,204.0,32.0,4.0,227.0,2089.286
2089296.0,209.0,32.0,5.0,232.0,2089.296
2089306.0,212.0,32.0,4.0,236.0,2089.306
2089316.0,213.0,32.0,4.0,237.0,2089.316
2089326.0,213.0,32.0,3.0,237.0,2089.326
2089336.0,206.0,32.0,3.0,230.0,2089.336
2089346.0,208.0,32.0,4.0,236.0,2089.346
2089356.0,212.0,32.0,4.0,240.0,2089.356
2089366.0,217.0,31.0,4.0,240.0,2089.366
2089376.0,217.0,32.0,4.0,237.0,2089.376
2089387.0,208.0,33.0,3.0,229.0,2089.387
2089397.0,213.0,33.0,3.0,237.0,2089.397
2089407.0,219.0,32.0,4.0,240.0,2089.407
2089417.0,213.0,32.0,3.0,234.0,2089.417
2089427.0,214.0,33.0,4.0,233.0,2089.427
2089437.0,206.0,32.0,3.0,228.0,2089.437
2089447.0,215.0,32.0,4.0,236.0,2089.447
2089457.0,218.0,33.0,3.0,240.0,2089.457
2089467.0,211.0,33.0,4.0,233.0,2089.467
2089477.0,214.0,33.0,3.0,236.0,2089.477
2089487.0,207.0,32.0,5.0,228.0,2089.487
2089497.0,214.0,32.0,4.0,238.0,2089.497
2089507.0,218.0,32.0,4.0,240.0,2089.507
2089517.0,214.0,33.0,3.0,236.0,2089.517
2089527.0,213.0,33.0,3.0,236.0,2089.527
2089537.0,206.0,32.0,4.0,229.0,2089.537
2089547.0,211.0,33.0,3.0,240.0,2089.547
2089558.0,214.0,32.0,4.0,240.0,2089.558
2089568.0,208.0,32.0,4.0,232.0,2089.568
2089578.0,210.0,32.0,4.0,233.0,2089.578
2089588.0,209.0,33.0,4.0,234.0,2089.588
2089598.0,214.0,32.0,4.0,238.0,2089.598
2089608.0,212.0,34.0,3.0,239.0,2089.608
2089618.0,204.0,31.0,4.0,231.0,2089.618
2089628.0,205.0,32.0,3.0,233.0,2089.628
2089638.0,207.0,32.0,4.0,235.0,2089.638
2089648.0,210.0,31.0,2.0,239.0,2089.648
2089658.0,212.0,32.0,4.0,238.0,2089.658
2089668.0,205.0,31.0,3.0,231.0,2089.668
2089678.0,207.0,32.0,5.0,233.0,2089.678
2089688.0,204.0,32.0,3.0,232.0,2089.688
2089698.0,214.0,33.0,3.0,241.0,2089.698
2089708.0,217.0,33.0,3.0,240.0,2089.708
2089718.0,208.0,33.0,3.0,232.0,2089.718
2089728.0,211.0,33.0,4.0,235.0,2089.728
2089738.0,207.0,33.0,4.0,234.0,2089.738
2089748.0,214.0,33.0,4.0,240.0,2089.748
2089758.0,214.0,33.0,4.0,238.0,2089.758
2089768.0,206.0,32.0,4.0,230.0,2089.768
2089778.0,209.0,33.0,2.0,234.0,2089.778
2089788.0,207.0,32.0,4.0,234.0,2089.788
2089798.0,209.0,33.0,3.0,239.0,2089.798
2089808.0,210.0,33.0,5.0,238.0,2089.808
2089818.0,204.0,32.0,3.0,233.0,2089.818
2089828.0,206.0,33.0,4.0,234.0,2089.828
2089838.0,206.0,33.0,3.0,237.0,2089.838
2089848.0,211.0,32.0,4.0,239.0,2089.848
2089858.0,214.0,32.0,3.0,240.0,2089.858
2089868.0,205.0,32.0,5.0,232.0,2089.868
2089878.0,206.0,33.0,4.0,234.0,2089.878
2089888.0,207.0,32.0,3.0,237.0,2089.888
2089899.0,209.0,33.0,3.0,241.0,2089.899
2089909.0,210.0,33.0,3.0,238.0,2089.909
2089919.0,202.0,32.0,3.0,231.0,2089.919
2089929.0,206.0,32.0,4.0,235.0,2089.929
2089939.0,213.0,33.0,5.0,242.0,2089.939
2089949.0,210.0,32.0,4.0,240.0,2089.949
2089959.0,210.0,33.0,4.0,237.0,2089.959
2089969.0,207.0,33.0,3.0,230.0,2089.969
2089979.0,213.0,32.0,3.0,236.0,2089.979
2089989.0,215.0,33.0,3.0,240.0,2089.989
2089999.0,216.0,32.0,5.0,238.0,2089.999
2090009.0,214.0,33.0,2.0,237.0,2090.009
2090019.0,206.0,32.0,4.0,229.0,2090.019
2090029.0,210.0,33.0,3.0,233.0,2090.029
2090039.0,216.0,32.0,4.0,240.0,2090.039
2090049.0,215.0,32.0,4.0,236.0,2090.049
2090059.0,213.0,33.0,5.0,233.0,2090.059
2090070.0,207.0,33.0,4.0,226.0,2090.07
2090080.0,213.0,33.0,4.0,235.0,2090.08
2090090.0,217.0,33.0,3.0,239.0,2090.09
2090100.0,211.0,32.0,4.0,231.0,2090.1
2090110.0,211.0,33.0,4.0,231.0,2090.11
2090120.0,206.0,33.0,3.0,226.0,2090.12
2090130.0,214.0,33.0,5.0,235.0,2090.13
2090140.0,217.0,33.0,4.0,238.0,2090.14
2090150.0,213.0,33.0,3.0,232.0,2090.15
2090160.0,217.0,33.0,2.0,233.0,2090.16
2090170.0,208.0,32.0,4.0,228.0,2090.17
2090180.0,215.0,33.0,3.0,237.0,2090.18
2090190.0,219.0,33.0,5.0,239.0,2090.19
2090200.0,214.0,32.0,4.0,234.0,2090.2
2090210.0,213.0,34.0,3.0,233.0,2090.21
2090220.0,207.0,33.0,3.0,231.0,2090.22
2090230.0,215.0,32.0,4.0,238.0,2090.23
2090240.0,216.0,33.0,4.0,241.0,2090.24
2090250.0,208.0,33.0,4.0,235.0,2090.25
2090260.0,209.0,32.0,4.0,235.0,2090.26
2090270.0,204.0,33.0,4.0,232.0,2090.27
2090280.0,211.0,32.0,4.0,242.0,2090.28
2090290.0,214.0,33.0,4.0,242.0,2090.29
2090300.0,208.0,32.0,3.0,236.0,2090.3
2090310.0,208.0,33.0,3.0,235.0,2090.31
2090320.0,206.0,32.0,5.0,234.0,2090.32
2090330.0,209.0,33.0,3.0,239.0,2090.33
2090340.0,218.0,33.0,4.0,240.0,2090.34
2090350.0,211.0,33.0,3.0,236.0,2090.35
2090360.0,211.0,32.0,4.0,234.0,2090.36
2090370.0,207.0,32.0,4.0,230.0,2090.37
2090380.0,214.0,32.0,5.0,239.0,2090.38
2090390.0,217.0,33.0,4.0,241.0,2090.39
2090400.0,210.0,32.0,3.0,235.0,2090.4
2090411.0,210.0,33.0,4.0,236.0,2090.411
2090421.0,211.0,33.0,3.0,238.0,2090.421
2090431.0,218.0,32.0,4.0,242.0,2090.431
2090441.0,219.0,33.0,4.0,239.0,2090.441
2090451.0,209.0,33.0,4.0,233.0,2090.451
2090461.0,212.0,33.0,4.0,236.0,2090.461
2090471.0,212.0,32.0,4.0,237.0,2090.471
2090481.0,216.0,33.0,3.0,242.0,2090.481
2090491.0,216.0,32.0,4.0,238.0,2090.491
2090501.0,208.0,33.0,3.0,234.0,2090.501
2090511.0,211.0,32.0,5.0,235.0,2090.511
2090521.0,211.0,32.0,3.0,239.0,2090.521
2090531.0,209.0,32.0,4.0,241.0,2090.531
2090541.0,212.0,33.0,4.0,240.0,2090.541
2090551.0,205.0,32.0,4.0,233.0,2090.551
2090561.0,207.0,33.0,4.0,235.0,2090.561
2090571.0,210.0,32.0,4.0,240.0,2090.571
2090582.0,211.0,31.0,4.0,240.0,2090.582
2090592.0,211.0,33.0,4.0,237.0,2090.592
2090602.0,203.0,33.0,3.0,231.0,2090.602
2090612.0,204.0,33.0,3.0,236.0,2090.612
2090622.0,211.0,33.0,4.0,240.0,2090.622
2090632.0,208.0,32.0,3.0,238.0,2090.632
2090642.0,209.0,33.0,4.0,236.0,2090.642
2090652.0,199.0,32.0,4.0,229.0,2090.652
2090662.0,206.0,32.0,4.0,237.0,2090.662
2090672.0,210.0,33.0,4.0,240.0,2090.672
2090682.0,209.0,32.0,4.0,238.0,2090.682
2090692.0,209.0,33.0,4.0,235.0,2090.692
2090702.0,204.0,32.0,5.0,228.0,2090.702
2090712.0,203.0,32.0,4.0,233.0,2090.712
2090722.0,210.0,32.0,4.0,239.0,2090.722
2090732.0,206.0,33.0,3.0,237.0,2090.732
2090742.0,207.0,32.0,4.0,234.0,2090.742
2090752.0,201.0,33.0,4.0,229.0,2090.752
2090762.0,206.0,33.0,4.0,234.0,2090.762
2090772.0,212.0,33.0,4.0,241.0,2090.772
2090782.0,208.0,33.0,3.0,237.0,2090.782
2090792.0,209.0,33.0,4.0,235.0,2090.792
2090802.0,202.0,32.0,4.0,229.0,2090.802
2090812.0,207.0,32.0,4.0,235.0,2090.812
2090822.0,214.0,32.0,4.0,239.0,2090.822
2090832.0,210.0,32.0,4.0,236.0,2090.832
2090842.0,211.0,33.0,3.0,236.0,2090.842
2090852.0,202.0,32.0,4.0,229.0,2090.852
2090862.0,208.0,33.0,3.0,237.0,2090.862
2090872.0,215.0,32.0,3.0,241.0,2090.872
2090882.0,212.0,32.0,3.0,239.0,2090.882
2090892.0,211.0,32.0,5.0,235.0,2090.892
2090902.0,202.0,31.0,4.0,229.0,2090.902
2090912.0,208.0,32.0,4.0,237.0,2090.912
2090923.0,214.0,33.0,4.0,241.0,2090.923
2090933.0,206.0,32.0,4.0,234.0,2090.933
2090943.0,208.0,32.0,3.0,234.0,2090.943
2090953.0,205.0,32.0,5.0,233.0,2090.953
2090963.0,211.0,32.0,3.0,240.0,2090.963
2090973.0,212.0,32.0,4.0,241.0,2090.973
2090983.0,203.0,32.0,4.0,234.0,2090.983
2090993.0,205.0,33.0,3.0,234.0,2090.993
2091003.0,205.0,32.0,4.0,235.0,2091.003
2091013.0,208.0,33.0,3.0,239.0,2091.013
2091023.0,214.0,33.0,5.0,239.0,2091.023
2091033.0,205.0,32.0,4.0,234.0,2091.033
2091043.0,207.0,32.0,4.0,233.0,2091.043
2091053.0,202.0,33.0,2.0,230.0,2091.053
2091063.0,210.0,32.0,4.0,239.0,2091.063
2091073.0,214.0,31.0,4.0,241.0,2091.073
2091083.0,206.0,32.0,5.0,233.0,2091.083
2091094.0,202.0,32.0,4.0,233.0,2091.094
2091104.0,204.0,32.0,4.0,235.0,2091.104
2091114.0,208.0,33.0,3.0,239.0,2091.114
2091124.0,208.0,32.0,3.0,234.0,2091.124
2091134.0,200.0,32.0,4.0,227.0,2091.134
2091144.0,205.0,32.0,3.0,230.0,2091.144
2091154.0,207.0,31.0,4.0,235.0,2091.154
2091164.0,209.0,32.0,3.0,237.0,2091.164
2091174.0,210.0,32.0,4.0,235.0,2091.174
2091184.0,204.0,32.0,4.0,230.0,2091.184
2091194.0,210.0,32.0,4.0,232.0,2091.194
2091204.0,213.0,32.0,4.0,238.0,2091.204
2091214.0,213.0,32.0,4.0,238.0,2091.214
2091224.0,216.0,33.0,4.0,239.0,2091.224
2091234.0,207.0,32.0,4.0,231.0,2091.234
2091244.0,209.0,34.0,3.0,235.0,2091.244
2091254.0,214.0,32.0,4.0,240.0,2091.254
2091264.0,213.0,33.0,3.0,242.0,2091.264
2091274.0,215.0,33.0,4.0,238.0,2091.274
2091284.0,205.0,32.0,4.0,231.0,2091.284
2091294.0,208.0,32.0,3.0,233.0,2091.294
2091304.0,213.0,34.0,3.0,239.0,2091.304
2091314.0,208.0,33.0,4.0,238.0,2091.314
2091324.0,209.0,32.0,4.0,236.0,2091.324
2091334.0,201.0,32.0,4.0,229.0,2091.334
2091344.0,205.0,31.0,4.0,233.0,2091.344
2091354.0,207.0,32.0,4.0,235.0,2091.354
2091364.0,209.0,33.0,3.0,238.0,2091.364
2091374.0,210.0,33.0,3.0,235.0,2091.374
2091384.0,202.0,32.0,3.0,228.0,2091.384
2091394.0,206.0,33.0,3.0,233.0,2091.394
2091404.0,210.0,33.0,5.0,237.0,2091.404
2091414.0,209.0,33.0,2.0,237.0,2091.414
2091424.0,210.0,33.0,3.0,234.0,2091.424
2091435.0,201.0,33.0,3.0,227.0,2091.435
2091445.0,207.0,32.0,3.0,234.0,2091.445
2091455.0,214.0,33.0,4.0,238.0,2091.455
2091465.0,210.0,32.0,5.0,235.0,2091.465
2091475.0,209.0,33.0,4.0,233.0,2091.475
2091485.0,202.0,32.0,4.0,228.0,2091.485
2091495.0,208.0,33.0,4.0,237.0,2091.495
2091505.0,214.0,32.0,4.0,240.0,2091.505
2091515.0,207.0,32.0,4.0,235.0,2091.515
2091525.0,208.0,33.0,3.0,236.0,2091.525
2091535.0,198.0,31.0,4.0,228.0,2091.535
2091545.0,205.0,32.0,4.0,237.0,2091.545
2091555.0,211.0,33.0,3.0,241.0,2091.555
2091565.0,207.0,32.0,4.0,238.0,2091.565
2091575.0,209.0,32.0,4.0,236.0,2091.575
2091585.0,201.0,32.0,4.0,229.0,2091.585
2091595.0,210.0,32.0,4.0,238.0,2091.595
2091606.0,213.0,33.0,4.0,241.0,2091.606
2091616.0,207.0,32.0,4.0,236.0,2091.616
2091626.0,209.0,33.0,3.0,235.0,2091.626
2091636.0,210.0,32.0,4.0,236.0,2091.636
2091646.0,215.0,32.0,4.0,240.0,2091.646
2091656.0,217.0,32.0,4.0,240.0,2091.656
2091666.0,208.0,33.0,4.0,233.0,2091.666
2091676.0,210.0,32.0,4.0,233.0,2091.676
2091686.0,210.0,33.0,4.0,237.0,2091.686
2091696.0,212.0,32.0,3.0,239.0,2091.696
2091706.0,215.0,33.0,4.0,240.0,2091.706
2091716.0,206.0,32.0,4.0,233.0,2091.716
2091726.0,208.0,33.0,4.0,233.0,2091.726
2091736.0,204.0,32.0,4.0,231.0,2091.736
2091746.0,212.0,32.0,4.0,238.0,2091.746
2091756.0,214.0,34.0,3.0,238.0,2091.756
2091766.0,206.0,32.0,4.0,230.0,2091.766
2091776.0,210.0,34.0,3.0,234.0,2091.776
2091786.0,207.0,33.0,5.0,231.0,2091.786
2091796.0,210.0,33.0,2.0,240.0,2091.796
2091806.0,213.0,33.0,4.0,237.0,2091.806
2091816.0,204.0,33.0,3.0,230.0,2091.816
2091826.0,208.0,33.0,3.0,232.0,2091.826
2091836.0,208.0,33.0,3.0,233.0,2091.836
2091846.0,214.0,33.0,4.0,238.0,2091.846
2091856.0,216.0,33.0,4.0,236.0,2091.856
2091866.0,209.0,32.0,5.0,232.0,2091.866
2091876.0,210.0,33.0,4.0,232.0,2091.876
2091886.0,209.0,33.0,3.0,232.0,2091.886
2091896.0,214.0,32.0,4.0,238.0,2091.896
2091906.0,215.0,33.0,3.0,238.0,2091.906
2091916.0,208.0,33.0,4.0,231.0,2091.916
2091926.0,208.0,33.0,4.0,232.0,2091.926
2091936.0,209.0,33.0,4.0,234.0,2091.936
2091947.0,211.0,34.0,3.0,238.0,2091.947
2091957.0,213.0,33.0,3.0,235.0,2091.957
2091967.0,204.0,32.0,4.0,227.0,2091.967
2091977.0,209.0,33.0,5.0,232.0,2091.977
2091987.0,214.0,33.0,4.0,238.0,2091.987
2091997.0,213.0,33.0,5.0,237.0,2091.997
2092007.0,213.0,34.0,4.0,236.0,2092.007
2092017.0,205.0,32.0,4.0,226.0,2092.017
2092027.0,210.0,33.0,4.0,233.0,2092.027
2092037.0,211.0,34.0,4.0,235.0,2092.037
2092047.0,214.0,33.0,3.0,235.0,2092.047
2092057.0,213.0,34.0,3.0,232.0,2092.057
2092067.0,205.0,32.0,4.0,225.0,2092.067
2092077.0,208.0,33.0,4.0,231.0,2092.077
2092087.0,213.0,32.0,4.0,237.0,2092.087
2092097.0,212.0,33.0,3.0,236.0,2092.097
2092107.0,214.0,33.0,4.0,234.0,2092.107
2092118.0,204.0,33.0,4.0,226.0,2092.118
2092128.0,211.0,32.0,4.0,234.0,2092.128
2092138.0,216.0,34.0,3.0,239.0,2092.138
2092148.0,210.0,32.0,4.0,232.0,2092.148
2092158.0,211.0,33.0,4.0,233.0,2092.158
2092168.0,204.0,32.0,4.0,226.0,2092.168
2092178.0,211.0,33.0,3.0,236.0,2092.178
2092188.0,215.0,33.0,4.0,239.0,2092.188
2092198.0,209.0,33.0,3.0,234.0,2092.198
2092208.0,210.0,33.0,4.0,233.0,2092.208
2092218.0,204.0,32.0,4.0,227.0,2092.218
2092228.0,213.0,33.0,4.0,237.0,2092.228
2092238.0,218.0,33.0,4.0,239.0,2092.238
2092248.0,212.0,33.0,4.0,236.0,2092.248
2092258.0,212.0,33.0,4.0,234.0,2092.258
2092268.0,206.0,34.0,3.0,229.0,2092.268
2092278.0,215.0,32.0,4.0,237.0,2092.278
2092288.0,217.0,35.0,3.0,240.0,2092.288
2092298.0,213.0,33.0,5.0,234.0,2092.298
2092308.0,210.0,33.0,4.0,234.0,2092.308
2092318.0,209.0,33.0,4.0,230.0,2092.318
2092328.0,217.0,34.0,3.0,240.0,2092.328
2092338.0,219.0,33.0,4.0,240.0,2092.338
2092348.0,212.0,32.0,3.0,235.0,2092.348
2092358.0,213.0,33.0,4.0,234.0,2092.358
2092368.0,207.0,32.0,4.0,232.0,2092.368
2092378.0,212.0,33.0,5.0,238.0,2092.378
2092388.0,217.0,33.0,4.0,241.0,2092.388
2092398.0,211.0,32.0,3.0,234.0,2092.398
2092408.0,211.0,32.0,3.0,234.0,2092.408
2092418.0,203.0,33.0,4.0,228.0,2092.418
2092428.0,211.0,33.0,4.0,237.0,2092.428
2092438.0,215.0,33.0,4.0,240.0,2092.438
2092448.0,208.0,32.0,3.0,234.0,2092.448
2092459.0,209.0,34.0,3.0,235.0,2092.459
2092469.0,207.0,32.0,4.0,234.0,2092.469
2092479.0,212.0,33.0,4.0,240.0,2092.479
2092489.0,216.0,33.0,4.0,239.0,2092.489
2092499.0,207.0,32.0,4.0,232.0,2092.499
2092509.0,211.0,33.0,5.0,235.0,2092.509
2092519.0,210.0,33.0,3.0,238.0,2092.519
2092529.0,213.0,32.0,4.0,240.0,2092.529
2092539.0,213.0,33.0,3.0,238.0,2092.539
2092549.0,208.0,32.0,4.0,234.0,2092.549
2092559.0,210.0,32.0,4.0,234.0,2092.559
2092569.0,210.0,33.0,4.0,237.0,2092.569
2092579.0,213.0,33.0,3.0,242.0,2092.579
2092589.0,214.0,33.0,4.0,240.0,2092.589
2092599.0,209.0,31.0,4.0,233.0,2092.599
2092609.0,212.0,33.0,4.0,235.0,2092.609
2092619.0,215.0,32.0,4.0,239.0,2092.619
2092630.0,214.0,33.0,3.0,240.0,2092.63
2092640.0,214.0,33.0,3.0,236.0,2092.64
2092650.0,206.0,33.0,3.0,230.0,2092.65
2092660.0,211.0,32.0,4.0,235.0,2092.66
2092670.0,215.0,33.0,4.0,241.0,2092.67
2092680.0,212.0,32.0,3.0,239.0,2092.68
2092690.0,210.0,33.0,4.0,237.0,2092.69
2092700.0,203.0,32.0,4.0,229.0,2092.7
2092710.0,206.0,33.0,3.0,239.0,2092.71
2092720.0,210.0,32.0,4.0,239.0,2092.72
2092730.0,209.0,32.0,4.0,240.0,2092.73
2092740.0,210.0,33.0,5.0,237.0,2092.74
2092750.0,202.0,32.0,4.0,231.0,2092.75
2092760.0,206.0,33.0,4.0,237.0,2092.76
2092770.0,211.0,33.0,4.0,243.0,2092.77
2092780.0,210.0,33.0,3.0,239.0,2092.78
2092790.0,210.0,32.0,4.0,236.0,2092.79
2092800.0,203.0,32.0,3.0,231.0,2092.8
2092810.0,208.0,33.0,4.0,235.0,2092.81
2092820.0,218.0,33.0,4.0,241.0,2092.82
2092830.0,213.0,32.0,4.0,238.0,2092.83
2092840.0,213.0,33.0,3.0,236.0,2092.84
2092850.0,206.0,32.0,4.0,231.0,2092.85
2092860.0,211.0,32.0,4.0,236.0,2092.86
2092870.0,217.0,33.0,5.0,241.0,2092.87
2092880.0,212.0,32.0,2.0,238.0,2092.88
2092890.0,213.0,33.0,5.0,237.0,2092.89
2092900.0,204.0,33.0,3.0,232.0,2092.9
2092910.0,208.0,32.0,3.0,238.0,2092.91
2092920.0,213.0,32.0,4.0,242.0,2092.92
2092930.0,210.0,32.0,3.0,240.0,2092.93
2092940.0,211.0,33.0,4.0,236.0,2092.94
2092950.0,201.0,32.0,4.0,230.0,2092.95
2092960.0,208.0,32.0,4.0,239.0,2092.96
2092971.0,214.0,34.0,3.0,242.0,2092.971
2092981.0,208.0,32.0,4.0,236.0,2092.981
2092991.0,209.0,33.0,4.0,236.0,2092.991
2093001.0,207.0,33.0,4.0,234.0,2093.001
2093011.0,208.0,32.0,4.0,241.0,2093.011
2093021.0,213.0,33.0,4.0,241.0,2093.021
2093031.0,205.0,33.0,3.0,235.0,2093.031
2093041.0,207.0,32.0,4.0,234.0,2093.041
2093051.0,205.0,32.0,4.0,234.0,2093.051
2093061.0,208.0,32.0,4.0,238.0,2093.061
2093071.0,213.0,33.0,4.0,240.0,2093.071
2093081.0,206.0,33.0,4.0,235.0,2093.081
2093091.0,209.0,32.0,3.0,235.0,2093.091
2093101.0,203.0,33.0,4.0,230.0,2093.101
2093111.0,210.0,32.0,3.0,239.0,2093.111
2093121.0,215.0,33.0,4.0,240.0,2093.121
2093131.0,207.0,32.0,4.0,235.0,2093.131
2093142.0,208.0,33.0,3.0,235.0,2093.142
2093152.0,209.0,32.0,4.0,238.0,2093.152
2093162.0,212.0,33.0,3.0,242.0,2093.162
2093172.0,214.0,32.0,4.0,238.0,2093.172
2093182.0,204.0,32.0,4.0,231.0,2093.182
2093192.0,209.0,32.0,3.0,234.0,2093.192
2093202.0,210.0,32.0,2.0,240.0,2093.202
2093212.0,212.0,32.0,4.0,241.0,2093.212
2093222.0,214.0,34.0,3.0,239.0,2093.222
2093232.0,207.0,32.0,4.0,235.0,2093.232
2093242.0,209.0,32.0,3.0,236.0,2093.242
2093252.0,212.0,33.0,4.0,241.0,2093.252
2093262.0,212.0,32.0,4.0,241.0,2093.262
2093272.0,216.0,33.0,5.0,240.0,2093.272
2093282.0,207.0,32.0,3.0,235.0,2093.282
2093292.0,209.0,32.0,4.0,236.0,2093.292
2093302.0,213.0,33.0,4.0,241.0,2093.302
2093312.0,214.0,32.0,4.0,241.0,2093.312
2093322.0,220.0,31.0,4.0,239.0,2093.322
2093332.0,210.0,32.0,3.0,234.0,2093.332
2093342.0,211.0,32.0,4.0,236.0,2093.342
2093352.0,215.0,34.0,3.0,242.0,2093.352
2093362.0,215.0,32.0,4.0,242.0,2093.362
2093372.0,215.0,33.0,3.0,238.0,2093.372
2093382.0,208.0,32.0,4.0,232.0,2093.382
2093392.0,210.0,33.0,4.0,236.0,2093.392
2093402.0,212.0,32.0,5.0,240.0,2093.402
2093412.0,216.0,33.0,3.0,245.0,2093.412
2093422.0,218.0,33.0,3.0,240.0,2093.422
2093432.0,207.0,32.0,3.0,234.0,2093.432
2093442.0,211.0,32.0,4.0,237.0,2093.442
2093452.0,213.0,33.0,4.0,241.0,2093.452
2093462.0,215.0,32.0,4.0,243.0,2093.462
2093472.0,215.0,33.0,4.0,240.0,2093.472
2093483.0,205.0,33.0,3.0,232.0,2093.483
2093493.0,210.0,32.0,4.0,238.0,2093.493
2093503.0,215.0,33.0,4.0,243.0,2093.503
2093513.0,212.0,33.0,4.0,240.0,2093.513
