time (ms),signal 0,signal 1,signal 2,signal 3,time (sec)
2099008.0,212.0,32.0,3.0,237.0,2099.008
2099018.0,212.0,33.0,3.0,235.0,2099.018
2099028.0,208.0,32.0,4.0,228.0,2099.028
2099038.0,212.0,32.0,4.0,234.0,2099.038
2099048.0,219.0,32.0,5.0,240.0,2099.048
2099058.0,214.0,33.0,4.0,237.0,2099.058
2099068.0,214.0,32.0,4.0,235.0,2099.068
2099078.0,208.0,34.0,3.0,229.0,2099.078
2099088.0,211.0,32.0,4.0,236.0,2099.088
2099098.0,217.0,33.0,3.0,242.0,2099.098
2099108.0,215.0,33.0,5.0,237.0,2099.108
2099118.0,216.0,32.0,4.0,238.0,2099.118
2099128.0,208.0,32.0,4.0,229.0,2099.128
2099138.0,209.0,33.0,3.0,238.0,2099.138
2099148.0,214.0,33.0,4.0,242.0,2099.148
2099158.0,213.0,32.0,4.0,240.0,2099.158
2099168.0,212.0,32.0,4.0,237.0,2099.168
2099178.0,206.0,32.0,4.0,230.0,2099.178
2099188.0,211.0,33.0,3.0,239.0,2099.188
2099198.0,218.0,33.0,4.0,243.0,2099.198
2099208.0,215.0,33.0,3.0,241.0,2099.208
2099218.0,214.0,32.0,4.0,238.0,2099.218
2099228.0,207.0,31.0,4.0,231.0,2099.228
2099238.0,218.0,32.0,4.0,243.0,2099.238
2099248.0,222.0,33.0,3.0,245.0,2099.248
2099258.0,221.0,32.0,4.0,241.0,2099.258
2099268.0,220.0,33.0,3.0,242.0,2099.268
2099278.0,212.0,32.0,4.0,233.0,2099.278
2099288.0,216.0,33.0,4.0,242.0,2099.288
2099298.0,223.0,32.0,5.0,246.0,2099.298
2099308.0,220.0,31.0,4.0,242.0,2099.308
2099318.0,218.0,32.0,4.0,241.0,2099.318
2099328.0,213.0,31.0,4.0,234.0,2099.328
2099338.0,217.0,33.0,3.0,241.0,2099.338
2099348.0,225.0,33.0,3.0,246.0,2099.348
2099358.0,221.0,32.0,4.0,241.0,2099.358
2099368.0,221.0,32.0,4.0,240.0,2099.368
2099378.0,213.0,33.0,4.0,233.0,2099.378
2099388.0,218.0,33.0,3.0,241.0,2099.388
2099398.0,223.0,34.0,3.0,246.0,2099.398
2099408.0,220.0,32.0,4.0,240.0,2099.408
2099418.0,219.0,33.0,3.0,242.0,2099.418
2099428.0,213.0,32.0,5.0,233.0,2099.428
2099438.0,218.0,32.0,4.0,241.0,2099.438
2099448.0,227.0,33.0,3.0,246.0,2099.448
2099458.0,223.0,33.0,2.0,242.0,2099.458
2099468.0,221.0,33.0,3.0,240.0,2099.468
2099478.0,213.0,32.0,4.0,232.0,2099.478
2099488.0,221.0,33.0,4.0,243.0,2099.488
2099499.0,225.0,32.0,3.0,246.0,2099.499
2099509.0,218.0,32.0,4.0,239.0,2099.509
2099519.0,219.0,33.0,3.0,240.0,2099.519
2099529.0,216.0,33.0,3.0,240.0,2099.529
2099539.0,223.0,32.0,4.0,246.0,2099.539
2099549.0,224.0,33.0,3.0,247.0,2099.549
2099559.0,219.0,32.0,4.0,238.0,2099.559
2099569.0,218.0,33.0,4.0,239.0,2099.569
2099579.0,217.0,33.0,4.0,241.0,2099.579
2099589.0,221.0,33.0,3.0,245.0,2099.589
2099599.0,224.0,32.0,4.0,245.0,2099.599
2099609.0,218.0,32.0,4.0,237.0,2099.609
2099619.0,220.0,33.0,4.0,239.0,2099.619
2099629.0,214.0,32.0,3.0,237.0,2099.629
2099639.0,224.0,33.0,4.0,244.0,2099.639
2099649.0,229.0,33.0,3.0,246.0,2099.649
2099659.0,221.0,32.0,3.0,237.0,2099.659
2099670.0,221.0,33.0,3.0,239.0,2099.67
2099680.0,223.0,33.0,4.0,242.0,2099.68
2099690.0,225.0,31.0,4.0,244.0,2099.69
2099700.0,223.0,33.0,3.0,241.0,2099.7
2099710.0,215.0,33.0,4.0,234.0,2099.71
2099720.0,218.0,32.0,3.0,238.0,2099.72
2099730.0,221.0,32.0,4.0,242.0,2099.73
2099740.0,225.0,32.0,4.0,244.0,2099.74
2099750.0,225.0,33.0,4.0,241.0,2099.75
2099760.0,217.0,32.0,4.0,236.0,2099.76
2099770.0,219.0,32.0,4.0,238.0,2099.77
2099780.0,222.0,34.0,3.0,246.0,2099.78
2099790.0,222.0,32.0,4.0,244.0,2099.79
2099800.0,223.0,34.0,3.0,245.0,2099.8
2099810.0,215.0,32.0,5.0,236.0,2099.81
2099820.0,217.0,33.0,3.0,240.0,2099.82
2099830.0,222.0,33.0,4.0,247.0,2099.83
2099840.0,225.0,32.0,4.0,246.0,2099.84
2099850.0,223.0,33.0,3.0,244.0,2099.85
2099860.0,216.0,32.0,4.0,236.0,2099.86
2099870.0,217.0,33.0,4.0,241.0,2099.87
2099880.0,224.0,33.0,4.0,248.0,2099.88
2099890.0,222.0,33.0,4.0,246.0,2099.89
2099900.0,222.0,33.0,3.0,243.0,2099.9
2099910.0,214.0,33.0,3.0,236.0,2099.91
2099920.0,218.0,32.0,4.0,241.0,2099.92
2099930.0,220.0,33.0,3.0,244.0,2099.93
2099940.0,220.0,32.0,5.0,244.0,2099.94
2099950.0,218.0,33.0,4.0,244.0,2099.95
2099960.0,210.0,33.0,4.0,234.0,2099.96
2099970.0,214.0,33.0,3.0,240.0,2099.97
2099980.0,219.0,32.0,3.0,246.0,2099.98
2099990.0,222.0,32.0,4.0,246.0,2099.99
2100000.0,222.0,33.0,4.0,244.0,2100.0
2100011.0,213.0,32.0,4.0,234.0,2100.011
2100021.0,219.0,33.0,3.0,243.0,2100.021
2100031.0,223.0,33.0,3.0,248.0,2100.031
2100041.0,215.0,33.0,3.0,241.0,2100.041
2100051.0,217.0,32.0,4.0,242.0,2100.051
2100061.0,210.0,33.0,3.0,234.0,2100.061
2100071.0,218.0,33.0,4.0,243.0,2100.071
2100081.0,222.0,33.0,4.0,247.0,2100.081
2100091.0,217.0,32.0,4.0,240.0,2100.091
2100101.0,218.0,33.0,2.0,243.0,2100.101
2100111.0,211.0,32.0,4.0,234.0,2100.111
2100121.0,219.0,33.0,3.0,245.0,2100.121
2100131.0,223.0,33.0,5.0,247.0,2100.131
2100141.0,220.0,33.0,3.0,242.0,2100.141
2100151.0,219.0,33.0,4.0,241.0,2100.151
2100161.0,213.0,33.0,4.0,237.0,2100.161
2100171.0,222.0,32.0,4.0,244.0,2100.171
2100182.0,225.0,33.0,4.0,248.0,2100.182
2100192.0,219.0,33.0,4.0,241.0,2100.192
2100202.0,218.0,33.0,4.0,243.0,2100.202
2100212.0,217.0,33.0,4.0,244.0,2100.212
2100222.0,216.0,33.0,3.0,250.0,2100.222
2100232.0,219.0,33.0,4.0,253.0,2100.232
2100242.0,214.0,32.0,4.0,244.0,2100.242
2100252.0,215.0,33.0,3.0,245.0,2100.252
2100262.0,224.0,33.0,4.0,250.0,2100.262
2100272.0,224.0,33.0,4.0,253.0,2100.272
2100282.0,225.0,33.0,4.0,253.0,2100.282
2100292.0,217.0,34.0,3.0,243.0,2100.292
2100302.0,216.0,32.0,4.0,240.0,2100.302
2100312.0,217.0,33.0,3.0,240.0,2100.312
2100322.0,225.0,33.0,4.0,247.0,2100.322
2100332.0,223.0,33.0,4.0,245.0,2100.332
2100342.0,210.0,32.0,4.0,232.0,2100.342
2100352.0,206.0,33.0,3.0,231.0,2100.352
2100362.0,206.0,33.0,3.0,231.0,2100.362
2100372.0,214.0,32.0,4.0,238.0,2100.372
2100382.0,215.0,33.0,4.0,241.0,2100.382
2100392.0,205.0,32.0,4.0,231.0,2100.392
2100402.0,214.0,33.0,4.0,238.0,2100.402
2100412.0,221.0,32.0,4.0,241.0,2100.412
2100422.0,227.0,33.0,3.0,243.0,2100.422
2100432.0,229.0,32.0,4.0,246.0,2100.432
2100442.0,223.0,33.0,3.0,242.0,2100.442
2100452.0,223.0,33.0,5.0,243.0,2100.452
2100462.0,228.0,33.0,4.0,245.0,2100.462
2100472.0,234.0,32.0,4.0,250.0,2100.472
2100482.0,238.0,34.0,4.0,256.0,2100.482
2100492.0,230.0,32.0,4.0,246.0,2100.492
2100502.0,234.0,33.0,3.0,251.0,2100.502
2100512.0,232.0,32.0,5.0,251.0,2100.512
2100523.0,230.0,33.0,4.0,249.0,2100.523
2100533.0,233.0,32.0,4.0,247.0,2100.533
2100543.0,224.0,32.0,4.0,235.0,2100.543
2100553.0,223.0,32.0,4.0,239.0,2100.553
2100563.0,230.0,32.0,4.0,246.0,2100.563
2100573.0,227.0,32.0,3.0,246.0,2100.573
2100583.0,232.0,33.0,4.0,244.0,2100.583
2100593.0,230.0,32.0,4.0,239.0,2100.593
2100603.0,242.0,32.0,4.0,250.0,2100.603
2100613.0,250.0,33.0,3.0,254.0,2100.613
2100623.0,246.0,32.0,4.0,250.0,2100.623
2100633.0,247.0,33.0,4.0,251.0,2100.633
2100643.0,237.0,32.0,5.0,242.0,2100.643
2100653.0,240.0,33.0,4.0,248.0,2100.653
2100663.0,237.0,33.0,3.0,249.0,2100.663
2100673.0,236.0,33.0,3.0,247.0,2100.673
2100683.0,238.0,32.0,3.0,246.0,2100.683
2100694.0,241.0,33.0,3.0,238.0,2100.694
2100704.0,250.0,32.0,4.0,251.0,2100.704
2100714.0,251.0,33.0,3.0,254.0,2100.714
2100724.0,237.0,32.0,4.0,242.0,2100.724
2100734.0,240.0,33.0,3.0,244.0,2100.734
2100744.0,245.0,33.0,3.0,244.0,2100.744
2100754.0,256.0,32.0,4.0,254.0,2100.754
2100764.0,257.0,33.0,5.0,255.0,2100.764
2100774.0,245.0,33.0,3.0,245.0,2100.774
2100784.0,245.0,33.0,4.0,246.0,2100.784
2100794.0,239.0,33.0,3.0,242.0,2100.794
2100804.0,245.0,33.0,3.0,254.0,2100.804
2100814.0,251.0,32.0,4.0,254.0,2100.814
2100824.0,248.0,33.0,3.0,256.0,2100.824
2100834.0,253.0,33.0,5.0,254.0,2100.834
2100844.0,243.0,33.0,4.0,247.0,2100.844
2100854.0,252.0,32.0,4.0,257.0,2100.854
2100864.0,261.0,33.0,4.0,263.0,2100.864
2100874.0,252.0,32.0,4.0,255.0,2100.874
2100884.0,250.0,32.0,4.0,253.0,2100.884
2100894.0,244.0,32.0,5.0,249.0,2100.894
2100904.0,248.0,31.0,3.0,258.0,2100.904
2100914.0,253.0,32.0,4.0,258.0,2100.914
2100924.0,246.0,32.0,4.0,253.0,2100.924
2100934.0,250.0,32.0,3.0,256.0,2100.934
2100944.0,239.0,32.0,4.0,251.0,2100.944
2100954.0,240.0,31.0,3.0,254.0,2100.954
2100964.0,243.0,32.0,3.0,259.0,2100.964
2100974.0,239.0,32.0,3.0,250.0,2100.974
2100984.0,239.0,32.0,4.0,251.0,2100.984
2100994.0,233.0,32.0,4.0,246.0,2100.994
2101004.0,236.0,32.0,4.0,254.0,2101.004
2101014.0,242.0,33.0,4.0,256.0,2101.014
2101024.0,238.0,32.0,4.0,250.0,2101.024
2101035.0,240.0,32.0,3.0,249.0,2101.035
2101045.0,239.0,32.0,3.0,251.0,2101.045
2101055.0,253.0,32.0,4.0,257.0,2101.055
2101065.0,249.0,33.0,4.0,252.0,2101.065
2101075.0,236.0,33.0,3.0,243.0,2101.075
2101085.0,241.0,32.0,4.0,249.0,2101.085
2101095.0,242.0,32.0,4.0,253.0,2101.095
2101105.0,249.0,32.0,4.0,256.0,2101.105
2101115.0,247.0,33.0,5.0,255.0,2101.115
2101125.0,241.0,32.0,3.0,252.0,2101.125
2101135.0,242.0,33.0,4.0,254.0,2101.135
2101145.0,244.0,33.0,3.0,257.0,2101.145
2101155.0,240.0,32.0,4.0,253.0,2101.155
2101165.0,245.0,34.0,4.0,252.0,2101.165
2101175.0,237.0,32.0,4.0,244.0,2101.175
2101185.0,241.0,33.0,5.0,247.0,2101.185
2101195.0,246.0,33.0,3.0,254.0,2101.195
2101206.0,243.0,32.0,4.0,253.0,2101.206
2101216.0,244.0,32.0,4.0,254.0,2101.216
2101226.0,239.0,33.0,4.0,246.0,2101.226
2101236.0,241.0,33.0,4.0,254.0,2101.236
2101246.0,255.0,33.0,4.0,260.0,2101.246
2101256.0,249.0,33.0,3.0,256.0,2101.256
2101266.0,242.0,33.0,4.0,252.0,2101.266
2101276.0,230.0,33.0,3.0,246.0,2101.276
2101286.0,240.0,32.0,3.0,255.0,2101.286
2101296.0,244.0,33.0,4.0,257.0,2101.296
2101306.0,243.0,32.0,4.0,256.0,2101.306
2101316.0,248.0,33.0,4.0,256.0,2101.316
2101326.0,234.0,33.0,3.0,248.0,2101.326
2101336.0,237.0,34.0,4.0,251.0,2101.336
2101346.0,247.0,33.0,4.0,258.0,2101.346
2101356.0,242.0,33.0,3.0,253.0,2101.356
2101366.0,238.0,33.0,5.0,250.0,2101.366
2101376.0,229.0,33.0,3.0,246.0,2101.376
2101386.0,232.0,32.0,4.0,252.0,2101.386
2101396.0,246.0,33.0,3.0,261.0,2101.396
2101406.0,241.0,33.0,3.0,254.0,2101.406
2101416.0,241.0,33.0,4.0,253.0,2101.416
2101426.0,237.0,33.0,4.0,246.0,2101.426
2101436.0,236.0,33.0,5.0,251.0,2101.436
2101446.0,238.0,33.0,4.0,256.0,2101.446
2101456.0,243.0,33.0,4.0,253.0,2101.456
2101466.0,251.0,33.0,5.0,254.0,2101.466
2101476.0,239.0,33.0,4.0,246.0,2101.476
2101486.0,244.0,34.0,4.0,253.0,2101.486
2101496.0,248.0,33.0,4.0,256.0,2101.496
2101506.0,245.0,34.0,3.0,255.0,2101.506
2101516.0,248.0,34.0,3.0,252.0,2101.516
2101526.0,236.0,33.0,4.0,243.0,2101.526
2101536.0,245.0,34.0,4.0,254.0,2101.536
2101547.0,250.0,35.0,3.0,260.0,2101.547
2101557.0,240.0,32.0,4.0,253.0,2101.557
2101567.0,239.0,33.0,5.0,252.0,2101.567
2101577.0,234.0,34.0,3.0,251.0,2101.577
2101587.0,241.0,33.0,2.0,260.0,2101.587
2101597.0,247.0,34.0,4.0,261.0,2101.597
2101607.0,238.0,34.0,3.0,256.0,2101.607
2101617.0,240.0,33.0,4.0,254.0,2101.617
2101627.0,240.0,33.0,4.0,254.0,2101.627
2101637.0,244.0,34.0,4.0,258.0,2101.637
2101647.0,250.0,34.0,3.0,262.0,2101.647
2101657.0,248.0,33.0,4.0,256.0,2101.657
2101667.0,254.0,33.0,4.0,259.0,2101.667
2101677.0,246.0,33.0,4.0,253.0,2101.677
2101687.0,254.0,34.0,3.0,263.0,2101.687
2101697.0,259.0,34.0,4.0,265.0,2101.697
2101707.0,250.0,32.0,4.0,257.0,2101.707
2101718.0,253.0,33.0,3.0,259.0,2101.718
2101728.0,250.0,33.0,3.0,262.0,2101.728
2101738.0,252.0,33.0,4.0,264.0,2101.738
2101748.0,250.0,34.0,4.0,262.0,2101.748
2101758.0,243.0,33.0,5.0,252.0,2101.758
2101768.0,246.0,33.0,4.0,256.0,2101.768
2101778.0,246.0,33.0,3.0,263.0,2101.778
2101788.0,246.0,34.0,4.0,261.0,2101.788
2101798.0,248.0,34.0,4.0,258.0,2101.798
2101808.0,240.0,33.0,3.0,252.0,2101.808
2101818.0,239.0,34.0,4.0,253.0,2101.818
2101828.0,242.0,34.0,3.0,258.0,2101.828
2101838.0,242.0,33.0,5.0,258.0,2101.838
2101848.0,244.0,34.0,5.0,257.0,2101.848
2101858.0,235.0,34.0,3.0,250.0,2101.858
2101868.0,237.0,34.0,4.0,252.0,2101.868
2101878.0,240.0,34.0,4.0,257.0,2101.878
2101888.0,240.0,33.0,3.0,258.0,2101.888
2101898.0,242.0,34.0,4.0,256.0,2101.898
2101908.0,232.0,34.0,4.0,247.0,2101.908
2101918.0,236.0,33.0,4.0,248.0,2101.918
2101928.0,239.0,34.0,3.0,256.0,2101.928
2101938.0,241.0,34.0,3.0,260.0,2101.938
2101948.0,245.0,34.0,5.0,255.0,2101.948
2101958.0,239.0,33.0,4.0,255.0,2101.958
2101968.0,244.0,34.0,4.0,257.0,2101.968
2101978.0,243.0,34.0,4.0,259.0,2101.978
2101988.0,244.0,32.0,4.0,260.0,2101.988
2101998.0,242.0,34.0,3.0,256.0,2101.998
2102008.0,232.0,33.0,3.0,247.0,2102.008
2102018.0,234.0,34.0,3.0,252.0,2102.018
2102028.0,236.0,33.0,4.0,257.0,2102.028
2102038.0,239.0,34.0,4.0,259.0,2102.038
2102048.0,239.0,33.0,3.0,256.0,2102.048
2102059.0,230.0,33.0,3.0,247.0,2102.059
2102069.0,234.0,34.0,4.0,255.0,2102.069
2102079.0,240.0,33.0,4.0,256.0,2102.079
2102089.0,234.0,33.0,4.0,251.0,2102.089
2102099.0,234.0,33.0,4.0,247.0,2102.099
2102109.0,227.0,32.0,2.0,241.0,2102.109
2102119.0,230.0,32.0,4.0,251.0,2102.119
2102129.0,239.0,33.0,3.0,254.0,2102.129
2102139.0,230.0,32.0,4.0,246.0,2102.139
2102149.0,232.0,33.0,3.0,246.0,2102.149
2102159.0,223.0,32.0,4.0,237.0,2102.159
2102169.0,231.0,32.0,4.0,246.0,2102.169
2102179.0,240.0,33.0,3.0,253.0,2102.179
2102189.0,234.0,33.0,4.0,248.0,2102.189
2102199.0,233.0,33.0,4.0,244.0,2102.199
2102209.0,223.0,32.0,4.0,236.0,2102.209
2102219.0,230.0,33.0,4.0,249.0,2102.219
2102230.0,233.0,33.0,4.0,252.0,2102.23
2102240.0,227.0,33.0,4.0,248.0,2102.24
2102250.0,228.0,32.0,3.0,249.0,2102.25
2102260.0,227.0,32.0,4.0,248.0,2102.26
2102270.0,233.0,32.0,4.0,253.0,2102.27
2102280.0,234.0,33.0,4.0,256.0,2102.28
2102290.0,225.0,33.0,5.0,246.0,2102.29
2102300.0,225.0,32.0,4.0,247.0,2102.3
2102310.0,225.0,33.0,3.0,249.0,2102.31
2102320.0,227.0,34.0,3.0,254.0,2102.32
2102330.0,235.0,33.0,4.0,254.0,2102.33
2102340.0,225.0,32.0,4.0,247.0,2102.34
2102350.0,225.0,31.0,4.0,249.0,2102.35
2102360.0,220.0,31.0,4.0,245.0,2102.36
2102370.0,227.0,32.0,4.0,252.0,2102.37
2102380.0,229.0,33.0,3.0,252.0,2102.38
2102390.0,221.0,32.0,3.0,245.0,2102.39
2102400.0,223.0,32.0,4.0,248.0,2102.4
2102410.0,219.0,32.0,4.0,244.0,2102.41
2102420.0,223.0,31.0,4.0,251.0,2102.42
2102430.0,225.0,33.0,3.0,250.0,2102.43
2102440.0,218.0,30.0,4.0,241.0,2102.44
2102450.0,221.0,32.0,4.0,244.0,2102.45
2102460.0,217.0,32.0,4.0,241.0,2102.46
2102470.0,225.0,32.0,5.0,249.0,2102.47
2102480.0,225.0,32.0,3.0,249.0,2102.48
2102490.0,222.0,31.0,3.0,243.0,2102.49
2102500.0,225.0,31.0,3.0,243.0,2102.5
2102510.0,223.0,32.0,3.0,242.0,2102.51
2102520.0,226.0,32.0,4.0,248.0,2102.52
2102530.0,228.0,32.0,3.0,249.0,2102.53
2102540.0,221.0,31.0,5.0,242.0,2102.54
2102550.0,222.0,32.0,4.0,242.0,2102.55
2102560.0,221.0,32.0,4.0,246.0,2102.56
2102571.0,228.0,30.0,4.0,247.0,2102.571
2102581.0,227.0,32.0,3.0,244.0,2102.581
2102591.0,220.0,31.0,5.0,238.0,2102.591
2102601.0,221.0,31.0,4.0,243.0,2102.601
2102611.0,226.0,32.0,4.0,249.0,2102.611
2102621.0,225.0,31.0,3.0,247.0,2102.621
2102631.0,224.0,32.0,3.0,245.0,2102.631
2102641.0,217.0,32.0,4.0,238.0,2102.641
2102651.0,216.0,32.0,4.0,245.0,2102.651
2102661.0,218.0,31.0,4.0,247.0,2102.661
2102671.0,221.0,31.0,4.0,248.0,2102.671
2102681.0,219.0,31.0,4.0,246.0,2102.681
2102691.0,213.0,31.0,4.0,238.0,2102.691
2102701.0,216.0,33.0,3.0,243.0,2102.701
2102711.0,221.0,31.0,4.0,249.0,2102.711
2102721.0,223.0,31.0,5.0,249.0,2102.721
2102731.0,226.0,32.0,4.0,247.0,2102.731
2102742.0,219.0,32.0,4.0,238.0,2102.742
2102752.0,223.0,31.0,3.0,249.0,2102.752
2102762.0,227.0,32.0,4.0,252.0,2102.762
2102772.0,223.0,32.0,4.0,246.0,2102.772
2102782.0,222.0,32.0,4.0,245.0,2102.782
2102792.0,216.0,31.0,3.0,238.0,2102.792
2102802.0,221.0,32.0,3.0,245.0,2102.802
2102812.0,230.0,32.0,4.0,251.0,2102.812
2102822.0,223.0,32.0,4.0,243.0,2102.822
2102832.0,224.0,33.0,4.0,243.0,2102.832
2102842.0,218.0,32.0,3.0,237.0,2102.842
2102852.0,225.0,32.0,4.0,246.0,2102.852
2102862.0,227.0,32.0,4.0,248.0,2102.862
2102872.0,224.0,32.0,4.0,244.0,2102.872
2102882.0,222.0,32.0,3.0,243.0,2102.882
2102892.0,218.0,32.0,4.0,236.0,2102.892
2102902.0,226.0,32.0,4.0,246.0,2102.902
2102912.0,228.0,33.0,3.0,249.0,2102.912
2102922.0,225.0,32.0,5.0,243.0,2102.922
2102932.0,223.0,32.0,4.0,243.0,2102.932
2102942.0,219.0,31.0,5.0,238.0,2102.942
2102952.0,226.0,32.0,4.0,247.0,2102.952
2102962.0,227.0,32.0,5.0,249.0,2102.962
2102972.0,223.0,33.0,3.0,245.0,2102.972
2102982.0,221.0,32.0,4.0,244.0,2102.982
2102992.0,214.0,32.0,4.0,239.0,2102.992
2103002.0,218.0,32.0,4.0,246.0,2103.002
2103012.0,223.0,33.0,3.0,250.0,2103.012
2103022.0,219.0,32.0,4.0,243.0,2103.022
2103032.0,219.0,33.0,3.0,244.0,2103.032
2103042.0,213.0,32.0,4.0,236.0,2103.042
2103052.0,220.0,32.0,4.0,245.0,2103.052
2103062.0,225.0,33.0,3.0,248.0,2103.062
2103072.0,222.0,33.0,3.0,240.0,2103.072
2103083.0,220.0,33.0,3.0,240.0,2103.083
2103093.0,218.0,32.0,4.0,239.0,2103.093
2103103.0,224.0,33.0,3.0,246.0,2103.103
2103113.0,224.0,33.0,4.0,244.0,2103.113
2103123.0,217.0,33.0,4.0,236.0,2103.123
2103133.0,219.0,32.0,4.0,241.0,2103.133
2103143.0,216.0,33.0,4.0,242.0,2103.143
2103153.0,223.0,32.0,4.0,246.0,2103.153
2103163.0,222.0,34.0,3.0,245.0,2103.163
2103173.0,220.0,33.0,3.0,237.0,2103.173
2103183.0,221.0,33.0,3.0,240.0,2103.183
2103193.0,222.0,33.0,5.0,242.0,2103.193
2103203.0,226.0,33.0,3.0,246.0,2103.203
2103213.0,230.0,34.0,4.0,248.0,2103.213
2103223.0,223.0,33.0,4.0,239.0,2103.223
2103233.0,223.0,33.0,3.0,240.0,2103.233
2103243.0,224.0,32.0,3.0,244.0,2103.243
2103254.0,226.0,33.0,4.0,247.0,2103.254
2103264.0,226.0,34.0,4.0,245.0,2103.264
2103274.0,218.0,32.0,4.0,236.0,2103.274
2103284.0,221.0,33.0,3.0,242.0,2103.284
2103294.0,226.0,34.0,3.0,248.0,2103.294
2103304.0,224.0,33.0,4.0,245.0,2103.304
2103314.0,222.0,33.0,3.0,243.0,2103.314
2103324.0,217.0,32.0,5.0,235.0,2103.324
2103334.0,219.0,33.0,4.0,242.0,2103.334
2103344.0,223.0,33.0,4.0,243.0,2103.344
2103354.0,223.0,32.0,4.0,244.0,2103.354
2103364.0,221.0,33.0,3.0,242.0,2103.364
2103374.0,215.0,32.0,4.0,233.0,2103.374
2103384.0,217.0,32.0,3.0,237.0,2103.384
2103394.0,220.0,33.0,4.0,245.0,2103.394
2103404.0,221.0,32.0,4.0,243.0,2103.404
2103414.0,219.0,33.0,4.0,241.0,2103.414
2103424.0,215.0,32.0,3.0,236.0,2103.424
2103434.0,218.0,32.0,4.0,240.0,2103.434
2103444.0,222.0,33.0,4.0,247.0,2103.444
2103454.0,223.0,33.0,4.0,243.0,2103.454
2103464.0,220.0,33.0,4.0,241.0,2103.464
2103474.0,214.0,32.0,5.0,235.0,2103.474
2103484.0,216.0,34.0,3.0,242.0,2103.484
2103494.0,222.0,32.0,4.0,247.0,2103.494
2103504.0,220.0,32.0,4.0,244.0,2103.504
2103514.0,220.0,34.0,4.0,244.0,2103.514
2103524.0,214.0,33.0,3.0,237.0,2103.524
2103534.0,218.0,33.0,4.0,243.0,2103.534
2103544.0,227.0,35.0,3.0,250.0,2103.544
2103554.0,227.0,33.0,4.0,245.0,2103.554
2103564.0,224.0,32.0,4.0,243.0,2103.564
2103574.0,217.0,33.0,4.0,235.0,2103.574
2103584.0,222.0,31.0,4.0,242.0,2103.584
2103595.0,226.0,33.0,4.0,246.0,2103.595
2103605.0,222.0,33.0,3.0,242.0,2103.605
2103615.0,222.0,33.0,3.0,240.0,2103.615
2103625.0,216.0,32.0,4.0,237.0,2103.625
2103635.0,224.0,32.0,4.0,247.0,2103.635
2103645.0,225.0,32.0,4.0,247.0,2103.645
2103655.0,220.0,33.0,3.0,241.0,2103.655
2103665.0,219.0,32.0,4.0,239.0,2103.665
2103675.0,216.0,33.0,3.0,239.0,2103.675
2103685.0,220.0,33.0,4.0,243.0,2103.685
2103695.0,224.0,33.0,4.0,246.0,2103.695
2103705.0,221.0,32.0,3.0,240.0,2103.705
2103715.0,220.0,33.0,4.0,240.0,2103.715
2103725.0,215.0,33.0,5.0,234.0,2103.725
2103735.0,222.0,33.0,4.0,246.0,2103.735
2103745.0,226.0,33.0,4.0,248.0,2103.745
2103755.0,221.0,32.0,4.0,240.0,2103.755
2103766.0,220.0,33.0,4.0,241.0,2103.766
2103776.0,219.0,33.0,4.0,241.0,2103.776
2103786.0,222.0,33.0,4.0,245.0,2103.786
2103796.0,222.0,33.0,4.0,244.0,2103.796
2103806.0,215.0,33.0,3.0,236.0,2103.806
2103816.0,217.0,32.0,4.0,240.0,2103.816
2103826.0,217.0,33.0,4.0,242.0,2103.826
2103836.0,222.0,32.0,4.0,245.0,2103.836
2103846.0,220.0,34.0,4.0,242.0,2103.846
2103856.0,218.0,33.0,5.0,238.0,2103.856
2103866.0,218.0,32.0,3.0,240.0,2103.866
2103876.0,223.0,32.0,4.0,243.0,2103.876
2103886.0,225.0,32.0,4.0,246.0,2103.886
2103896.0,226.0,32.0,4.0,246.0,2103.896
2103906.0,219.0,31.0,4.0,238.0,2103.906
2103916.0,220.0,33.0,3.0,239.0,2103.916
2103926.0,223.0,33.0,4.0,245.0,2103.926
2103936.0,226.0,32.0,4.0,245.0,2103.936
2103946.0,225.0,32.0,4.0,243.0,2103.946
2103956.0,216.0,32.0,4.0,237.0,2103.956
2103966.0,218.0,33.0,4.0,239.0,2103.966
2103976.0,220.0,33.0,3.0,246.0,2103.976
2103986.0,222.0,33.0,4.0,247.0,2103.986
2103996.0,222.0,34.0,3.0,244.0,2103.996
2104006.0,216.0,32.0,4.0,237.0,2104.006
2104016.0,217.0,33.0,3.0,241.0,2104.016
2104026.0,219.0,32.0,4.0,242.0,2104.026
2104036.0,225.0,32.0,4.0,246.0,2104.036
2104046.0,223.0,33.0,4.0,244.0,2104.046
2104056.0,217.0,33.0,3.0,238.0,2104.056
2104066.0,219.0,33.0,4.0,240.0,2104.066
2104076.0,219.0,33.0,3.0,243.0,2104.076
2104086.0,223.0,32.0,5.0,247.0,2104.086
2104096.0,223.0,33.0,4.0,244.0,2104.096
2104107.0,217.0,32.0,4.0,237.0,2104.107
2104117.0,221.0,32.0,4.0,242.0,2104.117
2104127.0,226.0,33.0,3.0,248.0,2104.127
2104137.0,224.0,32.0,4.0,243.0,2104.137
2104147.0,222.0,33.0,4.0,242.0,2104.147
2104157.0,216.0,32.0,4.0,236.0,2104.157
2104167.0,220.0,33.0,2.0,242.0,2104.167
2104177.0,226.0,33.0,4.0,250.0,2104.177
2104187.0,224.0,33.0,3.0,247.0,2104.187
2104197.0,225.0,32.0,4.0,246.0,2104.197
2104207.0,217.0,32.0,3.0,238.0,2104.207
2104217.0,222.0,33.0,3.0,247.0,2104.217
2104227.0,226.0,33.0,4.0,250.0,2104.227
2104237.0,224.0,33.0,4.0,248.0,2104.237
2104247.0,221.0,33.0,3.0,246.0,2104.247
2104257.0,213.0,32.0,3.0,237.0,2104.257
2104267.0,222.0,33.0,4.0,246.0,2104.267
2104278.0,228.0,33.0,4.0,249.0,2104.278
2104288.0,222.0,32.0,4.0,243.0,2104.288
2104298.0,220.0,32.0,4.0,242.0,2104.298
2104308.0,216.0,32.0,4.0,242.0,2104.308
2104318.0,223.0,32.0,4.0,249.0,2104.318
2104328.0,224.0,33.0,4.0,250.0,2104.328
2104338.0,219.0,32.0,4.0,244.0,2104.338
2104348.0,217.0,31.0,4.0,242.0,2104.348
2104358.0,213.0,32.0,4.0,242.0,2104.358
2104368.0,219.0,32.0,4.0,249.0,2104.368
2104378.0,221.0,34.0,3.0,251.0,2104.378
2104388.0,215.0,32.0,4.0,242.0,2104.388
2104398.0,215.0,33.0,3.0,243.0,2104.398
2104408.0,210.0,32.0,4.0,239.0,2104.408
2104418.0,218.0,33.0,3.0,248.0,2104.418
2104428.0,221.0,32.0,4.0,249.0,2104.428
2104438.0,215.0,33.0,3.0,243.0,2104.438
2104448.0,217.0,33.0,3.0,245.0,2104.448
2104458.0,211.0,32.0,4.0,239.0,2104.458
2104468.0,217.0,32.0,4.0,247.0,2104.468
2104478.0,221.0,32.0,4.0,247.0,2104.478
2104488.0,214.0,32.0,3.0,238.0,2104.488
2104498.0,217.0,32.0,4.0,241.0,2104.498
2104508.0,211.0,33.0,3.0,237.0,2104.508
2104518.0,220.0,32.0,4.0,246.0,2104.518
2104528.0,225.0,33.0,3.0,244.0,2104.528
2104538.0,220.0,32.0,4.0,240.0,2104.538
2104548.0,218.0,33.0,4.0,240.0,2104.548
2104558.0,215.0,32.0,4.0,238.0,2104.558
2104568.0,221.0,33.0,3.0,245.0,2104.568
2104578.0,223.0,32.0,4.0,245.0,2104.578
2104588.0,217.0,32.0,4.0,238.0,2104.588
2104598.0,219.0,32.0,5.0,239.0,2104.598
2104608.0,216.0,31.0,4.0,239.0,2104.608
2104619.0,218.0,32.0,4.0,244.0,2104.619
2104629.0,218.0,33.0,3.0,243.0,2104.629
2104639.0,210.0,33.0,3.0,236.0,2104.639
2104649.0,213.0,32.0,4.0,238.0,2104.649
2104659.0,217.0,33.0,4.0,246.0,2104.659
2104669.0,219.0,32.0,4.0,246.0,2104.669
2104679.0,218.0,34.0,3.0,243.0,2104.679
2104689.0,211.0,32.0,4.0,237.0,2104.689
2104699.0,211.0,34.0,3.0,241.0,2104.699
2104709.0,214.0,32.0,4.0,243.0,2104.709
2104719.0,218.0,33.0,3.0,246.0,2104.719
2104729.0,219.0,32.0,4.0,242.0,2104.729
2104739.0,210.0,32.0,4.0,235.0,2104.739
2104749.0,215.0,33.0,5.0,240.0,2104.749
2104759.0,216.0,33.0,3.0,244.0,2104.759
2104769.0,218.0,32.0,4.0,244.0,2104.769
2104779.0,217.0,33.0,3.0,243.0,2104.779
2104790.0,210.0,33.0,4.0,235.0,2104.79
2104800.0,215.0,33.0,4.0,241.0,2104.8
2104810.0,225.0,33.0,4.0,246.0,2104.81
2104820.0,220.0,33.0,3.0,243.0,2104.82
2104830.0,220.0,32.0,3.0,241.0,2104.83
2104840.0,213.0,33.0,3.0,237.0,2104.84
2104850.0,219.0,32.0,4.0,244.0,2104.85
2104860.0,225.0,32.0,4.0,249.0,2104.86
2104870.0,218.0,32.0,4.0,243.0,2104.87
2104880.0,222.0,32.0,4.0,243.0,2104.88
2104890.0,212.0,33.0,3.0,236.0,2104.89
2104900.0,217.0,32.0,4.0,244.0,2104.9
2104910.0,221.0,33.0,3.0,248.0,2104.91
2104920.0,219.0,32.0,3.0,246.0,2104.92
2104930.0,218.0,33.0,4.0,243.0,2104.93
2104940.0,210.0,32.0,4.0,235.0,2104.94
2104950.0,217.0,33.0,3.0,244.0,2104.95
2104960.0,220.0,32.0,4.0,245.0,2104.96
2104970.0,217.0,32.0,3.0,244.0,2104.97
2104980.0,215.0,32.0,4.0,241.0,2104.98
2104990.0,206.0,31.0,3.0,234.0,2104.99
2105000.0,215.0,32.0,4.0,244.0,2105.0
2105010.0,219.0,31.0,4.0,246.0,2105.01
2105020.0,215.0,32.0,3.0,242.0,2105.02
2105030.0,215.0,32.0,4.0,241.0,2105.03
2105040.0,207.0,32.0,4.0,237.0,2105.04
2105050.0,212.0,32.0,4.0,243.0,2105.05
2105060.0,218.0,33.0,2.0,248.0,2105.06
2105070.0,217.0,32.0,3.0,243.0,2105.07
2105080.0,221.0,32.0,4.0,242.0,2105.08
2105090.0,212.0,32.0,3.0,235.0,2105.09
2105100.0,217.0,32.0,3.0,245.0,2105.1
2105110.0,224.0,33.0,4.0,248.0,2105.11
2105120.0,216.0,32.0,4.0,242.0,2105.12
2105131.0,218.0,32.0,4.0,243.0,2105.131
2105141.0,212.0,33.0,3.0,240.0,2105.141
2105151.0,219.0,32.0,4.0,247.0,2105.151
2105161.0,218.0,33.0,4.0,248.0,2105.161
2105171.0,209.0,32.0,4.0,240.0,2105.171
2105181.0,213.0,32.0,4.0,243.0,2105.181
2105191.0,210.0,32.0,4.0,241.0,2105.191
2105201.0,217.0,32.0,4.0,248.0,2105.201
2105211.0,218.0,33.0,3.0,245.0,2105.211
2105221.0,212.0,32.0,3.0,241.0,2105.221
2105231.0,213.0,32.0,4.0,240.0,2105.231
2105241.0,212.0,32.0,4.0,239.0,2105.241
2105251.0,218.0,32.0,2.0,245.0,2105.251
2105261.0,225.0,33.0,5.0,248.0,2105.261
2105271.0,217.0,33.0,3.0,241.0,2105.271
2105281.0,218.0,32.0,4.0,240.0,2105.281
2105291.0,217.0,32.0,3.0,242.0,2105.291
2105302.0,221.0,32.0,5.0,246.0,2105.302
2105312.0,222.0,32.0,4.0,244.0,2105.312
2105322.0,212.0,32.0,3.0,237.0,2105.322
2105332.0,215.0,33.0,4.0,241.0,2105.332
2105342.0,225.0,32.0,3.0,247.0,2105.342
2105352.0,223.0,32.0,3.0,246.0,2105.352
2105362.0,223.0,33.0,4.0,243.0,2105.362
2105372.0,214.0,33.0,4.0,235.0,2105.372
2105382.0,216.0,33.0,3.0,241.0,2105.382
2105392.0,220.0,32.0,4.0,244.0,2105.392
2105402.0,221.0,33.0,3.0,244.0,2105.402
2105412.0,220.0,32.0,3.0,242.0,2105.412
2105422.0,212.0,32.0,4.0,234.0,2105.422
2105432.0,217.0,32.0,4.0,239.0,2105.432
2105442.0,218.0,33.0,4.0,243.0,2105.442
2105452.0,218.0,32.0,3.0,244.0,2105.452
2105462.0,218.0,34.0,3.0,242.0,2105.462
2105472.0,211.0,32.0,3.0,236.0,2105.472
2105482.0,213.0,32.0,4.0,238.0,2105.482
2105492.0,218.0,33.0,3.0,244.0,2105.492
2105502.0,218.0,32.0,4.0,244.0,2105.502
2105512.0,218.0,33.0,4.0,241.0,2105.512
2105522.0,210.0,33.0,3.0,236.0,2105.522
2105532.0,213.0,33.0,4.0,240.0,2105.532
2105542.0,219.0,33.0,3.0,246.0,2105.542
2105552.0,217.0,32.0,4.0,244.0,2105.552
2105562.0,221.0,33.0,4.0,243.0,2105.562
2105572.0,210.0,32.0,4.0,235.0,2105.572
2105582.0,215.0,32.0,4.0,239.0,2105.582
2105592.0,221.0,33.0,4.0,246.0,2105.592
2105602.0,220.0,32.0,3.0,246.0,2105.602
2105612.0,221.0,34.0,3.0,244.0,2105.612
2105622.0,213.0,33.0,5.0,235.0,2105.622
2105632.0,215.0,34.0,3.0,243.0,2105.632
2105643.0,222.0,33.0,4.0,249.0,2105.643
2105653.0,216.0,34.0,3.0,245.0,2105.653
2105663.0,217.0,34.0,3.0,242.0,2105.663
2105673.0,209.0,33.0,3.0,236.0,2105.673
2105683.0,220.0,33.0,4.0,246.0,2105.683
2105693.0,222.0,33.0,4.0,249.0,2105.693
2105703.0,216.0,33.0,3.0,243.0,2105.703
2105713.0,217.0,33.0,4.0,242.0,2105.713
2105723.0,211.0,33.0,4.0,236.0,2105.723
2105733.0,216.0,33.0,3.0,243.0,2105.733
2105743.0,221.0,33.0,4.0,246.0,2105.743
2105753.0,218.0,33.0,4.0,240.0,2105.753
2105763.0,219.0,34.0,4.0,239.0,2105.763
2105773.0,212.0,33.0,4.0,233.0,2105.773
2105783.0,219.0,34.0,3.0,242.0,2105.783
2105793.0,223.0,34.0,3.0,246.0,2105.793
2105803.0,217.0,34.0,4.0,239.0,2105.803
2105814.0,218.0,34.0,4.0,239.0,2105.814
2105824.0,214.0,33.0,4.0,238.0,2105.824
2105834.0,221.0,33.0,4.0,244.0,2105.834
2105844.0,222.0,35.0,3.0,245.0,2105.844
2105854.0,215.0,33.0,3.0,236.0,2105.854
2105864.0,221.0,35.0,3.0,241.0,2105.864
2105874.0,218.0,33.0,5.0,240.0,2105.874
2105884.0,223.0,33.0,4.0,246.0,2105.884
2105894.0,224.0,34.0,4.0,244.0,2105.894
2105904.0,218.0,33.0,4.0,239.0,2105.904
2105914.0,218.0,33.0,3.0,240.0,2105.914
2105924.0,217.0,33.0,4.0,241.0,2105.924
2105934.0,220.0,33.0,4.0,245.0,2105.934
2105944.0,223.0,34.0,4.0,246.0,2105.944
2105954.0,216.0,34.0,2.0,239.0,2105.954
2105964.0,220.0,33.0,4.0,239.0,2105.964
2105974.0,219.0,35.0,3.0,243.0,2105.974
2105984.0,222.0,33.0,4.0,246.0,2105.984
2105994.0,223.0,34.0,3.0,246.0,2105.994
2106004.0,215.0,33.0,5.0,239.0,2106.004
2106014.0,216.0,34.0,4.0,239.0,2106.014
2106024.0,218.0,33.0,4.0,244.0,2106.024
2106034.0,220.0,33.0,4.0,247.0,2106.034
2106044.0,222.0,33.0,3.0,246.0,2106.044
2106054.0,216.0,32.0,3.0,240.0,2106.054
2106064.0,218.0,33.0,4.0,241.0,2106.064
2106074.0,216.0,32.0,4.0,241.0,2106.074
2106084.0,221.0,33.0,4.0,247.0,2106.084
2106094.0,223.0,33.0,4.0,245.0,2106.094
2106104.0,214.0,32.0,3.0,238.0,2106.104
2106114.0,218.0,33.0,3.0,241.0,2106.114
2106124.0,216.0,34.0,3.0,242.0,2106.124
2106134.0,222.0,33.0,5.0,248.0,2106.134
2106144.0,226.0,34.0,4.0,247.0,2106.144
2106155.0,215.0,33.0,4.0,239.0,2106.155
2106165.0,218.0,33.0,3.0,243.0,2106.165
2106175.0,222.0,32.0,4.0,247.0,2106.175
2106185.0,219.0,33.0,3.0,245.0,2106.185
2106195.0,220.0,33.0,5.0,243.0,2106.195
2106205.0,213.0,32.0,4.0,237.0,2106.205
2106215.0,215.0,32.0,4.0,241.0,2106.215
2106225.0,223.0,33.0,3.0,249.0,2106.225
2106235.0,219.0,32.0,3.0,243.0,2106.235
2106245.0,222.0,33.0,3.0,243.0,2106.245
2106255.0,212.0,33.0,4.0,235.0,2106.255
2106265.0,217.0,33.0,4.0,242.0,2106.265
2106275.0,222.0,33.0,2.0,247.0,2106.275
2106285.0,221.0,32.0,4.0,245.0,2106.285
2106295.0,219.0,33.0,3.0,243.0,2106.295
2106305.0,212.0,32.0,3.0,236.0,2106.305
2106315.0,219.0,33.0,3.0,243.0,2106.315
2106326.0,227.0,33.0,4.0,248.0,2106.326
2106336.0,220.0,33.0,4.0,243.0,2106.336
2106346.0,221.0,32.0,4.0,241.0,2106.346
2106356.0,214.0,33.0,3.0,239.0,2106.356
2106366.0,222.0,33.0,3.0,246.0,2106.366
2106376.0,225.0,33.0,3.0,249.0,2106.376
2106386.0,219.0,32.0,4.0,242.0,2106.386
2106396.0,220.0,33.0,4.0,241.0,2106.396
2106406.0,219.0,32.0,3.0,240.0,2106.406
2106416.0,224.0,33.0,4.0,245.0,2106.416
2106426.0,227.0,33.0,3.0,248.0,2106.426
2106436.0,220.0,33.0,4.0,241.0,2106.436
2106446.0,220.0,33.0,4.0,241.0,2106.446
2106456.0,213.0,33.0,5.0,234.0,2106.456
2106466.0,220.0,33.0,4.0,244.0,2106.466
2106476.0,224.0,33.0,4.0,247.0,2106.476
2106486.0,218.0,32.0,3.0,240.0,2106.486
2106496.0,218.0,33.0,3.0,241.0,2106.496
2106506.0,208.0,33.0,4.0,235.0,2106.506
2106516.0,217.0,32.0,5.0,244.0,2106.516
2106526.0,219.0,34.0,4.0,246.0,2106.526
2106536.0,212.0,33.0,3.0,239.0,2106.536
2106546.0,215.0,33.0,4.0,240.0,2106.546
2106556.0,209.0,33.0,4.0,236.0,2106.556
2106566.0,217.0,32.0,4.0,245.0,2106.566
2106576.0,219.0,32.0,4.0,246.0,2106.576
2106586.0,211.0,32.0,3.0,242.0,2106.586
2106596.0,213.0,33.0,4.0,242.0,2106.596
2106606.0,207.0,33.0,3.0,239.0,2106.606
2106616.0,215.0,32.0,3.0,247.0,2106.616
2106626.0,218.0,33.0,4.0,249.0,2106.626
2106636.0,213.0,32.0,4.0,242.0,2106.636
2106646.0,215.0,33.0,5.0,241.0,2106.646
2106656.0,214.0,32.0,4.0,241.0,2106.656
2106667.0,222.0,33.0,3.0,248.0,2106.667
2106677.0,222.0,34.0,3.0,247.0,2106.677
2106687.0,214.0,32.0,4.0,239.0,2106.687
2106697.0,216.0,33.0,3.0,241.0,2106.697
2106707.0,220.0,32.0,5.0,246.0,2106.707
2106717.0,220.0,33.0,3.0,248.0,2106.717
2106727.0,221.0,33.0,4.0,245.0,2106.727
2106737.0,211.0,33.0,3.0,238.0,2106.737
2106747.0,210.0,32.0,3.0,241.0,2106.747
2106757.0,209.0,33.0,4.0,243.0,2106.757
2106767.0,215.0,33.0,4.0,247.0,2106.767
2106777.0,217.0,33.0,4.0,245.0,2106.777
2106787.0,208.0,32.0,3.0,239.0,2106.787
2106797.0,213.0,32.0,4.0,242.0,2106.797
2106807.0,214.0,33.0,3.0,244.0,2106.807
2106817.0,218.0,32.0,3.0,248.0,2106.817
2106827.0,215.0,32.0,4.0,245.0,2106.827
2106838.0,207.0,32.0,5.0,235.0,2106.838
2106848.0,210.0,32.0,4.0,241.0,2106.848
2106858.0,218.0,33.0,4.0,247.0,2106.858
2106868.0,215.0,33.0,3.0,244.0,2106.868
2106878.0,215.0,32.0,4.0,242.0,2106.878
2106888.0,209.0,33.0,3.0,237.0,2106.888
2106898.0,214.0,32.0,5.0,243.0,2106.898
2106908.0,219.0,33.0,4.0,249.0,2106.908
2106918.0,214.0,32.0,4.0,245.0,2106.918
2106928.0,214.0,33.0,4.0,244.0,2106.928
2106938.0,205.0,32.0,4.0,235.0,2106.938
2106948.0,211.0,32.0,4.0,242.0,2106.948
2106958.0,217.0,33.0,5.0,247.0,2106.958
2106968.0,217.0,33.0,5.0,245.0,2106.968
2106978.0,216.0,32.0,4.0,243.0,2106.978
2106988.0,208.0,32.0,4.0,235.0,2106.988
2106998.0,215.0,33.0,3.0,244.0,2106.998
2107008.0,215.0,33.0,4.0,247.0,2107.008
2107018.0,213.0,32.0,4.0,245.0,2107.018
2107028.0,214.0,33.0,5.0,240.0,2107.028
2107038.0,206.0,32.0,4.0,233.0,2107.038
2107048.0,214.0,33.0,4.0,242.0,2107.048
2107058.0,217.0,33.0,3.0,246.0,2107.058
2107068.0,215.0,32.0,3.0,243.0,2107.068
2107078.0,214.0,33.0,4.0,242.0,2107.078
2107088.0,208.0,33.0,5.0,234.0,2107.088
2107098.0,213.0,32.0,4.0,241.0,2107.098
2107108.0,224.0,33.0,3.0,248.0,2107.108
2107118.0,221.0,33.0,4.0,245.0,2107.118
2107128.0,221.0,33.0,3.0,242.0,2107.128
2107138.0,213.0,32.0,4.0,237.0,2107.138
2107148.0,217.0,32.0,4.0,243.0,2107.148
2107158.0,224.0,33.0,4.0,249.0,2107.158
2107168.0,218.0,32.0,4.0,243.0,2107.168
2107179.0,218.0,33.0,3.0,242.0,2107.179
2107189.0,216.0,33.0,3.0,239.0,2107.189
2107199.0,223.0,32.0,3.0,247.0,2107.199
2107209.0,225.0,32.0,3.0,248.0,2107.209
2107219.0,217.0,32.0,5.0,240.0,2107.219
2107229.0,219.0,33.0,4.0,242.0,2107.229
2107239.0,215.0,33.0,4.0,238.0,2107.239
2107249.0,223.0,33.0,3.0,248.0,2107.249
2107259.0,224.0,32.0,4.0,246.0,2107.259
2107269.0,220.0,33.0,3.0,244.0,2107.269
2107279.0,223.0,32.0,4.0,243.0,2107.279
2107289.0,218.0,32.0,4.0,242.0,2107.289
2107299.0,224.0,32.0,3.0,249.0,2107.299
2107309.0,227.0,31.0,4.0,250.0,2107.309
2107319.0,219.0,32.0,3.0,243.0,2107.319
2107329.0,220.0,32.0,4.0,243.0,2107.329
2107339.0,217.0,33.0,3.0,242.0,2107.339
2107350.0,226.0,31.0,4.0,248.0,2107.35
2107360.0,228.0,33.0,3.0,246.0,2107.36
2107370.0,218.0,32.0,4.0,238.0,2107.37
2107380.0,219.0,33.0,3.0,242.0,2107.38
2107390.0,224.0,32.0,4.0,247.0,2107.39
2107400.0,223.0,33.0,3.0,248.0,2107.4
2107410.0,225.0,32.0,5.0,245.0,2107.41
2107420.0,215.0,31.0,4.0,238.0,2107.42
2107430.0,217.0,32.0,4.0,241.0,2107.43
2107440.0,218.0,31.0,4.0,244.0,2107.44
2107450.0,221.0,32.0,4.0,246.0,2107.45
2107460.0,221.0,32.0,4.0,243.0,2107.46
2107470.0,213.0,32.0,4.0,237.0,2107.47
2107480.0,217.0,32.0,5.0,242.0,2107.48
2107490.0,219.0,33.0,3.0,246.0,2107.49
2107500.0,221.0,33.0,3.0,248.0,2107.5
2107510.0,220.0,33.0,3.0,245.0,2107.51
2107520.0,215.0,32.0,4.0,241.0,2107.52
2107530.0,217.0,32.0,4.0,242.0,2107.53
2107540.0,220.0,32.0,5.0,247.0,2107.54
2107550.0,220.0,32.0,3.0,247.0,2107.55
2107560.0,219.0,32.0,4.0,244.0,2107.56
2107570.0,214.0,33.0,3.0,239.0,2107.57
2107580.0,215.0,32.0,4.0,240.0,2107.58
2107590.0,218.0,32.0,3.0,248.0,2107.59
2107600.0,220.0,32.0,5.0,248.0,2107.6
2107610.0,220.0,33.0,3.0,248.0,2107.61
2107620.0,213.0,32.0,4.0,240.0,2107.62
2107630.0,215.0,33.0,3.0,245.0,2107.63
2107640.0,220.0,33.0,3.0,250.0,2107.64
2107650.0,221.0,33.0,4.0,250.0,2107.65
2107660.0,221.0,32.0,4.0,247.0,2107.66
2107670.0,212.0,31.0,4.0,240.0,2107.67
2107680.0,214.0,32.0,4.0,243.0,2107.68
2107691.0,220.0,32.0,4.0,250.0,2107.691
2107701.0,219.0,33.0,3.0,248.0,2107.701
2107711.0,218.0,32.0,4.0,246.0,2107.711
2107721.0,211.0,32.0,4.0,238.0,2107.721
2107731.0,221.0,32.0,4.0,247.0,2107.731
2107741.0,222.0,33.0,4.0,250.0,2107.741
2107751.0,220.0,32.0,4.0,245.0,2107.751
2107761.0,219.0,33.0,3.0,243.0,2107.761
2107771.0,212.0,32.0,4.0,238.0,2107.771
2107781.0,218.0,33.0,3.0,245.0,2107.781
2107791.0,229.0,32.0,5.0,250.0,2107.791
2107801.0,223.0,32.0,3.0,244.0,2107.801
2107811.0,222.0,32.0,4.0,243.0,2107.811
2107821.0,217.0,31.0,4.0,236.0,2107.821
2107831.0,221.0,32.0,3.0,245.0,2107.831
2107841.0,226.0,32.0,3.0,249.0,2107.841
2107851.0,221.0,32.0,4.0,242.0,2107.851
2107862.0,223.0,32.0,4.0,242.0,2107.862
2107872.0,216.0,32.0,4.0,239.0,2107.872
2107882.0,224.0,32.0,4.0,248.0,2107.882
2107892.0,230.0,34.0,3.0,248.0,2107.892
2107902.0,221.0,32.0,4.0,238.0,2107.902
2107912.0,223.0,32.0,4.0,242.0,2107.912
2107922.0,220.0,33.0,4.0,241.0,2107.922
2107932.0,226.0,32.0,4.0,247.0,2107.932
2107942.0,226.0,32.0,4.0,245.0,2107.942
2107952.0,220.0,32.0,4.0,241.0,2107.952
2107962.0,219.0,32.0,3.0,242.0,2107.962
2107972.0,218.0,32.0,4.0,242.0,2107.972
2107982.0,224.0,32.0,4.0,247.0,2107.982
2107992.0,227.0,32.0,4.0,249.0,2107.992
2108002.0,222.0,32.0,4.0,241.0,2108.002
2108012.0,223.0,33.0,4.0,243.0,2108.012
2108022.0,221.0,33.0,3.0,244.0,2108.022
2108032.0,225.0,32.0,4.0,247.0,2108.032
2108042.0,227.0,33.0,3.0,248.0,2108.042
2108052.0,221.0,31.0,5.0,241.0,2108.052
2108062.0,220.0,32.0,3.0,242.0,2108.062
2108072.0,220.0,32.0,4.0,245.0,2108.072
2108082.0,223.0,33.0,4.0,247.0,2108.082
2108092.0,224.0,32.0,3.0,247.0,2108.092
2108102.0,216.0,32.0,3.0,239.0,2108.102
2108112.0,220.0,32.0,4.0,241.0,2108.112
2108122.0,214.0,32.0,3.0,240.0,2108.122
2108132.0,222.0,32.0,4.0,246.0,2108.132
2108142.0,223.0,33.0,3.0,247.0,2108.142
2108152.0,216.0,32.0,3.0,238.0,2108.152
2108162.0,219.0,32.0,3.0,242.0,2108.162
2108172.0,217.0,32.0,4.0,241.0,2108.172
2108182.0,224.0,32.0,4.0,247.0,2108.182
2108192.0,223.0,33.0,3.0,246.0,2108.192
2108203.0,215.0,32.0,4.0,238.0,2108.203
2108213.0,213.0,33.0,3.0,240.0,2108.213
2108223.0,218.0,32.0,4.0,244.0,2108.223
2108233.0,217.0,32.0,4.0,244.0,2108.233
2108243.0,218.0,32.0,5.0,241.0,2108.243
2108253.0,212.0,32.0,3.0,236.0,2108.253
2108263.0,214.0,32.0,4.0,239.0,2108.263
2108273.0,219.0,33.0,3.0,246.0,2108.273
2108283.0,219.0,32.0,4.0,244.0,2108.283
2108293.0,220.0,33.0,3.0,245.0,2108.293
2108303.0,213.0,32.0,5.0,235.0,2108.303
2108313.0,215.0,31.0,4.0,240.0,2108.313
2108323.0,221.0,32.0,4.0,247.0,2108.323
2108333.0,217.0,31.0,4.0,246.0,2108.333
2108343.0,217.0,32.0,4.0,242.0,2108.343
2108353.0,210.0,32.0,3.0,235.0,2108.353
2108363.0,213.0,32.0,4.0,240.0,2108.363
2108374.0,221.0,32.0,4.0,247.0,2108.374
2108384.0,217.0,32.0,4.0,243.0,2108.384
2108394.0,216.0,33.0,3.0,243.0,2108.394
2108404.0,210.0,33.0,3.0,236.0,2108.404
2108414.0,219.0,32.0,4.0,246.0,2108.414
2108424.0,221.0,33.0,3.0,247.0,2108.424
2108434.0,219.0,32.0,5.0,241.0,2108.434
2108444.0,217.0,33.0,3.0,240.0,2108.444
2108454.0,216.0,32.0,4.0,237.0,2108.454
2108464.0,220.0,33.0,2.0,243.0,2108.464
2108474.0,226.0,32.0,3.0,247.0,2108.474
2108484.0,220.0,32.0,3.0,240.0,2108.484
2108494.0,220.0,32.0,5.0,241.0,2108.494
2108504.0,213.0,32.0,3.0,235.0,2108.504
2108514.0,219.0,32.0,4.0,244.0,2108.514
2108524.0,224.0,32.0,4.0,248.0,2108.524
2108534.0,219.0,32.0,3.0,241.0,2108.534
2108544.0,222.0,32.0,4.0,243.0,2108.544
2108554.0,217.0,32.0,4.0,235.0,2108.554
2108564.0,225.0,32.0,4.0,245.0,2108.564
2108574.0,228.0,32.0,4.0,247.0,2108.574
2108584.0,221.0,32.0,4.0,240.0,2108.584
2108594.0,221.0,33.0,3.0,243.0,2108.594
2108604.0,214.0,32.0,4.0,236.0,2108.604
2108614.0,221.0,32.0,4.0,246.0,2108.614
2108624.0,225.0,32.0,5.0,249.0,2108.624
2108634.0,220.0,32.0,4.0,244.0,2108.634
2108644.0,220.0,32.0,3.0,242.0,2108.644
2108654.0,213.0,33.0,3.0,239.0,2108.654
2108664.0,222.0,32.0,4.0,247.0,2108.664
2108674.0,224.0,33.0,3.0,249.0,2108.674
2108684.0,220.0,32.0,4.0,243.0,2108.684
2108694.0,216.0,31.0,4.0,241.0,2108.694
2108704.0,210.0,32.0,4.0,237.0,2108.704
2108715.0,219.0,32.0,4.0,246.0,2108.715
2108725.0,220.0,33.0,3.0,248.0,2108.725
2108735.0,214.0,32.0,4.0,240.0,2108.735
2108745.0,215.0,33.0,4.0,242.0,2108.745
2108755.0,219.0,31.0,5.0,246.0,2108.755
2108765.0,221.0,32.0,4.0,249.0,2108.765
2108775.0,223.0,32.0,4.0,246.0,2108.775
2108785.0,216.0,32.0,3.0,241.0,2108.785
2108795.0,214.0,32.0,4.0,242.0,2108.795
2108805.0,212.0,32.0,3.0,242.0,2108.805
2108815.0,220.0,32.0,5.0,248.0,2108.815
2108825.0,220.0,33.0,4.0,246.0,2108.825
2108835.0,212.0,32.0,4.0,237.0,2108.835
2108845.0,215.0,31.0,3.0,242.0,2108.845
2108855.0,213.0,32.0,3.0,243.0,2108.855
2108865.0,220.0,32.0,3.0,248.0,2108.865
2108875.0,220.0,32.0,4.0,247.0,2108.875
2108886.0,214.0,31.0,4.0,238.0,2108.886
2108896.0,212.0,32.0,4.0,241.0,2108.896
2108906.0,217.0,32.0,4.0,248.0,2108.906
2108916.0,217.0,32.0,3.0,246.0,2108.916
2108926.0,216.0,32.0,4.0,244.0,2108.926
2108936.0,211.0,32.0,3.0,237.0,2108.936
2108946.0,214.0,32.0,4.0,242.0,2108.946
2108956.0,219.0,32.0,4.0,250.0,2108.956
2108966.0,218.0,32.0,4.0,246.0,2108.966
2108976.0,218.0,32.0,4.0,247.0,2108.976
2108986.0,213.0,32.0,4.0,236.0,2108.986
2108996.0,219.0,32.0,3.0,244.0,2108.996
2109006.0,225.0,33.0,5.0,249.0,2109.006
2109016.0,223.0,32.0,3.0,248.0,2109.016
2109026.0,222.0,32.0,4.0,244.0,2109.026
2109036.0,214.0,32.0,3.0,238.0,2109.036
