time (ms),signal 0,signal 1,signal 2,signal 3,time (sec)
2127121.0,210.0,33.0,4.0,240.0,2127.121
2127131.0,218.0,32.0,4.0,248.0,2127.131
2127141.0,220.0,34.0,4.0,247.0,2127.141
2127151.0,216.0,33.0,4.0,243.0,2127.151
2127161.0,216.0,33.0,4.0,242.0,2127.161
2127171.0,211.0,33.0,3.0,240.0,2127.171
2127181.0,218.0,33.0,3.0,248.0,2127.181
2127191.0,221.0,34.0,3.0,249.0,2127.191
2127201.0,215.0,32.0,4.0,242.0,2127.201
2127211.0,216.0,33.0,4.0,242.0,2127.211
2127221.0,212.0,33.0,4.0,241.0,2127.221
2127232.0,220.0,32.0,4.0,249.0,2127.232
2127242.0,222.0,33.0,4.0,247.0,2127.242
2127252.0,213.0,33.0,3.0,241.0,2127.252
2127262.0,215.0,32.0,4.0,240.0,2127.262
2127272.0,222.0,33.0,4.0,246.0,2127.272
2127282.0,223.0,32.0,4.0,248.0,2127.282
2127292.0,225.0,33.0,3.0,246.0,2127.292
2127302.0,215.0,32.0,4.0,239.0,2127.302
2127312.0,217.0,33.0,3.0,242.0,2127.312
2127322.0,217.0,32.0,4.0,243.0,2127.322
2127332.0,222.0,32.0,4.0,248.0,2127.332
2127342.0,224.0,33.0,5.0,246.0,2127.342
2127352.0,215.0,32.0,3.0,239.0,2127.352
2127362.0,218.0,33.0,4.0,242.0,2127.362
2127372.0,218.0,32.0,4.0,244.0,2127.372
2127382.0,222.0,33.0,3.0,248.0,2127.382
2127392.0,222.0,32.0,4.0,244.0,2127.392
2127403.0,213.0,32.0,4.0,239.0,2127.403
2127413.0,218.0,32.0,4.0,245.0,2127.413
2127423.0,224.0,33.0,4.0,251.0,2127.423
2127433.0,220.0,32.0,4.0,248.0,2127.433
2127443.0,220.0,33.0,3.0,247.0,2127.443
2127453.0,217.0,32.0,4.0,240.0,2127.453
2127463.0,221.0,32.0,3.0,245.0,2127.463
2127473.0,227.0,33.0,4.0,251.0,2127.473
2127483.0,222.0,32.0,3.0,247.0,2127.483
2127493.0,225.0,32.0,5.0,247.0,2127.493
2127503.0,215.0,33.0,3.0,240.0,2127.503
2127513.0,219.0,32.0,3.0,246.0,2127.513
2127523.0,225.0,32.0,4.0,251.0,2127.523
2127533.0,224.0,32.0,3.0,250.0,2127.533
2127543.0,229.0,33.0,4.0,248.0,2127.543
2127553.0,218.0,33.0,4.0,240.0,2127.553
2127563.0,224.0,32.0,3.0,248.0,2127.563
2127574.0,227.0,33.0,3.0,252.0,2127.574
2127584.0,221.0,32.0,4.0,246.0,2127.584
2127594.0,224.0,33.0,4.0,246.0,2127.594
2127604.0,223.0,32.0,5.0,243.0,2127.604
2127614.0,228.0,33.0,2.0,252.0,2127.614
2127624.0,231.0,33.0,5.0,252.0,2127.624
2127634.0,222.0,33.0,3.0,246.0,2127.634
2127644.0,223.0,32.0,4.0,246.0,2127.644
2127654.0,219.0,33.0,4.0,244.0,2127.654
2127664.0,223.0,32.0,4.0,248.0,2127.664
2127674.0,230.0,32.0,4.0,251.0,2127.674
2127684.0,222.0,32.0,4.0,243.0,2127.684
2127694.0,223.0,33.0,3.0,246.0,2127.694
2127704.0,216.0,32.0,4.0,239.0,2127.704
2127714.0,225.0,32.0,3.0,250.0,2127.714
2127724.0,227.0,33.0,4.0,251.0,2127.724
2127734.0,218.0,33.0,4.0,243.0,2127.734
2127744.0,221.0,33.0,4.0,245.0,2127.744
2127754.0,213.0,32.0,4.0,242.0,2127.754
2127764.0,222.0,33.0,3.0,253.0,2127.764
2127774.0,224.0,32.0,4.0,252.0,2127.774
2127784.0,215.0,33.0,3.0,245.0,2127.784
2127794.0,219.0,32.0,3.0,246.0,2127.794
2127804.0,220.0,32.0,4.0,243.0,2127.804
2127814.0,228.0,33.0,3.0,253.0,2127.814
2127824.0,232.0,35.0,3.0,253.0,2127.824
2127834.0,225.0,32.0,3.0,247.0,2127.834
2127844.0,224.0,33.0,4.0,247.0,2127.844
2127854.0,220.0,33.0,4.0,245.0,2127.854
2127864.0,228.0,33.0,3.0,253.0,2127.864
2127874.0,231.0,33.0,4.0,254.0,2127.874
2127884.0,223.0,32.0,3.0,247.0,2127.884
2127894.0,224.0,33.0,3.0,248.0,2127.894
2127904.0,222.0,32.0,4.0,246.0,2127.904
2127915.0,227.0,32.0,5.0,253.0,2127.915
2127925.0,229.0,33.0,4.0,250.0,2127.925
2127935.0,218.0,32.0,4.0,241.0,2127.935
2127945.0,220.0,32.0,4.0,244.0,2127.945
2127955.0,224.0,33.0,3.0,252.0,2127.955
2127965.0,225.0,32.0,4.0,250.0,2127.965
2127975.0,225.0,33.0,4.0,247.0,2127.975
2127985.0,217.0,33.0,4.0,239.0,2127.985
2127995.0,219.0,32.0,3.0,243.0,2127.995
2128005.0,221.0,33.0,3.0,245.0,2128.005
2128015.0,224.0,33.0,3.0,250.0,2128.015
2128025.0,225.0,32.0,4.0,247.0,2128.025
2128035.0,215.0,32.0,4.0,240.0,2128.035
2128045.0,218.0,33.0,3.0,244.0,2128.045
2128055.0,220.0,33.0,3.0,248.0,2128.055
2128065.0,222.0,33.0,3.0,250.0,2128.065
2128075.0,223.0,32.0,3.0,248.0,2128.075
2128086.0,215.0,32.0,3.0,240.0,2128.086
2128096.0,218.0,32.0,4.0,247.0,2128.096
2128106.0,221.0,32.0,4.0,253.0,2128.106
2128116.0,214.0,31.0,4.0,247.0,2128.116
2128126.0,214.0,33.0,4.0,248.0,2128.126
2128136.0,214.0,32.0,4.0,240.0,2128.136
2128146.0,220.0,34.0,3.0,251.0,2128.146
2128156.0,226.0,32.0,4.0,254.0,2128.156
2128166.0,221.0,32.0,3.0,249.0,2128.166
2128176.0,226.0,32.0,4.0,252.0,2128.176
2128186.0,220.0,31.0,4.0,244.0,2128.186
2128196.0,226.0,32.0,4.0,253.0,2128.196
2128206.0,228.0,33.0,4.0,261.0,2128.206
2128216.0,227.0,32.0,4.0,255.0,2128.216
2128226.0,230.0,32.0,4.0,253.0,2128.226
2128236.0,222.0,32.0,4.0,246.0,2128.236
2128246.0,233.0,32.0,4.0,255.0,2128.246
2128256.0,239.0,33.0,4.0,259.0,2128.256
2128266.0,238.0,32.0,3.0,256.0,2128.266
2128276.0,243.0,33.0,3.0,256.0,2128.276
2128286.0,235.0,32.0,4.0,245.0,2128.286
2128296.0,238.0,33.0,4.0,256.0,2128.296
2128306.0,241.0,33.0,4.0,256.0,2128.306
2128316.0,230.0,33.0,4.0,248.0,2128.316
2128326.0,231.0,33.0,4.0,247.0,2128.326
2128336.0,221.0,33.0,3.0,241.0,2128.336
2128346.0,226.0,32.0,4.0,245.0,2128.346
2128356.0,237.0,33.0,4.0,252.0,2128.356
2128366.0,231.0,33.0,4.0,245.0,2128.366
2128376.0,225.0,33.0,4.0,246.0,2128.376
2128386.0,216.0,32.0,5.0,237.0,2128.386
2128396.0,218.0,33.0,4.0,249.0,2128.396
2128406.0,223.0,33.0,3.0,252.0,2128.406
2128416.0,220.0,32.0,3.0,244.0,2128.416
2128427.0,221.0,33.0,4.0,245.0,2128.427
2128437.0,216.0,33.0,4.0,237.0,2128.437
2128447.0,217.0,33.0,3.0,243.0,2128.447
2128457.0,222.0,33.0,4.0,244.0,2128.457
2128467.0,217.0,34.0,3.0,237.0,2128.467
2128477.0,218.0,33.0,4.0,235.0,2128.477
2128487.0,219.0,32.0,4.0,239.0,2128.487
2128497.0,229.0,32.0,5.0,245.0,2128.497
2128507.0,229.0,32.0,4.0,244.0,2128.507
2128517.0,218.0,32.0,5.0,235.0,2128.517
2128527.0,222.0,33.0,3.0,238.0,2128.527
2128537.0,230.0,32.0,3.0,238.0,2128.537
2128547.0,237.0,33.0,3.0,247.0,2128.547
2128557.0,243.0,33.0,4.0,251.0,2128.557
2128567.0,231.0,32.0,4.0,242.0,2128.567
2128577.0,224.0,34.0,4.0,236.0,2128.577
2128587.0,221.0,32.0,4.0,241.0,2128.587
2128598.0,229.0,33.0,3.0,247.0,2128.598
2128608.0,238.0,32.0,4.0,250.0,2128.608
2128618.0,231.0,32.0,4.0,244.0,2128.618
2128628.0,238.0,33.0,4.0,245.0,2128.628
2128638.0,248.0,33.0,3.0,255.0,2128.638
2128648.0,250.0,32.0,4.0,260.0,2128.648
2128658.0,257.0,34.0,3.0,271.0,2128.658
2128668.0,253.0,32.0,4.0,262.0,2128.668
2128678.0,259.0,33.0,3.0,271.0,2128.678
2128688.0,256.0,32.0,3.0,272.0,2128.688
2128698.0,256.0,32.0,2.0,274.0,2128.698
2128708.0,260.0,32.0,4.0,269.0,2128.708
2128718.0,246.0,33.0,4.0,261.0,2128.718
2128728.0,247.0,33.0,4.0,264.0,2128.728
2128738.0,254.0,32.0,4.0,273.0,2128.738
2128748.0,251.0,32.0,5.0,268.0,2128.748
2128758.0,254.0,32.0,4.0,264.0,2128.758
2128768.0,245.0,32.0,5.0,259.0,2128.768
2128778.0,246.0,33.0,3.0,264.0,2128.778
2128788.0,251.0,34.0,3.0,264.0,2128.788
2128798.0,250.0,32.0,4.0,260.0,2128.798
2128808.0,249.0,33.0,3.0,258.0,2128.808
2128818.0,240.0,32.0,4.0,254.0,2128.818
2128828.0,240.0,33.0,4.0,259.0,2128.828
2128838.0,243.0,32.0,4.0,261.0,2128.838
2128848.0,242.0,33.0,3.0,257.0,2128.848
2128858.0,247.0,33.0,4.0,259.0,2128.858
2128868.0,243.0,32.0,4.0,252.0,2128.868
2128878.0,249.0,32.0,4.0,264.0,2128.878
2128888.0,255.0,32.0,4.0,273.0,2128.888
2128898.0,248.0,32.0,4.0,266.0,2128.898
2128908.0,253.0,33.0,4.0,266.0,2128.908
2128918.0,251.0,33.0,3.0,258.0,2128.918
2128928.0,251.0,32.0,4.0,261.0,2128.928
2128939.0,266.0,32.0,4.0,274.0,2128.939
2128949.0,252.0,31.0,4.0,265.0,2128.949
2128959.0,249.0,32.0,4.0,260.0,2128.959
2128969.0,239.0,33.0,3.0,252.0,2128.969
2128979.0,242.0,33.0,3.0,259.0,2128.979
2128989.0,262.0,32.0,4.0,265.0,2128.989
2128999.0,254.0,33.0,3.0,255.0,2128.999
2129009.0,254.0,33.0,4.0,252.0,2129.009
2129019.0,248.0,33.0,4.0,253.0,2129.019
2129029.0,259.0,33.0,4.0,257.0,2129.029
2129039.0,249.0,34.0,3.0,258.0,2129.039
2129049.0,237.0,32.0,3.0,247.0,2129.049
2129059.0,240.0,33.0,3.0,249.0,2129.059
2129069.0,232.0,32.0,4.0,244.0,2129.069
2129079.0,241.0,31.0,4.0,256.0,2129.079
2129089.0,243.0,33.0,3.0,260.0,2129.089
2129099.0,237.0,32.0,3.0,255.0,2129.099
2129110.0,237.0,33.0,4.0,256.0,2129.11
2129120.0,242.0,32.0,4.0,254.0,2129.12
2129130.0,246.0,33.0,4.0,262.0,2129.13
2129140.0,249.0,33.0,4.0,262.0,2129.14
2129150.0,244.0,33.0,3.0,258.0,2129.15
2129160.0,254.0,34.0,4.0,263.0,2129.16
2129170.0,249.0,34.0,3.0,266.0,2129.17
2129180.0,259.0,32.0,4.0,270.0,2129.18
2129190.0,273.0,33.0,4.0,273.0,2129.19
2129200.0,263.0,33.0,5.0,267.0,2129.2
2129210.0,260.0,33.0,4.0,272.0,2129.21
2129220.0,256.0,33.0,4.0,273.0,2129.22
2129230.0,253.0,33.0,3.0,274.0,2129.23
2129240.0,256.0,32.0,4.0,279.0,2129.24
2129250.0,254.0,32.0,3.0,275.0,2129.25
2129260.0,250.0,33.0,4.0,276.0,2129.26
2129270.0,247.0,33.0,4.0,273.0,2129.27
2129280.0,241.0,33.0,4.0,269.0,2129.28
2129290.0,242.0,34.0,3.0,269.0,2129.29
2129300.0,235.0,33.0,3.0,258.0,2129.3
2129310.0,243.0,32.0,3.0,259.0,2129.31
2129320.0,259.0,32.0,4.0,267.0,2129.32
2129330.0,261.0,32.0,3.0,271.0,2129.33
2129340.0,259.0,34.0,2.0,268.0,2129.34
2129350.0,252.0,33.0,4.0,260.0,2129.35
2129360.0,245.0,33.0,3.0,255.0,2129.36
2129370.0,243.0,33.0,4.0,257.0,2129.37
2129380.0,244.0,33.0,3.0,262.0,2129.38
2129390.0,247.0,34.0,4.0,261.0,2129.39
2129400.0,242.0,32.0,4.0,253.0,2129.4
2129410.0,241.0,33.0,4.0,256.0,2129.41
2129420.0,239.0,33.0,3.0,262.0,2129.42
2129430.0,246.0,32.0,3.0,265.0,2129.43
2129440.0,243.0,32.0,4.0,261.0,2129.44
2129451.0,240.0,32.0,4.0,249.0,2129.451
2129461.0,248.0,32.0,4.0,255.0,2129.461
2129471.0,252.0,32.0,4.0,263.0,2129.471
2129481.0,249.0,32.0,4.0,259.0,2129.481
2129491.0,248.0,33.0,3.0,256.0,2129.491
2129501.0,239.0,32.0,3.0,245.0,2129.501
2129511.0,243.0,32.0,4.0,253.0,2129.511
2129521.0,254.0,33.0,4.0,262.0,2129.521
2129531.0,246.0,32.0,4.0,259.0,2129.531
2129541.0,244.0,32.0,5.0,258.0,2129.541
2129551.0,241.0,33.0,4.0,250.0,2129.551
2129561.0,247.0,32.0,4.0,261.0,2129.561
2129571.0,255.0,33.0,3.0,272.0,2129.571
2129581.0,252.0,32.0,5.0,269.0,2129.581
2129591.0,248.0,33.0,4.0,267.0,2129.591
2129601.0,237.0,33.0,4.0,255.0,2129.601
2129611.0,247.0,33.0,4.0,267.0,2129.611
2129622.0,251.0,33.0,3.0,271.0,2129.622
2129632.0,244.0,32.0,3.0,267.0,2129.632
2129642.0,244.0,32.0,4.0,264.0,2129.642
2129652.0,240.0,33.0,4.0,260.0,2129.652
2129662.0,249.0,32.0,4.0,268.0,2129.662
2129672.0,255.0,33.0,3.0,271.0,2129.672
2129682.0,248.0,33.0,3.0,263.0,2129.682
2129692.0,250.0,32.0,4.0,262.0,2129.692
2129702.0,251.0,32.0,4.0,260.0,2129.702
2129712.0,253.0,32.0,4.0,261.0,2129.712
2129722.0,256.0,33.0,4.0,264.0,2129.722
2129732.0,252.0,32.0,4.0,256.0,2129.732
2129742.0,250.0,33.0,3.0,258.0,2129.742
2129752.0,242.0,32.0,4.0,250.0,2129.752
2129762.0,252.0,32.0,4.0,261.0,2129.762
2129772.0,254.0,33.0,5.0,265.0,2129.772
2129782.0,245.0,32.0,4.0,253.0,2129.782
2129792.0,244.0,32.0,5.0,251.0,2129.792
2129802.0,233.0,33.0,4.0,247.0,2129.802
2129812.0,248.0,32.0,3.0,258.0,2129.812
2129822.0,253.0,32.0,3.0,256.0,2129.822
2129832.0,240.0,32.0,4.0,246.0,2129.832
2129842.0,235.0,32.0,3.0,245.0,2129.842
2129852.0,229.0,32.0,4.0,240.0,2129.852
2129862.0,232.0,32.0,4.0,249.0,2129.862
2129872.0,237.0,33.0,3.0,247.0,2129.872
2129882.0,229.0,32.0,4.0,239.0,2129.882
2129892.0,233.0,33.0,4.0,244.0,2129.892
2129902.0,229.0,32.0,5.0,244.0,2129.902
2129912.0,236.0,32.0,4.0,257.0,2129.912
2129922.0,245.0,33.0,4.0,258.0,2129.922
2129932.0,239.0,32.0,3.0,254.0,2129.932
2129942.0,242.0,33.0,3.0,254.0,2129.942
2129952.0,238.0,33.0,4.0,256.0,2129.952
2129963.0,242.0,33.0,2.0,262.0,2129.963
2129973.0,244.0,33.0,4.0,259.0,2129.973
2129983.0,236.0,32.0,4.0,253.0,2129.983
2129993.0,240.0,32.0,4.0,256.0,2129.993
2130003.0,246.0,33.0,3.0,257.0,2130.003
2130013.0,245.0,33.0,4.0,255.0,2130.013
2130023.0,248.0,32.0,4.0,251.0,2130.023
2130033.0,238.0,32.0,5.0,243.0,2130.033
2130043.0,244.0,32.0,4.0,254.0,2130.043
2130053.0,245.0,33.0,4.0,259.0,2130.053
2130063.0,251.0,33.0,3.0,264.0,2130.063
2130073.0,253.0,32.0,4.0,256.0,2130.073
2130083.0,240.0,32.0,4.0,245.0,2130.083
2130093.0,246.0,32.0,4.0,247.0,2130.093
2130103.0,244.0,32.0,4.0,253.0,2130.103
2130113.0,246.0,32.0,3.0,256.0,2130.113
2130123.0,245.0,33.0,3.0,255.0,2130.123
2130134.0,242.0,32.0,3.0,244.0,2130.134
2130144.0,243.0,32.0,4.0,253.0,2130.144
2130154.0,254.0,33.0,2.0,255.0,2130.154
2130164.0,249.0,31.0,4.0,250.0,2130.164
2130174.0,246.0,33.0,4.0,248.0,2130.174
2130184.0,238.0,33.0,4.0,239.0,2130.184
2130194.0,241.0,33.0,3.0,246.0,2130.194
2130204.0,246.0,32.0,4.0,257.0,2130.204
2130214.0,240.0,32.0,3.0,255.0,2130.214
2130224.0,246.0,32.0,4.0,255.0,2130.224
2130234.0,234.0,32.0,4.0,246.0,2130.234
2130244.0,245.0,32.0,4.0,264.0,2130.244
2130254.0,252.0,34.0,3.0,268.0,2130.254
2130264.0,244.0,32.0,4.0,260.0,2130.264
2130274.0,241.0,33.0,3.0,259.0,2130.274
2130284.0,232.0,32.0,5.0,253.0,2130.284
2130294.0,239.0,33.0,3.0,262.0,2130.294
2130304.0,247.0,32.0,4.0,264.0,2130.304
2130314.0,243.0,32.0,4.0,258.0,2130.314
2130324.0,243.0,33.0,3.0,258.0,2130.324
2130334.0,235.0,32.0,4.0,251.0,2130.334
2130344.0,242.0,33.0,4.0,259.0,2130.344
2130354.0,245.0,32.0,4.0,262.0,2130.354
2130364.0,242.0,32.0,4.0,260.0,2130.364
2130374.0,245.0,33.0,4.0,259.0,2130.374
2130384.0,241.0,34.0,4.0,256.0,2130.384
2130394.0,239.0,33.0,4.0,257.0,2130.394
2130404.0,246.0,33.0,3.0,261.0,2130.404
2130414.0,241.0,32.0,5.0,255.0,2130.414
2130424.0,240.0,32.0,4.0,256.0,2130.424
2130434.0,232.0,32.0,5.0,249.0,2130.434
2130444.0,233.0,33.0,4.0,257.0,2130.444
2130454.0,239.0,32.0,4.0,264.0,2130.454
2130464.0,236.0,32.0,3.0,256.0,2130.464
2130475.0,237.0,33.0,4.0,254.0,2130.475
2130485.0,231.0,33.0,4.0,252.0,2130.485
2130495.0,238.0,33.0,3.0,260.0,2130.495
2130505.0,240.0,33.0,3.0,258.0,2130.505
2130515.0,229.0,32.0,3.0,250.0,2130.515
2130525.0,234.0,33.0,3.0,252.0,2130.525
2130535.0,229.0,32.0,4.0,249.0,2130.535
2130545.0,236.0,31.0,5.0,258.0,2130.545
2130555.0,239.0,33.0,4.0,259.0,2130.555
2130565.0,233.0,31.0,4.0,255.0,2130.565
2130575.0,233.0,33.0,3.0,255.0,2130.575
2130585.0,232.0,32.0,4.0,255.0,2130.585
2130595.0,235.0,32.0,4.0,259.0,2130.595
2130605.0,238.0,32.0,3.0,261.0,2130.605
2130615.0,230.0,33.0,2.0,254.0,2130.615
2130625.0,233.0,33.0,4.0,253.0,2130.625
2130635.0,236.0,33.0,3.0,256.0,2130.635
2130646.0,240.0,32.0,3.0,258.0,2130.646
2130656.0,239.0,33.0,4.0,256.0,2130.656
2130666.0,228.0,33.0,2.0,248.0,2130.666
2130676.0,232.0,31.0,3.0,253.0,2130.676
2130686.0,238.0,32.0,4.0,258.0,2130.686
2130696.0,238.0,31.0,4.0,258.0,2130.696
2130706.0,237.0,34.0,3.0,254.0,2130.706
2130716.0,230.0,32.0,4.0,248.0,2130.716
2130726.0,229.0,33.0,3.0,255.0,2130.726
2130736.0,233.0,32.0,4.0,259.0,2130.736
2130746.0,233.0,32.0,4.0,259.0,2130.746
2130756.0,229.0,33.0,4.0,253.0,2130.756
2130766.0,219.0,32.0,3.0,245.0,2130.766
2130776.0,222.0,32.0,4.0,244.0,2130.776
2130786.0,225.0,32.0,4.0,253.0,2130.786
2130796.0,227.0,32.0,4.0,253.0,2130.796
2130806.0,224.0,32.0,4.0,249.0,2130.806
2130816.0,220.0,32.0,5.0,243.0,2130.816
2130826.0,222.0,32.0,4.0,246.0,2130.826
2130836.0,226.0,33.0,3.0,251.0,2130.836
2130846.0,227.0,32.0,4.0,252.0,2130.846
2130856.0,223.0,32.0,5.0,251.0,2130.856
2130866.0,214.0,32.0,4.0,243.0,2130.866
2130876.0,216.0,32.0,4.0,244.0,2130.876
2130886.0,223.0,32.0,4.0,251.0,2130.886
2130896.0,223.0,33.0,3.0,248.0,2130.896
2130906.0,224.0,33.0,3.0,247.0,2130.906
2130916.0,217.0,32.0,3.0,240.0,2130.916
2130926.0,223.0,32.0,5.0,245.0,2130.926
2130936.0,229.0,32.0,4.0,253.0,2130.936
2130946.0,229.0,32.0,5.0,252.0,2130.946
2130956.0,227.0,33.0,3.0,251.0,2130.956
2130966.0,220.0,32.0,4.0,245.0,2130.966
2130976.0,223.0,32.0,4.0,252.0,2130.976
2130987.0,229.0,32.0,5.0,256.0,2130.987
2130997.0,225.0,31.0,4.0,252.0,2130.997
2131007.0,224.0,32.0,3.0,250.0,2131.007
2131017.0,216.0,32.0,4.0,244.0,2131.017
2131027.0,224.0,32.0,4.0,254.0,2131.027
2131037.0,227.0,33.0,3.0,257.0,2131.037
2131047.0,222.0,32.0,2.0,252.0,2131.047
2131057.0,224.0,33.0,4.0,251.0,2131.057
2131067.0,218.0,33.0,3.0,247.0,2131.067
2131077.0,224.0,32.0,4.0,251.0,2131.077
2131087.0,226.0,33.0,3.0,253.0,2131.087
2131097.0,217.0,32.0,4.0,246.0,2131.097
2131107.0,218.0,33.0,4.0,245.0,2131.107
2131117.0,211.0,32.0,4.0,238.0,2131.117
2131127.0,219.0,32.0,4.0,247.0,2131.127
2131137.0,224.0,32.0,3.0,252.0,2131.137
2131147.0,219.0,33.0,3.0,246.0,2131.147
2131158.0,220.0,32.0,3.0,246.0,2131.158
2131168.0,217.0,32.0,4.0,245.0,2131.168
2131178.0,224.0,32.0,4.0,249.0,2131.178
2131188.0,226.0,33.0,4.0,247.0,2131.188
2131198.0,220.0,32.0,4.0,240.0,2131.198
2131208.0,224.0,32.0,4.0,245.0,2131.208
2131218.0,222.0,33.0,3.0,246.0,2131.218
2131228.0,226.0,32.0,4.0,249.0,2131.228
2131238.0,225.0,33.0,4.0,248.0,2131.238
2131248.0,220.0,32.0,3.0,243.0,2131.248
2131258.0,220.0,32.0,4.0,244.0,2131.258
2131268.0,222.0,32.0,4.0,247.0,2131.268
2131278.0,225.0,33.0,3.0,249.0,2131.278
2131288.0,226.0,33.0,3.0,249.0,2131.288
2131298.0,218.0,32.0,3.0,242.0,2131.298
2131308.0,222.0,33.0,5.0,244.0,2131.308
2131318.0,221.0,32.0,4.0,246.0,2131.318
2131328.0,225.0,33.0,4.0,251.0,2131.328
2131338.0,226.0,32.0,3.0,252.0,2131.338
2131348.0,218.0,32.0,3.0,242.0,2131.348
2131358.0,220.0,32.0,4.0,243.0,2131.358
2131368.0,225.0,33.0,4.0,248.0,2131.368
2131378.0,226.0,32.0,4.0,249.0,2131.378
2131388.0,227.0,33.0,4.0,246.0,2131.388
2131398.0,219.0,33.0,4.0,239.0,2131.398
2131408.0,221.0,33.0,3.0,242.0,2131.408
2131418.0,224.0,33.0,4.0,244.0,2131.418
2131428.0,229.0,33.0,4.0,248.0,2131.428
2131438.0,230.0,33.0,5.0,246.0,2131.438
2131448.0,220.0,32.0,4.0,237.0,2131.448
2131458.0,224.0,32.0,5.0,241.0,2131.458
2131468.0,222.0,34.0,3.0,245.0,2131.468
2131478.0,226.0,32.0,4.0,246.0,2131.478
2131488.0,225.0,33.0,4.0,244.0,2131.488
2131499.0,217.0,32.0,4.0,237.0,2131.499
2131509.0,218.0,32.0,3.0,243.0,2131.509
2131519.0,223.0,33.0,4.0,249.0,2131.519
2131529.0,220.0,32.0,3.0,246.0,2131.529
2131539.0,216.0,32.0,3.0,245.0,2131.539
2131549.0,209.0,33.0,3.0,239.0,2131.549
2131559.0,213.0,33.0,5.0,243.0,2131.559
2131569.0,222.0,32.0,4.0,251.0,2131.569
2131579.0,218.0,32.0,4.0,246.0,2131.579
2131589.0,221.0,33.0,4.0,247.0,2131.589
2131599.0,211.0,33.0,3.0,238.0,2131.599
2131609.0,217.0,32.0,4.0,243.0,2131.609
2131619.0,223.0,33.0,3.0,251.0,2131.619
2131629.0,221.0,32.0,4.0,247.0,2131.629
2131639.0,220.0,33.0,3.0,245.0,2131.639
2131649.0,212.0,32.0,3.0,236.0,2131.649
2131659.0,215.0,34.0,3.0,245.0,2131.659
2131670.0,222.0,33.0,4.0,249.0,2131.67
2131680.0,216.0,32.0,3.0,243.0,2131.68
2131690.0,217.0,33.0,5.0,244.0,2131.69
2131700.0,212.0,33.0,4.0,243.0,2131.7
2131710.0,219.0,33.0,4.0,250.0,2131.71
2131720.0,222.0,33.0,4.0,251.0,2131.72
2131730.0,217.0,32.0,3.0,244.0,2131.73
2131740.0,217.0,32.0,4.0,244.0,2131.74
2131750.0,214.0,33.0,4.0,242.0,2131.75
2131760.0,220.0,32.0,4.0,246.0,2131.76
2131770.0,224.0,33.0,4.0,249.0,2131.77
2131780.0,218.0,33.0,4.0,241.0,2131.78
2131790.0,219.0,33.0,3.0,241.0,2131.79
2131800.0,213.0,32.0,4.0,236.0,2131.8
2131810.0,220.0,33.0,4.0,246.0,2131.81
2131820.0,226.0,33.0,5.0,248.0,2131.82
2131830.0,218.0,32.0,2.0,241.0,2131.83
2131840.0,221.0,32.0,5.0,243.0,2131.84
2131850.0,214.0,33.0,3.0,239.0,2131.85
2131860.0,222.0,32.0,4.0,246.0,2131.86
2131870.0,225.0,32.0,4.0,248.0,2131.87
2131880.0,220.0,32.0,4.0,240.0,2131.88
2131890.0,224.0,32.0,4.0,243.0,2131.89
2131900.0,217.0,32.0,4.0,240.0,2131.9
2131910.0,224.0,33.0,3.0,249.0,2131.91
2131920.0,226.0,33.0,3.0,248.0,2131.92
2131930.0,219.0,32.0,4.0,241.0,2131.93
2131940.0,220.0,32.0,4.0,241.0,2131.94
2131950.0,216.0,32.0,5.0,238.0,2131.95
2131960.0,221.0,33.0,3.0,246.0,2131.96
2131970.0,226.0,33.0,4.0,247.0,2131.97
2131980.0,219.0,33.0,3.0,241.0,2131.98
2131990.0,223.0,32.0,3.0,240.0,2131.99
2132000.0,219.0,33.0,3.0,240.0,2132.0
2132011.0,225.0,32.0,4.0,246.0,2132.011
2132021.0,225.0,33.0,2.0,247.0,2132.021
2132031.0,216.0,32.0,4.0,237.0,2132.031
2132041.0,219.0,32.0,4.0,240.0,2132.041
2132051.0,223.0,32.0,4.0,248.0,2132.051
2132061.0,224.0,33.0,3.0,249.0,2132.061
2132071.0,224.0,33.0,4.0,248.0,2132.071
2132081.0,215.0,31.0,3.0,239.0,2132.081
2132091.0,216.0,33.0,4.0,243.0,2132.091
2132101.0,219.0,32.0,4.0,246.0,2132.101
2132111.0,222.0,33.0,3.0,250.0,2132.111
2132121.0,223.0,32.0,4.0,247.0,2132.121
2132131.0,214.0,32.0,4.0,239.0,2132.131
2132141.0,219.0,32.0,4.0,244.0,2132.141
2132151.0,220.0,33.0,4.0,247.0,2132.151
2132161.0,221.0,32.0,3.0,250.0,2132.161
2132171.0,222.0,34.0,3.0,246.0,2132.171
2132182.0,213.0,32.0,4.0,238.0,2132.182
2132192.0,217.0,32.0,3.0,245.0,2132.192
2132202.0,222.0,33.0,4.0,251.0,2132.202
2132212.0,213.0,32.0,4.0,245.0,2132.212
2132222.0,214.0,32.0,4.0,243.0,2132.222
2132232.0,208.0,32.0,4.0,237.0,2132.232
2132242.0,213.0,33.0,3.0,246.0,2132.242
2132252.0,220.0,32.0,4.0,250.0,2132.252
2132262.0,214.0,33.0,5.0,243.0,2132.262
2132272.0,217.0,32.0,4.0,244.0,2132.272
2132282.0,208.0,32.0,3.0,236.0,2132.282
2132292.0,215.0,33.0,4.0,245.0,2132.292
2132302.0,220.0,34.0,3.0,251.0,2132.302
2132312.0,218.0,33.0,4.0,248.0,2132.312
2132322.0,219.0,33.0,4.0,245.0,2132.322
2132332.0,211.0,32.0,4.0,238.0,2132.332
2132342.0,218.0,32.0,4.0,246.0,2132.342
2132352.0,222.0,33.0,5.0,249.0,2132.352
2132362.0,219.0,33.0,3.0,247.0,2132.362
2132372.0,220.0,33.0,3.0,245.0,2132.372
2132382.0,210.0,33.0,3.0,238.0,2132.382
2132392.0,218.0,32.0,4.0,249.0,2132.392
2132402.0,222.0,33.0,3.0,251.0,2132.402
2132412.0,217.0,32.0,4.0,247.0,2132.412
2132422.0,218.0,33.0,4.0,245.0,2132.422
2132432.0,210.0,33.0,3.0,240.0,2132.432
2132442.0,210.0,33.0,3.0,246.0,2132.442
2132452.0,217.0,33.0,4.0,250.0,2132.452
2132462.0,213.0,32.0,4.0,246.0,2132.462
2132472.0,214.0,33.0,3.0,244.0,2132.472
2132482.0,208.0,32.0,5.0,238.0,2132.482
2132492.0,213.0,33.0,3.0,247.0,2132.492
2132502.0,220.0,32.0,4.0,250.0,2132.502
2132512.0,215.0,33.0,4.0,247.0,2132.512
2132523.0,218.0,33.0,5.0,246.0,2132.523
2132533.0,216.0,33.0,2.0,244.0,2132.533
2132543.0,224.0,33.0,4.0,251.0,2132.543
2132553.0,227.0,34.0,3.0,252.0,2132.553
2132563.0,216.0,32.0,4.0,243.0,2132.563
2132573.0,220.0,35.0,3.0,246.0,2132.573
2132583.0,216.0,33.0,4.0,245.0,2132.583
2132593.0,222.0,33.0,3.0,251.0,2132.593
2132603.0,224.0,33.0,4.0,250.0,2132.603
2132613.0,217.0,33.0,4.0,245.0,2132.613
2132623.0,218.0,34.0,3.0,244.0,2132.623
2132633.0,217.0,33.0,4.0,245.0,2132.633
2132643.0,221.0,33.0,4.0,251.0,2132.643
2132653.0,227.0,34.0,3.0,251.0,2132.653
2132663.0,217.0,33.0,4.0,244.0,2132.663
2132673.0,219.0,33.0,4.0,244.0,2132.673
2132683.0,219.0,34.0,3.0,248.0,2132.683
2132694.0,223.0,32.0,4.0,251.0,2132.694
2132704.0,223.0,34.0,3.0,247.0,2132.704
2132714.0,215.0,33.0,4.0,240.0,2132.714
2132724.0,219.0,34.0,4.0,243.0,2132.724
2132734.0,225.0,33.0,4.0,249.0,2132.734
2132744.0,222.0,34.0,4.0,249.0,2132.744
2132754.0,222.0,33.0,4.0,245.0,2132.754
2132764.0,212.0,33.0,3.0,238.0,2132.764
2132774.0,217.0,33.0,4.0,243.0,2132.774
2132784.0,220.0,33.0,4.0,245.0,2132.784
2132794.0,222.0,33.0,3.0,247.0,2132.794
2132804.0,221.0,33.0,3.0,245.0,2132.804
2132814.0,213.0,34.0,3.0,236.0,2132.814
2132824.0,217.0,33.0,4.0,241.0,2132.824
2132834.0,220.0,34.0,4.0,247.0,2132.834
2132844.0,221.0,33.0,4.0,247.0,2132.844
2132854.0,220.0,34.0,4.0,244.0,2132.854
2132864.0,215.0,33.0,4.0,240.0,2132.864
2132874.0,216.0,34.0,3.0,244.0,2132.874
2132884.0,221.0,33.0,4.0,248.0,2132.884
2132894.0,220.0,33.0,3.0,248.0,2132.894
2132904.0,220.0,33.0,4.0,246.0,2132.904
2132914.0,212.0,33.0,3.0,241.0,2132.914
2132924.0,215.0,33.0,4.0,244.0,2132.924
2132934.0,221.0,34.0,3.0,252.0,2132.934
2132944.0,219.0,33.0,4.0,248.0,2132.944
2132954.0,221.0,34.0,3.0,249.0,2132.954
2132964.0,213.0,33.0,4.0,240.0,2132.964
2132974.0,217.0,33.0,4.0,246.0,2132.974
2132984.0,223.0,34.0,3.0,250.0,2132.984
2132994.0,223.0,33.0,4.0,249.0,2132.994
2133004.0,226.0,34.0,3.0,246.0,2133.004
2133014.0,216.0,32.0,4.0,238.0,2133.014
2133024.0,219.0,33.0,3.0,245.0,2133.024
2133035.0,226.0,33.0,5.0,250.0,2133.035
2133045.0,221.0,33.0,3.0,246.0,2133.045
2133055.0,221.0,33.0,4.0,245.0,2133.055
2133065.0,214.0,34.0,3.0,240.0,2133.065
2133075.0,222.0,32.0,4.0,248.0,2133.075
2133085.0,225.0,34.0,3.0,251.0,2133.085
2133095.0,220.0,33.0,4.0,245.0,2133.095
2133105.0,217.0,33.0,4.0,243.0,2133.105
2133115.0,210.0,33.0,4.0,240.0,2133.115
2133125.0,215.0,33.0,4.0,247.0,2133.125
2133135.0,221.0,34.0,3.0,250.0,2133.135
2133145.0,216.0,32.0,4.0,245.0,2133.145
2133155.0,217.0,34.0,4.0,244.0,2133.155
2133165.0,211.0,32.0,4.0,237.0,2133.165
2133175.0,218.0,33.0,4.0,247.0,2133.175
2133185.0,224.0,33.0,3.0,251.0,2133.185
2133195.0,216.0,33.0,3.0,244.0,2133.195
2133206.0,218.0,32.0,3.0,243.0,2133.206
2133216.0,215.0,33.0,4.0,242.0,2133.216
2133226.0,221.0,33.0,5.0,249.0,2133.226
2133236.0,219.0,34.0,4.0,246.0,2133.236
2133246.0,209.0,33.0,4.0,239.0,2133.246
2133256.0,214.0,33.0,4.0,242.0,2133.256
2133266.0,213.0,33.0,4.0,244.0,2133.266
2133276.0,219.0,33.0,3.0,249.0,2133.276
2133286.0,221.0,33.0,4.0,245.0,2133.286
2133296.0,214.0,32.0,4.0,240.0,2133.296
2133306.0,215.0,33.0,4.0,241.0,2133.306
2133316.0,217.0,33.0,4.0,245.0,2133.316
2133326.0,220.0,33.0,3.0,248.0,2133.326
2133336.0,223.0,33.0,4.0,248.0,2133.336
2133346.0,215.0,33.0,4.0,241.0,2133.346
2133356.0,218.0,33.0,5.0,242.0,2133.356
2133366.0,218.0,33.0,4.0,246.0,2133.366
2133376.0,218.0,33.0,5.0,249.0,2133.376
2133386.0,219.0,34.0,3.0,249.0,2133.386
2133396.0,211.0,32.0,4.0,240.0,2133.396
2133406.0,213.0,33.0,3.0,242.0,2133.406
2133416.0,216.0,33.0,3.0,247.0,2133.416
2133426.0,220.0,33.0,4.0,247.0,2133.426
2133436.0,222.0,33.0,4.0,245.0,2133.436
2133446.0,213.0,33.0,3.0,238.0,2133.446
2133456.0,216.0,32.0,3.0,240.0,2133.456
2133466.0,215.0,33.0,4.0,243.0,2133.466
2133476.0,221.0,33.0,5.0,248.0,2133.476
2133486.0,223.0,33.0,4.0,246.0,2133.486
2133496.0,212.0,32.0,4.0,238.0,2133.496
2133506.0,217.0,33.0,4.0,242.0,2133.506
2133516.0,216.0,33.0,3.0,244.0,2133.516
2133526.0,222.0,32.0,4.0,247.0,2133.526
2133536.0,221.0,33.0,3.0,244.0,2133.536
2133547.0,215.0,33.0,4.0,237.0,2133.547
2133557.0,217.0,32.0,4.0,241.0,2133.557
2133567.0,223.0,32.0,4.0,247.0,2133.567
2133577.0,221.0,34.0,3.0,245.0,2133.577
2133587.0,221.0,32.0,3.0,242.0,2133.587
2133597.0,216.0,32.0,3.0,238.0,2133.597
2133607.0,215.0,33.0,5.0,243.0,2133.607
2133617.0,221.0,33.0,3.0,249.0,2133.617
2133627.0,218.0,32.0,4.0,246.0,2133.627
2133637.0,220.0,33.0,3.0,246.0,2133.637
2133647.0,211.0,32.0,3.0,238.0,2133.647
2133657.0,216.0,32.0,4.0,245.0,2133.657
2133667.0,223.0,33.0,4.0,252.0,2133.667
2133677.0,221.0,33.0,3.0,250.0,2133.677
2133687.0,220.0,33.0,3.0,247.0,2133.687
2133697.0,212.0,32.0,4.0,239.0,2133.697
2133707.0,218.0,33.0,3.0,247.0,2133.707
2133718.0,226.0,33.0,4.0,251.0,2133.718
2133728.0,221.0,32.0,4.0,245.0,2133.728
2133738.0,222.0,33.0,5.0,244.0,2133.738
2133748.0,215.0,33.0,4.0,241.0,2133.748
2133758.0,223.0,33.0,3.0,250.0,2133.758
2133768.0,225.0,32.0,4.0,250.0,2133.768
2133778.0,219.0,32.0,4.0,242.0,2133.778
2133788.0,220.0,33.0,3.0,243.0,2133.788
2133798.0,217.0,32.0,5.0,242.0,2133.798
2133808.0,220.0,32.0,4.0,247.0,2133.808
2133818.0,226.0,33.0,3.0,249.0,2133.818
2133828.0,219.0,33.0,3.0,244.0,2133.828
2133838.0,219.0,33.0,4.0,244.0,2133.838
2133848.0,214.0,32.0,4.0,239.0,2133.848
2133858.0,221.0,32.0,4.0,248.0,2133.858
2133868.0,226.0,33.0,4.0,249.0,2133.868
2133878.0,218.0,32.0,4.0,243.0,2133.878
2133888.0,221.0,33.0,4.0,245.0,2133.888
2133898.0,214.0,33.0,3.0,241.0,2133.898
2133908.0,223.0,32.0,4.0,250.0,2133.908
2133918.0,224.0,33.0,4.0,250.0,2133.918
2133928.0,215.0,33.0,4.0,243.0,2133.928
2133938.0,218.0,32.0,4.0,245.0,2133.938
2133948.0,213.0,32.0,4.0,240.0,2133.948
2133958.0,221.0,33.0,3.0,250.0,2133.958
2133968.0,222.0,32.0,4.0,247.0,2133.968
2133978.0,216.0,33.0,4.0,244.0,2133.978
2133988.0,217.0,32.0,4.0,243.0,2133.988
2133998.0,214.0,32.0,4.0,241.0,2133.998
2134008.0,221.0,32.0,3.0,248.0,2134.008
2134018.0,224.0,33.0,4.0,249.0,2134.018
2134028.0,218.0,33.0,3.0,242.0,2134.028
2134038.0,221.0,32.0,3.0,242.0,2134.038
2134048.0,217.0,32.0,4.0,242.0,2134.048
2134059.0,224.0,31.0,5.0,248.0,2134.059
2134069.0,225.0,33.0,3.0,247.0,2134.069
2134079.0,216.0,32.0,4.0,238.0,2134.079
2134089.0,218.0,33.0,4.0,241.0,2134.089
2134099.0,223.0,32.0,4.0,247.0,2134.099
2134109.0,223.0,33.0,3.0,247.0,2134.109
2134119.0,223.0,33.0,5.0,245.0,2134.119
2134129.0,214.0,32.0,4.0,238.0,2134.129
2134139.0,217.0,32.0,4.0,241.0,2134.139
2134149.0,218.0,33.0,3.0,244.0,2134.149
2134159.0,224.0,32.0,4.0,247.0,2134.159
2134169.0,227.0,32.0,3.0,244.0,2134.169
2134179.0,218.0,33.0,4.0,237.0,2134.179
2134189.0,221.0,32.0,4.0,242.0,2134.189
2134199.0,222.0,33.0,3.0,245.0,2134.199
2134209.0,224.0,32.0,4.0,247.0,2134.209
2134219.0,223.0,33.0,3.0,244.0,2134.219
2134230.0,215.0,32.0,4.0,236.0,2134.23
2134240.0,219.0,32.0,4.0,243.0,2134.24
2134250.0,226.0,33.0,4.0,247.0,2134.25
2134260.0,220.0,33.0,4.0,243.0,2134.26
2134270.0,221.0,33.0,3.0,241.0,2134.27
2134280.0,213.0,33.0,3.0,236.0,2134.28
2134290.0,218.0,32.0,3.0,244.0,2134.29
2134300.0,223.0,33.0,4.0,249.0,2134.3
2134310.0,221.0,32.0,5.0,244.0,2134.31
2134320.0,224.0,32.0,4.0,244.0,2134.32
2134330.0,214.0,33.0,4.0,236.0,2134.33
2134340.0,221.0,33.0,4.0,247.0,2134.34
2134350.0,225.0,33.0,4.0,248.0,2134.35
2134360.0,222.0,33.0,3.0,246.0,2134.36
2134370.0,221.0,33.0,5.0,242.0,2134.37
2134380.0,213.0,31.0,4.0,235.0,2134.38
2134390.0,220.0,33.0,4.0,245.0,2134.39
2134400.0,223.0,33.0,4.0,247.0,2134.4
2134410.0,219.0,33.0,3.0,244.0,2134.41
2134420.0,219.0,32.0,4.0,241.0,2134.42
2134430.0,210.0,33.0,3.0,235.0,2134.43
2134440.0,219.0,33.0,4.0,244.0,2134.44
2134450.0,222.0,33.0,3.0,247.0,2134.45
2134460.0,221.0,32.0,4.0,243.0,2134.46
2134470.0,223.0,33.0,3.0,243.0,2134.47
2134480.0,216.0,32.0,4.0,236.0,2134.48
2134490.0,220.0,33.0,3.0,242.0,2134.49
2134500.0,225.0,32.0,5.0,247.0,2134.5
2134510.0,220.0,33.0,4.0,242.0,2134.51
2134520.0,219.0,33.0,4.0,241.0,2134.52
2134530.0,212.0,31.0,4.0,234.0,2134.53
2134540.0,217.0,32.0,3.0,241.0,2134.54
2134550.0,222.0,33.0,4.0,245.0,2134.55
2134560.0,217.0,32.0,4.0,240.0,2134.56
2134571.0,216.0,33.0,4.0,240.0,2134.571
2134581.0,211.0,33.0,3.0,238.0,2134.581
2134591.0,219.0,32.0,4.0,245.0,2134.591
2134601.0,221.0,33.0,3.0,245.0,2134.601
2134611.0,214.0,32.0,4.0,236.0,2134.611
2134621.0,216.0,33.0,3.0,239.0,2134.621
2134631.0,214.0,31.0,4.0,238.0,2134.631
2134641.0,218.0,32.0,4.0,245.0,2134.641
2134651.0,220.0,33.0,4.0,242.0,2134.651
2134661.0,214.0,33.0,2.0,239.0,2134.661
2134671.0,215.0,32.0,4.0,239.0,2134.671
2134681.0,213.0,32.0,4.0,238.0,2134.681
2134691.0,219.0,32.0,5.0,243.0,2134.691
2134701.0,220.0,32.0,4.0,243.0,2134.701
2134711.0,214.0,32.0,4.0,237.0,2134.711
2134721.0,215.0,33.0,3.0,237.0,2134.721
2134731.0,214.0,33.0,3.0,239.0,2134.731
2134742.0,214.0,32.0,4.0,241.0,2134.742
2134752.0,214.0,33.0,4.0,240.0,2134.752
2134762.0,208.0,32.0,4.0,232.0,2134.762
2134772.0,210.0,32.0,3.0,236.0,2134.772
2134782.0,216.0,33.0,3.0,243.0,2134.782
2134792.0,216.0,32.0,3.0,242.0,2134.792
2134802.0,216.0,32.0,3.0,239.0,2134.802
2134812.0,208.0,32.0,4.0,231.0,2134.812
2134822.0,213.0,32.0,5.0,236.0,2134.822
2134832.0,216.0,33.0,3.0,240.0,2134.832
2134842.0,218.0,32.0,4.0,240.0,2134.842
2134852.0,217.0,33.0,3.0,238.0,2134.852
2134862.0,209.0,32.0,4.0,230.0,2134.862
2134872.0,212.0,33.0,4.0,235.0,2134.872
2134882.0,216.0,33.0,3.0,240.0,2134.882
2134892.0,218.0,31.0,4.0,239.0,2134.892
2134902.0,215.0,32.0,4.0,237.0,2134.902
2134912.0,212.0,33.0,4.0,232.0,2134.912
2134922.0,215.0,33.0,4.0,234.0,2134.922
2134932.0,220.0,32.0,4.0,241.0,2134.932
2134942.0,220.0,33.0,3.0,240.0,2134.942
2134952.0,220.0,33.0,5.0,237.0,2134.952
2134962.0,213.0,32.0,3.0,231.0,2134.962
2134972.0,215.0,32.0,3.0,235.0,2134.972
2134982.0,221.0,33.0,3.0,241.0,2134.982
2134992.0,220.0,32.0,4.0,238.0,2134.992
2135002.0,221.0,33.0,3.0,238.0,2135.002
2135012.0,214.0,32.0,5.0,230.0,2135.012
2135022.0,216.0,33.0,4.0,235.0,2135.022
2135032.0,221.0,33.0,3.0,241.0,2135.032
2135042.0,221.0,32.0,4.0,240.0,2135.042
2135052.0,218.0,32.0,4.0,238.0,2135.052
2135062.0,209.0,32.0,3.0,230.0,2135.062
2135072.0,212.0,32.0,4.0,237.0,2135.072
2135083.0,218.0,33.0,4.0,242.0,2135.083
2135093.0,214.0,33.0,4.0,238.0,2135.093
2135103.0,214.0,33.0,4.0,236.0,2135.103
2135113.0,208.0,33.0,3.0,231.0,2135.113
2135123.0,216.0,32.0,4.0,239.0,2135.123
2135133.0,218.0,34.0,3.0,241.0,2135.133
2135143.0,215.0,33.0,3.0,237.0,2135.143
2135153.0,214.0,33.0,4.0,235.0,2135.153
2135163.0,209.0,32.0,3.0,233.0,2135.163
2135173.0,214.0,32.0,4.0,238.0,2135.173
2135183.0,219.0,32.0,4.0,242.0,2135.183
2135193.0,217.0,33.0,3.0,237.0,2135.193
2135203.0,217.0,32.0,4.0,237.0,2135.203
2135213.0,211.0,33.0,3.0,230.0,2135.213
2135223.0,218.0,33.0,4.0,239.0,2135.223
2135233.0,222.0,33.0,4.0,243.0,2135.233
2135243.0,215.0,32.0,3.0,235.0,2135.243
2135254.0,216.0,32.0,4.0,235.0,2135.254
2135264.0,213.0,33.0,4.0,236.0,2135.264
2135274.0,220.0,31.0,4.0,241.0,2135.274
2135284.0,218.0,33.0,3.0,239.0,2135.284
2135294.0,212.0,33.0,4.0,233.0,2135.294
2135304.0,215.0,32.0,4.0,236.0,2135.304
2135314.0,214.0,32.0,3.0,237.0,2135.314
2135324.0,219.0,32.0,3.0,242.0,2135.324
2135334.0,220.0,33.0,4.0,239.0,2135.334
2135344.0,214.0,32.0,4.0,235.0,2135.344
2135354.0,214.0,33.0,4.0,234.0,2135.354
2135364.0,215.0,34.0,3.0,238.0,2135.364
2135374.0,218.0,32.0,4.0,239.0,2135.374
2135384.0,220.0,33.0,3.0,241.0,2135.384
2135394.0,214.0,32.0,4.0,233.0,2135.394
2135404.0,214.0,33.0,3.0,234.0,2135.404
2135414.0,218.0,32.0,4.0,237.0,2135.414
2135424.0,221.0,31.0,4.0,240.0,2135.424
2135434.0,221.0,33.0,3.0,239.0,2135.434
2135444.0,215.0,32.0,4.0,232.0,2135.444
2135454.0,216.0,33.0,4.0,233.0,2135.454
2135464.0,219.0,33.0,4.0,239.0,2135.464
2135474.0,220.0,33.0,3.0,240.0,2135.474
2135484.0,221.0,33.0,4.0,238.0,2135.484
2135494.0,213.0,33.0,3.0,232.0,2135.494
2135504.0,214.0,32.0,4.0,232.0,2135.504
2135514.0,214.0,33.0,3.0,235.0,2135.514
2135524.0,219.0,32.0,5.0,239.0,2135.524
2135534.0,218.0,32.0,4.0,237.0,2135.534
2135544.0,211.0,32.0,4.0,230.0,2135.544
2135554.0,214.0,32.0,4.0,234.0,2135.554
2135564.0,217.0,32.0,4.0,235.0,2135.564
2135574.0,221.0,32.0,3.0,238.0,2135.574
2135584.0,219.0,32.0,4.0,237.0,2135.584
2135595.0,212.0,31.0,3.0,230.0,2135.595
2135605.0,214.0,33.0,3.0,234.0,2135.605
2135615.0,220.0,33.0,4.0,241.0,2135.615
2135625.0,218.0,33.0,3.0,237.0,2135.625
2135635.0,217.0,32.0,4.0,236.0,2135.635
2135645.0,211.0,32.0,3.0,229.0,2135.645
2135655.0,213.0,32.0,4.0,235.0,2135.655
2135665.0,218.0,33.0,4.0,241.0,2135.665
2135675.0,216.0,32.0,4.0,236.0,2135.675
2135685.0,216.0,33.0,4.0,236.0,2135.685
2135695.0,209.0,32.0,4.0,228.0,2135.695
2135705.0,212.0,32.0,4.0,236.0,2135.705
2135715.0,220.0,33.0,3.0,241.0,2135.715
2135725.0,216.0,32.0,4.0,238.0,2135.725
2135735.0,214.0,33.0,4.0,235.0,2135.735
2135745.0,208.0,32.0,4.0,227.0,2135.745
2135755.0,213.0,32.0,3.0,235.0,2135.755
2135766.0,219.0,32.0,4.0,239.0,2135.766
2135776.0,214.0,32.0,5.0,234.0,2135.776
2135786.0,214.0,31.0,4.0,234.0,2135.786
2135796.0,210.0,32.0,3.0,232.0,2135.796
2135806.0,213.0,32.0,3.0,239.0,2135.806
2135816.0,216.0,32.0,3.0,240.0,2135.816
2135826.0,211.0,32.0,4.0,233.0,2135.826
2135836.0,212.0,32.0,4.0,234.0,2135.836
2135846.0,211.0,32.0,4.0,233.0,2135.846
2135856.0,214.0,32.0,3.0,237.0,2135.856
2135866.0,218.0,32.0,4.0,240.0,2135.866
2135876.0,214.0,33.0,3.0,234.0,2135.876
2135886.0,214.0,32.0,4.0,234.0,2135.886
2135896.0,210.0,33.0,4.0,231.0,2135.896
2135906.0,217.0,31.0,5.0,238.0,2135.906
2135916.0,220.0,33.0,4.0,240.0,2135.916
2135926.0,214.0,32.0,3.0,233.0,2135.926
2135936.0,216.0,31.0,4.0,235.0,2135.936
2135946.0,210.0,32.0,3.0,230.0,2135.946
2135956.0,218.0,32.0,4.0,239.0,2135.956
2135966.0,220.0,32.0,4.0,240.0,2135.966
2135976.0,214.0,31.0,4.0,233.0,2135.976
2135986.0,215.0,32.0,4.0,236.0,2135.986
2135996.0,211.0,32.0,4.0,232.0,2135.996
2136006.0,216.0,32.0,4.0,241.0,2136.006
2136016.0,217.0,32.0,4.0,240.0,2136.016
2136026.0,213.0,33.0,3.0,236.0,2136.026
2136036.0,214.0,32.0,5.0,235.0,2136.036
2136046.0,210.0,32.0,4.0,235.0,2136.046
2136056.0,218.0,32.0,3.0,241.0,2136.056
2136066.0,220.0,33.0,2.0,243.0,2136.066
2136076.0,215.0,32.0,3.0,236.0,2136.076
2136086.0,215.0,32.0,4.0,237.0,2136.086
2136096.0,213.0,32.0,5.0,237.0,2136.096
2136107.0,219.0,31.0,4.0,242.0,2136.107
2136117.0,219.0,33.0,3.0,240.0,2136.117
2136127.0,212.0,33.0,3.0,234.0,2136.127
2136137.0,209.0,33.0,3.0,235.0,2136.137
2136147.0,214.0,32.0,4.0,241.0,2136.147
2136157.0,215.0,33.0,3.0,242.0,2136.157
2136167.0,215.0,32.0,4.0,239.0,2136.167
2136177.0,208.0,32.0,4.0,233.0,2136.177
2136187.0,211.0,32.0,4.0,237.0,2136.187
2136197.0,214.0,32.0,4.0,239.0,2136.197
2136207.0,218.0,32.0,4.0,242.0,2136.207
2136217.0,216.0,33.0,4.0,239.0,2136.217
2136227.0,212.0,32.0,5.0,232.0,2136.227
2136237.0,214.0,33.0,3.0,236.0,2136.237
2136247.0,215.0,33.0,3.0,239.0,2136.247
2136257.0,220.0,33.0,3.0,242.0,2136.257
2136267.0,220.0,32.0,4.0,237.0,2136.267
2136278.0,212.0,32.0,3.0,230.0,2136.278
2136288.0,216.0,32.0,4.0,236.0,2136.288
2136298.0,222.0,33.0,4.0,242.0,2136.298
2136308.0,218.0,33.0,4.0,237.0,2136.308
2136318.0,217.0,33.0,3.0,237.0,2136.318
2136328.0,211.0,32.0,4.0,231.0,2136.328
2136338.0,216.0,32.0,4.0,238.0,2136.338
2136348.0,221.0,33.0,4.0,243.0,2136.348
2136358.0,218.0,32.0,4.0,237.0,2136.358
2136368.0,217.0,33.0,4.0,238.0,2136.368
2136378.0,212.0,32.0,4.0,229.0,2136.378
2136388.0,218.0,34.0,3.0,239.0,2136.388
2136398.0,223.0,32.0,4.0,242.0,2136.398
2136408.0,220.0,34.0,3.0,240.0,2136.408
2136418.0,215.0,33.0,5.0,235.0,2136.418
2136428.0,205.0,32.0,4.0,228.0,2136.428
2136438.0,213.0,33.0,4.0,237.0,2136.438
2136448.0,217.0,33.0,4.0,240.0,2136.448
2136458.0,216.0,33.0,3.0,238.0,2136.458
2136468.0,214.0,33.0,4.0,236.0,2136.468
2136478.0,208.0,33.0,4.0,231.0,2136.478
2136488.0,217.0,33.0,4.0,240.0,2136.488
2136498.0,218.0,34.0,4.0,241.0,2136.498
2136508.0,216.0,33.0,4.0,238.0,2136.508
2136518.0,215.0,33.0,4.0,237.0,2136.518
2136528.0,210.0,32.0,4.0,231.0,2136.528
2136538.0,214.0,33.0,3.0,239.0,2136.538
2136548.0,221.0,33.0,3.0,243.0,2136.548
2136558.0,218.0,32.0,2.0,238.0,2136.558
2136568.0,213.0,33.0,3.0,236.0,2136.568
2136578.0,207.0,33.0,4.0,230.0,2136.578
2136588.0,212.0,33.0,4.0,238.0,2136.588
2136598.0,218.0,33.0,4.0,241.0,2136.598
2136608.0,214.0,33.0,4.0,237.0,2136.608
2136619.0,214.0,33.0,3.0,236.0,2136.619
2136629.0,210.0,33.0,4.0,234.0,2136.629
2136639.0,217.0,33.0,3.0,243.0,2136.639
2136649.0,219.0,34.0,3.0,240.0,2136.649
2136659.0,213.0,33.0,4.0,234.0,2136.659
2136669.0,215.0,33.0,3.0,236.0,2136.669
2136679.0,213.0,33.0,4.0,235.0,2136.679
2136689.0,220.0,34.0,4.0,242.0,2136.689
2136699.0,223.0,33.0,4.0,241.0,2136.699
2136709.0,218.0,33.0,3.0,238.0,2136.709
2136719.0,217.0,34.0,4.0,238.0,2136.719
2136729.0,215.0,33.0,3.0,239.0,2136.729
2136739.0,221.0,33.0,4.0,244.0,2136.739
2136749.0,221.0,34.0,3.0,243.0,2136.749
2136759.0,215.0,33.0,3.0,237.0,2136.759
2136769.0,215.0,34.0,4.0,239.0,2136.769
2136779.0,215.0,32.0,4.0,240.0,2136.779
2136790.0,219.0,33.0,4.0,244.0,2136.79
2136800.0,218.0,34.0,4.0,241.0,2136.8
2136810.0,211.0,33.0,4.0,235.0,2136.81
2136820.0,214.0,33.0,4.0,238.0,2136.82
2136830.0,219.0,33.0,3.0,245.0,2136.83
2136840.0,216.0,34.0,4.0,243.0,2136.84
2136850.0,216.0,34.0,4.0,240.0,2136.85
2136860.0,208.0,33.0,4.0,233.0,2136.86
2136870.0,212.0,33.0,4.0,237.0,2136.87
2136880.0,214.0,33.0,4.0,241.0,2136.88
2136890.0,217.0,33.0,4.0,242.0,2136.89
2136900.0,216.0,34.0,3.0,240.0,2136.9
2136910.0,209.0,33.0,4.0,232.0,2136.91
2136920.0,213.0,34.0,3.0,236.0,2136.92
2136930.0,217.0,33.0,4.0,241.0,2136.93
2136940.0,218.0,33.0,4.0,242.0,2136.94
2136950.0,215.0,33.0,4.0,238.0,2136.95
2136960.0,212.0,33.0,4.0,234.0,2136.96
2136970.0,212.0,34.0,4.0,236.0,2136.97
2136980.0,218.0,33.0,4.0,242.0,2136.98
2136990.0,217.0,33.0,4.0,242.0,2136.99
2137000.0,216.0,33.0,4.0,239.0,2137.0
2137010.0,209.0,33.0,4.0,233.0,2137.01
2137020.0,212.0,33.0,3.0,237.0,2137.02
2137030.0,217.0,34.0,3.0,243.0,2137.03
2137040.0,216.0,32.0,4.0,240.0,2137.04
2137050.0,217.0,35.0,3.0,240.0,2137.05
2137060.0,211.0,33.0,5.0,232.0,2137.06
2137070.0,212.0,34.0,2.0,237.0,2137.07
2137080.0,220.0,33.0,4.0,243.0,2137.08
2137090.0,219.0,33.0,3.0,242.0,2137.09
2137100.0,218.0,32.0,4.0,238.0,2137.1
2137110.0,210.0,32.0,3.0,231.0,2137.11
2137120.0,218.0,34.0,5.0,237.0,2137.12
2137131.0,221.0,33.0,4.0,242.0,2137.131
2137141.0,217.0,33.0,4.0,238.0,2137.141
2137151.0,216.0,33.0,4.0,238.0,2137.151
