time (ms),signal 0,signal 1,signal 2,signal 3,time (sec)
2219679.0,218.0,32.0,241.0,240.0,2219.679
2219689.0,217.0,32.0,249.0,242.0,2219.689
2219699.0,221.0,32.0,253.0,247.0,2219.699
2219709.0,223.0,33.0,247.0,246.0,2219.709
2219719.0,217.0,31.0,249.0,240.0,2219.719
2219729.0,217.0,32.0,241.0,240.0,2219.729
2219739.0,213.0,32.0,243.0,239.0,2219.739
2219749.0,221.0,33.0,251.0,246.0,2219.749
2219759.0,224.0,32.0,244.0,246.0,2219.759
2219769.0,217.0,32.0,248.0,239.0,2219.769
2219779.0,220.0,31.0,241.0,241.0,2219.779
2219789.0,214.0,32.0,242.0,239.0,2219.789
2219799.0,222.0,32.0,248.0,246.0,2219.799
2219809.0,223.0,34.0,241.0,245.0,2219.809
2219819.0,219.0,32.0,246.0,240.0,2219.819
2219829.0,217.0,33.0,239.0,240.0,2219.829
2219839.0,217.0,32.0,243.0,239.0,2219.839
2219849.0,222.0,33.0,250.0,246.0,2219.849
2219859.0,223.0,33.0,241.0,245.0,2219.859
2219869.0,218.0,32.0,247.0,242.0,2219.869
2219879.0,218.0,32.0,240.0,242.0,2219.879
2219889.0,216.0,32.0,243.0,241.0,2219.889
2219899.0,222.0,32.0,248.0,248.0,2219.899
2219909.0,224.0,33.0,243.0,248.0,2219.909
2219919.0,218.0,33.0,244.0,242.0,2219.919
2219929.0,218.0,33.0,237.0,243.0,2219.929
2219939.0,217.0,33.0,243.0,246.0,2219.939
2219949.0,222.0,32.0,247.0,249.0,2219.949
2219959.0,224.0,33.0,243.0,250.0,2219.959
2219969.0,219.0,32.0,246.0,242.0,2219.969
2219979.0,218.0,33.0,240.0,244.0,2219.979
2219990.0,219.0,34.0,245.0,247.0,2219.99
2220000.0,222.0,34.0,249.0,251.0,2220.0
2220010.0,222.0,34.0,239.0,247.0,2220.01
2220020.0,215.0,32.0,244.0,239.0,2220.02
2220030.0,218.0,33.0,242.0,245.0,2220.03
2220040.0,220.0,33.0,247.0,248.0,2220.04
2220050.0,223.0,33.0,252.0,251.0,2220.05
2220060.0,223.0,34.0,242.0,249.0,2220.06
2220070.0,215.0,34.0,245.0,240.0,2220.07
2220080.0,219.0,33.0,242.0,244.0,2220.08
2220090.0,221.0,33.0,250.0,248.0,2220.09
2220100.0,223.0,33.0,254.0,249.0,2220.1
2220110.0,221.0,34.0,243.0,247.0,2220.11
2220120.0,216.0,33.0,250.0,242.0,2220.12
2220130.0,217.0,34.0,245.0,245.0,2220.13
2220140.0,221.0,34.0,252.0,250.0,2220.14
2220150.0,221.0,33.0,255.0,249.0,2220.15
2220160.0,225.0,34.0,247.0,248.0,2220.16
2220170.0,215.0,34.0,251.0,240.0,2220.17
2220180.0,217.0,33.0,246.0,244.0,2220.18
2220190.0,222.0,34.0,255.0,252.0,2220.19
2220200.0,222.0,34.0,257.0,249.0,2220.2
2220210.0,223.0,34.0,247.0,249.0,2220.21
2220220.0,215.0,33.0,251.0,242.0,2220.22
2220230.0,218.0,34.0,246.0,245.0,2220.23
2220240.0,224.0,33.0,254.0,252.0,2220.24
2220250.0,223.0,33.0,257.0,251.0,2220.25
2220260.0,223.0,34.0,247.0,248.0,2220.26
2220270.0,215.0,32.0,250.0,240.0,2220.27
2220280.0,218.0,34.0,247.0,244.0,2220.28
2220290.0,222.0,33.0,253.0,248.0,2220.29
2220300.0,224.0,33.0,257.0,250.0,2220.3
2220310.0,223.0,33.0,248.0,248.0,2220.31
2220320.0,216.0,34.0,251.0,241.0,2220.32
2220331.0,219.0,32.0,249.0,246.0,2220.331
2220341.0,225.0,34.0,253.0,252.0,2220.341
2220351.0,224.0,33.0,254.0,247.0,2220.351
2220361.0,221.0,34.0,244.0,246.0,2220.361
2220371.0,215.0,33.0,245.0,240.0,2220.371
2220381.0,220.0,34.0,246.0,247.0,2220.381
2220391.0,226.0,34.0,249.0,251.0,2220.391
2220401.0,222.0,33.0,249.0,248.0,2220.401
2220411.0,221.0,33.0,238.0,245.0,2220.411
2220421.0,216.0,33.0,239.0,238.0,2220.421
2220431.0,221.0,33.0,242.0,246.0,2220.431
2220441.0,226.0,33.0,244.0,252.0,2220.441
2220451.0,223.0,33.0,247.0,246.0,2220.451
2220461.0,223.0,34.0,239.0,247.0,2220.461
2220471.0,216.0,33.0,239.0,239.0,2220.471
2220481.0,224.0,33.0,246.0,248.0,2220.481
2220491.0,227.0,33.0,246.0,252.0,2220.491
2220502.0,221.0,33.0,247.0,246.0,2220.502
2220512.0,222.0,34.0,237.0,246.0,2220.512
2220522.0,219.0,32.0,240.0,244.0,2220.522
2220532.0,224.0,33.0,247.0,250.0,2220.532
2220542.0,226.0,34.0,240.0,250.0,2220.542
2220552.0,220.0,32.0,246.0,246.0,2220.552
2220562.0,221.0,33.0,241.0,247.0,2220.562
2220572.0,219.0,33.0,245.0,248.0,2220.572
2220582.0,225.0,33.0,252.0,253.0,2220.582
2220592.0,226.0,33.0,247.0,254.0,2220.592
2220602.0,221.0,32.0,250.0,248.0,2220.602
2220612.0,221.0,33.0,241.0,248.0,2220.612
2220622.0,219.0,33.0,248.0,250.0,2220.622
2220632.0,223.0,33.0,252.0,253.0,2220.632
2220642.0,225.0,33.0,247.0,253.0,2220.642
2220652.0,220.0,32.0,248.0,246.0,2220.652
2220662.0,221.0,33.0,239.0,246.0,2220.662
2220672.0,220.0,32.0,242.0,244.0,2220.672
2220682.0,227.0,32.0,250.0,254.0,2220.682
2220692.0,229.0,33.0,242.0,252.0,2220.692
2220702.0,221.0,33.0,240.0,245.0,2220.702
2220712.0,223.0,32.0,236.0,245.0,2220.712
2220722.0,219.0,33.0,238.0,244.0,2220.722
2220732.0,228.0,33.0,251.0,253.0,2220.732
2220742.0,230.0,33.0,247.0,255.0,2220.742
2220752.0,220.0,33.0,244.0,245.0,2220.752
2220762.0,223.0,33.0,239.0,247.0,2220.762
2220772.0,221.0,34.0,240.0,246.0,2220.772
2220782.0,228.0,32.0,248.0,252.0,2220.782
2220792.0,229.0,33.0,238.0,250.0,2220.792
2220802.0,226.0,33.0,240.0,247.0,2220.802
2220812.0,225.0,33.0,227.0,246.0,2220.812
2220822.0,223.0,32.0,228.0,246.0,2220.822
2220832.0,229.0,33.0,239.0,255.0,2220.832
2220843.0,230.0,33.0,243.0,257.0,2220.843
2220853.0,222.0,32.0,238.0,248.0,2220.853
2220863.0,224.0,32.0,231.0,249.0,2220.863
2220873.0,228.0,33.0,237.0,256.0,2220.873
2220883.0,224.0,32.0,234.0,252.0,2220.883
2220893.0,225.0,33.0,225.0,250.0,2220.893
2220903.0,219.0,32.0,221.0,240.0,2220.903
2220913.0,222.0,32.0,221.0,244.0,2220.913
2220923.0,227.0,33.0,229.0,252.0,2220.923
2220933.0,227.0,33.0,227.0,250.0,2220.933
2220943.0,226.0,33.0,222.0,247.0,2220.943
2220953.0,221.0,32.0,229.0,246.0,2220.953
2220963.0,226.0,33.0,232.0,254.0,2220.963
2220973.0,228.0,32.0,236.0,260.0,2220.973
2220983.0,232.0,32.0,240.0,265.0,2220.983
2220993.0,233.0,34.0,232.0,261.0,2220.993
2221003.0,222.0,33.0,229.0,257.0,2221.003
2221014.0,225.0,33.0,220.0,256.0,2221.014
2221024.0,230.0,34.0,226.0,264.0,2221.024
2221034.0,232.0,32.0,226.0,262.0,2221.034
2221044.0,232.0,33.0,216.0,250.0,2221.044
2221054.0,232.0,33.0,224.0,249.0,2221.054
2221064.0,239.0,33.0,230.0,257.0,2221.064
2221074.0,242.0,33.0,241.0,266.0,2221.074
2221084.0,238.0,33.0,236.0,266.0,2221.084
2221094.0,238.0,33.0,231.0,262.0,2221.094
2221104.0,227.0,32.0,220.0,255.0,2221.104
2221114.0,232.0,33.0,230.0,264.0,2221.114
2221124.0,232.0,33.0,225.0,257.0,2221.124
2221134.0,224.0,34.0,224.0,255.0,2221.134
2221144.0,225.0,33.0,229.0,257.0,2221.144
2221154.0,211.0,34.0,214.0,245.0,2221.154
2221164.0,221.0,32.0,214.0,242.0,2221.164
2221174.0,225.0,33.0,208.0,236.0,2221.174
2221184.0,222.0,32.0,201.0,226.0,2221.184
2221194.0,226.0,33.0,202.0,223.0,2221.194
2221204.0,215.0,32.0,188.0,209.0,2221.204
2221214.0,223.0,33.0,192.0,215.0,2221.214
2221224.0,231.0,33.0,181.0,211.0,2221.224
2221234.0,223.0,32.0,185.0,217.0,2221.234
2221244.0,222.0,33.0,179.0,214.0,2221.244
2221254.0,212.0,33.0,170.0,206.0,2221.254
2221264.0,223.0,33.0,187.0,217.0,2221.264
2221274.0,227.0,33.0,193.0,221.0,2221.274
2221284.0,224.0,33.0,201.0,231.0,2221.284
2221294.0,224.0,32.0,198.0,223.0,2221.294
2221304.0,218.0,32.0,203.0,219.0,2221.304
2221314.0,223.0,32.0,209.0,226.0,2221.314
2221324.0,228.0,33.0,228.0,245.0,2221.324
2221334.0,224.0,32.0,241.0,255.0,2221.334
2221344.0,232.0,34.0,253.0,278.0,2221.344
2221355.0,225.0,32.0,255.0,270.0,2221.355
2221365.0,233.0,33.0,259.0,274.0,2221.365
2221375.0,242.0,33.0,238.0,266.0,2221.375
2221385.0,227.0,31.0,220.0,251.0,2221.385
2221395.0,226.0,33.0,219.0,252.0,2221.395
2221405.0,226.0,33.0,227.0,250.0,2221.405
2221415.0,235.0,32.0,243.0,258.0,2221.415
2221425.0,238.0,32.0,225.0,244.0,2221.425
2221435.0,233.0,32.0,218.0,234.0,2221.435
2221445.0,240.0,32.0,227.0,246.0,2221.445
2221455.0,233.0,32.0,219.0,239.0,2221.455
2221465.0,236.0,32.0,224.0,256.0,2221.465
2221475.0,238.0,33.0,226.0,259.0,2221.475
2221485.0,229.0,32.0,244.0,255.0,2221.485
2221495.0,227.0,33.0,239.0,253.0,2221.495
2221505.0,228.0,32.0,250.0,254.0,2221.505
2221515.0,229.0,32.0,257.0,251.0,2221.515
2221526.0,229.0,32.0,254.0,249.0,2221.526
2221536.0,214.0,33.0,251.0,241.0,2221.536
2221546.0,217.0,32.0,236.0,230.0,2221.546
2221556.0,225.0,33.0,244.0,238.0,2221.556
2221566.0,226.0,32.0,248.0,240.0,2221.566
2221576.0,230.0,32.0,262.0,254.0,2221.576
2221586.0,224.0,32.0,269.0,251.0,2221.586
2221596.0,232.0,32.0,262.0,261.0,2221.596
2221606.0,244.0,33.0,263.0,266.0,2221.606
2221616.0,243.0,32.0,263.0,259.0,2221.616
2221626.0,243.0,33.0,249.0,259.0,2221.626
2221636.0,232.0,32.0,243.0,249.0,2221.636
2221646.0,230.0,32.0,250.0,259.0,2221.646
2221656.0,235.0,32.0,253.0,264.0,2221.656
2221666.0,236.0,33.0,265.0,267.0,2221.666
2221676.0,238.0,32.0,265.0,276.0,2221.676
2221686.0,226.0,32.0,265.0,262.0,2221.686
2221696.0,230.0,32.0,266.0,262.0,2221.696
2221706.0,234.0,31.0,256.0,262.0,2221.706
2221716.0,232.0,32.0,254.0,266.0,2221.716
2221726.0,231.0,33.0,239.0,261.0,2221.726
2221736.0,219.0,32.0,230.0,247.0,2221.736
2221746.0,225.0,32.0,233.0,257.0,2221.746
2221756.0,229.0,32.0,238.0,261.0,2221.756
2221766.0,227.0,31.0,235.0,262.0,2221.766
2221776.0,229.0,32.0,231.0,268.0,2221.776
2221786.0,223.0,32.0,238.0,266.0,2221.786
2221796.0,229.0,33.0,237.0,277.0,2221.796
2221806.0,234.0,32.0,246.0,284.0,2221.806
2221816.0,233.0,32.0,249.0,275.0,2221.816
2221826.0,235.0,33.0,252.0,283.0,2221.826
2221836.0,224.0,32.0,258.0,277.0,2221.836
2221846.0,229.0,33.0,265.0,272.0,2221.846
2221856.0,232.0,34.0,263.0,275.0,2221.856
2221867.0,229.0,32.0,256.0,261.0,2221.867
2221877.0,234.0,32.0,267.0,273.0,2221.877
2221887.0,236.0,32.0,287.0,284.0,2221.887
2221897.0,243.0,32.0,300.0,302.0,2221.897
2221907.0,238.0,33.0,276.0,287.0,2221.907
2221917.0,228.0,33.0,261.0,275.0,2221.917
2221927.0,223.0,33.0,253.0,262.0,2221.927
2221937.0,215.0,32.0,235.0,244.0,2221.937
2221947.0,229.0,32.0,245.0,263.0,2221.947
2221957.0,238.0,32.0,255.0,277.0,2221.957
2221967.0,237.0,32.0,273.0,278.0,2221.967
2221977.0,239.0,33.0,287.0,293.0,2221.977
2221987.0,231.0,33.0,273.0,285.0,2221.987
2221997.0,234.0,32.0,272.0,276.0,2221.997
2222007.0,235.0,33.0,289.0,275.0,2222.007
2222017.0,223.0,32.0,274.0,261.0,2222.017
2222027.0,224.0,32.0,262.0,265.0,2222.027
2222038.0,222.0,32.0,278.0,268.0,2222.038
2222048.0,235.0,33.0,293.0,278.0,2222.048
2222058.0,242.0,32.0,285.0,285.0,2222.058
2222068.0,234.0,31.0,283.0,273.0,2222.068
2222078.0,236.0,32.0,274.0,271.0,2222.078
2222088.0,236.0,32.0,275.0,272.0,2222.088
2222098.0,245.0,32.0,295.0,287.0,2222.098
2222108.0,238.0,33.0,272.0,279.0,2222.108
2222118.0,227.0,32.0,277.0,268.0,2222.118
2222128.0,229.0,32.0,284.0,271.0,2222.128
2222138.0,224.0,32.0,277.0,263.0,2222.138
2222148.0,232.0,31.0,285.0,267.0,2222.148
2222158.0,234.0,33.0,280.0,268.0,2222.158
2222168.0,228.0,32.0,283.0,259.0,2222.168
2222178.0,227.0,33.0,280.0,258.0,2222.178
2222188.0,224.0,32.0,268.0,252.0,2222.188
2222198.0,232.0,32.0,288.0,265.0,2222.198
2222208.0,239.0,33.0,305.0,266.0,2222.208
2222218.0,227.0,31.0,297.0,254.0,2222.218
2222228.0,225.0,33.0,284.0,251.0,2222.228
2222238.0,231.0,33.0,273.0,254.0,2222.238
2222248.0,232.0,33.0,278.0,256.0,2222.248
2222258.0,238.0,32.0,293.0,277.0,2222.258
2222268.0,228.0,32.0,290.0,275.0,2222.268
2222278.0,222.0,32.0,262.0,265.0,2222.278
2222288.0,224.0,32.0,262.0,273.0,2222.288
2222298.0,235.0,33.0,274.0,287.0,2222.298
2222308.0,239.0,33.0,262.0,285.0,2222.308
2222318.0,231.0,32.0,272.0,285.0,2222.318
2222328.0,227.0,32.0,269.0,285.0,2222.328
2222338.0,226.0,32.0,273.0,276.0,2222.338
2222348.0,230.0,32.0,263.0,277.0,2222.348
2222358.0,229.0,33.0,254.0,262.0,2222.358
2222368.0,219.0,33.0,249.0,252.0,2222.368
2222379.0,226.0,32.0,244.0,263.0,2222.379
2222389.0,230.0,32.0,246.0,269.0,2222.389
2222399.0,227.0,32.0,245.0,257.0,2222.399
2222409.0,226.0,33.0,249.0,266.0,2222.409
2222419.0,224.0,32.0,245.0,261.0,2222.419
2222429.0,226.0,32.0,234.0,248.0,2222.429
2222439.0,227.0,32.0,234.0,246.0,2222.439
2222449.0,230.0,32.0,240.0,249.0,2222.449
2222459.0,232.0,33.0,239.0,264.0,2222.459
2222469.0,228.0,32.0,242.0,255.0,2222.469
2222479.0,236.0,33.0,244.0,265.0,2222.479
2222489.0,243.0,32.0,253.0,277.0,2222.489
2222499.0,237.0,33.0,251.0,266.0,2222.499
2222509.0,240.0,33.0,239.0,262.0,2222.509
2222519.0,231.0,32.0,251.0,262.0,2222.519
2222529.0,233.0,32.0,261.0,271.0,2222.529
2222539.0,240.0,32.0,256.0,272.0,2222.539
2222550.0,230.0,32.0,242.0,260.0,2222.55
2222560.0,230.0,33.0,242.0,261.0,2222.56
2222570.0,228.0,32.0,237.0,253.0,2222.57
2222580.0,235.0,33.0,240.0,251.0,2222.58
2222590.0,241.0,32.0,239.0,254.0,2222.59
2222600.0,235.0,31.0,238.0,247.0,2222.6
2222610.0,236.0,32.0,234.0,245.0,2222.61
2222620.0,230.0,32.0,231.0,245.0,2222.62
2222630.0,236.0,33.0,245.0,254.0,2222.63
2222640.0,239.0,32.0,248.0,258.0,2222.64
2222650.0,233.0,32.0,244.0,250.0,2222.65
2222660.0,234.0,32.0,237.0,240.0,2222.66
2222670.0,224.0,32.0,232.0,237.0,2222.67
2222680.0,230.0,32.0,236.0,243.0,2222.68
2222690.0,237.0,33.0,241.0,251.0,2222.69
2222700.0,231.0,32.0,235.0,246.0,2222.7
2222710.0,229.0,32.0,224.0,244.0,2222.71
2222720.0,224.0,32.0,221.0,238.0,2222.72
2222730.0,230.0,31.0,232.0,251.0,2222.73
2222740.0,235.0,33.0,233.0,253.0,2222.74
2222750.0,229.0,32.0,228.0,244.0,2222.75
2222760.0,227.0,32.0,225.0,240.0,2222.76
2222770.0,222.0,30.0,221.0,232.0,2222.77
2222780.0,228.0,32.0,230.0,245.0,2222.78
2222790.0,233.0,33.0,233.0,253.0,2222.79
2222800.0,226.0,32.0,231.0,249.0,2222.8
2222810.0,226.0,32.0,228.0,248.0,2222.81
2222820.0,219.0,32.0,221.0,238.0,2222.82
2222830.0,226.0,32.0,229.0,244.0,2222.83
2222840.0,225.0,32.0,225.0,247.0,2222.84
2222850.0,221.0,31.0,224.0,243.0,2222.85
2222860.0,220.0,32.0,218.0,244.0,2222.86
2222870.0,215.0,31.0,216.0,239.0,2222.87
2222880.0,222.0,33.0,226.0,249.0,2222.88
2222891.0,226.0,32.0,227.0,252.0,2222.891
2222901.0,220.0,32.0,224.0,248.0,2222.901
2222911.0,221.0,32.0,221.0,246.0,2222.911
2222921.0,222.0,31.0,224.0,249.0,2222.921
2222931.0,226.0,33.0,230.0,254.0,2222.931
2222941.0,226.0,32.0,230.0,256.0,2222.941
2222951.0,217.0,32.0,227.0,247.0,2222.951
2222961.0,219.0,31.0,226.0,251.0,2222.961
2222971.0,221.0,32.0,232.0,259.0,2222.971
2222981.0,225.0,31.0,237.0,260.0,2222.981
2222991.0,224.0,32.0,232.0,258.0,2222.991
2223001.0,220.0,32.0,230.0,251.0,2223.001
2223011.0,219.0,32.0,227.0,255.0,2223.011
2223021.0,219.0,31.0,230.0,252.0,2223.021
2223031.0,227.0,32.0,236.0,257.0,2223.031
2223041.0,228.0,33.0,230.0,253.0,2223.041
2223051.0,222.0,31.0,226.0,244.0,2223.051
2223062.0,222.0,31.0,221.0,245.0,2223.062
2223072.0,226.0,33.0,228.0,253.0,2223.072
2223082.0,226.0,31.0,230.0,252.0,2223.082
2223092.0,226.0,32.0,223.0,251.0,2223.092
2223102.0,219.0,31.0,222.0,242.0,2223.102
2223112.0,221.0,31.0,222.0,247.0,2223.112
2223122.0,226.0,32.0,230.0,255.0,2223.122
2223132.0,225.0,32.0,233.0,253.0,2223.132
2223142.0,223.0,33.0,226.0,250.0,2223.142
2223152.0,219.0,31.0,227.0,246.0,2223.152
2223162.0,220.0,31.0,228.0,249.0,2223.162
2223172.0,227.0,31.0,237.0,255.0,2223.172
2223182.0,224.0,31.0,237.0,250.0,2223.182
2223192.0,224.0,32.0,229.0,249.0,2223.192
2223202.0,216.0,32.0,229.0,242.0,2223.202
2223212.0,217.0,32.0,232.0,248.0,2223.212
2223222.0,223.0,32.0,239.0,254.0,2223.222
2223232.0,223.0,32.0,243.0,251.0,2223.232
2223242.0,221.0,31.0,233.0,247.0,2223.242
2223252.0,214.0,32.0,232.0,239.0,2223.252
2223262.0,217.0,32.0,232.0,246.0,2223.262
2223272.0,223.0,32.0,238.0,251.0,2223.272
2223282.0,222.0,32.0,238.0,250.0,2223.282
2223292.0,221.0,32.0,229.0,248.0,2223.292
2223302.0,215.0,31.0,225.0,241.0,2223.302
2223312.0,220.0,32.0,226.0,247.0,2223.312
2223322.0,222.0,31.0,231.0,249.0,2223.322
2223332.0,222.0,33.0,232.0,250.0,2223.332
2223342.0,221.0,32.0,226.0,247.0,2223.342
2223352.0,213.0,31.0,224.0,240.0,2223.352
2223362.0,218.0,32.0,225.0,246.0,2223.362
2223372.0,222.0,32.0,233.0,252.0,2223.372
2223382.0,222.0,31.0,235.0,249.0,2223.382
2223392.0,221.0,32.0,227.0,247.0,2223.392
2223403.0,215.0,32.0,223.0,241.0,2223.403
2223413.0,223.0,32.0,229.0,250.0,2223.413
2223423.0,228.0,32.0,232.0,252.0,2223.423
2223433.0,221.0,31.0,229.0,247.0,2223.433
2223443.0,222.0,33.0,226.0,247.0,2223.443
2223453.0,215.0,32.0,222.0,242.0,2223.453
2223463.0,222.0,32.0,230.0,251.0,2223.463
2223473.0,226.0,32.0,229.0,252.0,2223.473
2223483.0,219.0,32.0,225.0,245.0,2223.483
2223493.0,222.0,32.0,222.0,248.0,2223.493
2223503.0,213.0,32.0,218.0,243.0,2223.503
2223513.0,220.0,32.0,226.0,251.0,2223.513
2223523.0,222.0,33.0,226.0,253.0,2223.523
2223533.0,215.0,32.0,225.0,250.0,2223.533
2223543.0,215.0,32.0,220.0,248.0,2223.543
2223553.0,209.0,32.0,217.0,243.0,2223.553
2223563.0,218.0,31.0,226.0,253.0,2223.563
2223574.0,222.0,32.0,227.0,254.0,2223.574
2223584.0,215.0,32.0,222.0,249.0,2223.584
2223594.0,216.0,32.0,219.0,250.0,2223.594
2223604.0,218.0,32.0,221.0,252.0,2223.604
2223614.0,221.0,32.0,226.0,255.0,2223.614
2223624.0,222.0,32.0,223.0,253.0,2223.624
2223634.0,212.0,32.0,214.0,246.0,2223.634
2223644.0,215.0,33.0,214.0,247.0,2223.644
2223654.0,218.0,32.0,219.0,251.0,2223.654
2223664.0,220.0,32.0,222.0,252.0,2223.664
2223674.0,221.0,33.0,219.0,251.0,2223.674
2223684.0,213.0,31.0,213.0,245.0,2223.684
2223694.0,214.0,32.0,212.0,248.0,2223.694
2223704.0,214.0,32.0,213.0,249.0,2223.704
2223714.0,220.0,33.0,219.0,257.0,2223.714
2223724.0,225.0,33.0,218.0,253.0,2223.724
2223734.0,215.0,32.0,210.0,248.0,2223.734
2223744.0,219.0,33.0,213.0,251.0,2223.744
2223754.0,217.0,33.0,213.0,252.0,2223.754
2223764.0,222.0,33.0,217.0,258.0,2223.764
2223774.0,223.0,33.0,215.0,252.0,2223.774
2223784.0,213.0,32.0,204.0,246.0,2223.784
2223794.0,217.0,32.0,207.0,248.0,2223.794
2223804.0,216.0,32.0,209.0,251.0,2223.804
2223814.0,221.0,32.0,213.0,255.0,2223.814
2223824.0,217.0,33.0,213.0,255.0,2223.824
2223834.0,209.0,32.0,207.0,252.0,2223.834
2223844.0,211.0,33.0,207.0,252.0,2223.844
2223854.0,212.0,32.0,210.0,254.0,2223.854
2223864.0,215.0,33.0,213.0,256.0,2223.864
2223874.0,220.0,33.0,218.0,255.0,2223.874
2223884.0,210.0,33.0,206.0,250.0,2223.884
2223894.0,213.0,33.0,208.0,249.0,2223.894
2223904.0,216.0,33.0,213.0,255.0,2223.904
2223915.0,217.0,32.0,213.0,256.0,2223.915
2223925.0,219.0,33.0,212.0,253.0,2223.925
2223935.0,213.0,32.0,203.0,248.0,2223.935
2223945.0,218.0,33.0,207.0,254.0,2223.945
2223955.0,223.0,34.0,216.0,261.0,2223.955
2223965.0,220.0,33.0,210.0,259.0,2223.965
2223975.0,219.0,34.0,209.0,254.0,2223.975
2223985.0,210.0,32.0,198.0,249.0,2223.985
2223995.0,216.0,33.0,204.0,254.0,2223.995
2224005.0,221.0,33.0,213.0,258.0,2224.005
2224015.0,218.0,33.0,209.0,258.0,2224.015
2224025.0,218.0,33.0,209.0,253.0,2224.025
2224035.0,209.0,34.0,197.0,249.0,2224.035
2224045.0,210.0,32.0,202.0,251.0,2224.045
2224055.0,216.0,33.0,211.0,260.0,2224.055
2224065.0,216.0,32.0,207.0,259.0,2224.065
2224075.0,215.0,33.0,208.0,255.0,2224.075
2224086.0,207.0,33.0,196.0,251.0,2224.086
2224096.0,215.0,33.0,205.0,261.0,2224.096
2224106.0,220.0,34.0,212.0,262.0,2224.106
2224116.0,214.0,32.0,201.0,258.0,2224.116
2224126.0,217.0,33.0,204.0,257.0,2224.126
2224136.0,210.0,33.0,195.0,253.0,2224.136
2224146.0,214.0,32.0,206.0,263.0,2224.146
2224156.0,220.0,33.0,212.0,263.0,2224.156
2224166.0,211.0,33.0,201.0,257.0,2224.166
2224176.0,216.0,32.0,206.0,256.0,2224.176
2224186.0,208.0,32.0,197.0,256.0,2224.186
2224196.0,217.0,33.0,207.0,266.0,2224.196
2224206.0,221.0,34.0,212.0,264.0,2224.206
2224216.0,216.0,32.0,204.0,262.0,2224.216
2224226.0,219.0,34.0,205.0,261.0,2224.226
2224236.0,211.0,32.0,198.0,256.0,2224.236
2224246.0,220.0,32.0,209.0,265.0,2224.246
2224256.0,224.0,33.0,214.0,264.0,2224.256
2224266.0,216.0,31.0,204.0,261.0,2224.266
2224276.0,217.0,33.0,205.0,257.0,2224.276
2224286.0,213.0,33.0,199.0,257.0,2224.286
2224296.0,222.0,33.0,209.0,265.0,2224.296
2224306.0,223.0,32.0,212.0,263.0,2224.306
2224316.0,216.0,32.0,204.0,261.0,2224.316
2224326.0,218.0,32.0,204.0,255.0,2224.326
2224336.0,213.0,32.0,202.0,256.0,2224.336
2224346.0,219.0,32.0,208.0,262.0,2224.346
2224356.0,227.0,34.0,212.0,265.0,2224.356
2224366.0,219.0,32.0,204.0,258.0,2224.366
2224376.0,220.0,33.0,204.0,255.0,2224.376
2224386.0,214.0,33.0,198.0,253.0,2224.386
2224396.0,222.0,33.0,210.0,263.0,2224.396
2224406.0,226.0,32.0,213.0,261.0,2224.406
2224416.0,217.0,33.0,205.0,259.0,2224.416
2224427.0,219.0,32.0,205.0,254.0,2224.427
2224437.0,218.0,32.0,208.0,257.0,2224.437
2224447.0,223.0,32.0,214.0,262.0,2224.447
2224457.0,225.0,33.0,211.0,255.0,2224.457
2224467.0,216.0,32.0,202.0,253.0,2224.467
2224477.0,221.0,32.0,207.0,255.0,2224.477
2224487.0,221.0,33.0,210.0,256.0,2224.487
2224497.0,222.0,32.0,213.0,260.0,2224.497
2224507.0,221.0,32.0,212.0,256.0,2224.507
2224517.0,216.0,31.0,207.0,255.0,2224.517
2224527.0,217.0,32.0,205.0,252.0,2224.527
2224537.0,219.0,32.0,209.0,257.0,2224.537
2224547.0,221.0,33.0,212.0,260.0,2224.547
2224557.0,223.0,32.0,214.0,258.0,2224.557
2224567.0,213.0,32.0,205.0,253.0,2224.567
2224577.0,216.0,32.0,207.0,254.0,2224.577
2224587.0,222.0,31.0,212.0,259.0,2224.587
2224598.0,223.0,32.0,213.0,261.0,2224.598
2224608.0,222.0,33.0,211.0,256.0,2224.608
2224618.0,213.0,31.0,203.0,251.0,2224.618
2224628.0,217.0,31.0,206.0,257.0,2224.628
2224638.0,223.0,32.0,215.0,261.0,2224.638
2224648.0,221.0,31.0,211.0,260.0,2224.648
2224658.0,221.0,32.0,207.0,256.0,2224.658
2224668.0,211.0,32.0,201.0,251.0,2224.668
2224678.0,217.0,33.0,209.0,258.0,2224.678
2224688.0,220.0,32.0,214.0,260.0,2224.688
2224698.0,217.0,31.0,212.0,259.0,2224.698
2224708.0,219.0,31.0,208.0,254.0,2224.708
2224718.0,210.0,31.0,199.0,249.0,2224.718
2224728.0,215.0,31.0,204.0,253.0,2224.728
2224738.0,221.0,32.0,213.0,260.0,2224.738
2224748.0,217.0,31.0,212.0,258.0,2224.748
2224758.0,218.0,31.0,209.0,253.0,2224.758
2224768.0,211.0,31.0,206.0,250.0,2224.768
2224778.0,215.0,31.0,208.0,251.0,2224.778
2224788.0,220.0,32.0,216.0,257.0,2224.788
2224798.0,217.0,32.0,214.0,257.0,2224.798
2224808.0,219.0,32.0,212.0,253.0,2224.808
2224818.0,212.0,31.0,207.0,247.0,2224.818
2224828.0,216.0,32.0,211.0,253.0,2224.828
2224838.0,224.0,31.0,218.0,260.0,2224.838
2224848.0,218.0,32.0,215.0,256.0,2224.848
2224858.0,221.0,32.0,213.0,253.0,2224.858
2224868.0,211.0,32.0,211.0,251.0,2224.868
2224878.0,217.0,32.0,218.0,256.0,2224.878
2224888.0,223.0,32.0,223.0,260.0,2224.888
2224898.0,222.0,32.0,225.0,259.0,2224.898
2224908.0,222.0,31.0,217.0,254.0,2224.908
2224918.0,212.0,31.0,213.0,250.0,2224.918
2224928.0,219.0,32.0,221.0,258.0,2224.928
2224939.0,225.0,32.0,226.0,260.0,2224.939
2224949.0,219.0,31.0,223.0,255.0,2224.949
2224959.0,220.0,32.0,216.0,252.0,2224.959
2224969.0,214.0,31.0,216.0,251.0,2224.969
2224979.0,221.0,32.0,225.0,257.0,2224.979
2224989.0,223.0,32.0,225.0,258.0,2224.989
2224999.0,217.0,32.0,223.0,253.0,2224.999
2225009.0,218.0,31.0,219.0,250.0,2225.009
2225019.0,218.0,31.0,221.0,252.0,2225.019
2225029.0,223.0,31.0,227.0,256.0,2225.029
2225039.0,225.0,33.0,229.0,259.0,2225.039
2225049.0,217.0,32.0,227.0,252.0,2225.049
2225059.0,219.0,33.0,223.0,253.0,2225.059
2225069.0,212.0,32.0,221.0,247.0,2225.069
2225079.0,220.0,32.0,229.0,257.0,2225.079
2225089.0,225.0,32.0,230.0,258.0,2225.089
2225099.0,216.0,31.0,226.0,251.0,2225.099
2225110.0,218.0,32.0,223.0,251.0,2225.11
2225120.0,221.0,32.0,227.0,253.0,2225.12
2225130.0,224.0,32.0,233.0,254.0,2225.13
2225140.0,224.0,32.0,229.0,252.0,2225.14
2225150.0,215.0,32.0,226.0,246.0,2225.15
2225160.0,220.0,31.0,225.0,248.0,2225.16
2225170.0,218.0,32.0,230.0,253.0,2225.17
2225180.0,221.0,32.0,234.0,254.0,2225.18
2225190.0,221.0,33.0,227.0,251.0,2225.19
2225200.0,214.0,32.0,228.0,248.0,2225.2
2225210.0,215.0,32.0,222.0,248.0,2225.21
2225220.0,216.0,32.0,232.0,253.0,2225.22
2225230.0,216.0,32.0,234.0,255.0,2225.23
2225240.0,220.0,32.0,230.0,253.0,2225.24
2225250.0,210.0,32.0,229.0,247.0,2225.25
2225260.0,213.0,32.0,225.0,248.0,2225.26
2225270.0,217.0,32.0,231.0,254.0,2225.27
2225280.0,218.0,32.0,236.0,255.0,2225.28
2225290.0,220.0,33.0,230.0,252.0,2225.29
2225300.0,211.0,32.0,227.0,244.0,2225.3
2225310.0,214.0,32.0,223.0,245.0,2225.31
2225320.0,218.0,33.0,231.0,251.0,2225.32
2225330.0,221.0,32.0,234.0,252.0,2225.33
2225340.0,225.0,32.0,227.0,250.0,2225.34
2225350.0,216.0,31.0,226.0,245.0,2225.35
2225360.0,218.0,33.0,222.0,246.0,2225.36
2225370.0,218.0,32.0,225.0,248.0,2225.37
2225380.0,222.0,33.0,230.0,253.0,2225.38
2225390.0,223.0,32.0,223.0,248.0,2225.39
2225400.0,213.0,32.0,221.0,243.0,2225.4
2225410.0,217.0,33.0,221.0,246.0,2225.41
2225420.0,217.0,33.0,225.0,251.0,2225.42
2225430.0,220.0,32.0,230.0,254.0,2225.43
2225440.0,220.0,33.0,223.0,252.0,2225.44
2225451.0,212.0,32.0,220.0,244.0,2225.451
2225461.0,216.0,32.0,221.0,251.0,2225.461
2225471.0,222.0,33.0,228.0,256.0,2225.471
2225481.0,219.0,32.0,229.0,254.0,2225.481
2225491.0,219.0,32.0,225.0,251.0,2225.491
2225501.0,213.0,32.0,224.0,245.0,2225.501
2225511.0,217.0,33.0,227.0,251.0,2225.511
2225521.0,223.0,32.0,233.0,256.0,2225.521
2225531.0,220.0,32.0,232.0,252.0,2225.531
2225541.0,221.0,33.0,228.0,252.0,2225.541
2225551.0,211.0,32.0,227.0,245.0,2225.551
2225561.0,216.0,32.0,231.0,252.0,2225.561
2225571.0,223.0,34.0,235.0,257.0,2225.571
2225581.0,220.0,32.0,236.0,253.0,2225.581
2225591.0,220.0,33.0,228.0,250.0,2225.591
2225601.0,213.0,32.0,229.0,242.0,2225.601
2225611.0,218.0,32.0,234.0,251.0,2225.611
2225622.0,223.0,32.0,238.0,255.0,2225.622
2225632.0,218.0,33.0,240.0,251.0,2225.632
2225642.0,218.0,33.0,233.0,249.0,2225.642
2225652.0,215.0,32.0,236.0,247.0,2225.652
2225662.0,219.0,33.0,245.0,255.0,2225.662
2225672.0,223.0,33.0,240.0,254.0,2225.672
2225682.0,216.0,33.0,241.0,248.0,2225.682
2225692.0,217.0,33.0,234.0,247.0,2225.692
2225702.0,214.0,33.0,237.0,246.0,2225.702
2225712.0,219.0,32.0,241.0,250.0,2225.712
2225722.0,222.0,34.0,240.0,251.0,2225.722
2225732.0,217.0,32.0,243.0,243.0,2225.732
2225742.0,217.0,33.0,236.0,243.0,2225.742
2225752.0,211.0,32.0,237.0,237.0,2225.752
2225762.0,221.0,34.0,248.0,250.0,2225.762
2225772.0,223.0,33.0,243.0,248.0,2225.772
2225782.0,216.0,32.0,244.0,243.0,2225.782
2225792.0,217.0,33.0,238.0,245.0,2225.792
2225802.0,212.0,33.0,238.0,242.0,2225.802
2225812.0,218.0,33.0,247.0,253.0,2225.812
2225822.0,222.0,33.0,243.0,253.0,2225.822
2225832.0,214.0,33.0,243.0,246.0,2225.832
2225842.0,218.0,33.0,239.0,248.0,2225.842
2225852.0,211.0,33.0,239.0,245.0,2225.852
2225862.0,219.0,33.0,248.0,253.0,2225.862
2225872.0,220.0,34.0,241.0,252.0,2225.872
2225882.0,215.0,33.0,246.0,249.0,2225.882
2225892.0,215.0,34.0,239.0,249.0,2225.892
2225902.0,212.0,32.0,241.0,246.0,2225.902
2225912.0,219.0,33.0,248.0,253.0,2225.912
2225922.0,222.0,34.0,244.0,252.0,2225.922
2225932.0,216.0,33.0,246.0,247.0,2225.932
2225942.0,217.0,33.0,240.0,247.0,2225.942
2225952.0,218.0,33.0,244.0,247.0,2225.952
2225963.0,224.0,34.0,251.0,252.0,2225.963
2225973.0,225.0,33.0,243.0,249.0,2225.973
2225983.0,216.0,33.0,246.0,242.0,2225.983
2225993.0,218.0,33.0,239.0,245.0,2225.993
2226003.0,222.0,33.0,247.0,251.0,2226.003
2226013.0,223.0,33.0,251.0,252.0,2226.013
2226023.0,223.0,35.0,240.0,250.0,2226.023
2226033.0,216.0,32.0,244.0,241.0,2226.033
2226043.0,217.0,34.0,240.0,245.0,2226.043
2226053.0,222.0,34.0,246.0,247.0,2226.053
2226063.0,225.0,33.0,250.0,250.0,2226.063
2226073.0,224.0,33.0,243.0,248.0,2226.073
2226083.0,217.0,34.0,247.0,240.0,2226.083
2226093.0,220.0,33.0,242.0,244.0,2226.093
2226103.0,220.0,33.0,247.0,246.0,2226.103
2226113.0,224.0,33.0,254.0,248.0,2226.113
2226123.0,223.0,34.0,243.0,246.0,2226.123
2226134.0,214.0,34.0,247.0,238.0,2226.134
2226144.0,219.0,33.0,245.0,245.0,2226.144
2226154.0,225.0,34.0,251.0,251.0,2226.154
2226164.0,222.0,32.0,254.0,247.0,2226.164
2226174.0,221.0,34.0,245.0,246.0,2226.174
2226184.0,216.0,33.0,248.0,238.0,2226.184
2226194.0,219.0,34.0,248.0,246.0,2226.194
2226204.0,225.0,33.0,252.0,251.0,2226.204
2226214.0,221.0,34.0,253.0,246.0,2226.214
2226224.0,222.0,34.0,245.0,246.0,2226.224
2226234.0,213.0,33.0,245.0,239.0,2226.234
2226244.0,221.0,33.0,250.0,248.0,2226.244
2226254.0,224.0,34.0,252.0,253.0,2226.254
2226264.0,221.0,33.0,254.0,250.0,2226.264
2226274.0,220.0,35.0,243.0,250.0,2226.274
2226284.0,212.0,33.0,243.0,240.0,2226.284
2226294.0,218.0,34.0,245.0,248.0,2226.294
2226304.0,222.0,33.0,249.0,252.0,2226.304
2226314.0,220.0,33.0,250.0,249.0,2226.314
2226324.0,219.0,34.0,239.0,247.0,2226.324
2226334.0,212.0,33.0,240.0,241.0,2226.334
2226344.0,219.0,34.0,248.0,251.0,2226.344
2226354.0,223.0,34.0,249.0,254.0,2226.354
2226364.0,220.0,33.0,250.0,250.0,2226.364
2226374.0,221.0,33.0,242.0,247.0,2226.374
2226384.0,215.0,33.0,242.0,240.0,2226.384
2226394.0,221.0,33.0,243.0,247.0,2226.394
2226404.0,227.0,34.0,250.0,254.0,2226.404
2226414.0,223.0,32.0,252.0,248.0,2226.414
2226424.0,221.0,34.0,242.0,246.0,2226.424
2226434.0,215.0,33.0,245.0,239.0,2226.434
2226444.0,219.0,33.0,247.0,246.0,2226.444
2226454.0,224.0,33.0,249.0,250.0,2226.454
2226464.0,220.0,33.0,249.0,246.0,2226.464
2226475.0,219.0,34.0,240.0,245.0,2226.475
2226485.0,217.0,32.0,240.0,240.0,2226.485
2226495.0,224.0,33.0,248.0,248.0,2226.495
2226505.0,227.0,34.0,243.0,250.0,2226.505
2226515.0,219.0,33.0,244.0,241.0,2226.515
2226525.0,221.0,33.0,238.0,243.0,2226.525
2226535.0,216.0,34.0,242.0,242.0,2226.535
2226545.0,224.0,33.0,251.0,249.0,2226.545
2226555.0,225.0,33.0,243.0,248.0,2226.555
2226565.0,221.0,33.0,247.0,243.0,2226.565
2226575.0,220.0,34.0,238.0,243.0,2226.575
2226585.0,217.0,33.0,243.0,241.0,2226.585
2226595.0,227.0,34.0,251.0,251.0,2226.595
2226605.0,227.0,33.0,247.0,252.0,2226.605
2226615.0,220.0,33.0,249.0,245.0,2226.615
2226625.0,220.0,33.0,240.0,245.0,2226.625
2226635.0,219.0,32.0,243.0,244.0,2226.635
2226646.0,224.0,32.0,251.0,249.0,2226.646
2226656.0,224.0,33.0,243.0,249.0,2226.656
2226666.0,218.0,32.0,249.0,241.0,2226.666
2226676.0,219.0,32.0,243.0,245.0,2226.676
2226686.0,223.0,33.0,251.0,250.0,2226.686
2226696.0,227.0,32.0,255.0,250.0,2226.696
2226706.0,228.0,33.0,245.0,248.0,2226.706
2226716.0,220.0,32.0,250.0,239.0,2226.716
2226726.0,221.0,33.0,245.0,244.0,2226.726
2226736.0,223.0,32.0,251.0,245.0,2226.736
2226746.0,225.0,32.0,257.0,248.0,2226.746
2226756.0,225.0,33.0,248.0,245.0,2226.756
2226766.0,217.0,33.0,252.0,236.0,2226.766
2226776.0,220.0,32.0,247.0,239.0,2226.776
2226786.0,222.0,33.0,254.0,245.0,2226.786
2226796.0,225.0,33.0,259.0,246.0,2226.796
2226806.0,223.0,33.0,247.0,244.0,2226.806
2226816.0,219.0,33.0,252.0,238.0,2226.816
2226826.0,220.0,33.0,246.0,240.0,2226.826
2226836.0,222.0,34.0,252.0,246.0,2226.836
2226846.0,224.0,33.0,257.0,249.0,2226.846
2226856.0,223.0,33.0,247.0,246.0,2226.856
2226866.0,219.0,32.0,254.0,240.0,2226.866
2226876.0,220.0,32.0,247.0,243.0,2226.876
2226886.0,224.0,32.0,255.0,249.0,2226.886
2226896.0,224.0,32.0,256.0,248.0,2226.896
2226906.0,229.0,32.0,247.0,248.0,2226.906
2226916.0,220.0,33.0,251.0,240.0,2226.916
2226926.0,221.0,32.0,246.0,242.0,2226.926
2226936.0,225.0,33.0,252.0,249.0,2226.936
2226946.0,226.0,32.0,258.0,248.0,2226.946
2226956.0,225.0,33.0,246.0,249.0,2226.956
2226966.0,218.0,32.0,249.0,239.0,2226.966
2226976.0,219.0,32.0,246.0,243.0,2226.976
2226987.0,224.0,33.0,251.0,249.0,2226.987
2226997.0,224.0,32.0,254.0,246.0,2226.997
2227007.0,219.0,32.0,244.0,245.0,2227.007
2227017.0,211.0,31.0,245.0,237.0,2227.017
2227027.0,218.0,33.0,250.0,247.0,2227.027
2227037.0,222.0,32.0,251.0,250.0,2227.037
2227047.0,219.0,33.0,253.0,246.0,2227.047
2227057.0,218.0,33.0,245.0,244.0,2227.057
2227067.0,212.0,33.0,244.0,238.0,2227.067
2227077.0,217.0,32.0,243.0,244.0,2227.077
2227087.0,223.0,33.0,248.0,250.0,2227.087
2227097.0,221.0,32.0,250.0,245.0,2227.097
2227107.0,219.0,33.0,241.0,244.0,2227.107
2227117.0,217.0,32.0,244.0,236.0,2227.117
2227127.0,221.0,32.0,245.0,244.0,2227.127
2227137.0,227.0,33.0,250.0,249.0,2227.137
2227147.0,224.0,31.0,251.0,244.0,2227.147
2227158.0,220.0,33.0,242.0,244.0,2227.158
2227168.0,217.0,33.0,246.0,243.0,2227.168
2227178.0,225.0,32.0,254.0,252.0,2227.178
2227188.0,227.0,33.0,247.0,252.0,2227.188
2227198.0,219.0,32.0,249.0,243.0,2227.198
2227208.0,222.0,31.0,243.0,245.0,2227.208
2227218.0,218.0,32.0,245.0,242.0,2227.218
2227228.0,220.0,32.0,253.0,251.0,2227.228
2227238.0,222.0,33.0,245.0,250.0,2227.238
2227248.0,218.0,32.0,251.0,243.0,2227.248
2227258.0,218.0,32.0,237.0,242.0,2227.258
2227268.0,217.0,32.0,242.0,240.0,2227.268
2227278.0,224.0,32.0,249.0,246.0,2227.278
2227288.0,224.0,32.0,245.0,248.0,2227.288
2227298.0,219.0,33.0,249.0,240.0,2227.298
2227308.0,219.0,32.0,242.0,241.0,2227.308
2227318.0,219.0,32.0,247.0,240.0,2227.318
2227328.0,224.0,32.0,253.0,245.0,2227.328
2227338.0,228.0,33.0,249.0,249.0,2227.338
2227348.0,222.0,32.0,251.0,241.0,2227.348
2227358.0,222.0,33.0,244.0,244.0,2227.358
2227368.0,222.0,33.0,251.0,244.0,2227.368
2227378.0,225.0,32.0,254.0,248.0,2227.378
2227388.0,227.0,33.0,249.0,251.0,2227.388
2227398.0,221.0,32.0,254.0,242.0,2227.398
2227408.0,221.0,33.0,246.0,243.0,2227.408
2227418.0,217.0,33.0,249.0,239.0,2227.418
2227428.0,222.0,33.0,256.0,248.0,2227.428
2227438.0,224.0,32.0,249.0,251.0,2227.438
2227448.0,217.0,32.0,251.0,241.0,2227.448
2227458.0,220.0,33.0,246.0,242.0,2227.458
2227468.0,217.0,31.0,248.0,239.0,2227.468
2227478.0,223.0,32.0,254.0,248.0,2227.478
2227488.0,224.0,33.0,247.0,248.0,2227.488
2227499.0,217.0,32.0,249.0,240.0,2227.499
2227509.0,217.0,32.0,246.0,244.0,2227.509
2227519.0,221.0,33.0,252.0,250.0,2227.519
2227529.0,223.0,33.0,256.0,249.0,2227.529
2227539.0,220.0,32.0,246.0,246.0,2227.539
2227549.0,213.0,32.0,252.0,239.0,2227.549
2227559.0,216.0,33.0,246.0,243.0,2227.559
2227569.0,221.0,33.0,254.0,248.0,2227.569
2227579.0,220.0,32.0,256.0,247.0,2227.579
2227589.0,222.0,33.0,248.0,246.0,2227.589
2227599.0,214.0,32.0,253.0,239.0,2227.599
2227609.0,216.0,33.0,249.0,242.0,2227.609
2227619.0,222.0,33.0,256.0,251.0,2227.619
2227629.0,223.0,33.0,258.0,248.0,2227.629
2227639.0,223.0,32.0,247.0,246.0,2227.639
2227649.0,216.0,33.0,250.0,238.0,2227.649
2227659.0,220.0,32.0,247.0,242.0,2227.659
2227670.0,225.0,33.0,254.0,249.0,2227.67
2227680.0,224.0,33.0,256.0,245.0,2227.68
2227690.0,222.0,34.0,246.0,244.0,2227.69
2227700.0,215.0,32.0,249.0,238.0,2227.7
2227710.0,223.0,33.0,256.0,249.0,2227.71
2227720.0,226.0,33.0,257.0,253.0,2227.72
2227730.0,223.0,32.0,257.0,249.0,2227.73
2227740.0,222.0,33.0,246.0,248.0,2227.74
2227750.0,219.0,34.0,248.0,242.0,2227.75
2227760.0,224.0,32.0,249.0,247.0,2227.76
2227770.0,229.0,33.0,253.0,253.0,2227.77
2227780.0,225.0,32.0,257.0,247.0,2227.78
2227790.0,223.0,33.0,247.0,246.0,2227.79
2227800.0,216.0,33.0,250.0,239.0,2227.8
2227810.0,221.0,33.0,251.0,246.0,2227.81
2227820.0,226.0,33.0,254.0,250.0,2227.82
2227830.0,222.0,32.0,255.0,246.0,2227.83
2227840.0,223.0,33.0,245.0,247.0,2227.84
2227850.0,216.0,32.0,247.0,238.0,2227.85
2227860.0,220.0,33.0,250.0,247.0,2227.86
2227870.0,224.0,33.0,252.0,251.0,2227.87
2227880.0,218.0,34.0,255.0,245.0,2227.88
2227890.0,219.0,32.0,247.0,246.0,2227.89
2227900.0,210.0,32.0,249.0,239.0,2227.9
2227910.0,220.0,33.0,254.0,249.0,2227.91
2227920.0,223.0,34.0,253.0,253.0,2227.92
2227930.0,221.0,33.0,256.0,249.0,2227.93
2227940.0,220.0,33.0,247.0,248.0,2227.94
2227950.0,212.0,32.0,248.0,240.0,2227.95
2227960.0,220.0,33.0,254.0,251.0,2227.96
2227970.0,223.0,33.0,259.0,255.0,2227.97
2227980.0,220.0,33.0,261.0,252.0,2227.98
2227990.0,223.0,33.0,250.0,249.0,2227.99
2228000.0,215.0,33.0,252.0,244.0,2228.0
2228011.0,223.0,33.0,258.0,252.0,2228.011
2228021.0,226.0,32.0,252.0,252.0,2228.021
2228031.0,219.0,32.0,254.0,246.0,2228.031
2228041.0,220.0,33.0,246.0,246.0,2228.041
2228051.0,218.0,33.0,251.0,248.0,2228.051
2228061.0,221.0,32.0,256.0,250.0,2228.061
2228071.0,225.0,34.0,250.0,251.0,2228.071
2228081.0,217.0,32.0,253.0,243.0,2228.081
2228091.0,218.0,33.0,246.0,244.0,2228.091
2228101.0,215.0,32.0,250.0,242.0,2228.101
2228111.0,222.0,33.0,256.0,252.0,2228.111
2228121.0,224.0,33.0,248.0,250.0,2228.121
2228131.0,217.0,32.0,252.0,243.0,2228.131
2228141.0,219.0,33.0,245.0,245.0,2228.141
2228151.0,216.0,32.0,249.0,244.0,2228.151
2228161.0,223.0,32.0,258.0,251.0,2228.161
2228171.0,224.0,33.0,248.0,251.0,2228.171
2228182.0,215.0,32.0,252.0,243.0,2228.182
2228192.0,213.0,32.0,247.0,246.0,2228.192
2228202.0,218.0,33.0,253.0,250.0,2228.202
2228212.0,219.0,32.0,257.0,250.0,2228.212
2228222.0,219.0,33.0,246.0,247.0,2228.222
2228232.0,215.0,32.0,253.0,243.0,2228.232
2228242.0,215.0,33.0,248.0,245.0,2228.242
2228252.0,222.0,32.0,255.0,253.0,2228.252
2228262.0,221.0,33.0,258.0,251.0,2228.262
2228272.0,223.0,32.0,248.0,250.0,2228.272
2228282.0,214.0,32.0,251.0,244.0,2228.282
2228292.0,217.0,32.0,248.0,246.0,2228.292
2228302.0,220.0,32.0,254.0,251.0,2228.302
2228312.0,220.0,32.0,257.0,250.0,2228.312
2228322.0,220.0,33.0,248.0,249.0,2228.322
2228332.0,213.0,32.0,251.0,240.0,2228.332
2228342.0,216.0,32.0,248.0,245.0,2228.342
2228352.0,218.0,32.0,254.0,249.0,2228.352
2228362.0,222.0,31.0,260.0,251.0,2228.362
2228372.0,220.0,32.0,248.0,248.0,2228.372
2228382.0,212.0,32.0,253.0,240.0,2228.382
2228392.0,216.0,33.0,251.0,245.0,2228.392
2228402.0,218.0,32.0,255.0,248.0,2228.402
2228412.0,221.0,32.0,260.0,250.0,2228.412
2228422.0,221.0,32.0,248.0,248.0,2228.422
2228432.0,212.0,32.0,252.0,239.0,2228.432
2228442.0,215.0,32.0,248.0,244.0,2228.442
2228452.0,219.0,33.0,257.0,251.0,2228.452
2228462.0,220.0,32.0,261.0,250.0,2228.462
2228472.0,220.0,32.0,249.0,249.0,2228.472
2228482.0,213.0,32.0,259.0,243.0,2228.482
2228492.0,216.0,31.0,252.0,247.0,2228.492
2228502.0,221.0,32.0,260.0,253.0,2228.502
2228512.0,220.0,32.0,265.0,252.0,2228.512
2228523.0,217.0,32.0,253.0,248.0,2228.523
2228533.0,208.0,31.0,256.0,240.0,2228.533
2228543.0,215.0,32.0,259.0,250.0,2228.543
2228553.0,221.0,32.0,261.0,253.0,2228.553
2228563.0,214.0,32.0,264.0,246.0,2228.563
2228573.0,218.0,32.0,255.0,247.0,2228.573
2228583.0,209.0,32.0,257.0,241.0,2228.583
2228593.0,216.0,32.0,262.0,250.0,2228.593
2228603.0,221.0,33.0,259.0,254.0,2228.603
2228613.0,219.0,31.0,265.0,250.0,2228.613
2228623.0,220.0,31.0,254.0,248.0,2228.623
2228633.0,212.0,31.0,256.0,241.0,2228.633
2228643.0,219.0,33.0,262.0,252.0,2228.643
2228653.0,223.0,32.0,262.0,253.0,2228.653
2228663.0,219.0,31.0,264.0,249.0,2228.663
2228673.0,217.0,33.0,252.0,247.0,2228.673
2228683.0,208.0,31.0,254.0,241.0,2228.683
2228694.0,216.0,32.0,263.0,252.0,2228.694
2228704.0,221.0,32.0,260.0,256.0,2228.704
2228714.0,213.0,32.0,262.0,248.0,2228.714
2228724.0,215.0,32.0,252.0,249.0,2228.724
2228734.0,220.0,32.0,259.0,252.0,2228.734
2228744.0,224.0,32.0,263.0,254.0,2228.744
2228754.0,226.0,33.0,257.0,256.0,2228.754
2228764.0,217.0,32.0,260.0,246.0,2228.764
2228774.0,219.0,33.0,252.0,248.0,2228.774
2228784.0,215.0,32.0,255.0,245.0,2228.784
2228794.0,223.0,32.0,264.0,252.0,2228.794
2228804.0,224.0,33.0,256.0,251.0,2228.804
2228814.0,215.0,32.0,258.0,243.0,2228.814
2228824.0,218.0,32.0,252.0,245.0,2228.824
2228834.0,213.0,32.0,256.0,244.0,2228.834
2228844.0,219.0,33.0,264.0,250.0,2228.844
2228854.0,222.0,32.0,254.0,250.0,2228.854
2228864.0,215.0,32.0,260.0,244.0,2228.864
2228874.0,218.0,32.0,252.0,245.0,2228.874
2228884.0,214.0,33.0,258.0,246.0,2228.884
2228894.0,220.0,32.0,264.0,252.0,2228.894
2228904.0,221.0,34.0,251.0,250.0,2228.904
2228914.0,214.0,32.0,260.0,245.0,2228.914
2228924.0,215.0,33.0,250.0,246.0,2228.924
2228934.0,216.0,33.0,258.0,247.0,2228.934
2228944.0,220.0,32.0,265.0,251.0,2228.944
2228954.0,223.0,33.0,257.0,252.0,2228.954
2228964.0,214.0,32.0,260.0,246.0,2228.964
2228974.0,217.0,32.0,253.0,246.0,2228.974
2228984.0,217.0,33.0,257.0,250.0,2228.984
2228994.0,220.0,32.0,263.0,253.0,2228.994
2229004.0,223.0,33.0,254.0,254.0,2229.004
2229014.0,214.0,33.0,258.0,245.0,2229.014
2229024.0,215.0,33.0,250.0,246.0,2229.024
2229035.0,217.0,33.0,256.0,249.0,2229.035
2229045.0,219.0,32.0,262.0,250.0,2229.045
2229055.0,219.0,33.0,250.0,248.0,2229.055
2229065.0,211.0,32.0,254.0,240.0,2229.065
2229075.0,215.0,33.0,251.0,246.0,2229.075
2229085.0,218.0,33.0,255.0,248.0,2229.085
2229095.0,221.0,34.0,259.0,249.0,2229.095
2229105.0,221.0,32.0,248.0,246.0,2229.105
2229115.0,212.0,32.0,249.0,238.0,2229.115
2229125.0,214.0,33.0,246.0,243.0,2229.125
2229135.0,216.0,33.0,255.0,250.0,2229.135
2229145.0,217.0,32.0,259.0,249.0,2229.145
2229155.0,217.0,34.0,247.0,248.0,2229.155
2229165.0,211.0,33.0,252.0,242.0,2229.165
2229175.0,214.0,32.0,247.0,245.0,2229.175
2229185.0,220.0,33.0,255.0,251.0,2229.185
2229195.0,220.0,32.0,258.0,250.0,2229.195
2229206.0,218.0,33.0,247.0,248.0,2229.206
2229216.0,210.0,32.0,248.0,239.0,2229.216
2229226.0,217.0,33.0,250.0,248.0,2229.226
2229236.0,225.0,32.0,250.0,250.0,2229.236
2229246.0,217.0,32.0,251.0,244.0,2229.246
2229256.0,221.0,32.0,244.0,246.0,2229.256
2229266.0,211.0,32.0,244.0,238.0,2229.266
2229276.0,220.0,32.0,250.0,248.0,2229.276
2229286.0,224.0,34.0,250.0,251.0,2229.286
2229296.0,220.0,32.0,255.0,247.0,2229.296
2229306.0,220.0,33.0,245.0,246.0,2229.306
2229316.0,212.0,32.0,247.0,239.0,2229.316
2229326.0,220.0,33.0,250.0,248.0,2229.326
2229336.0,223.0,33.0,250.0,248.0,2229.336
2229346.0,219.0,33.0,253.0,244.0,2229.346
2229356.0,219.0,33.0,244.0,242.0,2229.356
2229366.0,213.0,32.0,247.0,237.0,2229.366
2229376.0,217.0,33.0,249.0,243.0,2229.376
2229386.0,223.0,33.0,253.0,249.0,2229.386
2229396.0,217.0,32.0,256.0,245.0,2229.396
2229406.0,217.0,33.0,242.0,243.0,2229.406
2229416.0,212.0,33.0,245.0,241.0,2229.416
2229426.0,217.0,32.0,248.0,246.0,2229.426
2229436.0,223.0,33.0,251.0,251.0,2229.436
2229446.0,218.0,32.0,254.0,246.0,2229.446
2229456.0,219.0,33.0,244.0,245.0,2229.456
2229466.0,211.0,32.0,246.0,238.0,2229.466
2229476.0,219.0,33.0,253.0,249.0,2229.476
2229486.0,223.0,34.0,255.0,251.0,2229.486
2229496.0,217.0,32.0,255.0,244.0,2229.496
2229506.0,220.0,33.0,248.0,244.0,2229.506
2229516.0,212.0,31.0,248.0,238.0,2229.516
2229526.0,220.0,32.0,254.0,247.0,2229.526
2229536.0,225.0,32.0,252.0,251.0,2229.536
2229547.0,218.0,32.0,255.0,244.0,2229.547
2229557.0,215.0,32.0,247.0,243.0,2229.557
2229567.0,212.0,33.0,252.0,244.0,2229.567
2229577.0,219.0,32.0,259.0,249.0,2229.577
2229587.0,220.0,33.0,249.0,247.0,2229.587
2229597.0,213.0,32.0,255.0,240.0,2229.597
2229607.0,215.0,33.0,247.0,243.0,2229.607
2229617.0,214.0,32.0,253.0,243.0,2229.617
2229627.0,220.0,32.0,259.0,247.0,2229.627
2229637.0,222.0,33.0,253.0,249.0,2229.637
2229647.0,214.0,33.0,256.0,241.0,2229.647
2229657.0,215.0,32.0,248.0,242.0,2229.657
2229667.0,217.0,32.0,256.0,246.0,2229.667
2229677.0,223.0,32.0,264.0,250.0,2229.677
2229687.0,225.0,32.0,255.0,250.0,2229.687
2229697.0,217.0,32.0,258.0,241.0,2229.697
2229707.0,219.0,33.0,252.0,244.0,2229.707
