time (ms),signal 0,signal 1,signal 2,signal 3,time (sec)
2197467.0,210.0,31.0,221.0,234.0,2197.467
2197477.0,217.0,33.0,226.0,243.0,2197.477
2197487.0,221.0,33.0,229.0,246.0,2197.487
2197497.0,217.0,32.0,228.0,241.0,2197.497
2197507.0,217.0,32.0,221.0,240.0,2197.507
2197517.0,210.0,32.0,219.0,232.0,2197.517
2197527.0,216.0,33.0,225.0,242.0,2197.527
2197537.0,222.0,32.0,230.0,245.0,2197.537
2197547.0,218.0,32.0,230.0,242.0,2197.547
2197557.0,216.0,32.0,222.0,239.0,2197.557
2197567.0,210.0,33.0,219.0,233.0,2197.567
2197577.0,218.0,32.0,229.0,241.0,2197.577
2197587.0,221.0,33.0,228.0,245.0,2197.587
2197597.0,220.0,32.0,231.0,242.0,2197.597
2197607.0,217.0,32.0,223.0,240.0,2197.607
2197617.0,210.0,32.0,220.0,233.0,2197.617
2197627.0,218.0,33.0,229.0,244.0,2197.627
2197637.0,221.0,32.0,229.0,246.0,2197.637
2197647.0,219.0,32.0,230.0,240.0,2197.647
2197657.0,218.0,32.0,223.0,240.0,2197.657
2197667.0,212.0,31.0,222.0,235.0,2197.667
2197677.0,216.0,32.0,225.0,241.0,2197.677
2197687.0,223.0,32.0,231.0,247.0,2197.687
2197697.0,219.0,32.0,232.0,241.0,2197.697
2197707.0,218.0,32.0,224.0,240.0,2197.707
2197718.0,213.0,32.0,225.0,237.0,2197.718
2197728.0,223.0,31.0,235.0,246.0,2197.728
2197738.0,224.0,32.0,230.0,246.0,2197.738
2197748.0,218.0,32.0,227.0,236.0,2197.748
2197758.0,218.0,33.0,223.0,239.0,2197.758
2197768.0,215.0,32.0,224.0,238.0,2197.768
2197778.0,223.0,32.0,232.0,246.0,2197.778
2197788.0,224.0,32.0,229.0,245.0,2197.788
2197798.0,216.0,31.0,228.0,237.0,2197.798
2197808.0,218.0,32.0,226.0,241.0,2197.808
2197818.0,215.0,33.0,228.0,239.0,2197.818
2197828.0,223.0,32.0,236.0,246.0,2197.828
2197838.0,224.0,32.0,229.0,246.0,2197.838
2197848.0,219.0,32.0,231.0,240.0,2197.848
2197858.0,219.0,31.0,226.0,240.0,2197.858
2197868.0,218.0,32.0,229.0,241.0,2197.868
2197878.0,224.0,32.0,237.0,247.0,2197.878
2197888.0,225.0,33.0,233.0,250.0,2197.888
2197898.0,219.0,32.0,235.0,242.0,2197.898
2197908.0,219.0,32.0,231.0,243.0,2197.908
2197918.0,220.0,32.0,236.0,244.0,2197.918
2197928.0,224.0,32.0,240.0,248.0,2197.928
2197938.0,226.0,32.0,236.0,249.0,2197.938
2197948.0,220.0,33.0,235.0,242.0,2197.948
2197958.0,220.0,32.0,231.0,240.0,2197.958
2197968.0,223.0,32.0,236.0,243.0,2197.968
2197978.0,225.0,32.0,243.0,247.0,2197.978
2197988.0,227.0,31.0,238.0,248.0,2197.988
2197998.0,220.0,31.0,236.0,240.0,2197.998
2198008.0,221.0,32.0,231.0,242.0,2198.008
2198018.0,218.0,32.0,233.0,240.0,2198.018
2198028.0,225.0,32.0,240.0,247.0,2198.028
2198038.0,225.0,32.0,234.0,247.0,2198.038
2198048.0,219.0,31.0,234.0,239.0,2198.048
2198059.0,220.0,32.0,230.0,241.0,2198.059
2198069.0,222.0,32.0,239.0,247.0,2198.069
2198079.0,226.0,33.0,242.0,248.0,2198.079
2198089.0,224.0,32.0,234.0,245.0,2198.089
2198099.0,218.0,32.0,234.0,238.0,2198.099
2198109.0,224.0,32.0,236.0,244.0,2198.109
2198119.0,226.0,32.0,242.0,250.0,2198.119
2198129.0,228.0,32.0,245.0,249.0,2198.129
2198139.0,225.0,33.0,233.0,246.0,2198.139
2198149.0,219.0,32.0,234.0,238.0,2198.149
2198159.0,222.0,32.0,232.0,242.0,2198.159
2198169.0,225.0,32.0,239.0,248.0,2198.169
2198179.0,224.0,31.0,238.0,246.0,2198.179
2198189.0,224.0,33.0,229.0,244.0,2198.189
2198199.0,218.0,32.0,228.0,238.0,2198.199
2198209.0,222.0,33.0,227.0,244.0,2198.209
2198219.0,229.0,32.0,239.0,251.0,2198.219
2198230.0,227.0,32.0,239.0,245.0,2198.23
2198240.0,226.0,33.0,231.0,242.0,2198.24
2198250.0,220.0,32.0,228.0,233.0,2198.25
2198260.0,229.0,32.0,235.0,241.0,2198.26
2198270.0,231.0,34.0,233.0,244.0,2198.27
2198280.0,225.0,32.0,237.0,243.0,2198.28
2198290.0,227.0,33.0,233.0,246.0,2198.29
2198300.0,224.0,32.0,234.0,241.0,2198.3
2198310.0,232.0,32.0,241.0,252.0,2198.31
2198320.0,235.0,33.0,240.0,253.0,2198.32
2198330.0,228.0,33.0,238.0,247.0,2198.33
2198340.0,226.0,33.0,230.0,246.0,2198.34
2198350.0,219.0,32.0,232.0,242.0,2198.35
2198360.0,221.0,32.0,231.0,248.0,2198.36
2198370.0,227.0,33.0,245.0,258.0,2198.37
2198380.0,223.0,33.0,246.0,254.0,2198.38
2198390.0,228.0,33.0,241.0,257.0,2198.39
2198400.0,224.0,34.0,241.0,249.0,2198.4
2198410.0,233.0,32.0,249.0,260.0,2198.41
2198420.0,233.0,33.0,250.0,260.0,2198.42
2198430.0,227.0,33.0,244.0,250.0,2198.43
2198440.0,226.0,33.0,236.0,251.0,2198.44
2198450.0,219.0,32.0,231.0,239.0,2198.45
2198460.0,223.0,34.0,235.0,244.0,2198.46
2198470.0,226.0,32.0,233.0,248.0,2198.47
2198480.0,222.0,32.0,237.0,245.0,2198.48
2198490.0,226.0,34.0,237.0,251.0,2198.49
2198500.0,223.0,33.0,241.0,253.0,2198.5
2198510.0,223.0,33.0,244.0,261.0,2198.51
2198520.0,227.0,34.0,253.0,264.0,2198.52
2198530.0,223.0,33.0,251.0,258.0,2198.53
2198540.0,225.0,33.0,245.0,257.0,2198.54
2198550.0,220.0,33.0,243.0,255.0,2198.55
2198560.0,230.0,34.0,255.0,267.0,2198.56
2198571.0,232.0,34.0,250.0,264.0,2198.571
2198581.0,225.0,33.0,242.0,259.0,2198.581
2198591.0,230.0,34.0,236.0,256.0,2198.591
2198601.0,232.0,34.0,238.0,260.0,2198.601
2198611.0,238.0,34.0,253.0,270.0,2198.611
2198621.0,240.0,34.0,249.0,266.0,2198.621
2198631.0,227.0,33.0,241.0,263.0,2198.631
2198641.0,229.0,33.0,242.0,268.0,2198.641
2198651.0,228.0,34.0,246.0,271.0,2198.651
2198661.0,227.0,33.0,239.0,264.0,2198.661
2198671.0,231.0,34.0,238.0,267.0,2198.671
2198681.0,221.0,33.0,231.0,258.0,2198.681
2198691.0,223.0,33.0,233.0,264.0,2198.691
2198701.0,218.0,34.0,226.0,255.0,2198.701
2198711.0,229.0,33.0,234.0,258.0,2198.711
2198721.0,236.0,35.0,240.0,264.0,2198.721
2198731.0,230.0,32.0,243.0,262.0,2198.731
2198742.0,234.0,34.0,245.0,265.0,2198.742
2198752.0,231.0,34.0,243.0,261.0,2198.752
2198762.0,228.0,34.0,236.0,257.0,2198.762
2198772.0,227.0,33.0,230.0,249.0,2198.772
2198782.0,220.0,34.0,222.0,242.0,2198.782
2198792.0,229.0,34.0,231.0,254.0,2198.792
2198802.0,235.0,34.0,244.0,260.0,2198.802
2198812.0,232.0,33.0,243.0,255.0,2198.812
2198822.0,231.0,34.0,234.0,257.0,2198.822
2198832.0,223.0,33.0,236.0,253.0,2198.832
2198842.0,224.0,34.0,232.0,253.0,2198.842
2198852.0,230.0,34.0,232.0,257.0,2198.852
2198862.0,227.0,32.0,223.0,250.0,2198.862
2198872.0,227.0,33.0,222.0,247.0,2198.872
2198882.0,217.0,33.0,219.0,237.0,2198.882
2198892.0,217.0,33.0,219.0,245.0,2198.892
2198902.0,226.0,33.0,228.0,254.0,2198.902
2198912.0,229.0,33.0,236.0,261.0,2198.912
2198922.0,230.0,33.0,232.0,260.0,2198.922
2198932.0,221.0,33.0,225.0,251.0,2198.932
2198942.0,228.0,33.0,226.0,254.0,2198.942
2198952.0,233.0,33.0,236.0,262.0,2198.952
2198962.0,229.0,33.0,237.0,259.0,2198.962
2198972.0,231.0,34.0,232.0,260.0,2198.972
2198982.0,223.0,32.0,225.0,248.0,2198.982
2198992.0,228.0,33.0,223.0,249.0,2198.992
2199002.0,228.0,33.0,224.0,253.0,2199.002
2199012.0,228.0,33.0,226.0,255.0,2199.012
2199022.0,230.0,33.0,229.0,261.0,2199.022
2199032.0,222.0,32.0,226.0,250.0,2199.032
2199042.0,228.0,33.0,225.0,255.0,2199.042
2199052.0,233.0,32.0,231.0,259.0,2199.052
2199062.0,234.0,32.0,236.0,258.0,2199.062
2199072.0,232.0,32.0,229.0,252.0,2199.072
2199083.0,220.0,32.0,223.0,240.0,2199.083
2199093.0,228.0,33.0,231.0,251.0,2199.093
2199103.0,236.0,33.0,247.0,271.0,2199.103
2199113.0,232.0,32.0,245.0,257.0,2199.113
2199123.0,235.0,32.0,238.0,258.0,2199.123
2199133.0,228.0,32.0,237.0,247.0,2199.133
2199143.0,237.0,33.0,241.0,260.0,2199.143
2199153.0,243.0,32.0,244.0,267.0,2199.153
2199163.0,232.0,33.0,233.0,254.0,2199.163
2199173.0,233.0,32.0,229.0,255.0,2199.173
2199183.0,232.0,32.0,240.0,259.0,2199.183
2199193.0,241.0,33.0,250.0,272.0,2199.193
2199203.0,245.0,32.0,245.0,271.0,2199.203
2199213.0,239.0,33.0,247.0,266.0,2199.213
2199223.0,238.0,32.0,236.0,260.0,2199.223
2199233.0,227.0,33.0,227.0,249.0,2199.233
2199243.0,234.0,32.0,240.0,263.0,2199.243
2199254.0,236.0,32.0,243.0,265.0,2199.254
2199264.0,233.0,32.0,250.0,263.0,2199.264
2199274.0,233.0,32.0,247.0,269.0,2199.274
2199284.0,234.0,32.0,251.0,268.0,2199.284
2199294.0,237.0,33.0,248.0,261.0,2199.294
2199304.0,237.0,32.0,237.0,256.0,2199.304
2199314.0,228.0,32.0,237.0,249.0,2199.314
2199324.0,225.0,32.0,230.0,251.0,2199.324
2199334.0,222.0,32.0,230.0,250.0,2199.334
2199344.0,224.0,32.0,237.0,251.0,2199.344
2199354.0,230.0,33.0,231.0,257.0,2199.354
2199364.0,226.0,32.0,225.0,244.0,2199.364
2199374.0,228.0,32.0,225.0,250.0,2199.374
2199384.0,224.0,32.0,225.0,249.0,2199.384
2199394.0,232.0,32.0,235.0,255.0,2199.394
2199404.0,232.0,33.0,229.0,257.0,2199.404
2199414.0,224.0,32.0,229.0,247.0,2199.414
2199424.0,229.0,33.0,229.0,253.0,2199.424
2199434.0,225.0,32.0,236.0,251.0,2199.434
2199444.0,232.0,32.0,244.0,257.0,2199.444
2199454.0,239.0,33.0,241.0,255.0,2199.454
2199464.0,227.0,32.0,237.0,245.0,2199.464
2199474.0,229.0,32.0,234.0,247.0,2199.474
2199484.0,228.0,33.0,241.0,251.0,2199.484
2199494.0,236.0,32.0,253.0,263.0,2199.494
2199504.0,237.0,32.0,250.0,268.0,2199.504
2199514.0,228.0,32.0,249.0,258.0,2199.514
2199524.0,222.0,32.0,240.0,254.0,2199.524
2199534.0,217.0,32.0,238.0,251.0,2199.534
2199544.0,225.0,33.0,245.0,256.0,2199.544
2199554.0,230.0,33.0,242.0,263.0,2199.554
2199564.0,224.0,32.0,247.0,258.0,2199.564
2199574.0,226.0,33.0,247.0,263.0,2199.574
2199584.0,229.0,32.0,247.0,262.0,2199.584
2199595.0,228.0,33.0,248.0,266.0,2199.595
2199605.0,229.0,33.0,242.0,270.0,2199.605
2199615.0,225.0,33.0,247.0,264.0,2199.615
2199625.0,236.0,32.0,257.0,276.0,2199.625
2199635.0,246.0,33.0,259.0,282.0,2199.635
2199645.0,245.0,33.0,265.0,278.0,2199.645
2199655.0,244.0,33.0,252.0,279.0,2199.655
2199665.0,238.0,32.0,249.0,266.0,2199.665
2199675.0,244.0,33.0,252.0,270.0,2199.675
2199685.0,249.0,33.0,254.0,272.0,2199.685
2199695.0,249.0,32.0,261.0,272.0,2199.695
2199705.0,245.0,33.0,251.0,269.0,2199.705
2199715.0,239.0,32.0,246.0,258.0,2199.715
2199725.0,238.0,33.0,238.0,249.0,2199.725
2199735.0,245.0,33.0,241.0,253.0,2199.735
2199745.0,243.0,32.0,239.0,249.0,2199.745
2199755.0,241.0,32.0,230.0,247.0,2199.755
2199766.0,229.0,33.0,225.0,239.0,2199.766
2199776.0,237.0,32.0,228.0,247.0,2199.776
2199786.0,254.0,34.0,229.0,253.0,2199.786
2199796.0,245.0,33.0,228.0,249.0,2199.796
2199806.0,241.0,34.0,224.0,251.0,2199.806
2199816.0,232.0,32.0,220.0,240.0,2199.816
2199826.0,237.0,33.0,232.0,254.0,2199.826
2199836.0,248.0,33.0,240.0,262.0,2199.836
2199846.0,240.0,33.0,233.0,258.0,2199.846
2199856.0,244.0,33.0,241.0,267.0,2199.856
2199866.0,234.0,33.0,228.0,255.0,2199.866
2199876.0,243.0,33.0,243.0,274.0,2199.876
2199886.0,245.0,33.0,246.0,278.0,2199.886
2199896.0,237.0,33.0,232.0,267.0,2199.896
2199906.0,238.0,33.0,226.0,259.0,2199.906
2199916.0,230.0,32.0,216.0,256.0,2199.916
2199926.0,239.0,33.0,226.0,264.0,2199.926
2199936.0,239.0,34.0,226.0,262.0,2199.936
2199946.0,228.0,32.0,217.0,256.0,2199.946
2199956.0,229.0,33.0,217.0,256.0,2199.956
2199966.0,224.0,32.0,213.0,250.0,2199.966
2199976.0,231.0,33.0,226.0,261.0,2199.976
2199986.0,233.0,33.0,231.0,261.0,2199.986
2199996.0,228.0,33.0,218.0,247.0,2199.996
2200006.0,230.0,33.0,223.0,249.0,2200.006
2200016.0,226.0,32.0,218.0,251.0,2200.016
2200026.0,236.0,33.0,226.0,261.0,2200.026
2200036.0,240.0,33.0,236.0,270.0,2200.036
2200046.0,231.0,33.0,222.0,261.0,2200.046
2200056.0,232.0,33.0,227.0,260.0,2200.056
2200066.0,224.0,33.0,209.0,253.0,2200.066
2200076.0,232.0,33.0,217.0,260.0,2200.076
2200086.0,233.0,33.0,228.0,261.0,2200.086
2200096.0,229.0,32.0,213.0,253.0,2200.096
2200107.0,225.0,33.0,215.0,255.0,2200.107
2200117.0,221.0,33.0,208.0,253.0,2200.117
2200127.0,224.0,33.0,203.0,254.0,2200.127
2200137.0,225.0,32.0,216.0,252.0,2200.137
2200147.0,221.0,32.0,197.0,246.0,2200.147
2200157.0,228.0,33.0,208.0,249.0,2200.157
2200167.0,227.0,33.0,207.0,251.0,2200.167
2200177.0,234.0,33.0,210.0,258.0,2200.177
2200187.0,232.0,33.0,226.0,254.0,2200.187
2200197.0,227.0,32.0,208.0,244.0,2200.197
2200207.0,230.0,32.0,223.0,246.0,2200.207
2200217.0,228.0,33.0,220.0,242.0,2200.217
2200227.0,235.0,31.0,220.0,248.0,2200.227
2200237.0,236.0,33.0,240.0,253.0,2200.237
2200247.0,224.0,32.0,217.0,238.0,2200.247
2200257.0,229.0,32.0,233.0,245.0,2200.257
2200267.0,228.0,32.0,231.0,247.0,2200.267
2200278.0,232.0,32.0,230.0,251.0,2200.278
2200288.0,234.0,32.0,253.0,256.0,2200.288
2200298.0,226.0,32.0,232.0,244.0,2200.298
2200308.0,231.0,32.0,246.0,250.0,2200.308
2200318.0,237.0,33.0,262.0,261.0,2200.318
2200328.0,235.0,32.0,250.0,259.0,2200.328
2200338.0,235.0,31.0,270.0,259.0,2200.338
2200348.0,226.0,32.0,250.0,247.0,2200.348
2200358.0,226.0,31.0,265.0,256.0,2200.358
2200368.0,229.0,32.0,282.0,257.0,2200.368
2200378.0,231.0,32.0,267.0,257.0,2200.378
2200388.0,230.0,32.0,287.0,253.0,2200.388
2200398.0,222.0,32.0,259.0,244.0,2200.398
2200408.0,224.0,32.0,279.0,249.0,2200.408
2200418.0,230.0,31.0,286.0,255.0,2200.418
2200428.0,230.0,31.0,273.0,254.0,2200.428
2200438.0,228.0,32.0,293.0,247.0,2200.438
2200448.0,224.0,33.0,276.0,240.0,2200.448
2200458.0,225.0,32.0,293.0,244.0,2200.458
2200468.0,230.0,32.0,303.0,252.0,2200.468
2200478.0,229.0,31.0,286.0,249.0,2200.478
2200488.0,227.0,31.0,306.0,246.0,2200.488
2200498.0,222.0,31.0,283.0,241.0,2200.498
2200508.0,225.0,33.0,300.0,248.0,2200.508
2200518.0,230.0,32.0,307.0,250.0,2200.518
2200528.0,227.0,31.0,288.0,244.0,2200.528
2200538.0,227.0,32.0,316.0,246.0,2200.538
2200548.0,222.0,31.0,290.0,238.0,2200.548
2200558.0,224.0,32.0,305.0,246.0,2200.558
2200568.0,230.0,32.0,320.0,255.0,2200.568
2200578.0,229.0,32.0,301.0,252.0,2200.578
2200588.0,228.0,31.0,325.0,247.0,2200.588
2200598.0,220.0,31.0,299.0,237.0,2200.598
2200608.0,224.0,31.0,317.0,243.0,2200.608
2200619.0,231.0,32.0,328.0,253.0,2200.619
2200629.0,228.0,31.0,307.0,248.0,2200.629
2200639.0,227.0,32.0,330.0,248.0,2200.639
2200649.0,222.0,30.0,312.0,243.0,2200.649
2200659.0,228.0,32.0,319.0,252.0,2200.659
2200669.0,231.0,32.0,339.0,252.0,2200.669
2200679.0,226.0,31.0,315.0,245.0,2200.679
2200689.0,226.0,32.0,334.0,244.0,2200.689
2200699.0,220.0,32.0,321.0,242.0,2200.699
2200709.0,224.0,32.0,329.0,247.0,2200.709
2200719.0,232.0,32.0,346.0,251.0,2200.719
2200729.0,226.0,32.0,320.0,244.0,2200.729
2200739.0,227.0,32.0,340.0,244.0,2200.739
2200749.0,219.0,31.0,319.0,237.0,2200.749
2200759.0,226.0,32.0,329.0,249.0,2200.759
2200769.0,230.0,32.0,345.0,252.0,2200.769
2200779.0,224.0,31.0,318.0,245.0,2200.779
2200790.0,224.0,32.0,335.0,245.0,2200.79
2200800.0,222.0,31.0,324.0,242.0,2200.8
2200810.0,227.0,31.0,323.0,246.0,2200.81
2200820.0,227.0,32.0,347.0,244.0,2200.82
2200830.0,219.0,33.0,318.0,237.0,2200.83
2200840.0,222.0,32.0,339.0,240.0,2200.84
2200850.0,221.0,32.0,332.0,241.0,2200.85
2200860.0,226.0,32.0,325.0,247.0,2200.86
2200870.0,225.0,31.0,346.0,244.0,2200.87
2200880.0,220.0,32.0,316.0,240.0,2200.88
2200890.0,220.0,32.0,337.0,240.0,2200.89
2200900.0,220.0,32.0,334.0,245.0,2200.9
2200910.0,224.0,32.0,326.0,248.0,2200.91
2200920.0,225.0,33.0,350.0,250.0,2200.92
2200930.0,220.0,32.0,322.0,243.0,2200.93
2200940.0,220.0,33.0,339.0,244.0,2200.94
2200950.0,222.0,32.0,335.0,246.0,2200.95
2200960.0,225.0,33.0,328.0,252.0,2200.96
2200970.0,226.0,32.0,343.0,249.0,2200.97
2200980.0,218.0,32.0,317.0,240.0,2200.98
2200990.0,220.0,32.0,335.0,243.0,2200.99
2201000.0,220.0,33.0,332.0,246.0,2201.0
2201010.0,223.0,32.0,324.0,251.0,2201.01
2201020.0,225.0,33.0,344.0,253.0,2201.02
2201030.0,217.0,32.0,316.0,243.0,2201.03
2201040.0,218.0,32.0,332.0,244.0,2201.04
2201050.0,217.0,32.0,323.0,244.0,2201.05
2201060.0,225.0,31.0,320.0,251.0,2201.06
2201070.0,224.0,33.0,340.0,248.0,2201.07
2201080.0,218.0,32.0,308.0,243.0,2201.08
2201090.0,219.0,34.0,328.0,247.0,2201.09
2201100.0,219.0,32.0,320.0,246.0,2201.1
2201110.0,224.0,32.0,315.0,251.0,2201.11
2201120.0,224.0,33.0,335.0,249.0,2201.12
2201131.0,217.0,33.0,304.0,243.0,2201.131
2201141.0,220.0,32.0,319.0,245.0,2201.141
2201151.0,226.0,33.0,324.0,255.0,2201.151
2201161.0,225.0,32.0,306.0,250.0,2201.161
2201171.0,223.0,32.0,324.0,247.0,2201.171
2201181.0,217.0,33.0,300.0,242.0,2201.181
2201191.0,219.0,33.0,310.0,243.0,2201.191
2201201.0,224.0,33.0,317.0,249.0,2201.201
2201211.0,222.0,33.0,297.0,247.0,2201.211
2201221.0,223.0,34.0,321.0,246.0,2201.221
2201231.0,215.0,32.0,293.0,239.0,2201.231
2201241.0,218.0,33.0,303.0,244.0,2201.241
2201251.0,226.0,33.0,311.0,253.0,2201.251
2201261.0,223.0,33.0,292.0,251.0,2201.261
2201271.0,223.0,32.0,308.0,245.0,2201.271
2201281.0,214.0,32.0,281.0,237.0,2201.281
2201291.0,218.0,32.0,291.0,243.0,2201.291
2201302.0,224.0,33.0,300.0,247.0,2201.302
2201312.0,221.0,32.0,277.0,243.0,2201.312
2201322.0,219.0,33.0,294.0,242.0,2201.322
2201332.0,213.0,32.0,274.0,238.0,2201.332
2201342.0,221.0,33.0,280.0,250.0,2201.342
2201352.0,224.0,32.0,290.0,253.0,2201.352
2201362.0,219.0,32.0,266.0,246.0,2201.362
2201372.0,219.0,32.0,282.0,246.0,2201.372
2201382.0,216.0,32.0,264.0,244.0,2201.382
2201392.0,219.0,33.0,270.0,247.0,2201.392
2201402.0,224.0,33.0,279.0,250.0,2201.402
2201412.0,218.0,33.0,257.0,245.0,2201.412
2201422.0,219.0,32.0,274.0,244.0,2201.422
2201432.0,213.0,33.0,254.0,239.0,2201.432
2201442.0,221.0,32.0,265.0,249.0,2201.442
2201452.0,225.0,33.0,275.0,253.0,2201.452
2201462.0,220.0,32.0,253.0,249.0,2201.462
2201472.0,221.0,33.0,271.0,252.0,2201.472
2201482.0,214.0,32.0,252.0,244.0,2201.482
2201492.0,222.0,32.0,261.0,255.0,2201.492
2201502.0,226.0,33.0,274.0,256.0,2201.502
2201512.0,220.0,31.0,247.0,249.0,2201.512
2201522.0,221.0,33.0,260.0,249.0,2201.522
2201532.0,215.0,32.0,241.0,244.0,2201.532
2201542.0,223.0,33.0,250.0,255.0,2201.542
2201552.0,226.0,34.0,260.0,254.0,2201.552
2201562.0,221.0,33.0,239.0,250.0,2201.562
2201572.0,221.0,33.0,251.0,247.0,2201.572
2201582.0,215.0,33.0,233.0,247.0,2201.582
2201592.0,223.0,33.0,242.0,257.0,2201.592
2201602.0,225.0,34.0,249.0,257.0,2201.602
2201612.0,220.0,32.0,233.0,250.0,2201.612
2201622.0,220.0,32.0,241.0,250.0,2201.622
2201632.0,215.0,33.0,227.0,247.0,2201.632
2201643.0,222.0,33.0,233.0,253.0,2201.643
2201653.0,224.0,33.0,243.0,252.0,2201.653
2201663.0,217.0,33.0,220.0,246.0,2201.663
2201673.0,218.0,33.0,226.0,244.0,2201.673
2201683.0,221.0,33.0,224.0,250.0,2201.683
2201693.0,223.0,32.0,226.0,253.0,2201.693
2201703.0,224.0,33.0,235.0,251.0,2201.703
2201713.0,216.0,32.0,213.0,243.0,2201.713
2201723.0,217.0,33.0,219.0,244.0,2201.723
2201733.0,216.0,33.0,211.0,246.0,2201.733
2201743.0,223.0,32.0,216.0,253.0,2201.743
2201753.0,224.0,33.0,227.0,250.0,2201.753
2201763.0,217.0,32.0,207.0,245.0,2201.763
2201773.0,218.0,33.0,215.0,247.0,2201.773
2201783.0,218.0,33.0,209.0,248.0,2201.783
2201793.0,223.0,34.0,211.0,252.0,2201.793
2201803.0,223.0,34.0,219.0,249.0,2201.803
2201814.0,215.0,32.0,199.0,243.0,2201.814
2201824.0,218.0,33.0,205.0,246.0,2201.824
2201834.0,223.0,34.0,210.0,254.0,2201.834
2201844.0,221.0,33.0,205.0,251.0,2201.844
2201854.0,219.0,34.0,211.0,249.0,2201.854
2201864.0,214.0,33.0,201.0,244.0,2201.864
2201874.0,217.0,33.0,207.0,248.0,2201.874
2201884.0,224.0,33.0,210.0,254.0,2201.884
2201894.0,222.0,33.0,204.0,252.0,2201.894
2201904.0,222.0,33.0,210.0,250.0,2201.904
2201914.0,214.0,33.0,194.0,245.0,2201.914
2201924.0,219.0,33.0,201.0,251.0,2201.924
2201934.0,225.0,33.0,204.0,255.0,2201.934
2201944.0,223.0,33.0,202.0,253.0,2201.944
2201954.0,223.0,33.0,207.0,251.0,2201.954
2201964.0,214.0,33.0,193.0,243.0,2201.964
2201974.0,219.0,33.0,199.0,251.0,2201.974
2201984.0,223.0,34.0,198.0,255.0,2201.984
2201994.0,223.0,32.0,201.0,256.0,2201.994
2202004.0,222.0,33.0,202.0,254.0,2202.004
2202014.0,215.0,33.0,190.0,245.0,2202.014
2202024.0,220.0,33.0,201.0,254.0,2202.024
2202034.0,223.0,33.0,202.0,256.0,2202.034
2202044.0,223.0,33.0,202.0,254.0,2202.044
2202054.0,221.0,34.0,203.0,250.0,2202.054
2202064.0,213.0,32.0,192.0,241.0,2202.064
2202074.0,217.0,33.0,197.0,245.0,2202.074
2202084.0,224.0,33.0,202.0,253.0,2202.084
2202094.0,221.0,32.0,199.0,250.0,2202.094
2202104.0,220.0,33.0,201.0,249.0,2202.104
2202114.0,215.0,33.0,193.0,244.0,2202.114
2202124.0,218.0,32.0,199.0,248.0,2202.124
2202134.0,224.0,32.0,203.0,256.0,2202.134
2202144.0,221.0,32.0,202.0,252.0,2202.144
2202155.0,220.0,33.0,202.0,249.0,2202.155
2202165.0,213.0,33.0,193.0,243.0,2202.165
2202175.0,222.0,33.0,203.0,254.0,2202.175
2202185.0,225.0,33.0,204.0,251.0,2202.185
2202195.0,217.0,33.0,192.0,242.0,2202.195
2202205.0,220.0,33.0,197.0,243.0,2202.205
2202215.0,213.0,33.0,188.0,239.0,2202.215
2202225.0,220.0,33.0,199.0,247.0,2202.225
2202235.0,224.0,33.0,203.0,252.0,2202.235
2202245.0,219.0,33.0,198.0,248.0,2202.245
2202255.0,220.0,32.0,198.0,246.0,2202.255
2202265.0,214.0,33.0,194.0,243.0,2202.265
2202275.0,223.0,33.0,207.0,253.0,2202.275
2202285.0,224.0,33.0,208.0,255.0,2202.285
2202295.0,219.0,32.0,205.0,249.0,2202.295
2202305.0,219.0,34.0,204.0,250.0,2202.305
2202315.0,215.0,32.0,200.0,245.0,2202.315
2202326.0,222.0,33.0,207.0,252.0,2202.326
2202336.0,224.0,33.0,206.0,251.0,2202.336
2202346.0,215.0,33.0,196.0,242.0,2202.346
2202356.0,217.0,33.0,198.0,244.0,2202.356
2202366.0,220.0,34.0,200.0,250.0,2202.366
2202376.0,223.0,32.0,207.0,251.0,2202.376
2202386.0,224.0,33.0,207.0,249.0,2202.386
2202396.0,216.0,33.0,201.0,243.0,2202.396
2202406.0,218.0,33.0,204.0,245.0,2202.406
2202416.0,218.0,33.0,204.0,247.0,2202.416
2202426.0,223.0,33.0,208.0,251.0,2202.426
2202436.0,223.0,34.0,207.0,247.0,2202.436
2202446.0,215.0,32.0,200.0,239.0,2202.446
2202456.0,217.0,33.0,202.0,244.0,2202.456
2202466.0,219.0,33.0,203.0,245.0,2202.466
2202476.0,222.0,33.0,210.0,250.0,2202.476
2202486.0,222.0,33.0,206.0,247.0,2202.486
2202496.0,217.0,32.0,202.0,242.0,2202.496
2202506.0,218.0,33.0,202.0,245.0,2202.506
2202516.0,220.0,33.0,209.0,251.0,2202.516
2202526.0,224.0,32.0,214.0,252.0,2202.526
2202536.0,222.0,34.0,209.0,247.0,2202.536
2202546.0,216.0,32.0,206.0,241.0,2202.546
2202556.0,218.0,33.0,207.0,243.0,2202.556
2202566.0,221.0,33.0,209.0,246.0,2202.566
2202576.0,222.0,32.0,216.0,249.0,2202.576
2202586.0,224.0,34.0,215.0,248.0,2202.586
2202596.0,218.0,33.0,212.0,242.0,2202.596
2202606.0,218.0,33.0,210.0,245.0,2202.606
2202616.0,222.0,32.0,215.0,251.0,2202.616
2202626.0,223.0,33.0,221.0,253.0,2202.626
2202636.0,226.0,32.0,220.0,253.0,2202.636
2202646.0,216.0,33.0,214.0,245.0,2202.646
2202656.0,218.0,33.0,216.0,247.0,2202.656
2202667.0,222.0,33.0,218.0,253.0,2202.667
2202677.0,222.0,32.0,222.0,251.0,2202.677
2202687.0,221.0,34.0,216.0,248.0,2202.687
2202697.0,212.0,32.0,211.0,241.0,2202.697
2202707.0,219.0,32.0,217.0,251.0,2202.707
2202717.0,222.0,33.0,221.0,256.0,2202.717
2202727.0,221.0,33.0,223.0,253.0,2202.727
2202737.0,220.0,33.0,215.0,249.0,2202.737
2202747.0,212.0,32.0,211.0,242.0,2202.747
2202757.0,216.0,33.0,213.0,247.0,2202.757
2202767.0,223.0,32.0,221.0,254.0,2202.767
2202777.0,220.0,32.0,224.0,250.0,2202.777
2202787.0,221.0,31.0,218.0,248.0,2202.787
2202797.0,214.0,31.0,218.0,243.0,2202.797
2202807.0,218.0,32.0,219.0,247.0,2202.807
2202817.0,224.0,34.0,225.0,254.0,2202.817
2202827.0,220.0,32.0,227.0,248.0,2202.827
2202838.0,220.0,32.0,221.0,247.0,2202.838
2202848.0,212.0,32.0,218.0,241.0,2202.848
2202858.0,221.0,31.0,229.0,250.0,2202.858
2202868.0,224.0,33.0,228.0,251.0,2202.868
2202878.0,217.0,32.0,227.0,245.0,2202.878
2202888.0,219.0,32.0,223.0,245.0,2202.888
2202898.0,213.0,32.0,221.0,240.0,2202.898
2202908.0,222.0,32.0,230.0,248.0,2202.908
2202918.0,225.0,31.0,228.0,250.0,2202.918
2202928.0,220.0,31.0,230.0,245.0,2202.928
2202938.0,219.0,32.0,223.0,244.0,2202.938
2202948.0,214.0,31.0,222.0,239.0,2202.948
2202958.0,222.0,32.0,228.0,247.0,2202.958
2202968.0,224.0,32.0,227.0,249.0,2202.968
2202978.0,220.0,31.0,229.0,244.0,2202.978
2202988.0,220.0,32.0,222.0,244.0,2202.988
2202998.0,215.0,32.0,224.0,243.0,2202.998
2203008.0,220.0,32.0,227.0,247.0,2203.008
2203018.0,224.0,32.0,230.0,252.0,2203.018
2203028.0,219.0,31.0,230.0,246.0,2203.028
2203038.0,220.0,31.0,227.0,247.0,2203.038
2203048.0,217.0,31.0,226.0,246.0,2203.048
2203058.0,221.0,31.0,230.0,248.0,2203.058
2203068.0,225.0,32.0,230.0,251.0,2203.068
2203078.0,219.0,32.0,232.0,244.0,2203.078
2203088.0,220.0,32.0,228.0,245.0,2203.088
2203098.0,215.0,32.0,229.0,242.0,2203.098
2203108.0,223.0,31.0,240.0,249.0,2203.108
2203118.0,225.0,32.0,236.0,251.0,2203.118
2203128.0,219.0,31.0,238.0,245.0,2203.128
2203138.0,221.0,33.0,229.0,246.0,2203.138
2203148.0,215.0,32.0,230.0,241.0,2203.148
2203158.0,222.0,31.0,237.0,252.0,2203.158
2203168.0,225.0,32.0,234.0,251.0,2203.168
2203179.0,217.0,31.0,232.0,246.0,2203.179
2203189.0,218.0,31.0,228.0,247.0,2203.189
2203199.0,220.0,32.0,232.0,249.0,2203.199
2203209.0,223.0,32.0,239.0,252.0,2203.209
2203219.0,222.0,32.0,232.0,250.0,2203.219
2203229.0,217.0,32.0,238.0,246.0,2203.229
2203239.0,219.0,31.0,232.0,247.0,2203.239
2203249.0,220.0,32.0,236.0,251.0,2203.249
2203259.0,222.0,32.0,241.0,254.0,2203.259
2203269.0,225.0,33.0,235.0,251.0,2203.269
2203279.0,216.0,32.0,235.0,244.0,2203.279
2203289.0,217.0,32.0,230.0,245.0,2203.289
2203299.0,222.0,31.0,237.0,251.0,2203.299
2203309.0,222.0,32.0,241.0,253.0,2203.309
2203319.0,223.0,32.0,234.0,249.0,2203.319
2203329.0,216.0,33.0,235.0,245.0,2203.329
2203339.0,218.0,32.0,230.0,246.0,2203.339
2203350.0,223.0,32.0,238.0,253.0,2203.35
2203360.0,222.0,32.0,242.0,252.0,2203.36
2203370.0,222.0,31.0,234.0,249.0,2203.37
2203380.0,214.0,31.0,234.0,241.0,2203.38
2203390.0,220.0,32.0,239.0,252.0,2203.39
2203400.0,223.0,32.0,241.0,254.0,2203.4
2203410.0,222.0,32.0,245.0,253.0,2203.41
2203420.0,221.0,32.0,236.0,250.0,2203.42
2203430.0,214.0,31.0,237.0,242.0,2203.43
2203440.0,218.0,32.0,240.0,247.0,2203.44
2203450.0,224.0,32.0,246.0,254.0,2203.45
2203460.0,223.0,32.0,248.0,249.0,2203.46
2203470.0,221.0,32.0,237.0,245.0,2203.47
2203480.0,215.0,32.0,241.0,240.0,2203.48
2203490.0,219.0,32.0,242.0,245.0,2203.49
2203500.0,224.0,33.0,246.0,252.0,2203.5
2203510.0,222.0,32.0,246.0,248.0,2203.51
2203520.0,223.0,32.0,239.0,247.0,2203.52
2203530.0,216.0,32.0,239.0,240.0,2203.53
2203540.0,220.0,32.0,242.0,248.0,2203.54
2203550.0,226.0,32.0,246.0,253.0,2203.55
2203560.0,222.0,31.0,247.0,250.0,2203.56
2203570.0,222.0,32.0,239.0,249.0,2203.57
2203580.0,216.0,32.0,240.0,243.0,2203.58
2203590.0,221.0,32.0,241.0,250.0,2203.59
2203600.0,226.0,32.0,244.0,254.0,2203.6
2203610.0,223.0,32.0,246.0,250.0,2203.61
2203620.0,223.0,32.0,238.0,248.0,2203.62
2203630.0,214.0,32.0,238.0,240.0,2203.63
2203640.0,221.0,32.0,242.0,249.0,2203.64
2203650.0,224.0,33.0,244.0,253.0,2203.65
2203660.0,223.0,32.0,246.0,251.0,2203.66
2203670.0,222.0,32.0,237.0,248.0,2203.67
2203680.0,215.0,32.0,237.0,240.0,2203.68
2203691.0,222.0,32.0,240.0,249.0,2203.691
2203701.0,227.0,33.0,241.0,253.0,2203.701
2203711.0,222.0,32.0,244.0,246.0,2203.711
2203721.0,221.0,32.0,241.0,247.0,2203.721
2203731.0,218.0,32.0,242.0,246.0,2203.731
2203741.0,223.0,32.0,247.0,250.0,2203.741
2203751.0,227.0,33.0,244.0,252.0,2203.751
2203761.0,219.0,33.0,245.0,244.0,2203.761
2203771.0,219.0,33.0,236.0,243.0,2203.771
2203781.0,214.0,32.0,235.0,238.0,2203.781
2203791.0,223.0,32.0,246.0,247.0,2203.791
2203801.0,226.0,33.0,241.0,248.0,2203.801
2203811.0,221.0,31.0,243.0,241.0,2203.811
2203821.0,221.0,32.0,234.0,243.0,2203.821
2203831.0,215.0,32.0,236.0,240.0,2203.831
2203841.0,223.0,33.0,244.0,250.0,2203.841
2203851.0,226.0,32.0,240.0,249.0,2203.851
2203862.0,218.0,32.0,239.0,240.0,2203.862
2203872.0,220.0,32.0,236.0,242.0,2203.872
2203882.0,220.0,33.0,240.0,246.0,2203.882
2203892.0,223.0,32.0,244.0,247.0,2203.892
2203902.0,223.0,34.0,236.0,246.0,2203.902
2203912.0,217.0,32.0,241.0,241.0,2203.912
2203922.0,219.0,32.0,237.0,244.0,2203.922
2203932.0,221.0,33.0,243.0,248.0,2203.932
2203942.0,224.0,31.0,248.0,249.0,2203.942
2203952.0,225.0,33.0,242.0,251.0,2203.952
2203962.0,216.0,32.0,243.0,242.0,2203.962
2203972.0,218.0,33.0,241.0,243.0,2203.972
2203982.0,221.0,32.0,244.0,247.0,2203.982
2203992.0,222.0,32.0,247.0,249.0,2203.992
2204002.0,224.0,33.0,240.0,247.0,2204.002
2204012.0,214.0,33.0,242.0,240.0,2204.012
2204022.0,217.0,32.0,238.0,243.0,2204.022
2204032.0,216.0,33.0,241.0,245.0,2204.032
2204042.0,221.0,32.0,247.0,250.0,2204.042
2204052.0,222.0,32.0,236.0,246.0,2204.052
2204062.0,214.0,32.0,238.0,240.0,2204.062
2204072.0,217.0,33.0,235.0,244.0,2204.072
2204082.0,218.0,33.0,239.0,247.0,2204.082
2204092.0,222.0,32.0,244.0,251.0,2204.092
2204102.0,222.0,34.0,235.0,247.0,2204.102
2204112.0,215.0,32.0,237.0,240.0,2204.112
2204122.0,218.0,33.0,236.0,245.0,2204.122
2204132.0,221.0,32.0,241.0,248.0,2204.132
2204142.0,222.0,33.0,246.0,251.0,2204.142
2204152.0,221.0,33.0,234.0,248.0,2204.152
2204162.0,216.0,33.0,236.0,242.0,2204.162
2204172.0,218.0,32.0,231.0,244.0,2204.172
2204182.0,220.0,33.0,236.0,248.0,2204.182
2204192.0,222.0,33.0,243.0,250.0,2204.192
2204203.0,221.0,33.0,234.0,248.0,2204.203
2204213.0,214.0,32.0,236.0,240.0,2204.213
2204223.0,218.0,32.0,240.0,247.0,2204.223
2204233.0,224.0,34.0,244.0,252.0,2204.233
2204243.0,220.0,33.0,245.0,247.0,2204.243
2204253.0,222.0,34.0,240.0,247.0,2204.253
2204263.0,213.0,33.0,238.0,239.0,2204.263
2204273.0,220.0,33.0,244.0,249.0,2204.273
2204283.0,225.0,33.0,244.0,253.0,2204.283
2204293.0,222.0,33.0,248.0,250.0,2204.293
2204303.0,222.0,34.0,237.0,247.0,2204.303
2204313.0,213.0,33.0,239.0,241.0,2204.313
2204323.0,221.0,33.0,245.0,251.0,2204.323
2204333.0,223.0,34.0,245.0,252.0,2204.333
2204343.0,222.0,32.0,250.0,249.0,2204.343
2204353.0,220.0,34.0,237.0,247.0,2204.353
2204363.0,212.0,32.0,237.0,239.0,2204.363
2204374.0,221.0,33.0,244.0,250.0,2204.374
2204384.0,226.0,33.0,244.0,252.0,2204.384
2204394.0,219.0,32.0,244.0,244.0,2204.394
2204404.0,219.0,33.0,236.0,244.0,2204.404
2204414.0,218.0,32.0,242.0,246.0,2204.414
2204424.0,223.0,32.0,248.0,250.0,2204.424
2204434.0,226.0,33.0,247.0,253.0,2204.434
2204444.0,217.0,32.0,248.0,246.0,2204.444
2204454.0,220.0,32.0,241.0,247.0,2204.454
2204464.0,213.0,32.0,244.0,243.0,2204.464
2204474.0,222.0,32.0,252.0,251.0,2204.474
2204484.0,226.0,33.0,248.0,254.0,2204.484
2204494.0,218.0,32.0,249.0,246.0,2204.494
2204504.0,221.0,32.0,241.0,247.0,2204.504
2204514.0,215.0,32.0,245.0,242.0,2204.514
2204524.0,222.0,32.0,251.0,250.0,2204.524
2204534.0,225.0,33.0,244.0,250.0,2204.534
2204544.0,220.0,33.0,247.0,247.0,2204.544
2204554.0,221.0,32.0,239.0,246.0,2204.554
2204564.0,215.0,32.0,241.0,243.0,2204.564
2204574.0,222.0,32.0,246.0,250.0,2204.574
2204584.0,225.0,33.0,239.0,250.0,2204.584
2204594.0,218.0,32.0,243.0,245.0,2204.594
2204604.0,219.0,32.0,238.0,245.0,2204.604
2204614.0,215.0,33.0,240.0,244.0,2204.614
2204624.0,222.0,32.0,248.0,251.0,2204.624
2204634.0,224.0,32.0,243.0,251.0,2204.634
2204644.0,217.0,31.0,243.0,245.0,2204.644
2204654.0,217.0,33.0,233.0,242.0,2204.654
2204664.0,214.0,32.0,236.0,242.0,2204.664
2204674.0,217.0,33.0,239.0,247.0,2204.674
2204684.0,223.0,32.0,240.0,249.0,2204.684
2204694.0,215.0,32.0,240.0,242.0,2204.694
2204704.0,218.0,33.0,236.0,243.0,2204.704
2204715.0,215.0,33.0,239.0,245.0,2204.715
2204725.0,221.0,33.0,246.0,249.0,2204.725
2204735.0,221.0,33.0,237.0,247.0,2204.735
2204745.0,212.0,32.0,241.0,237.0,2204.745
2204755.0,215.0,32.0,238.0,241.0,2204.755
2204765.0,217.0,32.0,243.0,243.0,2204.765
2204775.0,221.0,32.0,247.0,247.0,2204.775
2204785.0,221.0,33.0,240.0,246.0,2204.785
2204795.0,212.0,33.0,240.0,237.0,2204.795
2204805.0,217.0,33.0,238.0,242.0,2204.805
2204815.0,219.0,32.0,243.0,244.0,2204.815
2204825.0,221.0,32.0,250.0,247.0,2204.825
2204835.0,222.0,33.0,241.0,246.0,2204.835
2204845.0,214.0,32.0,243.0,241.0,2204.845
2204855.0,217.0,33.0,238.0,243.0,2204.855
2204865.0,220.0,33.0,244.0,248.0,2204.865
2204875.0,221.0,32.0,248.0,249.0,2204.875
2204886.0,221.0,33.0,239.0,247.0,2204.886
2204896.0,213.0,32.0,240.0,238.0,2204.896
2204906.0,218.0,32.0,242.0,247.0,2204.906
2204916.0,224.0,32.0,246.0,252.0,2204.916
2204926.0,219.0,32.0,245.0,246.0,2204.926
2204936.0,222.0,33.0,238.0,246.0,2204.936
2204946.0,212.0,32.0,237.0,237.0,2204.946
2204956.0,218.0,33.0,240.0,246.0,2204.956
2204966.0,225.0,32.0,243.0,250.0,2204.966
2204976.0,220.0,33.0,246.0,247.0,2204.976
2204986.0,221.0,33.0,237.0,246.0,2204.986
2204996.0,211.0,33.0,237.0,238.0,2204.996
2205006.0,219.0,32.0,244.0,247.0,2205.006
2205016.0,223.0,33.0,245.0,252.0,2205.016
2205026.0,221.0,32.0,248.0,248.0,2205.026
2205036.0,221.0,32.0,238.0,246.0,2205.036
2205046.0,212.0,32.0,238.0,239.0,2205.046
2205056.0,217.0,33.0,241.0,245.0,2205.056
2205066.0,223.0,32.0,248.0,253.0,2205.066
2205076.0,220.0,32.0,251.0,250.0,2205.076
2205086.0,220.0,33.0,240.0,248.0,2205.086
2205096.0,212.0,31.0,242.0,242.0,2205.096
2205106.0,217.0,33.0,242.0,245.0,2205.106
2205116.0,224.0,32.0,248.0,252.0,2205.116
2205126.0,219.0,33.0,249.0,248.0,2205.126
2205136.0,220.0,32.0,240.0,247.0,2205.136
2205146.0,212.0,32.0,241.0,240.0,2205.146
2205156.0,218.0,32.0,241.0,246.0,2205.156
2205166.0,224.0,33.0,244.0,251.0,2205.166
2205176.0,219.0,33.0,245.0,245.0,2205.176
2205186.0,220.0,34.0,236.0,245.0,2205.186
2205196.0,211.0,32.0,235.0,236.0,2205.196
2205206.0,218.0,33.0,240.0,246.0,2205.206
2205216.0,224.0,33.0,245.0,250.0,2205.216
2205227.0,218.0,33.0,244.0,245.0,2205.227
2205237.0,218.0,33.0,237.0,244.0,2205.237
2205247.0,215.0,33.0,243.0,245.0,2205.247
2205257.0,222.0,33.0,250.0,252.0,2205.257
2205267.0,225.0,33.0,244.0,250.0,2205.267
2205277.0,218.0,32.0,249.0,246.0,2205.277
2205287.0,220.0,33.0,241.0,245.0,2205.287
2205297.0,215.0,32.0,242.0,245.0,2205.297
2205307.0,223.0,32.0,251.0,252.0,2205.307
2205317.0,225.0,34.0,245.0,253.0,2205.317
2205327.0,218.0,32.0,244.0,245.0,2205.327
2205337.0,219.0,33.0,238.0,244.0,2205.337
2205347.0,218.0,33.0,242.0,244.0,2205.347
2205357.0,220.0,32.0,246.0,249.0,2205.357
2205367.0,224.0,33.0,243.0,250.0,2205.367
2205377.0,217.0,33.0,240.0,245.0,2205.377
2205387.0,218.0,32.0,234.0,244.0,2205.387
2205398.0,217.0,32.0,238.0,245.0,2205.398
2205408.0,222.0,32.0,247.0,251.0,2205.408
2205418.0,222.0,33.0,237.0,249.0,2205.418
2205428.0,213.0,32.0,237.0,242.0,2205.428
2205438.0,217.0,32.0,237.0,247.0,2205.438
2205448.0,219.0,33.0,241.0,250.0,2205.448
2205458.0,223.0,32.0,247.0,253.0,2205.458
2205468.0,222.0,33.0,237.0,250.0,2205.468
2205478.0,215.0,31.0,239.0,245.0,2205.478
2205488.0,219.0,33.0,237.0,250.0,2205.488
2205498.0,222.0,33.0,245.0,257.0,2205.498
2205508.0,223.0,34.0,249.0,258.0,2205.508
2205518.0,223.0,32.0,240.0,254.0,2205.518
2205528.0,216.0,32.0,242.0,247.0,2205.528
2205538.0,220.0,32.0,238.0,248.0,2205.538
2205548.0,222.0,33.0,244.0,252.0,2205.548
2205558.0,222.0,33.0,249.0,254.0,2205.558
2205568.0,223.0,34.0,240.0,253.0,2205.568
2205578.0,215.0,33.0,241.0,246.0,2205.578
2205588.0,217.0,33.0,231.0,244.0,2205.588
2205598.0,222.0,33.0,240.0,251.0,2205.598
2205608.0,222.0,33.0,244.0,251.0,2205.608
2205618.0,225.0,33.0,238.0,252.0,2205.618
2205628.0,216.0,32.0,239.0,244.0,2205.628
2205638.0,218.0,34.0,236.0,246.0,2205.638
2205648.0,223.0,32.0,244.0,252.0,2205.648
2205658.0,224.0,33.0,247.0,253.0,2205.658
2205668.0,225.0,33.0,238.0,249.0,2205.668
2205678.0,216.0,33.0,240.0,242.0,2205.678
2205688.0,218.0,33.0,234.0,245.0,2205.688
2205698.0,220.0,34.0,240.0,248.0,2205.698
2205708.0,224.0,32.0,245.0,250.0,2205.708
2205718.0,223.0,33.0,236.0,248.0,2205.718
2205728.0,215.0,32.0,242.0,241.0,2205.728
2205739.0,217.0,33.0,241.0,248.0,2205.739
2205749.0,224.0,33.0,249.0,253.0,2205.749
2205759.0,221.0,33.0,252.0,251.0,2205.759
2205769.0,221.0,33.0,244.0,247.0,2205.769
2205779.0,213.0,33.0,244.0,242.0,2205.779
2205789.0,218.0,33.0,242.0,246.0,2205.789
2205799.0,225.0,33.0,247.0,251.0,2205.799
2205809.0,221.0,33.0,251.0,247.0,2205.809
2205819.0,221.0,33.0,242.0,246.0,2205.819
2205829.0,215.0,34.0,245.0,240.0,2205.829
2205839.0,219.0,32.0,244.0,247.0,2205.839
2205849.0,225.0,33.0,247.0,252.0,2205.849
2205859.0,223.0,32.0,250.0,247.0,2205.859
2205869.0,222.0,33.0,241.0,246.0,2205.869
2205879.0,215.0,32.0,244.0,239.0,2205.879
2205889.0,221.0,33.0,248.0,249.0,2205.889
2205899.0,227.0,33.0,252.0,254.0,2205.899
2205910.0,222.0,32.0,257.0,250.0,2205.91
2205920.0,222.0,32.0,249.0,247.0,2205.92
2205930.0,218.0,32.0,247.0,246.0,2205.93
2205940.0,224.0,32.0,255.0,253.0,2205.94
2205950.0,225.0,34.0,249.0,254.0,2205.95
2205960.0,220.0,33.0,253.0,250.0,2205.96
2205970.0,221.0,32.0,245.0,249.0,2205.97
2205980.0,217.0,32.0,249.0,248.0,2205.98
2205990.0,225.0,32.0,255.0,255.0,2205.99
2206000.0,226.0,33.0,247.0,253.0,2206.0
2206010.0,220.0,32.0,248.0,247.0,2206.01
2206020.0,221.0,33.0,243.0,249.0,2206.02
2206030.0,220.0,32.0,247.0,249.0,2206.03
2206040.0,222.0,32.0,250.0,253.0,2206.04
2206050.0,227.0,33.0,248.0,254.0,2206.05
2206060.0,218.0,32.0,248.0,246.0,2206.06
2206070.0,220.0,32.0,241.0,246.0,2206.07
2206080.0,215.0,33.0,241.0,244.0,2206.08
2206090.0,223.0,32.0,250.0,252.0,2206.09
2206100.0,226.0,32.0,242.0,250.0,2206.1
2206110.0,218.0,32.0,242.0,243.0,2206.11
2206120.0,219.0,31.0,237.0,244.0,2206.12
2206130.0,214.0,32.0,240.0,242.0,2206.13
2206140.0,223.0,32.0,248.0,253.0,2206.14
2206150.0,224.0,33.0,242.0,253.0,2206.15
2206160.0,217.0,32.0,246.0,246.0,2206.16
2206170.0,219.0,32.0,237.0,249.0,2206.17
2206180.0,216.0,32.0,241.0,246.0,2206.18
2206190.0,222.0,32.0,249.0,254.0,2206.19
2206200.0,224.0,33.0,242.0,253.0,2206.2
2206210.0,219.0,33.0,247.0,249.0,2206.21
2206220.0,219.0,32.0,239.0,246.0,2206.22
2206230.0,216.0,32.0,241.0,246.0,2206.23
2206240.0,223.0,32.0,248.0,253.0,2206.24
2206251.0,224.0,33.0,238.0,250.0,2206.251
2206261.0,215.0,32.0,240.0,242.0,2206.261
2206271.0,217.0,33.0,237.0,246.0,2206.271
2206281.0,222.0,32.0,246.0,254.0,2206.281
2206291.0,221.0,32.0,249.0,253.0,2206.291
2206301.0,224.0,33.0,242.0,254.0,2206.301
2206311.0,216.0,31.0,244.0,246.0,2206.311
2206321.0,218.0,32.0,239.0,248.0,2206.321
2206331.0,223.0,33.0,246.0,256.0,2206.331
2206341.0,223.0,33.0,250.0,255.0,2206.341
2206351.0,223.0,32.0,244.0,250.0,2206.351
2206361.0,214.0,32.0,244.0,243.0,2206.361
2206371.0,219.0,32.0,245.0,247.0,2206.371
2206381.0,220.0,33.0,247.0,250.0,2206.381
2206391.0,222.0,32.0,252.0,254.0,2206.391
2206401.0,223.0,33.0,244.0,251.0,2206.401
2206411.0,214.0,32.0,244.0,244.0,2206.411
2206422.0,217.0,33.0,241.0,248.0,2206.422
2206432.0,225.0,32.0,253.0,256.0,2206.432
2206442.0,220.0,32.0,251.0,252.0,2206.442
2206452.0,220.0,32.0,240.0,248.0,2206.452
2206462.0,213.0,33.0,240.0,243.0,2206.462
2206472.0,218.0,32.0,242.0,248.0,2206.472
2206482.0,224.0,33.0,247.0,254.0,2206.482
2206492.0,219.0,33.0,249.0,250.0,2206.492
2206502.0,221.0,31.0,240.0,248.0,2206.502
2206512.0,212.0,33.0,240.0,241.0,2206.512
2206522.0,218.0,32.0,243.0,248.0,2206.522
2206532.0,224.0,34.0,245.0,253.0,2206.532
2206542.0,219.0,32.0,246.0,248.0,2206.542
2206552.0,221.0,32.0,237.0,248.0,2206.552
2206562.0,213.0,32.0,238.0,241.0,2206.562
2206572.0,220.0,32.0,243.0,252.0,2206.572
2206582.0,224.0,32.0,245.0,255.0,2206.582
2206592.0,220.0,33.0,247.0,254.0,2206.592
2206602.0,220.0,32.0,238.0,249.0,2206.602
2206612.0,211.0,32.0,239.0,241.0,2206.612
2206622.0,219.0,32.0,247.0,250.0,2206.622
2206632.0,224.0,33.0,246.0,253.0,2206.632
2206642.0,220.0,33.0,247.0,249.0,2206.642
2206652.0,220.0,33.0,239.0,247.0,2206.652
2206662.0,211.0,33.0,239.0,241.0,2206.662
2206672.0,219.0,32.0,243.0,250.0,2206.672
2206682.0,222.0,33.0,246.0,251.0,2206.682
2206692.0,220.0,32.0,249.0,246.0,2206.692
2206702.0,219.0,33.0,238.0,245.0,2206.702
2206712.0,211.0,32.0,237.0,240.0,2206.712
2206722.0,216.0,34.0,238.0,248.0,2206.722
2206732.0,222.0,33.0,244.0,252.0,2206.732
2206742.0,217.0,32.0,245.0,248.0,2206.742
2206752.0,219.0,33.0,239.0,248.0,2206.752
2206763.0,211.0,33.0,239.0,244.0,2206.763
2206773.0,219.0,32.0,250.0,253.0,2206.773
2206783.0,224.0,34.0,243.0,256.0,2206.783
2206793.0,214.0,32.0,244.0,247.0,2206.793
2206803.0,217.0,32.0,239.0,249.0,2206.803
2206813.0,213.0,32.0,240.0,246.0,2206.813
2206823.0,221.0,32.0,248.0,255.0,2206.823
2206833.0,224.0,34.0,240.0,255.0,2206.833
2206843.0,215.0,32.0,242.0,248.0,2206.843
2206853.0,219.0,34.0,237.0,249.0,2206.853
2206863.0,214.0,32.0,241.0,247.0,2206.863
2206873.0,220.0,33.0,247.0,252.0,2206.873
2206883.0,225.0,34.0,241.0,251.0,2206.883
2206893.0,217.0,32.0,244.0,248.0,2206.893
2206903.0,218.0,33.0,239.0,247.0,2206.903
2206913.0,215.0,34.0,243.0,248.0,2206.913
2206923.0,221.0,33.0,248.0,254.0,2206.923
2206934.0,223.0,33.0,239.0,251.0,2206.934
2206944.0,213.0,33.0,244.0,245.0,2206.944
2206954.0,216.0,33.0,237.0,246.0,2206.954
2206964.0,220.0,33.0,245.0,252.0,2206.964
2206974.0,219.0,33.0,248.0,251.0,2206.974
2206984.0,223.0,33.0,240.0,250.0,2206.984
2206994.0,213.0,32.0,242.0,243.0,2206.994
2207004.0,215.0,33.0,239.0,245.0,2207.004
2207014.0,222.0,33.0,246.0,251.0,2207.014
2207024.0,220.0,33.0,247.0,251.0,2207.024
2207034.0,222.0,33.0,237.0,247.0,2207.034
2207044.0,212.0,33.0,240.0,242.0,2207.044
2207054.0,216.0,32.0,240.0,246.0,2207.054
2207064.0,218.0,33.0,246.0,252.0,2207.064
2207074.0,221.0,33.0,252.0,254.0,2207.074
2207084.0,222.0,33.0,240.0,251.0,2207.084
2207094.0,212.0,32.0,240.0,243.0,2207.094
2207104.0,216.0,34.0,237.0,247.0,2207.104
2207114.0,219.0,33.0,243.0,252.0,2207.114
2207124.0,220.0,33.0,247.0,253.0,2207.124
2207134.0,221.0,33.0,237.0,248.0,2207.134
2207144.0,211.0,33.0,239.0,242.0,2207.144
2207154.0,215.0,33.0,238.0,247.0,2207.154
2207164.0,219.0,33.0,245.0,253.0,2207.164
2207174.0,219.0,33.0,248.0,252.0,2207.174
2207184.0,221.0,32.0,239.0,249.0,2207.184
2207194.0,213.0,33.0,241.0,244.0,2207.194
2207204.0,218.0,33.0,239.0,247.0,2207.204
2207214.0,222.0,33.0,246.0,253.0,2207.214
2207224.0,220.0,32.0,250.0,251.0,2207.224
2207234.0,223.0,34.0,239.0,251.0,2207.234
2207244.0,213.0,32.0,240.0,242.0,2207.244
2207254.0,216.0,33.0,235.0,245.0,2207.254
2207264.0,222.0,33.0,245.0,253.0,2207.264
2207275.0,220.0,32.0,244.0,252.0,2207.275
2207285.0,221.0,33.0,236.0,249.0,2207.285
2207295.0,212.0,33.0,235.0,244.0,2207.295
2207305.0,219.0,32.0,242.0,252.0,2207.305
2207315.0,225.0,33.0,242.0,255.0,2207.315
2207325.0,219.0,32.0,246.0,252.0,2207.325
2207335.0,220.0,32.0,236.0,248.0,2207.335
2207345.0,210.0,32.0,234.0,241.0,2207.345
2207355.0,218.0,32.0,242.0,251.0,2207.355
2207365.0,223.0,33.0,241.0,254.0,2207.365
2207375.0,218.0,32.0,244.0,250.0,2207.375
2207385.0,218.0,33.0,235.0,248.0,2207.385
2207395.0,212.0,32.0,237.0,241.0,2207.395
2207405.0,216.0,32.0,239.0,246.0,2207.405
2207415.0,223.0,33.0,244.0,252.0,2207.415
2207425.0,217.0,33.0,246.0,248.0,2207.425
2207435.0,218.0,32.0,239.0,246.0,2207.435
2207446.0,212.0,33.0,240.0,242.0,2207.446
2207456.0,221.0,32.0,249.0,250.0,2207.456
2207466.0,224.0,33.0,242.0,251.0,2207.466
2207476.0,215.0,33.0,245.0,243.0,2207.476
2207486.0,217.0,33.0,240.0,244.0,2207.486
2207496.0,213.0,32.0,240.0,242.0,2207.496
