time (ms),signal 0,signal 1,signal 2,signal 3,time (sec)
2170871.0,228.0,34.0,3.0,244.0,2170.871
2170881.0,226.0,33.0,2.0,240.0,2170.881
2170891.0,223.0,33.0,4.0,237.0,2170.891
2170901.0,218.0,33.0,4.0,232.0,2170.901
2170911.0,225.0,33.0,4.0,241.0,2170.911
2170921.0,228.0,33.0,4.0,244.0,2170.921
2170931.0,225.0,32.0,3.0,239.0,2170.931
2170941.0,223.0,33.0,4.0,238.0,2170.941
2170951.0,218.0,33.0,4.0,232.0,2170.951
2170961.0,226.0,33.0,4.0,243.0,2170.961
2170971.0,228.0,33.0,4.0,243.0,2170.971
2170981.0,225.0,32.0,3.0,239.0,2170.981
2170991.0,223.0,33.0,4.0,238.0,2170.991
2171001.0,219.0,33.0,5.0,234.0,2171.001
2171011.0,223.0,33.0,4.0,240.0,2171.011
2171021.0,228.0,33.0,4.0,244.0,2171.021
2171031.0,225.0,33.0,3.0,240.0,2171.031
2171041.0,223.0,32.0,3.0,238.0,2171.041
2171051.0,218.0,33.0,3.0,233.0,2171.051
2171061.0,225.0,33.0,4.0,241.0,2171.061
2171071.0,228.0,33.0,4.0,245.0,2171.071
2171081.0,224.0,32.0,3.0,238.0,2171.081
2171091.0,223.0,33.0,3.0,240.0,2171.091
2171101.0,218.0,33.0,3.0,233.0,2171.101
2171111.0,225.0,32.0,4.0,244.0,2171.111
2171121.0,229.0,33.0,5.0,247.0,2171.121
2171131.0,225.0,33.0,4.0,240.0,2171.131
2171141.0,224.0,33.0,4.0,242.0,2171.141
2171151.0,219.0,33.0,3.0,237.0,2171.151
2171161.0,227.0,34.0,3.0,247.0,2171.161
2171171.0,229.0,32.0,4.0,249.0,2171.171
2171181.0,226.0,33.0,3.0,245.0,2171.181
2171191.0,224.0,33.0,5.0,243.0,2171.191
2171201.0,220.0,32.0,4.0,239.0,2171.201
2171211.0,228.0,32.0,4.0,248.0,2171.211
2171222.0,230.0,34.0,4.0,248.0,2171.222
2171232.0,225.0,32.0,4.0,240.0,2171.232
2171242.0,224.0,33.0,3.0,242.0,2171.242
2171252.0,226.0,33.0,5.0,245.0,2171.252
2171262.0,230.0,33.0,4.0,248.0,2171.262
2171272.0,230.0,33.0,4.0,249.0,2171.272
2171282.0,225.0,32.0,4.0,240.0,2171.282
2171292.0,225.0,33.0,3.0,242.0,2171.292
2171302.0,228.0,32.0,4.0,246.0,2171.302
2171312.0,230.0,33.0,3.0,249.0,2171.312
2171322.0,231.0,33.0,4.0,247.0,2171.322
2171332.0,225.0,33.0,3.0,240.0,2171.332
2171342.0,225.0,33.0,4.0,244.0,2171.342
2171352.0,224.0,33.0,3.0,245.0,2171.352
2171362.0,232.0,32.0,4.0,250.0,2171.362
2171372.0,230.0,33.0,3.0,249.0,2171.372
2171382.0,227.0,32.0,5.0,241.0,2171.382
2171392.0,227.0,33.0,4.0,244.0,2171.392
2171402.0,228.0,33.0,4.0,245.0,2171.402
2171412.0,233.0,33.0,4.0,250.0,2171.412
2171422.0,231.0,32.0,4.0,246.0,2171.422
2171432.0,227.0,32.0,4.0,239.0,2171.432
2171442.0,228.0,32.0,4.0,243.0,2171.442
2171452.0,231.0,33.0,4.0,245.0,2171.452
2171462.0,234.0,33.0,3.0,249.0,2171.462
2171472.0,231.0,33.0,4.0,248.0,2171.472
2171482.0,230.0,32.0,4.0,242.0,2171.482
2171492.0,229.0,32.0,4.0,244.0,2171.492
2171502.0,230.0,33.0,4.0,247.0,2171.502
2171512.0,235.0,32.0,5.0,249.0,2171.512
2171522.0,234.0,33.0,3.0,249.0,2171.522
2171532.0,229.0,32.0,4.0,241.0,2171.532
2171542.0,229.0,33.0,3.0,244.0,2171.542
2171552.0,231.0,32.0,3.0,247.0,2171.552
2171563.0,234.0,32.0,4.0,248.0,2171.563
2171573.0,232.0,33.0,5.0,245.0,2171.573
2171583.0,226.0,31.0,3.0,239.0,2171.583
2171593.0,229.0,33.0,4.0,245.0,2171.593
2171603.0,235.0,33.0,3.0,252.0,2171.603
2171613.0,234.0,32.0,4.0,248.0,2171.613
2171623.0,231.0,32.0,4.0,245.0,2171.623
2171633.0,225.0,32.0,5.0,237.0,2171.633
2171643.0,231.0,33.0,4.0,247.0,2171.643
2171653.0,233.0,32.0,5.0,250.0,2171.653
2171663.0,234.0,32.0,4.0,248.0,2171.663
2171673.0,231.0,34.0,3.0,247.0,2171.673
2171683.0,226.0,32.0,4.0,237.0,2171.683
2171693.0,229.0,33.0,3.0,245.0,2171.693
2171703.0,236.0,33.0,4.0,251.0,2171.703
2171713.0,234.0,32.0,4.0,246.0,2171.713
2171723.0,230.0,32.0,4.0,244.0,2171.723
2171734.0,225.0,33.0,3.0,238.0,2171.734
2171744.0,232.0,32.0,4.0,248.0,2171.744
2171754.0,234.0,33.0,3.0,251.0,2171.754
2171764.0,232.0,33.0,4.0,243.0,2171.764
2171774.0,229.0,33.0,2.0,244.0,2171.774
2171784.0,227.0,32.0,5.0,239.0,2171.784
2171794.0,234.0,32.0,4.0,249.0,2171.794
2171804.0,235.0,33.0,4.0,250.0,2171.804
2171814.0,232.0,32.0,3.0,245.0,2171.814
2171824.0,231.0,33.0,3.0,245.0,2171.824
2171834.0,227.0,33.0,4.0,240.0,2171.834
2171844.0,234.0,33.0,4.0,250.0,2171.844
2171854.0,236.0,32.0,4.0,247.0,2171.854
2171864.0,235.0,32.0,4.0,241.0,2171.864
2171874.0,234.0,32.0,4.0,243.0,2171.874
2171884.0,229.0,32.0,4.0,240.0,2171.884
2171894.0,238.0,33.0,5.0,248.0,2171.894
2171904.0,238.0,33.0,3.0,249.0,2171.904
2171914.0,235.0,33.0,4.0,244.0,2171.914
2171924.0,233.0,33.0,3.0,245.0,2171.924
2171934.0,231.0,32.0,4.0,243.0,2171.934
2171944.0,237.0,33.0,3.0,250.0,2171.944
2171954.0,238.0,33.0,4.0,250.0,2171.954
2171964.0,234.0,33.0,4.0,244.0,2171.964
2171974.0,232.0,33.0,4.0,245.0,2171.974
2171984.0,231.0,32.0,4.0,246.0,2171.984
2171994.0,234.0,32.0,4.0,251.0,2171.994
2172004.0,237.0,33.0,3.0,254.0,2172.004
2172014.0,233.0,32.0,4.0,247.0,2172.014
2172024.0,232.0,33.0,5.0,247.0,2172.024
2172034.0,228.0,33.0,4.0,244.0,2172.034
2172044.0,235.0,33.0,4.0,253.0,2172.044
2172054.0,237.0,34.0,4.0,254.0,2172.054
2172064.0,232.0,32.0,4.0,244.0,2172.064
2172075.0,231.0,33.0,4.0,246.0,2172.075
2172085.0,232.0,33.0,5.0,249.0,2172.085
2172095.0,234.0,33.0,4.0,253.0,2172.095
2172105.0,232.0,33.0,4.0,251.0,2172.105
2172115.0,227.0,33.0,3.0,247.0,2172.115
2172125.0,229.0,33.0,3.0,250.0,2172.125
2172135.0,232.0,32.0,4.0,251.0,2172.135
2172145.0,236.0,32.0,4.0,252.0,2172.145
2172155.0,231.0,33.0,4.0,244.0,2172.155
2172165.0,227.0,33.0,4.0,235.0,2172.165
2172175.0,228.0,33.0,4.0,239.0,2172.175
2172185.0,232.0,33.0,3.0,246.0,2172.185
2172195.0,237.0,32.0,4.0,252.0,2172.195
2172205.0,238.0,34.0,3.0,254.0,2172.205
2172215.0,233.0,32.0,5.0,248.0,2172.215
2172225.0,232.0,33.0,2.0,253.0,2172.225
2172235.0,236.0,32.0,4.0,254.0,2172.235
2172246.0,237.0,33.0,3.0,257.0,2172.246
2172256.0,232.0,32.0,4.0,252.0,2172.256
2172266.0,227.0,32.0,3.0,247.0,2172.266
2172276.0,232.0,32.0,5.0,252.0,2172.276
2172286.0,233.0,33.0,4.0,255.0,2172.286
2172296.0,233.0,32.0,5.0,254.0,2172.296
2172306.0,230.0,33.0,3.0,251.0,2172.306
2172316.0,223.0,32.0,3.0,243.0,2172.316
2172326.0,230.0,32.0,4.0,254.0,2172.326
2172336.0,234.0,33.0,3.0,255.0,2172.336
2172346.0,233.0,31.0,4.0,251.0,2172.346
2172356.0,231.0,33.0,2.0,248.0,2172.356
2172366.0,226.0,32.0,4.0,244.0,2172.366
2172376.0,230.0,32.0,4.0,249.0,2172.376
2172386.0,235.0,32.0,4.0,254.0,2172.386
2172396.0,232.0,33.0,4.0,252.0,2172.396
2172406.0,230.0,32.0,4.0,247.0,2172.406
2172416.0,224.0,32.0,3.0,240.0,2172.416
2172426.0,226.0,32.0,4.0,245.0,2172.426
2172436.0,234.0,33.0,3.0,252.0,2172.436
2172446.0,232.0,32.0,4.0,254.0,2172.446
2172456.0,232.0,32.0,4.0,254.0,2172.456
2172466.0,224.0,32.0,4.0,248.0,2172.466
2172476.0,231.0,32.0,4.0,256.0,2172.476
2172486.0,235.0,33.0,3.0,256.0,2172.486
2172496.0,231.0,32.0,4.0,252.0,2172.496
2172506.0,233.0,32.0,4.0,254.0,2172.506
2172516.0,228.0,32.0,4.0,253.0,2172.516
2172526.0,232.0,32.0,4.0,263.0,2172.526
2172536.0,239.0,31.0,5.0,267.0,2172.536
2172546.0,235.0,33.0,4.0,266.0,2172.546
2172556.0,233.0,32.0,3.0,264.0,2172.556
2172566.0,229.0,33.0,3.0,260.0,2172.566
2172576.0,236.0,32.0,4.0,271.0,2172.576
2172587.0,240.0,33.0,4.0,272.0,2172.587
2172597.0,235.0,33.0,3.0,265.0,2172.597
2172607.0,232.0,33.0,2.0,262.0,2172.607
2172617.0,229.0,32.0,4.0,257.0,2172.617
2172627.0,234.0,33.0,3.0,263.0,2172.627
2172637.0,235.0,33.0,3.0,261.0,2172.637
2172647.0,229.0,32.0,3.0,256.0,2172.647
2172657.0,228.0,32.0,3.0,250.0,2172.657
2172667.0,227.0,32.0,4.0,250.0,2172.667
2172677.0,233.0,32.0,4.0,255.0,2172.677
2172687.0,233.0,33.0,4.0,255.0,2172.687
2172697.0,226.0,33.0,3.0,246.0,2172.697
2172707.0,227.0,32.0,3.0,248.0,2172.707
2172717.0,221.0,33.0,3.0,244.0,2172.717
2172727.0,231.0,33.0,4.0,254.0,2172.727
2172737.0,233.0,33.0,2.0,253.0,2172.737
2172747.0,226.0,32.0,4.0,242.0,2172.747
2172758.0,226.0,34.0,3.0,245.0,2172.758
2172768.0,229.0,32.0,4.0,246.0,2172.768
2172778.0,231.0,33.0,4.0,248.0,2172.778
2172788.0,230.0,33.0,5.0,247.0,2172.788
2172798.0,222.0,33.0,4.0,243.0,2172.798
2172808.0,226.0,33.0,4.0,245.0,2172.808
2172818.0,229.0,34.0,4.0,250.0,2172.818
2172828.0,231.0,34.0,3.0,250.0,2172.828
2172838.0,230.0,33.0,4.0,247.0,2172.838
2172848.0,225.0,33.0,3.0,241.0,2172.848
2172858.0,227.0,33.0,4.0,244.0,2172.858
2172868.0,229.0,33.0,3.0,248.0,2172.868
2172878.0,230.0,33.0,3.0,249.0,2172.878
2172888.0,232.0,34.0,3.0,253.0,2172.888
2172898.0,227.0,32.0,3.0,244.0,2172.898
2172908.0,228.0,33.0,4.0,247.0,2172.908
2172918.0,233.0,33.0,4.0,253.0,2172.918
2172928.0,232.0,33.0,3.0,251.0,2172.928
2172938.0,231.0,33.0,3.0,249.0,2172.938
2172948.0,225.0,33.0,3.0,245.0,2172.948
2172958.0,227.0,32.0,4.0,249.0,2172.958
2172968.0,232.0,33.0,4.0,254.0,2172.968
2172978.0,232.0,33.0,3.0,253.0,2172.978
2172988.0,230.0,33.0,4.0,252.0,2172.988
2172998.0,226.0,33.0,3.0,245.0,2172.998
2173008.0,229.0,33.0,4.0,252.0,2173.008
2173018.0,230.0,33.0,4.0,253.0,2173.018
2173028.0,235.0,32.0,4.0,254.0,2173.028
2173038.0,233.0,33.0,4.0,254.0,2173.038
2173048.0,229.0,32.0,4.0,248.0,2173.048
2173058.0,230.0,33.0,3.0,252.0,2173.058
2173068.0,232.0,33.0,4.0,255.0,2173.068
2173078.0,235.0,33.0,3.0,256.0,2173.078
2173088.0,235.0,32.0,4.0,255.0,2173.088
2173099.0,226.0,32.0,4.0,245.0,2173.099
2173109.0,233.0,32.0,5.0,255.0,2173.109
2173119.0,238.0,33.0,4.0,261.0,2173.119
2173129.0,233.0,32.0,4.0,252.0,2173.129
2173139.0,232.0,33.0,3.0,251.0,2173.139
2173149.0,226.0,32.0,4.0,243.0,2173.149
2173159.0,232.0,32.0,4.0,253.0,2173.159
2173169.0,236.0,33.0,4.0,257.0,2173.169
2173179.0,232.0,31.0,4.0,249.0,2173.179
2173189.0,232.0,32.0,4.0,251.0,2173.189
2173199.0,226.0,32.0,4.0,244.0,2173.199
2173209.0,232.0,33.0,3.0,252.0,2173.209
2173219.0,236.0,32.0,4.0,253.0,2173.219
2173229.0,234.0,33.0,3.0,248.0,2173.229
2173239.0,234.0,32.0,5.0,247.0,2173.239
2173249.0,224.0,32.0,2.0,240.0,2173.249
2173259.0,234.0,32.0,4.0,252.0,2173.259
2173270.0,238.0,33.0,3.0,255.0,2173.27
2173280.0,231.0,32.0,3.0,247.0,2173.28
2173290.0,231.0,32.0,3.0,251.0,2173.29
2173300.0,229.0,33.0,5.0,250.0,2173.3
2173310.0,234.0,32.0,4.0,255.0,2173.31
2173320.0,236.0,32.0,5.0,255.0,2173.32
2173330.0,229.0,32.0,4.0,246.0,2173.33
2173340.0,229.0,32.0,3.0,245.0,2173.34
2173350.0,229.0,32.0,3.0,250.0,2173.35
2173360.0,232.0,32.0,3.0,254.0,2173.36
2173370.0,235.0,33.0,4.0,253.0,2173.37
2173380.0,228.0,32.0,4.0,242.0,2173.38
2173390.0,228.0,33.0,4.0,244.0,2173.39
2173400.0,224.0,32.0,3.0,242.0,2173.4
2173410.0,232.0,32.0,4.0,250.0,2173.41
2173420.0,235.0,32.0,4.0,250.0,2173.42
2173430.0,226.0,32.0,4.0,242.0,2173.43
2173440.0,229.0,32.0,4.0,245.0,2173.44
2173450.0,226.0,32.0,3.0,247.0,2173.45
2173460.0,231.0,33.0,3.0,253.0,2173.46
2173470.0,232.0,32.0,4.0,252.0,2173.47
2173480.0,224.0,32.0,3.0,243.0,2173.48
2173490.0,227.0,32.0,3.0,247.0,2173.49
2173500.0,224.0,33.0,3.0,246.0,2173.5
2173510.0,230.0,32.0,4.0,252.0,2173.51
2173520.0,229.0,32.0,4.0,250.0,2173.52
2173530.0,224.0,32.0,3.0,247.0,2173.53
2173540.0,225.0,32.0,3.0,247.0,2173.54
2173550.0,224.0,32.0,4.0,248.0,2173.55
2173560.0,232.0,32.0,4.0,252.0,2173.56
2173570.0,232.0,33.0,4.0,254.0,2173.57
2173580.0,225.0,32.0,4.0,247.0,2173.58
2173590.0,224.0,34.0,3.0,246.0,2173.59
2173600.0,225.0,32.0,4.0,246.0,2173.6
2173611.0,229.0,33.0,3.0,251.0,2173.611
2173621.0,231.0,33.0,5.0,247.0,2173.621
2173631.0,220.0,32.0,4.0,240.0,2173.631
2173641.0,224.0,33.0,4.0,244.0,2173.641
2173651.0,230.0,34.0,3.0,249.0,2173.651
2173661.0,228.0,33.0,4.0,246.0,2173.661
2173671.0,228.0,32.0,4.0,243.0,2173.671
2173681.0,220.0,33.0,4.0,235.0,2173.681
2173691.0,225.0,33.0,3.0,248.0,2173.691
2173701.0,228.0,33.0,5.0,249.0,2173.701
2173711.0,229.0,33.0,4.0,252.0,2173.711
2173721.0,227.0,34.0,3.0,249.0,2173.721
2173731.0,217.0,34.0,4.0,240.0,2173.731
2173741.0,222.0,34.0,3.0,246.0,2173.741
2173751.0,227.0,33.0,5.0,253.0,2173.751
2173761.0,226.0,34.0,3.0,252.0,2173.761
2173771.0,227.0,33.0,4.0,250.0,2173.771
2173782.0,219.0,34.0,3.0,242.0,2173.782
2173792.0,226.0,32.0,4.0,250.0,2173.792
2173802.0,232.0,34.0,3.0,257.0,2173.802
2173812.0,225.0,33.0,4.0,250.0,2173.812
2173822.0,226.0,33.0,4.0,248.0,2173.822
2173832.0,219.0,33.0,5.0,241.0,2173.832
2173842.0,226.0,34.0,4.0,253.0,2173.842
2173852.0,233.0,34.0,3.0,257.0,2173.852
2173862.0,223.0,33.0,4.0,248.0,2173.862
2173872.0,226.0,34.0,4.0,248.0,2173.872
2173882.0,217.0,33.0,4.0,241.0,2173.882
2173892.0,224.0,34.0,3.0,252.0,2173.892
2173902.0,230.0,33.0,4.0,252.0,2173.902
2173912.0,225.0,34.0,3.0,246.0,2173.912
2173922.0,225.0,32.0,3.0,244.0,2173.922
2173932.0,217.0,33.0,3.0,239.0,2173.932
2173942.0,226.0,33.0,5.0,249.0,2173.942
2173952.0,229.0,33.0,4.0,252.0,2173.952
2173962.0,225.0,33.0,4.0,247.0,2173.962
2173972.0,226.0,34.0,4.0,248.0,2173.972
2173982.0,220.0,32.0,4.0,244.0,2173.982
2173992.0,229.0,33.0,4.0,255.0,2173.992
2174002.0,231.0,32.0,4.0,256.0,2174.002
2174012.0,225.0,32.0,4.0,251.0,2174.012
2174022.0,226.0,33.0,4.0,249.0,2174.022
2174032.0,220.0,33.0,3.0,246.0,2174.032
2174042.0,226.0,33.0,4.0,252.0,2174.042
2174052.0,231.0,32.0,4.0,256.0,2174.052
2174062.0,225.0,33.0,3.0,252.0,2174.062
2174072.0,226.0,33.0,4.0,251.0,2174.072
2174082.0,218.0,33.0,4.0,246.0,2174.082
2174092.0,224.0,33.0,3.0,256.0,2174.092
2174102.0,230.0,34.0,3.0,259.0,2174.102
2174112.0,224.0,32.0,4.0,252.0,2174.112
2174123.0,227.0,33.0,4.0,250.0,2174.123
2174133.0,223.0,33.0,4.0,248.0,2174.133
2174143.0,228.0,32.0,4.0,254.0,2174.143
2174153.0,231.0,33.0,3.0,251.0,2174.153
2174163.0,220.0,33.0,3.0,247.0,2174.163
2174173.0,224.0,32.0,4.0,248.0,2174.173
2174183.0,222.0,32.0,4.0,250.0,2174.183
2174193.0,228.0,33.0,4.0,256.0,2174.193
2174203.0,231.0,33.0,4.0,255.0,2174.203
2174213.0,222.0,33.0,4.0,250.0,2174.213
2174223.0,224.0,33.0,4.0,250.0,2174.223
2174233.0,225.0,33.0,3.0,252.0,2174.233
2174243.0,229.0,32.0,4.0,259.0,2174.243
2174253.0,232.0,34.0,3.0,262.0,2174.253
2174263.0,224.0,32.0,4.0,252.0,2174.263
2174273.0,224.0,33.0,2.0,250.0,2174.273
2174283.0,225.0,33.0,3.0,253.0,2174.283
2174294.0,230.0,33.0,3.0,257.0,2174.294
2174304.0,230.0,32.0,4.0,252.0,2174.304
2174314.0,220.0,33.0,3.0,245.0,2174.314
2174324.0,225.0,33.0,4.0,251.0,2174.324
2174334.0,230.0,33.0,4.0,256.0,2174.334
2174344.0,229.0,32.0,3.0,257.0,2174.344
2174354.0,230.0,33.0,3.0,254.0,2174.354
2174364.0,219.0,32.0,4.0,244.0,2174.364
2174374.0,225.0,33.0,3.0,252.0,2174.374
2174384.0,228.0,33.0,4.0,254.0,2174.384
2174394.0,228.0,33.0,4.0,254.0,2174.394
2174404.0,228.0,33.0,4.0,250.0,2174.404
2174414.0,219.0,33.0,3.0,243.0,2174.414
2174424.0,224.0,33.0,3.0,247.0,2174.424
2174434.0,228.0,32.0,4.0,254.0,2174.434
2174444.0,227.0,32.0,4.0,254.0,2174.444
2174454.0,229.0,33.0,4.0,250.0,2174.454
2174464.0,220.0,33.0,3.0,243.0,2174.464
2174474.0,224.0,32.0,4.0,244.0,2174.474
2174484.0,230.0,33.0,3.0,252.0,2174.484
2174494.0,228.0,32.0,4.0,249.0,2174.494
2174504.0,228.0,33.0,3.0,249.0,2174.504
2174514.0,221.0,32.0,4.0,242.0,2174.514
2174524.0,222.0,33.0,4.0,248.0,2174.524
2174534.0,229.0,33.0,4.0,256.0,2174.534
2174544.0,224.0,32.0,4.0,251.0,2174.544
2174554.0,227.0,33.0,3.0,250.0,2174.554
2174564.0,217.0,32.0,4.0,241.0,2174.564
2174574.0,221.0,33.0,4.0,247.0,2174.574
2174584.0,230.0,33.0,4.0,254.0,2174.584
2174594.0,227.0,32.0,4.0,251.0,2174.594
2174604.0,227.0,32.0,4.0,248.0,2174.604
2174614.0,217.0,33.0,3.0,238.0,2174.614
2174624.0,221.0,32.0,3.0,242.0,2174.624
2174635.0,228.0,33.0,4.0,248.0,2174.635
2174645.0,221.0,33.0,5.0,244.0,2174.645
2174655.0,223.0,33.0,4.0,243.0,2174.655
2174665.0,216.0,32.0,4.0,239.0,2174.665
2174675.0,225.0,33.0,4.0,249.0,2174.675
2174685.0,227.0,33.0,4.0,249.0,2174.685
2174695.0,221.0,32.0,4.0,245.0,2174.695
2174705.0,222.0,33.0,5.0,245.0,2174.705
2174715.0,216.0,33.0,4.0,243.0,2174.715
2174725.0,220.0,33.0,4.0,248.0,2174.725
2174735.0,225.0,33.0,4.0,250.0,2174.735
2174745.0,219.0,33.0,3.0,243.0,2174.745
2174755.0,220.0,32.0,4.0,244.0,2174.755
2174765.0,213.0,33.0,3.0,238.0,2174.765
2174775.0,221.0,33.0,5.0,247.0,2174.775
2174785.0,224.0,33.0,4.0,249.0,2174.785
2174795.0,216.0,32.0,4.0,239.0,2174.795
2174806.0,216.0,34.0,3.0,237.0,2174.806
2174816.0,215.0,32.0,4.0,235.0,2174.816
2174826.0,220.0,33.0,3.0,241.0,2174.826
2174836.0,223.0,33.0,4.0,239.0,2174.836
2174846.0,213.0,32.0,4.0,231.0,2174.846
2174856.0,218.0,33.0,5.0,235.0,2174.856
2174866.0,216.0,33.0,3.0,239.0,2174.866
2174876.0,220.0,32.0,4.0,242.0,2174.876
2174886.0,222.0,33.0,4.0,241.0,2174.886
2174896.0,214.0,33.0,4.0,237.0,2174.896
2174906.0,217.0,33.0,4.0,240.0,2174.906
2174916.0,216.0,32.0,4.0,241.0,2174.916
2174926.0,217.0,33.0,4.0,241.0,2174.926
2174936.0,221.0,33.0,3.0,243.0,2174.936
2174946.0,211.0,32.0,4.0,235.0,2174.946
2174956.0,214.0,32.0,4.0,239.0,2174.956
2174966.0,217.0,33.0,5.0,242.0,2174.966
2174976.0,217.0,32.0,4.0,245.0,2174.976
2174986.0,220.0,33.0,4.0,246.0,2174.986
2174996.0,210.0,33.0,3.0,239.0,2174.996
2175006.0,213.0,32.0,3.0,242.0,2175.006
2175016.0,216.0,33.0,3.0,247.0,2175.016
2175026.0,217.0,32.0,4.0,247.0,2175.026
2175036.0,220.0,33.0,4.0,246.0,2175.036
2175046.0,209.0,32.0,3.0,237.0,2175.046
2175056.0,212.0,32.0,4.0,239.0,2175.056
2175066.0,211.0,32.0,4.0,241.0,2175.066
2175076.0,217.0,32.0,3.0,246.0,2175.076
2175086.0,219.0,33.0,4.0,244.0,2175.086
2175096.0,210.0,31.0,4.0,238.0,2175.096
2175106.0,214.0,33.0,3.0,242.0,2175.106
2175116.0,214.0,32.0,4.0,242.0,2175.116
2175126.0,218.0,34.0,3.0,247.0,2175.126
2175136.0,219.0,33.0,3.0,245.0,2175.136
2175147.0,210.0,32.0,3.0,239.0,2175.147
2175157.0,215.0,32.0,5.0,242.0,2175.157
2175167.0,220.0,33.0,4.0,248.0,2175.167
2175177.0,217.0,32.0,4.0,243.0,2175.177
2175187.0,218.0,34.0,3.0,243.0,2175.187
2175197.0,211.0,32.0,4.0,236.0,2175.197
2175207.0,215.0,33.0,4.0,243.0,2175.207
2175217.0,221.0,33.0,5.0,249.0,2175.217
2175227.0,216.0,33.0,4.0,245.0,2175.227
2175237.0,220.0,33.0,4.0,245.0,2175.237
2175247.0,210.0,33.0,3.0,236.0,2175.247
2175257.0,216.0,33.0,4.0,242.0,2175.257
2175267.0,222.0,32.0,4.0,247.0,2175.267
2175277.0,218.0,33.0,3.0,245.0,2175.277
2175287.0,220.0,33.0,4.0,243.0,2175.287
2175297.0,208.0,33.0,4.0,234.0,2175.297
2175307.0,216.0,32.0,4.0,244.0,2175.307
2175318.0,222.0,33.0,3.0,249.0,2175.318
2175328.0,216.0,32.0,4.0,244.0,2175.328
2175338.0,217.0,32.0,4.0,243.0,2175.338
2175348.0,213.0,32.0,5.0,241.0,2175.348
2175358.0,220.0,32.0,4.0,250.0,2175.358
2175368.0,222.0,33.0,4.0,250.0,2175.368
2175378.0,215.0,33.0,4.0,244.0,2175.378
2175388.0,218.0,32.0,4.0,243.0,2175.388
2175398.0,214.0,32.0,4.0,242.0,2175.398
2175408.0,217.0,32.0,3.0,247.0,2175.408
2175418.0,224.0,33.0,4.0,250.0,2175.418
2175428.0,214.0,33.0,4.0,244.0,2175.428
2175438.0,216.0,32.0,4.0,245.0,2175.438
2175448.0,209.0,32.0,4.0,240.0,2175.448
2175458.0,219.0,32.0,4.0,250.0,2175.458
2175468.0,224.0,32.0,4.0,253.0,2175.468
2175478.0,215.0,31.0,4.0,245.0,2175.478
2175488.0,219.0,32.0,3.0,246.0,2175.488
2175498.0,211.0,32.0,4.0,240.0,2175.498
2175508.0,219.0,33.0,4.0,252.0,2175.508
2175518.0,224.0,32.0,3.0,251.0,2175.518
2175528.0,213.0,32.0,3.0,244.0,2175.528
2175538.0,217.0,32.0,4.0,246.0,2175.538
2175548.0,212.0,33.0,4.0,244.0,2175.548
2175558.0,220.0,33.0,3.0,252.0,2175.558
2175568.0,223.0,33.0,3.0,251.0,2175.568
2175578.0,216.0,32.0,3.0,246.0,2175.578
2175588.0,218.0,32.0,3.0,246.0,2175.588
2175598.0,213.0,33.0,4.0,243.0,2175.598
2175608.0,221.0,31.0,4.0,249.0,2175.608
2175618.0,223.0,32.0,4.0,250.0,2175.618
2175628.0,215.0,32.0,4.0,244.0,2175.628
2175638.0,217.0,33.0,3.0,246.0,2175.638
2175648.0,214.0,32.0,4.0,244.0,2175.648
2175659.0,219.0,32.0,4.0,251.0,2175.659
2175669.0,223.0,32.0,5.0,248.0,2175.669
2175679.0,211.0,31.0,2.0,241.0,2175.679
2175689.0,214.0,32.0,4.0,243.0,2175.689
2175699.0,219.0,33.0,3.0,249.0,2175.699
2175709.0,219.0,32.0,4.0,249.0,2175.709
2175719.0,221.0,32.0,4.0,247.0,2175.719
2175729.0,210.0,32.0,4.0,241.0,2175.729
2175739.0,214.0,32.0,4.0,245.0,2175.739
2175749.0,214.0,33.0,4.0,247.0,2175.749
2175759.0,218.0,32.0,4.0,250.0,2175.759
2175769.0,220.0,33.0,3.0,248.0,2175.769
2175779.0,210.0,32.0,4.0,241.0,2175.779
2175789.0,216.0,32.0,4.0,245.0,2175.789
2175799.0,217.0,33.0,4.0,247.0,2175.799
2175809.0,219.0,32.0,4.0,249.0,2175.809
2175819.0,220.0,33.0,4.0,247.0,2175.819
2175830.0,211.0,33.0,3.0,240.0,2175.83
2175840.0,215.0,32.0,4.0,245.0,2175.84
2175850.0,221.0,33.0,4.0,251.0,2175.85
2175860.0,218.0,33.0,5.0,247.0,2175.86
2175870.0,218.0,32.0,2.0,247.0,2175.87
2175880.0,211.0,32.0,4.0,240.0,2175.88
2175890.0,215.0,33.0,3.0,247.0,2175.89
2175900.0,223.0,32.0,4.0,250.0,2175.9
2175910.0,217.0,32.0,4.0,246.0,2175.91
2175920.0,220.0,33.0,4.0,247.0,2175.92
2175930.0,210.0,32.0,3.0,238.0,2175.93
2175940.0,216.0,33.0,4.0,246.0,2175.94
2175950.0,223.0,33.0,4.0,250.0,2175.95
2175960.0,218.0,33.0,3.0,247.0,2175.96
2175970.0,219.0,32.0,4.0,245.0,2175.97
2175980.0,209.0,32.0,4.0,239.0,2175.98
2175990.0,218.0,33.0,4.0,248.0,2175.99
2176000.0,220.0,32.0,4.0,250.0,2176.0
2176010.0,217.0,32.0,4.0,248.0,2176.01
2176020.0,220.0,33.0,3.0,248.0,2176.02
2176030.0,209.0,32.0,4.0,239.0,2176.03
2176040.0,217.0,33.0,3.0,250.0,2176.04
2176050.0,221.0,32.0,4.0,252.0,2176.05
2176060.0,217.0,32.0,4.0,249.0,2176.06
2176070.0,218.0,32.0,4.0,247.0,2176.07
2176080.0,210.0,33.0,4.0,243.0,2176.08
2176090.0,215.0,33.0,3.0,248.0,2176.09
2176100.0,222.0,32.0,4.0,253.0,2176.1
2176110.0,217.0,32.0,4.0,249.0,2176.11
2176120.0,218.0,32.0,4.0,248.0,2176.12
2176130.0,209.0,32.0,4.0,242.0,2176.13
2176140.0,215.0,32.0,4.0,249.0,2176.14
2176150.0,222.0,34.0,3.0,254.0,2176.15
2176160.0,216.0,32.0,4.0,250.0,2176.16
2176171.0,217.0,32.0,4.0,247.0,2176.171
2176181.0,212.0,32.0,5.0,243.0,2176.181
2176191.0,219.0,32.0,4.0,252.0,2176.191
2176201.0,222.0,32.0,4.0,251.0,2176.201
2176211.0,213.0,33.0,3.0,245.0,2176.211
2176221.0,216.0,32.0,4.0,245.0,2176.221
2176231.0,212.0,32.0,3.0,244.0,2176.231
2176241.0,221.0,32.0,5.0,253.0,2176.241
2176251.0,222.0,33.0,4.0,251.0,2176.251
2176261.0,215.0,32.0,4.0,246.0,2176.261
2176271.0,216.0,32.0,4.0,244.0,2176.271
2176281.0,213.0,32.0,3.0,244.0,2176.281
2176291.0,219.0,32.0,4.0,251.0,2176.291
2176301.0,222.0,33.0,3.0,252.0,2176.301
2176311.0,216.0,33.0,4.0,245.0,2176.311
2176321.0,217.0,32.0,4.0,243.0,2176.321
2176331.0,215.0,32.0,4.0,243.0,2176.331
2176342.0,220.0,34.0,4.0,248.0,2176.342
2176352.0,221.0,32.0,4.0,245.0,2176.352
2176362.0,212.0,32.0,4.0,238.0,2176.362
2176372.0,217.0,32.0,5.0,241.0,2176.372
2176382.0,221.0,32.0,4.0,249.0,2176.382
2176392.0,221.0,33.0,5.0,249.0,2176.392
2176402.0,222.0,33.0,3.0,247.0,2176.402
2176412.0,212.0,32.0,4.0,237.0,2176.412
2176422.0,215.0,32.0,4.0,241.0,2176.422
2176432.0,217.0,32.0,3.0,244.0,2176.432
2176442.0,221.0,31.0,4.0,248.0,2176.442
2176452.0,220.0,33.0,3.0,245.0,2176.452
2176462.0,211.0,32.0,4.0,239.0,2176.462
2176472.0,215.0,32.0,4.0,242.0,2176.472
2176482.0,218.0,32.0,4.0,247.0,2176.482
2176492.0,219.0,32.0,4.0,249.0,2176.492
2176502.0,221.0,33.0,4.0,247.0,2176.502
2176512.0,213.0,32.0,4.0,242.0,2176.512
2176522.0,215.0,32.0,4.0,244.0,2176.522
2176532.0,218.0,33.0,3.0,250.0,2176.532
2176542.0,218.0,32.0,4.0,250.0,2176.542
2176552.0,219.0,32.0,4.0,247.0,2176.552
2176562.0,212.0,32.0,4.0,242.0,2176.562
2176572.0,215.0,32.0,4.0,244.0,2176.572
2176582.0,219.0,33.0,3.0,248.0,2176.582
2176592.0,218.0,33.0,3.0,247.0,2176.592
2176602.0,221.0,32.0,4.0,245.0,2176.602
2176612.0,212.0,32.0,4.0,239.0,2176.612
2176622.0,214.0,33.0,4.0,242.0,2176.622
2176632.0,221.0,32.0,4.0,248.0,2176.632
2176642.0,219.0,32.0,4.0,248.0,2176.642
2176652.0,220.0,32.0,4.0,244.0,2176.652
2176662.0,210.0,32.0,3.0,236.0,2176.662
2176672.0,213.0,32.0,4.0,240.0,2176.672
2176683.0,219.0,33.0,3.0,246.0,2176.683
2176693.0,217.0,32.0,4.0,243.0,2176.693
2176703.0,216.0,32.0,3.0,242.0,2176.703
2176713.0,208.0,32.0,4.0,235.0,2176.713
2176723.0,217.0,32.0,3.0,247.0,2176.723
2176733.0,220.0,32.0,4.0,248.0,2176.733
2176743.0,216.0,32.0,3.0,244.0,2176.743
2176753.0,217.0,33.0,5.0,243.0,2176.753
2176763.0,209.0,32.0,4.0,238.0,2176.763
2176773.0,214.0,33.0,4.0,244.0,2176.773
2176783.0,220.0,32.0,4.0,249.0,2176.783
2176793.0,214.0,32.0,3.0,243.0,2176.793
2176803.0,214.0,32.0,4.0,242.0,2176.803
2176813.0,208.0,32.0,3.0,235.0,2176.813
2176823.0,214.0,31.0,4.0,242.0,2176.823
2176833.0,219.0,33.0,2.0,247.0,2176.833
2176843.0,214.0,32.0,4.0,241.0,2176.843
2176854.0,214.0,33.0,3.0,240.0,2176.854
2176864.0,210.0,32.0,4.0,238.0,2176.864
2176874.0,217.0,32.0,3.0,246.0,2176.874
2176884.0,222.0,32.0,4.0,246.0,2176.884
2176894.0,211.0,32.0,2.0,238.0,2176.894
2176904.0,216.0,32.0,5.0,241.0,2176.904
2176914.0,212.0,33.0,3.0,241.0,2176.914
2176924.0,219.0,32.0,4.0,246.0,2176.924
2176934.0,221.0,32.0,3.0,245.0,2176.934
2176944.0,214.0,32.0,3.0,241.0,2176.944
2176954.0,216.0,33.0,3.0,241.0,2176.954
2176964.0,213.0,32.0,3.0,242.0,2176.964
2176974.0,219.0,32.0,3.0,247.0,2176.974
2176984.0,221.0,33.0,4.0,247.0,2176.984
2176994.0,214.0,32.0,4.0,240.0,2176.994
2177004.0,215.0,33.0,3.0,241.0,2177.004
2177014.0,215.0,33.0,4.0,243.0,2177.014
2177024.0,217.0,32.0,4.0,246.0,2177.024
2177034.0,221.0,32.0,4.0,246.0,2177.034
2177044.0,211.0,33.0,3.0,239.0,2177.044
2177054.0,213.0,32.0,4.0,240.0,2177.054
2177064.0,213.0,32.0,3.0,243.0,2177.064
2177074.0,217.0,32.0,3.0,246.0,2177.074
2177084.0,220.0,33.0,3.0,247.0,2177.084
2177094.0,211.0,32.0,4.0,239.0,2177.094
2177104.0,214.0,33.0,3.0,242.0,2177.104
2177114.0,211.0,32.0,4.0,240.0,2177.114
2177124.0,218.0,32.0,4.0,248.0,2177.124
2177134.0,220.0,33.0,4.0,247.0,2177.134
2177144.0,211.0,32.0,4.0,239.0,2177.144
2177154.0,215.0,33.0,4.0,243.0,2177.154
2177164.0,211.0,32.0,4.0,241.0,2177.164
2177174.0,217.0,33.0,3.0,247.0,2177.174
2177184.0,220.0,32.0,4.0,245.0,2177.184
2177195.0,209.0,32.0,3.0,238.0,2177.195
2177205.0,213.0,32.0,4.0,241.0,2177.205
2177215.0,216.0,33.0,4.0,248.0,2177.215
2177225.0,215.0,33.0,4.0,247.0,2177.225
2177235.0,215.0,34.0,3.0,245.0,2177.235
2177245.0,210.0,32.0,3.0,239.0,2177.245
2177255.0,212.0,33.0,3.0,242.0,2177.255
2177265.0,219.0,33.0,5.0,248.0,2177.265
2177275.0,216.0,32.0,4.0,247.0,2177.275
2177285.0,218.0,33.0,4.0,246.0,2177.285
2177295.0,210.0,32.0,4.0,238.0,2177.295
2177305.0,213.0,33.0,3.0,243.0,2177.305
2177315.0,220.0,32.0,3.0,248.0,2177.315
2177325.0,218.0,33.0,3.0,247.0,2177.325
2177335.0,219.0,33.0,4.0,244.0,2177.335
2177345.0,210.0,33.0,3.0,237.0,2177.345
2177355.0,214.0,32.0,4.0,240.0,2177.355
2177366.0,219.0,34.0,3.0,245.0,2177.366
2177376.0,215.0,32.0,4.0,242.0,2177.376
2177386.0,215.0,33.0,4.0,240.0,2177.386
2177396.0,209.0,33.0,4.0,235.0,2177.396
2177406.0,215.0,33.0,4.0,244.0,2177.406
2177416.0,221.0,32.0,5.0,245.0,2177.416
2177426.0,215.0,33.0,3.0,242.0,2177.426
2177436.0,215.0,32.0,4.0,240.0,2177.436
2177446.0,209.0,33.0,3.0,237.0,2177.446
2177456.0,215.0,32.0,3.0,244.0,2177.456
2177466.0,221.0,33.0,4.0,247.0,2177.466
2177476.0,215.0,32.0,4.0,243.0,2177.476
2177486.0,215.0,32.0,3.0,242.0,2177.486
2177496.0,209.0,32.0,4.0,236.0,2177.496
2177506.0,216.0,32.0,4.0,244.0,2177.506
2177516.0,220.0,33.0,4.0,247.0,2177.516
2177526.0,216.0,31.0,4.0,241.0,2177.526
2177536.0,216.0,33.0,4.0,242.0,2177.536
2177546.0,209.0,32.0,4.0,235.0,2177.546
2177556.0,216.0,32.0,3.0,244.0,2177.556
2177566.0,221.0,32.0,3.0,246.0,2177.566
2177576.0,215.0,32.0,4.0,239.0,2177.576
2177586.0,217.0,32.0,4.0,240.0,2177.586
2177596.0,209.0,32.0,2.0,234.0,2177.596
2177606.0,217.0,32.0,4.0,242.0,2177.606
2177616.0,221.0,33.0,3.0,245.0,2177.616
2177626.0,216.0,32.0,3.0,241.0,2177.626
2177636.0,216.0,32.0,4.0,239.0,2177.636
2177646.0,209.0,32.0,2.0,235.0,2177.646
2177656.0,218.0,31.0,4.0,244.0,2177.656
2177666.0,220.0,32.0,4.0,245.0,2177.666
2177676.0,215.0,32.0,4.0,241.0,2177.676
2177686.0,215.0,33.0,3.0,240.0,2177.686
2177696.0,210.0,30.0,4.0,236.0,2177.696
2177707.0,217.0,32.0,4.0,244.0,2177.707
2177717.0,220.0,32.0,4.0,244.0,2177.717
2177727.0,212.0,32.0,2.0,237.0,2177.727
2177737.0,213.0,32.0,4.0,237.0,2177.737
2177747.0,216.0,33.0,3.0,243.0,2177.747
2177757.0,218.0,32.0,4.0,245.0,2177.757
2177767.0,220.0,32.0,4.0,243.0,2177.767
2177777.0,213.0,32.0,5.0,235.0,2177.777
2177787.0,213.0,31.0,4.0,237.0,2177.787
2177797.0,212.0,32.0,5.0,237.0,2177.797
2177807.0,218.0,32.0,4.0,244.0,2177.807
2177817.0,218.0,33.0,3.0,242.0,2177.817
2177827.0,211.0,32.0,4.0,235.0,2177.827
2177837.0,214.0,32.0,3.0,238.0,2177.837
2177847.0,213.0,32.0,4.0,238.0,2177.847
2177857.0,218.0,33.0,3.0,244.0,2177.857
2177867.0,218.0,32.0,4.0,241.0,2177.867
2177878.0,210.0,32.0,3.0,235.0,2177.878
2177888.0,212.0,32.0,3.0,238.0,2177.888
2177898.0,217.0,32.0,4.0,245.0,2177.898
2177908.0,218.0,31.0,4.0,243.0,2177.908
2177918.0,216.0,33.0,4.0,240.0,2177.918
2177928.0,212.0,32.0,5.0,235.0,2177.928
2177938.0,213.0,33.0,3.0,240.0,2177.938
2177948.0,219.0,32.0,3.0,246.0,2177.948
2177958.0,218.0,32.0,3.0,244.0,2177.958
2177968.0,219.0,33.0,3.0,242.0,2177.968
2177978.0,212.0,32.0,3.0,235.0,2177.978
2177988.0,214.0,32.0,4.0,239.0,2177.988
2177998.0,220.0,32.0,4.0,245.0,2177.998
2178008.0,219.0,32.0,4.0,243.0,2178.008
2178018.0,218.0,33.0,3.0,241.0,2178.018
2178028.0,210.0,33.0,4.0,234.0,2178.028
2178038.0,216.0,32.0,5.0,241.0,2178.038
2178048.0,217.0,33.0,4.0,244.0,2178.048
2178058.0,219.0,32.0,4.0,244.0,2178.058
2178068.0,218.0,34.0,3.0,242.0,2178.068
2178078.0,211.0,32.0,4.0,234.0,2178.078
2178088.0,215.0,33.0,3.0,241.0,2178.088
2178098.0,219.0,32.0,4.0,244.0,2178.098
2178108.0,218.0,33.0,4.0,244.0,2178.108
2178118.0,217.0,33.0,4.0,241.0,2178.118
2178128.0,208.0,34.0,3.0,233.0,2178.128
2178138.0,213.0,33.0,4.0,237.0,2178.138
2178148.0,217.0,32.0,4.0,244.0,2178.148
2178158.0,215.0,33.0,4.0,243.0,2178.158
2178168.0,215.0,33.0,4.0,241.0,2178.168
2178178.0,209.0,32.0,4.0,236.0,2178.178
2178188.0,212.0,33.0,3.0,239.0,2178.188
2178198.0,218.0,34.0,3.0,245.0,2178.198
2178208.0,216.0,32.0,3.0,242.0,2178.208
2178219.0,214.0,33.0,4.0,240.0,2178.219
2178229.0,208.0,33.0,4.0,234.0,2178.229
2178239.0,214.0,33.0,4.0,243.0,2178.239
2178249.0,218.0,33.0,4.0,245.0,2178.249
2178259.0,211.0,33.0,3.0,240.0,2178.259
2178269.0,213.0,33.0,4.0,240.0,2178.269
2178279.0,207.0,33.0,3.0,234.0,2178.279
2178289.0,215.0,33.0,5.0,243.0,2178.289
2178299.0,218.0,33.0,4.0,243.0,2178.299
2178309.0,213.0,32.0,5.0,238.0,2178.309
2178319.0,212.0,33.0,3.0,239.0,2178.319
2178329.0,206.0,34.0,3.0,234.0,2178.329
2178339.0,214.0,32.0,3.0,243.0,2178.339
2178349.0,217.0,33.0,4.0,243.0,2178.349
2178359.0,213.0,33.0,4.0,237.0,2178.359
2178369.0,212.0,33.0,4.0,238.0,2178.369
2178379.0,208.0,33.0,3.0,235.0,2178.379
2178390.0,215.0,34.0,3.0,243.0,2178.39
2178400.0,217.0,32.0,4.0,241.0,2178.4
2178410.0,209.0,32.0,3.0,234.0,2178.41
2178420.0,211.0,33.0,5.0,234.0,2178.42
2178430.0,214.0,33.0,4.0,240.0,2178.43
2178440.0,217.0,33.0,5.0,240.0,2178.44
2178450.0,217.0,34.0,3.0,241.0,2178.45
2178460.0,209.0,32.0,4.0,230.0,2178.46
2178470.0,211.0,33.0,3.0,233.0,2178.47
2178480.0,210.0,33.0,3.0,234.0,2178.48
2178490.0,216.0,33.0,4.0,240.0,2178.49
2178500.0,216.0,34.0,4.0,237.0,2178.5
2178510.0,209.0,33.0,4.0,230.0,2178.51
2178520.0,211.0,34.0,4.0,233.0,2178.52
2178530.0,210.0,34.0,4.0,234.0,2178.53
2178540.0,215.0,33.0,4.0,239.0,2178.54
2178550.0,217.0,34.0,3.0,237.0,2178.55
2178560.0,209.0,33.0,3.0,232.0,2178.56
2178570.0,212.0,33.0,4.0,233.0,2178.57
2178580.0,211.0,34.0,3.0,236.0,2178.58
2178590.0,216.0,32.0,4.0,237.0,2178.59
2178600.0,215.0,33.0,3.0,236.0,2178.6
2178610.0,210.0,32.0,4.0,230.0,2178.61
2178620.0,211.0,33.0,4.0,233.0,2178.62
2178630.0,212.0,33.0,4.0,235.0,2178.63
2178640.0,214.0,34.0,3.0,238.0,2178.64
2178650.0,215.0,34.0,4.0,239.0,2178.65
2178660.0,208.0,32.0,4.0,229.0,2178.66
2178670.0,210.0,33.0,3.0,232.0,2178.67
2178680.0,213.0,33.0,4.0,237.0,2178.68
2178690.0,214.0,33.0,4.0,238.0,2178.69
2178700.0,216.0,33.0,4.0,237.0,2178.7
2178710.0,207.0,33.0,3.0,229.0,2178.71
2178720.0,209.0,32.0,4.0,231.0,2178.72
2178731.0,213.0,33.0,4.0,237.0,2178.731
2178741.0,214.0,33.0,4.0,235.0,2178.741
2178751.0,212.0,33.0,4.0,234.0,2178.751
2178761.0,205.0,33.0,4.0,225.0,2178.761
2178771.0,211.0,33.0,3.0,235.0,2178.771
2178781.0,214.0,33.0,4.0,236.0,2178.781
2178791.0,213.0,33.0,3.0,234.0,2178.791
2178801.0,214.0,33.0,5.0,233.0,2178.801
2178811.0,204.0,33.0,4.0,224.0,2178.811
2178821.0,209.0,33.0,5.0,231.0,2178.821
2178831.0,215.0,33.0,4.0,237.0,2178.831
2178841.0,213.0,32.0,4.0,234.0,2178.841
2178851.0,213.0,33.0,3.0,234.0,2178.851
2178861.0,207.0,32.0,3.0,226.0,2178.861
2178871.0,210.0,32.0,4.0,232.0,2178.871
2178881.0,215.0,33.0,4.0,238.0,2178.881
2178891.0,212.0,32.0,4.0,233.0,2178.891
2178902.0,211.0,33.0,3.0,234.0,2178.902
2178912.0,205.0,32.0,4.0,228.0,2178.912
2178922.0,212.0,33.0,3.0,237.0,2178.922
2178932.0,217.0,33.0,5.0,239.0,2178.932
2178942.0,208.0,32.0,4.0,232.0,2178.942
2178952.0,213.0,33.0,4.0,234.0,2178.952
2178962.0,206.0,33.0,3.0,230.0,2178.962
2178972.0,215.0,32.0,4.0,240.0,2178.972
2178982.0,217.0,33.0,3.0,240.0,2178.982
2178992.0,212.0,32.0,4.0,235.0,2178.992
2179002.0,212.0,33.0,3.0,236.0,2179.002
2179012.0,208.0,32.0,4.0,233.0,2179.012
2179022.0,215.0,32.0,4.0,242.0,2179.022
2179032.0,218.0,32.0,4.0,242.0,2179.032
2179042.0,212.0,31.0,3.0,236.0,2179.042
2179052.0,213.0,32.0,4.0,236.0,2179.052
2179062.0,210.0,32.0,4.0,236.0,2179.062
2179072.0,215.0,32.0,4.0,241.0,2179.072
2179082.0,220.0,32.0,3.0,245.0,2179.082
2179092.0,212.0,32.0,3.0,239.0,2179.092
2179102.0,214.0,32.0,4.0,239.0,2179.102
2179112.0,212.0,32.0,3.0,238.0,2179.112
2179122.0,216.0,32.0,4.0,242.0,2179.122
2179132.0,220.0,31.0,4.0,246.0,2179.132
2179142.0,212.0,31.0,4.0,237.0,2179.142
2179152.0,215.0,32.0,3.0,240.0,2179.152
2179162.0,208.0,31.0,3.0,234.0,2179.162
2179172.0,217.0,31.0,3.0,244.0,2179.172
2179182.0,221.0,32.0,5.0,245.0,2179.182
2179192.0,214.0,31.0,4.0,237.0,2179.192
2179202.0,216.0,32.0,3.0,240.0,2179.202
2179212.0,210.0,31.0,3.0,236.0,2179.212
2179222.0,219.0,32.0,3.0,245.0,2179.222
2179232.0,222.0,32.0,4.0,245.0,2179.232
2179243.0,213.0,31.0,4.0,237.0,2179.243
2179253.0,215.0,31.0,4.0,239.0,2179.253
2179263.0,215.0,32.0,3.0,242.0,2179.263
2179273.0,218.0,31.0,4.0,244.0,2179.273
2179283.0,219.0,33.0,3.0,242.0,2179.283
2179293.0,212.0,31.0,4.0,235.0,2179.293
2179303.0,214.0,32.0,3.0,237.0,2179.303
2179313.0,217.0,31.0,5.0,242.0,2179.313
2179323.0,218.0,31.0,2.0,243.0,2179.323
2179333.0,221.0,32.0,4.0,243.0,2179.333
2179343.0,211.0,32.0,3.0,236.0,2179.343
2179353.0,214.0,32.0,3.0,236.0,2179.353
2179363.0,218.0,32.0,4.0,243.0,2179.363
2179373.0,219.0,32.0,3.0,244.0,2179.373
2179383.0,221.0,31.0,4.0,243.0,2179.383
2179393.0,211.0,32.0,3.0,236.0,2179.393
2179403.0,214.0,32.0,3.0,241.0,2179.403
2179414.0,219.0,33.0,3.0,246.0,2179.414
2179424.0,218.0,32.0,4.0,244.0,2179.424
2179434.0,217.0,32.0,4.0,242.0,2179.434
2179444.0,210.0,31.0,5.0,234.0,2179.444
2179454.0,216.0,32.0,4.0,243.0,2179.454
2179464.0,220.0,33.0,5.0,245.0,2179.464
2179474.0,217.0,33.0,3.0,244.0,2179.474
2179484.0,217.0,32.0,4.0,241.0,2179.484
2179494.0,209.0,33.0,3.0,234.0,2179.494
2179504.0,214.0,32.0,4.0,240.0,2179.504
2179514.0,221.0,33.0,4.0,246.0,2179.514
2179524.0,217.0,32.0,4.0,241.0,2179.524
2179534.0,216.0,33.0,4.0,242.0,2179.534
2179544.0,209.0,33.0,3.0,234.0,2179.544
2179554.0,214.0,32.0,4.0,241.0,2179.554
2179564.0,221.0,33.0,5.0,246.0,2179.564
2179574.0,217.0,33.0,4.0,241.0,2179.574
2179584.0,218.0,33.0,4.0,242.0,2179.584
2179594.0,210.0,32.0,4.0,233.0,2179.594
2179604.0,214.0,34.0,3.0,241.0,2179.604
2179614.0,220.0,32.0,4.0,244.0,2179.614
2179624.0,215.0,33.0,4.0,240.0,2179.624
2179634.0,217.0,33.0,3.0,240.0,2179.634
2179644.0,209.0,32.0,2.0,233.0,2179.644
2179654.0,214.0,33.0,4.0,240.0,2179.654
2179664.0,220.0,33.0,3.0,245.0,2179.664
2179674.0,216.0,33.0,3.0,241.0,2179.674
2179684.0,215.0,33.0,3.0,238.0,2179.684
2179694.0,207.0,33.0,5.0,230.0,2179.694
2179704.0,214.0,33.0,4.0,241.0,2179.704
2179714.0,217.0,33.0,5.0,243.0,2179.714
2179724.0,215.0,33.0,4.0,241.0,2179.724
2179734.0,214.0,34.0,3.0,239.0,2179.734
2179744.0,207.0,32.0,4.0,231.0,2179.744
2179755.0,214.0,33.0,4.0,242.0,2179.755
2179765.0,220.0,33.0,4.0,244.0,2179.765
2179775.0,212.0,33.0,2.0,237.0,2179.775
2179785.0,213.0,33.0,4.0,237.0,2179.785
2179795.0,212.0,35.0,3.0,239.0,2179.795
2179805.0,216.0,33.0,3.0,243.0,2179.805
2179815.0,219.0,33.0,4.0,244.0,2179.815
2179825.0,213.0,32.0,5.0,235.0,2179.825
2179835.0,214.0,33.0,2.0,237.0,2179.835
2179845.0,209.0,33.0,5.0,232.0,2179.845
2179855.0,217.0,33.0,4.0,242.0,2179.855
2179865.0,219.0,34.0,3.0,242.0,2179.865
2179875.0,212.0,32.0,4.0,234.0,2179.875
2179885.0,214.0,33.0,3.0,237.0,2179.885
2179895.0,210.0,33.0,4.0,233.0,2179.895
2179905.0,216.0,34.0,3.0,241.0,2179.905
2179915.0,219.0,33.0,4.0,242.0,2179.915
2179926.0,211.0,34.0,3.0,232.0,2179.926
2179936.0,213.0,32.0,4.0,233.0,2179.936
2179946.0,214.0,34.0,3.0,239.0,2179.946
2179956.0,217.0,33.0,5.0,239.0,2179.956
2179966.0,216.0,33.0,3.0,237.0,2179.966
2179976.0,210.0,33.0,5.0,232.0,2179.976
2179986.0,212.0,34.0,3.0,235.0,2179.986
2179996.0,215.0,32.0,4.0,239.0,2179.996
2180006.0,216.0,33.0,4.0,238.0,2180.006
2180016.0,218.0,34.0,4.0,238.0,2180.016
2180026.0,209.0,33.0,3.0,230.0,2180.026
2180036.0,211.0,33.0,4.0,233.0,2180.036
2180046.0,216.0,33.0,3.0,240.0,2180.046
2180056.0,216.0,33.0,3.0,240.0,2180.056
2180066.0,217.0,33.0,3.0,238.0,2180.066
2180076.0,207.0,33.0,4.0,229.0,2180.076
2180086.0,210.0,33.0,4.0,234.0,2180.086
2180096.0,212.0,33.0,4.0,237.0,2180.096
2180106.0,216.0,33.0,4.0,239.0,2180.106
2180116.0,215.0,34.0,3.0,238.0,2180.116
2180126.0,208.0,32.0,4.0,228.0,2180.126
2180136.0,211.0,33.0,3.0,234.0,2180.136
2180146.0,214.0,32.0,4.0,238.0,2180.146
2180156.0,215.0,32.0,4.0,240.0,2180.156
2180166.0,215.0,33.0,4.0,237.0,2180.166
2180176.0,208.0,33.0,3.0,230.0,2180.176
2180186.0,212.0,32.0,3.0,233.0,2180.186
2180196.0,214.0,32.0,3.0,239.0,2180.196
2180206.0,217.0,32.0,4.0,239.0,2180.206
2180216.0,216.0,31.0,4.0,237.0,2180.216
2180226.0,211.0,32.0,5.0,231.0,2180.226
2180236.0,212.0,32.0,4.0,234.0,2180.236
2180246.0,215.0,33.0,3.0,239.0,2180.246
2180256.0,217.0,32.0,4.0,237.0,2180.256
2180267.0,216.0,32.0,4.0,235.0,2180.267
2180277.0,209.0,31.0,4.0,226.0,2180.277
2180287.0,214.0,32.0,4.0,235.0,2180.287
2180297.0,219.0,32.0,4.0,239.0,2180.297
2180307.0,215.0,33.0,3.0,234.0,2180.307
2180317.0,216.0,32.0,4.0,235.0,2180.317
2180327.0,208.0,32.0,3.0,227.0,2180.327
2180337.0,215.0,32.0,5.0,236.0,2180.337
2180347.0,220.0,32.0,3.0,241.0,2180.347
2180357.0,218.0,32.0,4.0,238.0,2180.357
2180367.0,216.0,32.0,4.0,238.0,2180.367
2180377.0,208.0,32.0,3.0,229.0,2180.377
2180387.0,217.0,31.0,4.0,240.0,2180.387
2180397.0,220.0,33.0,3.0,242.0,2180.397
2180407.0,218.0,31.0,4.0,237.0,2180.407
2180417.0,215.0,32.0,4.0,236.0,2180.417
2180427.0,210.0,32.0,4.0,230.0,2180.427
2180438.0,217.0,32.0,3.0,240.0,2180.438
2180448.0,220.0,32.0,3.0,241.0,2180.448
2180458.0,214.0,32.0,4.0,233.0,2180.458
2180468.0,216.0,32.0,5.0,235.0,2180.468
2180478.0,215.0,31.0,4.0,238.0,2180.478
2180488.0,220.0,31.0,5.0,240.0,2180.488
2180498.0,221.0,33.0,3.0,241.0,2180.498
2180508.0,215.0,31.0,4.0,232.0,2180.508
2180518.0,216.0,31.0,3.0,233.0,2180.518
2180528.0,213.0,32.0,4.0,230.0,2180.528
2180538.0,220.0,31.0,4.0,239.0,2180.538
2180548.0,222.0,32.0,4.0,240.0,2180.548
2180558.0,214.0,32.0,3.0,231.0,2180.558
2180568.0,216.0,31.0,3.0,233.0,2180.568
2180578.0,212.0,31.0,4.0,231.0,2180.578
2180588.0,220.0,31.0,4.0,238.0,2180.588
2180598.0,220.0,31.0,4.0,238.0,2180.598
2180608.0,215.0,32.0,4.0,232.0,2180.608
2180618.0,215.0,31.0,4.0,232.0,2180.618
2180628.0,212.0,32.0,3.0,232.0,2180.628
2180638.0,218.0,30.0,4.0,237.0,2180.638
2180648.0,217.0,32.0,4.0,236.0,2180.648
2180658.0,214.0,30.0,4.0,231.0,2180.658
2180668.0,214.0,31.0,4.0,232.0,2180.668
2180678.0,213.0,32.0,3.0,232.0,2180.678
2180688.0,218.0,32.0,3.0,237.0,2180.688
2180698.0,219.0,32.0,4.0,237.0,2180.698
2180708.0,213.0,32.0,3.0,230.0,2180.708
2180718.0,213.0,32.0,4.0,233.0,2180.718
2180728.0,214.0,31.0,4.0,235.0,2180.728
2180738.0,217.0,32.0,4.0,239.0,2180.738
2180748.0,219.0,32.0,4.0,239.0,2180.748
2180758.0,214.0,31.0,3.0,232.0,2180.758
2180768.0,214.0,32.0,4.0,234.0,2180.768
2180779.0,216.0,32.0,4.0,238.0,2180.779
2180789.0,219.0,31.0,5.0,239.0,2180.789
2180799.0,217.0,32.0,4.0,238.0,2180.799
2180809.0,211.0,31.0,4.0,229.0,2180.809
2180819.0,214.0,32.0,3.0,234.0,2180.819
2180829.0,217.0,32.0,4.0,237.0,2180.829
2180839.0,218.0,31.0,4.0,238.0,2180.839
2180849.0,217.0,32.0,4.0,235.0,2180.849
2180859.0,210.0,31.0,2.0,226.0,2180.859
2180869.0,213.0,32.0,5.0,231.0,2180.869
2180879.0,217.0,32.0,4.0,237.0,2180.879
2180889.0,217.0,32.0,3.0,236.0,2180.889
2180899.0,217.0,32.0,3.0,236.0,2180.899
