time (ms),signal 0,signal 1,signal 2,signal 3,time (sec)
2329399.0,205.0,32.0,240.0,240.0,2329.399
2329409.0,212.0,33.0,244.0,248.0,2329.409
2329419.0,217.0,32.0,243.0,250.0,2329.419
2329430.0,210.0,32.0,244.0,244.0,2329.43
2329440.0,211.0,32.0,237.0,243.0,2329.44
2329450.0,208.0,31.0,238.0,244.0,2329.45
2329460.0,213.0,32.0,243.0,249.0,2329.46
2329470.0,215.0,33.0,235.0,249.0,2329.47
2329480.0,208.0,32.0,237.0,243.0,2329.48
2329490.0,210.0,32.0,230.0,244.0,2329.49
2329500.0,209.0,33.0,234.0,245.0,2329.5
2329510.0,214.0,31.0,239.0,250.0,2329.51
2329520.0,217.0,33.0,234.0,251.0,2329.52
2329530.0,209.0,32.0,230.0,243.0,2329.53
2329540.0,211.0,33.0,225.0,245.0,2329.54
2329550.0,212.0,32.0,228.0,246.0,2329.55
2329560.0,214.0,32.0,231.0,250.0,2329.56
2329570.0,219.0,33.0,228.0,251.0,2329.57
2329580.0,208.0,31.0,224.0,244.0,2329.58
2329590.0,210.0,32.0,220.0,244.0,2329.59
2329600.0,208.0,33.0,219.0,245.0,2329.6
2329610.0,214.0,32.0,226.0,252.0,2329.61
2329620.0,219.0,32.0,223.0,251.0,2329.62
2329630.0,209.0,32.0,216.0,245.0,2329.63
2329640.0,212.0,32.0,215.0,247.0,2329.64
2329650.0,208.0,33.0,215.0,247.0,2329.65
2329660.0,215.0,33.0,221.0,255.0,2329.66
2329670.0,218.0,33.0,219.0,253.0,2329.67
2329680.0,208.0,32.0,209.0,245.0,2329.68
2329690.0,212.0,32.0,209.0,248.0,2329.69
2329700.0,211.0,32.0,210.0,248.0,2329.7
2329710.0,214.0,33.0,212.0,253.0,2329.71
2329720.0,218.0,32.0,213.0,251.0,2329.72
2329730.0,209.0,33.0,203.0,248.0,2329.73
2329740.0,212.0,33.0,204.0,247.0,2329.74
2329750.0,211.0,33.0,204.0,249.0,2329.75
2329760.0,215.0,33.0,207.0,254.0,2329.76
2329771.0,217.0,33.0,210.0,251.0,2329.771
2329781.0,206.0,32.0,194.0,246.0,2329.781
2329791.0,211.0,33.0,199.0,249.0,2329.791
2329801.0,216.0,33.0,209.0,255.0,2329.801
2329811.0,212.0,32.0,199.0,252.0,2329.811
2329821.0,217.0,33.0,207.0,251.0,2329.821
2329831.0,207.0,32.0,191.0,244.0,2329.831
2329841.0,210.0,33.0,199.0,250.0,2329.841
2329851.0,217.0,33.0,210.0,255.0,2329.851
2329861.0,215.0,33.0,202.0,253.0,2329.861
2329871.0,217.0,32.0,212.0,250.0,2329.871
2329881.0,207.0,32.0,193.0,242.0,2329.881
2329891.0,213.0,33.0,206.0,249.0,2329.891
2329901.0,215.0,33.0,212.0,254.0,2329.901
2329911.0,214.0,32.0,207.0,254.0,2329.911
2329921.0,217.0,34.0,220.0,252.0,2329.921
2329931.0,207.0,32.0,202.0,243.0,2329.931
2329942.0,213.0,33.0,214.0,251.0,2329.942
2329952.0,219.0,33.0,229.0,257.0,2329.952
2329962.0,212.0,33.0,210.0,251.0,2329.962
2329972.0,214.0,33.0,224.0,250.0,2329.972
2329982.0,208.0,33.0,215.0,248.0,2329.982
2329992.0,213.0,33.0,222.0,253.0,2329.992
2330002.0,219.0,33.0,237.0,258.0,2330.002
2330012.0,211.0,33.0,218.0,252.0,2330.012
2330022.0,215.0,33.0,232.0,250.0,2330.022
2330032.0,206.0,33.0,216.0,244.0,2330.032
2330042.0,214.0,33.0,229.0,253.0,2330.042
2330052.0,221.0,34.0,245.0,256.0,2330.052
2330062.0,211.0,34.0,225.0,249.0,2330.062
2330072.0,216.0,34.0,244.0,250.0,2330.072
2330082.0,208.0,33.0,227.0,243.0,2330.082
2330092.0,215.0,33.0,239.0,254.0,2330.092
2330102.0,222.0,33.0,255.0,256.0,2330.102
2330112.0,214.0,33.0,234.0,254.0,2330.112
2330122.0,217.0,33.0,252.0,251.0,2330.122
2330132.0,208.0,33.0,236.0,245.0,2330.132
2330142.0,216.0,33.0,247.0,254.0,2330.142
2330152.0,223.0,33.0,265.0,255.0,2330.152
2330162.0,214.0,33.0,242.0,252.0,2330.162
2330172.0,216.0,33.0,263.0,251.0,2330.172
2330182.0,209.0,33.0,249.0,246.0,2330.182
2330192.0,217.0,33.0,257.0,253.0,2330.192
2330202.0,221.0,33.0,274.0,255.0,2330.202
2330212.0,215.0,33.0,254.0,250.0,2330.212
2330222.0,215.0,33.0,274.0,249.0,2330.222
2330232.0,209.0,33.0,261.0,246.0,2330.232
2330242.0,214.0,33.0,269.0,252.0,2330.242
2330252.0,220.0,34.0,286.0,256.0,2330.252
2330262.0,212.0,33.0,262.0,250.0,2330.262
2330272.0,219.0,33.0,282.0,250.0,2330.272
2330283.0,219.0,33.0,274.0,250.0,2330.283
2330293.0,223.0,34.0,278.0,257.0,2330.293
2330303.0,228.0,33.0,298.0,256.0,2330.303
2330313.0,215.0,33.0,270.0,247.0,2330.313
2330323.0,218.0,33.0,285.0,248.0,2330.323
2330333.0,216.0,32.0,281.0,249.0,2330.333
2330343.0,221.0,33.0,280.0,254.0,2330.343
2330353.0,222.0,34.0,298.0,251.0,2330.353
2330363.0,210.0,32.0,270.0,244.0,2330.363
2330373.0,216.0,34.0,287.0,247.0,2330.373
2330383.0,212.0,32.0,281.0,248.0,2330.383
2330393.0,217.0,33.0,277.0,253.0,2330.393
2330403.0,222.0,33.0,296.0,250.0,2330.403
2330413.0,212.0,32.0,270.0,247.0,2330.413
2330423.0,214.0,33.0,285.0,247.0,2330.423
2330433.0,215.0,33.0,282.0,250.0,2330.433
2330443.0,217.0,32.0,273.0,252.0,2330.443
2330454.0,220.0,33.0,291.0,252.0,2330.454
2330464.0,209.0,32.0,265.0,243.0,2330.464
2330474.0,213.0,33.0,276.0,249.0,2330.474
2330484.0,220.0,33.0,288.0,256.0,2330.484
2330494.0,217.0,33.0,269.0,251.0,2330.494
2330504.0,223.0,34.0,292.0,251.0,2330.504
2330514.0,212.0,32.0,266.0,243.0,2330.514
2330524.0,217.0,33.0,278.0,250.0,2330.524
2330534.0,224.0,33.0,292.0,256.0,2330.534
2330544.0,218.0,32.0,272.0,255.0,2330.544
2330554.0,222.0,33.0,294.0,251.0,2330.554
2330564.0,214.0,33.0,270.0,241.0,2330.564
2330574.0,219.0,32.0,281.0,245.0,2330.574
2330584.0,223.0,33.0,293.0,249.0,2330.584
2330594.0,217.0,33.0,282.0,251.0,2330.594
2330604.0,219.0,33.0,307.0,251.0,2330.604
2330614.0,207.0,33.0,286.0,241.0,2330.614
2330624.0,213.0,33.0,307.0,249.0,2330.624
2330634.0,216.0,33.0,315.0,253.0,2330.634
2330644.0,217.0,32.0,301.0,251.0,2330.644
2330654.0,217.0,33.0,327.0,248.0,2330.654
2330664.0,211.0,33.0,311.0,240.0,2330.664
2330674.0,217.0,33.0,334.0,248.0,2330.674
2330684.0,222.0,33.0,349.0,258.0,2330.684
2330694.0,218.0,34.0,333.0,256.0,2330.694
2330704.0,221.0,32.0,366.0,254.0,2330.704
2330714.0,216.0,33.0,343.0,247.0,2330.714
2330724.0,226.0,33.0,359.0,248.0,2330.724
2330734.0,239.0,33.0,378.0,256.0,2330.734
2330744.0,235.0,32.0,360.0,252.0,2330.744
2330754.0,243.0,34.0,393.0,252.0,2330.754
2330764.0,232.0,33.0,367.0,238.0,2330.764
2330774.0,240.0,33.0,383.0,247.0,2330.774
2330784.0,249.0,33.0,400.0,252.0,2330.784
2330795.0,237.0,33.0,380.0,243.0,2330.795
2330805.0,240.0,35.0,404.0,246.0,2330.805
2330815.0,241.0,33.0,387.0,246.0,2330.815
2330825.0,250.0,34.0,394.0,259.0,2330.825
2330835.0,253.0,34.0,420.0,263.0,2330.835
2330845.0,247.0,34.0,385.0,264.0,2330.845
2330855.0,243.0,33.0,415.0,264.0,2330.855
2330865.0,228.0,34.0,397.0,253.0,2330.865
2330875.0,234.0,32.0,401.0,263.0,2330.875
2330885.0,235.0,35.0,417.0,260.0,2330.885
2330895.0,228.0,32.0,394.0,246.0,2330.895
2330905.0,235.0,34.0,426.0,249.0,2330.905
2330915.0,226.0,33.0,413.0,246.0,2330.915
2330925.0,233.0,33.0,413.0,254.0,2330.925
2330935.0,239.0,33.0,432.0,261.0,2330.935
2330945.0,227.0,33.0,405.0,248.0,2330.945
2330955.0,230.0,34.0,428.0,248.0,2330.955
2330966.0,225.0,32.0,409.0,243.0,2330.966
2330976.0,230.0,33.0,397.0,244.0,2330.976
2330986.0,242.0,34.0,429.0,248.0,2330.986
2330996.0,238.0,34.0,390.0,243.0,2330.996
2331006.0,236.0,33.0,415.0,246.0,2331.006
2331016.0,232.0,35.0,405.0,246.0,2331.016
2331026.0,237.0,32.0,394.0,252.0,2331.026
2331036.0,237.0,33.0,416.0,252.0,2331.036
2331046.0,226.0,33.0,380.0,240.0,2331.046
2331056.0,221.0,32.0,390.0,233.0,2331.056
2331066.0,218.0,33.0,376.0,240.0,2331.066
2331076.0,222.0,33.0,368.0,246.0,2331.076
2331086.0,226.0,33.0,384.0,244.0,2331.086
2331096.0,218.0,32.0,349.0,236.0,2331.096
2331106.0,220.0,33.0,361.0,237.0,2331.106
2331116.0,220.0,33.0,349.0,240.0,2331.116
2331126.0,224.0,32.0,335.0,249.0,2331.126
2331136.0,230.0,33.0,349.0,260.0,2331.136
2331146.0,227.0,33.0,312.0,252.0,2331.146
2331156.0,233.0,33.0,331.0,256.0,2331.156
2331166.0,237.0,33.0,324.0,259.0,2331.166
2331176.0,239.0,32.0,309.0,265.0,2331.176
2331186.0,242.0,33.0,327.0,263.0,2331.186
2331196.0,237.0,32.0,294.0,252.0,2331.196
2331206.0,239.0,33.0,300.0,255.0,2331.206
2331216.0,240.0,32.0,298.0,252.0,2331.216
2331226.0,238.0,32.0,284.0,249.0,2331.226
2331236.0,236.0,33.0,294.0,249.0,2331.236
2331246.0,224.0,33.0,264.0,241.0,2331.246
2331256.0,231.0,33.0,272.0,245.0,2331.256
2331266.0,231.0,33.0,267.0,244.0,2331.266
2331276.0,238.0,33.0,260.0,250.0,2331.276
2331286.0,243.0,32.0,273.0,247.0,2331.286
2331296.0,237.0,33.0,249.0,238.0,2331.296
2331307.0,239.0,33.0,258.0,237.0,2331.307
2331317.0,241.0,33.0,262.0,243.0,2331.317
2331327.0,233.0,32.0,242.0,238.0,2331.327
2331337.0,240.0,33.0,255.0,242.0,2331.337
2331347.0,233.0,32.0,236.0,234.0,2331.347
2331357.0,232.0,33.0,240.0,239.0,2331.357
2331367.0,235.0,33.0,248.0,248.0,2331.367
2331377.0,226.0,32.0,230.0,241.0,2331.377
2331387.0,226.0,32.0,234.0,240.0,2331.387
2331397.0,219.0,33.0,215.0,235.0,2331.397
2331407.0,226.0,32.0,226.0,246.0,2331.407
2331417.0,232.0,32.0,236.0,252.0,2331.417
2331427.0,229.0,32.0,221.0,249.0,2331.427
2331437.0,230.0,31.0,232.0,250.0,2331.437
2331447.0,218.0,32.0,211.0,240.0,2331.447
2331457.0,219.0,32.0,220.0,247.0,2331.457
2331467.0,223.0,32.0,226.0,248.0,2331.467
2331478.0,218.0,32.0,210.0,241.0,2331.478
2331488.0,218.0,32.0,217.0,243.0,2331.488
2331498.0,214.0,31.0,205.0,239.0,2331.498
2331508.0,222.0,32.0,211.0,248.0,2331.508
2331518.0,224.0,32.0,216.0,251.0,2331.518
2331528.0,219.0,32.0,200.0,243.0,2331.528
2331538.0,220.0,32.0,204.0,243.0,2331.538
2331548.0,217.0,32.0,195.0,236.0,2331.548
2331558.0,227.0,32.0,203.0,245.0,2331.558
2331568.0,226.0,32.0,205.0,244.0,2331.568
2331578.0,220.0,31.0,191.0,236.0,2331.578
2331588.0,226.0,33.0,198.0,239.0,2331.588
2331598.0,222.0,32.0,196.0,240.0,2331.598
2331608.0,228.0,32.0,204.0,248.0,2331.608
2331618.0,231.0,32.0,210.0,252.0,2331.618
2331628.0,223.0,31.0,198.0,248.0,2331.628
2331638.0,226.0,32.0,204.0,251.0,2331.638
2331648.0,218.0,32.0,194.0,243.0,2331.648
2331658.0,227.0,33.0,208.0,256.0,2331.658
2331668.0,231.0,32.0,214.0,258.0,2331.668
2331678.0,223.0,32.0,201.0,249.0,2331.678
2331688.0,221.0,32.0,202.0,247.0,2331.688
2331698.0,215.0,32.0,198.0,244.0,2331.698
2331708.0,224.0,32.0,213.0,259.0,2331.708
2331718.0,238.0,33.0,225.0,269.0,2331.718
2331728.0,228.0,32.0,211.0,254.0,2331.728
2331738.0,232.0,32.0,213.0,257.0,2331.738
2331748.0,226.0,32.0,207.0,251.0,2331.748
2331758.0,230.0,31.0,212.0,257.0,2331.758
2331768.0,234.0,32.0,214.0,259.0,2331.768
2331778.0,231.0,32.0,208.0,252.0,2331.778
2331788.0,233.0,32.0,208.0,252.0,2331.788
2331798.0,226.0,31.0,203.0,245.0,2331.798
2331808.0,225.0,32.0,207.0,250.0,2331.808
2331819.0,234.0,31.0,209.0,253.0,2331.819
2331829.0,224.0,31.0,208.0,247.0,2331.829
2331839.0,226.0,32.0,210.0,250.0,2331.839
2331849.0,230.0,33.0,217.0,257.0,2331.849
2331859.0,235.0,32.0,220.0,257.0,2331.859
2331869.0,236.0,32.0,215.0,256.0,2331.869
2331879.0,228.0,31.0,212.0,249.0,2331.879
2331889.0,231.0,31.0,214.0,253.0,2331.889
2331899.0,239.0,31.0,220.0,257.0,2331.899
2331909.0,236.0,32.0,224.0,260.0,2331.909
2331919.0,241.0,32.0,225.0,262.0,2331.919
2331929.0,232.0,31.0,217.0,250.0,2331.929
2331939.0,236.0,31.0,221.0,254.0,2331.939
2331949.0,235.0,31.0,224.0,257.0,2331.949
2331959.0,238.0,31.0,230.0,261.0,2331.959
2331969.0,239.0,32.0,224.0,257.0,2331.969
2331979.0,230.0,31.0,223.0,248.0,2331.979
2331990.0,231.0,30.0,223.0,251.0,2331.99
2332000.0,235.0,31.0,232.0,257.0,2332.0
2332010.0,231.0,31.0,230.0,250.0,2332.01
2332020.0,228.0,32.0,222.0,247.0,2332.02
2332030.0,221.0,30.0,220.0,239.0,2332.03
2332040.0,227.0,32.0,223.0,246.0,2332.04
2332050.0,232.0,31.0,230.0,252.0,2332.05
2332060.0,225.0,31.0,231.0,247.0,2332.06
2332070.0,229.0,31.0,226.0,244.0,2332.07
2332080.0,224.0,30.0,226.0,243.0,2332.08
2332090.0,224.0,31.0,230.0,251.0,2332.09
2332100.0,235.0,32.0,237.0,262.0,2332.1
2332110.0,229.0,31.0,237.0,256.0,2332.11
2332120.0,230.0,31.0,233.0,257.0,2332.12
2332130.0,221.0,31.0,229.0,247.0,2332.13
2332140.0,228.0,31.0,232.0,255.0,2332.14
2332150.0,232.0,31.0,237.0,259.0,2332.15
2332160.0,229.0,31.0,237.0,257.0,2332.16
2332170.0,226.0,32.0,229.0,253.0,2332.17
2332180.0,217.0,31.0,224.0,246.0,2332.18
2332190.0,223.0,31.0,229.0,254.0,2332.19
2332200.0,231.0,31.0,233.0,257.0,2332.2
2332210.0,227.0,31.0,232.0,256.0,2332.21
2332220.0,227.0,32.0,226.0,253.0,2332.22
2332230.0,218.0,32.0,219.0,247.0,2332.23
2332240.0,224.0,31.0,226.0,256.0,2332.24
2332250.0,228.0,31.0,228.0,259.0,2332.25
2332260.0,225.0,31.0,227.0,256.0,2332.26
2332270.0,225.0,31.0,220.0,253.0,2332.27
2332280.0,215.0,31.0,214.0,249.0,2332.28
2332290.0,221.0,32.0,219.0,256.0,2332.29
2332300.0,229.0,32.0,226.0,262.0,2332.3
2332310.0,227.0,30.0,224.0,261.0,2332.31
2332320.0,227.0,32.0,220.0,258.0,2332.32
2332331.0,221.0,31.0,221.0,255.0,2332.331
2332341.0,226.0,32.0,230.0,266.0,2332.341
2332351.0,231.0,32.0,231.0,265.0,2332.351
2332361.0,222.0,32.0,221.0,262.0,2332.361
2332371.0,225.0,32.0,221.0,262.0,2332.371
2332381.0,221.0,32.0,217.0,260.0,2332.381
2332391.0,231.0,31.0,224.0,267.0,2332.391
2332401.0,234.0,32.0,224.0,263.0,2332.401
2332411.0,223.0,31.0,215.0,259.0,2332.411
2332421.0,225.0,33.0,215.0,259.0,2332.421
2332431.0,219.0,32.0,210.0,256.0,2332.431
2332441.0,225.0,32.0,220.0,265.0,2332.441
2332451.0,226.0,33.0,221.0,262.0,2332.451
2332461.0,223.0,31.0,213.0,262.0,2332.461
2332471.0,222.0,32.0,211.0,258.0,2332.471
2332481.0,218.0,32.0,207.0,260.0,2332.481
2332491.0,226.0,33.0,216.0,272.0,2332.491
2332502.0,228.0,32.0,215.0,265.0,2332.502
2332512.0,219.0,32.0,203.0,260.0,2332.512
2332522.0,221.0,31.0,204.0,257.0,2332.522
2332532.0,222.0,33.0,209.0,261.0,2332.532
2332542.0,223.0,32.0,210.0,263.0,2332.542
2332552.0,226.0,33.0,212.0,261.0,2332.552
2332562.0,217.0,32.0,203.0,254.0,2332.562
2332572.0,220.0,32.0,205.0,256.0,2332.572
2332582.0,225.0,32.0,213.0,261.0,2332.582
2332592.0,225.0,33.0,211.0,261.0,2332.592
2332602.0,225.0,32.0,210.0,259.0,2332.602
2332612.0,218.0,32.0,201.0,253.0,2332.612
2332622.0,220.0,32.0,204.0,254.0,2332.622
2332632.0,222.0,32.0,205.0,256.0,2332.632
2332642.0,225.0,33.0,207.0,261.0,2332.642
2332652.0,225.0,34.0,208.0,257.0,2332.652
2332662.0,218.0,33.0,198.0,252.0,2332.662
2332672.0,221.0,33.0,203.0,255.0,2332.672
2332682.0,222.0,34.0,206.0,258.0,2332.682
2332692.0,225.0,33.0,207.0,261.0,2332.692
2332702.0,224.0,33.0,208.0,257.0,2332.702
2332712.0,219.0,32.0,198.0,251.0,2332.712
2332722.0,221.0,33.0,202.0,253.0,2332.722
2332732.0,224.0,33.0,207.0,258.0,2332.732
2332742.0,227.0,33.0,205.0,261.0,2332.742
2332752.0,225.0,33.0,209.0,257.0,2332.752
2332762.0,222.0,32.0,196.0,252.0,2332.762
2332772.0,223.0,33.0,202.0,253.0,2332.772
2332782.0,228.0,33.0,208.0,259.0,2332.782
2332792.0,228.0,33.0,203.0,259.0,2332.792
2332802.0,229.0,33.0,213.0,258.0,2332.802
2332812.0,223.0,33.0,195.0,250.0,2332.812
2332822.0,223.0,32.0,202.0,252.0,2332.822
2332832.0,228.0,33.0,212.0,259.0,2332.832
2332843.0,230.0,33.0,204.0,257.0,2332.843
2332853.0,226.0,33.0,215.0,256.0,2332.853
2332863.0,222.0,33.0,199.0,248.0,2332.863
2332873.0,227.0,34.0,211.0,258.0,2332.873
2332883.0,232.0,33.0,228.0,261.0,2332.883
2332893.0,230.0,33.0,211.0,257.0,2332.893
2332903.0,228.0,33.0,229.0,255.0,2332.903
2332913.0,221.0,33.0,212.0,248.0,2332.913
2332923.0,228.0,33.0,225.0,258.0,2332.923
2332933.0,231.0,34.0,240.0,260.0,2332.933
2332943.0,229.0,33.0,225.0,256.0,2332.943
2332953.0,227.0,33.0,246.0,254.0,2332.953
2332963.0,221.0,32.0,231.0,248.0,2332.963
2332973.0,226.0,33.0,245.0,253.0,2332.973
2332983.0,230.0,34.0,262.0,260.0,2332.983
2332993.0,228.0,33.0,245.0,257.0,2332.993
2333003.0,226.0,34.0,272.0,255.0,2333.003
2333014.0,220.0,32.0,258.0,247.0,2333.014
2333024.0,227.0,33.0,270.0,258.0,2333.024
2333034.0,230.0,33.0,296.0,259.0,2333.034
2333044.0,224.0,33.0,272.0,252.0,2333.044
2333054.0,224.0,33.0,297.0,252.0,2333.054
2333064.0,220.0,34.0,289.0,250.0,2333.064
2333074.0,227.0,33.0,299.0,258.0,2333.074
2333084.0,230.0,34.0,324.0,258.0,2333.084
2333094.0,224.0,33.0,301.0,251.0,2333.094
2333104.0,225.0,33.0,328.0,254.0,2333.104
2333114.0,222.0,33.0,316.0,251.0,2333.114
2333124.0,229.0,33.0,321.0,261.0,2333.124
2333134.0,229.0,34.0,347.0,258.0,2333.134
2333144.0,226.0,32.0,321.0,254.0,2333.144
2333154.0,225.0,33.0,348.0,254.0,2333.154
2333164.0,224.0,33.0,339.0,251.0,2333.164
2333174.0,229.0,33.0,339.0,259.0,2333.174
2333184.0,231.0,33.0,366.0,260.0,2333.184
2333194.0,227.0,33.0,340.0,254.0,2333.194
2333204.0,226.0,34.0,365.0,253.0,2333.204
2333214.0,224.0,33.0,357.0,252.0,2333.214
2333224.0,231.0,33.0,356.0,258.0,2333.224
2333234.0,231.0,33.0,383.0,259.0,2333.234
2333244.0,227.0,33.0,356.0,252.0,2333.244
2333254.0,226.0,34.0,381.0,253.0,2333.254
2333264.0,226.0,33.0,375.0,254.0,2333.264
2333274.0,230.0,32.0,373.0,257.0,2333.274
2333284.0,232.0,34.0,398.0,258.0,2333.284
2333294.0,226.0,33.0,369.0,251.0,2333.294
2333304.0,225.0,33.0,394.0,251.0,2333.304
2333314.0,221.0,33.0,379.0,248.0,2333.314
2333324.0,228.0,34.0,383.0,257.0,2333.324
2333334.0,231.0,33.0,408.0,257.0,2333.334
2333344.0,223.0,33.0,377.0,250.0,2333.344
2333355.0,225.0,33.0,401.0,251.0,2333.355
2333365.0,226.0,33.0,399.0,255.0,2333.365
2333375.0,228.0,33.0,386.0,257.0,2333.375
2333385.0,226.0,35.0,415.0,255.0,2333.385
2333395.0,219.0,33.0,387.0,246.0,2333.395
2333405.0,222.0,34.0,409.0,251.0,2333.405
2333415.0,225.0,34.0,410.0,256.0,2333.415
2333425.0,226.0,33.0,395.0,256.0,2333.425
2333435.0,224.0,34.0,424.0,253.0,2333.435
2333445.0,220.0,33.0,395.0,248.0,2333.445
2333455.0,219.0,34.0,418.0,250.0,2333.455
2333465.0,224.0,34.0,419.0,256.0,2333.465
2333475.0,224.0,33.0,401.0,257.0,2333.475
2333485.0,225.0,33.0,432.0,255.0,2333.485
2333495.0,217.0,33.0,399.0,248.0,2333.495
2333505.0,219.0,33.0,420.0,252.0,2333.505
2333515.0,224.0,35.0,421.0,258.0,2333.515
2333526.0,224.0,33.0,402.0,256.0,2333.526
2333536.0,222.0,33.0,428.0,253.0,2333.536
2333546.0,216.0,33.0,400.0,245.0,2333.546
2333556.0,221.0,33.0,408.0,255.0,2333.556
2333566.0,226.0,33.0,424.0,257.0,2333.566
2333576.0,224.0,34.0,396.0,255.0,2333.576
2333586.0,223.0,32.0,421.0,252.0,2333.586
2333596.0,216.0,32.0,394.0,245.0,2333.596
2333606.0,224.0,32.0,403.0,256.0,2333.606
2333616.0,227.0,31.0,413.0,258.0,2333.616
2333626.0,224.0,32.0,389.0,254.0,2333.626
2333636.0,223.0,32.0,412.0,252.0,2333.636
2333646.0,217.0,33.0,385.0,246.0,2333.646
2333656.0,222.0,32.0,396.0,254.0,2333.656
2333666.0,227.0,32.0,402.0,259.0,2333.666
2333676.0,225.0,31.0,379.0,253.0,2333.676
2333686.0,224.0,32.0,401.0,252.0,2333.686
2333696.0,218.0,31.0,373.0,244.0,2333.696
2333706.0,223.0,32.0,384.0,253.0,2333.706
2333716.0,228.0,32.0,390.0,256.0,2333.716
2333726.0,225.0,32.0,365.0,251.0,2333.726
2333736.0,224.0,32.0,385.0,250.0,2333.736
2333746.0,219.0,31.0,358.0,243.0,2333.746
2333756.0,224.0,32.0,367.0,252.0,2333.756
2333766.0,229.0,32.0,374.0,257.0,2333.766
2333776.0,225.0,32.0,349.0,250.0,2333.776
2333786.0,225.0,32.0,371.0,251.0,2333.786
2333796.0,217.0,32.0,343.0,243.0,2333.796
2333806.0,225.0,31.0,352.0,253.0,2333.806
2333816.0,229.0,32.0,358.0,257.0,2333.816
2333826.0,226.0,31.0,334.0,252.0,2333.826
2333836.0,224.0,33.0,353.0,252.0,2333.836
2333846.0,217.0,31.0,326.0,244.0,2333.846
2333856.0,224.0,31.0,333.0,254.0,2333.856
2333867.0,228.0,32.0,342.0,256.0,2333.867
2333877.0,223.0,31.0,316.0,248.0,2333.877
2333887.0,222.0,32.0,332.0,249.0,2333.887
2333897.0,222.0,32.0,316.0,251.0,2333.897
2333907.0,226.0,32.0,312.0,256.0,2333.907
2333917.0,228.0,32.0,323.0,258.0,2333.917
2333927.0,222.0,32.0,299.0,248.0,2333.927
2333937.0,222.0,31.0,312.0,249.0,2333.937
2333947.0,222.0,32.0,299.0,250.0,2333.947
2333957.0,225.0,32.0,299.0,254.0,2333.957
2333967.0,227.0,33.0,307.0,254.0,2333.967
2333977.0,221.0,30.0,283.0,246.0,2333.977
2333987.0,221.0,32.0,295.0,248.0,2333.987
2333997.0,219.0,32.0,281.0,245.0,2333.997
2334007.0,225.0,31.0,284.0,254.0,2334.007
2334017.0,227.0,32.0,292.0,255.0,2334.017
2334027.0,219.0,33.0,269.0,247.0,2334.027
2334038.0,220.0,32.0,281.0,248.0,2334.038
2334048.0,223.0,32.0,272.0,253.0,2334.048
2334058.0,225.0,32.0,267.0,254.0,2334.058
2334068.0,224.0,32.0,280.0,252.0,2334.068
2334078.0,217.0,31.0,255.0,243.0,2334.078
2334088.0,220.0,32.0,267.0,249.0,2334.088
2334098.0,223.0,32.0,260.0,254.0,2334.098
2334108.0,224.0,31.0,255.0,254.0,2334.108
2334118.0,224.0,32.0,268.0,252.0,2334.118
2334128.0,218.0,31.0,245.0,245.0,2334.128
2334138.0,219.0,32.0,252.0,248.0,2334.138
2334148.0,224.0,32.0,248.0,255.0,2334.148
2334158.0,223.0,32.0,243.0,253.0,2334.158
2334168.0,225.0,32.0,253.0,253.0,2334.168
2334178.0,216.0,32.0,232.0,244.0,2334.178
2334188.0,220.0,31.0,240.0,248.0,2334.188
2334198.0,224.0,32.0,237.0,255.0,2334.198
2334208.0,223.0,32.0,235.0,253.0,2334.208
2334218.0,223.0,33.0,242.0,253.0,2334.218
2334228.0,216.0,32.0,223.0,242.0,2334.228
2334238.0,218.0,32.0,229.0,248.0,2334.238
2334248.0,225.0,32.0,229.0,255.0,2334.248
2334258.0,224.0,31.0,226.0,253.0,2334.258
2334268.0,223.0,32.0,232.0,251.0,2334.268
2334278.0,215.0,32.0,212.0,243.0,2334.278
2334288.0,218.0,32.0,219.0,249.0,2334.288
2334298.0,221.0,32.0,215.0,253.0,2334.298
2334308.0,222.0,32.0,216.0,254.0,2334.308
2334318.0,223.0,32.0,223.0,252.0,2334.318
2334328.0,213.0,32.0,204.0,243.0,2334.328
2334338.0,218.0,32.0,211.0,248.0,2334.338
2334348.0,222.0,33.0,207.0,254.0,2334.348
2334358.0,222.0,32.0,208.0,252.0,2334.358
2334368.0,221.0,32.0,213.0,250.0,2334.368
2334379.0,214.0,32.0,197.0,242.0,2334.379
2334389.0,220.0,31.0,205.0,253.0,2334.389
2334399.0,225.0,32.0,204.0,256.0,2334.399
2334409.0,219.0,32.0,199.0,251.0,2334.409
2334419.0,219.0,32.0,202.0,250.0,2334.419
2334429.0,214.0,32.0,191.0,243.0,2334.429
2334439.0,221.0,32.0,201.0,254.0,2334.439
2334449.0,225.0,32.0,198.0,256.0,2334.449
2334459.0,220.0,32.0,194.0,249.0,2334.459
2334469.0,221.0,32.0,198.0,250.0,2334.469
2334479.0,214.0,32.0,186.0,243.0,2334.479
2334489.0,223.0,32.0,197.0,254.0,2334.489
2334499.0,226.0,32.0,195.0,255.0,2334.499
2334509.0,224.0,31.0,194.0,251.0,2334.509
2334519.0,222.0,32.0,194.0,250.0,2334.519
2334529.0,214.0,32.0,185.0,242.0,2334.529
2334539.0,223.0,32.0,195.0,255.0,2334.539
2334550.0,226.0,32.0,194.0,255.0,2334.55
2334560.0,219.0,32.0,188.0,247.0,2334.56
2334570.0,220.0,32.0,190.0,248.0,2334.57
2334580.0,219.0,31.0,186.0,251.0,2334.58
2334590.0,223.0,32.0,194.0,255.0,2334.59
2334600.0,225.0,33.0,193.0,257.0,2334.6
2334610.0,218.0,31.0,187.0,248.0,2334.61
2334620.0,219.0,32.0,188.0,249.0,2334.62
2334630.0,220.0,32.0,187.0,252.0,2334.63
2334640.0,224.0,31.0,196.0,255.0,2334.64
2334650.0,224.0,32.0,194.0,256.0,2334.65
2334660.0,218.0,32.0,188.0,246.0,2334.66
2334670.0,218.0,32.0,189.0,250.0,2334.67
2334680.0,215.0,32.0,188.0,248.0,2334.68
2334690.0,223.0,32.0,199.0,256.0,2334.69
2334700.0,226.0,31.0,198.0,256.0,2334.7
2334710.0,217.0,31.0,192.0,246.0,2334.71
2334720.0,220.0,32.0,192.0,250.0,2334.72
2334730.0,218.0,32.0,191.0,249.0,2334.73
2334740.0,224.0,32.0,201.0,255.0,2334.74
2334750.0,226.0,32.0,199.0,254.0,2334.75
2334760.0,217.0,32.0,195.0,245.0,2334.76
2334770.0,221.0,32.0,195.0,249.0,2334.77
2334780.0,218.0,32.0,194.0,249.0,2334.78
2334790.0,223.0,32.0,205.0,255.0,2334.79
2334800.0,223.0,33.0,201.0,253.0,2334.8
2334810.0,218.0,31.0,202.0,246.0,2334.81
2334820.0,219.0,32.0,199.0,248.0,2334.82
2334830.0,220.0,32.0,200.0,250.0,2334.83
2334840.0,224.0,31.0,210.0,254.0,2334.84
2334850.0,225.0,32.0,207.0,255.0,2334.85
2334860.0,218.0,32.0,205.0,247.0,2334.86
2334870.0,219.0,32.0,203.0,247.0,2334.87
2334880.0,220.0,32.0,204.0,251.0,2334.88
2334891.0,224.0,32.0,215.0,253.0,2334.891
2334901.0,224.0,32.0,207.0,251.0,2334.901
2334911.0,215.0,32.0,207.0,241.0,2334.911
2334921.0,219.0,32.0,209.0,249.0,2334.921
2334931.0,225.0,32.0,213.0,254.0,2334.931
2334941.0,223.0,32.0,219.0,252.0,2334.941
2334951.0,222.0,32.0,212.0,250.0,2334.951
2334961.0,214.0,31.0,212.0,242.0,2334.961
2334971.0,218.0,32.0,214.0,249.0,2334.971
2334981.0,221.0,32.0,216.0,252.0,2334.981
2334991.0,222.0,33.0,223.0,253.0,2334.991
2335001.0,222.0,32.0,216.0,250.0,2335.001
2335011.0,212.0,32.0,215.0,242.0,2335.011
2335021.0,218.0,32.0,217.0,246.0,2335.021
2335031.0,222.0,32.0,220.0,254.0,2335.031
2335041.0,221.0,32.0,227.0,252.0,2335.041
2335051.0,221.0,33.0,219.0,252.0,2335.051
2335062.0,212.0,32.0,220.0,242.0,2335.062
2335072.0,219.0,32.0,225.0,252.0,2335.072
2335082.0,225.0,33.0,228.0,256.0,2335.082
2335092.0,219.0,31.0,230.0,249.0,2335.092
2335102.0,219.0,33.0,223.0,249.0,2335.102
2335112.0,212.0,32.0,225.0,242.0,2335.112
2335122.0,220.0,32.0,232.0,252.0,2335.122
2335132.0,225.0,32.0,233.0,255.0,2335.132
2335142.0,217.0,32.0,237.0,247.0,2335.142
2335152.0,221.0,32.0,230.0,249.0,2335.152
2335162.0,212.0,32.0,232.0,242.0,2335.162
2335172.0,220.0,32.0,241.0,252.0,2335.172
2335182.0,225.0,33.0,240.0,256.0,2335.182
2335192.0,221.0,32.0,246.0,250.0,2335.192
2335202.0,221.0,32.0,237.0,249.0,2335.202
2335212.0,214.0,32.0,242.0,242.0,2335.212
2335222.0,222.0,33.0,248.0,253.0,2335.222
2335232.0,225.0,32.0,247.0,254.0,2335.232
2335242.0,221.0,33.0,252.0,251.0,2335.242
2335252.0,221.0,33.0,243.0,250.0,2335.252
2335262.0,215.0,32.0,246.0,244.0,2335.262
2335272.0,222.0,33.0,255.0,254.0,2335.272
2335282.0,225.0,33.0,252.0,255.0,2335.282
2335292.0,220.0,33.0,258.0,249.0,2335.292
2335302.0,220.0,33.0,247.0,249.0,2335.302
2335312.0,216.0,34.0,253.0,245.0,2335.312
2335322.0,221.0,32.0,256.0,251.0,2335.322
2335332.0,226.0,33.0,256.0,256.0,2335.332
2335342.0,221.0,32.0,264.0,249.0,2335.342
2335352.0,221.0,33.0,253.0,249.0,2335.352
2335362.0,214.0,32.0,258.0,242.0,2335.362
2335372.0,221.0,33.0,262.0,254.0,2335.372
2335382.0,226.0,32.0,261.0,256.0,2335.382
2335392.0,220.0,32.0,267.0,249.0,2335.392
2335403.0,220.0,33.0,257.0,250.0,2335.403
2335413.0,218.0,32.0,263.0,249.0,2335.413
2335423.0,224.0,32.0,270.0,255.0,2335.423
2335433.0,224.0,33.0,258.0,253.0,2335.433
2335443.0,216.0,32.0,267.0,244.0,2335.443
2335453.0,220.0,32.0,260.0,249.0,2335.453
2335463.0,219.0,33.0,265.0,250.0,2335.463
2335473.0,225.0,33.0,272.0,255.0,2335.473
2335483.0,224.0,33.0,260.0,253.0,2335.483
2335493.0,219.0,32.0,270.0,248.0,2335.493
2335503.0,220.0,33.0,261.0,250.0,2335.503
2335513.0,220.0,32.0,267.0,250.0,2335.513
2335523.0,224.0,33.0,273.0,254.0,2335.523
2335533.0,226.0,33.0,264.0,255.0,2335.533
2335543.0,218.0,32.0,270.0,246.0,2335.543
2335553.0,219.0,32.0,262.0,249.0,2335.553
2335563.0,221.0,33.0,269.0,253.0,2335.563
2335574.0,223.0,32.0,276.0,254.0,2335.574
2335584.0,223.0,33.0,262.0,253.0,2335.584
2335594.0,215.0,32.0,271.0,243.0,2335.594
2335604.0,220.0,32.0,267.0,250.0,2335.604
2335614.0,226.0,33.0,271.0,256.0,2335.614
2335624.0,224.0,33.0,278.0,253.0,2335.624
2335634.0,224.0,33.0,264.0,251.0,2335.634
2335644.0,215.0,32.0,272.0,242.0,2335.644
2335654.0,220.0,33.0,269.0,250.0,2335.654
2335664.0,224.0,33.0,273.0,254.0,2335.664
2335674.0,223.0,32.0,278.0,252.0,2335.674
2335684.0,222.0,33.0,265.0,250.0,2335.684
2335694.0,214.0,32.0,273.0,243.0,2335.694
2335704.0,218.0,32.0,268.0,247.0,2335.704
2335714.0,223.0,33.0,275.0,255.0,2335.714
2335724.0,223.0,32.0,281.0,253.0,2335.724
2335734.0,222.0,33.0,266.0,250.0,2335.734
2335744.0,215.0,32.0,274.0,244.0,2335.744
2335754.0,219.0,32.0,268.0,248.0,2335.754
2335764.0,224.0,33.0,275.0,254.0,2335.764
2335774.0,223.0,32.0,279.0,252.0,2335.774
2335784.0,221.0,33.0,265.0,250.0,2335.784
2335794.0,214.0,32.0,274.0,244.0,2335.794
2335804.0,218.0,32.0,268.0,250.0,2335.804
2335814.0,225.0,32.0,274.0,256.0,2335.814
2335824.0,221.0,33.0,278.0,253.0,2335.824
2335834.0,223.0,32.0,266.0,252.0,2335.834
2335844.0,214.0,32.0,271.0,245.0,2335.844
2335854.0,219.0,33.0,270.0,251.0,2335.854
2335864.0,224.0,33.0,272.0,257.0,2335.864
2335874.0,222.0,32.0,277.0,255.0,2335.874
2335884.0,223.0,33.0,263.0,253.0,2335.884
2335894.0,214.0,32.0,269.0,244.0,2335.894
2335904.0,219.0,32.0,267.0,251.0,2335.904
2335915.0,225.0,33.0,270.0,257.0,2335.915
2335925.0,221.0,31.0,273.0,253.0,2335.925
2335935.0,220.0,33.0,262.0,252.0,2335.935
2335945.0,215.0,33.0,265.0,248.0,2335.945
2335955.0,223.0,33.0,272.0,257.0,2335.955
2335965.0,226.0,32.0,267.0,258.0,2335.965
2335975.0,220.0,33.0,271.0,252.0,2335.975
2335985.0,221.0,33.0,260.0,251.0,2335.985
2335995.0,216.0,32.0,264.0,250.0,2335.995
2336005.0,220.0,32.0,267.0,254.0,2336.005
2336015.0,226.0,33.0,266.0,259.0,2336.015
2336025.0,220.0,32.0,270.0,251.0,2336.025
2336035.0,220.0,32.0,259.0,250.0,2336.035
2336045.0,213.0,33.0,263.0,245.0,2336.045
2336055.0,222.0,31.0,267.0,255.0,2336.055
2336065.0,226.0,33.0,264.0,257.0,2336.065
2336075.0,220.0,32.0,268.0,251.0,2336.075
2336086.0,220.0,33.0,259.0,250.0,2336.086
2336096.0,219.0,32.0,264.0,251.0,2336.096
2336106.0,224.0,32.0,271.0,257.0,2336.106
2336116.0,225.0,33.0,259.0,254.0,2336.116
2336126.0,216.0,32.0,266.0,247.0,2336.126
2336136.0,220.0,33.0,259.0,250.0,2336.136
2336146.0,220.0,32.0,265.0,252.0,2336.146
2336156.0,224.0,32.0,271.0,256.0,2336.156
2336166.0,224.0,32.0,259.0,254.0,2336.166
2336176.0,219.0,32.0,267.0,250.0,2336.176
2336186.0,220.0,33.0,257.0,251.0,2336.186
2336196.0,221.0,32.0,264.0,254.0,2336.196
2336206.0,224.0,33.0,271.0,259.0,2336.206
2336216.0,226.0,33.0,261.0,258.0,2336.216
2336226.0,217.0,32.0,268.0,250.0,2336.226
2336236.0,219.0,32.0,260.0,251.0,2336.236
2336246.0,221.0,33.0,266.0,257.0,2336.246
2336256.0,223.0,32.0,273.0,259.0,2336.256
2336266.0,225.0,33.0,262.0,258.0,2336.266
2336276.0,216.0,33.0,270.0,251.0,2336.276
2336286.0,219.0,32.0,262.0,252.0,2336.286
2336296.0,221.0,32.0,270.0,257.0,2336.296
2336306.0,224.0,32.0,276.0,258.0,2336.306
2336316.0,225.0,33.0,264.0,256.0,2336.316
2336326.0,216.0,32.0,274.0,249.0,2336.326
2336336.0,219.0,33.0,267.0,252.0,2336.336
2336346.0,218.0,32.0,273.0,253.0,2336.346
2336356.0,224.0,32.0,281.0,259.0,2336.356
2336366.0,225.0,33.0,269.0,255.0,2336.366
2336376.0,216.0,31.0,276.0,248.0,2336.376
2336386.0,220.0,32.0,269.0,252.0,2336.386
2336396.0,220.0,32.0,276.0,255.0,2336.396
2336406.0,224.0,32.0,282.0,257.0,2336.406
2336416.0,224.0,32.0,268.0,254.0,2336.416
2336427.0,215.0,32.0,276.0,247.0,2336.427
2336437.0,219.0,31.0,270.0,251.0,2336.437
2336447.0,224.0,33.0,275.0,258.0,2336.447
2336457.0,222.0,32.0,280.0,255.0,2336.457
2336467.0,222.0,33.0,266.0,253.0,2336.467
2336477.0,215.0,32.0,273.0,246.0,2336.477
2336487.0,218.0,32.0,269.0,252.0,2336.487
2336497.0,224.0,33.0,274.0,259.0,2336.497
2336507.0,220.0,33.0,278.0,255.0,2336.507
2336517.0,222.0,32.0,265.0,254.0,2336.517
2336527.0,213.0,32.0,271.0,247.0,2336.527
2336537.0,217.0,32.0,269.0,254.0,2336.537
2336547.0,223.0,33.0,271.0,259.0,2336.547
2336557.0,221.0,33.0,277.0,257.0,2336.557
2336567.0,220.0,33.0,263.0,254.0,2336.567
2336577.0,210.0,33.0,267.0,247.0,2336.577
2336587.0,216.0,33.0,268.0,256.0,2336.587
2336598.0,222.0,33.0,270.0,260.0,2336.598
2336608.0,216.0,32.0,273.0,255.0,2336.608
2336618.0,217.0,33.0,261.0,254.0,2336.618
2336628.0,213.0,32.0,265.0,251.0,2336.628
2336638.0,220.0,32.0,272.0,260.0,2336.638
2336648.0,223.0,32.0,266.0,260.0,2336.648
2336658.0,217.0,33.0,269.0,255.0,2336.658
2336668.0,218.0,32.0,259.0,252.0,2336.668
2336678.0,214.0,32.0,262.0,251.0,2336.678
2336688.0,220.0,32.0,265.0,256.0,2336.688
2336698.0,224.0,32.0,262.0,260.0,2336.698
2336708.0,217.0,32.0,265.0,253.0,2336.708
2336718.0,218.0,33.0,256.0,253.0,2336.718
2336728.0,211.0,32.0,257.0,247.0,2336.728
2336738.0,220.0,32.0,263.0,257.0,2336.738
2336748.0,224.0,33.0,259.0,259.0,2336.748
2336758.0,216.0,31.0,260.0,253.0,2336.758
2336768.0,218.0,32.0,252.0,253.0,2336.768
2336778.0,211.0,32.0,253.0,249.0,2336.778
2336788.0,219.0,33.0,260.0,260.0,2336.788
2336798.0,224.0,32.0,255.0,259.0,2336.798
2336808.0,213.0,32.0,257.0,253.0,2336.808
2336818.0,219.0,31.0,250.0,254.0,2336.818
2336828.0,212.0,32.0,249.0,251.0,2336.828
2336838.0,220.0,32.0,256.0,260.0,2336.838
2336848.0,224.0,33.0,250.0,259.0,2336.848
2336858.0,217.0,32.0,253.0,255.0,2336.858
2336868.0,219.0,32.0,244.0,254.0,2336.868
2336878.0,213.0,32.0,247.0,251.0,2336.878
2336888.0,220.0,31.0,253.0,260.0,2336.888
2336898.0,224.0,32.0,249.0,261.0,2336.898
2336908.0,216.0,32.0,250.0,256.0,2336.908
2336918.0,219.0,32.0,242.0,254.0,2336.918
2336928.0,215.0,32.0,243.0,254.0,2336.928
2336939.0,221.0,32.0,250.0,260.0,2336.939
2336949.0,226.0,32.0,243.0,258.0,2336.949
2336959.0,214.0,32.0,243.0,250.0,2336.959
2336969.0,217.0,32.0,238.0,252.0,2336.969
2336979.0,221.0,33.0,245.0,258.0,2336.979
2336989.0,221.0,32.0,248.0,258.0,2336.989
2336999.0,224.0,32.0,239.0,256.0,2336.999
2337009.0,213.0,32.0,241.0,249.0,2337.009
2337019.0,217.0,32.0,238.0,251.0,2337.019
2337029.0,217.0,32.0,241.0,253.0,2337.029
2337039.0,222.0,33.0,248.0,258.0,2337.039
2337049.0,223.0,32.0,239.0,254.0,2337.049
2337059.0,213.0,32.0,241.0,248.0,2337.059
2337069.0,218.0,32.0,238.0,251.0,2337.069
2337079.0,219.0,31.0,243.0,254.0,2337.079
2337089.0,221.0,33.0,248.0,258.0,2337.089
2337099.0,222.0,33.0,239.0,254.0,2337.099
2337110.0,213.0,32.0,242.0,247.0,2337.11
2337120.0,217.0,32.0,241.0,252.0,2337.12
2337130.0,223.0,33.0,247.0,259.0,2337.13
2337140.0,220.0,32.0,249.0,255.0,2337.14
2337150.0,220.0,33.0,239.0,253.0,2337.15
2337160.0,213.0,32.0,241.0,245.0,2337.16
2337170.0,217.0,33.0,241.0,253.0,2337.17
2337180.0,223.0,32.0,246.0,258.0,2337.18
2337190.0,219.0,32.0,247.0,255.0,2337.19
2337200.0,223.0,32.0,241.0,253.0,2337.2
2337210.0,212.0,33.0,240.0,246.0,2337.21
2337220.0,217.0,33.0,241.0,254.0,2337.22
2337230.0,224.0,33.0,245.0,260.0,2337.23
2337240.0,219.0,32.0,248.0,257.0,2337.24
2337250.0,220.0,32.0,238.0,254.0,2337.25
2337260.0,211.0,32.0,237.0,246.0,2337.26
2337270.0,219.0,32.0,240.0,254.0,2337.27
2337280.0,222.0,33.0,242.0,258.0,2337.28
2337290.0,220.0,33.0,244.0,256.0,2337.29
2337300.0,220.0,34.0,235.0,253.0,2337.3
2337310.0,212.0,32.0,235.0,246.0,2337.31
2337320.0,219.0,33.0,239.0,255.0,2337.32
2337330.0,224.0,33.0,243.0,258.0,2337.33
2337340.0,220.0,33.0,242.0,255.0,2337.34
2337350.0,220.0,33.0,234.0,252.0,2337.35
2337360.0,212.0,34.0,233.0,244.0,2337.36
2337370.0,217.0,33.0,235.0,251.0,2337.37
2337380.0,224.0,34.0,241.0,257.0,2337.38
2337390.0,221.0,33.0,244.0,253.0,2337.39
2337400.0,221.0,34.0,234.0,251.0,2337.4
2337410.0,214.0,32.0,237.0,244.0,2337.41
2337420.0,217.0,33.0,237.0,251.0,2337.42
2337430.0,224.0,34.0,242.0,257.0,2337.43
2337440.0,220.0,32.0,245.0,252.0,2337.44
2337451.0,220.0,33.0,236.0,251.0,2337.451
2337461.0,213.0,33.0,238.0,246.0,2337.461
2337471.0,221.0,33.0,245.0,256.0,2337.471
2337481.0,225.0,33.0,241.0,256.0,2337.481
2337491.0,216.0,34.0,243.0,250.0,2337.491
2337501.0,219.0,34.0,237.0,251.0,2337.501
2337511.0,213.0,34.0,236.0,248.0,2337.511
2337521.0,222.0,33.0,244.0,257.0,2337.521
2337531.0,224.0,34.0,238.0,255.0,2337.531
2337541.0,218.0,33.0,240.0,252.0,2337.541
2337551.0,219.0,34.0,234.0,252.0,2337.551
2337561.0,215.0,33.0,235.0,250.0,2337.561
2337571.0,222.0,32.0,242.0,257.0,2337.571
2337581.0,225.0,34.0,239.0,258.0,2337.581
2337591.0,218.0,33.0,239.0,252.0,2337.591
2337601.0,218.0,34.0,232.0,252.0,2337.601
2337611.0,216.0,33.0,234.0,252.0,2337.611
2337622.0,221.0,34.0,241.0,259.0,2337.622
2337632.0,224.0,34.0,234.0,256.0,2337.632
2337642.0,213.0,33.0,233.0,248.0,2337.642
2337652.0,218.0,33.0,230.0,251.0,2337.652
2337662.0,221.0,34.0,236.0,258.0,2337.662
2337672.0,222.0,33.0,240.0,257.0,2337.672
2337682.0,223.0,35.0,231.0,255.0,2337.682
2337692.0,214.0,32.0,232.0,247.0,2337.692
2337702.0,217.0,32.0,229.0,251.0,2337.702
2337712.0,219.0,33.0,236.0,253.0,2337.712
2337722.0,222.0,33.0,241.0,257.0,2337.722
2337732.0,223.0,33.0,233.0,253.0,2337.732
2337742.0,214.0,33.0,234.0,248.0,2337.742
2337752.0,218.0,34.0,231.0,250.0,2337.752
2337762.0,219.0,32.0,236.0,255.0,2337.762
2337772.0,222.0,32.0,241.0,257.0,2337.772
2337782.0,223.0,33.0,232.0,254.0,2337.782
2337792.0,214.0,33.0,234.0,249.0,2337.792
2337802.0,217.0,32.0,229.0,250.0,2337.802
2337812.0,219.0,34.0,235.0,256.0,2337.812
2337822.0,222.0,32.0,239.0,256.0,2337.822
2337832.0,222.0,33.0,230.0,253.0,2337.832
2337842.0,216.0,33.0,233.0,249.0,2337.842
2337852.0,218.0,33.0,229.0,250.0,2337.852
2337862.0,222.0,33.0,235.0,256.0,2337.862
2337872.0,222.0,32.0,237.0,256.0,2337.872
2337882.0,224.0,34.0,231.0,255.0,2337.882
2337892.0,215.0,32.0,228.0,247.0,2337.892
2337902.0,218.0,32.0,227.0,249.0,2337.902
2337912.0,223.0,32.0,234.0,255.0,2337.912
2337922.0,222.0,32.0,235.0,256.0,2337.922
2337932.0,224.0,32.0,228.0,253.0,2337.932
2337942.0,214.0,33.0,224.0,246.0,2337.942
2337952.0,217.0,32.0,224.0,250.0,2337.952
2337963.0,223.0,32.0,231.0,256.0,2337.963
2337973.0,222.0,32.0,232.0,253.0,2337.973
2337983.0,221.0,33.0,224.0,251.0,2337.983
2337993.0,213.0,32.0,221.0,244.0,2337.993
2338003.0,220.0,33.0,229.0,254.0,2338.003
2338013.0,224.0,32.0,232.0,256.0,2338.013
2338023.0,221.0,32.0,231.0,252.0,2338.023
2338033.0,221.0,32.0,226.0,250.0,2338.033
2338043.0,212.0,32.0,222.0,244.0,2338.043
2338053.0,218.0,33.0,225.0,250.0,2338.053
2338063.0,224.0,33.0,232.0,258.0,2338.063
2338073.0,220.0,32.0,233.0,252.0,2338.073
2338083.0,220.0,32.0,226.0,251.0,2338.083
2338093.0,213.0,32.0,226.0,243.0,2338.093
2338103.0,220.0,32.0,230.0,250.0,2338.103
2338113.0,224.0,32.0,235.0,256.0,2338.113
2338123.0,221.0,32.0,235.0,250.0,2338.123
2338134.0,221.0,33.0,229.0,249.0,2338.134
2338144.0,215.0,31.0,230.0,246.0,2338.144
2338154.0,223.0,32.0,239.0,254.0,2338.154
2338164.0,227.0,32.0,236.0,255.0,2338.164
2338174.0,218.0,32.0,236.0,248.0,2338.174
2338184.0,220.0,32.0,232.0,249.0,2338.184
2338194.0,215.0,33.0,234.0,248.0,2338.194
2338204.0,223.0,32.0,242.0,256.0,2338.204
2338214.0,225.0,32.0,235.0,255.0,2338.214
2338224.0,219.0,32.0,240.0,249.0,2338.224
2338234.0,220.0,31.0,232.0,250.0,2338.234
2338244.0,216.0,32.0,235.0,248.0,2338.244
2338254.0,223.0,32.0,242.0,256.0,2338.254
2338264.0,225.0,32.0,238.0,256.0,2338.264
2338274.0,219.0,32.0,237.0,248.0,2338.274
2338284.0,219.0,32.0,230.0,249.0,2338.284
2338294.0,218.0,31.0,233.0,249.0,2338.294
2338304.0,220.0,32.0,236.0,254.0,2338.304
2338314.0,225.0,32.0,235.0,255.0,2338.314
2338324.0,218.0,32.0,233.0,249.0,2338.324
2338334.0,219.0,32.0,228.0,248.0,2338.334
2338344.0,218.0,32.0,231.0,250.0,2338.344
2338354.0,223.0,32.0,235.0,254.0,2338.354
2338364.0,226.0,32.0,232.0,254.0,2338.364
2338374.0,217.0,31.0,231.0,247.0,2338.374
2338384.0,219.0,31.0,227.0,248.0,2338.384
2338394.0,213.0,32.0,227.0,246.0,2338.394
2338404.0,222.0,32.0,235.0,254.0,2338.404
2338414.0,225.0,32.0,233.0,254.0,2338.414
2338424.0,217.0,31.0,232.0,247.0,2338.424
2338434.0,220.0,32.0,228.0,249.0,2338.434
2338444.0,215.0,32.0,229.0,247.0,2338.444
2338454.0,222.0,33.0,237.0,255.0,2338.454
2338464.0,225.0,32.0,232.0,254.0,2338.464
2338475.0,215.0,32.0,231.0,246.0,2338.475
2338485.0,219.0,32.0,228.0,248.0,2338.485
2338495.0,220.0,32.0,234.0,254.0,2338.495
2338505.0,222.0,31.0,237.0,253.0,2338.505
2338515.0,222.0,33.0,229.0,250.0,2338.515
2338525.0,215.0,32.0,232.0,244.0,2338.525
2338535.0,217.0,32.0,228.0,247.0,2338.535
2338545.0,223.0,32.0,236.0,253.0,2338.545
2338555.0,221.0,31.0,238.0,252.0,2338.555
2338565.0,223.0,32.0,232.0,252.0,2338.565
2338575.0,214.0,32.0,234.0,245.0,2338.575
2338585.0,217.0,32.0,231.0,248.0,2338.585
2338595.0,223.0,32.0,239.0,255.0,2338.595
2338605.0,222.0,32.0,241.0,255.0,2338.605
2338615.0,224.0,31.0,235.0,253.0,2338.615
2338625.0,214.0,32.0,234.0,245.0,2338.625
2338635.0,217.0,32.0,233.0,248.0,2338.635
2338646.0,223.0,33.0,240.0,256.0,2338.646
2338656.0,221.0,32.0,242.0,251.0,2338.656
2338666.0,221.0,32.0,233.0,250.0,2338.666
2338676.0,214.0,32.0,233.0,243.0,2338.676
2338686.0,221.0,33.0,240.0,253.0,2338.686
2338696.0,225.0,32.0,241.0,255.0,2338.696
2338706.0,221.0,33.0,242.0,251.0,2338.706
2338716.0,221.0,32.0,234.0,250.0,2338.716
2338726.0,214.0,32.0,234.0,243.0,2338.726
2338736.0,219.0,33.0,236.0,250.0,2338.736
2338746.0,226.0,33.0,241.0,255.0,2338.746
2338756.0,222.0,33.0,242.0,250.0,2338.756
2338766.0,221.0,32.0,234.0,249.0,2338.766
2338776.0,216.0,33.0,235.0,241.0,2338.776
2338786.0,220.0,32.0,238.0,250.0,2338.786
2338796.0,225.0,33.0,241.0,255.0,2338.796
2338806.0,223.0,32.0,243.0,249.0,2338.806
2338816.0,223.0,33.0,234.0,250.0,2338.816
2338826.0,216.0,32.0,235.0,241.0,2338.826
2338836.0,222.0,33.0,240.0,252.0,2338.836
2338846.0,227.0,32.0,241.0,255.0,2338.846
2338856.0,222.0,32.0,241.0,249.0,2338.856
2338866.0,223.0,33.0,236.0,250.0,2338.866
2338876.0,216.0,31.0,236.0,242.0,2338.876
2338886.0,223.0,32.0,243.0,253.0,2338.886
2338896.0,227.0,33.0,242.0,256.0,2338.896
2338906.0,224.0,32.0,245.0,251.0,2338.906
2338916.0,223.0,32.0,236.0,250.0,2338.916
2338926.0,216.0,32.0,237.0,243.0,2338.926
2338936.0,225.0,31.0,244.0,253.0,2338.936
2338946.0,227.0,32.0,244.0,256.0,2338.946
2338956.0,225.0,32.0,246.0,249.0,2338.956
2338966.0,224.0,33.0,237.0,249.0,2338.966
2338976.0,218.0,32.0,238.0,242.0,2338.976
2338987.0,225.0,32.0,245.0,253.0,2338.987
2338997.0,229.0,32.0,243.0,254.0,2338.997
2339007.0,222.0,32.0,243.0,246.0,2339.007
2339017.0,222.0,32.0,238.0,247.0,2339.017
2339027.0,223.0,33.0,243.0,251.0,2339.027
2339037.0,226.0,32.0,247.0,254.0,2339.037
2339047.0,229.0,32.0,241.0,255.0,2339.047
2339057.0,223.0,32.0,244.0,245.0,2339.057
2339067.0,223.0,31.0,238.0,247.0,2339.067
2339077.0,220.0,32.0,240.0,245.0,2339.077
2339087.0,228.0,32.0,247.0,253.0,2339.087
2339097.0,229.0,33.0,241.0,254.0,2339.097
2339107.0,223.0,32.0,244.0,244.0,2339.107
2339117.0,224.0,33.0,237.0,248.0,2339.117
2339127.0,222.0,32.0,242.0,246.0,2339.127
2339137.0,228.0,32.0,249.0,253.0,2339.137
2339147.0,229.0,33.0,240.0,253.0,2339.147
2339158.0,223.0,33.0,244.0,244.0,2339.158
2339168.0,223.0,32.0,239.0,246.0,2339.168
2339178.0,228.0,32.0,245.0,252.0,2339.178
2339188.0,229.0,32.0,251.0,251.0,2339.188
2339198.0,226.0,32.0,240.0,250.0,2339.198
2339208.0,222.0,32.0,245.0,245.0,2339.208
2339218.0,223.0,33.0,240.0,248.0,2339.218
2339228.0,227.0,33.0,248.0,254.0,2339.228
2339238.0,228.0,32.0,251.0,252.0,2339.238
2339248.0,228.0,33.0,242.0,251.0,2339.248
2339258.0,222.0,31.0,246.0,243.0,2339.258
2339268.0,223.0,32.0,242.0,248.0,2339.268
2339278.0,229.0,32.0,250.0,255.0,2339.278
2339288.0,229.0,33.0,254.0,253.0,2339.288
2339298.0,227.0,32.0,244.0,251.0,2339.298
2339308.0,221.0,32.0,246.0,242.0,2339.308
2339318.0,224.0,32.0,244.0,248.0,2339.318
2339328.0,225.0,32.0,248.0,251.0,2339.328
2339338.0,229.0,32.0,253.0,253.0,2339.338
2339348.0,227.0,33.0,243.0,251.0,2339.348
2339358.0,220.0,32.0,245.0,242.0,2339.358
2339368.0,223.0,32.0,244.0,249.0,2339.368
2339378.0,226.0,32.0,249.0,253.0,2339.378
2339388.0,227.0,31.0,250.0,253.0,2339.388
2339398.0,225.0,32.0,240.0,252.0,2339.398
2339408.0,219.0,32.0,241.0,243.0,2339.408
2339418.0,221.0,33.0,238.0,247.0,2339.418
2339428.0,226.0,32.0,245.0,254.0,2339.428
