time (ms),signal 0,signal 1,signal 2,signal 3,time (sec)
2284478.0,434.0,31.0,254.0,249.0,2284.478
2284488.0,427.0,31.0,275.0,246.0,2284.488
2284498.0,419.0,31.0,253.0,238.0,2284.498
2284508.0,414.0,31.0,271.0,242.0,2284.508
2284518.0,407.0,31.0,274.0,245.0,2284.518
2284528.0,400.0,30.0,267.0,247.0,2284.528
2284538.0,393.0,31.0,291.0,245.0,2284.538
2284548.0,387.0,31.0,269.0,240.0,2284.548
2284558.0,382.0,31.0,288.0,241.0,2284.558
2284568.0,376.0,31.0,294.0,247.0,2284.568
2284578.0,369.0,31.0,283.0,248.0,2284.578
2284588.0,365.0,32.0,310.0,248.0,2284.588
2284598.0,358.0,32.0,285.0,240.0,2284.598
2284608.0,353.0,31.0,306.0,242.0,2284.608
2284618.0,348.0,31.0,312.0,249.0,2284.618
2284628.0,343.0,31.0,298.0,248.0,2284.628
2284638.0,338.0,31.0,324.0,248.0,2284.638
2284648.0,332.0,31.0,297.0,239.0,2284.648
2284658.0,327.0,32.0,316.0,244.0,2284.658
2284668.0,321.0,31.0,324.0,250.0,2284.668
2284678.0,316.0,31.0,309.0,249.0,2284.678
2284688.0,311.0,32.0,334.0,247.0,2284.688
2284698.0,306.0,31.0,306.0,239.0,2284.698
2284708.0,300.0,31.0,322.0,243.0,2284.708
2284718.0,296.0,32.0,325.0,247.0,2284.718
2284728.0,290.0,31.0,317.0,249.0,2284.728
2284738.0,285.0,32.0,342.0,247.0,2284.738
2284748.0,280.0,31.0,317.0,240.0,2284.748
2284758.0,276.0,31.0,338.0,245.0,2284.758
2284768.0,270.0,31.0,338.0,249.0,2284.768
2284778.0,265.0,31.0,328.0,250.0,2284.778
2284788.0,260.0,32.0,353.0,250.0,2284.788
2284798.0,255.0,30.0,327.0,241.0,2284.798
2284808.0,251.0,31.0,348.0,246.0,2284.808
2284818.0,247.0,32.0,351.0,251.0,2284.818
2284828.0,242.0,31.0,334.0,252.0,2284.828
2284838.0,238.0,32.0,360.0,249.0,2284.838
2284848.0,235.0,31.0,333.0,244.0,2284.848
2284858.0,230.0,32.0,351.0,246.0,2284.858
2284868.0,226.0,32.0,355.0,252.0,2284.868
2284878.0,222.0,32.0,337.0,252.0,2284.878
2284888.0,220.0,31.0,363.0,251.0,2284.888
2284898.0,215.0,32.0,333.0,244.0,2284.898
2284908.0,213.0,32.0,351.0,248.0,2284.908
2284918.0,210.0,33.0,357.0,254.0,2284.918
2284928.0,206.0,32.0,340.0,253.0,2284.928
2284938.0,204.0,32.0,364.0,251.0,2284.938
2284948.0,202.0,31.0,336.0,243.0,2284.948
2284958.0,198.0,32.0,351.0,247.0,2284.958
2284968.0,196.0,32.0,361.0,254.0,2284.968
2284978.0,194.0,32.0,341.0,255.0,2284.978
2284988.0,191.0,32.0,364.0,252.0,2284.988
2284998.0,189.0,32.0,335.0,244.0,2284.998
2285008.0,187.0,32.0,350.0,250.0,2285.008
2285018.0,185.0,31.0,352.0,254.0,2285.018
2285028.0,182.0,32.0,338.0,255.0,2285.028
2285038.0,179.0,33.0,359.0,253.0,2285.038
2285048.0,178.0,32.0,330.0,244.0,2285.048
2285058.0,176.0,32.0,346.0,249.0,2285.058
2285068.0,173.0,32.0,347.0,254.0,2285.068
2285078.0,172.0,32.0,330.0,254.0,2285.078
2285088.0,168.0,32.0,351.0,252.0,2285.088
2285099.0,166.0,32.0,322.0,243.0,2285.099
2285109.0,163.0,33.0,332.0,251.0,2285.109
2285119.0,161.0,32.0,343.0,256.0,2285.119
2285129.0,158.0,33.0,316.0,250.0,2285.129
2285139.0,156.0,33.0,335.0,249.0,2285.139
2285149.0,154.0,31.0,310.0,242.0,2285.149
2285159.0,151.0,32.0,321.0,251.0,2285.159
2285169.0,148.0,33.0,333.0,255.0,2285.169
2285179.0,146.0,32.0,306.0,248.0,2285.179
2285189.0,144.0,32.0,327.0,250.0,2285.189
2285199.0,141.0,32.0,302.0,241.0,2285.199
2285209.0,139.0,31.0,311.0,251.0,2285.209
2285219.0,137.0,33.0,324.0,254.0,2285.219
2285229.0,135.0,32.0,298.0,251.0,2285.229
2285239.0,133.0,34.0,315.0,249.0,2285.239
2285249.0,131.0,32.0,291.0,242.0,2285.249
2285259.0,128.0,32.0,298.0,252.0,2285.259
2285270.0,127.0,33.0,312.0,255.0,2285.27
2285280.0,124.0,32.0,283.0,249.0,2285.28
2285290.0,123.0,32.0,296.0,249.0,2285.29
2285300.0,121.0,33.0,287.0,251.0,2285.3
2285310.0,119.0,32.0,280.0,254.0,2285.31
2285320.0,117.0,32.0,296.0,256.0,2285.32
2285330.0,117.0,32.0,269.0,248.0,2285.33
2285340.0,114.0,32.0,280.0,249.0,2285.34
2285350.0,112.0,33.0,276.0,252.0,2285.35
2285360.0,111.0,32.0,272.0,256.0,2285.36
2285370.0,109.0,32.0,284.0,255.0,2285.37
2285380.0,107.0,31.0,256.0,247.0,2285.38
2285390.0,105.0,33.0,268.0,248.0,2285.39
2285400.0,105.0,31.0,258.0,246.0,2285.4
2285410.0,102.0,32.0,260.0,254.0,2285.41
2285420.0,102.0,33.0,274.0,253.0,2285.42
2285430.0,99.0,33.0,247.0,246.0,2285.43
2285440.0,99.0,32.0,261.0,248.0,2285.44
2285450.0,98.0,33.0,251.0,248.0,2285.45
2285460.0,97.0,31.0,252.0,255.0,2285.46
2285470.0,95.0,33.0,263.0,253.0,2285.47
2285480.0,95.0,32.0,237.0,246.0,2285.48
2285490.0,93.0,33.0,250.0,250.0,2285.49
2285500.0,93.0,32.0,243.0,251.0,2285.5
2285510.0,91.0,32.0,241.0,256.0,2285.51
2285520.0,90.0,32.0,253.0,254.0,2285.52
2285530.0,89.0,32.0,231.0,249.0,2285.53
2285540.0,100.0,33.0,240.0,249.0,2285.54
2285550.0,109.0,33.0,236.0,252.0,2285.55
2285560.0,130.0,33.0,234.0,255.0,2285.56
2285570.0,168.0,34.0,247.0,255.0,2285.57
2285580.0,170.0,33.0,225.0,247.0,2285.58
2285590.0,218.0,35.0,233.0,248.0,2285.59
2285600.0,238.0,35.0,232.0,250.0,2285.6
2285611.0,260.0,35.0,228.0,255.0,2285.611
2285621.0,312.0,36.0,239.0,252.0,2285.621
2285631.0,321.0,34.0,216.0,244.0,2285.631
2285641.0,367.0,35.0,224.0,249.0,2285.641
2285651.0,403.0,35.0,235.0,256.0,2285.651
2285661.0,412.0,35.0,222.0,255.0,2285.661
2285671.0,464.0,35.0,230.0,252.0,2285.671
2285681.0,470.0,36.0,210.0,245.0,2285.681
2285691.0,513.0,35.0,218.0,250.0,2285.691
2285701.0,539.0,36.0,222.0,253.0,2285.701
2285711.0,553.0,36.0,215.0,253.0,2285.711
2285721.0,600.0,36.0,221.0,250.0,2285.721
2285731.0,603.0,35.0,202.0,242.0,2285.731
2285741.0,643.0,36.0,210.0,247.0,2285.741
2285751.0,664.0,37.0,217.0,254.0,2285.751
2285761.0,664.0,36.0,209.0,254.0,2285.761
2285771.0,663.0,36.0,215.0,251.0,2285.771
2285782.0,665.0,36.0,199.0,245.0,2285.782
2285792.0,663.0,36.0,208.0,252.0,2285.792
2285802.0,664.0,35.0,216.0,255.0,2285.802
2285812.0,662.0,36.0,201.0,248.0,2285.812
2285822.0,660.0,36.0,207.0,246.0,2285.822
2285832.0,664.0,35.0,193.0,241.0,2285.832
2285842.0,663.0,35.0,205.0,249.0,2285.842
2285852.0,664.0,35.0,212.0,254.0,2285.852
2285862.0,664.0,34.0,197.0,246.0,2285.862
2285872.0,664.0,35.0,206.0,249.0,2285.872
2285882.0,664.0,34.0,193.0,241.0,2285.882
2285892.0,664.0,34.0,202.0,251.0,2285.892
2285902.0,665.0,34.0,213.0,252.0,2285.902
2285912.0,664.0,34.0,200.0,250.0,2285.912
2285922.0,663.0,35.0,205.0,248.0,2285.922
2285932.0,664.0,33.0,193.0,243.0,2285.932
2285942.0,653.0,35.0,206.0,253.0,2285.942
2285952.0,653.0,34.0,213.0,255.0,2285.952
2285962.0,653.0,34.0,200.0,251.0,2285.962
2285972.0,654.0,35.0,210.0,250.0,2285.972
2285982.0,654.0,34.0,198.0,245.0,2285.982
2285992.0,654.0,34.0,208.0,253.0,2285.992
2286002.0,653.0,35.0,215.0,254.0,2286.002
2286012.0,650.0,34.0,200.0,246.0,2286.012
2286022.0,647.0,34.0,208.0,246.0,2286.022
2286032.0,614.0,34.0,200.0,244.0,2286.032
2286042.0,602.0,34.0,206.0,250.0,2286.042
2286052.0,593.0,34.0,218.0,253.0,2286.052
2286062.0,593.0,33.0,201.0,246.0,2286.062
2286072.0,594.0,34.0,211.0,247.0,2286.072
2286082.0,594.0,33.0,199.0,239.0,2286.082
2286092.0,593.0,33.0,212.0,249.0,2286.092
2286102.0,592.0,33.0,227.0,253.0,2286.102
2286112.0,589.0,26.0,210.0,248.0,2286.112
2286123.0,637.0,33.0,221.0,248.0,2286.123
2286133.0,637.0,35.0,219.0,251.0,2286.133
2286143.0,636.0,34.0,222.0,255.0,2286.143
2286153.0,637.0,34.0,236.0,255.0,2286.153
2286163.0,631.0,33.0,214.0,244.0,2286.163
2286173.0,629.0,33.0,227.0,246.0,2286.173
2286183.0,288.0,33.0,218.0,240.0,2286.183
2286193.0,178.0,36.0,215.0,245.0,2286.193
2286203.0,14.0,37.0,217.0,236.0,2286.203
2286213.0,1.0,38.0,199.0,229.0,2286.213
2286223.0,0.0,38.0,213.0,228.0,2286.223
2286233.0,0.0,40.0,216.0,226.0,2286.233
2286243.0,0.0,40.0,210.0,225.0,2286.243
2286253.0,0.0,40.0,231.0,222.0,2286.253
2286263.0,0.0,41.0,214.0,214.0,2286.263
2286273.0,0.0,40.0,230.0,212.0,2286.273
2286283.0,0.0,40.0,236.0,214.0,2286.283
2286294.0,0.0,41.0,228.0,213.0,2286.294
2286304.0,0.0,39.0,247.0,210.0,2286.304
2286314.0,660.0,44.0,242.0,211.0,2286.314
2286324.0,660.0,46.0,260.0,223.0,2286.324
2286334.0,661.0,44.0,275.0,229.0,2286.334
2286344.0,660.0,44.0,256.0,229.0,2286.344
2286354.0,660.0,44.0,275.0,232.0,2286.354
2286364.0,659.0,43.0,250.0,226.0,2286.364
2286374.0,659.0,43.0,258.0,237.0,2286.374
2286384.0,660.0,44.0,265.0,242.0,2286.384
2286394.0,659.0,42.0,249.0,239.0,2286.394
2286404.0,660.0,42.0,260.0,239.0,2286.404
2286414.0,659.0,41.0,238.0,230.0,2286.414
2286424.0,659.0,41.0,246.0,238.0,2286.424
2286434.0,659.0,40.0,252.0,245.0,2286.434
2286444.0,658.0,39.0,238.0,243.0,2286.444
2286454.0,659.0,40.0,245.0,242.0,2286.454
2286464.0,661.0,38.0,224.0,234.0,2286.464
2286474.0,659.0,38.0,230.0,238.0,2286.474
2286484.0,664.0,37.0,238.0,246.0,2286.484
2286494.0,664.0,37.0,223.0,242.0,2286.494
2286504.0,663.0,36.0,230.0,242.0,2286.504
2286514.0,664.0,36.0,212.0,237.0,2286.514
2286524.0,664.0,35.0,218.0,242.0,2286.524
2286534.0,665.0,35.0,226.0,247.0,2286.534
2286544.0,665.0,34.0,211.0,240.0,2286.544
2286554.0,665.0,34.0,221.0,242.0,2286.554
2286564.0,655.0,33.0,203.0,235.0,2286.564
2286574.0,643.0,32.0,213.0,242.0,2286.574
2286584.0,641.0,34.0,222.0,250.0,2286.584
2286594.0,647.0,32.0,211.0,246.0,2286.594
2286604.0,660.0,33.0,216.0,244.0,2286.604
2286614.0,665.0,32.0,200.0,235.0,2286.614
2286624.0,665.0,33.0,207.0,244.0,2286.624
2286635.0,666.0,32.0,216.0,248.0,2286.635
2286645.0,664.0,33.0,203.0,241.0,2286.645
2286655.0,664.0,32.0,207.0,240.0,2286.655
2286665.0,665.0,32.0,200.0,238.0,2286.665
2286675.0,665.0,32.0,208.0,246.0,2286.675
2286685.0,665.0,31.0,213.0,248.0,2286.685
2286695.0,665.0,32.0,202.0,242.0,2286.695
2286705.0,663.0,32.0,206.0,243.0,2286.705
2286715.0,661.0,32.0,202.0,241.0,2286.715
2286725.0,659.0,31.0,208.0,246.0,2286.725
2286735.0,657.0,31.0,215.0,251.0,2286.735
2286745.0,656.0,31.0,203.0,244.0,2286.745
2286755.0,659.0,31.0,206.0,244.0,2286.755
2286765.0,662.0,31.0,198.0,239.0,2286.765
2286775.0,661.0,32.0,209.0,250.0,2286.775
2286785.0,658.0,32.0,215.0,250.0,2286.785
2286795.0,659.0,31.0,203.0,243.0,2286.795
2286806.0,661.0,32.0,205.0,243.0,2286.806
2286816.0,661.0,31.0,204.0,244.0,2286.816
2286826.0,661.0,31.0,210.0,249.0,2286.826
2286836.0,661.0,32.0,210.0,247.0,2286.836
2286846.0,661.0,31.0,200.0,236.0,2286.846
2286856.0,661.0,32.0,204.0,242.0,2286.856
2286866.0,662.0,32.0,208.0,247.0,2286.866
2286876.0,661.0,31.0,212.0,250.0,2286.876
2286886.0,661.0,32.0,210.0,248.0,2286.886
2286896.0,661.0,31.0,204.0,243.0,2286.896
2286906.0,662.0,32.0,205.0,243.0,2286.906
2286916.0,663.0,32.0,210.0,246.0,2286.916
2286926.0,663.0,31.0,212.0,248.0,2286.926
2286936.0,664.0,33.0,214.0,249.0,2286.936
2286946.0,661.0,32.0,204.0,241.0,2286.946
2286956.0,663.0,32.0,206.0,242.0,2286.956
2286966.0,664.0,33.0,211.0,249.0,2286.966
2286976.0,663.0,32.0,213.0,250.0,2286.976
2286986.0,665.0,32.0,212.0,249.0,2286.986
2286996.0,664.0,32.0,206.0,242.0,2286.996
2287006.0,664.0,33.0,208.0,245.0,2287.006
2287016.0,665.0,33.0,214.0,249.0,2287.016
2287026.0,664.0,33.0,217.0,252.0,2287.026
2287036.0,665.0,33.0,215.0,250.0,2287.036
2287046.0,664.0,32.0,211.0,244.0,2287.046
2287056.0,664.0,33.0,212.0,246.0,2287.056
2287066.0,666.0,32.0,216.0,248.0,2287.066
2287076.0,665.0,33.0,222.0,253.0,2287.076
2287086.0,664.0,33.0,217.0,250.0,2287.086
2287096.0,664.0,33.0,213.0,244.0,2287.096
2287106.0,665.0,32.0,214.0,248.0,2287.106
2287116.0,665.0,33.0,217.0,249.0,2287.116
2287126.0,665.0,32.0,224.0,253.0,2287.126
2287136.0,664.0,33.0,218.0,252.0,2287.136
2287147.0,664.0,32.0,214.0,243.0,2287.147
2287157.0,664.0,34.0,217.0,248.0,2287.157
2287167.0,665.0,32.0,224.0,254.0,2287.167
2287177.0,664.0,33.0,224.0,252.0,2287.177
2287187.0,665.0,33.0,222.0,251.0,2287.187
2287197.0,664.0,32.0,217.0,243.0,2287.197
2287207.0,664.0,33.0,222.0,249.0,2287.207
2287217.0,666.0,33.0,228.0,257.0,2287.217
2287227.0,664.0,33.0,226.0,250.0,2287.227
2287237.0,664.0,34.0,221.0,248.0,2287.237
2287247.0,664.0,33.0,217.0,241.0,2287.247
2287257.0,665.0,33.0,224.0,250.0,2287.257
2287267.0,665.0,33.0,228.0,256.0,2287.267
2287277.0,664.0,33.0,229.0,252.0,2287.277
2287287.0,664.0,34.0,222.0,250.0,2287.287
2287297.0,663.0,32.0,220.0,242.0,2287.297
2287307.0,660.0,33.0,227.0,252.0,2287.307
2287318.0,662.0,33.0,231.0,255.0,2287.318
2287328.0,660.0,32.0,229.0,252.0,2287.328
2287338.0,661.0,33.0,225.0,251.0,2287.338
2287348.0,662.0,34.0,224.0,249.0,2287.348
2287358.0,662.0,33.0,233.0,255.0,2287.358
2287368.0,663.0,33.0,231.0,257.0,2287.368
2287378.0,663.0,32.0,230.0,251.0,2287.378
2287388.0,664.0,32.0,225.0,250.0,2287.388
2287398.0,665.0,32.0,227.0,250.0,2287.398
2287408.0,664.0,32.0,230.0,254.0,2287.408
2287418.0,665.0,33.0,230.0,255.0,2287.418
2287428.0,664.0,32.0,227.0,247.0,2287.428
2287438.0,664.0,32.0,224.0,248.0,2287.438
2287448.0,665.0,32.0,223.0,243.0,2287.448
2287458.0,664.0,32.0,230.0,251.0,2287.458
2287468.0,665.0,32.0,229.0,252.0,2287.468
2287478.0,664.0,33.0,227.0,247.0,2287.478
2287488.0,664.0,32.0,224.0,246.0,2287.488
2287498.0,663.0,32.0,223.0,243.0,2287.498
2287508.0,663.0,32.0,236.0,255.0,2287.508
2287518.0,663.0,32.0,231.0,254.0,2287.518
2287528.0,663.0,32.0,229.0,246.0,2287.528
2287538.0,664.0,32.0,226.0,250.0,2287.538
2287548.0,665.0,32.0,225.0,245.0,2287.548
2287558.0,664.0,32.0,234.0,252.0,2287.558
2287568.0,665.0,32.0,230.0,252.0,2287.568
2287578.0,664.0,31.0,234.0,249.0,2287.578
2287588.0,664.0,32.0,228.0,249.0,2287.588
2287598.0,664.0,32.0,230.0,248.0,2287.598
2287608.0,663.0,33.0,239.0,257.0,2287.608
2287618.0,664.0,32.0,235.0,255.0,2287.618
2287628.0,663.0,31.0,237.0,250.0,2287.628
2287638.0,664.0,32.0,233.0,251.0,2287.638
2287648.0,665.0,31.0,233.0,250.0,2287.648
2287659.0,663.0,32.0,241.0,256.0,2287.659
2287669.0,663.0,32.0,235.0,255.0,2287.669
2287679.0,658.0,31.0,236.0,247.0,2287.679
2287689.0,647.0,31.0,233.0,250.0,2287.689
2287699.0,638.0,32.0,241.0,256.0,2287.699
2287709.0,627.0,31.0,242.0,257.0,2287.709
2287719.0,617.0,32.0,233.0,252.0,2287.719
2287729.0,606.0,32.0,234.0,245.0,2287.729
2287739.0,597.0,33.0,233.0,250.0,2287.739
2287749.0,589.0,32.0,238.0,253.0,2287.749
2287759.0,578.0,32.0,243.0,257.0,2287.759
2287769.0,570.0,31.0,236.0,253.0,2287.769
2287779.0,559.0,31.0,234.0,246.0,2287.779
2287789.0,552.0,31.0,233.0,250.0,2287.789
2287799.0,542.0,32.0,240.0,254.0,2287.799
2287809.0,532.0,31.0,244.0,256.0,2287.809
2287819.0,523.0,31.0,236.0,253.0,2287.819
2287830.0,514.0,31.0,235.0,243.0,2287.83
2287840.0,506.0,31.0,236.0,250.0,2287.84
2287850.0,498.0,31.0,240.0,253.0,2287.85
2287860.0,489.0,31.0,240.0,252.0,2287.86
2287870.0,480.0,31.0,232.0,248.0,2287.87
2287880.0,474.0,30.0,233.0,243.0,2287.88
2287890.0,465.0,31.0,236.0,251.0,2287.89
2287900.0,459.0,30.0,240.0,255.0,2287.9
2287910.0,449.0,31.0,240.0,250.0,2287.91
2287920.0,442.0,31.0,233.0,248.0,2287.92
2287930.0,435.0,31.0,231.0,239.0,2287.93
2287940.0,428.0,30.0,237.0,248.0,2287.94
2287950.0,421.0,30.0,241.0,252.0,2287.95
2287960.0,414.0,31.0,243.0,250.0,2287.96
2287970.0,406.0,31.0,234.0,249.0,2287.97
2287980.0,399.0,29.0,234.0,243.0,2287.98
2287990.0,393.0,31.0,242.0,254.0,2287.99
2288000.0,387.0,30.0,243.0,255.0,2288.0
2288010.0,380.0,31.0,246.0,255.0,2288.01
2288020.0,374.0,31.0,237.0,253.0,2288.02
2288030.0,368.0,30.0,237.0,246.0,2288.03
2288040.0,361.0,30.0,243.0,255.0,2288.04
2288050.0,355.0,31.0,243.0,257.0,2288.05
2288060.0,349.0,31.0,244.0,254.0,2288.06
2288070.0,343.0,31.0,238.0,253.0,2288.07
2288080.0,337.0,31.0,236.0,249.0,2288.08
2288090.0,333.0,31.0,239.0,254.0,2288.09
2288100.0,326.0,31.0,243.0,258.0,2288.1
2288110.0,320.0,31.0,245.0,253.0,2288.11
2288120.0,315.0,32.0,237.0,253.0,2288.12
2288130.0,310.0,30.0,237.0,244.0,2288.13
2288140.0,304.0,31.0,241.0,252.0,2288.14
2288150.0,300.0,31.0,244.0,256.0,2288.15
2288160.0,294.0,31.0,244.0,251.0,2288.16
2288171.0,288.0,31.0,238.0,251.0,2288.171
2288181.0,284.0,32.0,238.0,249.0,2288.181
2288191.0,278.0,31.0,247.0,256.0,2288.191
2288201.0,274.0,31.0,240.0,254.0,2288.201
2288211.0,269.0,31.0,241.0,247.0,2288.211
2288221.0,264.0,31.0,238.0,250.0,2288.221
2288231.0,259.0,31.0,240.0,247.0,2288.231
2288241.0,254.0,31.0,249.0,256.0,2288.241
2288251.0,250.0,32.0,241.0,254.0,2288.251
2288261.0,246.0,31.0,246.0,251.0,2288.261
2288271.0,241.0,31.0,239.0,250.0,2288.271
2288281.0,238.0,32.0,242.0,251.0,2288.281
2288291.0,233.0,31.0,247.0,256.0,2288.291
2288301.0,230.0,31.0,244.0,255.0,2288.301
2288311.0,225.0,32.0,244.0,248.0,2288.311
2288321.0,221.0,32.0,238.0,246.0,2288.321
2288331.0,217.0,32.0,244.0,249.0,2288.331
2288342.0,214.0,32.0,253.0,254.0,2288.342
2288352.0,210.0,32.0,244.0,251.0,2288.352
2288362.0,206.0,31.0,250.0,245.0,2288.362
2288372.0,203.0,32.0,248.0,253.0,2288.372
2288382.0,200.0,32.0,258.0,258.0,2288.382
2288392.0,197.0,32.0,262.0,258.0,2288.392
2288402.0,193.0,32.0,252.0,256.0,2288.402
2288412.0,191.0,31.0,259.0,247.0,2288.412
2288422.0,188.0,32.0,259.0,254.0,2288.422
2288432.0,185.0,32.0,264.0,253.0,2288.432
2288442.0,182.0,33.0,269.0,251.0,2288.442
2288452.0,180.0,32.0,258.0,248.0,2288.452
2288462.0,177.0,32.0,268.0,240.0,2288.462
2288472.0,175.0,32.0,263.0,246.0,2288.472
2288482.0,172.0,32.0,272.0,251.0,2288.482
2288492.0,169.0,32.0,284.0,253.0,2288.492
2288502.0,167.0,33.0,273.0,254.0,2288.502
2288512.0,163.0,32.0,289.0,246.0,2288.512
2288522.0,161.0,32.0,281.0,248.0,2288.522
2288532.0,160.0,32.0,294.0,254.0,2288.532
2288542.0,156.0,31.0,305.0,254.0,2288.542
2288552.0,153.0,32.0,292.0,252.0,2288.552
2288562.0,150.0,32.0,311.0,248.0,2288.562
2288572.0,147.0,32.0,304.0,251.0,2288.572
2288582.0,146.0,32.0,313.0,257.0,2288.582
2288592.0,141.0,32.0,327.0,252.0,2288.592
2288602.0,141.0,31.0,312.0,251.0,2288.602
2288612.0,137.0,32.0,335.0,247.0,2288.612
2288622.0,135.0,32.0,327.0,250.0,2288.622
2288632.0,133.0,33.0,334.0,256.0,2288.632
2288642.0,132.0,32.0,350.0,257.0,2288.642
2288652.0,129.0,32.0,333.0,252.0,2288.652
2288662.0,127.0,31.0,354.0,243.0,2288.662
2288672.0,126.0,31.0,345.0,250.0,2288.672
2288683.0,124.0,32.0,348.0,255.0,2288.683
2288693.0,123.0,32.0,367.0,255.0,2288.693
2288703.0,121.0,32.0,349.0,250.0,2288.703
2288713.0,120.0,32.0,367.0,247.0,2288.713
2288723.0,119.0,31.0,370.0,257.0,2288.723
2288733.0,118.0,31.0,361.0,258.0,2288.733
2288743.0,116.0,31.0,380.0,256.0,2288.743
2288753.0,114.0,32.0,362.0,256.0,2288.753
2288763.0,112.0,32.0,378.0,251.0,2288.763
2288773.0,111.0,32.0,376.0,256.0,2288.773
2288783.0,109.0,32.0,371.0,259.0,2288.783
2288793.0,108.0,31.0,391.0,253.0,2288.793
2288803.0,106.0,31.0,372.0,251.0,2288.803
2288813.0,105.0,32.0,391.0,245.0,2288.813
2288823.0,104.0,31.0,386.0,257.0,2288.823
2288833.0,102.0,32.0,378.0,258.0,2288.833
2288843.0,101.0,31.0,398.0,254.0,2288.843
2288854.0,100.0,31.0,379.0,252.0,2288.854
2288864.0,99.0,31.0,394.0,252.0,2288.864
2288874.0,98.0,31.0,401.0,260.0,2288.874
2288884.0,96.0,33.0,380.0,259.0,2288.884
2288894.0,95.0,31.0,402.0,252.0,2288.894
2288904.0,94.0,32.0,384.0,255.0,2288.904
2288914.0,93.0,32.0,396.0,256.0,2288.914
2288924.0,89.0,32.0,402.0,260.0,2288.924
2288934.0,118.0,33.0,380.0,257.0,2288.934
2288944.0,117.0,33.0,402.0,253.0,2288.944
2288954.0,158.0,34.0,383.0,253.0,2288.954
2288964.0,175.0,34.0,394.0,254.0,2288.964
2288974.0,198.0,34.0,399.0,258.0,2288.974
2288984.0,244.0,34.0,379.0,258.0,2288.984
2288994.0,251.0,35.0,396.0,251.0,2288.994
2289004.0,302.0,35.0,378.0,251.0,2289.004
2289014.0,326.0,36.0,386.0,255.0,2289.014
2289024.0,349.0,34.0,391.0,259.0,2289.024
2289034.0,399.0,35.0,372.0,261.0,2289.034
2289044.0,407.0,35.0,391.0,252.0,2289.044
2289054.0,456.0,35.0,372.0,254.0,2289.054
2289064.0,481.0,36.0,379.0,257.0,2289.064
2289074.0,500.0,36.0,383.0,260.0,2289.074
2289084.0,547.0,37.0,363.0,257.0,2289.084
2289094.0,552.0,36.0,380.0,250.0,2289.094
2289104.0,596.0,36.0,363.0,251.0,2289.104
2289114.0,610.0,36.0,370.0,250.0,2289.114
2289124.0,631.0,37.0,374.0,257.0,2289.124
2289134.0,665.0,37.0,353.0,255.0,2289.134
2289144.0,665.0,37.0,367.0,247.0,2289.144
2289154.0,665.0,36.0,351.0,250.0,2289.154
2289164.0,666.0,36.0,358.0,250.0,2289.164
2289174.0,666.0,35.0,364.0,256.0,2289.174
2289184.0,666.0,36.0,342.0,254.0,2289.184
2289195.0,665.0,35.0,358.0,245.0,2289.195
2289205.0,665.0,36.0,343.0,250.0,2289.205
2289215.0,666.0,36.0,347.0,255.0,2289.215
2289225.0,665.0,35.0,354.0,253.0,2289.225
2289235.0,665.0,35.0,334.0,252.0,2289.235
2289245.0,664.0,34.0,348.0,245.0,2289.245
2289255.0,665.0,34.0,336.0,249.0,2289.255
2289265.0,665.0,35.0,339.0,256.0,2289.265
2289275.0,664.0,35.0,345.0,251.0,2289.275
2289285.0,665.0,34.0,326.0,252.0,2289.285
2289295.0,664.0,34.0,338.0,242.0,2289.295
2289305.0,665.0,34.0,329.0,248.0,2289.305
2289315.0,665.0,34.0,328.0,254.0,2289.315
2289325.0,664.0,34.0,336.0,252.0,2289.325
2289335.0,664.0,35.0,317.0,250.0,2289.335
2289345.0,664.0,34.0,327.0,239.0,2289.345
2289355.0,665.0,34.0,319.0,247.0,2289.355
2289366.0,666.0,34.0,321.0,253.0,2289.366
2289376.0,665.0,33.0,327.0,248.0,2289.376
2289386.0,664.0,34.0,310.0,247.0,2289.386
2289396.0,665.0,33.0,317.0,243.0,2289.396
2289406.0,665.0,33.0,321.0,253.0,2289.406
2289416.0,665.0,33.0,312.0,254.0,2289.416
2289426.0,664.0,33.0,320.0,248.0,2289.426
2289436.0,666.0,33.0,305.0,248.0,2289.436
2289446.0,666.0,33.0,310.0,245.0,2289.446
2289456.0,665.0,33.0,309.0,251.0,2289.456
2289466.0,666.0,33.0,306.0,256.0,2289.466
2289476.0,665.0,32.0,314.0,249.0,2289.476
2289486.0,665.0,32.0,299.0,250.0,2289.486
2289496.0,666.0,32.0,307.0,243.0,2289.496
2289506.0,665.0,33.0,306.0,253.0,2289.506
2289516.0,666.0,33.0,300.0,257.0,2289.516
2289526.0,665.0,33.0,309.0,250.0,2289.526
2289536.0,665.0,32.0,295.0,251.0,2289.536
2289546.0,665.0,32.0,300.0,242.0,2289.546
2289556.0,665.0,32.0,303.0,252.0,2289.556
2289566.0,666.0,33.0,295.0,254.0,2289.566
2289576.0,665.0,32.0,304.0,245.0,2289.576
2289586.0,665.0,32.0,291.0,248.0,2289.586
2289596.0,665.0,33.0,297.0,240.0,2289.596
2289606.0,665.0,32.0,301.0,249.0,2289.606
2289616.0,666.0,33.0,292.0,252.0,2289.616
2289626.0,666.0,32.0,303.0,245.0,2289.626
2289636.0,665.0,32.0,287.0,244.0,2289.636
2289646.0,666.0,32.0,293.0,238.0,2289.646
2289656.0,665.0,32.0,298.0,248.0,2289.656
2289666.0,666.0,32.0,291.0,250.0,2289.666
2289676.0,665.0,32.0,298.0,242.0,2289.676
2289686.0,666.0,32.0,285.0,244.0,2289.686
2289696.0,666.0,32.0,290.0,241.0,2289.696
2289707.0,665.0,32.0,297.0,249.0,2289.707
2289717.0,665.0,33.0,284.0,250.0,2289.717
2289727.0,665.0,32.0,295.0,241.0,2289.727
2289737.0,665.0,32.0,284.0,243.0,2289.737
2289747.0,666.0,32.0,293.0,248.0,2289.747
2289757.0,666.0,33.0,298.0,250.0,2289.757
2289767.0,665.0,32.0,283.0,251.0,2289.767
2289777.0,665.0,32.0,293.0,241.0,2289.777
2289787.0,665.0,33.0,282.0,245.0,2289.787
2289797.0,666.0,32.0,288.0,245.0,2289.797
2289807.0,665.0,32.0,293.0,251.0,2289.807
2289817.0,666.0,33.0,280.0,250.0,2289.817
2289827.0,665.0,32.0,288.0,240.0,2289.827
2289837.0,665.0,34.0,278.0,246.0,2289.837
2289847.0,666.0,33.0,285.0,247.0,2289.847
2289857.0,664.0,32.0,290.0,250.0,2289.857
2289867.0,665.0,33.0,275.0,249.0,2289.867
2289878.0,665.0,32.0,282.0,240.0,2289.878
2289888.0,665.0,33.0,274.0,244.0,2289.888
2289898.0,665.0,33.0,281.0,251.0,2289.898
2289908.0,665.0,33.0,285.0,247.0,2289.908
2289918.0,665.0,33.0,272.0,248.0,2289.918
2289928.0,665.0,32.0,279.0,239.0,2289.928
2289938.0,664.0,33.0,272.0,245.0,2289.938
2289948.0,667.0,33.0,278.0,252.0,2289.948
2289958.0,665.0,33.0,281.0,246.0,2289.958
2289968.0,665.0,33.0,268.0,247.0,2289.968
2289978.0,665.0,33.0,275.0,239.0,2289.978
2289988.0,665.0,32.0,272.0,246.0,2289.988
2289998.0,666.0,34.0,275.0,253.0,2289.998
2290008.0,666.0,33.0,281.0,250.0,2290.008
2290018.0,665.0,33.0,266.0,249.0,2290.018
2290028.0,665.0,33.0,272.0,240.0,2290.028
2290038.0,665.0,33.0,271.0,249.0,2290.038
2290048.0,666.0,34.0,274.0,252.0,2290.048
2290058.0,665.0,34.0,278.0,251.0,2290.058
2290068.0,665.0,33.0,265.0,249.0,2290.068
2290078.0,666.0,33.0,269.0,239.0,2290.078
2290088.0,665.0,33.0,270.0,250.0,2290.088
2290098.0,666.0,33.0,271.0,253.0,2290.098
2290108.0,665.0,33.0,274.0,251.0,2290.108
2290118.0,665.0,32.0,262.0,250.0,2290.118
2290128.0,665.0,33.0,267.0,240.0,2290.128
2290138.0,665.0,33.0,266.0,247.0,2290.138
2290148.0,666.0,33.0,271.0,254.0,2290.148
2290158.0,664.0,33.0,275.0,249.0,2290.158
2290168.0,665.0,33.0,264.0,250.0,2290.168
2290178.0,665.0,32.0,271.0,240.0,2290.178
2290188.0,665.0,32.0,267.0,247.0,2290.188
2290198.0,666.0,33.0,271.0,254.0,2290.198
2290208.0,665.0,31.0,276.0,248.0,2290.208
2290219.0,665.0,33.0,263.0,247.0,2290.219
2290229.0,665.0,32.0,269.0,241.0,2290.229
2290239.0,665.0,33.0,275.0,252.0,2290.239
2290249.0,665.0,32.0,268.0,253.0,2290.249
2290259.0,664.0,32.0,275.0,244.0,2290.259
2290269.0,664.0,33.0,267.0,247.0,2290.269
2290279.0,664.0,32.0,269.0,243.0,2290.279
2290289.0,663.0,32.0,276.0,252.0,2290.289
2290299.0,662.0,33.0,267.0,253.0,2290.299
2290309.0,663.0,32.0,275.0,247.0,2290.309
2290319.0,664.0,32.0,264.0,247.0,2290.319
2290329.0,664.0,32.0,269.0,245.0,2290.329
2290339.0,663.0,31.0,276.0,252.0,2290.339
2290349.0,664.0,33.0,270.0,254.0,2290.349
2290359.0,663.0,32.0,274.0,247.0,2290.359
2290369.0,663.0,32.0,262.0,247.0,2290.369
2290379.0,664.0,32.0,267.0,246.0,2290.379
2290390.0,661.0,32.0,276.0,253.0,2290.39
2290400.0,662.0,31.0,263.0,251.0,2290.4
2290410.0,659.0,32.0,270.0,242.0,2290.41
2290420.0,650.0,32.0,262.0,245.0,2290.42
2290430.0,653.0,33.0,269.0,251.0,2290.43
2290440.0,631.0,32.0,274.0,251.0,2290.44
2290450.0,633.0,32.0,261.0,250.0,2290.45
2290460.0,634.0,32.0,269.0,240.0,2290.46
2290470.0,613.0,32.0,261.0,244.0,2290.47
2290480.0,620.0,32.0,268.0,246.0,2290.48
2290490.0,620.0,32.0,274.0,252.0,2290.49
2290500.0,621.0,32.0,261.0,250.0,2290.5
2290510.0,620.0,31.0,268.0,241.0,2290.51
2290520.0,633.0,32.0,261.0,247.0,2290.52
2290530.0,621.0,31.0,268.0,250.0,2290.53
2290540.0,620.0,32.0,272.0,251.0,2290.54
2290550.0,620.0,32.0,260.0,250.0,2290.55
2290560.0,620.0,32.0,267.0,243.0,2290.56
2290570.0,623.0,32.0,259.0,245.0,2290.57
2290580.0,620.0,32.0,265.0,251.0,2290.58
2290590.0,621.0,31.0,271.0,251.0,2290.59
2290600.0,620.0,33.0,257.0,249.0,2290.6
2290610.0,620.0,31.0,265.0,242.0,2290.61
2290620.0,621.0,33.0,258.0,245.0,2290.62
2290630.0,620.0,32.0,266.0,251.0,2290.63
2290640.0,620.0,31.0,270.0,251.0,2290.64
2290650.0,620.0,32.0,260.0,251.0,2290.65
2290660.0,620.0,31.0,265.0,242.0,2290.66
2290670.0,620.0,32.0,259.0,245.0,2290.67
2290680.0,621.0,33.0,266.0,253.0,2290.68
2290690.0,621.0,32.0,270.0,251.0,2290.69
2290700.0,620.0,33.0,258.0,250.0,2290.7
2290710.0,620.0,33.0,265.0,241.0,2290.71
2290720.0,621.0,31.0,260.0,245.0,2290.72
2290731.0,621.0,32.0,266.0,252.0,2290.731
2290741.0,620.0,32.0,270.0,249.0,2290.741
2290751.0,620.0,33.0,257.0,249.0,2290.751
2290761.0,621.0,32.0,261.0,240.0,2290.761
2290771.0,621.0,32.0,265.0,251.0,2290.771
2290781.0,621.0,32.0,266.0,254.0,2290.781
2290791.0,621.0,32.0,268.0,250.0,2290.791
2290801.0,622.0,32.0,257.0,249.0,2290.801
2290811.0,617.0,33.0,259.0,242.0,2290.811
2290821.0,625.0,32.0,258.0,248.0,2290.821
2290831.0,622.0,32.0,263.0,254.0,2290.831
2290841.0,606.0,33.0,267.0,249.0,2290.841
2290851.0,622.0,33.0,256.0,249.0,2290.851
2290861.0,599.0,33.0,260.0,242.0,2290.861
2290871.0,610.0,33.0,258.0,250.0,2290.871
2290881.0,613.0,34.0,262.0,257.0,2290.881
2290891.0,590.0,32.0,266.0,251.0,2290.891
2290902.0,608.0,33.0,255.0,250.0,2290.902
2290912.0,589.0,33.0,259.0,246.0,2290.912
2290922.0,587.0,33.0,264.0,255.0,2290.922
2290932.0,601.0,33.0,258.0,255.0,2290.932
2290942.0,574.0,33.0,262.0,247.0,2290.942
2290952.0,591.0,32.0,255.0,250.0,2290.952
2290962.0,573.0,33.0,256.0,247.0,2290.962
2290972.0,569.0,33.0,264.0,255.0,2290.972
2290982.0,585.0,33.0,254.0,254.0,2290.982
2290992.0,557.0,32.0,260.0,249.0,2290.992
2291002.0,575.0,33.0,251.0,251.0,2291.002
2291012.0,558.0,33.0,255.0,248.0,2291.012
2291022.0,552.0,32.0,263.0,256.0,2291.022
2291032.0,567.0,34.0,257.0,257.0,2291.032
2291042.0,541.0,33.0,261.0,248.0,2291.042
2291052.0,558.0,33.0,251.0,250.0,2291.052
2291062.0,543.0,33.0,256.0,249.0,2291.062
2291072.0,540.0,32.0,260.0,254.0,2291.072
2291082.0,552.0,32.0,256.0,256.0,2291.082
2291092.0,525.0,32.0,259.0,248.0,2291.092
2291102.0,543.0,32.0,252.0,248.0,2291.102
2291112.0,531.0,32.0,256.0,250.0,2291.112
2291122.0,525.0,31.0,261.0,253.0,2291.122
2291132.0,539.0,33.0,253.0,256.0,2291.132
2291142.0,512.0,32.0,255.0,246.0,2291.142
2291152.0,528.0,32.0,248.0,247.0,2291.152
2291162.0,511.0,32.0,251.0,244.0,2291.162
2291172.0,509.0,31.0,258.0,253.0,2291.172
2291182.0,524.0,32.0,252.0,253.0,2291.182
2291192.0,496.0,31.0,256.0,246.0,2291.192
2291202.0,515.0,32.0,248.0,249.0,2291.202
2291212.0,497.0,32.0,252.0,246.0,2291.212
2291222.0,493.0,32.0,260.0,254.0,2291.222
2291232.0,509.0,32.0,251.0,252.0,2291.232
2291243.0,481.0,32.0,257.0,244.0,2291.243
2291253.0,495.0,32.0,251.0,246.0,2291.253
2291263.0,490.0,33.0,259.0,253.0,2291.263
2291273.0,472.0,31.0,265.0,252.0,2291.273
2291283.0,490.0,32.0,253.0,250.0,2291.283
2291293.0,464.0,32.0,260.0,244.0,2291.293
2291303.0,477.0,33.0,253.0,247.0,2291.303
2291313.0,473.0,32.0,262.0,253.0,2291.313
2291323.0,454.0,33.0,265.0,253.0,2291.323
2291333.0,474.0,33.0,255.0,252.0,2291.333
2291343.0,447.0,32.0,261.0,244.0,2291.343
2291353.0,460.0,33.0,256.0,247.0,2291.353
2291363.0,458.0,34.0,263.0,255.0,2291.363
2291373.0,440.0,33.0,268.0,253.0,2291.373
2291383.0,459.0,33.0,256.0,251.0,2291.383
2291393.0,434.0,34.0,262.0,243.0,2291.393
2291403.0,447.0,33.0,257.0,248.0,2291.403
2291414.0,447.0,33.0,263.0,255.0,2291.414
2291424.0,428.0,33.0,267.0,251.0,2291.424
2291434.0,444.0,34.0,255.0,250.0,2291.434
2291444.0,422.0,32.0,257.0,243.0,2291.444
2291454.0,427.0,34.0,263.0,254.0,2291.454
2291464.0,436.0,33.0,262.0,254.0,2291.464
2291474.0,415.0,32.0,265.0,250.0,2291.474
2291484.0,433.0,33.0,256.0,249.0,2291.484
2291494.0,413.0,33.0,257.0,243.0,2291.494
2291504.0,421.0,33.0,258.0,249.0,2291.504
2291514.0,428.0,33.0,262.0,256.0,2291.514
2291524.0,406.0,32.0,264.0,250.0,2291.524
2291534.0,424.0,33.0,253.0,249.0,2291.534
2291544.0,402.0,33.0,255.0,241.0,2291.544
2291554.0,412.0,33.0,257.0,251.0,2291.554
2291564.0,419.0,33.0,258.0,256.0,2291.564
2291574.0,398.0,32.0,260.0,249.0,2291.574
2291584.0,418.0,33.0,250.0,251.0,2291.584
2291594.0,395.0,32.0,251.0,242.0,2291.594
2291604.0,403.0,32.0,254.0,250.0,2291.604
2291614.0,414.0,32.0,255.0,255.0,2291.614
2291624.0,391.0,31.0,256.0,248.0,2291.624
2291634.0,411.0,32.0,247.0,249.0,2291.634
2291644.0,388.0,32.0,247.0,242.0,2291.644
2291654.0,397.0,32.0,253.0,252.0,2291.654
2291664.0,407.0,32.0,252.0,255.0,2291.664
2291674.0,385.0,32.0,256.0,251.0,2291.674
2291684.0,404.0,31.0,246.0,250.0,2291.684
2291694.0,383.0,32.0,245.0,243.0,2291.694
2291704.0,389.0,32.0,252.0,253.0,2291.704
2291714.0,399.0,33.0,251.0,256.0,2291.714
2291724.0,380.0,32.0,255.0,251.0,2291.724
2291734.0,397.0,32.0,245.0,251.0,2291.734
2291744.0,380.0,31.0,247.0,245.0,2291.744
2291755.0,382.0,32.0,253.0,254.0,2291.755
2291765.0,396.0,32.0,248.0,255.0,2291.765
2291775.0,371.0,33.0,252.0,248.0,2291.775
2291785.0,387.0,32.0,245.0,247.0,2291.785
2291795.0,381.0,31.0,252.0,251.0,2291.795
2291805.0,376.0,31.0,257.0,254.0,2291.805
2291815.0,390.0,31.0,249.0,254.0,2291.815
2291825.0,366.0,32.0,252.0,246.0,2291.825
2291835.0,380.0,32.0,246.0,249.0,2291.835
2291845.0,368.0,33.0,248.0,248.0,2291.845
2291855.0,367.0,32.0,256.0,255.0,2291.855
2291865.0,382.0,32.0,247.0,254.0,2291.865
2291875.0,359.0,31.0,251.0,246.0,2291.875
2291885.0,374.0,32.0,244.0,249.0,2291.885
2291895.0,363.0,32.0,248.0,249.0,2291.895
2291905.0,359.0,32.0,255.0,256.0,2291.905
2291915.0,375.0,32.0,246.0,253.0,2291.915
2291926.0,351.0,32.0,249.0,246.0,2291.926
2291936.0,365.0,32.0,245.0,249.0,2291.936
2291946.0,365.0,32.0,252.0,256.0,2291.946
2291956.0,351.0,32.0,254.0,254.0,2291.956
2291966.0,368.0,33.0,245.0,253.0,2291.966
2291976.0,347.0,32.0,248.0,245.0,2291.976
2291986.0,360.0,32.0,244.0,249.0,2291.986
2291996.0,361.0,32.0,252.0,255.0,2291.996
2292006.0,345.0,33.0,253.0,253.0,2292.006
2292016.0,363.0,32.0,244.0,252.0,2292.016
2292026.0,340.0,33.0,247.0,245.0,2292.026
2292036.0,352.0,33.0,244.0,249.0,2292.036
2292046.0,356.0,32.0,251.0,255.0,2292.046
2292056.0,341.0,32.0,255.0,254.0,2292.056
2292066.0,358.0,33.0,244.0,251.0,2292.066
2292076.0,334.0,32.0,246.0,243.0,2292.076
2292086.0,344.0,32.0,246.0,249.0,2292.086
2292096.0,345.0,34.0,250.0,254.0,2292.096
2292106.0,334.0,32.0,256.0,254.0,2292.106
2292116.0,350.0,33.0,244.0,250.0,2292.116
2292126.0,329.0,32.0,249.0,243.0,2292.126
2292136.0,337.0,33.0,248.0,251.0,2292.136
2292146.0,340.0,33.0,253.0,254.0,2292.146
2292156.0,327.0,33.0,256.0,255.0,2292.156
2292166.0,342.0,33.0,245.0,252.0,2292.166
2292176.0,321.0,32.0,248.0,243.0,2292.176
2292186.0,333.0,33.0,245.0,250.0,2292.186
2292196.0,335.0,33.0,254.0,256.0,2292.196
2292206.0,321.0,33.0,257.0,255.0,2292.206
2292216.0,336.0,33.0,247.0,253.0,2292.216
2292226.0,316.0,33.0,251.0,247.0,2292.226
2292236.0,327.0,32.0,248.0,251.0,2292.236
2292246.0,331.0,33.0,254.0,257.0,2292.246
2292256.0,317.0,32.0,259.0,254.0,2292.256
2292267.0,330.0,33.0,247.0,252.0,2292.267
2292277.0,311.0,33.0,250.0,245.0,2292.277
2292287.0,318.0,33.0,256.0,256.0,2292.287
2292297.0,329.0,32.0,254.0,258.0,2292.297
2292307.0,309.0,32.0,257.0,251.0,2292.307
2292317.0,325.0,33.0,249.0,252.0,2292.317
2292327.0,308.0,33.0,250.0,247.0,2292.327
2292337.0,314.0,33.0,257.0,256.0,2292.337
2292347.0,325.0,33.0,254.0,257.0,2292.347
2292357.0,305.0,33.0,259.0,253.0,2292.357
2292367.0,319.0,32.0,249.0,251.0,2292.367
2292377.0,303.0,33.0,251.0,247.0,2292.377
2292387.0,311.0,33.0,261.0,257.0,2292.387
2292397.0,320.0,33.0,256.0,257.0,2292.397
2292407.0,302.0,33.0,259.0,252.0,2292.407
2292417.0,316.0,34.0,249.0,252.0,2292.417
2292427.0,302.0,32.0,252.0,248.0,2292.427
2292438.0,305.0,33.0,260.0,256.0,2292.438
2292448.0,318.0,34.0,253.0,256.0,2292.448
2292458.0,295.0,33.0,256.0,248.0,2292.458
2292468.0,305.0,33.0,250.0,249.0,2292.468
2292478.0,304.0,34.0,256.0,255.0,2292.478
2292488.0,298.0,33.0,260.0,255.0,2292.488
2292498.0,310.0,34.0,251.0,254.0,2292.498
2292508.0,288.0,33.0,256.0,247.0,2292.508
2292518.0,299.0,34.0,250.0,248.0,2292.518
2292528.0,292.0,33.0,254.0,249.0,2292.528
2292538.0,291.0,33.0,261.0,256.0,2292.538
2292548.0,304.0,34.0,251.0,254.0,2292.548
2292558.0,282.0,32.0,255.0,246.0,2292.558
2292568.0,294.0,34.0,249.0,250.0,2292.568
2292578.0,290.0,33.0,255.0,251.0,2292.578
2292588.0,286.0,33.0,260.0,257.0,2292.588
2292598.0,300.0,33.0,249.0,254.0,2292.598
2292608.0,280.0,34.0,256.0,251.0,2292.608
2292618.0,291.0,33.0,248.0,250.0,2292.618
2292628.0,287.0,33.0,253.0,252.0,2292.628
2292638.0,282.0,33.0,261.0,256.0,2292.638
2292648.0,295.0,33.0,249.0,253.0,2292.648
2292658.0,276.0,32.0,256.0,249.0,2292.658
2292668.0,287.0,33.0,248.0,251.0,2292.668
2292678.0,284.0,33.0,255.0,254.0,2292.678
2292688.0,278.0,32.0,260.0,255.0,2292.688
2292698.0,293.0,33.0,252.0,255.0,2292.698
2292708.0,274.0,33.0,255.0,248.0,2292.708
2292718.0,284.0,33.0,247.0,250.0,2292.718
2292728.0,283.0,33.0,254.0,255.0,2292.728
2292738.0,279.0,33.0,258.0,257.0,2292.738
2292748.0,292.0,32.0,250.0,255.0,2292.748
2292758.0,272.0,32.0,252.0,247.0,2292.758
2292768.0,284.0,32.0,247.0,249.0,2292.768
2292779.0,286.0,32.0,253.0,256.0,2292.779
2292789.0,276.0,31.0,257.0,255.0,2292.789
2292799.0,291.0,32.0,246.0,254.0,2292.799
2292809.0,273.0,31.0,248.0,244.0,2292.809
2292819.0,281.0,32.0,250.0,253.0,2292.819
2292829.0,288.0,32.0,253.0,257.0,2292.829
2292839.0,276.0,31.0,256.0,255.0,2292.839
2292849.0,290.0,32.0,245.0,253.0,2292.849
2292859.0,272.0,31.0,245.0,245.0,2292.859
2292869.0,281.0,33.0,244.0,251.0,2292.869
2292879.0,287.0,31.0,251.0,258.0,2292.879
2292889.0,273.0,32.0,253.0,254.0,2292.889
2292899.0,287.0,32.0,244.0,251.0,2292.899
2292909.0,269.0,32.0,246.0,246.0,2292.909
2292919.0,277.0,32.0,244.0,252.0,2292.919
2292929.0,284.0,33.0,250.0,258.0,2292.929
2292939.0,271.0,32.0,251.0,252.0,2292.939
2292950.0,285.0,32.0,241.0,251.0,2292.95
2292960.0,269.0,32.0,243.0,245.0,2292.96
2292970.0,276.0,31.0,250.0,255.0,2292.97
2292980.0,286.0,32.0,246.0,256.0,2292.98
2292990.0,267.0,32.0,248.0,249.0,2292.99
2293000.0,280.0,32.0,242.0,250.0,2293.0
2293010.0,266.0,32.0,242.0,246.0,2293.01
2293020.0,271.0,32.0,251.0,255.0,2293.02
2293030.0,283.0,31.0,246.0,255.0,2293.03
2293040.0,264.0,32.0,250.0,251.0,2293.04
2293050.0,276.0,32.0,241.0,251.0,2293.05
2293060.0,265.0,33.0,243.0,247.0,2293.06
2293070.0,269.0,32.0,252.0,256.0,2293.07
2293080.0,278.0,33.0,249.0,258.0,2293.08
2293090.0,262.0,32.0,250.0,251.0,2293.09
2293100.0,272.0,32.0,240.0,251.0,2293.1
2293110.0,263.0,32.0,244.0,249.0,2293.11
2293120.0,266.0,33.0,247.0,255.0,2293.12
2293130.0,275.0,32.0,247.0,256.0,2293.13
2293140.0,257.0,32.0,248.0,250.0,2293.14
2293150.0,269.0,32.0,241.0,250.0,2293.15
2293160.0,263.0,31.0,244.0,250.0,2293.16
2293170.0,263.0,32.0,248.0,254.0,2293.17
2293180.0,274.0,33.0,245.0,257.0,2293.18
2293190.0,257.0,33.0,248.0,249.0,2293.19
2293200.0,267.0,32.0,241.0,250.0,2293.2
2293210.0,255.0,32.0,243.0,246.0,2293.21
2293220.0,262.0,31.0,251.0,255.0,2293.22
2293230.0,272.0,33.0,246.0,256.0,2293.23
2293240.0,254.0,32.0,248.0,249.0,2293.24
2293250.0,267.0,33.0,241.0,252.0,2293.25
2293260.0,254.0,32.0,244.0,246.0,2293.26
2293270.0,259.0,32.0,251.0,255.0,2293.27
2293280.0,271.0,33.0,247.0,255.0,2293.28
2293291.0,252.0,32.0,248.0,248.0,2293.291
2293301.0,262.0,32.0,243.0,249.0,2293.301
2293311.0,261.0,33.0,249.0,254.0,2293.311
2293321.0,255.0,32.0,254.0,255.0,2293.321
2293331.0,267.0,32.0,244.0,252.0,2293.331
2293341.0,250.0,32.0,249.0,248.0,2293.341
2293351.0,260.0,32.0,244.0,250.0,2293.351
2293361.0,261.0,32.0,250.0,256.0,2293.361
2293371.0,253.0,32.0,255.0,257.0,2293.371
2293381.0,268.0,33.0,246.0,256.0,2293.381
2293391.0,249.0,32.0,249.0,247.0,2293.391
2293401.0,257.0,32.0,244.0,251.0,2293.401
2293411.0,263.0,32.0,252.0,257.0,2293.411
2293421.0,256.0,32.0,254.0,256.0,2293.421
2293431.0,268.0,33.0,244.0,253.0,2293.431
2293441.0,248.0,33.0,247.0,246.0,2293.441
2293451.0,257.0,32.0,242.0,248.0,2293.451
2293462.0,262.0,33.0,250.0,255.0,2293.462
2293472.0,252.0,32.0,253.0,254.0,2293.472
2293482.0,264.0,31.0,243.0,251.0,2293.482
2293492.0,246.0,32.0,243.0,243.0,2293.492
2293502.0,255.0,33.0,248.0,253.0,2293.502
2293512.0,263.0,33.0,250.0,256.0,2293.512
2293522.0,249.0,32.0,253.0,253.0,2293.522
2293532.0,261.0,32.0,244.0,251.0,2293.532
2293542.0,247.0,31.0,244.0,244.0,2293.542
2293552.0,253.0,32.0,245.0,251.0,2293.552
2293562.0,261.0,33.0,251.0,257.0,2293.562
2293572.0,248.0,33.0,254.0,253.0,2293.572
2293582.0,259.0,32.0,243.0,250.0,2293.582
2293592.0,243.0,33.0,246.0,244.0,2293.592
2293602.0,251.0,32.0,247.0,250.0,2293.602
2293612.0,260.0,32.0,251.0,257.0,2293.612
2293622.0,245.0,32.0,254.0,251.0,2293.622
2293632.0,258.0,33.0,245.0,252.0,2293.632
2293642.0,241.0,32.0,247.0,242.0,2293.642
2293652.0,250.0,32.0,251.0,252.0,2293.652
2293662.0,259.0,33.0,253.0,256.0,2293.662
2293672.0,244.0,31.0,256.0,251.0,2293.672
2293682.0,256.0,32.0,247.0,251.0,2293.682
2293692.0,239.0,32.0,249.0,243.0,2293.692
2293702.0,246.0,33.0,252.0,252.0,2293.702
2293712.0,256.0,32.0,254.0,256.0,2293.712
2293722.0,241.0,33.0,257.0,254.0,2293.722
2293732.0,253.0,32.0,248.0,251.0,2293.732
2293742.0,236.0,32.0,247.0,244.0,2293.742
2293752.0,243.0,32.0,254.0,253.0,2293.752
2293762.0,251.0,33.0,255.0,258.0,2293.762
2293772.0,239.0,32.0,256.0,253.0,2293.772
2293782.0,250.0,32.0,246.0,251.0,2293.782
2293792.0,236.0,32.0,247.0,245.0,2293.792
2293803.0,243.0,32.0,254.0,256.0,2293.803
2293813.0,253.0,32.0,250.0,257.0,2293.813
2293823.0,236.0,32.0,252.0,250.0,2293.823
2293833.0,243.0,32.0,244.0,250.0,2293.833
2293843.0,240.0,32.0,249.0,252.0,2293.843
2293853.0,239.0,33.0,251.0,254.0,2293.853
2293863.0,250.0,31.0,247.0,255.0,2293.863
2293873.0,232.0,32.0,248.0,247.0,2293.873
2293883.0,240.0,32.0,242.0,249.0,2293.883
2293893.0,235.0,33.0,243.0,246.0,2293.893
2293903.0,240.0,32.0,252.0,255.0,2293.903
2293913.0,249.0,32.0,245.0,256.0,2293.913
2293923.0,232.0,32.0,250.0,249.0,2293.923
2293933.0,242.0,31.0,243.0,251.0,2293.933
2293943.0,233.0,32.0,246.0,248.0,2293.943
2293953.0,238.0,32.0,253.0,257.0,2293.953
2293963.0,247.0,32.0,246.0,254.0,2293.963
2293974.0,229.0,31.0,250.0,248.0,2293.974
2293984.0,236.0,32.0,244.0,250.0,2293.984
2293994.0,240.0,32.0,252.0,255.0,2293.994
2294004.0,234.0,32.0,256.0,256.0,2294.004
2294014.0,244.0,32.0,245.0,254.0,2294.014
2294024.0,229.0,32.0,250.0,247.0,2294.024
2294034.0,236.0,32.0,245.0,249.0,2294.034
2294044.0,240.0,32.0,252.0,257.0,2294.044
2294054.0,233.0,31.0,256.0,255.0,2294.054
2294064.0,244.0,31.0,246.0,255.0,2294.064
2294074.0,227.0,31.0,248.0,247.0,2294.074
2294084.0,234.0,33.0,243.0,251.0,2294.084
2294094.0,240.0,32.0,249.0,257.0,2294.094
2294104.0,233.0,31.0,252.0,256.0,2294.104
2294114.0,243.0,32.0,243.0,253.0,2294.114
2294124.0,226.0,31.0,244.0,245.0,2294.124
2294134.0,232.0,31.0,241.0,249.0,2294.134
2294144.0,235.0,32.0,246.0,253.0,2294.144
2294154.0,232.0,31.0,251.0,255.0,2294.154
2294164.0,241.0,32.0,240.0,253.0,2294.164
2294174.0,225.0,32.0,242.0,244.0,2294.174
2294184.0,232.0,31.0,240.0,251.0,2294.184
2294194.0,235.0,31.0,244.0,253.0,2294.194
2294204.0,230.0,31.0,249.0,255.0,2294.204
2294214.0,239.0,33.0,239.0,252.0,2294.214
2294224.0,224.0,32.0,240.0,243.0,2294.224
2294234.0,231.0,32.0,238.0,248.0,2294.234
2294244.0,236.0,31.0,247.0,255.0,2294.244
2294254.0,228.0,31.0,249.0,255.0,2294.254
2294264.0,238.0,32.0,240.0,251.0,2294.264
2294274.0,223.0,32.0,243.0,247.0,2294.274
2294284.0,229.0,32.0,239.0,248.0,2294.284
2294294.0,235.0,32.0,247.0,255.0,2294.294
2294304.0,228.0,31.0,252.0,254.0,2294.304
2294315.0,237.0,32.0,240.0,252.0,2294.315
2294325.0,222.0,32.0,242.0,243.0,2294.325
2294335.0,230.0,32.0,249.0,255.0,2294.335
2294345.0,239.0,32.0,249.0,257.0,2294.345
2294355.0,225.0,32.0,252.0,251.0,2294.355
2294365.0,236.0,32.0,244.0,251.0,2294.365
2294375.0,223.0,31.0,246.0,244.0,2294.375
2294385.0,230.0,32.0,254.0,256.0,2294.385
2294395.0,239.0,32.0,251.0,257.0,2294.395
2294405.0,226.0,33.0,256.0,254.0,2294.405
2294415.0,235.0,32.0,246.0,252.0,2294.415
2294425.0,222.0,31.0,247.0,247.0,2294.425
2294435.0,232.0,31.0,257.0,258.0,2294.435
2294445.0,237.0,31.0,254.0,259.0,2294.445
2294455.0,226.0,31.0,257.0,255.0,2294.455
2294465.0,234.0,32.0,247.0,253.0,2294.465
2294475.0,223.0,32.0,249.0,246.0,2294.475
2294486.0,230.0,31.0,259.0,258.0,2294.486
2294496.0,239.0,32.0,252.0,258.0,2294.496
2294506.0,224.0,31.0,255.0,249.0,2294.506
