time (ms),signal 0,signal 1,signal 2,signal 3,time (sec)
2315107.0,665.0,33.0,230.0,233.0,2315.107
2315117.0,667.0,34.0,223.0,236.0,2315.117
2315127.0,666.0,34.0,225.0,234.0,2315.127
2315137.0,665.0,33.0,228.0,239.0,2315.137
2315147.0,667.0,34.0,227.0,243.0,2315.147
2315157.0,665.0,33.0,226.0,233.0,2315.157
2315167.0,665.0,33.0,220.0,235.0,2315.167
2315177.0,666.0,35.0,223.0,236.0,2315.177
2315187.0,665.0,33.0,226.0,238.0,2315.187
2315197.0,666.0,34.0,223.0,241.0,2315.197
2315207.0,666.0,33.0,224.0,231.0,2315.207
2315217.0,665.0,33.0,218.0,233.0,2315.217
2315227.0,666.0,33.0,218.0,230.0,2315.227
2315237.0,665.0,33.0,227.0,239.0,2315.237
2315247.0,666.0,34.0,222.0,240.0,2315.247
2315257.0,665.0,32.0,223.0,231.0,2315.257
2315267.0,665.0,33.0,219.0,234.0,2315.267
2315277.0,667.0,33.0,220.0,232.0,2315.277
2315287.0,665.0,33.0,227.0,240.0,2315.287
2315297.0,665.0,33.0,222.0,239.0,2315.297
2315307.0,665.0,34.0,225.0,235.0,2315.307
2315317.0,665.0,33.0,219.0,234.0,2315.317
2315327.0,666.0,33.0,221.0,233.0,2315.327
2315337.0,666.0,33.0,230.0,240.0,2315.337
2315347.0,666.0,33.0,222.0,240.0,2315.347
2315357.0,665.0,32.0,226.0,235.0,2315.357
2315367.0,665.0,33.0,220.0,237.0,2315.367
2315377.0,666.0,34.0,223.0,236.0,2315.377
2315387.0,665.0,33.0,231.0,242.0,2315.387
2315397.0,666.0,34.0,227.0,244.0,2315.397
2315407.0,665.0,33.0,226.0,235.0,2315.407
2315417.0,665.0,33.0,220.0,237.0,2315.417
2315427.0,666.0,32.0,225.0,239.0,2315.427
2315437.0,665.0,34.0,228.0,242.0,2315.437
2315447.0,666.0,32.0,225.0,244.0,2315.447
2315457.0,665.0,32.0,224.0,234.0,2315.457
2315467.0,666.0,33.0,221.0,237.0,2315.467
2315478.0,666.0,33.0,224.0,240.0,2315.478
2315488.0,665.0,33.0,229.0,241.0,2315.488
2315498.0,665.0,33.0,221.0,242.0,2315.498
2315508.0,665.0,32.0,221.0,231.0,2315.508
2315518.0,665.0,33.0,221.0,238.0,2315.518
2315528.0,666.0,33.0,227.0,242.0,2315.528
2315538.0,665.0,33.0,231.0,244.0,2315.538
2315548.0,665.0,33.0,223.0,241.0,2315.548
2315558.0,665.0,33.0,223.0,234.0,2315.558
2315568.0,665.0,33.0,221.0,239.0,2315.568
2315578.0,666.0,32.0,228.0,244.0,2315.578
2315588.0,665.0,33.0,232.0,243.0,2315.588
2315598.0,666.0,33.0,224.0,243.0,2315.598
2315608.0,665.0,33.0,226.0,235.0,2315.608
2315618.0,665.0,32.0,223.0,238.0,2315.618
2315628.0,666.0,34.0,230.0,246.0,2315.628
2315638.0,665.0,32.0,232.0,243.0,2315.638
2315648.0,665.0,33.0,226.0,244.0,2315.648
2315658.0,665.0,33.0,227.0,235.0,2315.658
2315668.0,665.0,32.0,224.0,240.0,2315.668
2315678.0,666.0,33.0,231.0,247.0,2315.678
2315688.0,665.0,33.0,234.0,245.0,2315.688
2315698.0,665.0,33.0,227.0,246.0,2315.698
2315708.0,665.0,32.0,226.0,236.0,2315.708
2315718.0,666.0,33.0,225.0,241.0,2315.718
2315728.0,667.0,33.0,232.0,249.0,2315.728
2315738.0,665.0,33.0,232.0,247.0,2315.738
2315748.0,665.0,33.0,226.0,245.0,2315.748
2315758.0,665.0,33.0,224.0,237.0,2315.758
2315768.0,665.0,32.0,225.0,242.0,2315.768
2315778.0,666.0,32.0,229.0,245.0,2315.778
2315788.0,666.0,33.0,234.0,246.0,2315.788
2315798.0,665.0,33.0,225.0,245.0,2315.798
2315808.0,665.0,32.0,224.0,235.0,2315.808
2315819.0,665.0,33.0,227.0,244.0,2315.819
2315829.0,666.0,33.0,233.0,250.0,2315.829
2315839.0,665.0,32.0,232.0,242.0,2315.839
2315849.0,666.0,33.0,227.0,243.0,2315.849
2315859.0,666.0,33.0,225.0,239.0,2315.859
2315869.0,665.0,32.0,230.0,244.0,2315.869
2315879.0,666.0,33.0,234.0,251.0,2315.879
2315889.0,665.0,32.0,235.0,243.0,2315.889
2315899.0,665.0,32.0,227.0,244.0,2315.899
2315909.0,665.0,32.0,228.0,236.0,2315.909
2315919.0,666.0,31.0,234.0,245.0,2315.919
2315929.0,666.0,33.0,235.0,251.0,2315.929
2315939.0,665.0,32.0,236.0,243.0,2315.939
2315949.0,658.0,33.0,230.0,246.0,2315.949
2315959.0,645.0,32.0,228.0,236.0,2315.959
2315969.0,633.0,32.0,236.0,247.0,2315.969
2315979.0,622.0,33.0,237.0,251.0,2315.979
2315990.0,607.0,33.0,236.0,241.0,2315.99
2316000.0,568.0,33.0,231.0,243.0,2316.0
2316010.0,537.0,34.0,234.0,244.0,2316.01
2316020.0,499.0,32.0,241.0,248.0,2316.02
2316030.0,465.0,34.0,233.0,249.0,2316.03
2316040.0,427.0,33.0,237.0,241.0,2316.04
2316050.0,408.0,33.0,231.0,243.0,2316.05
2316060.0,386.0,33.0,237.0,245.0,2316.06
2316070.0,372.0,33.0,243.0,249.0,2316.07
2316080.0,387.0,34.0,238.0,252.0,2316.08
2316090.0,370.0,32.0,238.0,241.0,2316.09
2316100.0,399.0,33.0,233.0,243.0,2316.1
2316110.0,410.0,33.0,239.0,246.0,2316.11
2316120.0,423.0,34.0,242.0,248.0,2316.12
2316130.0,466.0,34.0,237.0,251.0,2316.13
2316140.0,470.0,35.0,238.0,241.0,2316.14
2316150.0,518.0,34.0,233.0,244.0,2316.15
2316160.0,534.0,34.0,235.0,242.0,2316.16
2316170.0,567.0,35.0,245.0,249.0,2316.17
2316180.0,618.0,35.0,237.0,251.0,2316.18
2316190.0,628.0,36.0,238.0,240.0,2316.19
2316200.0,665.0,36.0,233.0,244.0,2316.2
2316210.0,666.0,36.0,236.0,243.0,2316.21
2316220.0,665.0,36.0,243.0,249.0,2316.22
2316230.0,666.0,36.0,236.0,248.0,2316.23
2316240.0,665.0,35.0,238.0,239.0,2316.24
2316250.0,665.0,36.0,232.0,243.0,2316.25
2316260.0,666.0,35.0,236.0,243.0,2316.26
2316270.0,665.0,37.0,243.0,249.0,2316.27
2316280.0,665.0,36.0,235.0,247.0,2316.28
2316290.0,665.0,35.0,239.0,240.0,2316.29
2316300.0,666.0,35.0,234.0,242.0,2316.3
2316310.0,666.0,35.0,238.0,245.0,2316.31
2316320.0,665.0,35.0,245.0,248.0,2316.32
2316331.0,665.0,36.0,237.0,248.0,2316.331
2316341.0,665.0,34.0,239.0,236.0,2316.341
2316351.0,665.0,34.0,236.0,243.0,2316.351
2316361.0,666.0,35.0,244.0,251.0,2316.361
2316371.0,665.0,34.0,247.0,246.0,2316.371
2316381.0,665.0,35.0,239.0,249.0,2316.381
2316391.0,665.0,34.0,241.0,237.0,2316.391
2316401.0,665.0,35.0,240.0,244.0,2316.401
2316411.0,666.0,34.0,246.0,250.0,2316.411
2316421.0,665.0,34.0,249.0,247.0,2316.421
2316431.0,666.0,35.0,239.0,247.0,2316.431
2316441.0,665.0,33.0,242.0,237.0,2316.441
2316451.0,665.0,33.0,243.0,245.0,2316.451
2316461.0,666.0,35.0,246.0,250.0,2316.461
2316471.0,665.0,33.0,252.0,248.0,2316.471
2316481.0,665.0,34.0,241.0,248.0,2316.481
2316491.0,665.0,34.0,245.0,237.0,2316.491
2316502.0,665.0,34.0,246.0,246.0,2316.502
2316512.0,666.0,34.0,249.0,250.0,2316.512
2316522.0,665.0,34.0,251.0,245.0,2316.522
2316532.0,665.0,34.0,242.0,245.0,2316.532
2316542.0,666.0,33.0,246.0,241.0,2316.542
2316552.0,665.0,33.0,251.0,248.0,2316.552
2316562.0,666.0,34.0,250.0,251.0,2316.562
2316572.0,665.0,33.0,252.0,244.0,2316.572
2316582.0,665.0,33.0,244.0,245.0,2316.582
2316592.0,665.0,33.0,245.0,238.0,2316.592
2316602.0,665.0,32.0,251.0,247.0,2316.602
2316612.0,666.0,33.0,249.0,251.0,2316.612
2316622.0,665.0,33.0,251.0,242.0,2316.622
2316632.0,665.0,33.0,242.0,245.0,2316.632
2316642.0,665.0,33.0,243.0,237.0,2316.642
2316652.0,665.0,33.0,250.0,248.0,2316.652
2316662.0,666.0,33.0,246.0,250.0,2316.662
2316672.0,665.0,32.0,249.0,246.0,2316.672
2316682.0,666.0,32.0,241.0,246.0,2316.682
2316692.0,666.0,32.0,240.0,239.0,2316.692
2316702.0,665.0,32.0,247.0,250.0,2316.702
2316712.0,666.0,33.0,243.0,252.0,2316.712
2316722.0,665.0,33.0,245.0,245.0,2316.722
2316732.0,665.0,32.0,237.0,244.0,2316.732
2316742.0,666.0,32.0,238.0,241.0,2316.742
2316752.0,666.0,32.0,246.0,249.0,2316.752
2316762.0,666.0,32.0,242.0,251.0,2316.762
2316772.0,665.0,32.0,242.0,245.0,2316.772
2316782.0,665.0,34.0,235.0,247.0,2316.782
2316792.0,666.0,32.0,236.0,242.0,2316.792
2316802.0,665.0,33.0,238.0,247.0,2316.802
2316812.0,666.0,33.0,240.0,251.0,2316.812
2316822.0,665.0,31.0,238.0,244.0,2316.822
2316832.0,665.0,32.0,232.0,245.0,2316.832
2316843.0,665.0,33.0,233.0,245.0,2316.843
2316853.0,665.0,32.0,241.0,250.0,2316.853
2316863.0,665.0,32.0,234.0,250.0,2316.863
2316873.0,665.0,32.0,233.0,240.0,2316.873
2316883.0,664.0,31.0,229.0,243.0,2316.883
2316893.0,665.0,33.0,232.0,244.0,2316.893
2316903.0,663.0,32.0,237.0,249.0,2316.903
2316913.0,663.0,34.0,230.0,248.0,2316.913
2316923.0,663.0,32.0,229.0,239.0,2316.923
2316933.0,662.0,32.0,226.0,245.0,2316.933
2316943.0,665.0,32.0,229.0,246.0,2316.943
2316953.0,663.0,32.0,232.0,251.0,2316.953
2316963.0,663.0,33.0,226.0,248.0,2316.963
2316973.0,662.0,33.0,225.0,243.0,2316.973
2316983.0,663.0,32.0,220.0,243.0,2316.983
2316993.0,663.0,32.0,223.0,246.0,2316.993
2317003.0,663.0,33.0,230.0,249.0,2317.003
2317014.0,663.0,33.0,228.0,250.0,2317.014
2317024.0,663.0,32.0,217.0,240.0,2317.024
2317034.0,663.0,33.0,220.0,247.0,2317.034
2317044.0,664.0,33.0,225.0,252.0,2317.044
2317054.0,663.0,32.0,216.0,244.0,2317.054
2317064.0,662.0,33.0,217.0,247.0,2317.064
2317074.0,663.0,32.0,204.0,237.0,2317.074
2317084.0,663.0,32.0,204.0,242.0,2317.084
2317094.0,663.0,33.0,211.0,251.0,2317.094
2317104.0,661.0,33.0,204.0,250.0,2317.104
2317114.0,662.0,32.0,208.0,246.0,2317.114
2317124.0,662.0,33.0,191.0,237.0,2317.124
2317134.0,660.0,32.0,200.0,246.0,2317.134
2317144.0,661.0,33.0,206.0,251.0,2317.144
2317154.0,661.0,32.0,200.0,249.0,2317.154
2317164.0,661.0,33.0,211.0,252.0,2317.164
2317174.0,656.0,33.0,192.0,242.0,2317.174
2317184.0,659.0,32.0,207.0,246.0,2317.184
2317194.0,661.0,33.0,217.0,251.0,2317.194
2317204.0,663.0,32.0,206.0,249.0,2317.204
2317214.0,662.0,33.0,226.0,249.0,2317.214
2317224.0,665.0,33.0,209.0,239.0,2317.224
2317234.0,664.0,35.0,225.0,244.0,2317.234
2317244.0,666.0,34.0,241.0,252.0,2317.244
2317254.0,665.0,34.0,225.0,246.0,2317.254
2317264.0,666.0,34.0,253.0,247.0,2317.264
2317274.0,665.0,34.0,237.0,239.0,2317.274
2317284.0,665.0,33.0,257.0,244.0,2317.284
2317294.0,666.0,34.0,276.0,252.0,2317.294
2317304.0,665.0,34.0,260.0,246.0,2317.304
2317314.0,665.0,34.0,294.0,249.0,2317.314
2317324.0,666.0,34.0,275.0,240.0,2317.324
2317334.0,665.0,34.0,299.0,249.0,2317.334
2317344.0,666.0,34.0,322.0,256.0,2317.344
2317355.0,665.0,33.0,306.0,251.0,2317.355
2317365.0,666.0,35.0,339.0,249.0,2317.365
2317375.0,666.0,34.0,331.0,244.0,2317.375
2317385.0,665.0,34.0,344.0,250.0,2317.385
2317395.0,667.0,34.0,381.0,253.0,2317.395
2317405.0,666.0,34.0,358.0,249.0,2317.405
2317415.0,665.0,33.0,396.0,249.0,2317.415
2317425.0,666.0,35.0,388.0,246.0,2317.425
2317435.0,665.0,33.0,397.0,256.0,2317.435
2317445.0,666.0,34.0,426.0,258.0,2317.445
2317455.0,667.0,34.0,414.0,245.0,2317.455
2317465.0,666.0,34.0,450.0,250.0,2317.465
2317475.0,666.0,34.0,447.0,244.0,2317.475
2317485.0,666.0,35.0,450.0,252.0,2317.485
2317495.0,667.0,35.0,490.0,257.0,2317.495
2317505.0,665.0,34.0,471.0,246.0,2317.505
2317515.0,666.0,35.0,515.0,248.0,2317.515
2317526.0,667.0,35.0,512.0,246.0,2317.526
2317536.0,666.0,35.0,514.0,244.0,2317.536
2317546.0,666.0,35.0,549.0,245.0,2317.546
2317556.0,666.0,35.0,529.0,234.0,2317.556
2317566.0,666.0,34.0,560.0,231.0,2317.566
2317576.0,666.0,36.0,570.0,233.0,2317.576
2317586.0,667.0,35.0,574.0,233.0,2317.586
2317596.0,666.0,35.0,619.0,237.0,2317.596
2317606.0,666.0,35.0,595.0,228.0,2317.606
2317616.0,666.0,36.0,628.0,230.0,2317.616
2317626.0,667.0,36.0,641.0,230.0,2317.626
2317636.0,666.0,35.0,636.0,233.0,2317.636
2317646.0,667.0,36.0,667.0,239.0,2317.646
2317656.0,667.0,35.0,661.0,227.0,2317.656
2317666.0,666.0,36.0,667.0,240.0,2317.666
2317676.0,667.0,36.0,667.0,253.0,2317.676
2317686.0,666.0,35.0,666.0,254.0,2317.686
2317696.0,667.0,34.0,667.0,260.0,2317.696
2317706.0,665.0,34.0,666.0,243.0,2317.706
2317716.0,666.0,35.0,667.0,242.0,2317.716
2317726.0,667.0,35.0,667.0,247.0,2317.726
2317736.0,665.0,33.0,666.0,240.0,2317.736
2317746.0,666.0,35.0,667.0,243.0,2317.746
2317756.0,666.0,33.0,667.0,235.0,2317.756
2317766.0,666.0,33.0,667.0,242.0,2317.766
2317776.0,667.0,34.0,668.0,247.0,2317.776
2317786.0,652.0,33.0,666.0,247.0,2317.786
2317796.0,666.0,34.0,667.0,247.0,2317.796
2317806.0,640.0,33.0,667.0,236.0,2317.806
2317816.0,644.0,34.0,667.0,233.0,2317.816
2317826.0,636.0,34.0,667.0,234.0,2317.826
2317836.0,622.0,34.0,667.0,232.0,2317.836
2317846.0,638.0,33.0,667.0,233.0,2317.846
2317856.0,610.0,33.0,667.0,222.0,2317.856
2317867.0,610.0,33.0,666.0,216.0,2317.867
2317877.0,615.0,35.0,667.0,230.0,2317.877
2317887.0,596.0,34.0,666.0,232.0,2317.887
2317897.0,602.0,33.0,667.0,249.0,2317.897
2317907.0,587.0,33.0,668.0,241.0,2317.907
2317917.0,599.0,33.0,667.0,249.0,2317.917
2317927.0,598.0,33.0,667.0,260.0,2317.927
2317937.0,591.0,33.0,667.0,267.0,2317.937
2317947.0,608.0,33.0,666.0,268.0,2317.947
2317957.0,581.0,32.0,667.0,254.0,2317.957
2317967.0,587.0,33.0,667.0,262.0,2317.967
2317977.0,587.0,33.0,667.0,271.0,2317.977
2317987.0,556.0,33.0,666.0,264.0,2317.987
2317997.0,572.0,32.0,667.0,267.0,2317.997
2318007.0,547.0,33.0,666.0,255.0,2318.007
2318017.0,551.0,32.0,666.0,270.0,2318.017
2318027.0,555.0,33.0,667.0,274.0,2318.027
2318038.0,525.0,32.0,668.0,272.0,2318.038
2318048.0,545.0,32.0,667.0,274.0,2318.048
2318058.0,527.0,32.0,667.0,266.0,2318.058
2318068.0,516.0,33.0,667.0,266.0,2318.068
2318078.0,532.0,32.0,667.0,268.0,2318.078
2318088.0,499.0,32.0,666.0,257.0,2318.088
2318098.0,516.0,33.0,667.0,261.0,2318.098
2318108.0,500.0,32.0,667.0,249.0,2318.108
2318118.0,487.0,32.0,667.0,258.0,2318.118
2318128.0,507.0,32.0,667.0,259.0,2318.128
2318138.0,481.0,32.0,666.0,248.0,2318.138
2318148.0,494.0,32.0,666.0,253.0,2318.148
2318158.0,489.0,32.0,667.0,251.0,2318.158
2318168.0,491.0,31.0,667.0,251.0,2318.168
2318178.0,500.0,32.0,667.0,258.0,2318.178
2318188.0,465.0,31.0,666.0,248.0,2318.188
2318198.0,480.0,33.0,667.0,256.0,2318.198
2318208.0,462.0,31.0,666.0,250.0,2318.208
2318218.0,459.0,31.0,666.0,258.0,2318.218
2318228.0,474.0,32.0,668.0,258.0,2318.228
2318238.0,446.0,31.0,667.0,244.0,2318.238
2318248.0,458.0,31.0,666.0,239.0,2318.248
2318258.0,442.0,32.0,667.0,235.0,2318.258
2318268.0,442.0,31.0,666.0,240.0,2318.268
2318278.0,459.0,31.0,667.0,248.0,2318.278
2318288.0,434.0,31.0,667.0,238.0,2318.288
2318298.0,448.0,31.0,667.0,240.0,2318.298
2318308.0,434.0,31.0,667.0,235.0,2318.308
2318318.0,433.0,30.0,666.0,245.0,2318.318
2318328.0,449.0,32.0,667.0,248.0,2318.328
2318338.0,423.0,30.0,667.0,242.0,2318.338
2318348.0,435.0,31.0,666.0,243.0,2318.348
2318358.0,414.0,31.0,667.0,241.0,2318.358
2318368.0,419.0,31.0,666.0,244.0,2318.368
2318379.0,436.0,31.0,666.0,237.0,2318.379
2318389.0,407.0,32.0,666.0,235.0,2318.389
2318399.0,422.0,30.0,666.0,236.0,2318.399
2318409.0,420.0,31.0,667.0,245.0,2318.409
2318419.0,411.0,31.0,667.0,247.0,2318.419
2318429.0,433.0,31.0,667.0,247.0,2318.429
2318439.0,410.0,31.0,663.0,241.0,2318.439
2318449.0,421.0,31.0,666.0,250.0,2318.449
2318459.0,426.0,32.0,667.0,258.0,2318.459
2318469.0,406.0,30.0,653.0,260.0,2318.469
2318479.0,421.0,32.0,666.0,261.0,2318.479
2318489.0,395.0,31.0,631.0,257.0,2318.489
2318499.0,405.0,31.0,650.0,259.0,2318.499
2318509.0,398.0,32.0,642.0,255.0,2318.509
2318519.0,391.0,33.0,627.0,256.0,2318.519
2318529.0,405.0,32.0,647.0,250.0,2318.529
2318539.0,378.0,32.0,605.0,242.0,2318.539
2318550.0,391.0,32.0,621.0,250.0,2318.55
2318560.0,401.0,32.0,625.0,264.0,2318.56
2318570.0,380.0,32.0,590.0,265.0,2318.57
2318580.0,398.0,33.0,616.0,270.0,2318.58
2318590.0,371.0,32.0,581.0,258.0,2318.59
2318600.0,381.0,32.0,587.0,262.0,2318.6
2318610.0,390.0,32.0,594.0,271.0,2318.61
2318620.0,365.0,32.0,556.0,266.0,2318.62
2318630.0,381.0,32.0,577.0,259.0,2318.63
2318640.0,360.0,32.0,547.0,252.0,2318.64
2318650.0,367.0,33.0,552.0,259.0,2318.65
2318660.0,379.0,32.0,563.0,264.0,2318.66
2318670.0,357.0,31.0,521.0,263.0,2318.67
2318680.0,377.0,32.0,545.0,266.0,2318.68
2318690.0,354.0,31.0,509.0,251.0,2318.69
2318700.0,361.0,31.0,513.0,261.0,2318.7
2318710.0,372.0,32.0,526.0,269.0,2318.71
2318720.0,347.0,32.0,488.0,265.0,2318.72
2318730.0,363.0,31.0,507.0,265.0,2318.73
2318740.0,347.0,31.0,477.0,255.0,2318.74
2318750.0,354.0,31.0,480.0,263.0,2318.75
2318760.0,362.0,31.0,491.0,259.0,2318.76
2318770.0,345.0,31.0,461.0,247.0,2318.77
2318780.0,364.0,31.0,483.0,244.0,2318.78
2318790.0,338.0,31.0,447.0,240.0,2318.79
2318800.0,347.0,31.0,448.0,247.0,2318.8
2318810.0,351.0,31.0,454.0,261.0,2318.81
2318820.0,335.0,31.0,427.0,256.0,2318.82
2318830.0,353.0,29.0,450.0,257.0,2318.83
2318840.0,344.0,32.0,422.0,256.0,2318.84
2318850.0,349.0,30.0,425.0,253.0,2318.85
2318860.0,355.0,31.0,432.0,259.0,2318.86
2318870.0,339.0,31.0,405.0,251.0,2318.87
2318880.0,350.0,31.0,422.0,264.0,2318.88
2318891.0,327.0,30.0,399.0,271.0,2318.891
2318901.0,338.0,31.0,403.0,282.0,2318.901
2318911.0,341.0,31.0,420.0,292.0,2318.911
2318921.0,319.0,30.0,383.0,286.0,2318.921
2318931.0,337.0,31.0,397.0,293.0,2318.931
2318941.0,335.0,31.0,389.0,295.0,2318.941
2318951.0,334.0,31.0,383.0,300.0,2318.951
2318961.0,342.0,31.0,396.0,285.0,2318.961
2318971.0,327.0,30.0,363.0,276.0,2318.971
2318981.0,345.0,30.0,388.0,282.0,2318.981
2318991.0,333.0,31.0,372.0,271.0,2318.991
2319001.0,334.0,31.0,362.0,273.0,2319.001
2319011.0,349.0,31.0,378.0,266.0,2319.011
2319021.0,330.0,31.0,348.0,261.0,2319.021
2319031.0,341.0,31.0,367.0,266.0,2319.031
2319041.0,330.0,31.0,355.0,263.0,2319.041
2319051.0,322.0,30.0,345.0,264.0,2319.051
2319062.0,333.0,32.0,361.0,262.0,2319.062
2319072.0,312.0,31.0,329.0,248.0,2319.072
2319082.0,323.0,31.0,342.0,254.0,2319.082
2319092.0,325.0,31.0,347.0,262.0,2319.092
2319102.0,307.0,31.0,326.0,264.0,2319.102
2319112.0,322.0,30.0,348.0,261.0,2319.112
2319122.0,301.0,31.0,317.0,250.0,2319.122
2319132.0,309.0,31.0,331.0,251.0,2319.132
2319142.0,314.0,31.0,336.0,269.0,2319.142
2319152.0,301.0,30.0,316.0,272.0,2319.152
2319162.0,314.0,32.0,341.0,273.0,2319.162
2319172.0,295.0,30.0,308.0,263.0,2319.172
2319182.0,301.0,31.0,318.0,265.0,2319.182
2319192.0,302.0,31.0,320.0,266.0,2319.192
2319202.0,292.0,31.0,302.0,268.0,2319.202
2319212.0,306.0,32.0,323.0,267.0,2319.212
2319222.0,285.0,32.0,295.0,255.0,2319.222
2319232.0,294.0,31.0,311.0,250.0,2319.232
2319242.0,295.0,31.0,315.0,257.0,2319.242
2319252.0,287.0,31.0,300.0,259.0,2319.252
2319262.0,300.0,31.0,321.0,253.0,2319.262
2319272.0,282.0,31.0,296.0,246.0,2319.272
2319282.0,291.0,31.0,314.0,254.0,2319.282
2319292.0,293.0,31.0,316.0,261.0,2319.292
2319302.0,281.0,31.0,299.0,260.0,2319.302
2319312.0,295.0,31.0,327.0,259.0,2319.312
2319322.0,277.0,31.0,299.0,257.0,2319.322
2319332.0,287.0,31.0,322.0,259.0,2319.332
2319342.0,291.0,31.0,335.0,270.0,2319.342
2319352.0,279.0,30.0,318.0,265.0,2319.352
2319362.0,293.0,32.0,348.0,268.0,2319.362
2319372.0,274.0,32.0,323.0,265.0,2319.372
2319382.0,283.0,32.0,345.0,265.0,2319.382
2319392.0,288.0,31.0,359.0,275.0,2319.392
2319403.0,275.0,32.0,341.0,275.0,2319.403
2319413.0,289.0,32.0,372.0,272.0,2319.413
2319423.0,271.0,32.0,351.0,267.0,2319.423
2319433.0,275.0,32.0,361.0,274.0,2319.433
2319443.0,288.0,32.0,387.0,270.0,2319.443
2319453.0,271.0,31.0,361.0,271.0,2319.453
2319463.0,282.0,32.0,390.0,263.0,2319.463
2319473.0,268.0,32.0,374.0,257.0,2319.473
2319483.0,274.0,32.0,384.0,267.0,2319.483
2319493.0,283.0,32.0,405.0,268.0,2319.493
2319503.0,267.0,32.0,383.0,268.0,2319.503
2319513.0,280.0,32.0,415.0,264.0,2319.513
2319523.0,265.0,31.0,398.0,263.0,2319.523
2319533.0,268.0,33.0,409.0,269.0,2319.533
2319543.0,277.0,32.0,428.0,273.0,2319.543
2319553.0,261.0,33.0,405.0,268.0,2319.553
2319563.0,271.0,32.0,432.0,262.0,2319.563
2319574.0,260.0,33.0,418.0,263.0,2319.574
2319584.0,263.0,32.0,420.0,267.0,2319.584
2319594.0,273.0,33.0,449.0,264.0,2319.594
2319604.0,255.0,32.0,421.0,264.0,2319.604
2319614.0,263.0,34.0,445.0,262.0,2319.614
2319624.0,257.0,33.0,436.0,262.0,2319.624
2319634.0,260.0,32.0,436.0,271.0,2319.634
2319644.0,271.0,33.0,468.0,265.0,2319.644
2319654.0,250.0,33.0,436.0,265.0,2319.654
2319664.0,260.0,33.0,465.0,263.0,2319.664
2319674.0,255.0,33.0,457.0,265.0,2319.674
2319684.0,255.0,32.0,452.0,271.0,2319.684
2319694.0,265.0,33.0,484.0,267.0,2319.694
2319704.0,248.0,33.0,456.0,268.0,2319.704
2319714.0,256.0,32.0,486.0,266.0,2319.714
2319724.0,251.0,33.0,478.0,269.0,2319.724
2319734.0,250.0,33.0,469.0,274.0,2319.734
2319744.0,261.0,34.0,503.0,273.0,2319.744
2319754.0,243.0,32.0,475.0,268.0,2319.754
2319764.0,249.0,33.0,501.0,266.0,2319.764
2319774.0,250.0,33.0,499.0,268.0,2319.774
2319784.0,245.0,33.0,487.0,273.0,2319.784
2319794.0,255.0,33.0,521.0,271.0,2319.794
2319804.0,237.0,34.0,491.0,267.0,2319.804
2319814.0,243.0,34.0,521.0,265.0,2319.814
2319824.0,244.0,33.0,521.0,269.0,2319.824
2319834.0,241.0,34.0,512.0,272.0,2319.834
2319844.0,250.0,33.0,545.0,268.0,2319.844
2319854.0,231.0,33.0,518.0,262.0,2319.854
2319864.0,238.0,34.0,548.0,263.0,2319.864
2319874.0,234.0,34.0,541.0,263.0,2319.874
2319884.0,238.0,33.0,540.0,269.0,2319.884
2319894.0,245.0,34.0,577.0,265.0,2319.894
2319904.0,229.0,34.0,548.0,262.0,2319.904
2319915.0,235.0,34.0,579.0,262.0,2319.915
2319925.0,239.0,33.0,586.0,268.0,2319.925
2319935.0,232.0,35.0,570.0,269.0,2319.935
2319945.0,241.0,34.0,606.0,265.0,2319.945
2319955.0,225.0,34.0,583.0,256.0,2319.955
2319965.0,232.0,34.0,612.0,260.0,2319.965
2319975.0,238.0,35.0,621.0,266.0,2319.975
2319985.0,230.0,33.0,603.0,265.0,2319.985
2319995.0,238.0,34.0,639.0,262.0,2319.995
2320005.0,224.0,34.0,614.0,256.0,2320.005
2320015.0,231.0,35.0,641.0,259.0,2320.015
2320025.0,238.0,34.0,653.0,264.0,2320.025
2320035.0,228.0,35.0,632.0,261.0,2320.035
2320045.0,239.0,35.0,666.0,259.0,2320.045
2320055.0,222.0,34.0,642.0,255.0,2320.055
2320065.0,228.0,35.0,666.0,258.0,2320.065
2320075.0,236.0,34.0,667.0,263.0,2320.075
2320086.0,225.0,35.0,657.0,260.0,2320.086
2320096.0,234.0,34.0,666.0,256.0,2320.096
2320106.0,221.0,34.0,666.0,251.0,2320.106
2320116.0,228.0,34.0,665.0,260.0,2320.116
2320126.0,237.0,35.0,666.0,261.0,2320.126
2320136.0,223.0,34.0,665.0,256.0,2320.136
2320146.0,230.0,34.0,665.0,255.0,2320.146
2320156.0,222.0,34.0,667.0,252.0,2320.156
2320166.0,228.0,34.0,665.0,260.0,2320.166
2320176.0,234.0,34.0,666.0,261.0,2320.176
2320186.0,223.0,34.0,666.0,257.0,2320.186
2320196.0,229.0,34.0,666.0,254.0,2320.196
2320206.0,222.0,33.0,666.0,250.0,2320.206
2320216.0,225.0,33.0,666.0,256.0,2320.216
2320226.0,235.0,33.0,667.0,259.0,2320.226
2320236.0,221.0,33.0,666.0,253.0,2320.236
2320246.0,228.0,33.0,665.0,253.0,2320.246
2320256.0,218.0,34.0,666.0,247.0,2320.256
2320266.0,225.0,32.0,666.0,254.0,2320.266
2320276.0,233.0,33.0,666.0,258.0,2320.276
2320286.0,222.0,33.0,666.0,250.0,2320.286
2320296.0,226.0,33.0,666.0,250.0,2320.296
2320306.0,217.0,33.0,666.0,244.0,2320.306
2320316.0,224.0,33.0,666.0,255.0,2320.316
2320326.0,232.0,33.0,667.0,256.0,2320.326
2320336.0,219.0,32.0,666.0,248.0,2320.336
2320346.0,226.0,32.0,666.0,250.0,2320.346
2320356.0,217.0,33.0,666.0,245.0,2320.356
2320366.0,224.0,33.0,665.0,255.0,2320.366
2320376.0,231.0,33.0,666.0,257.0,2320.376
2320386.0,220.0,33.0,666.0,252.0,2320.386
2320396.0,226.0,32.0,666.0,250.0,2320.396
2320406.0,217.0,33.0,666.0,245.0,2320.406
2320416.0,225.0,33.0,666.0,254.0,2320.416
2320427.0,231.0,34.0,666.0,254.0,2320.427
2320437.0,219.0,32.0,657.0,247.0,2320.437
2320447.0,223.0,35.0,660.0,250.0,2320.447
2320457.0,224.0,33.0,653.0,253.0,2320.457
2320467.0,223.0,33.0,651.0,256.0,2320.467
2320477.0,232.0,34.0,647.0,255.0,2320.477
2320487.0,218.0,33.0,641.0,248.0,2320.487
2320497.0,222.0,34.0,637.0,248.0,2320.497
2320507.0,226.0,33.0,631.0,255.0,2320.507
2320517.0,224.0,34.0,624.0,256.0,2320.517
2320527.0,231.0,33.0,617.0,254.0,2320.527
2320537.0,216.0,33.0,609.0,246.0,2320.537
2320547.0,221.0,33.0,600.0,249.0,2320.547
2320557.0,219.0,34.0,592.0,251.0,2320.557
2320567.0,224.0,33.0,582.0,256.0,2320.567
2320577.0,229.0,34.0,572.0,255.0,2320.577
2320587.0,216.0,32.0,562.0,246.0,2320.587
2320598.0,220.0,33.0,551.0,249.0,2320.598
2320608.0,228.0,33.0,542.0,256.0,2320.608
2320618.0,221.0,33.0,529.0,254.0,2320.618
2320628.0,226.0,32.0,518.0,252.0,2320.628
2320638.0,214.0,33.0,508.0,245.0,2320.638
2320648.0,219.0,32.0,497.0,250.0,2320.648
2320658.0,226.0,32.0,487.0,256.0,2320.658
2320668.0,220.0,32.0,476.0,254.0,2320.668
2320678.0,225.0,31.0,465.0,251.0,2320.678
2320688.0,214.0,32.0,456.0,244.0,2320.688
2320698.0,220.0,32.0,445.0,251.0,2320.698
2320708.0,227.0,32.0,434.0,257.0,2320.708
2320718.0,220.0,32.0,424.0,252.0,2320.718
2320728.0,227.0,31.0,414.0,253.0,2320.728
2320738.0,215.0,31.0,406.0,244.0,2320.738
2320748.0,218.0,31.0,394.0,251.0,2320.748
2320758.0,226.0,31.0,385.0,257.0,2320.758
2320768.0,221.0,32.0,376.0,255.0,2320.768
2320778.0,225.0,31.0,366.0,252.0,2320.778
2320788.0,213.0,31.0,357.0,243.0,2320.788
2320798.0,220.0,30.0,349.0,252.0,2320.798
2320808.0,226.0,31.0,339.0,257.0,2320.808
2320818.0,221.0,31.0,330.0,254.0,2320.818
2320828.0,224.0,32.0,321.0,252.0,2320.828
2320838.0,213.0,31.0,313.0,242.0,2320.838
2320848.0,219.0,31.0,304.0,252.0,2320.848
2320858.0,224.0,31.0,297.0,255.0,2320.858
2320868.0,220.0,31.0,288.0,251.0,2320.868
2320878.0,223.0,31.0,279.0,250.0,2320.878
2320888.0,212.0,31.0,272.0,241.0,2320.888
2320898.0,217.0,32.0,264.0,249.0,2320.898
2320908.0,224.0,31.0,256.0,254.0,2320.908
2320918.0,219.0,31.0,249.0,251.0,2320.918
2320928.0,224.0,31.0,242.0,249.0,2320.928
2320939.0,212.0,31.0,234.0,241.0,2320.939
2320949.0,221.0,31.0,227.0,251.0,2320.949
2320959.0,227.0,32.0,220.0,255.0,2320.959
2320969.0,216.0,31.0,213.0,246.0,2320.969
2320979.0,220.0,31.0,207.0,247.0,2320.979
2320989.0,214.0,31.0,201.0,242.0,2320.989
2320999.0,221.0,32.0,194.0,252.0,2320.999
2321009.0,228.0,32.0,188.0,255.0,2321.009
2321019.0,217.0,31.0,182.0,246.0,2321.019
2321029.0,222.0,32.0,176.0,249.0,2321.029
2321039.0,215.0,32.0,172.0,243.0,2321.039
2321049.0,222.0,31.0,165.0,253.0,2321.049
2321059.0,229.0,31.0,161.0,253.0,2321.059
2321069.0,218.0,31.0,155.0,248.0,2321.069
2321079.0,221.0,32.0,150.0,248.0,2321.079
2321089.0,215.0,33.0,145.0,245.0,2321.089
2321099.0,222.0,32.0,140.0,253.0,2321.099
2321110.0,227.0,32.0,135.0,253.0,2321.11
2321120.0,216.0,32.0,131.0,244.0,2321.12
2321130.0,218.0,31.0,126.0,247.0,2321.13
2321140.0,221.0,32.0,122.0,252.0,2321.14
2321150.0,220.0,32.0,118.0,253.0,2321.15
2321160.0,225.0,32.0,114.0,253.0,2321.16
2321170.0,214.0,32.0,110.0,245.0,2321.17
2321180.0,217.0,32.0,106.0,248.0,2321.18
2321190.0,221.0,31.0,103.0,253.0,2321.19
2321200.0,220.0,32.0,99.0,254.0,2321.2
2321210.0,225.0,32.0,95.0,252.0,2321.21
2321220.0,212.0,32.0,92.0,244.0,2321.22
2321230.0,217.0,32.0,88.0,246.0,2321.23
2321240.0,217.0,32.0,85.0,249.0,2321.24
2321250.0,223.0,32.0,84.0,253.0,2321.25
2321260.0,224.0,32.0,78.0,251.0,2321.26
2321270.0,215.0,32.0,77.0,242.0,2321.27
2321280.0,218.0,32.0,73.0,247.0,2321.28
2321290.0,219.0,32.0,71.0,250.0,2321.29
2321300.0,221.0,32.0,68.0,252.0,2321.3
2321310.0,222.0,32.0,65.0,250.0,2321.31
2321320.0,213.0,31.0,63.0,242.0,2321.32
2321330.0,218.0,32.0,61.0,245.0,2321.33
2321340.0,219.0,32.0,58.0,250.0,2321.34
2321350.0,220.0,33.0,56.0,250.0,2321.35
2321360.0,221.0,32.0,53.0,249.0,2321.36
2321370.0,214.0,32.0,52.0,243.0,2321.37
2321380.0,216.0,31.0,50.0,246.0,2321.38
2321390.0,219.0,32.0,47.0,251.0,2321.39
2321400.0,219.0,32.0,45.0,250.0,2321.4
2321410.0,223.0,33.0,44.0,251.0,2321.41
2321420.0,212.0,32.0,42.0,242.0,2321.42
2321430.0,215.0,32.0,40.0,246.0,2321.43
2321440.0,220.0,32.0,38.0,252.0,2321.44
2321451.0,219.0,31.0,36.0,250.0,2321.451
2321461.0,220.0,32.0,35.0,248.0,2321.461
2321471.0,210.0,32.0,33.0,241.0,2321.471
2321481.0,216.0,31.0,31.0,248.0,2321.481
2321491.0,223.0,31.0,30.0,253.0,2321.491
2321501.0,218.0,32.0,28.0,250.0,2321.501
2321511.0,218.0,32.0,27.0,248.0,2321.511
2321521.0,208.0,31.0,25.0,241.0,2321.521
2321531.0,217.0,31.0,24.0,250.0,2321.531
2321541.0,220.0,31.0,22.0,254.0,2321.541
2321551.0,216.0,30.0,22.0,250.0,2321.551
2321561.0,217.0,32.0,19.0,248.0,2321.561
2321571.0,210.0,31.0,19.0,240.0,2321.571
2321581.0,214.0,31.0,16.0,248.0,2321.581
2321591.0,222.0,31.0,17.0,253.0,2321.591
2321601.0,216.0,31.0,15.0,249.0,2321.601
2321611.0,217.0,30.0,14.0,247.0,2321.611
2321622.0,209.0,32.0,13.0,242.0,2321.622
2321632.0,218.0,31.0,13.0,251.0,2321.632
2321642.0,222.0,31.0,11.0,252.0,2321.642
2321652.0,214.0,31.0,11.0,245.0,2321.652
2321662.0,215.0,32.0,9.0,246.0,2321.662
2321672.0,209.0,31.0,9.0,241.0,2321.672
2321682.0,218.0,30.0,8.0,251.0,2321.682
2321692.0,221.0,31.0,9.0,251.0,2321.692
2321702.0,213.0,30.0,8.0,243.0,2321.702
2321712.0,216.0,31.0,7.0,245.0,2321.712
2321722.0,209.0,31.0,7.0,242.0,2321.722
2321732.0,216.0,32.0,6.0,251.0,2321.732
2321742.0,219.0,30.0,7.0,250.0,2321.742
2321752.0,212.0,32.0,6.0,245.0,2321.752
2321762.0,214.0,31.0,7.0,243.0,2321.762
2321772.0,208.0,31.0,6.0,242.0,2321.772
2321782.0,215.0,31.0,5.0,249.0,2321.782
2321792.0,218.0,31.0,4.0,250.0,2321.792
2321802.0,211.0,31.0,5.0,243.0,2321.802
2321812.0,212.0,31.0,5.0,243.0,2321.812
2321822.0,210.0,31.0,5.0,242.0,2321.822
2321832.0,216.0,31.0,5.0,248.0,2321.832
2321842.0,218.0,32.0,5.0,249.0,2321.842
2321852.0,212.0,31.0,5.0,242.0,2321.852
2321862.0,213.0,31.0,5.0,242.0,2321.862
2321872.0,212.0,30.0,6.0,244.0,2321.872
2321882.0,215.0,31.0,5.0,247.0,2321.882
2321892.0,221.0,30.0,10.0,248.0,2321.892
2321902.0,210.0,31.0,16.0,241.0,2321.902
2321912.0,214.0,31.0,16.0,242.0,2321.912
2321922.0,208.0,31.0,22.0,239.0,2321.922
2321932.0,216.0,31.0,25.0,247.0,2321.932
2321942.0,218.0,32.0,30.0,248.0,2321.942
2321952.0,210.0,30.0,41.0,240.0,2321.952
2321963.0,211.0,31.0,36.0,242.0,2321.963
2321973.0,212.0,32.0,48.0,246.0,2321.973
2321983.0,214.0,33.0,58.0,249.0,2321.983
2321993.0,215.0,32.0,55.0,246.0,2321.993
2322003.0,206.0,33.0,70.0,239.0,2322.003
2322013.0,210.0,32.0,62.0,243.0,2322.013
2322023.0,213.0,33.0,76.0,247.0,2322.023
2322033.0,213.0,32.0,87.0,248.0,2322.033
2322043.0,214.0,33.0,80.0,246.0,2322.043
2322053.0,206.0,32.0,98.0,240.0,2322.053
2322063.0,214.0,34.0,88.0,242.0,2322.063
2322073.0,217.0,34.0,103.0,248.0,2322.073
2322083.0,218.0,33.0,116.0,247.0,2322.083
2322093.0,219.0,34.0,108.0,247.0,2322.093
2322103.0,211.0,32.0,126.0,239.0,2322.103
2322113.0,213.0,33.0,115.0,243.0,2322.113
2322123.0,218.0,32.0,129.0,250.0,2322.123
2322134.0,216.0,32.0,141.0,247.0,2322.134
2322144.0,216.0,32.0,132.0,245.0,2322.144
2322154.0,208.0,31.0,148.0,237.0,2322.154
2322164.0,215.0,33.0,147.0,246.0,2322.164
2322174.0,220.0,33.0,150.0,251.0,2322.174
2322184.0,216.0,32.0,166.0,246.0,2322.184
2322194.0,215.0,32.0,152.0,244.0,2322.194
2322204.0,207.0,32.0,171.0,238.0,2322.204
2322214.0,215.0,32.0,173.0,247.0,2322.214
2322224.0,219.0,33.0,173.0,249.0,2322.224
2322234.0,216.0,32.0,188.0,245.0,2322.234
2322244.0,215.0,33.0,174.0,244.0,2322.244
2322254.0,208.0,31.0,192.0,238.0,2322.254
2322264.0,213.0,32.0,188.0,244.0,2322.264
2322274.0,219.0,33.0,194.0,250.0,2322.274
2322284.0,214.0,31.0,207.0,244.0,2322.284
2322294.0,215.0,32.0,194.0,243.0,2322.294
2322304.0,208.0,32.0,211.0,238.0,2322.304
2322314.0,213.0,32.0,209.0,244.0,2322.314
2322324.0,219.0,32.0,212.0,249.0,2322.324
2322334.0,214.0,33.0,228.0,243.0,2322.334
2322344.0,214.0,33.0,215.0,242.0,2322.344
2322354.0,206.0,32.0,231.0,234.0,2322.354
2322364.0,213.0,32.0,231.0,244.0,2322.364
2322374.0,219.0,33.0,232.0,249.0,2322.374
2322384.0,213.0,32.0,249.0,242.0,2322.384
2322394.0,215.0,33.0,236.0,243.0,2322.394
2322404.0,209.0,32.0,251.0,235.0,2322.404
2322414.0,214.0,32.0,252.0,245.0,2322.414
2322424.0,220.0,32.0,251.0,248.0,2322.424
2322434.0,214.0,33.0,266.0,245.0,2322.434
2322444.0,215.0,32.0,252.0,243.0,2322.444
2322454.0,207.0,32.0,266.0,236.0,2322.454
2322464.0,214.0,32.0,271.0,246.0,2322.464
2322475.0,220.0,32.0,264.0,248.0,2322.475
2322485.0,210.0,32.0,279.0,241.0,2322.485
2322495.0,213.0,33.0,266.0,242.0,2322.495
2322505.0,211.0,32.0,275.0,243.0,2322.505
2322515.0,215.0,32.0,285.0,247.0,2322.515
2322525.0,218.0,33.0,273.0,248.0,2322.525
2322535.0,211.0,31.0,285.0,240.0,2322.535
2322545.0,212.0,33.0,272.0,241.0,2322.545
2322555.0,212.0,32.0,281.0,244.0,2322.555
2322565.0,214.0,33.0,288.0,247.0,2322.565
2322575.0,218.0,32.0,278.0,246.0,2322.575
2322585.0,209.0,31.0,293.0,240.0,2322.585
2322595.0,212.0,32.0,281.0,241.0,2322.595
2322605.0,208.0,32.0,289.0,239.0,2322.605
2322615.0,215.0,32.0,295.0,248.0,2322.615
2322625.0,219.0,34.0,282.0,248.0,2322.625
2322635.0,209.0,32.0,298.0,238.0,2322.635
2322646.0,212.0,32.0,284.0,239.0,2322.646
2322656.0,215.0,32.0,294.0,245.0,2322.656
2322666.0,215.0,31.0,302.0,246.0,2322.666
2322676.0,215.0,33.0,284.0,243.0,2322.676
2322686.0,207.0,33.0,297.0,236.0,2322.686
2322696.0,211.0,33.0,287.0,240.0,2322.696
2322706.0,215.0,32.0,294.0,246.0,2322.706
2322716.0,215.0,32.0,302.0,245.0,2322.716
2322726.0,216.0,33.0,286.0,243.0,2322.726
2322736.0,208.0,32.0,302.0,238.0,2322.736
2322746.0,211.0,33.0,291.0,241.0,2322.746
2322756.0,215.0,33.0,297.0,249.0,2322.756
2322766.0,215.0,32.0,306.0,245.0,2322.766
2322776.0,216.0,33.0,289.0,245.0,2322.776
2322786.0,207.0,32.0,303.0,237.0,2322.786
2322796.0,210.0,33.0,292.0,241.0,2322.796
2322806.0,216.0,32.0,300.0,247.0,2322.806
2322816.0,215.0,33.0,307.0,248.0,2322.816
2322826.0,216.0,33.0,290.0,244.0,2322.826
2322836.0,208.0,32.0,305.0,236.0,2322.836
2322846.0,211.0,32.0,296.0,240.0,2322.846
2322856.0,218.0,32.0,300.0,247.0,2322.856
2322866.0,215.0,32.0,309.0,245.0,2322.866
2322876.0,215.0,32.0,293.0,244.0,2322.876
2322886.0,207.0,33.0,306.0,236.0,2322.886
2322896.0,211.0,32.0,299.0,242.0,2322.896
2322906.0,215.0,33.0,303.0,245.0,2322.906
2322916.0,218.0,32.0,313.0,246.0,2322.916
2322926.0,218.0,32.0,296.0,245.0,2322.926
2322936.0,209.0,32.0,310.0,236.0,2322.936
2322946.0,213.0,33.0,298.0,242.0,2322.946
2322956.0,217.0,32.0,306.0,246.0,2322.956
2322966.0,216.0,32.0,313.0,246.0,2322.966
2322976.0,216.0,33.0,297.0,244.0,2322.976
2322987.0,207.0,33.0,310.0,235.0,2322.987
2322997.0,212.0,33.0,307.0,244.0,2322.997
2323007.0,220.0,33.0,304.0,249.0,2323.007
2323017.0,213.0,33.0,314.0,242.0,2323.017
2323027.0,214.0,32.0,299.0,241.0,2323.027
2323037.0,207.0,32.0,310.0,234.0,2323.037
2323047.0,214.0,32.0,308.0,244.0,2323.047
2323057.0,218.0,33.0,303.0,248.0,2323.057
2323067.0,211.0,32.0,314.0,241.0,2323.067
2323077.0,214.0,34.0,298.0,243.0,2323.077
2323087.0,206.0,32.0,309.0,235.0,2323.087
2323097.0,214.0,33.0,310.0,245.0,2323.097
2323107.0,219.0,33.0,303.0,247.0,2323.107
2323117.0,213.0,32.0,313.0,244.0,2323.117
2323127.0,214.0,33.0,296.0,242.0,2323.127
2323137.0,206.0,33.0,306.0,237.0,2323.137
2323147.0,214.0,32.0,309.0,246.0,2323.147
2323158.0,218.0,33.0,299.0,247.0,2323.158
2323168.0,210.0,32.0,311.0,239.0,2323.168
2323178.0,212.0,32.0,296.0,240.0,2323.178
2323188.0,212.0,32.0,304.0,243.0,2323.188
2323198.0,214.0,33.0,310.0,247.0,2323.198
2323208.0,218.0,33.0,295.0,248.0,2323.208
2323218.0,209.0,32.0,308.0,241.0,2323.218
2323228.0,211.0,32.0,294.0,242.0,2323.228
2323238.0,213.0,32.0,304.0,246.0,2323.238
2323248.0,214.0,33.0,306.0,249.0,2323.248
2323258.0,215.0,33.0,293.0,248.0,2323.258
2323268.0,205.0,33.0,305.0,240.0,2323.268
2323278.0,207.0,32.0,292.0,240.0,2323.278
2323288.0,205.0,32.0,300.0,240.0,2323.288
2323298.0,212.0,33.0,305.0,247.0,2323.298
2323308.0,215.0,33.0,290.0,246.0,2323.308
2323318.0,205.0,32.0,302.0,238.0,2323.318
2323328.0,210.0,33.0,289.0,242.0,2323.328
2323338.0,207.0,33.0,298.0,241.0,2323.338
2323348.0,212.0,32.0,304.0,247.0,2323.348
2323358.0,215.0,33.0,289.0,245.0,2323.358
2323368.0,207.0,31.0,302.0,237.0,2323.368
2323378.0,210.0,33.0,289.0,241.0,2323.378
2323388.0,209.0,32.0,298.0,241.0,2323.388
2323398.0,213.0,33.0,303.0,247.0,2323.398
2323408.0,216.0,32.0,287.0,244.0,2323.408
2323418.0,208.0,32.0,301.0,240.0,2323.418
2323428.0,211.0,32.0,290.0,240.0,2323.428
2323438.0,210.0,32.0,296.0,243.0,2323.438
2323448.0,211.0,33.0,301.0,244.0,2323.448
2323458.0,215.0,33.0,287.0,247.0,2323.458
2323468.0,206.0,32.0,299.0,237.0,2323.468
2323478.0,209.0,32.0,287.0,239.0,2323.478
2323488.0,211.0,32.0,296.0,242.0,2323.488
2323499.0,212.0,33.0,302.0,245.0,2323.499
2323509.0,212.0,33.0,285.0,243.0,2323.509
2323519.0,205.0,32.0,297.0,235.0,2323.519
2323529.0,209.0,33.0,291.0,240.0,2323.529
2323539.0,215.0,32.0,293.0,246.0,2323.539
2323549.0,212.0,32.0,301.0,245.0,2323.549
2323559.0,214.0,33.0,286.0,243.0,2323.559
2323569.0,204.0,32.0,296.0,235.0,2323.569
2323579.0,209.0,33.0,291.0,242.0,2323.579
2323589.0,213.0,34.0,293.0,246.0,2323.589
2323599.0,213.0,32.0,300.0,245.0,2323.599
2323609.0,214.0,33.0,284.0,243.0,2323.609
2323619.0,205.0,32.0,294.0,235.0,2323.619
2323629.0,209.0,33.0,285.0,241.0,2323.629
2323639.0,213.0,33.0,292.0,247.0,2323.639
2323649.0,212.0,32.0,299.0,246.0,2323.649
2323659.0,213.0,32.0,283.0,244.0,2323.659
2323670.0,204.0,32.0,290.0,236.0,2323.67
2323680.0,211.0,32.0,289.0,245.0,2323.68
2323690.0,217.0,31.0,285.0,249.0,2323.69
2323700.0,209.0,32.0,292.0,241.0,2323.7
2323710.0,211.0,33.0,278.0,241.0,2323.71
2323720.0,203.0,33.0,284.0,236.0,2323.72
2323730.0,211.0,32.0,287.0,244.0,2323.73
2323740.0,217.0,32.0,281.0,246.0,2323.74
2323750.0,210.0,32.0,289.0,240.0,2323.75
2323760.0,212.0,33.0,276.0,241.0,2323.76
2323770.0,206.0,32.0,282.0,236.0,2323.77
2323780.0,215.0,33.0,286.0,246.0,2323.78
2323790.0,219.0,32.0,278.0,247.0,2323.79
2323800.0,213.0,32.0,287.0,243.0,2323.8
2323810.0,214.0,32.0,274.0,242.0,2323.81
2323820.0,207.0,31.0,280.0,238.0,2323.82
2323830.0,215.0,32.0,286.0,248.0,2323.83
2323840.0,218.0,33.0,280.0,249.0,2323.84
2323850.0,211.0,32.0,286.0,243.0,2323.85
2323860.0,212.0,32.0,273.0,244.0,2323.86
2323870.0,206.0,32.0,279.0,240.0,2323.87
2323880.0,215.0,31.0,284.0,249.0,2323.88
2323890.0,216.0,33.0,277.0,250.0,2323.89
2323900.0,210.0,32.0,283.0,243.0,2323.9
2323910.0,211.0,32.0,270.0,243.0,2323.91
2323920.0,208.0,31.0,276.0,240.0,2323.92
2323930.0,211.0,32.0,277.0,245.0,2323.93
2323940.0,221.0,32.0,275.0,249.0,2323.94
2323950.0,212.0,31.0,280.0,242.0,2323.95
2323960.0,214.0,33.0,267.0,242.0,2323.96
2323970.0,206.0,32.0,273.0,237.0,2323.97
2323980.0,215.0,32.0,275.0,246.0,2323.98
2323990.0,219.0,32.0,271.0,248.0,2323.99
2324000.0,212.0,31.0,278.0,241.0,2324.0
2324011.0,214.0,31.0,266.0,242.0,2324.011
2324021.0,211.0,32.0,273.0,242.0,2324.021
2324031.0,215.0,32.0,279.0,247.0,2324.031
2324041.0,217.0,33.0,265.0,245.0,2324.041
2324051.0,208.0,30.0,275.0,237.0,2324.051
2324061.0,211.0,32.0,265.0,241.0,2324.061
2324071.0,213.0,31.0,274.0,243.0,2324.071
2324081.0,215.0,32.0,279.0,246.0,2324.081
2324091.0,215.0,32.0,266.0,243.0,2324.091
2324101.0,210.0,32.0,276.0,240.0,2324.101
2324111.0,211.0,32.0,265.0,240.0,2324.111
2324121.0,213.0,32.0,272.0,244.0,2324.121
2324131.0,216.0,32.0,279.0,246.0,2324.131
2324141.0,219.0,31.0,266.0,247.0,2324.141
2324151.0,210.0,32.0,274.0,237.0,2324.151
2324161.0,211.0,32.0,265.0,240.0,2324.161
2324171.0,214.0,32.0,273.0,244.0,2324.171
2324182.0,215.0,31.0,279.0,245.0,2324.182
2324192.0,215.0,32.0,265.0,243.0,2324.192
2324202.0,208.0,31.0,274.0,235.0,2324.202
2324212.0,211.0,32.0,270.0,242.0,2324.212
2324222.0,217.0,32.0,273.0,248.0,2324.222
2324232.0,215.0,33.0,281.0,246.0,2324.232
2324242.0,215.0,32.0,267.0,243.0,2324.242
2324252.0,208.0,31.0,275.0,236.0,2324.252
2324262.0,214.0,32.0,274.0,244.0,2324.262
2324272.0,216.0,32.0,276.0,248.0,2324.272
2324282.0,215.0,31.0,281.0,245.0,2324.282
2324292.0,214.0,33.0,267.0,244.0,2324.292
2324302.0,207.0,32.0,274.0,235.0,2324.302
2324312.0,212.0,32.0,268.0,241.0,2324.312
2324322.0,218.0,33.0,275.0,248.0,2324.322
2324332.0,215.0,31.0,280.0,245.0,2324.332
2324342.0,214.0,33.0,265.0,242.0,2324.342
2324352.0,208.0,32.0,274.0,238.0,2324.352
2324362.0,211.0,32.0,268.0,243.0,2324.362
2324372.0,218.0,32.0,274.0,248.0,2324.372
2324382.0,214.0,32.0,278.0,245.0,2324.382
2324392.0,215.0,32.0,264.0,243.0,2324.392
2324402.0,208.0,32.0,272.0,238.0,2324.402
2324412.0,212.0,32.0,268.0,245.0,2324.412
2324422.0,218.0,33.0,271.0,250.0,2324.422
2324432.0,213.0,32.0,276.0,245.0,2324.432
2324442.0,215.0,32.0,261.0,244.0,2324.442
2324452.0,207.0,32.0,270.0,237.0,2324.452
2324462.0,212.0,33.0,267.0,245.0,2324.462
2324472.0,218.0,34.0,267.0,249.0,2324.472
2324482.0,215.0,33.0,274.0,247.0,2324.482
2324492.0,215.0,33.0,259.0,242.0,2324.492
2324502.0,207.0,32.0,266.0,235.0,2324.502
2324512.0,213.0,33.0,268.0,245.0,2324.512
2324523.0,220.0,33.0,266.0,248.0,2324.523
2324533.0,212.0,32.0,270.0,242.0,2324.533
2324543.0,214.0,33.0,259.0,241.0,2324.543
2324553.0,209.0,34.0,264.0,240.0,2324.553
2324563.0,216.0,32.0,271.0,248.0,2324.563
2324573.0,219.0,33.0,264.0,249.0,2324.573
2324583.0,214.0,32.0,270.0,243.0,2324.583
2324593.0,213.0,33.0,257.0,242.0,2324.593
2324603.0,210.0,32.0,263.0,241.0,2324.603
2324613.0,214.0,34.0,265.0,246.0,2324.613
2324623.0,219.0,33.0,262.0,248.0,2324.623
2324633.0,211.0,32.0,266.0,243.0,2324.633
2324643.0,213.0,32.0,257.0,243.0,2324.643
2324653.0,207.0,33.0,259.0,239.0,2324.653
2324663.0,214.0,33.0,263.0,248.0,2324.663
2324673.0,218.0,33.0,258.0,250.0,2324.673
2324683.0,210.0,32.0,262.0,242.0,2324.683
2324694.0,211.0,32.0,253.0,242.0,2324.694
2324704.0,211.0,33.0,257.0,244.0,2324.704
2324714.0,216.0,32.0,263.0,248.0,2324.714
2324724.0,216.0,34.0,250.0,245.0,2324.724
2324734.0,207.0,32.0,256.0,239.0,2324.734
2324744.0,211.0,33.0,248.0,242.0,2324.744
2324754.0,213.0,32.0,254.0,244.0,2324.754
2324764.0,215.0,32.0,258.0,247.0,2324.764
2324774.0,216.0,33.0,247.0,244.0,2324.774
2324784.0,208.0,33.0,251.0,239.0,2324.784
2324794.0,210.0,33.0,243.0,240.0,2324.794
2324804.0,212.0,34.0,249.0,246.0,2324.804
2324814.0,213.0,33.0,254.0,246.0,2324.814
2324824.0,216.0,34.0,244.0,247.0,2324.824
2324834.0,207.0,32.0,249.0,239.0,2324.834
2324844.0,209.0,33.0,241.0,241.0,2324.844
2324854.0,212.0,34.0,247.0,247.0,2324.854
2324864.0,213.0,33.0,250.0,249.0,2324.864
2324874.0,215.0,35.0,241.0,247.0,2324.874
2324884.0,219.0,34.0,243.0,238.0,2324.884
2324894.0,233.0,35.0,237.0,242.0,2324.894
2324904.0,240.0,35.0,245.0,248.0,2324.904
2324914.0,234.0,34.0,246.0,249.0,2324.914
2324924.0,240.0,33.0,237.0,246.0,2324.924
2324934.0,223.0,35.0,239.0,240.0,2324.934
2324944.0,226.0,34.0,235.0,242.0,2324.944
2324954.0,226.0,33.0,239.0,245.0,2324.954
2324964.0,228.0,34.0,244.0,248.0,2324.964
2324974.0,230.0,34.0,234.0,245.0,2324.974
2324984.0,217.0,34.0,237.0,239.0,2324.984
2324994.0,222.0,33.0,233.0,241.0,2324.994
2325004.0,221.0,33.0,239.0,244.0,2325.004
2325014.0,222.0,33.0,244.0,246.0,2325.014
2325024.0,221.0,33.0,234.0,244.0,2325.024
2325035.0,213.0,31.0,238.0,236.0,2325.035
2325045.0,215.0,32.0,236.0,242.0,2325.045
2325055.0,221.0,33.0,242.0,249.0,2325.055
2325065.0,217.0,33.0,243.0,245.0,2325.065
2325075.0,217.0,32.0,235.0,242.0,2325.075
2325085.0,209.0,32.0,236.0,236.0,2325.085
2325095.0,216.0,33.0,238.0,243.0,2325.095
2325105.0,220.0,34.0,242.0,248.0,2325.105
2325115.0,284.0,35.0,245.0,244.0,2325.115
2325125.0,464.0,36.0,235.0,245.0,2325.125
2325135.0,527.0,35.0,237.0,236.0,2325.135
