time (ms),signal 0,signal 1,signal 2,signal 3,time (sec)
2269766.0,214.0,33.0,224.0,241.0,2269.766
2269776.0,207.0,32.0,223.0,232.0,2269.776
2269786.0,212.0,31.0,223.0,238.0,2269.786
2269796.0,216.0,32.0,230.0,245.0,2269.796
2269806.0,215.0,32.0,231.0,243.0,2269.806
2269816.0,214.0,32.0,223.0,240.0,2269.816
2269826.0,208.0,30.0,226.0,234.0,2269.826
2269836.0,211.0,32.0,224.0,239.0,2269.836
2269846.0,217.0,32.0,233.0,246.0,2269.846
2269856.0,214.0,32.0,234.0,242.0,2269.856
2269867.0,214.0,32.0,226.0,240.0,2269.867
2269877.0,206.0,33.0,227.0,235.0,2269.877
2269887.0,214.0,32.0,235.0,244.0,2269.887
2269897.0,218.0,32.0,233.0,246.0,2269.897
2269907.0,212.0,32.0,236.0,240.0,2269.907
2269917.0,214.0,31.0,229.0,241.0,2269.917
2269927.0,207.0,32.0,230.0,236.0,2269.927
2269937.0,216.0,31.0,237.0,247.0,2269.937
2269947.0,219.0,32.0,234.0,247.0,2269.947
2269957.0,215.0,31.0,238.0,243.0,2269.957
2269967.0,215.0,32.0,229.0,243.0,2269.967
2269977.0,210.0,31.0,233.0,239.0,2269.977
2269987.0,216.0,32.0,240.0,249.0,2269.987
2269997.0,220.0,32.0,238.0,251.0,2269.997
2270007.0,215.0,32.0,239.0,245.0,2270.007
2270017.0,216.0,32.0,231.0,244.0,2270.017
2270027.0,211.0,32.0,233.0,242.0,2270.027
2270038.0,220.0,31.0,242.0,250.0,2270.038
2270048.0,221.0,32.0,234.0,249.0,2270.048
2270058.0,213.0,31.0,236.0,241.0,2270.058
2270068.0,215.0,33.0,230.0,243.0,2270.068
2270078.0,224.0,32.0,239.0,248.0,2270.078
2270088.0,225.0,32.0,241.0,250.0,2270.088
2270098.0,226.0,32.0,235.0,248.0,2270.098
2270108.0,216.0,31.0,236.0,240.0,2270.108
2270118.0,218.0,32.0,231.0,242.0,2270.118
2270128.0,217.0,31.0,236.0,245.0,2270.128
2270138.0,222.0,32.0,242.0,250.0,2270.138
2270148.0,222.0,32.0,235.0,249.0,2270.148
2270158.0,213.0,32.0,235.0,241.0,2270.158
2270168.0,219.0,31.0,232.0,245.0,2270.168
2270178.0,218.0,32.0,234.0,246.0,2270.178
2270188.0,222.0,31.0,241.0,249.0,2270.188
2270198.0,223.0,32.0,232.0,248.0,2270.198
2270208.0,217.0,32.0,236.0,244.0,2270.208
2270218.0,218.0,32.0,230.0,244.0,2270.218
2270228.0,219.0,31.0,237.0,248.0,2270.228
2270238.0,223.0,31.0,241.0,252.0,2270.238
2270248.0,222.0,32.0,232.0,248.0,2270.248
2270258.0,217.0,31.0,235.0,244.0,2270.258
2270268.0,218.0,32.0,231.0,245.0,2270.268
2270278.0,220.0,32.0,237.0,248.0,2270.278
2270288.0,222.0,32.0,241.0,249.0,2270.288
2270298.0,224.0,32.0,234.0,251.0,2270.298
2270308.0,216.0,31.0,234.0,242.0,2270.308
2270318.0,217.0,32.0,229.0,244.0,2270.318
2270328.0,221.0,31.0,235.0,249.0,2270.328
2270338.0,222.0,32.0,239.0,250.0,2270.338
2270348.0,221.0,32.0,231.0,250.0,2270.348
2270358.0,215.0,31.0,234.0,241.0,2270.358
2270368.0,215.0,31.0,230.0,244.0,2270.368
2270379.0,219.0,32.0,238.0,250.0,2270.379
2270389.0,219.0,32.0,240.0,249.0,2270.389
2270399.0,219.0,32.0,231.0,246.0,2270.399
2270409.0,211.0,31.0,230.0,238.0,2270.409
2270419.0,217.0,32.0,235.0,248.0,2270.419
2270429.0,220.0,31.0,239.0,251.0,2270.429
2270439.0,219.0,32.0,241.0,248.0,2270.439
2270449.0,219.0,32.0,232.0,247.0,2270.449
2270459.0,211.0,32.0,232.0,238.0,2270.459
2270469.0,217.0,32.0,232.0,243.0,2270.469
2270479.0,223.0,32.0,239.0,250.0,2270.479
2270489.0,222.0,31.0,241.0,247.0,2270.489
2270499.0,220.0,32.0,231.0,245.0,2270.499
2270509.0,217.0,32.0,235.0,240.0,2270.509
2270519.0,219.0,34.0,233.0,247.0,2270.519
2270529.0,226.0,32.0,240.0,253.0,2270.529
2270539.0,224.0,32.0,241.0,249.0,2270.539
2270550.0,224.0,33.0,233.0,247.0,2270.55
2270560.0,216.0,31.0,231.0,240.0,2270.56
2270570.0,224.0,32.0,241.0,250.0,2270.57
2270580.0,227.0,33.0,237.0,253.0,2270.58
2270590.0,221.0,32.0,239.0,244.0,2270.59
2270600.0,223.0,32.0,231.0,247.0,2270.6
2270610.0,217.0,32.0,233.0,243.0,2270.61
2270620.0,224.0,32.0,242.0,253.0,2270.62
2270630.0,227.0,33.0,237.0,254.0,2270.63
2270640.0,224.0,31.0,240.0,248.0,2270.64
2270650.0,223.0,33.0,232.0,248.0,2270.65
2270660.0,217.0,32.0,234.0,244.0,2270.66
2270670.0,225.0,33.0,241.0,252.0,2270.67
2270680.0,228.0,33.0,239.0,253.0,2270.68
2270690.0,222.0,32.0,239.0,245.0,2270.69
2270700.0,220.0,32.0,231.0,243.0,2270.7
2270710.0,218.0,33.0,237.0,246.0,2270.71
2270720.0,226.0,32.0,243.0,252.0,2270.72
2270730.0,226.0,33.0,250.0,262.0,2270.73
2270740.0,223.0,32.0,247.0,251.0,2270.74
2270750.0,226.0,33.0,240.0,254.0,2270.75
2270760.0,222.0,33.0,243.0,250.0,2270.76
2270770.0,226.0,33.0,246.0,252.0,2270.77
2270780.0,227.0,34.0,241.0,252.0,2270.78
2270790.0,222.0,32.0,243.0,242.0,2270.79
2270800.0,221.0,33.0,235.0,241.0,2270.8
2270810.0,218.0,32.0,238.0,243.0,2270.81
2270820.0,226.0,33.0,245.0,254.0,2270.82
2270830.0,236.0,33.0,243.0,257.0,2270.83
2270840.0,231.0,33.0,244.0,249.0,2270.84
2270850.0,236.0,32.0,242.0,254.0,2270.85
2270860.0,231.0,33.0,240.0,247.0,2270.86
2270870.0,241.0,33.0,255.0,261.0,2270.87
2270880.0,244.0,33.0,256.0,270.0,2270.88
2270891.0,237.0,32.0,248.0,259.0,2270.891
2270901.0,242.0,33.0,239.0,257.0,2270.901
2270911.0,239.0,32.0,238.0,255.0,2270.911
2270921.0,246.0,33.0,245.0,259.0,2270.921
2270931.0,246.0,34.0,236.0,255.0,2270.931
2270941.0,241.0,32.0,230.0,247.0,2270.941
2270951.0,240.0,33.0,226.0,250.0,2270.951
2270961.0,245.0,33.0,228.0,254.0,2270.961
2270971.0,244.0,34.0,229.0,260.0,2270.971
2270981.0,253.0,33.0,240.0,267.0,2270.981
2270991.0,245.0,33.0,224.0,254.0,2270.991
2271001.0,249.0,33.0,218.0,248.0,2271.001
2271011.0,246.0,34.0,219.0,250.0,2271.011
2271021.0,246.0,32.0,213.0,249.0,2271.021
2271031.0,246.0,35.0,223.0,254.0,2271.031
2271041.0,243.0,32.0,205.0,244.0,2271.041
2271051.0,244.0,33.0,211.0,246.0,2271.051
2271062.0,244.0,33.0,217.0,253.0,2271.062
2271072.0,248.0,33.0,216.0,255.0,2271.072
2271082.0,250.0,33.0,229.0,261.0,2271.082
2271092.0,243.0,33.0,211.0,250.0,2271.092
2271102.0,247.0,33.0,226.0,261.0,2271.102
2271112.0,265.0,33.0,233.0,267.0,2271.112
2271122.0,259.0,33.0,217.0,252.0,2271.122
2271132.0,257.0,33.0,221.0,254.0,2271.132
2271142.0,248.0,33.0,204.0,244.0,2271.142
2271152.0,255.0,33.0,206.0,247.0,2271.152
2271162.0,263.0,34.0,213.0,254.0,2271.162
2271172.0,268.0,32.0,199.0,242.0,2271.172
2271182.0,265.0,34.0,213.0,254.0,2271.182
2271192.0,263.0,33.0,207.0,256.0,2271.192
2271202.0,255.0,33.0,213.0,258.0,2271.202
2271212.0,257.0,33.0,218.0,263.0,2271.212
2271222.0,254.0,34.0,201.0,252.0,2271.222
2271232.0,265.0,33.0,213.0,261.0,2271.232
2271242.0,252.0,33.0,195.0,246.0,2271.242
2271252.0,251.0,33.0,200.0,244.0,2271.252
2271262.0,250.0,33.0,205.0,241.0,2271.262
2271272.0,248.0,33.0,187.0,225.0,2271.272
2271282.0,249.0,33.0,202.0,237.0,2271.282
2271292.0,243.0,33.0,184.0,222.0,2271.292
2271302.0,250.0,33.0,196.0,233.0,2271.302
2271312.0,256.0,33.0,209.0,246.0,2271.312
2271322.0,247.0,32.0,198.0,238.0,2271.322
2271332.0,254.0,33.0,204.0,247.0,2271.332
2271342.0,248.0,32.0,194.0,241.0,2271.342
2271352.0,242.0,34.0,198.0,245.0,2271.352
2271362.0,252.0,33.0,202.0,246.0,2271.362
2271372.0,257.0,32.0,199.0,245.0,2271.372
2271382.0,260.0,33.0,213.0,258.0,2271.382
2271392.0,256.0,33.0,208.0,253.0,2271.392
2271403.0,265.0,33.0,223.0,266.0,2271.403
2271413.0,271.0,34.0,231.0,274.0,2271.413
2271423.0,259.0,32.0,213.0,256.0,2271.423
2271433.0,257.0,33.0,205.0,251.0,2271.433
2271443.0,252.0,34.0,205.0,252.0,2271.443
2271453.0,253.0,32.0,203.0,247.0,2271.453
2271463.0,250.0,33.0,208.0,248.0,2271.463
2271473.0,245.0,33.0,195.0,237.0,2271.473
2271483.0,249.0,34.0,200.0,241.0,2271.483
2271493.0,244.0,32.0,197.0,244.0,2271.493
2271503.0,245.0,33.0,209.0,253.0,2271.503
2271513.0,245.0,33.0,211.0,252.0,2271.513
2271523.0,240.0,33.0,196.0,245.0,2271.523
2271533.0,231.0,33.0,203.0,250.0,2271.533
2271543.0,241.0,34.0,199.0,249.0,2271.543
2271553.0,252.0,32.0,204.0,246.0,2271.553
2271563.0,247.0,33.0,201.0,243.0,2271.563
2271574.0,237.0,33.0,187.0,233.0,2271.574
2271584.0,237.0,34.0,188.0,235.0,2271.584
2271594.0,246.0,33.0,193.0,242.0,2271.594
2271604.0,251.0,35.0,196.0,246.0,2271.604
2271614.0,248.0,34.0,202.0,245.0,2271.614
2271624.0,242.0,34.0,194.0,242.0,2271.624
2271634.0,244.0,33.0,201.0,248.0,2271.634
2271644.0,245.0,33.0,206.0,249.0,2271.644
2271654.0,237.0,33.0,200.0,247.0,2271.654
2271664.0,241.0,33.0,208.0,252.0,2271.664
2271674.0,241.0,33.0,196.0,243.0,2271.674
2271684.0,240.0,32.0,205.0,246.0,2271.684
2271694.0,245.0,33.0,216.0,255.0,2271.694
2271704.0,242.0,33.0,214.0,254.0,2271.704
2271714.0,241.0,33.0,210.0,246.0,2271.714
2271724.0,235.0,32.0,198.0,237.0,2271.724
2271734.0,238.0,33.0,203.0,243.0,2271.734
2271744.0,234.0,32.0,205.0,244.0,2271.744
2271754.0,236.0,32.0,209.0,247.0,2271.754
2271764.0,237.0,33.0,211.0,250.0,2271.764
2271774.0,232.0,31.0,204.0,245.0,2271.774
2271784.0,230.0,32.0,207.0,247.0,2271.784
2271794.0,235.0,33.0,211.0,251.0,2271.794
2271804.0,236.0,33.0,210.0,252.0,2271.804
2271814.0,234.0,32.0,212.0,252.0,2271.814
2271824.0,229.0,32.0,201.0,245.0,2271.824
2271834.0,233.0,32.0,207.0,253.0,2271.834
2271844.0,229.0,32.0,214.0,259.0,2271.844
2271854.0,235.0,32.0,219.0,261.0,2271.854
2271864.0,232.0,33.0,217.0,262.0,2271.864
2271874.0,224.0,32.0,212.0,255.0,2271.874
2271884.0,227.0,32.0,217.0,259.0,2271.884
2271894.0,233.0,32.0,225.0,267.0,2271.894
2271904.0,233.0,32.0,224.0,266.0,2271.904
2271915.0,240.0,32.0,224.0,265.0,2271.915
2271925.0,230.0,33.0,213.0,256.0,2271.925
2271935.0,241.0,32.0,223.0,265.0,2271.935
2271945.0,247.0,32.0,228.0,269.0,2271.945
2271955.0,240.0,32.0,216.0,260.0,2271.955
2271965.0,238.0,32.0,215.0,256.0,2271.965
2271975.0,230.0,32.0,203.0,248.0,2271.975
2271985.0,235.0,32.0,213.0,261.0,2271.985
2271995.0,239.0,33.0,217.0,262.0,2271.995
2272005.0,239.0,32.0,208.0,257.0,2272.005
2272015.0,236.0,32.0,205.0,252.0,2272.015
2272025.0,230.0,32.0,196.0,246.0,2272.025
2272035.0,238.0,32.0,209.0,259.0,2272.035
2272045.0,245.0,31.0,217.0,266.0,2272.045
2272055.0,242.0,30.0,212.0,260.0,2272.055
2272065.0,243.0,31.0,208.0,252.0,2272.065
2272075.0,233.0,31.0,198.0,246.0,2272.075
2272086.0,241.0,31.0,210.0,259.0,2272.086
2272096.0,249.0,31.0,215.0,261.0,2272.096
2272106.0,240.0,31.0,205.0,254.0,2272.106
2272116.0,237.0,32.0,204.0,253.0,2272.116
2272126.0,240.0,32.0,208.0,258.0,2272.126
2272136.0,242.0,31.0,214.0,264.0,2272.136
2272146.0,247.0,31.0,221.0,268.0,2272.146
2272156.0,240.0,31.0,214.0,266.0,2272.156
2272166.0,231.0,31.0,212.0,262.0,2272.166
2272176.0,226.0,30.0,205.0,255.0,2272.176
2272186.0,234.0,32.0,210.0,259.0,2272.186
2272196.0,236.0,31.0,212.0,256.0,2272.196
2272206.0,231.0,31.0,201.0,251.0,2272.206
2272216.0,232.0,31.0,207.0,253.0,2272.216
2272226.0,231.0,31.0,202.0,251.0,2272.226
2272236.0,237.0,31.0,206.0,256.0,2272.236
2272246.0,239.0,32.0,210.0,254.0,2272.246
2272256.0,235.0,30.0,202.0,248.0,2272.256
2272266.0,235.0,31.0,203.0,247.0,2272.266
2272276.0,233.0,31.0,203.0,250.0,2272.276
2272286.0,235.0,31.0,204.0,252.0,2272.286
2272296.0,231.0,31.0,208.0,251.0,2272.296
2272306.0,229.0,31.0,199.0,251.0,2272.306
2272316.0,229.0,32.0,203.0,254.0,2272.316
2272326.0,229.0,31.0,201.0,253.0,2272.326
2272336.0,227.0,31.0,199.0,255.0,2272.336
2272346.0,232.0,31.0,207.0,255.0,2272.346
2272356.0,226.0,31.0,194.0,249.0,2272.356
2272366.0,225.0,31.0,199.0,248.0,2272.366
2272376.0,231.0,32.0,202.0,256.0,2272.376
2272386.0,233.0,31.0,204.0,256.0,2272.386
2272396.0,237.0,32.0,208.0,256.0,2272.396
2272406.0,233.0,31.0,194.0,249.0,2272.406
2272416.0,234.0,31.0,198.0,251.0,2272.416
2272427.0,232.0,31.0,201.0,252.0,2272.427
2272437.0,236.0,31.0,200.0,256.0,2272.437
2272447.0,234.0,32.0,203.0,252.0,2272.447
2272457.0,230.0,30.0,190.0,249.0,2272.457
2272467.0,232.0,31.0,198.0,255.0,2272.467
2272477.0,235.0,31.0,204.0,258.0,2272.477
2272487.0,236.0,31.0,202.0,260.0,2272.487
2272497.0,235.0,31.0,205.0,254.0,2272.497
2272507.0,227.0,32.0,192.0,248.0,2272.507
2272517.0,231.0,31.0,200.0,252.0,2272.517
2272527.0,233.0,31.0,207.0,258.0,2272.527
2272537.0,235.0,31.0,204.0,259.0,2272.537
2272547.0,233.0,31.0,204.0,254.0,2272.547
2272557.0,228.0,31.0,194.0,252.0,2272.557
2272567.0,230.0,30.0,198.0,254.0,2272.567
2272577.0,235.0,30.0,206.0,259.0,2272.577
2272587.0,234.0,31.0,203.0,259.0,2272.587
2272598.0,233.0,32.0,206.0,256.0,2272.598
2272608.0,222.0,31.0,192.0,252.0,2272.608
2272618.0,230.0,31.0,204.0,260.0,2272.618
2272628.0,234.0,32.0,210.0,263.0,2272.628
2272638.0,227.0,32.0,200.0,259.0,2272.638
2272648.0,230.0,32.0,206.0,259.0,2272.648
2272658.0,221.0,31.0,196.0,256.0,2272.658
2272668.0,230.0,31.0,212.0,267.0,2272.668
2272678.0,236.0,32.0,219.0,269.0,2272.678
2272688.0,231.0,31.0,209.0,266.0,2272.688
2272698.0,230.0,32.0,208.0,260.0,2272.698
2272708.0,221.0,30.0,201.0,256.0,2272.708
2272718.0,226.0,31.0,207.0,264.0,2272.718
2272728.0,229.0,31.0,217.0,267.0,2272.728
2272738.0,224.0,31.0,211.0,264.0,2272.738
2272748.0,225.0,31.0,209.0,261.0,2272.748
2272758.0,218.0,32.0,207.0,258.0,2272.758
2272768.0,225.0,32.0,215.0,265.0,2272.768
2272778.0,230.0,32.0,221.0,268.0,2272.778
2272788.0,224.0,31.0,217.0,265.0,2272.788
2272798.0,224.0,31.0,212.0,261.0,2272.798
2272808.0,218.0,31.0,213.0,262.0,2272.808
2272818.0,224.0,32.0,218.0,269.0,2272.818
2272828.0,231.0,32.0,224.0,273.0,2272.828
2272838.0,224.0,31.0,219.0,271.0,2272.838
2272848.0,223.0,32.0,216.0,268.0,2272.848
2272858.0,215.0,31.0,210.0,263.0,2272.858
2272868.0,222.0,32.0,218.0,272.0,2272.868
2272878.0,227.0,32.0,221.0,272.0,2272.878
2272888.0,219.0,32.0,215.0,270.0,2272.888
2272898.0,222.0,32.0,214.0,266.0,2272.898
2272908.0,213.0,31.0,207.0,263.0,2272.908
2272918.0,223.0,32.0,215.0,272.0,2272.918
2272928.0,227.0,31.0,219.0,271.0,2272.928
2272939.0,219.0,32.0,211.0,269.0,2272.939
2272949.0,221.0,33.0,210.0,268.0,2272.949
2272959.0,219.0,32.0,211.0,268.0,2272.959
2272969.0,225.0,32.0,216.0,274.0,2272.969
2272979.0,225.0,32.0,215.0,269.0,2272.979
2272989.0,220.0,31.0,209.0,270.0,2272.989
2272999.0,221.0,33.0,210.0,267.0,2272.999
2273009.0,220.0,32.0,211.0,270.0,2273.009
2273019.0,223.0,33.0,214.0,274.0,2273.019
2273029.0,226.0,32.0,217.0,271.0,2273.029
2273039.0,217.0,32.0,206.0,268.0,2273.039
2273049.0,219.0,33.0,207.0,265.0,2273.049
2273059.0,220.0,33.0,209.0,269.0,2273.059
2273069.0,222.0,33.0,211.0,271.0,2273.069
2273079.0,225.0,32.0,214.0,268.0,2273.079
2273089.0,216.0,32.0,201.0,264.0,2273.089
2273099.0,218.0,33.0,203.0,262.0,2273.099
2273110.0,221.0,33.0,209.0,267.0,2273.11
2273120.0,222.0,32.0,206.0,268.0,2273.12
2273130.0,222.0,33.0,208.0,262.0,2273.13
2273140.0,212.0,33.0,194.0,257.0,2273.14
2273150.0,218.0,33.0,202.0,262.0,2273.15
2273160.0,221.0,33.0,207.0,264.0,2273.16
2273170.0,221.0,33.0,201.0,263.0,2273.17
2273180.0,223.0,33.0,208.0,259.0,2273.18
2273190.0,213.0,33.0,192.0,252.0,2273.19
2273200.0,218.0,32.0,200.0,255.0,2273.2
2273210.0,223.0,34.0,209.0,263.0,2273.21
2273220.0,222.0,32.0,201.0,259.0,2273.22
2273230.0,222.0,33.0,207.0,256.0,2273.23
2273240.0,216.0,32.0,193.0,251.0,2273.24
2273250.0,218.0,32.0,201.0,254.0,2273.25
2273260.0,224.0,33.0,212.0,261.0,2273.26
2273270.0,222.0,32.0,202.0,258.0,2273.27
2273280.0,223.0,33.0,217.0,256.0,2273.28
2273290.0,214.0,32.0,197.0,250.0,2273.29
2273300.0,217.0,33.0,207.0,256.0,2273.3
2273310.0,224.0,33.0,218.0,262.0,2273.31
2273320.0,220.0,33.0,205.0,257.0,2273.32
2273330.0,222.0,33.0,220.0,256.0,2273.33
2273340.0,213.0,33.0,201.0,248.0,2273.34
2273350.0,218.0,32.0,211.0,253.0,2273.35
2273360.0,225.0,33.0,223.0,258.0,2273.36
2273370.0,223.0,32.0,212.0,256.0,2273.37
2273380.0,222.0,33.0,222.0,253.0,2273.38
2273390.0,214.0,32.0,204.0,245.0,2273.39
2273400.0,218.0,34.0,215.0,253.0,2273.4
2273410.0,223.0,32.0,224.0,256.0,2273.41
2273420.0,222.0,33.0,215.0,255.0,2273.42
2273430.0,222.0,33.0,228.0,252.0,2273.43
2273440.0,213.0,33.0,208.0,243.0,2273.44
2273451.0,219.0,33.0,220.0,251.0,2273.451
2273461.0,225.0,34.0,234.0,256.0,2273.461
2273471.0,219.0,32.0,216.0,249.0,2273.471
2273481.0,220.0,32.0,228.0,249.0,2273.481
2273491.0,215.0,33.0,219.0,246.0,2273.491
2273501.0,221.0,33.0,224.0,250.0,2273.501
2273511.0,225.0,34.0,236.0,254.0,2273.511
2273521.0,218.0,33.0,217.0,248.0,2273.521
2273531.0,218.0,34.0,230.0,248.0,2273.531
2273541.0,212.0,32.0,217.0,240.0,2273.541
2273551.0,219.0,32.0,228.0,250.0,2273.551
2273561.0,225.0,34.0,243.0,254.0,2273.561
2273571.0,216.0,33.0,220.0,247.0,2273.571
2273581.0,220.0,33.0,237.0,249.0,2273.581
2273591.0,211.0,33.0,222.0,244.0,2273.591
2273601.0,219.0,32.0,232.0,253.0,2273.601
2273611.0,224.0,33.0,245.0,255.0,2273.611
2273622.0,216.0,33.0,224.0,246.0,2273.622
2273632.0,218.0,34.0,234.0,247.0,2273.632
2273642.0,217.0,33.0,234.0,249.0,2273.642
2273652.0,221.0,33.0,231.0,253.0,2273.652
2273662.0,222.0,34.0,245.0,252.0,2273.662
2273672.0,215.0,32.0,224.0,245.0,2273.672
2273682.0,217.0,33.0,236.0,247.0,2273.682
2273692.0,220.0,33.0,237.0,250.0,2273.692
2273702.0,222.0,33.0,230.0,252.0,2273.702
2273712.0,225.0,33.0,249.0,253.0,2273.712
2273722.0,215.0,34.0,225.0,245.0,2273.722
2273732.0,218.0,32.0,237.0,246.0,2273.732
2273742.0,220.0,34.0,240.0,250.0,2273.742
2273752.0,223.0,33.0,236.0,251.0,2273.752
2273762.0,224.0,34.0,249.0,251.0,2273.762
2273772.0,215.0,32.0,226.0,242.0,2273.772
2273782.0,218.0,32.0,238.0,245.0,2273.782
2273792.0,216.0,34.0,234.0,246.0,2273.792
2273802.0,222.0,33.0,236.0,252.0,2273.802
2273812.0,224.0,34.0,251.0,251.0,2273.812
2273822.0,215.0,33.0,226.0,242.0,2273.822
2273832.0,217.0,33.0,236.0,244.0,2273.832
2273842.0,218.0,33.0,236.0,247.0,2273.842
2273852.0,223.0,34.0,235.0,251.0,2273.852
2273862.0,224.0,34.0,248.0,250.0,2273.862
2273872.0,215.0,33.0,224.0,240.0,2273.872
2273882.0,220.0,33.0,238.0,245.0,2273.882
2273892.0,219.0,34.0,236.0,247.0,2273.892
2273902.0,222.0,33.0,232.0,250.0,2273.902
2273912.0,224.0,34.0,245.0,250.0,2273.912
2273922.0,216.0,32.0,224.0,243.0,2273.922
2273932.0,219.0,33.0,233.0,246.0,2273.932
2273942.0,220.0,34.0,233.0,249.0,2273.942
2273952.0,222.0,32.0,228.0,251.0,2273.952
2273963.0,222.0,34.0,239.0,249.0,2273.963
2273973.0,214.0,33.0,218.0,241.0,2273.973
2273983.0,217.0,33.0,227.0,247.0,2273.983
2273993.0,223.0,33.0,238.0,253.0,2273.993
2274003.0,219.0,33.0,221.0,247.0,2274.003
2274013.0,223.0,33.0,236.0,249.0,2274.013
2274023.0,213.0,32.0,214.0,239.0,2274.023
2274033.0,218.0,32.0,224.0,247.0,2274.033
2274043.0,224.0,34.0,235.0,254.0,2274.043
2274053.0,221.0,32.0,222.0,249.0,2274.053
2274063.0,221.0,33.0,232.0,248.0,2274.063
2274073.0,213.0,33.0,213.0,237.0,2274.073
2274083.0,218.0,32.0,222.0,247.0,2274.083
2274093.0,222.0,33.0,230.0,250.0,2274.093
2274103.0,221.0,33.0,218.0,248.0,2274.103
2274113.0,221.0,33.0,227.0,247.0,2274.113
2274123.0,212.0,32.0,209.0,237.0,2274.123
2274134.0,218.0,32.0,220.0,247.0,2274.134
2274144.0,225.0,33.0,231.0,253.0,2274.144
2274154.0,217.0,33.0,212.0,244.0,2274.154
2274164.0,218.0,33.0,222.0,247.0,2274.164
2274174.0,215.0,33.0,215.0,244.0,2274.174
2274184.0,219.0,32.0,219.0,248.0,2274.184
2274194.0,224.0,33.0,229.0,253.0,2274.194
2274204.0,218.0,32.0,210.0,243.0,2274.204
2274214.0,218.0,32.0,219.0,245.0,2274.214
2274224.0,212.0,32.0,207.0,238.0,2274.224
2274234.0,220.0,33.0,217.0,249.0,2274.234
2274244.0,225.0,32.0,228.0,252.0,2274.244
2274254.0,217.0,32.0,207.0,242.0,2274.254
2274264.0,221.0,33.0,220.0,245.0,2274.264
2274274.0,213.0,33.0,206.0,239.0,2274.274
2274284.0,223.0,32.0,217.0,249.0,2274.284
2274294.0,225.0,33.0,226.0,253.0,2274.294
2274304.0,219.0,32.0,208.0,245.0,2274.304
2274314.0,220.0,32.0,216.0,245.0,2274.314
2274324.0,214.0,32.0,206.0,241.0,2274.324
2274334.0,224.0,32.0,215.0,250.0,2274.334
2274344.0,224.0,33.0,222.0,252.0,2274.344
2274354.0,220.0,32.0,206.0,244.0,2274.354
2274364.0,220.0,33.0,211.0,245.0,2274.364
2274374.0,216.0,32.0,205.0,242.0,2274.374
2274384.0,224.0,32.0,212.0,249.0,2274.384
2274394.0,226.0,32.0,219.0,251.0,2274.394
2274404.0,220.0,31.0,202.0,243.0,2274.404
2274414.0,220.0,32.0,208.0,244.0,2274.414
2274424.0,218.0,33.0,203.0,244.0,2274.424
2274434.0,222.0,32.0,208.0,250.0,2274.434
2274444.0,226.0,32.0,216.0,252.0,2274.444
2274454.0,220.0,32.0,200.0,243.0,2274.454
2274464.0,221.0,31.0,205.0,245.0,2274.464
2274475.0,218.0,32.0,204.0,245.0,2274.475
2274485.0,224.0,33.0,207.0,250.0,2274.485
2274495.0,225.0,33.0,212.0,249.0,2274.495
2274505.0,216.0,32.0,196.0,239.0,2274.505
2274515.0,219.0,33.0,201.0,244.0,2274.515
2274525.0,221.0,32.0,205.0,246.0,2274.525
2274535.0,224.0,32.0,205.0,250.0,2274.535
2274545.0,225.0,33.0,210.0,248.0,2274.545
2274555.0,217.0,33.0,194.0,239.0,2274.555
2274565.0,220.0,32.0,202.0,244.0,2274.565
2274575.0,221.0,32.0,204.0,247.0,2274.575
2274585.0,225.0,32.0,206.0,250.0,2274.585
2274595.0,224.0,33.0,208.0,249.0,2274.595
2274605.0,219.0,32.0,196.0,241.0,2274.605
2274615.0,220.0,33.0,201.0,245.0,2274.615
2274625.0,222.0,33.0,205.0,250.0,2274.625
2274635.0,224.0,32.0,204.0,250.0,2274.635
2274646.0,224.0,33.0,206.0,249.0,2274.646
2274656.0,216.0,31.0,194.0,238.0,2274.656
2274666.0,220.0,33.0,201.0,244.0,2274.666
2274676.0,226.0,33.0,209.0,252.0,2274.676
2274686.0,221.0,33.0,200.0,244.0,2274.686
2274696.0,223.0,32.0,205.0,246.0,2274.696
2274706.0,215.0,32.0,193.0,237.0,2274.706
2274716.0,220.0,33.0,203.0,246.0,2274.716
2274726.0,225.0,33.0,210.0,252.0,2274.726
2274736.0,223.0,33.0,203.0,247.0,2274.736
2274746.0,222.0,34.0,204.0,247.0,2274.746
2274756.0,214.0,32.0,192.0,236.0,2274.756
2274766.0,221.0,33.0,203.0,248.0,2274.766
2274776.0,225.0,33.0,209.0,252.0,2274.776
2274786.0,223.0,32.0,204.0,248.0,2274.786
2274796.0,222.0,34.0,204.0,248.0,2274.796
2274806.0,215.0,33.0,195.0,240.0,2274.806
2274816.0,218.0,33.0,201.0,246.0,2274.816
2274826.0,225.0,32.0,210.0,252.0,2274.826
2274836.0,222.0,33.0,204.0,247.0,2274.836
2274846.0,222.0,33.0,205.0,248.0,2274.846
2274856.0,214.0,33.0,196.0,240.0,2274.856
2274866.0,219.0,33.0,202.0,247.0,2274.866
2274876.0,225.0,34.0,211.0,254.0,2274.876
2274886.0,222.0,32.0,205.0,247.0,2274.886
2274896.0,221.0,33.0,204.0,247.0,2274.896
2274906.0,216.0,33.0,198.0,239.0,2274.906
2274916.0,220.0,33.0,204.0,247.0,2274.916
2274926.0,226.0,33.0,211.0,253.0,2274.926
2274936.0,222.0,33.0,205.0,247.0,2274.936
2274946.0,223.0,33.0,206.0,247.0,2274.946
2274956.0,216.0,32.0,198.0,238.0,2274.956
2274966.0,221.0,33.0,205.0,246.0,2274.966
2274976.0,227.0,33.0,212.0,252.0,2274.976
2274987.0,221.0,32.0,206.0,245.0,2274.987
2274997.0,222.0,33.0,205.0,246.0,2274.997
2275007.0,217.0,34.0,202.0,243.0,2275.007
2275017.0,225.0,32.0,211.0,251.0,2275.017
2275027.0,228.0,33.0,212.0,250.0,2275.027
2275037.0,222.0,33.0,207.0,244.0,2275.037
2275047.0,221.0,33.0,206.0,245.0,2275.047
2275057.0,219.0,32.0,205.0,243.0,2275.057
2275067.0,225.0,34.0,213.0,252.0,2275.067
2275077.0,227.0,34.0,214.0,252.0,2275.077
2275087.0,220.0,32.0,207.0,245.0,2275.087
2275097.0,222.0,33.0,208.0,247.0,2275.097
2275107.0,220.0,33.0,208.0,247.0,2275.107
2275117.0,223.0,33.0,212.0,251.0,2275.117
2275127.0,227.0,33.0,215.0,254.0,2275.127
2275137.0,220.0,33.0,207.0,245.0,2275.137
2275147.0,221.0,32.0,207.0,246.0,2275.147
2275158.0,220.0,33.0,210.0,247.0,2275.158
2275168.0,226.0,33.0,215.0,251.0,2275.168
2275178.0,224.0,33.0,212.0,249.0,2275.178
2275188.0,217.0,33.0,205.0,241.0,2275.188
2275198.0,219.0,33.0,207.0,245.0,2275.198
2275208.0,222.0,32.0,212.0,247.0,2275.208
2275218.0,225.0,32.0,216.0,250.0,2275.218
2275228.0,225.0,33.0,213.0,248.0,2275.228
2275238.0,216.0,32.0,206.0,240.0,2275.238
2275248.0,220.0,32.0,208.0,244.0,2275.248
2275258.0,222.0,34.0,213.0,250.0,2275.258
2275268.0,224.0,32.0,217.0,249.0,2275.268
2275278.0,223.0,33.0,211.0,248.0,2275.278
2275288.0,219.0,32.0,212.0,242.0,2275.288
2275298.0,220.0,33.0,210.0,245.0,2275.298
2275308.0,222.0,33.0,217.0,250.0,2275.308
2275318.0,224.0,33.0,220.0,250.0,2275.318
2275328.0,226.0,33.0,217.0,251.0,2275.328
2275338.0,218.0,32.0,213.0,242.0,2275.338
2275348.0,220.0,33.0,213.0,246.0,2275.348
2275358.0,225.0,33.0,222.0,253.0,2275.358
2275368.0,224.0,32.0,222.0,251.0,2275.368
2275378.0,225.0,33.0,218.0,250.0,2275.378
2275388.0,218.0,33.0,214.0,242.0,2275.388
2275398.0,219.0,32.0,214.0,244.0,2275.398
2275408.0,225.0,32.0,222.0,252.0,2275.408
2275418.0,226.0,32.0,224.0,251.0,2275.418
2275428.0,224.0,33.0,218.0,250.0,2275.428
2275438.0,218.0,32.0,214.0,241.0,2275.438
2275448.0,220.0,33.0,215.0,247.0,2275.448
2275458.0,222.0,33.0,219.0,249.0,2275.458
2275468.0,225.0,32.0,223.0,252.0,2275.468
2275478.0,224.0,32.0,218.0,249.0,2275.478
2275488.0,217.0,31.0,214.0,241.0,2275.488
2275499.0,220.0,32.0,215.0,247.0,2275.499
2275509.0,227.0,32.0,223.0,252.0,2275.509
2275519.0,223.0,32.0,222.0,248.0,2275.519
2275529.0,223.0,32.0,217.0,247.0,2275.529
2275539.0,215.0,32.0,213.0,242.0,2275.539
2275549.0,221.0,32.0,219.0,249.0,2275.549
2275559.0,226.0,32.0,224.0,254.0,2275.559
2275569.0,223.0,32.0,223.0,249.0,2275.569
2275579.0,222.0,33.0,218.0,249.0,2275.579
2275589.0,216.0,32.0,215.0,241.0,2275.589
2275599.0,221.0,32.0,220.0,250.0,2275.599
2275609.0,228.0,32.0,227.0,255.0,2275.609
2275619.0,222.0,31.0,224.0,249.0,2275.619
2275629.0,223.0,32.0,220.0,250.0,2275.629
2275639.0,215.0,32.0,216.0,243.0,2275.639
2275649.0,222.0,32.0,223.0,250.0,2275.649
2275659.0,227.0,32.0,226.0,254.0,2275.659
2275670.0,221.0,32.0,224.0,248.0,2275.67
2275680.0,222.0,31.0,220.0,248.0,2275.68
2275690.0,218.0,32.0,220.0,246.0,2275.69
2275700.0,225.0,32.0,228.0,254.0,2275.7
2275710.0,227.0,33.0,223.0,252.0,2275.71
2275720.0,221.0,32.0,223.0,246.0,2275.72
2275730.0,221.0,32.0,219.0,247.0,2275.73
2275740.0,221.0,31.0,222.0,248.0,2275.74
2275750.0,226.0,32.0,228.0,254.0,2275.75
2275760.0,227.0,32.0,226.0,254.0,2275.76
2275770.0,221.0,32.0,224.0,248.0,2275.77
2275780.0,222.0,32.0,221.0,248.0,2275.78
2275790.0,222.0,32.0,223.0,249.0,2275.79
2275800.0,225.0,32.0,229.0,253.0,2275.8
2275810.0,229.0,33.0,226.0,254.0,2275.81
2275820.0,221.0,31.0,226.0,246.0,2275.82
2275830.0,222.0,32.0,221.0,248.0,2275.83
2275840.0,217.0,32.0,221.0,245.0,2275.84
2275850.0,225.0,32.0,230.0,253.0,2275.85
2275860.0,227.0,32.0,227.0,253.0,2275.86
2275870.0,219.0,31.0,225.0,245.0,2275.87
2275880.0,220.0,32.0,221.0,247.0,2275.88
2275890.0,217.0,32.0,222.0,245.0,2275.89
2275900.0,224.0,33.0,231.0,255.0,2275.9
2275910.0,225.0,32.0,227.0,253.0,2275.91
2275920.0,217.0,31.0,225.0,245.0,2275.92
2275930.0,221.0,32.0,223.0,248.0,2275.93
2275940.0,216.0,31.0,223.0,247.0,2275.94
2275950.0,223.0,32.0,231.0,254.0,2275.95
2275960.0,225.0,32.0,226.0,253.0,2275.96
2275970.0,219.0,32.0,227.0,248.0,2275.97
2275980.0,220.0,32.0,224.0,249.0,2275.98
2275990.0,218.0,32.0,226.0,248.0,2275.99
2276000.0,225.0,32.0,232.0,254.0,2276.0
2276011.0,224.0,32.0,226.0,252.0,2276.011
2276021.0,216.0,32.0,225.0,244.0,2276.021
2276031.0,219.0,33.0,223.0,248.0,2276.031
2276041.0,224.0,32.0,232.0,254.0,2276.041
2276051.0,223.0,32.0,232.0,253.0,2276.051
2276061.0,225.0,32.0,228.0,251.0,2276.061
2276071.0,216.0,31.0,225.0,244.0,2276.071
2276081.0,219.0,32.0,225.0,248.0,2276.081
2276091.0,225.0,33.0,232.0,256.0,2276.091
2276101.0,225.0,32.0,234.0,255.0,2276.101
2276111.0,224.0,32.0,225.0,252.0,2276.111
2276121.0,217.0,32.0,225.0,244.0,2276.121
2276131.0,220.0,31.0,226.0,250.0,2276.131
2276141.0,222.0,32.0,230.0,252.0,2276.141
2276151.0,224.0,32.0,234.0,254.0,2276.151
2276161.0,223.0,32.0,226.0,251.0,2276.161
2276171.0,216.0,30.0,224.0,244.0,2276.171
2276182.0,219.0,32.0,227.0,250.0,2276.182
2276192.0,227.0,31.0,232.0,255.0,2276.192
2276202.0,222.0,31.0,231.0,251.0,2276.202
2276212.0,222.0,32.0,226.0,250.0,2276.212
2276222.0,215.0,32.0,224.0,245.0,2276.222
2276232.0,220.0,31.0,228.0,250.0,2276.232
2276242.0,226.0,32.0,233.0,256.0,2276.242
2276252.0,223.0,31.0,233.0,251.0,2276.252
2276262.0,222.0,32.0,226.0,250.0,2276.262
2276272.0,215.0,31.0,224.0,243.0,2276.272
2276282.0,221.0,33.0,230.0,254.0,2276.282
2276292.0,227.0,31.0,234.0,256.0,2276.292
2276302.0,221.0,31.0,233.0,250.0,2276.302
2276312.0,224.0,32.0,228.0,252.0,2276.312
2276322.0,215.0,31.0,225.0,244.0,2276.322
2276332.0,223.0,31.0,233.0,253.0,2276.332
2276342.0,227.0,33.0,234.0,258.0,2276.342
2276352.0,223.0,32.0,235.0,253.0,2276.352
2276362.0,222.0,31.0,227.0,251.0,2276.362
2276372.0,215.0,31.0,224.0,244.0,2276.372
2276382.0,223.0,31.0,234.0,253.0,2276.382
2276392.0,226.0,32.0,232.0,255.0,2276.392
2276402.0,223.0,31.0,233.0,251.0,2276.402
2276412.0,222.0,33.0,226.0,250.0,2276.412
2276422.0,215.0,32.0,223.0,244.0,2276.422
2276432.0,223.0,31.0,231.0,254.0,2276.432
2276442.0,227.0,32.0,232.0,255.0,2276.442
2276452.0,222.0,31.0,230.0,251.0,2276.452
2276462.0,222.0,32.0,224.0,249.0,2276.462
2276472.0,217.0,32.0,222.0,246.0,2276.472
2276482.0,221.0,32.0,225.0,250.0,2276.482
2276492.0,227.0,32.0,230.0,256.0,2276.492
2276502.0,221.0,31.0,229.0,250.0,2276.502
2276512.0,222.0,31.0,223.0,250.0,2276.512
2276523.0,215.0,32.0,222.0,247.0,2276.523
2276533.0,223.0,32.0,232.0,255.0,2276.533
2276543.0,226.0,32.0,227.0,254.0,2276.543
2276553.0,217.0,31.0,224.0,245.0,2276.553
2276563.0,219.0,32.0,220.0,247.0,2276.563
2276573.0,218.0,32.0,223.0,246.0,2276.573
2276583.0,224.0,32.0,230.0,254.0,2276.583
2276593.0,225.0,33.0,225.0,252.0,2276.593
2276603.0,216.0,32.0,224.0,246.0,2276.603
2276613.0,220.0,32.0,222.0,248.0,2276.613
2276623.0,217.0,32.0,224.0,248.0,2276.623
2276633.0,224.0,32.0,232.0,254.0,2276.633
2276643.0,225.0,31.0,225.0,252.0,2276.643
2276653.0,218.0,32.0,228.0,248.0,2276.653
2276663.0,218.0,32.0,223.0,249.0,2276.663
2276673.0,217.0,32.0,227.0,249.0,2276.673
2276683.0,222.0,32.0,233.0,254.0,2276.683
2276694.0,224.0,32.0,225.0,251.0,2276.694
2276704.0,215.0,31.0,226.0,244.0,2276.704
2276714.0,216.0,33.0,224.0,248.0,2276.714
2276724.0,222.0,32.0,233.0,254.0,2276.724
2276734.0,220.0,33.0,235.0,252.0,2276.734
2276744.0,222.0,32.0,227.0,251.0,2276.744
2276754.0,213.0,32.0,228.0,244.0,2276.754
2276764.0,219.0,31.0,229.0,249.0,2276.764
2276774.0,224.0,33.0,235.0,255.0,2276.774
2276784.0,222.0,32.0,238.0,253.0,2276.784
2276794.0,223.0,33.0,230.0,252.0,2276.794
2276804.0,213.0,32.0,230.0,244.0,2276.804
2276814.0,218.0,32.0,231.0,250.0,2276.814
2276824.0,221.0,32.0,236.0,253.0,2276.824
2276834.0,222.0,32.0,239.0,254.0,2276.834
2276844.0,222.0,33.0,230.0,251.0,2276.844
2276854.0,213.0,32.0,230.0,244.0,2276.854
2276864.0,218.0,33.0,229.0,249.0,2276.864
2276874.0,221.0,33.0,236.0,254.0,2276.874
2276884.0,222.0,31.0,238.0,251.0,2276.884
2276894.0,223.0,33.0,230.0,250.0,2276.894
2276904.0,212.0,32.0,225.0,241.0,2276.904
2276914.0,217.0,33.0,226.0,245.0,2276.914
2276924.0,222.0,34.0,232.0,253.0,2276.924
2276934.0,220.0,32.0,233.0,250.0,2276.934
2276944.0,221.0,33.0,226.0,248.0,2276.944
2276954.0,215.0,32.0,225.0,243.0,2276.954
2276964.0,217.0,33.0,224.0,247.0,2276.964
2276974.0,224.0,33.0,231.0,254.0,2276.974
2276984.0,221.0,33.0,230.0,252.0,2276.984
2276994.0,223.0,33.0,226.0,252.0,2276.994
2277004.0,214.0,32.0,222.0,243.0,2277.004
2277014.0,217.0,33.0,223.0,249.0,2277.014
2277024.0,225.0,33.0,230.0,255.0,2277.024
2277035.0,220.0,32.0,229.0,251.0,2277.035
2277045.0,220.0,32.0,222.0,251.0,2277.045
2277055.0,212.0,33.0,219.0,245.0,2277.055
2277065.0,221.0,32.0,229.0,255.0,2277.065
2277075.0,225.0,33.0,227.0,256.0,2277.075
2277085.0,221.0,32.0,229.0,251.0,2277.085
2277095.0,220.0,33.0,222.0,249.0,2277.095
2277105.0,213.0,32.0,220.0,244.0,2277.105
2277115.0,222.0,33.0,231.0,255.0,2277.115
2277125.0,225.0,33.0,229.0,255.0,2277.125
2277135.0,219.0,32.0,228.0,249.0,2277.135
2277145.0,221.0,32.0,223.0,248.0,2277.145
2277155.0,215.0,32.0,223.0,246.0,2277.155
2277165.0,219.0,32.0,227.0,250.0,2277.165
2277175.0,226.0,32.0,230.0,256.0,2277.175
2277185.0,219.0,33.0,229.0,249.0,2277.185
2277195.0,220.0,32.0,225.0,249.0,2277.195
2277206.0,215.0,32.0,225.0,248.0,2277.206
2277216.0,223.0,33.0,234.0,255.0,2277.216
2277226.0,225.0,32.0,228.0,254.0,2277.226
2277236.0,216.0,32.0,227.0,246.0,2277.236
2277246.0,218.0,33.0,225.0,249.0,2277.246
2277256.0,217.0,32.0,228.0,248.0,2277.256
2277266.0,223.0,32.0,236.0,256.0,2277.266
2277276.0,226.0,32.0,230.0,253.0,2277.276
2277286.0,215.0,31.0,228.0,247.0,2277.286
2277296.0,218.0,32.0,225.0,248.0,2277.296
2277306.0,217.0,33.0,228.0,251.0,2277.306
2277316.0,222.0,32.0,235.0,254.0,2277.316
2277326.0,223.0,32.0,228.0,253.0,2277.326
2277336.0,217.0,32.0,231.0,248.0,2277.336
2277346.0,219.0,31.0,226.0,248.0,2277.346
2277356.0,220.0,32.0,230.0,250.0,2277.356
2277366.0,223.0,32.0,236.0,254.0,2277.366
2277376.0,226.0,32.0,232.0,255.0,2277.376
2277386.0,217.0,32.0,232.0,247.0,2277.386
2277396.0,219.0,31.0,227.0,248.0,2277.396
2277406.0,221.0,31.0,234.0,252.0,2277.406
2277416.0,222.0,31.0,238.0,254.0,2277.416
2277426.0,225.0,32.0,232.0,253.0,2277.426
2277436.0,216.0,32.0,233.0,248.0,2277.436
2277446.0,218.0,32.0,229.0,249.0,2277.446
2277456.0,220.0,32.0,234.0,253.0,2277.456
2277466.0,223.0,32.0,239.0,255.0,2277.466
2277476.0,225.0,31.0,232.0,254.0,2277.476
2277486.0,215.0,31.0,231.0,245.0,2277.486
2277496.0,217.0,33.0,228.0,248.0,2277.496
2277506.0,216.0,32.0,230.0,249.0,2277.506
2277516.0,222.0,32.0,238.0,255.0,2277.516
2277526.0,224.0,32.0,231.0,253.0,2277.526
2277536.0,215.0,31.0,230.0,245.0,2277.536
2277547.0,217.0,32.0,226.0,248.0,2277.547
2277557.0,222.0,32.0,234.0,255.0,2277.557
2277567.0,221.0,33.0,234.0,254.0,2277.567
2277577.0,222.0,32.0,227.0,250.0,2277.577
2277587.0,213.0,31.0,224.0,243.0,2277.587
2277597.0,218.0,32.0,226.0,249.0,2277.597
2277607.0,224.0,32.0,232.0,255.0,2277.607
2277617.0,221.0,32.0,233.0,252.0,2277.617
2277627.0,221.0,32.0,226.0,252.0,2277.627
2277637.0,213.0,32.0,225.0,245.0,2277.637
2277647.0,217.0,32.0,225.0,250.0,2277.647
2277657.0,224.0,32.0,233.0,256.0,2277.657
2277667.0,221.0,31.0,232.0,253.0,2277.667
2277677.0,222.0,32.0,226.0,252.0,2277.677
2277687.0,214.0,32.0,225.0,245.0,2277.687
2277697.0,218.0,33.0,226.0,251.0,2277.697
2277707.0,225.0,32.0,232.0,256.0,2277.707
2277718.0,220.0,32.0,231.0,252.0,2277.718
2277728.0,221.0,32.0,225.0,251.0,2277.728
2277738.0,213.0,32.0,224.0,246.0,2277.738
2277748.0,222.0,32.0,232.0,257.0,2277.748
2277758.0,225.0,33.0,230.0,257.0,2277.758
2277768.0,220.0,32.0,230.0,251.0,2277.768
2277778.0,221.0,32.0,223.0,250.0,2277.778
2277788.0,216.0,32.0,223.0,247.0,2277.788
2277798.0,224.0,32.0,232.0,256.0,2277.798
2277808.0,226.0,33.0,230.0,257.0,2277.808
2277818.0,220.0,33.0,227.0,251.0,2277.818
2277828.0,221.0,32.0,223.0,250.0,2277.828
2277838.0,216.0,32.0,223.0,247.0,2277.838
2277848.0,220.0,32.0,228.0,253.0,2277.848
2277858.0,226.0,33.0,229.0,256.0,2277.858
2277868.0,219.0,32.0,226.0,250.0,2277.868
2277878.0,220.0,32.0,222.0,250.0,2277.878
2277888.0,213.0,33.0,219.0,244.0,2277.888
2277898.0,222.0,32.0,228.0,253.0,2277.898
2277908.0,226.0,32.0,229.0,255.0,2277.908
2277918.0,220.0,31.0,228.0,248.0,2277.918
2277928.0,220.0,32.0,222.0,249.0,2277.928
2277938.0,214.0,32.0,220.0,245.0,2277.938
2277948.0,221.0,33.0,229.0,256.0,2277.948
2277958.0,225.0,33.0,228.0,256.0,2277.958
2277968.0,219.0,32.0,226.0,249.0,2277.968
2277978.0,221.0,33.0,224.0,251.0,2277.978
2277988.0,216.0,31.0,221.0,246.0,2277.988
2277998.0,223.0,33.0,230.0,255.0,2277.998
2278008.0,227.0,33.0,228.0,256.0,2278.008
2278018.0,221.0,33.0,227.0,251.0,2278.018
2278028.0,221.0,32.0,222.0,249.0,2278.028
2278038.0,216.0,32.0,221.0,246.0,2278.038
2278048.0,224.0,33.0,230.0,255.0,2278.048
2278059.0,226.0,34.0,226.0,255.0,2278.059
2278069.0,218.0,32.0,225.0,248.0,2278.069
2278079.0,219.0,34.0,221.0,250.0,2278.079
2278089.0,222.0,32.0,227.0,254.0,2278.089
2278099.0,224.0,33.0,231.0,255.0,2278.099
2278109.0,228.0,33.0,227.0,254.0,2278.109
2278119.0,218.0,33.0,224.0,246.0,2278.119
2278129.0,220.0,33.0,222.0,248.0,2278.129
2278139.0,222.0,33.0,228.0,255.0,2278.139
2278149.0,223.0,33.0,231.0,255.0,2278.149
2278159.0,226.0,33.0,225.0,252.0,2278.159
2278169.0,217.0,33.0,223.0,245.0,2278.169
2278179.0,219.0,33.0,221.0,248.0,2278.179
2278189.0,218.0,33.0,224.0,250.0,2278.189
2278199.0,223.0,33.0,231.0,255.0,2278.199
2278209.0,224.0,33.0,225.0,252.0,2278.209
2278219.0,215.0,32.0,223.0,245.0,2278.219
2278230.0,217.0,33.0,221.0,249.0,2278.23
2278240.0,224.0,33.0,230.0,255.0,2278.24
2278250.0,222.0,34.0,230.0,253.0,2278.25
2278260.0,222.0,33.0,223.0,251.0,2278.26
2278270.0,213.0,34.0,221.0,245.0,2278.27
2278280.0,220.0,32.0,224.0,249.0,2278.28
2278290.0,225.0,33.0,231.0,256.0,2278.29
2278300.0,226.0,32.0,234.0,254.0,2278.3
2278310.0,226.0,33.0,225.0,252.0,2278.31
2278320.0,220.0,33.0,226.0,245.0,2278.32
2278330.0,223.0,33.0,227.0,252.0,2278.33
2278340.0,229.0,34.0,233.0,256.0,2278.34
2278350.0,224.0,32.0,233.0,252.0,2278.35
2278360.0,225.0,33.0,228.0,252.0,2278.36
2278370.0,217.0,32.0,226.0,243.0,2278.37
2278380.0,221.0,33.0,229.0,250.0,2278.38
2278390.0,228.0,33.0,234.0,256.0,2278.39
2278400.0,225.0,33.0,235.0,253.0,2278.4
2278410.0,224.0,33.0,227.0,250.0,2278.41
2278420.0,216.0,34.0,226.0,243.0,2278.42
2278430.0,222.0,32.0,231.0,252.0,2278.43
2278440.0,227.0,34.0,235.0,256.0,2278.44
2278450.0,224.0,32.0,238.0,253.0,2278.45
2278460.0,224.0,33.0,229.0,252.0,2278.46
2278470.0,216.0,32.0,228.0,244.0,2278.47
2278480.0,221.0,33.0,234.0,252.0,2278.48
2278490.0,225.0,33.0,238.0,256.0,2278.49
2278500.0,224.0,31.0,238.0,254.0,2278.5
2278510.0,223.0,33.0,230.0,252.0,2278.51
2278520.0,215.0,33.0,230.0,245.0,2278.52
2278530.0,219.0,33.0,231.0,250.0,2278.53
2278540.0,227.0,32.0,238.0,257.0,2278.54
2278550.0,221.0,32.0,239.0,254.0,2278.55
2278560.0,222.0,33.0,231.0,251.0,2278.56
2278571.0,214.0,33.0,228.0,245.0,2278.571
2278581.0,222.0,32.0,237.0,255.0,2278.581
2278591.0,226.0,34.0,235.0,257.0,2278.591
2278601.0,218.0,32.0,234.0,249.0,2278.601
2278611.0,220.0,33.0,228.0,250.0,2278.611
2278621.0,215.0,32.0,229.0,246.0,2278.621
2278631.0,222.0,33.0,236.0,255.0,2278.631
2278641.0,226.0,32.0,234.0,256.0,2278.641
2278651.0,217.0,33.0,233.0,250.0,2278.651
2278661.0,221.0,33.0,229.0,251.0,2278.661
2278671.0,215.0,33.0,228.0,247.0,2278.671
2278681.0,223.0,33.0,236.0,257.0,2278.681
2278691.0,227.0,33.0,233.0,257.0,2278.691
2278701.0,218.0,32.0,234.0,252.0,2278.701
2278711.0,221.0,33.0,228.0,251.0,2278.711
2278721.0,216.0,33.0,230.0,249.0,2278.721
2278731.0,223.0,32.0,238.0,257.0,2278.731
2278742.0,225.0,33.0,233.0,256.0,2278.742
2278752.0,217.0,32.0,233.0,247.0,2278.752
2278762.0,218.0,32.0,229.0,249.0,2278.762
2278772.0,222.0,32.0,235.0,254.0,2278.772
2278782.0,223.0,34.0,238.0,255.0,2278.782
2278792.0,226.0,33.0,232.0,254.0,2278.792
2278802.0,217.0,32.0,231.0,246.0,2278.802
2278812.0,219.0,33.0,229.0,248.0,2278.812
2278822.0,223.0,33.0,235.0,255.0,2278.822
2278832.0,223.0,33.0,237.0,255.0,2278.832
2278842.0,225.0,33.0,230.0,253.0,2278.842
2278852.0,215.0,32.0,229.0,245.0,2278.852
2278862.0,218.0,32.0,227.0,248.0,2278.862
2278872.0,219.0,33.0,230.0,250.0,2278.872
2278882.0,223.0,32.0,236.0,255.0,2278.882
2278892.0,224.0,32.0,228.0,252.0,2278.892
2278902.0,214.0,32.0,228.0,244.0,2278.902
2278912.0,219.0,33.0,227.0,249.0,2278.912
2278922.0,220.0,32.0,233.0,252.0,2278.922
2278932.0,223.0,32.0,237.0,255.0,2278.932
2278942.0,224.0,33.0,230.0,252.0,2278.942
2278952.0,214.0,32.0,228.0,244.0,2278.952
2278962.0,219.0,32.0,227.0,248.0,2278.962
2278972.0,221.0,33.0,232.0,253.0,2278.972
2278982.0,223.0,32.0,237.0,253.0,2278.982
2278992.0,223.0,32.0,228.0,251.0,2278.992
2279002.0,217.0,32.0,232.0,246.0,2279.002
2279012.0,219.0,32.0,227.0,247.0,2279.012
2279022.0,222.0,33.0,233.0,253.0,2279.022
2279032.0,222.0,32.0,236.0,253.0,2279.032
2279042.0,224.0,33.0,230.0,252.0,2279.042
2279052.0,215.0,32.0,230.0,244.0,2279.052
2279062.0,217.0,33.0,227.0,247.0,2279.062
2279072.0,224.0,33.0,235.0,254.0,2279.072
2279083.0,222.0,32.0,236.0,253.0,2279.083
2279093.0,222.0,32.0,228.0,250.0,2279.093
2279103.0,213.0,33.0,225.0,243.0,2279.103
2279113.0,220.0,32.0,232.0,252.0,2279.113
2279123.0,226.0,33.0,233.0,256.0,2279.123
2279133.0,222.0,33.0,237.0,253.0,2279.133
2279143.0,222.0,33.0,228.0,251.0,2279.143
2279153.0,213.0,32.0,226.0,243.0,2279.153
2279163.0,221.0,33.0,234.0,253.0,2279.163
2279173.0,224.0,33.0,235.0,256.0,2279.173
2279183.0,222.0,32.0,236.0,252.0,2279.183
2279193.0,222.0,33.0,229.0,250.0,2279.193
2279203.0,214.0,31.0,227.0,244.0,2279.203
2279213.0,218.0,32.0,229.0,249.0,2279.213
2279223.0,225.0,33.0,235.0,255.0,2279.223
2279233.0,220.0,33.0,235.0,250.0,2279.233
2279243.0,221.0,32.0,227.0,249.0,2279.243
2279254.0,213.0,33.0,227.0,243.0,2279.254
2279264.0,222.0,33.0,236.0,254.0,2279.264
2279274.0,224.0,33.0,232.0,254.0,2279.274
2279284.0,216.0,32.0,232.0,247.0,2279.284
2279294.0,219.0,34.0,227.0,248.0,2279.294
2279304.0,214.0,32.0,228.0,244.0,2279.304
2279314.0,222.0,33.0,237.0,254.0,2279.314
2279324.0,226.0,33.0,233.0,254.0,2279.324
2279334.0,216.0,32.0,231.0,246.0,2279.334
2279344.0,220.0,32.0,228.0,248.0,2279.344
2279354.0,215.0,33.0,228.0,246.0,2279.354
2279364.0,223.0,32.0,236.0,253.0,2279.364
2279374.0,226.0,33.0,231.0,252.0,2279.374
2279384.0,218.0,32.0,232.0,248.0,2279.384
2279394.0,221.0,33.0,226.0,248.0,2279.394
2279404.0,216.0,33.0,227.0,246.0,2279.404
2279414.0,223.0,33.0,235.0,254.0,2279.414
2279424.0,225.0,34.0,233.0,256.0,2279.424
2279434.0,217.0,32.0,232.0,248.0,2279.434
2279444.0,220.0,33.0,226.0,250.0,2279.444
2279454.0,218.0,33.0,229.0,249.0,2279.454
2279464.0,222.0,33.0,235.0,255.0,2279.464
2279474.0,226.0,33.0,232.0,255.0,2279.474
2279484.0,218.0,33.0,230.0,249.0,2279.484
2279494.0,219.0,33.0,226.0,250.0,2279.494
2279504.0,218.0,32.0,229.0,251.0,2279.504
2279514.0,221.0,33.0,234.0,255.0,2279.514
2279524.0,226.0,33.0,230.0,255.0,2279.524
2279534.0,217.0,33.0,229.0,246.0,2279.534
2279544.0,219.0,33.0,225.0,249.0,2279.544
2279554.0,215.0,34.0,225.0,245.0,2279.554
2279564.0,223.0,32.0,233.0,253.0,2279.564
2279574.0,226.0,33.0,229.0,254.0,2279.574
2279584.0,219.0,32.0,229.0,245.0,2279.584
2279595.0,220.0,33.0,224.0,247.0,2279.595
2279605.0,221.0,33.0,231.0,251.0,2279.605
2279615.0,223.0,33.0,234.0,252.0,2279.615
2279625.0,223.0,33.0,227.0,250.0,2279.625
2279635.0,214.0,33.0,224.0,241.0,2279.635
2279645.0,219.0,33.0,225.0,247.0,2279.645
2279655.0,222.0,33.0,230.0,252.0,2279.655
2279665.0,222.0,33.0,233.0,253.0,2279.665
2279675.0,223.0,33.0,226.0,252.0,2279.675
2279685.0,217.0,32.0,227.0,244.0,2279.685
2279695.0,219.0,33.0,224.0,247.0,2279.695
2279705.0,223.0,33.0,231.0,254.0,2279.705
2279715.0,223.0,33.0,232.0,253.0,2279.715
2279725.0,226.0,33.0,226.0,252.0,2279.725
2279735.0,216.0,32.0,226.0,244.0,2279.735
2279745.0,219.0,33.0,223.0,248.0,2279.745
2279755.0,225.0,32.0,230.0,255.0,2279.755
2279766.0,223.0,33.0,232.0,253.0,2279.766
2279776.0,224.0,33.0,225.0,251.0,2279.776
2279786.0,214.0,32.0,220.0,243.0,2279.786
2279796.0,221.0,32.0,228.0,253.0,2279.796
