time (ms),signal 0,signal 1,signal 2,signal 3,time (sec)
2254296.0,211.0,34.0,227.0,246.0,2254.296
2254306.0,216.0,33.0,228.0,247.0,2254.306
2254316.0,210.0,32.0,229.0,243.0,2254.316
2254326.0,210.0,34.0,221.0,241.0,2254.326
2254336.0,204.0,32.0,222.0,234.0,2254.336
2254346.0,210.0,33.0,225.0,241.0,2254.346
2254356.0,216.0,33.0,229.0,245.0,2254.356
2254366.0,210.0,33.0,229.0,240.0,2254.366
2254376.0,210.0,33.0,221.0,239.0,2254.376
2254386.0,204.0,33.0,222.0,233.0,2254.386
2254396.0,211.0,33.0,229.0,243.0,2254.396
2254406.0,216.0,32.0,229.0,245.0,2254.406
2254416.0,210.0,32.0,232.0,239.0,2254.416
2254426.0,213.0,32.0,225.0,239.0,2254.426
2254436.0,205.0,32.0,224.0,232.0,2254.436
2254446.0,213.0,32.0,232.0,244.0,2254.446
2254456.0,217.0,33.0,231.0,245.0,2254.456
2254466.0,213.0,32.0,235.0,241.0,2254.466
2254476.0,213.0,32.0,225.0,239.0,2254.476
2254486.0,206.0,32.0,228.0,233.0,2254.486
2254496.0,213.0,33.0,232.0,243.0,2254.496
2254507.0,218.0,33.0,231.0,245.0,2254.507
2254517.0,211.0,33.0,233.0,239.0,2254.517
2254527.0,212.0,32.0,226.0,239.0,2254.527
2254537.0,211.0,32.0,231.0,240.0,2254.537
2254547.0,216.0,32.0,238.0,245.0,2254.547
2254557.0,219.0,32.0,231.0,247.0,2254.557
2254567.0,210.0,32.0,231.0,239.0,2254.567
2254577.0,212.0,33.0,226.0,239.0,2254.577
2254587.0,212.0,32.0,232.0,242.0,2254.587
2254597.0,215.0,32.0,236.0,246.0,2254.597
2254607.0,218.0,32.0,231.0,247.0,2254.607
2254617.0,211.0,31.0,232.0,239.0,2254.617
2254627.0,212.0,33.0,226.0,241.0,2254.627
2254637.0,209.0,32.0,228.0,239.0,2254.637
2254647.0,217.0,33.0,235.0,249.0,2254.647
2254657.0,219.0,33.0,230.0,247.0,2254.657
2254667.0,210.0,32.0,230.0,240.0,2254.667
2254678.0,213.0,32.0,226.0,242.0,2254.678
2254688.0,215.0,32.0,231.0,246.0,2254.688
2254698.0,217.0,32.0,234.0,246.0,2254.698
2254708.0,217.0,32.0,227.0,245.0,2254.708
2254718.0,208.0,32.0,226.0,237.0,2254.718
2254728.0,212.0,32.0,224.0,242.0,2254.728
2254738.0,216.0,32.0,232.0,248.0,2254.738
2254748.0,217.0,31.0,234.0,249.0,2254.748
2254758.0,216.0,32.0,226.0,246.0,2254.758
2254768.0,210.0,32.0,227.0,241.0,2254.768
2254778.0,213.0,32.0,224.0,244.0,2254.778
2254788.0,217.0,32.0,232.0,250.0,2254.788
2254798.0,216.0,32.0,234.0,250.0,2254.798
2254808.0,220.0,33.0,228.0,248.0,2254.808
2254818.0,210.0,32.0,228.0,242.0,2254.818
2254828.0,214.0,32.0,226.0,244.0,2254.828
2254838.0,220.0,33.0,234.0,253.0,2254.838
2254848.0,219.0,32.0,236.0,252.0,2254.848
2254858.0,220.0,32.0,228.0,249.0,2254.858
2254868.0,211.0,31.0,229.0,243.0,2254.868
2254878.0,214.0,31.0,226.0,247.0,2254.878
2254888.0,221.0,32.0,233.0,253.0,2254.888
2254898.0,219.0,32.0,234.0,253.0,2254.898
2254908.0,219.0,32.0,226.0,249.0,2254.908
2254918.0,210.0,32.0,225.0,243.0,2254.918
2254928.0,215.0,32.0,225.0,248.0,2254.928
2254938.0,219.0,32.0,230.0,251.0,2254.938
2254948.0,218.0,32.0,231.0,252.0,2254.948
2254958.0,219.0,32.0,224.0,248.0,2254.958
2254968.0,210.0,32.0,221.0,241.0,2254.968
2254978.0,215.0,32.0,221.0,245.0,2254.978
2254988.0,219.0,32.0,228.0,251.0,2254.988
2254998.0,220.0,32.0,231.0,251.0,2254.998
2255008.0,218.0,31.0,222.0,249.0,2255.008
2255019.0,210.0,32.0,219.0,242.0,2255.019
2255029.0,216.0,33.0,224.0,251.0,2255.029
2255039.0,222.0,32.0,228.0,256.0,2255.039
2255049.0,217.0,31.0,227.0,250.0,2255.049
2255059.0,217.0,32.0,221.0,248.0,2255.059
2255069.0,210.0,31.0,220.0,242.0,2255.069
2255079.0,217.0,32.0,226.0,252.0,2255.079
2255089.0,222.0,32.0,228.0,256.0,2255.089
2255099.0,216.0,32.0,228.0,250.0,2255.099
2255109.0,218.0,32.0,222.0,250.0,2255.109
2255119.0,209.0,32.0,221.0,243.0,2255.119
2255129.0,219.0,31.0,229.0,253.0,2255.129
2255139.0,222.0,32.0,229.0,255.0,2255.139
2255149.0,218.0,31.0,232.0,253.0,2255.149
2255159.0,217.0,33.0,224.0,252.0,2255.159
2255169.0,209.0,32.0,224.0,246.0,2255.169
2255179.0,218.0,32.0,231.0,251.0,2255.179
2255190.0,224.0,32.0,230.0,251.0,2255.19
2255200.0,215.0,31.0,229.0,244.0,2255.2
2255210.0,217.0,32.0,225.0,245.0,2255.21
2255220.0,217.0,32.0,230.0,248.0,2255.22
2255230.0,225.0,32.0,237.0,252.0,2255.23
2255240.0,226.0,32.0,233.0,253.0,2255.24
2255250.0,217.0,32.0,234.0,247.0,2255.25
2255260.0,220.0,31.0,229.0,248.0,2255.26
2255270.0,219.0,32.0,233.0,249.0,2255.27
2255280.0,224.0,32.0,237.0,250.0,2255.28
2255290.0,226.0,33.0,232.0,252.0,2255.29
2255300.0,217.0,32.0,233.0,242.0,2255.3
2255310.0,215.0,32.0,228.0,243.0,2255.31
2255320.0,219.0,32.0,234.0,245.0,2255.32
2255330.0,224.0,31.0,240.0,253.0,2255.33
2255340.0,225.0,33.0,234.0,255.0,2255.34
2255350.0,220.0,32.0,234.0,247.0,2255.35
2255360.0,225.0,32.0,232.0,250.0,2255.36
2255370.0,220.0,32.0,233.0,250.0,2255.37
2255380.0,231.0,32.0,243.0,257.0,2255.38
2255390.0,233.0,33.0,236.0,255.0,2255.39
2255400.0,224.0,32.0,230.0,243.0,2255.4
2255410.0,227.0,33.0,227.0,247.0,2255.41
2255420.0,227.0,33.0,226.0,245.0,2255.42
2255430.0,231.0,32.0,230.0,249.0,2255.43
2255440.0,230.0,33.0,225.0,247.0,2255.44
2255450.0,227.0,32.0,223.0,241.0,2255.45
2255460.0,228.0,32.0,220.0,244.0,2255.46
2255470.0,227.0,33.0,220.0,244.0,2255.47
2255480.0,233.0,33.0,223.0,247.0,2255.48
2255490.0,233.0,34.0,221.0,248.0,2255.49
2255500.0,229.0,32.0,213.0,236.0,2255.5
2255510.0,231.0,33.0,214.0,242.0,2255.51
2255520.0,227.0,33.0,215.0,243.0,2255.52
2255531.0,227.0,32.0,216.0,243.0,2255.531
2255541.0,227.0,34.0,213.0,242.0,2255.541
2255551.0,220.0,32.0,204.0,231.0,2255.551
2255561.0,222.0,34.0,206.0,239.0,2255.561
2255571.0,229.0,34.0,215.0,246.0,2255.571
2255581.0,228.0,33.0,212.0,244.0,2255.581
2255591.0,226.0,34.0,210.0,246.0,2255.591
2255601.0,218.0,33.0,201.0,236.0,2255.601
2255611.0,222.0,34.0,205.0,244.0,2255.611
2255621.0,225.0,34.0,209.0,246.0,2255.621
2255631.0,225.0,33.0,207.0,245.0,2255.631
2255641.0,226.0,34.0,206.0,245.0,2255.641
2255651.0,218.0,34.0,198.0,236.0,2255.651
2255661.0,222.0,33.0,200.0,239.0,2255.661
2255671.0,225.0,35.0,207.0,246.0,2255.671
2255681.0,225.0,33.0,206.0,244.0,2255.681
2255691.0,223.0,33.0,205.0,245.0,2255.691
2255702.0,222.0,33.0,198.0,238.0,2255.702
2255712.0,230.0,33.0,206.0,249.0,2255.712
2255722.0,234.0,33.0,213.0,251.0,2255.722
2255732.0,229.0,33.0,203.0,243.0,2255.732
2255742.0,228.0,34.0,205.0,244.0,2255.742
2255752.0,222.0,34.0,196.0,237.0,2255.752
2255762.0,228.0,33.0,206.0,247.0,2255.762
2255772.0,232.0,34.0,212.0,251.0,2255.772
2255782.0,226.0,33.0,203.0,242.0,2255.782
2255792.0,227.0,33.0,204.0,243.0,2255.792
2255802.0,219.0,35.0,194.0,234.0,2255.802
2255812.0,226.0,34.0,204.0,243.0,2255.812
2255822.0,229.0,35.0,208.0,246.0,2255.822
2255832.0,226.0,34.0,203.0,240.0,2255.832
2255842.0,223.0,34.0,202.0,240.0,2255.842
2255852.0,216.0,33.0,196.0,234.0,2255.852
2255862.0,224.0,34.0,206.0,245.0,2255.862
2255872.0,228.0,34.0,208.0,244.0,2255.872
2255882.0,224.0,32.0,204.0,241.0,2255.882
2255892.0,223.0,33.0,201.0,238.0,2255.892
2255902.0,217.0,33.0,196.0,234.0,2255.902
2255912.0,228.0,33.0,207.0,245.0,2255.912
2255922.0,231.0,33.0,209.0,248.0,2255.922
2255932.0,226.0,33.0,205.0,242.0,2255.932
2255942.0,226.0,33.0,204.0,242.0,2255.942
2255952.0,220.0,32.0,201.0,240.0,2255.952
2255962.0,226.0,32.0,208.0,245.0,2255.962
2255972.0,230.0,33.0,211.0,249.0,2255.972
2255982.0,225.0,32.0,206.0,244.0,2255.982
2255992.0,225.0,34.0,204.0,244.0,2255.992
2256002.0,219.0,32.0,200.0,237.0,2256.002
2256012.0,225.0,32.0,208.0,246.0,2256.012
2256022.0,231.0,33.0,213.0,249.0,2256.022
2256032.0,224.0,32.0,208.0,243.0,2256.032
2256043.0,224.0,32.0,206.0,243.0,2256.043
2256053.0,222.0,33.0,207.0,245.0,2256.053
2256063.0,229.0,33.0,215.0,250.0,2256.063
2256073.0,228.0,34.0,211.0,248.0,2256.073
2256083.0,219.0,32.0,207.0,242.0,2256.083
2256093.0,224.0,33.0,209.0,245.0,2256.093
2256103.0,221.0,33.0,212.0,248.0,2256.103
2256113.0,227.0,33.0,219.0,253.0,2256.113
2256123.0,227.0,34.0,213.0,249.0,2256.123
2256133.0,222.0,32.0,212.0,246.0,2256.133
2256143.0,222.0,33.0,209.0,247.0,2256.143
2256153.0,225.0,33.0,215.0,249.0,2256.153
2256163.0,228.0,32.0,219.0,254.0,2256.163
2256173.0,230.0,33.0,217.0,253.0,2256.173
2256183.0,222.0,33.0,214.0,245.0,2256.183
2256193.0,215.0,34.0,206.0,241.0,2256.193
2256203.0,146.0,35.0,210.0,240.0,2256.203
2256214.0,8.0,36.0,209.0,239.0,2256.214
2256224.0,0.0,37.0,196.0,229.0,2256.224
2256234.0,0.0,37.0,186.0,221.0,2256.234
2256244.0,0.0,39.0,183.0,222.0,2256.244
2256254.0,0.0,38.0,185.0,223.0,2256.254
2256264.0,0.0,38.0,179.0,224.0,2256.264
2256274.0,0.0,38.0,175.0,216.0,2256.274
2256284.0,0.0,38.0,166.0,212.0,2256.284
2256294.0,665.0,43.0,183.0,228.0,2256.294
2256304.0,665.0,43.0,189.0,233.0,2256.304
2256314.0,665.0,42.0,191.0,238.0,2256.314
2256324.0,665.0,42.0,191.0,235.0,2256.324
2256334.0,664.0,41.0,185.0,231.0,2256.334
2256344.0,659.0,41.0,188.0,241.0,2256.344
2256354.0,60.0,41.0,205.0,249.0,2256.354
2256364.0,2.0,41.0,206.0,247.0,2256.364
2256374.0,0.0,40.0,195.0,238.0,2256.374
2256384.0,0.0,40.0,192.0,233.0,2256.384
2256394.0,0.0,40.0,186.0,231.0,2256.394
2256404.0,1.0,39.0,192.0,232.0,2256.404
2256414.0,690.0,51.0,201.0,243.0,2256.414
2256424.0,665.0,45.0,198.0,236.0,2256.424
2256434.0,663.0,45.0,193.0,235.0,2256.434
2256444.0,663.0,44.0,197.0,240.0,2256.444
2256454.0,665.0,44.0,205.0,246.0,2256.454
2256464.0,664.0,44.0,206.0,247.0,2256.464
2256474.0,665.0,43.0,205.0,245.0,2256.474
2256484.0,664.0,42.0,202.0,240.0,2256.484
2256494.0,664.0,41.0,206.0,245.0,2256.494
2256504.0,665.0,42.0,213.0,251.0,2256.504
2256514.0,665.0,40.0,215.0,250.0,2256.514
2256524.0,664.0,41.0,209.0,247.0,2256.524
2256534.0,665.0,40.0,209.0,241.0,2256.534
2256544.0,665.0,40.0,213.0,249.0,2256.544
2256555.0,665.0,40.0,220.0,254.0,2256.555
2256565.0,665.0,40.0,219.0,252.0,2256.565
2256575.0,665.0,38.0,214.0,249.0,2256.575
2256585.0,665.0,38.0,212.0,245.0,2256.585
2256595.0,665.0,39.0,224.0,254.0,2256.595
2256605.0,666.0,39.0,221.0,255.0,2256.605
2256615.0,665.0,38.0,221.0,249.0,2256.615
2256625.0,665.0,38.0,216.0,249.0,2256.625
2256635.0,666.0,38.0,216.0,246.0,2256.635
2256645.0,665.0,37.0,220.0,251.0,2256.645
2256655.0,666.0,37.0,225.0,255.0,2256.655
2256665.0,665.0,37.0,225.0,249.0,2256.665
2256675.0,665.0,37.0,220.0,248.0,2256.675
2256685.0,665.0,36.0,216.0,241.0,2256.685
2256695.0,665.0,38.0,224.0,251.0,2256.695
2256705.0,666.0,36.0,227.0,252.0,2256.705
2256715.0,664.0,36.0,225.0,248.0,2256.715
2256726.0,666.0,36.0,221.0,248.0,2256.726
2256736.0,666.0,36.0,223.0,248.0,2256.736
2256746.0,665.0,36.0,231.0,256.0,2256.746
2256756.0,665.0,36.0,224.0,253.0,2256.756
2256766.0,665.0,36.0,223.0,246.0,2256.766
2256776.0,665.0,35.0,221.0,249.0,2256.776
2256786.0,665.0,35.0,226.0,251.0,2256.786
2256796.0,660.0,35.0,232.0,255.0,2256.796
2256806.0,665.0,35.0,225.0,250.0,2256.806
2256816.0,664.0,34.0,228.0,249.0,2256.816
2256826.0,663.0,35.0,224.0,250.0,2256.826
2256836.0,664.0,34.0,231.0,254.0,2256.836
2256846.0,664.0,35.0,237.0,257.0,2256.846
2256856.0,666.0,34.0,231.0,255.0,2256.856
2256866.0,663.0,34.0,230.0,249.0,2256.866
2256876.0,663.0,33.0,226.0,249.0,2256.876
2256886.0,664.0,35.0,231.0,253.0,2256.886
2256896.0,663.0,34.0,235.0,255.0,2256.896
2256906.0,664.0,34.0,229.0,252.0,2256.906
2256916.0,664.0,34.0,232.0,246.0,2256.916
2256926.0,664.0,34.0,227.0,248.0,2256.926
2256936.0,666.0,34.0,235.0,253.0,2256.936
2256946.0,665.0,33.0,240.0,259.0,2256.946
2256956.0,665.0,34.0,234.0,255.0,2256.956
2256966.0,664.0,33.0,237.0,251.0,2256.966
2256976.0,665.0,33.0,233.0,251.0,2256.976
2256986.0,666.0,33.0,234.0,252.0,2256.986
2256996.0,665.0,34.0,240.0,259.0,2256.996
2257006.0,665.0,33.0,235.0,257.0,2257.006
2257016.0,665.0,33.0,237.0,251.0,2257.016
2257026.0,665.0,34.0,234.0,252.0,2257.026
2257036.0,666.0,33.0,238.0,252.0,2257.036
2257046.0,665.0,33.0,248.0,259.0,2257.046
2257056.0,665.0,33.0,239.0,256.0,2257.056
2257067.0,664.0,33.0,242.0,252.0,2257.067
2257077.0,664.0,34.0,238.0,254.0,2257.077
2257087.0,665.0,32.0,246.0,261.0,2257.087
2257097.0,664.0,32.0,251.0,261.0,2257.097
2257107.0,666.0,33.0,237.0,257.0,2257.107
2257117.0,665.0,31.0,240.0,252.0,2257.117
2257127.0,665.0,32.0,238.0,256.0,2257.127
2257137.0,666.0,33.0,244.0,260.0,2257.137
2257147.0,665.0,33.0,249.0,257.0,2257.147
2257157.0,665.0,32.0,241.0,254.0,2257.157
2257167.0,665.0,33.0,247.0,249.0,2257.167
2257177.0,666.0,32.0,248.0,254.0,2257.177
2257187.0,666.0,33.0,252.0,259.0,2257.187
2257197.0,665.0,32.0,259.0,260.0,2257.197
2257207.0,665.0,33.0,248.0,256.0,2257.207
2257217.0,665.0,32.0,253.0,251.0,2257.217
2257227.0,665.0,32.0,251.0,256.0,2257.227
2257238.0,667.0,33.0,256.0,260.0,2257.238
2257248.0,665.0,32.0,261.0,257.0,2257.248
2257258.0,665.0,32.0,251.0,253.0,2257.258
2257268.0,666.0,33.0,255.0,253.0,2257.268
2257278.0,665.0,32.0,264.0,260.0,2257.278
2257288.0,666.0,32.0,261.0,260.0,2257.288
2257298.0,665.0,33.0,265.0,258.0,2257.298
2257308.0,666.0,33.0,256.0,256.0,2257.308
2257318.0,666.0,32.0,262.0,258.0,2257.318
2257328.0,665.0,32.0,264.0,264.0,2257.328
2257338.0,666.0,34.0,266.0,268.0,2257.338
2257348.0,665.0,32.0,270.0,263.0,2257.348
2257358.0,666.0,32.0,257.0,260.0,2257.358
2257368.0,666.0,33.0,260.0,257.0,2257.368
2257378.0,665.0,33.0,264.0,266.0,2257.378
2257388.0,666.0,33.0,262.0,266.0,2257.388
2257398.0,665.0,34.0,265.0,265.0,2257.398
2257408.0,666.0,33.0,256.0,262.0,2257.408
2257418.0,666.0,32.0,259.0,259.0,2257.418
2257428.0,666.0,32.0,265.0,266.0,2257.428
2257438.0,667.0,33.0,260.0,266.0,2257.438
2257448.0,665.0,32.0,265.0,263.0,2257.448
2257458.0,665.0,33.0,256.0,263.0,2257.458
2257468.0,666.0,33.0,258.0,259.0,2257.468
2257478.0,665.0,32.0,266.0,269.0,2257.478
2257488.0,666.0,33.0,257.0,266.0,2257.488
2257498.0,666.0,33.0,262.0,264.0,2257.498
2257508.0,665.0,33.0,252.0,261.0,2257.508
2257518.0,666.0,33.0,254.0,258.0,2257.518
2257528.0,665.0,34.0,259.0,266.0,2257.528
2257538.0,666.0,32.0,257.0,266.0,2257.538
2257548.0,665.0,33.0,257.0,262.0,2257.548
2257558.0,666.0,33.0,249.0,259.0,2257.558
2257568.0,666.0,33.0,250.0,258.0,2257.568
2257579.0,665.0,33.0,260.0,264.0,2257.579
2257589.0,666.0,34.0,252.0,264.0,2257.589
2257599.0,665.0,33.0,253.0,257.0,2257.599
2257609.0,665.0,33.0,245.0,255.0,2257.609
2257619.0,666.0,34.0,252.0,261.0,2257.619
2257629.0,666.0,33.0,255.0,263.0,2257.629
2257639.0,666.0,33.0,246.0,258.0,2257.639
2257649.0,665.0,33.0,246.0,254.0,2257.649
2257659.0,665.0,34.0,240.0,254.0,2257.659
2257669.0,666.0,32.0,245.0,256.0,2257.669
2257679.0,665.0,33.0,252.0,264.0,2257.679
2257689.0,666.0,33.0,244.0,259.0,2257.689
2257699.0,665.0,33.0,245.0,253.0,2257.699
2257709.0,666.0,33.0,240.0,255.0,2257.709
2257719.0,666.0,33.0,245.0,257.0,2257.719
2257729.0,665.0,32.0,250.0,261.0,2257.729
2257739.0,665.0,33.0,240.0,258.0,2257.739
2257750.0,666.0,32.0,243.0,252.0,2257.75
2257760.0,666.0,33.0,239.0,255.0,2257.76
2257770.0,666.0,33.0,247.0,261.0,2257.77
2257780.0,665.0,33.0,250.0,259.0,2257.78
2257790.0,666.0,32.0,240.0,255.0,2257.79
2257800.0,666.0,32.0,241.0,249.0,2257.8
2257810.0,665.0,32.0,239.0,253.0,2257.81
2257820.0,667.0,31.0,246.0,259.0,2257.82
2257830.0,665.0,32.0,247.0,256.0,2257.83
2257840.0,665.0,33.0,239.0,256.0,2257.84
2257850.0,665.0,33.0,240.0,247.0,2257.85
2257860.0,665.0,32.0,241.0,253.0,2257.86
2257870.0,666.0,33.0,247.0,260.0,2257.87
2257880.0,666.0,33.0,251.0,257.0,2257.88
2257890.0,665.0,32.0,240.0,254.0,2257.89
2257900.0,665.0,32.0,241.0,245.0,2257.9
2257910.0,666.0,33.0,243.0,254.0,2257.91
2257920.0,666.0,32.0,246.0,256.0,2257.92
2257930.0,665.0,31.0,250.0,254.0,2257.93
2257940.0,666.0,32.0,240.0,252.0,2257.94
2257950.0,665.0,31.0,242.0,244.0,2257.95
2257960.0,665.0,32.0,244.0,251.0,2257.96
2257970.0,657.0,33.0,247.0,253.0,2257.97
2257980.0,644.0,33.0,249.0,252.0,2257.98
2257990.0,633.0,32.0,239.0,250.0,2257.99
2258000.0,622.0,32.0,239.0,243.0,2258.0
2258010.0,612.0,33.0,241.0,249.0,2258.01
2258020.0,602.0,32.0,248.0,257.0,2258.02
2258030.0,590.0,32.0,250.0,252.0,2258.03
2258040.0,580.0,33.0,240.0,252.0,2258.04
2258050.0,570.0,32.0,244.0,244.0,2258.05
2258060.0,560.0,32.0,241.0,248.0,2258.06
2258070.0,551.0,32.0,249.0,255.0,2258.07
2258080.0,540.0,31.0,250.0,251.0,2258.08
2258091.0,530.0,31.0,240.0,249.0,2258.091
2258101.0,522.0,32.0,242.0,243.0,2258.101
2258111.0,511.0,32.0,252.0,253.0,2258.111
2258121.0,503.0,31.0,247.0,253.0,2258.121
2258131.0,493.0,31.0,252.0,245.0,2258.131
2258141.0,486.0,31.0,244.0,248.0,2258.141
2258151.0,477.0,31.0,246.0,243.0,2258.151
2258161.0,468.0,31.0,254.0,252.0,2258.161
2258171.0,461.0,32.0,249.0,254.0,2258.171
2258181.0,453.0,30.0,254.0,248.0,2258.181
2258191.0,445.0,30.0,244.0,248.0,2258.191
2258201.0,438.0,31.0,247.0,245.0,2258.201
2258211.0,429.0,31.0,255.0,255.0,2258.211
2258221.0,423.0,30.0,250.0,254.0,2258.221
2258231.0,415.0,32.0,250.0,248.0,2258.231
2258241.0,408.0,30.0,241.0,246.0,2258.241
2258251.0,401.0,31.0,243.0,243.0,2258.251
2258262.0,394.0,30.0,252.0,251.0,2258.262
2258272.0,387.0,31.0,243.0,251.0,2258.272
2258282.0,380.0,30.0,246.0,242.0,2258.282
2258292.0,373.0,31.0,240.0,246.0,2258.292
2258302.0,368.0,30.0,247.0,250.0,2258.302
2258312.0,361.0,30.0,251.0,252.0,2258.312
2258322.0,355.0,30.0,243.0,250.0,2258.322
2258332.0,349.0,30.0,245.0,241.0,2258.332
2258342.0,342.0,31.0,240.0,244.0,2258.342
2258352.0,338.0,29.0,244.0,246.0,2258.352
2258362.0,332.0,31.0,251.0,252.0,2258.362
2258372.0,326.0,30.0,242.0,250.0,2258.372
2258382.0,321.0,30.0,242.0,241.0,2258.382
2258392.0,317.0,30.0,239.0,245.0,2258.392
2258402.0,311.0,30.0,242.0,247.0,2258.402
2258412.0,305.0,30.0,249.0,251.0,2258.412
2258422.0,300.0,31.0,240.0,249.0,2258.422
2258432.0,295.0,30.0,243.0,243.0,2258.432
2258442.0,290.0,30.0,237.0,245.0,2258.442
2258452.0,286.0,31.0,241.0,249.0,2258.452
2258462.0,281.0,31.0,246.0,251.0,2258.462
2258472.0,276.0,31.0,236.0,248.0,2258.472
2258482.0,272.0,30.0,239.0,243.0,2258.482
2258492.0,267.0,32.0,232.0,243.0,2258.492
2258502.0,263.0,30.0,238.0,247.0,2258.502
2258512.0,258.0,31.0,242.0,248.0,2258.512
2258522.0,256.0,31.0,237.0,249.0,2258.522
2258532.0,250.0,30.0,236.0,242.0,2258.532
2258542.0,246.0,31.0,232.0,243.0,2258.542
2258552.0,242.0,32.0,238.0,248.0,2258.552
2258562.0,238.0,30.0,241.0,248.0,2258.562
2258572.0,234.0,31.0,233.0,247.0,2258.572
2258582.0,231.0,31.0,237.0,241.0,2258.582
2258592.0,227.0,31.0,231.0,244.0,2258.592
2258603.0,224.0,31.0,239.0,251.0,2258.603
2258613.0,219.0,31.0,243.0,252.0,2258.613
2258623.0,216.0,31.0,234.0,251.0,2258.623
2258633.0,213.0,30.0,233.0,240.0,2258.633
2258643.0,209.0,31.0,239.0,250.0,2258.643
2258653.0,207.0,31.0,241.0,254.0,2258.653
2258663.0,202.0,31.0,243.0,251.0,2258.663
2258673.0,199.0,31.0,234.0,250.0,2258.673
2258683.0,196.0,32.0,233.0,242.0,2258.683
2258693.0,193.0,31.0,234.0,247.0,2258.693
2258703.0,191.0,32.0,240.0,254.0,2258.703
2258713.0,188.0,31.0,243.0,250.0,2258.713
2258723.0,184.0,31.0,232.0,249.0,2258.723
2258733.0,182.0,31.0,235.0,241.0,2258.733
2258743.0,178.0,33.0,234.0,248.0,2258.743
2258753.0,176.0,32.0,241.0,253.0,2258.753
2258763.0,172.0,31.0,241.0,249.0,2258.763
2258774.0,170.0,31.0,235.0,247.0,2258.774
2258784.0,168.0,31.0,234.0,242.0,2258.784
2258794.0,164.0,31.0,241.0,252.0,2258.794
2258804.0,163.0,32.0,238.0,254.0,2258.804
2258814.0,160.0,31.0,239.0,246.0,2258.814
2258824.0,157.0,32.0,232.0,246.0,2258.824
2258834.0,156.0,31.0,232.0,242.0,2258.834
2258844.0,153.0,31.0,240.0,251.0,2258.844
2258854.0,150.0,32.0,235.0,252.0,2258.854
2258864.0,148.0,31.0,238.0,248.0,2258.864
2258874.0,145.0,32.0,231.0,248.0,2258.874
2258884.0,143.0,31.0,232.0,243.0,2258.884
2258894.0,147.0,32.0,240.0,253.0,2258.894
2258904.0,170.0,33.0,240.0,254.0,2258.904
2258914.0,168.0,33.0,238.0,248.0,2258.914
2258924.0,207.0,33.0,231.0,248.0,2258.924
2258934.0,217.0,34.0,232.0,247.0,2258.934
2258944.0,247.0,34.0,236.0,251.0,2258.944
2258954.0,286.0,34.0,236.0,254.0,2258.954
2258964.0,294.0,34.0,236.0,246.0,2258.964
2258974.0,346.0,34.0,230.0,247.0,2258.974
2258984.0,366.0,35.0,231.0,245.0,2258.984
2258994.0,397.0,34.0,235.0,252.0,2258.994
2259004.0,445.0,35.0,235.0,255.0,2259.004
2259014.0,455.0,34.0,234.0,247.0,2259.014
2259024.0,507.0,36.0,228.0,248.0,2259.024
2259034.0,521.0,35.0,228.0,243.0,2259.034
2259044.0,559.0,36.0,235.0,252.0,2259.044
2259054.0,605.0,36.0,233.0,254.0,2259.054
2259064.0,612.0,37.0,232.0,247.0,2259.064
2259074.0,660.0,36.0,228.0,248.0,2259.074
2259084.0,666.0,36.0,227.0,242.0,2259.084
2259094.0,666.0,36.0,237.0,252.0,2259.094
2259104.0,666.0,37.0,233.0,253.0,2259.104
2259115.0,665.0,35.0,233.0,245.0,2259.115
2259125.0,665.0,37.0,227.0,248.0,2259.125
2259135.0,666.0,36.0,232.0,250.0,2259.135
2259145.0,665.0,35.0,237.0,252.0,2259.145
2259155.0,665.0,36.0,230.0,251.0,2259.155
2259165.0,666.0,35.0,231.0,245.0,2259.165
2259175.0,665.0,35.0,227.0,247.0,2259.175
2259185.0,666.0,35.0,233.0,252.0,2259.185
2259195.0,665.0,35.0,236.0,253.0,2259.195
2259205.0,666.0,34.0,231.0,252.0,2259.205
2259215.0,665.0,34.0,229.0,244.0,2259.215
2259225.0,666.0,35.0,227.0,246.0,2259.225
2259235.0,666.0,35.0,233.0,251.0,2259.235
2259245.0,665.0,33.0,237.0,252.0,2259.245
2259255.0,666.0,35.0,229.0,252.0,2259.255
2259265.0,665.0,33.0,230.0,242.0,2259.265
2259275.0,665.0,33.0,227.0,246.0,2259.275
2259286.0,667.0,33.0,236.0,253.0,2259.286
2259296.0,666.0,34.0,238.0,252.0,2259.296
2259306.0,665.0,33.0,230.0,249.0,2259.306
2259316.0,665.0,33.0,228.0,241.0,2259.316
2259326.0,665.0,33.0,235.0,250.0,2259.326
2259336.0,666.0,34.0,237.0,254.0,2259.336
2259346.0,665.0,33.0,238.0,250.0,2259.346
2259356.0,665.0,33.0,231.0,249.0,2259.356
2259366.0,665.0,33.0,228.0,242.0,2259.366
2259376.0,665.0,33.0,230.0,248.0,2259.376
2259386.0,666.0,35.0,237.0,254.0,2259.386
2259396.0,665.0,32.0,239.0,250.0,2259.396
2259406.0,665.0,33.0,231.0,249.0,2259.406
2259416.0,666.0,33.0,233.0,241.0,2259.416
2259426.0,665.0,33.0,233.0,248.0,2259.426
2259436.0,666.0,33.0,239.0,256.0,2259.436
2259446.0,665.0,33.0,239.0,251.0,2259.446
2259456.0,665.0,34.0,232.0,250.0,2259.456
2259466.0,665.0,32.0,232.0,241.0,2259.466
2259476.0,666.0,33.0,233.0,247.0,2259.476
2259486.0,666.0,34.0,238.0,252.0,2259.486
2259496.0,665.0,34.0,237.0,245.0,2259.496
2259506.0,665.0,33.0,230.0,246.0,2259.506
2259516.0,665.0,34.0,228.0,237.0,2259.516
2259526.0,665.0,34.0,233.0,246.0,2259.526
2259536.0,666.0,33.0,237.0,253.0,2259.536
2259546.0,666.0,33.0,240.0,250.0,2259.546
2259556.0,665.0,34.0,229.0,247.0,2259.556
2259566.0,665.0,33.0,225.0,237.0,2259.566
2259576.0,665.0,34.0,232.0,248.0,2259.576
2259586.0,666.0,34.0,234.0,251.0,2259.586
2259596.0,665.0,33.0,235.0,248.0,2259.596
2259606.0,666.0,33.0,228.0,247.0,2259.606
2259616.0,666.0,32.0,226.0,239.0,2259.616
2259627.0,666.0,33.0,233.0,248.0,2259.627
2259637.0,666.0,33.0,233.0,251.0,2259.637
2259647.0,665.0,33.0,230.0,242.0,2259.647
2259657.0,665.0,32.0,225.0,243.0,2259.657
2259667.0,666.0,33.0,227.0,243.0,2259.667
2259677.0,666.0,33.0,232.0,247.0,2259.677
2259687.0,666.0,33.0,230.0,250.0,2259.687
2259697.0,665.0,32.0,228.0,241.0,2259.697
2259707.0,665.0,33.0,223.0,244.0,2259.707
2259717.0,666.0,32.0,221.0,238.0,2259.717
2259727.0,666.0,32.0,230.0,247.0,2259.727
2259737.0,667.0,32.0,230.0,250.0,2259.737
2259747.0,665.0,31.0,228.0,241.0,2259.747
2259757.0,665.0,32.0,224.0,244.0,2259.757
2259767.0,666.0,33.0,224.0,240.0,2259.767
2259777.0,665.0,32.0,233.0,248.0,2259.777
2259787.0,666.0,32.0,229.0,250.0,2259.787
2259798.0,665.0,32.0,231.0,242.0,2259.798
2259808.0,666.0,32.0,228.0,246.0,2259.808
2259818.0,666.0,32.0,233.0,249.0,2259.818
2259828.0,665.0,32.0,238.0,251.0,2259.828
2259838.0,666.0,32.0,229.0,248.0,2259.838
2259848.0,665.0,31.0,231.0,240.0,2259.848
2259858.0,665.0,32.0,227.0,245.0,2259.858
2259868.0,667.0,31.0,235.0,250.0,2259.868
2259878.0,665.0,31.0,238.0,251.0,2259.878
2259888.0,666.0,32.0,232.0,252.0,2259.888
2259898.0,665.0,33.0,230.0,242.0,2259.898
2259908.0,665.0,31.0,227.0,245.0,2259.908
2259918.0,666.0,31.0,233.0,249.0,2259.918
2259928.0,666.0,31.0,237.0,249.0,2259.928
2259938.0,666.0,31.0,229.0,249.0,2259.938
2259948.0,665.0,31.0,229.0,240.0,2259.948
2259958.0,665.0,32.0,226.0,245.0,2259.958
2259968.0,666.0,32.0,230.0,246.0,2259.968
2259978.0,665.0,32.0,235.0,249.0,2259.978
2259988.0,665.0,32.0,228.0,248.0,2259.988
2259998.0,665.0,31.0,226.0,239.0,2259.998
2260008.0,665.0,31.0,224.0,243.0,2260.008
2260018.0,666.0,32.0,228.0,245.0,2260.018
2260028.0,665.0,33.0,234.0,249.0,2260.028
2260038.0,665.0,32.0,226.0,246.0,2260.038
2260048.0,665.0,31.0,224.0,238.0,2260.048
2260058.0,666.0,32.0,224.0,243.0,2260.058
2260068.0,666.0,31.0,228.0,247.0,2260.068
2260078.0,665.0,31.0,232.0,247.0,2260.078
2260088.0,665.0,33.0,225.0,248.0,2260.088
2260098.0,665.0,32.0,227.0,240.0,2260.098
2260108.0,665.0,32.0,224.0,243.0,2260.108
2260118.0,666.0,32.0,230.0,248.0,2260.118
2260128.0,666.0,31.0,234.0,248.0,2260.128
2260139.0,665.0,32.0,224.0,247.0,2260.139
2260149.0,665.0,32.0,223.0,237.0,2260.149
2260159.0,665.0,33.0,227.0,246.0,2260.159
2260169.0,666.0,32.0,232.0,253.0,2260.169
2260179.0,665.0,32.0,230.0,247.0,2260.179
2260189.0,665.0,33.0,226.0,248.0,2260.189
2260199.0,665.0,32.0,222.0,237.0,2260.199
2260209.0,665.0,32.0,227.0,245.0,2260.209
2260219.0,666.0,33.0,229.0,249.0,2260.219
2260229.0,665.0,32.0,231.0,244.0,2260.229
2260239.0,665.0,32.0,223.0,243.0,2260.239
2260249.0,666.0,32.0,222.0,235.0,2260.249
2260259.0,666.0,31.0,228.0,246.0,2260.259
2260269.0,666.0,33.0,231.0,249.0,2260.269
2260279.0,665.0,33.0,233.0,247.0,2260.279
2260289.0,665.0,33.0,226.0,245.0,2260.289
2260299.0,666.0,32.0,225.0,236.0,2260.299
2260310.0,665.0,32.0,233.0,247.0,2260.31
2260320.0,666.0,33.0,234.0,251.0,2260.32
2260330.0,665.0,32.0,234.0,243.0,2260.33
2260340.0,665.0,33.0,228.0,245.0,2260.34
2260350.0,666.0,33.0,232.0,245.0,2260.35
2260360.0,665.0,32.0,236.0,248.0,2260.36
2260370.0,666.0,33.0,234.0,252.0,2260.37
2260380.0,666.0,32.0,235.0,243.0,2260.38
2260390.0,665.0,33.0,229.0,245.0,2260.39
2260400.0,666.0,33.0,229.0,241.0,2260.4
2260410.0,665.0,33.0,238.0,251.0,2260.41
2260420.0,666.0,33.0,235.0,252.0,2260.42
2260430.0,665.0,33.0,234.0,244.0,2260.43
2260440.0,665.0,33.0,230.0,247.0,2260.44
2260450.0,667.0,33.0,230.0,242.0,2260.45
2260460.0,665.0,33.0,238.0,251.0,2260.46
2260470.0,666.0,33.0,233.0,252.0,2260.47
2260480.0,665.0,34.0,235.0,246.0,2260.48
2260490.0,665.0,32.0,229.0,246.0,2260.49
2260500.0,666.0,33.0,229.0,244.0,2260.5
2260510.0,665.0,33.0,238.0,251.0,2260.51
2260520.0,666.0,34.0,232.0,251.0,2260.52
2260530.0,665.0,33.0,232.0,244.0,2260.53
2260540.0,665.0,34.0,227.0,246.0,2260.54
2260550.0,666.0,33.0,229.0,244.0,2260.55
2260560.0,665.0,32.0,237.0,252.0,2260.56
2260570.0,667.0,33.0,235.0,252.0,2260.57
2260580.0,665.0,33.0,232.0,245.0,2260.58
2260590.0,665.0,33.0,227.0,246.0,2260.59
2260600.0,666.0,33.0,230.0,248.0,2260.6
2260610.0,665.0,34.0,233.0,252.0,2260.61
2260620.0,666.0,33.0,233.0,255.0,2260.62
2260630.0,665.0,33.0,230.0,246.0,2260.63
2260640.0,666.0,33.0,227.0,247.0,2260.64
2260651.0,666.0,34.0,228.0,249.0,2260.651
2260661.0,665.0,33.0,234.0,252.0,2260.661
2260671.0,665.0,35.0,226.0,251.0,2260.671
2260681.0,665.0,33.0,225.0,240.0,2260.681
2260691.0,665.0,33.0,223.0,245.0,2260.691
2260701.0,667.0,33.0,229.0,250.0,2260.701
2260711.0,665.0,33.0,232.0,253.0,2260.711
2260721.0,665.0,33.0,225.0,251.0,2260.721
2260731.0,665.0,33.0,223.0,242.0,2260.731
2260741.0,665.0,33.0,222.0,246.0,2260.741
2260751.0,666.0,32.0,227.0,250.0,2260.751
2260761.0,665.0,33.0,232.0,251.0,2260.761
2260771.0,665.0,33.0,224.0,249.0,2260.771
2260781.0,662.0,33.0,224.0,242.0,2260.781
2260791.0,665.0,33.0,221.0,245.0,2260.791
2260801.0,666.0,33.0,229.0,251.0,2260.801
2260811.0,651.0,32.0,234.0,251.0,2260.811
2260822.0,665.0,34.0,225.0,250.0,2260.822
2260832.0,642.0,33.0,224.0,240.0,2260.832
2260842.0,651.0,33.0,228.0,248.0,2260.842
2260852.0,656.0,33.0,233.0,253.0,2260.852
2260862.0,629.0,34.0,231.0,247.0,2260.862
2260872.0,649.0,34.0,226.0,247.0,2260.872
2260882.0,621.0,33.0,224.0,238.0,2260.882
2260892.0,629.0,34.0,230.0,248.0,2260.892
2260902.0,635.0,34.0,232.0,253.0,2260.902
2260912.0,610.0,33.0,234.0,248.0,2260.912
2260922.0,627.0,33.0,227.0,249.0,2260.922
2260932.0,601.0,32.0,224.0,240.0,2260.932
2260942.0,607.0,33.0,230.0,249.0,2260.942
2260952.0,612.0,33.0,233.0,252.0,2260.952
2260962.0,591.0,33.0,235.0,248.0,2260.962
2260972.0,608.0,33.0,227.0,247.0,2260.972
2260982.0,583.0,32.0,224.0,239.0,2260.982
2260992.0,594.0,33.0,227.0,246.0,2260.992
2261002.0,594.0,32.0,235.0,253.0,2261.002
2261012.0,571.0,32.0,236.0,248.0,2261.012
2261022.0,588.0,32.0,229.0,248.0,2261.022
2261032.0,566.0,31.0,228.0,241.0,2261.032
2261042.0,575.0,32.0,232.0,248.0,2261.042
2261052.0,577.0,33.0,240.0,256.0,2261.052
2261062.0,553.0,31.0,241.0,247.0,2261.062
2261072.0,569.0,32.0,232.0,248.0,2261.072
2261082.0,546.0,32.0,234.0,240.0,2261.082
2261092.0,554.0,31.0,237.0,249.0,2261.092
2261102.0,559.0,32.0,241.0,255.0,2261.102
2261112.0,534.0,32.0,241.0,247.0,2261.112
2261122.0,554.0,33.0,234.0,248.0,2261.122
2261132.0,527.0,31.0,233.0,238.0,2261.132
2261142.0,534.0,32.0,239.0,249.0,2261.142
2261152.0,542.0,31.0,243.0,253.0,2261.152
2261163.0,515.0,31.0,241.0,246.0,2261.163
2261173.0,531.0,31.0,234.0,247.0,2261.173
2261183.0,514.0,31.0,235.0,246.0,2261.183
2261193.0,509.0,31.0,244.0,253.0,2261.193
2261203.0,526.0,32.0,237.0,253.0,2261.203
2261213.0,499.0,32.0,241.0,247.0,2261.213
2261223.0,515.0,31.0,233.0,248.0,2261.223
2261233.0,498.0,31.0,235.0,246.0,2261.233
2261243.0,491.0,32.0,243.0,253.0,2261.243
2261253.0,507.0,32.0,239.0,254.0,2261.253
2261263.0,481.0,31.0,239.0,246.0,2261.263
2261273.0,498.0,31.0,234.0,249.0,2261.273
2261283.0,487.0,31.0,236.0,249.0,2261.283
2261293.0,482.0,31.0,240.0,253.0,2261.293
2261303.0,494.0,32.0,237.0,255.0,2261.303
2261313.0,468.0,31.0,233.0,246.0,2261.313
2261323.0,484.0,31.0,229.0,247.0,2261.323
2261334.0,472.0,31.0,235.0,253.0,2261.334
2261344.0,464.0,31.0,240.0,255.0,2261.344
2261354.0,480.0,31.0,231.0,253.0,2261.354
2261364.0,454.0,31.0,228.0,243.0,2261.364
2261374.0,469.0,32.0,228.0,248.0,2261.374
2261384.0,462.0,31.0,232.0,250.0,2261.384
2261394.0,449.0,31.0,236.0,253.0,2261.394
2261404.0,469.0,32.0,230.0,250.0,2261.404
2261414.0,441.0,31.0,226.0,242.0,2261.414
2261424.0,457.0,32.0,224.0,246.0,2261.424
2261434.0,450.0,32.0,229.0,251.0,2261.434
2261444.0,437.0,32.0,232.0,251.0,2261.444
2261454.0,455.0,32.0,225.0,248.0,2261.454
2261464.0,429.0,31.0,226.0,243.0,2261.464
2261474.0,442.0,31.0,224.0,245.0,2261.474
2261484.0,438.0,31.0,230.0,252.0,2261.484
2261494.0,422.0,31.0,233.0,251.0,2261.494
2261504.0,442.0,32.0,227.0,251.0,2261.504
2261514.0,415.0,31.0,225.0,242.0,2261.514
2261524.0,431.0,31.0,224.0,247.0,2261.524
2261534.0,428.0,32.0,232.0,255.0,2261.534
2261544.0,410.0,31.0,234.0,255.0,2261.544
2261554.0,430.0,31.0,228.0,254.0,2261.554
2261564.0,405.0,32.0,226.0,246.0,2261.564
2261574.0,419.0,32.0,225.0,248.0,2261.574
2261584.0,417.0,32.0,232.0,254.0,2261.584
2261594.0,403.0,32.0,234.0,255.0,2261.594
2261604.0,421.0,31.0,228.0,252.0,2261.604
2261614.0,395.0,32.0,225.0,245.0,2261.614
2261624.0,408.0,32.0,225.0,249.0,2261.624
2261634.0,404.0,33.0,229.0,253.0,2261.634
2261644.0,393.0,32.0,235.0,256.0,2261.644
2261654.0,408.0,32.0,226.0,252.0,2261.654
2261664.0,385.0,32.0,225.0,245.0,2261.664
2261675.0,397.0,31.0,226.0,250.0,2261.675
2261685.0,401.0,32.0,234.0,257.0,2261.685
2261695.0,382.0,32.0,234.0,255.0,2261.695
2261705.0,398.0,32.0,227.0,250.0,2261.705
2261715.0,378.0,32.0,225.0,246.0,2261.715
2261725.0,386.0,32.0,228.0,251.0,2261.725
2261735.0,391.0,31.0,235.0,258.0,2261.735
2261745.0,371.0,32.0,237.0,254.0,2261.745
2261755.0,388.0,33.0,230.0,255.0,2261.755
2261765.0,367.0,32.0,227.0,246.0,2261.765
2261775.0,373.0,32.0,232.0,253.0,2261.775
2261785.0,382.0,32.0,237.0,258.0,2261.785
2261795.0,361.0,31.0,235.0,252.0,2261.795
2261805.0,378.0,32.0,228.0,252.0,2261.805
2261815.0,355.0,31.0,227.0,244.0,2261.815
2261825.0,365.0,33.0,234.0,255.0,2261.825
2261835.0,374.0,32.0,236.0,258.0,2261.835
2261846.0,353.0,32.0,234.0,252.0,2261.846
2261856.0,369.0,32.0,229.0,251.0,2261.856
2261866.0,355.0,32.0,227.0,248.0,2261.866
2261876.0,354.0,32.0,237.0,256.0,2261.876
2261886.0,369.0,33.0,231.0,255.0,2261.886
2261896.0,346.0,32.0,232.0,249.0,2261.896
2261906.0,359.0,32.0,226.0,249.0,2261.906
2261916.0,350.0,32.0,230.0,251.0,2261.916
2261926.0,346.0,31.0,237.0,257.0,2261.926
2261936.0,360.0,33.0,233.0,257.0,2261.936
2261946.0,338.0,32.0,233.0,250.0,2261.946
2261956.0,352.0,33.0,227.0,250.0,2261.956
2261966.0,343.0,32.0,232.0,251.0,2261.966
2261976.0,341.0,33.0,236.0,256.0,2261.976
2261986.0,354.0,33.0,236.0,259.0,2261.986
2261996.0,331.0,32.0,234.0,250.0,2261.996
2262006.0,345.0,32.0,230.0,251.0,2262.006
2262016.0,331.0,32.0,229.0,248.0,2262.016
2262026.0,334.0,32.0,238.0,256.0,2262.026
2262036.0,347.0,32.0,234.0,256.0,2262.036
2262046.0,324.0,32.0,237.0,248.0,2262.046
2262056.0,336.0,32.0,231.0,250.0,2262.056
2262066.0,324.0,32.0,233.0,249.0,2262.066
2262076.0,326.0,33.0,240.0,256.0,2262.076
2262086.0,339.0,32.0,234.0,254.0,2262.086
2262096.0,316.0,32.0,234.0,246.0,2262.096
2262106.0,329.0,33.0,230.0,250.0,2262.106
2262116.0,320.0,31.0,232.0,248.0,2262.116
2262126.0,319.0,32.0,238.0,255.0,2262.126
2262136.0,333.0,33.0,232.0,253.0,2262.136
2262146.0,312.0,33.0,235.0,251.0,2262.146
2262156.0,325.0,32.0,230.0,250.0,2262.156
2262166.0,315.0,32.0,231.0,250.0,2262.166
2262176.0,315.0,32.0,240.0,257.0,2262.176
2262187.0,326.0,32.0,232.0,255.0,2262.187
2262197.0,305.0,32.0,229.0,246.0,2262.197
2262207.0,315.0,33.0,227.0,250.0,2262.207
2262217.0,316.0,32.0,235.0,256.0,2262.217
2262227.0,303.0,32.0,234.0,253.0,2262.227
2262237.0,319.0,33.0,228.0,252.0,2262.237
2262247.0,297.0,31.0,227.0,244.0,2262.247
2262257.0,307.0,33.0,227.0,249.0,2262.257
2262267.0,311.0,33.0,235.0,256.0,2262.267
2262277.0,299.0,33.0,237.0,254.0,2262.277
2262287.0,311.0,32.0,228.0,251.0,2262.287
2262297.0,289.0,32.0,229.0,243.0,2262.297
2262307.0,300.0,33.0,228.0,249.0,2262.307
2262317.0,299.0,32.0,232.0,251.0,2262.317
2262327.0,292.0,32.0,237.0,253.0,2262.327
2262337.0,305.0,33.0,229.0,250.0,2262.337
2262347.0,285.0,32.0,227.0,240.0,2262.347
2262358.0,293.0,32.0,228.0,246.0,2262.358
2262368.0,301.0,32.0,236.0,253.0,2262.368
2262378.0,285.0,32.0,234.0,248.0,2262.378
2262388.0,298.0,32.0,227.0,247.0,2262.388
2262398.0,283.0,33.0,225.0,243.0,2262.398
2262408.0,289.0,33.0,229.0,246.0,2262.408
2262418.0,297.0,32.0,233.0,253.0,2262.418
2262428.0,280.0,33.0,233.0,247.0,2262.428
2262438.0,291.0,32.0,227.0,246.0,2262.438
2262448.0,274.0,32.0,226.0,240.0,2262.448
2262458.0,283.0,32.0,232.0,250.0,2262.458
2262468.0,291.0,34.0,234.0,254.0,2262.468
2262478.0,274.0,32.0,233.0,247.0,2262.478
2262488.0,289.0,33.0,227.0,249.0,2262.488
2262498.0,271.0,32.0,227.0,240.0,2262.498
2262508.0,278.0,33.0,232.0,248.0,2262.508
2262518.0,287.0,33.0,234.0,253.0,2262.518
2262528.0,271.0,33.0,235.0,250.0,2262.528
2262538.0,283.0,32.0,227.0,247.0,2262.538
2262548.0,265.0,32.0,225.0,238.0,2262.548
2262558.0,274.0,32.0,234.0,249.0,2262.558
2262568.0,284.0,33.0,233.0,252.0,2262.568
2262578.0,267.0,33.0,235.0,248.0,2262.578
2262588.0,279.0,33.0,228.0,246.0,2262.588
2262598.0,264.0,32.0,227.0,239.0,2262.598
2262608.0,270.0,32.0,234.0,248.0,2262.608
2262618.0,278.0,32.0,235.0,250.0,2262.618
2262628.0,264.0,32.0,236.0,246.0,2262.628
2262638.0,275.0,33.0,227.0,245.0,2262.638
2262648.0,260.0,32.0,228.0,239.0,2262.648
2262658.0,266.0,33.0,230.0,245.0,2262.658
2262668.0,274.0,32.0,236.0,250.0,2262.668
2262678.0,258.0,32.0,237.0,246.0,2262.678
2262688.0,270.0,33.0,231.0,245.0,2262.688
2262699.0,257.0,32.0,233.0,241.0,2262.699
2262709.0,262.0,32.0,241.0,251.0,2262.709
2262719.0,272.0,33.0,237.0,252.0,2262.719
2262729.0,253.0,32.0,239.0,242.0,2262.729
2262739.0,263.0,32.0,233.0,244.0,2262.739
2262749.0,255.0,33.0,236.0,243.0,2262.749
2262759.0,260.0,32.0,245.0,249.0,2262.759
2262769.0,269.0,33.0,237.0,247.0,2262.769
2262779.0,250.0,32.0,239.0,238.0,2262.779
2262789.0,261.0,33.0,234.0,241.0,2262.789
2262799.0,253.0,32.0,238.0,240.0,2262.799
2262809.0,255.0,32.0,245.0,245.0,2262.809
2262819.0,266.0,33.0,238.0,243.0,2262.819
2262829.0,248.0,32.0,244.0,240.0,2262.829
2262839.0,257.0,32.0,237.0,241.0,2262.839
2262849.0,251.0,32.0,243.0,242.0,2262.849
2262859.0,252.0,32.0,250.0,247.0,2262.859
2262870.0,261.0,32.0,241.0,245.0,2262.87
2262880.0,243.0,32.0,247.0,239.0,2262.88
2262890.0,249.0,33.0,242.0,243.0,2262.89
2262900.0,253.0,32.0,250.0,249.0,2262.9
2262910.0,244.0,32.0,253.0,249.0,2262.91
2262920.0,256.0,33.0,243.0,248.0,2262.92
2262930.0,239.0,32.0,248.0,240.0,2262.93
2262940.0,244.0,33.0,242.0,244.0,2262.94
2262950.0,253.0,32.0,250.0,251.0,2262.95
2262960.0,244.0,33.0,253.0,251.0,2262.96
2262970.0,254.0,32.0,242.0,248.0,2262.97
2262980.0,236.0,33.0,244.0,240.0,2262.98
2262990.0,243.0,32.0,242.0,245.0,2262.99
2263000.0,245.0,32.0,245.0,248.0,2263.0
2263010.0,242.0,32.0,250.0,250.0,2263.01
2263020.0,250.0,32.0,238.0,248.0,2263.02
2263030.0,233.0,32.0,240.0,239.0,2263.03
2263040.0,241.0,33.0,237.0,243.0,2263.04
2263050.0,244.0,32.0,243.0,250.0,2263.05
2263060.0,238.0,32.0,247.0,250.0,2263.06
2263070.0,249.0,33.0,238.0,248.0,2263.07
2263080.0,233.0,31.0,238.0,239.0,2263.08
2263090.0,240.0,32.0,235.0,243.0,2263.09
2263100.0,245.0,32.0,242.0,250.0,2263.1
2263110.0,239.0,32.0,245.0,248.0,2263.11
2263120.0,249.0,32.0,235.0,246.0,2263.12
2263130.0,233.0,32.0,237.0,240.0,2263.13
2263140.0,241.0,33.0,234.0,242.0,2263.14
2263150.0,247.0,33.0,241.0,251.0,2263.15
2263160.0,238.0,32.0,244.0,250.0,2263.16
2263170.0,251.0,33.0,235.0,249.0,2263.17
2263180.0,233.0,32.0,235.0,240.0,2263.18
2263190.0,240.0,33.0,233.0,246.0,2263.19
2263200.0,248.0,33.0,241.0,252.0,2263.2
2263211.0,236.0,32.0,241.0,250.0,2263.211
2263221.0,247.0,32.0,233.0,248.0,2263.221
2263231.0,232.0,33.0,233.0,244.0,2263.231
2263241.0,239.0,32.0,241.0,254.0,2263.241
2263251.0,249.0,32.0,240.0,257.0,2263.251
2263261.0,235.0,33.0,242.0,252.0,2263.261
2263271.0,245.0,33.0,233.0,249.0,2263.271
2263281.0,231.0,32.0,232.0,244.0,2263.281
2263291.0,239.0,32.0,240.0,255.0,2263.291
2263301.0,247.0,33.0,240.0,256.0,2263.301
2263311.0,234.0,32.0,240.0,251.0,2263.311
2263321.0,243.0,32.0,233.0,250.0,2263.321
2263331.0,233.0,32.0,234.0,246.0,2263.331
2263341.0,237.0,31.0,237.0,252.0,2263.341
2263351.0,247.0,32.0,240.0,257.0,2263.351
2263361.0,232.0,33.0,240.0,253.0,2263.361
2263371.0,241.0,32.0,234.0,252.0,2263.371
2263382.0,233.0,32.0,234.0,248.0,2263.382
2263392.0,238.0,32.0,244.0,257.0,2263.392
2263402.0,248.0,32.0,238.0,256.0,2263.402
2263412.0,230.0,32.0,238.0,249.0,2263.412
2263422.0,237.0,33.0,234.0,250.0,2263.422
2263432.0,233.0,32.0,236.0,250.0,2263.432
2263442.0,237.0,32.0,244.0,258.0,2263.442
2263452.0,246.0,33.0,238.0,256.0,2263.452
2263462.0,229.0,31.0,237.0,251.0,2263.462
2263472.0,238.0,33.0,233.0,253.0,2263.472
2263482.0,233.0,32.0,236.0,253.0,2263.482
2263492.0,236.0,33.0,243.0,262.0,2263.492
2263502.0,246.0,32.0,236.0,257.0,2263.502
2263512.0,230.0,32.0,237.0,255.0,2263.512
2263522.0,238.0,32.0,233.0,254.0,2263.522
2263532.0,234.0,32.0,234.0,255.0,2263.532
2263542.0,234.0,32.0,240.0,260.0,2263.542
2263552.0,244.0,33.0,236.0,262.0,2263.552
2263562.0,227.0,32.0,235.0,254.0,2263.562
2263572.0,235.0,32.0,231.0,253.0,2263.572
2263582.0,233.0,32.0,235.0,255.0,2263.582
2263592.0,232.0,31.0,239.0,257.0,2263.592
2263602.0,242.0,32.0,233.0,255.0,2263.602
2263612.0,226.0,32.0,234.0,250.0,2263.612
2263622.0,233.0,32.0,229.0,250.0,2263.622
2263632.0,234.0,32.0,235.0,254.0,2263.632
2263642.0,233.0,32.0,239.0,257.0,2263.642
2263652.0,244.0,32.0,236.0,257.0,2263.652
2263662.0,226.0,32.0,236.0,252.0,2263.662
2263672.0,233.0,32.0,230.0,252.0,2263.672
2263682.0,228.0,32.0,233.0,252.0,2263.682
2263692.0,231.0,32.0,243.0,259.0,2263.692
2263702.0,242.0,32.0,236.0,256.0,2263.702
2263712.0,225.0,32.0,239.0,251.0,2263.712
2263723.0,230.0,32.0,234.0,251.0,2263.723
2263733.0,233.0,32.0,240.0,256.0,2263.733
2263743.0,227.0,33.0,241.0,257.0,2263.743
2263753.0,235.0,33.0,233.0,253.0,2263.753
2263763.0,220.0,32.0,232.0,246.0,2263.763
2263773.0,227.0,33.0,233.0,249.0,2263.773
2263783.0,234.0,31.0,240.0,257.0,2263.783
2263793.0,225.0,32.0,241.0,257.0,2263.793
2263803.0,235.0,32.0,234.0,254.0,2263.803
2263813.0,221.0,33.0,235.0,250.0,2263.813
2263823.0,226.0,32.0,233.0,251.0,2263.823
2263833.0,233.0,32.0,239.0,258.0,2263.833
2263843.0,226.0,31.0,239.0,256.0,2263.843
2263853.0,234.0,32.0,230.0,254.0,2263.853
2263863.0,219.0,31.0,228.0,246.0,2263.863
2263873.0,224.0,33.0,228.0,252.0,2263.873
2263883.0,233.0,32.0,238.0,257.0,2263.883
2263894.0,224.0,32.0,240.0,256.0,2263.894
2263904.0,231.0,32.0,234.0,255.0,2263.904
2263914.0,219.0,31.0,231.0,248.0,2263.914
2263924.0,226.0,32.0,238.0,259.0,2263.924
2263934.0,235.0,32.0,238.0,260.0,2263.934
2263944.0,222.0,33.0,239.0,256.0,2263.944
2263954.0,228.0,32.0,232.0,255.0,2263.954
2263964.0,218.0,32.0,231.0,250.0,2263.964
2263974.0,224.0,32.0,239.0,258.0,2263.974
2263984.0,230.0,33.0,238.0,258.0,2263.984
2263994.0,219.0,32.0,239.0,253.0,2263.994
2264004.0,225.0,34.0,231.0,251.0,2264.004
2264014.0,217.0,32.0,230.0,247.0,2264.014
2264024.0,221.0,32.0,232.0,252.0,2264.024
2264034.0,231.0,33.0,237.0,258.0,2264.034
2264044.0,218.0,32.0,236.0,253.0,2264.044
2264054.0,224.0,33.0,229.0,250.0,2264.054
2264064.0,213.0,33.0,227.0,245.0,2264.064
2264074.0,221.0,32.0,233.0,252.0,2264.074
2264084.0,229.0,33.0,235.0,257.0,2264.084
2264094.0,217.0,33.0,235.0,253.0,2264.094
2264104.0,224.0,33.0,229.0,251.0,2264.104
2264114.0,213.0,33.0,228.0,247.0,2264.114
2264124.0,221.0,32.0,236.0,256.0,2264.124
2264134.0,231.0,34.0,235.0,258.0,2264.134
2264144.0,217.0,32.0,235.0,252.0,2264.144
2264154.0,226.0,33.0,228.0,252.0,2264.154
2264164.0,215.0,32.0,229.0,246.0,2264.164
2264174.0,222.0,32.0,237.0,256.0,2264.174
2264184.0,230.0,33.0,234.0,256.0,2264.184
2264194.0,217.0,34.0,237.0,254.0,2264.194
2264204.0,223.0,33.0,227.0,247.0,2264.204
2264214.0,213.0,32.0,228.0,243.0,2264.214
2264224.0,220.0,33.0,237.0,253.0,2264.224
2264235.0,228.0,34.0,234.0,254.0,2264.235
2264245.0,214.0,32.0,235.0,248.0,2264.245
2264255.0,220.0,33.0,229.0,248.0,2264.255
2264265.0,219.0,33.0,235.0,250.0,2264.265
2264275.0,219.0,32.0,240.0,253.0,2264.275
2264285.0,227.0,33.0,235.0,254.0,2264.285
2264295.0,214.0,32.0,238.0,248.0,2264.295
2264305.0,217.0,34.0,230.0,247.0,2264.305
2264315.0,220.0,32.0,238.0,250.0,2264.315
2264325.0,221.0,34.0,243.0,254.0,2264.325
