time (ms),signal 0,signal 1,signal 2,signal 3,time (sec)
2391582.0,246.0,33.0,260.0,256.0,2391.582
2391592.0,257.0,33.0,253.0,255.0,2391.592
2391602.0,240.0,32.0,260.0,251.0,2391.602
2391612.0,249.0,33.0,251.0,250.0,2391.612
2391622.0,240.0,33.0,253.0,248.0,2391.622
2391632.0,245.0,33.0,262.0,256.0,2391.632
2391642.0,254.0,34.0,256.0,255.0,2391.642
2391652.0,238.0,33.0,259.0,251.0,2391.652
2391662.0,248.0,33.0,249.0,250.0,2391.662
2391672.0,240.0,34.0,254.0,249.0,2391.672
2391682.0,244.0,33.0,256.0,254.0,2391.682
2391692.0,253.0,33.0,255.0,257.0,2391.692
2391702.0,238.0,33.0,261.0,253.0,2391.702
2391712.0,246.0,33.0,252.0,252.0,2391.712
2391723.0,241.0,33.0,256.0,253.0,2391.723
2391733.0,242.0,34.0,262.0,259.0,2391.733
2391743.0,252.0,32.0,251.0,255.0,2391.743
2391753.0,234.0,33.0,253.0,250.0,2391.753
2391763.0,241.0,33.0,249.0,251.0,2391.763
2391773.0,240.0,34.0,254.0,254.0,2391.773
2391783.0,240.0,33.0,260.0,260.0,2391.783
2391793.0,249.0,34.0,250.0,256.0,2391.793
2391803.0,231.0,33.0,254.0,250.0,2391.803
2391813.0,240.0,33.0,249.0,254.0,2391.813
2391823.0,239.0,33.0,257.0,256.0,2391.823
2391833.0,238.0,33.0,263.0,260.0,2391.833
2391843.0,248.0,34.0,251.0,256.0,2391.843
2391853.0,232.0,33.0,259.0,253.0,2391.853
2391863.0,240.0,34.0,252.0,254.0,2391.863
2391873.0,241.0,34.0,259.0,258.0,2391.873
2391883.0,237.0,33.0,264.0,260.0,2391.883
2391894.0,248.0,34.0,254.0,257.0,2391.894
2391904.0,230.0,33.0,258.0,251.0,2391.904
2391914.0,238.0,33.0,257.0,256.0,2391.914
2391924.0,246.0,34.0,262.0,263.0,2391.924
2391934.0,233.0,34.0,266.0,260.0,2391.934
2391944.0,245.0,34.0,256.0,258.0,2391.944
2391954.0,229.0,33.0,260.0,250.0,2391.954
2391964.0,236.0,33.0,259.0,258.0,2391.964
2391974.0,245.0,34.0,262.0,263.0,2391.974
2391984.0,234.0,33.0,267.0,261.0,2391.984
2391994.0,243.0,35.0,255.0,257.0,2391.994
2392004.0,228.0,34.0,256.0,249.0,2392.004
2392014.0,235.0,33.0,258.0,258.0,2392.014
2392024.0,243.0,33.0,262.0,261.0,2392.024
2392034.0,232.0,34.0,261.0,260.0,2392.034
2392044.0,242.0,33.0,248.0,255.0,2392.044
2392054.0,227.0,34.0,248.0,249.0,2392.054
2392064.0,235.0,33.0,248.0,253.0,2392.064
2392074.0,243.0,33.0,255.0,261.0,2392.074
2392084.0,234.0,33.0,258.0,259.0,2392.084
2392094.0,242.0,34.0,246.0,256.0,2392.094
2392104.0,229.0,33.0,246.0,250.0,2392.104
2392114.0,236.0,33.0,247.0,257.0,2392.114
2392124.0,246.0,34.0,253.0,262.0,2392.124
2392134.0,235.0,32.0,255.0,260.0,2392.134
2392144.0,245.0,33.0,246.0,257.0,2392.144
2392154.0,231.0,33.0,247.0,252.0,2392.154
2392164.0,237.0,33.0,247.0,258.0,2392.164
2392174.0,247.0,33.0,251.0,263.0,2392.174
2392184.0,234.0,33.0,251.0,259.0,2392.184
2392194.0,246.0,34.0,245.0,258.0,2392.194
2392204.0,230.0,33.0,244.0,250.0,2392.204
2392214.0,238.0,34.0,248.0,258.0,2392.214
2392224.0,247.0,34.0,250.0,263.0,2392.224
2392235.0,233.0,33.0,252.0,259.0,2392.235
2392245.0,242.0,34.0,243.0,258.0,2392.245
2392255.0,233.0,34.0,246.0,254.0,2392.255
2392265.0,237.0,33.0,255.0,263.0,2392.265
2392275.0,247.0,33.0,250.0,262.0,2392.275
2392285.0,231.0,33.0,252.0,257.0,2392.285
2392295.0,239.0,33.0,244.0,257.0,2392.295
2392305.0,232.0,33.0,246.0,255.0,2392.305
2392315.0,235.0,33.0,254.0,261.0,2392.315
2392325.0,244.0,33.0,249.0,261.0,2392.325
2392335.0,229.0,33.0,251.0,255.0,2392.335
2392345.0,237.0,33.0,245.0,254.0,2392.345
2392355.0,231.0,33.0,250.0,255.0,2392.355
2392365.0,233.0,33.0,254.0,260.0,2392.365
2392375.0,243.0,34.0,253.0,262.0,2392.375
2392385.0,228.0,32.0,256.0,254.0,2392.385
2392395.0,236.0,33.0,248.0,254.0,2392.395
2392406.0,234.0,33.0,255.0,256.0,2392.406
2392416.0,233.0,33.0,260.0,261.0,2392.416
2392426.0,242.0,33.0,251.0,257.0,2392.426
2392436.0,226.0,33.0,254.0,251.0,2392.436
2392446.0,232.0,32.0,251.0,254.0,2392.446
2392456.0,235.0,32.0,257.0,257.0,2392.456
2392466.0,233.0,33.0,263.0,261.0,2392.466
2392476.0,242.0,33.0,252.0,258.0,2392.476
2392486.0,225.0,33.0,256.0,251.0,2392.486
2392496.0,233.0,32.0,251.0,254.0,2392.496
2392506.0,233.0,33.0,257.0,258.0,2392.506
2392516.0,231.0,32.0,261.0,259.0,2392.516
2392526.0,238.0,33.0,250.0,256.0,2392.526
2392536.0,224.0,32.0,257.0,251.0,2392.536
2392546.0,230.0,32.0,250.0,254.0,2392.546
2392556.0,235.0,33.0,258.0,258.0,2392.556
2392566.0,229.0,33.0,264.0,260.0,2392.566
2392576.0,240.0,32.0,254.0,258.0,2392.576
2392586.0,223.0,32.0,259.0,253.0,2392.586
2392596.0,228.0,32.0,254.0,253.0,2392.596
2392606.0,234.0,31.0,261.0,258.0,2392.606
2392616.0,227.0,32.0,265.0,258.0,2392.616
2392626.0,238.0,33.0,255.0,258.0,2392.626
2392636.0,222.0,32.0,264.0,252.0,2392.636
2392646.0,226.0,32.0,254.0,252.0,2392.646
2392656.0,234.0,33.0,262.0,259.0,2392.656
2392666.0,231.0,32.0,268.0,259.0,2392.666
2392676.0,234.0,32.0,255.0,252.0,2392.676
2392686.0,217.0,32.0,265.0,246.0,2392.686
2392696.0,224.0,33.0,260.0,248.0,2392.696
2392706.0,226.0,32.0,263.0,248.0,2392.706
2392716.0,228.0,32.0,270.0,254.0,2392.716
2392726.0,237.0,33.0,259.0,252.0,2392.726
2392736.0,241.0,31.0,278.0,257.0,2392.736
2392747.0,248.0,32.0,274.0,260.0,2392.747
2392757.0,255.0,33.0,286.0,271.0,2392.757
2392767.0,250.0,32.0,299.0,268.0,2392.767
2392777.0,255.0,32.0,288.0,269.0,2392.777
2392787.0,244.0,33.0,298.0,261.0,2392.787
2392797.0,249.0,32.0,295.0,261.0,2392.797
2392807.0,250.0,32.0,295.0,264.0,2392.807
2392817.0,243.0,32.0,314.0,258.0,2392.817
2392827.0,251.0,33.0,303.0,261.0,2392.827
2392837.0,241.0,32.0,326.0,251.0,2392.837
2392847.0,240.0,33.0,325.0,256.0,2392.847
2392857.0,250.0,32.0,331.0,263.0,2392.857
2392867.0,234.0,32.0,346.0,253.0,2392.867
2392877.0,232.0,32.0,333.0,251.0,2392.877
2392887.0,220.0,33.0,358.0,241.0,2392.887
2392897.0,225.0,32.0,360.0,246.0,2392.897
2392907.0,241.0,32.0,359.0,254.0,2392.907
2392918.0,229.0,32.0,391.0,250.0,2392.918
2392928.0,239.0,31.0,378.0,249.0,2392.928
2392938.0,234.0,32.0,399.0,252.0,2392.938
2392948.0,247.0,32.0,419.0,264.0,2392.948
2392958.0,251.0,32.0,408.0,268.0,2392.958
2392968.0,235.0,32.0,450.0,264.0,2392.968
2392978.0,239.0,32.0,433.0,264.0,2392.978
2392988.0,241.0,31.0,453.0,258.0,2392.988
2392998.0,240.0,32.0,466.0,265.0,2392.998
2393008.0,250.0,32.0,449.0,267.0,2393.008
2393018.0,234.0,33.0,486.0,257.0,2393.018
2393028.0,238.0,32.0,474.0,263.0,2393.028
2393038.0,242.0,32.0,491.0,268.0,2393.038
2393048.0,245.0,32.0,497.0,268.0,2393.048
2393058.0,254.0,33.0,486.0,271.0,2393.058
2393068.0,240.0,32.0,521.0,257.0,2393.068
2393078.0,248.0,33.0,504.0,264.0,2393.078
2393088.0,242.0,32.0,524.0,259.0,2393.088
2393098.0,249.0,32.0,528.0,269.0,2393.098
2393108.0,259.0,33.0,506.0,266.0,2393.108
2393118.0,254.0,32.0,538.0,255.0,2393.118
2393128.0,261.0,33.0,514.0,257.0,2393.128
2393138.0,264.0,33.0,532.0,255.0,2393.138
2393148.0,268.0,33.0,537.0,259.0,2393.148
2393158.0,271.0,32.0,514.0,254.0,2393.158
2393168.0,254.0,33.0,541.0,244.0,2393.168
2393178.0,260.0,32.0,517.0,247.0,2393.178
2393188.0,253.0,33.0,531.0,250.0,2393.188
2393198.0,254.0,33.0,538.0,249.0,2393.198
2393208.0,262.0,33.0,512.0,251.0,2393.208
2393218.0,249.0,32.0,541.0,245.0,2393.218
2393228.0,256.0,32.0,519.0,251.0,2393.228
2393238.0,257.0,33.0,538.0,258.0,2393.238
2393248.0,258.0,33.0,541.0,261.0,2393.248
2393259.0,258.0,32.0,518.0,258.0,2393.259
2393269.0,245.0,32.0,554.0,250.0,2393.269
2393279.0,241.0,33.0,531.0,246.0,2393.279
2393289.0,258.0,32.0,528.0,254.0,2393.289
2393299.0,248.0,33.0,550.0,256.0,2393.299
2393309.0,259.0,32.0,517.0,260.0,2393.309
2393319.0,240.0,33.0,540.0,252.0,2393.319
2393329.0,244.0,32.0,522.0,265.0,2393.329
2393339.0,252.0,34.0,515.0,270.0,2393.339
2393349.0,243.0,32.0,532.0,265.0,2393.349
2393359.0,248.0,33.0,506.0,265.0,2393.359
2393369.0,235.0,32.0,535.0,256.0,2393.369
2393379.0,240.0,32.0,512.0,257.0,2393.379
2393389.0,241.0,33.0,516.0,261.0,2393.389
2393399.0,245.0,33.0,532.0,264.0,2393.399
2393409.0,253.0,33.0,503.0,264.0,2393.409
2393419.0,242.0,32.0,535.0,263.0,2393.419
2393430.0,247.0,33.0,517.0,274.0,2393.43
2393440.0,265.0,32.0,511.0,281.0,2393.44
2393450.0,254.0,32.0,530.0,275.0,2393.45
2393460.0,264.0,32.0,505.0,272.0,2393.46
2393470.0,262.0,33.0,529.0,274.0,2393.47
2393480.0,272.0,32.0,522.0,284.0,2393.48
2393490.0,282.0,32.0,511.0,291.0,2393.49
2393500.0,270.0,33.0,533.0,281.0,2393.5
2393510.0,274.0,33.0,508.0,274.0,2393.51
2393520.0,256.0,33.0,527.0,265.0,2393.52
2393530.0,257.0,33.0,515.0,275.0,2393.53
2393540.0,261.0,32.0,499.0,272.0,2393.54
2393550.0,248.0,32.0,532.0,278.0,2393.55
2393560.0,259.0,32.0,499.0,288.0,2393.56
2393570.0,247.0,33.0,516.0,277.0,2393.57
2393580.0,252.0,33.0,517.0,294.0,2393.58
2393590.0,264.0,33.0,502.0,303.0,2393.59
2393600.0,253.0,32.0,520.0,291.0,2393.6
2393610.0,259.0,32.0,488.0,278.0,2393.61
2393620.0,249.0,32.0,507.0,274.0,2393.62
2393630.0,252.0,32.0,504.0,285.0,2393.63
2393640.0,262.0,33.0,480.0,286.0,2393.64
2393650.0,253.0,32.0,505.0,284.0,2393.65
2393660.0,258.0,33.0,476.0,285.0,2393.66
2393670.0,245.0,32.0,491.0,277.0,2393.67
2393680.0,253.0,32.0,488.0,284.0,2393.68
2393690.0,261.0,32.0,468.0,288.0,2393.69
2393700.0,250.0,32.0,486.0,284.0,2393.7
2393710.0,254.0,32.0,459.0,278.0,2393.71
2393720.0,247.0,33.0,474.0,279.0,2393.72
2393730.0,256.0,33.0,468.0,287.0,2393.73
2393740.0,265.0,32.0,459.0,290.0,2393.74
2393750.0,249.0,33.0,473.0,276.0,2393.75
2393760.0,344.0,34.0,454.0,277.0,2393.76
2393771.0,354.0,34.0,472.0,277.0,2393.771
2393781.0,372.0,33.0,468.0,281.0,2393.781
2393791.0,392.0,34.0,441.0,285.0,2393.791
2393801.0,377.0,34.0,465.0,286.0,2393.801
2393811.0,395.0,33.0,437.0,291.0,2393.811
2393821.0,391.0,34.0,448.0,303.0,2393.821
2393831.0,384.0,33.0,457.0,316.0,2393.831
2393841.0,391.0,33.0,435.0,309.0,2393.841
2393851.0,360.0,33.0,457.0,300.0,2393.851
2393861.0,363.0,32.0,431.0,301.0,2393.861
2393871.0,343.0,32.0,443.0,294.0,2393.871
2393881.0,343.0,33.0,449.0,299.0,2393.881
2393891.0,348.0,33.0,424.0,304.0,2393.891
2393901.0,323.0,32.0,448.0,297.0,2393.901
2393911.0,325.0,32.0,419.0,285.0,2393.911
2393921.0,313.0,33.0,427.0,283.0,2393.921
2393931.0,306.0,32.0,432.0,288.0,2393.931
2393942.0,308.0,32.0,405.0,281.0,2393.942
2393952.0,290.0,31.0,429.0,276.0,2393.952
2393962.0,293.0,32.0,413.0,283.0,2393.962
2393972.0,302.0,33.0,410.0,291.0,2393.972
2393982.0,298.0,33.0,423.0,292.0,2393.982
2393992.0,305.0,32.0,396.0,292.0,2393.992
2394002.0,288.0,32.0,414.0,286.0,2394.002
2394012.0,290.0,32.0,399.0,292.0,2394.012
2394022.0,294.0,32.0,398.0,294.0,2394.022
2394032.0,285.0,33.0,412.0,292.0,2394.032
2394042.0,286.0,32.0,384.0,293.0,2394.042
2394052.0,280.0,32.0,400.0,285.0,2394.052
2394062.0,283.0,32.0,387.0,284.0,2394.062
2394072.0,284.0,32.0,384.0,278.0,2394.072
2394082.0,276.0,31.0,388.0,269.0,2394.082
2394092.0,274.0,32.0,372.0,279.0,2394.092
2394102.0,292.0,33.0,392.0,279.0,2394.102
2394112.0,330.0,35.0,382.0,294.0,2394.112
2394122.0,348.0,34.0,394.0,295.0,2394.122
2394132.0,334.0,34.0,395.0,287.0,2394.132
2394142.0,353.0,34.0,366.0,286.0,2394.142
2394152.0,328.0,33.0,385.0,279.0,2394.152
2394162.0,331.0,33.0,362.0,281.0,2394.162
2394172.0,332.0,33.0,369.0,296.0,2394.172
2394182.0,316.0,33.0,376.0,294.0,2394.182
2394192.0,320.0,33.0,359.0,290.0,2394.192
2394202.0,297.0,33.0,371.0,279.0,2394.202
2394212.0,304.0,33.0,360.0,283.0,2394.212
2394222.0,304.0,33.0,361.0,287.0,2394.222
2394232.0,295.0,32.0,373.0,290.0,2394.232
2394242.0,302.0,32.0,349.0,286.0,2394.242
2394252.0,281.0,32.0,372.0,279.0,2394.252
2394262.0,225.0,34.0,358.0,272.0,2394.262
2394272.0,109.0,35.0,353.0,278.0,2394.272
2394283.0,12.0,37.0,360.0,271.0,2394.283
2394293.0,0.0,38.0,338.0,268.0,2394.293
2394303.0,664.0,42.0,332.0,263.0,2394.303
2394313.0,664.0,40.0,338.0,279.0,2394.313
2394323.0,664.0,40.0,324.0,277.0,2394.323
2394333.0,665.0,39.0,332.0,267.0,2394.333
2394343.0,665.0,38.0,316.0,265.0,2394.343
2394353.0,665.0,37.0,327.0,264.0,2394.353
2394363.0,664.0,37.0,330.0,271.0,2394.363
2394373.0,665.0,37.0,325.0,277.0,2394.373
2394383.0,664.0,35.0,327.0,270.0,2394.383
2394393.0,664.0,35.0,307.0,261.0,2394.393
2394403.0,666.0,35.0,314.0,260.0,2394.403
2394413.0,665.0,34.0,315.0,268.0,2394.413
2394423.0,666.0,35.0,309.0,269.0,2394.423
2394433.0,665.0,35.0,314.0,267.0,2394.433
2394443.0,665.0,34.0,294.0,260.0,2394.443
2394454.0,666.0,33.0,303.0,261.0,2394.454
2394464.0,666.0,34.0,310.0,269.0,2394.464
2394474.0,666.0,34.0,296.0,268.0,2394.474
2394484.0,665.0,33.0,305.0,264.0,2394.484
2394494.0,665.0,34.0,297.0,261.0,2394.494
2394504.0,666.0,33.0,294.0,255.0,2394.504
2394514.0,665.0,34.0,297.0,262.0,2394.514
2394524.0,666.0,34.0,283.0,260.0,2394.524
2394534.0,665.0,33.0,287.0,259.0,2394.534
2394544.0,665.0,35.0,281.0,263.0,2394.544
2394554.0,666.0,33.0,285.0,268.0,2394.554
2394564.0,665.0,34.0,279.0,267.0,2394.564
2394574.0,665.0,34.0,266.0,265.0,2394.574
2394584.0,665.0,33.0,272.0,272.0,2394.584
2394594.0,666.0,34.0,262.0,270.0,2394.594
2394604.0,666.0,34.0,263.0,271.0,2394.604
2394614.0,665.0,33.0,265.0,275.0,2394.614
2394624.0,666.0,35.0,257.0,276.0,2394.624
2394634.0,665.0,34.0,246.0,266.0,2394.634
2394644.0,665.0,33.0,239.0,263.0,2394.644
2394654.0,666.0,34.0,243.0,279.0,2394.654
2394664.0,665.0,33.0,244.0,286.0,2394.664
2394674.0,666.0,34.0,245.0,285.0,2394.674
2394684.0,665.0,34.0,227.0,277.0,2394.684
2394694.0,665.0,34.0,226.0,275.0,2394.694
2394704.0,666.0,34.0,231.0,280.0,2394.704
2394714.0,665.0,34.0,225.0,281.0,2394.714
2394724.0,666.0,34.0,230.0,275.0,2394.724
2394734.0,665.0,34.0,215.0,277.0,2394.734
2394744.0,665.0,33.0,221.0,276.0,2394.744
2394754.0,666.0,35.0,221.0,278.0,2394.754
2394764.0,665.0,34.0,223.0,284.0,2394.764
2394774.0,665.0,34.0,228.0,276.0,2394.774
2394784.0,666.0,34.0,208.0,270.0,2394.784
2394795.0,665.0,34.0,214.0,270.0,2394.795
2394805.0,666.0,34.0,228.0,273.0,2394.805
2394815.0,665.0,35.0,216.0,276.0,2394.815
2394825.0,665.0,34.0,225.0,270.0,2394.825
2394835.0,666.0,34.0,209.0,267.0,2394.835
2394845.0,665.0,35.0,224.0,272.0,2394.845
2394855.0,667.0,35.0,238.0,280.0,2394.855
2394865.0,666.0,35.0,224.0,279.0,2394.865
2394875.0,665.0,36.0,241.0,274.0,2394.875
2394885.0,665.0,36.0,223.0,271.0,2394.885
2394895.0,665.0,35.0,237.0,274.0,2394.895
2394905.0,666.0,35.0,252.0,277.0,2394.905
2394915.0,667.0,34.0,239.0,277.0,2394.915
2394925.0,665.0,35.0,265.0,274.0,2394.925
2394935.0,665.0,35.0,242.0,269.0,2394.935
2394945.0,665.0,35.0,255.0,276.0,2394.945
2394955.0,666.0,34.0,271.0,280.0,2394.955
2394966.0,666.0,34.0,250.0,277.0,2394.966
2394976.0,665.0,35.0,269.0,272.0,2394.976
2394986.0,666.0,35.0,253.0,269.0,2394.986
2394996.0,665.0,34.0,261.0,278.0,2394.996
2395006.0,666.0,36.0,281.0,275.0,2395.006
2395016.0,666.0,34.0,254.0,271.0,2395.016
2395026.0,666.0,35.0,272.0,267.0,2395.026
2395036.0,666.0,35.0,263.0,265.0,2395.036
2395046.0,666.0,34.0,268.0,273.0,2395.046
2395056.0,666.0,35.0,287.0,272.0,2395.056
2395066.0,666.0,34.0,262.0,268.0,2395.066
2395076.0,665.0,35.0,278.0,264.0,2395.076
2395086.0,666.0,35.0,270.0,263.0,2395.086
2395096.0,665.0,34.0,270.0,270.0,2395.096
2395106.0,667.0,34.0,285.0,273.0,2395.106
2395116.0,666.0,34.0,260.0,267.0,2395.116
2395126.0,665.0,33.0,275.0,265.0,2395.126
2395136.0,666.0,35.0,263.0,262.0,2395.136
2395146.0,665.0,34.0,272.0,270.0,2395.146
2395156.0,666.0,34.0,287.0,271.0,2395.156
2395166.0,666.0,33.0,261.0,263.0,2395.166
2395176.0,666.0,34.0,274.0,263.0,2395.176
2395186.0,666.0,34.0,263.0,258.0,2395.186
2395196.0,665.0,33.0,270.0,267.0,2395.196
2395206.0,666.0,35.0,283.0,268.0,2395.206
2395216.0,665.0,33.0,256.0,258.0,2395.216
2395226.0,666.0,33.0,271.0,260.0,2395.226
2395236.0,667.0,33.0,257.0,259.0,2395.236
2395246.0,665.0,34.0,261.0,268.0,2395.246
2395256.0,666.0,33.0,275.0,266.0,2395.256
2395266.0,666.0,34.0,250.0,262.0,2395.266
2395276.0,665.0,32.0,261.0,260.0,2395.276
2395286.0,666.0,33.0,249.0,258.0,2395.286
2395296.0,666.0,33.0,252.0,265.0,2395.296
2395307.0,666.0,33.0,261.0,263.0,2395.307
2395317.0,665.0,33.0,234.0,254.0,2395.317
2395327.0,665.0,33.0,243.0,255.0,2395.327
2395337.0,666.0,33.0,247.0,258.0,2395.337
2395347.0,665.0,32.0,237.0,259.0,2395.347
2395357.0,666.0,33.0,250.0,260.0,2395.357
2395367.0,666.0,32.0,227.0,249.0,2395.367
2395377.0,665.0,33.0,234.0,252.0,2395.377
2395387.0,666.0,33.0,241.0,259.0,2395.387
2395397.0,665.0,33.0,233.0,259.0,2395.397
2395407.0,666.0,33.0,242.0,259.0,2395.407
2395417.0,666.0,33.0,218.0,249.0,2395.417
2395427.0,666.0,32.0,227.0,252.0,2395.427
2395437.0,666.0,32.0,230.0,256.0,2395.437
2395447.0,665.0,33.0,228.0,259.0,2395.447
2395457.0,636.0,34.0,235.0,260.0,2395.457
2395467.0,595.0,32.0,214.0,248.0,2395.467
2395478.0,545.0,33.0,219.0,250.0,2395.478
2395488.0,513.0,33.0,230.0,260.0,2395.488
2395498.0,468.0,33.0,217.0,255.0,2395.498
2395508.0,446.0,33.0,224.0,254.0,2395.508
2395518.0,409.0,33.0,211.0,247.0,2395.518
2395528.0,405.0,33.0,218.0,253.0,2395.528
2395538.0,405.0,34.0,225.0,260.0,2395.538
2395548.0,386.0,33.0,213.0,254.0,2395.548
2395558.0,413.0,33.0,219.0,254.0,2395.558
2395568.0,401.0,33.0,203.0,246.0,2395.568
2395578.0,429.0,33.0,213.0,253.0,2395.578
2395588.0,455.0,34.0,223.0,260.0,2395.588
2395598.0,455.0,33.0,209.0,254.0,2395.598
2395608.0,499.0,34.0,217.0,255.0,2395.608
2395618.0,502.0,33.0,202.0,245.0,2395.618
2395628.0,541.0,33.0,209.0,254.0,2395.628
2395638.0,578.0,33.0,219.0,259.0,2395.638
2395648.0,582.0,34.0,209.0,257.0,2395.648
2395658.0,632.0,34.0,216.0,255.0,2395.658
2395668.0,640.0,32.0,202.0,246.0,2395.668
2395678.0,665.0,34.0,212.0,256.0,2395.678
2395688.0,666.0,35.0,220.0,261.0,2395.688
2395698.0,665.0,34.0,211.0,256.0,2395.698
2395708.0,665.0,33.0,211.0,255.0,2395.708
2395718.0,666.0,35.0,199.0,247.0,2395.718
2395728.0,665.0,32.0,210.0,256.0,2395.728
2395738.0,666.0,34.0,214.0,260.0,2395.738
2395748.0,666.0,34.0,208.0,253.0,2395.748
2395758.0,665.0,34.0,209.0,253.0,2395.758
2395768.0,666.0,33.0,200.0,245.0,2395.768
2395778.0,665.0,34.0,205.0,251.0,2395.778
2395788.0,666.0,33.0,215.0,258.0,2395.788
2395798.0,665.0,32.0,209.0,252.0,2395.798
2395808.0,665.0,33.0,209.0,253.0,2395.808
2395819.0,667.0,33.0,202.0,247.0,2395.819
2395829.0,665.0,33.0,213.0,256.0,2395.829
2395839.0,666.0,33.0,216.0,258.0,2395.839
2395849.0,665.0,33.0,208.0,249.0,2395.849
2395859.0,665.0,32.0,210.0,251.0,2395.859
2395869.0,666.0,32.0,206.0,248.0,2395.869
2395879.0,666.0,32.0,218.0,255.0,2395.879
2395889.0,666.0,33.0,218.0,257.0,2395.889
2395899.0,665.0,32.0,209.0,247.0,2395.899
2395909.0,665.0,32.0,212.0,251.0,2395.909
2395919.0,666.0,32.0,209.0,248.0,2395.919
2395929.0,665.0,32.0,219.0,256.0,2395.929
2395939.0,667.0,32.0,220.0,257.0,2395.939
2395949.0,665.0,32.0,216.0,251.0,2395.949
2395959.0,665.0,32.0,217.0,252.0,2395.959
2395969.0,666.0,32.0,216.0,252.0,2395.969
2395979.0,665.0,33.0,223.0,257.0,2395.979
2395990.0,666.0,32.0,222.0,257.0,2395.99
2396000.0,665.0,32.0,216.0,247.0,2396.0
2396010.0,666.0,31.0,216.0,250.0,2396.01
2396020.0,666.0,32.0,224.0,258.0,2396.02
2396030.0,665.0,32.0,222.0,256.0,2396.03
2396040.0,665.0,33.0,220.0,257.0,2396.04
2396050.0,665.0,31.0,214.0,246.0,2396.05
2396060.0,665.0,31.0,216.0,252.0,2396.06
2396070.0,667.0,32.0,226.0,259.0,2396.07
2396080.0,665.0,31.0,224.0,257.0,2396.08
2396090.0,665.0,32.0,220.0,255.0,2396.09
2396100.0,665.0,32.0,216.0,246.0,2396.1
2396110.0,665.0,32.0,218.0,251.0,2396.11
2396120.0,666.0,33.0,222.0,254.0,2396.12
2396130.0,665.0,32.0,229.0,256.0,2396.13
2396140.0,665.0,31.0,224.0,255.0,2396.14
2396150.0,665.0,31.0,222.0,246.0,2396.15
2396160.0,666.0,31.0,223.0,252.0,2396.16
2396170.0,666.0,33.0,228.0,257.0,2396.17
2396180.0,665.0,32.0,232.0,258.0,2396.18
2396190.0,665.0,31.0,226.0,256.0,2396.19
2396200.0,666.0,31.0,223.0,246.0,2396.2
2396210.0,665.0,31.0,225.0,252.0,2396.21
2396220.0,666.0,32.0,231.0,257.0,2396.22
2396230.0,665.0,33.0,234.0,256.0,2396.23
2396240.0,665.0,32.0,226.0,252.0,2396.24
2396250.0,665.0,32.0,224.0,244.0,2396.25
2396260.0,665.0,32.0,224.0,248.0,2396.26
2396270.0,666.0,32.0,232.0,256.0,2396.27
2396280.0,665.0,32.0,234.0,253.0,2396.28
2396290.0,665.0,32.0,228.0,255.0,2396.29
2396300.0,665.0,32.0,228.0,245.0,2396.3
2396310.0,665.0,32.0,227.0,249.0,2396.31
2396320.0,666.0,32.0,235.0,256.0,2396.32
2396331.0,666.0,31.0,237.0,253.0,2396.331
2396341.0,665.0,32.0,229.0,253.0,2396.341
2396351.0,665.0,32.0,228.0,244.0,2396.351
2396361.0,665.0,33.0,237.0,256.0,2396.361
2396371.0,666.0,32.0,238.0,258.0,2396.371
2396381.0,665.0,32.0,240.0,253.0,2396.381
2396391.0,666.0,33.0,233.0,251.0,2396.391
2396401.0,666.0,31.0,229.0,245.0,2396.401
2396411.0,665.0,32.0,239.0,254.0,2396.411
2396421.0,666.0,33.0,239.0,257.0,2396.421
2396431.0,665.0,32.0,237.0,250.0,2396.431
2396441.0,665.0,32.0,230.0,250.0,2396.441
2396451.0,666.0,32.0,232.0,247.0,2396.451
2396461.0,666.0,31.0,236.0,254.0,2396.461
2396471.0,666.0,32.0,241.0,259.0,2396.471
2396481.0,665.0,31.0,241.0,253.0,2396.481
2396491.0,665.0,33.0,233.0,252.0,2396.491
2396502.0,666.0,32.0,233.0,247.0,2396.502
2396512.0,665.0,32.0,241.0,256.0,2396.512
2396522.0,667.0,33.0,237.0,255.0,2396.522
2396532.0,665.0,31.0,236.0,247.0,2396.532
2396542.0,665.0,32.0,232.0,249.0,2396.542
2396552.0,666.0,32.0,234.0,250.0,2396.552
2396562.0,665.0,32.0,245.0,258.0,2396.562
2396572.0,666.0,32.0,239.0,258.0,2396.572
2396582.0,665.0,32.0,238.0,249.0,2396.582
2396592.0,666.0,32.0,234.0,252.0,2396.592
2396602.0,666.0,32.0,237.0,252.0,2396.602
2396612.0,665.0,32.0,242.0,258.0,2396.612
2396622.0,666.0,32.0,235.0,257.0,2396.622
2396632.0,665.0,31.0,239.0,250.0,2396.632
2396642.0,665.0,32.0,233.0,252.0,2396.642
2396652.0,667.0,31.0,239.0,252.0,2396.652
2396662.0,665.0,31.0,245.0,256.0,2396.662
2396672.0,666.0,32.0,241.0,258.0,2396.672
2396682.0,665.0,32.0,241.0,250.0,2396.682
2396692.0,665.0,32.0,238.0,252.0,2396.692
2396702.0,666.0,32.0,239.0,253.0,2396.702
2396712.0,666.0,32.0,246.0,257.0,2396.712
2396722.0,666.0,32.0,240.0,259.0,2396.722
2396732.0,665.0,31.0,240.0,249.0,2396.732
2396742.0,665.0,32.0,236.0,252.0,2396.742
2396752.0,666.0,32.0,243.0,257.0,2396.752
2396762.0,665.0,32.0,247.0,259.0,2396.762
2396772.0,666.0,32.0,241.0,260.0,2396.772
2396782.0,665.0,32.0,243.0,250.0,2396.782
2396792.0,665.0,32.0,239.0,253.0,2396.792
2396802.0,667.0,31.0,243.0,253.0,2396.802
2396812.0,665.0,32.0,250.0,259.0,2396.812
2396822.0,666.0,32.0,243.0,258.0,2396.822
2396832.0,665.0,32.0,245.0,250.0,2396.832
2396843.0,666.0,32.0,242.0,252.0,2396.843
2396853.0,666.0,32.0,249.0,259.0,2396.853
2396863.0,665.0,32.0,254.0,257.0,2396.863
2396873.0,665.0,33.0,244.0,257.0,2396.873
2396883.0,665.0,32.0,246.0,247.0,2396.883
2396893.0,665.0,32.0,245.0,254.0,2396.893
2396903.0,666.0,33.0,253.0,260.0,2396.903
2396913.0,666.0,31.0,256.0,258.0,2396.913
2396923.0,665.0,32.0,246.0,257.0,2396.923
2396933.0,665.0,32.0,254.0,250.0,2396.933
2396943.0,665.0,32.0,251.0,255.0,2396.943
2396953.0,666.0,32.0,258.0,262.0,2396.953
2396963.0,665.0,32.0,261.0,257.0,2396.963
2396973.0,665.0,31.0,252.0,258.0,2396.973
2396983.0,665.0,32.0,254.0,249.0,2396.983
2396993.0,665.0,32.0,252.0,253.0,2396.993
2397003.0,666.0,33.0,259.0,259.0,2397.003
2397014.0,659.0,32.0,260.0,254.0,2397.014
2397024.0,665.0,33.0,249.0,253.0,2397.024
2397034.0,651.0,32.0,252.0,247.0,2397.034
2397044.0,650.0,32.0,259.0,257.0,2397.044
2397054.0,659.0,33.0,255.0,259.0,2397.054
2397064.0,630.0,33.0,259.0,254.0,2397.064
2397074.0,646.0,32.0,253.0,252.0,2397.074
2397084.0,622.0,32.0,253.0,248.0,2397.084
2397094.0,620.0,33.0,261.0,257.0,2397.094
2397104.0,631.0,33.0,259.0,260.0,2397.104
2397114.0,603.0,32.0,260.0,254.0,2397.114
2397124.0,620.0,33.0,252.0,255.0,2397.124
2397134.0,598.0,33.0,254.0,252.0,2397.134
2397144.0,599.0,33.0,258.0,259.0,2397.144
2397154.0,604.0,33.0,259.0,262.0,2397.154
2397164.0,579.0,33.0,262.0,254.0,2397.164
2397174.0,594.0,32.0,254.0,255.0,2397.174
2397184.0,570.0,32.0,256.0,248.0,2397.184
2397194.0,574.0,33.0,259.0,259.0,2397.194
2397204.0,582.0,33.0,258.0,262.0,2397.204
2397214.0,554.0,32.0,260.0,253.0,2397.214
2397224.0,569.0,33.0,252.0,254.0,2397.224
2397234.0,548.0,31.0,250.0,247.0,2397.234
2397244.0,551.0,32.0,257.0,258.0,2397.244
2397254.0,560.0,33.0,253.0,259.0,2397.254
2397264.0,532.0,32.0,257.0,250.0,2397.264
2397274.0,550.0,32.0,250.0,253.0,2397.274
2397284.0,526.0,32.0,251.0,246.0,2397.284
2397294.0,527.0,32.0,258.0,255.0,2397.294
2397304.0,539.0,32.0,254.0,257.0,2397.304
2397314.0,511.0,32.0,261.0,251.0,2397.314
2397324.0,528.0,33.0,252.0,253.0,2397.324
2397334.0,507.0,32.0,255.0,247.0,2397.334
2397344.0,506.0,32.0,262.0,256.0,2397.344
2397355.0,521.0,32.0,256.0,257.0,2397.355
2397365.0,492.0,31.0,255.0,247.0,2397.365
2397375.0,507.0,32.0,249.0,250.0,2397.375
2397385.0,498.0,32.0,258.0,256.0,2397.385
2397395.0,483.0,32.0,262.0,256.0,2397.395
2397405.0,503.0,32.0,253.0,258.0,2397.405
2397415.0,474.0,31.0,257.0,248.0,2397.415
2397425.0,489.0,31.0,251.0,251.0,2397.425
2397435.0,481.0,31.0,256.0,257.0,2397.435
2397445.0,469.0,31.0,262.0,258.0,2397.445
2397455.0,483.0,32.0,252.0,257.0,2397.455
2397465.0,455.0,31.0,255.0,245.0,2397.465
2397475.0,469.0,31.0,249.0,249.0,2397.475
2397485.0,458.0,31.0,254.0,250.0,2397.485
2397495.0,449.0,31.0,261.0,256.0,2397.495
2397505.0,466.0,32.0,253.0,254.0,2397.505
2397515.0,438.0,32.0,255.0,246.0,2397.515
2397526.0,452.0,31.0,250.0,250.0,2397.526
2397536.0,450.0,32.0,257.0,256.0,2397.536
2397546.0,431.0,31.0,259.0,254.0,2397.546
2397556.0,448.0,31.0,249.0,252.0,2397.556
2397566.0,423.0,31.0,247.0,244.0,2397.566
2397576.0,436.0,31.0,248.0,250.0,2397.576
2397586.0,436.0,32.0,255.0,258.0,2397.586
2397596.0,416.0,30.0,257.0,254.0,2397.596
2397606.0,433.0,31.0,249.0,254.0,2397.606
2397616.0,410.0,31.0,252.0,246.0,2397.616
2397626.0,420.0,31.0,250.0,252.0,2397.626
2397636.0,423.0,32.0,256.0,259.0,2397.636
2397646.0,401.0,32.0,259.0,255.0,2397.646
2397656.0,421.0,31.0,253.0,256.0,2397.656
2397666.0,395.0,31.0,255.0,247.0,2397.666
2397676.0,406.0,31.0,254.0,253.0,2397.676
2397686.0,410.0,31.0,259.0,259.0,2397.686
2397696.0,390.0,31.0,261.0,256.0,2397.696
2397706.0,407.0,31.0,250.0,254.0,2397.706
2397716.0,383.0,31.0,253.0,244.0,2397.716
2397726.0,392.0,30.0,255.0,254.0,2397.726
2397736.0,399.0,31.0,258.0,259.0,2397.736
2397746.0,379.0,31.0,262.0,255.0,2397.746
2397756.0,394.0,32.0,250.0,254.0,2397.756
2397766.0,370.0,31.0,252.0,244.0,2397.766
2397776.0,379.0,32.0,256.0,255.0,2397.776
2397786.0,384.0,31.0,258.0,258.0,2397.786
2397796.0,366.0,31.0,263.0,255.0,2397.796
2397806.0,382.0,31.0,253.0,254.0,2397.806
2397816.0,360.0,31.0,254.0,244.0,2397.816
2397826.0,371.0,32.0,253.0,251.0,2397.826
2397836.0,374.0,32.0,260.0,259.0,2397.836
2397846.0,355.0,32.0,265.0,254.0,2397.846
2397856.0,371.0,32.0,254.0,253.0,2397.856
2397867.0,351.0,32.0,256.0,245.0,2397.867
2397877.0,358.0,31.0,263.0,256.0,2397.877
2397887.0,369.0,32.0,260.0,260.0,2397.887
2397897.0,346.0,32.0,263.0,253.0,2397.897
2397907.0,360.0,33.0,256.0,254.0,2397.907
2397917.0,346.0,32.0,259.0,249.0,2397.917
2397927.0,350.0,32.0,265.0,259.0,2397.927
2397937.0,363.0,32.0,262.0,260.0,2397.937
2397947.0,340.0,31.0,264.0,251.0,2397.947
2397957.0,355.0,32.0,257.0,253.0,2397.957
2397967.0,339.0,32.0,260.0,250.0,2397.967
2397977.0,341.0,32.0,268.0,258.0,2397.977
2397987.0,355.0,33.0,261.0,258.0,2397.987
2397997.0,333.0,32.0,268.0,253.0,2397.997
2398007.0,348.0,32.0,258.0,253.0,2398.007
2398017.0,334.0,32.0,262.0,250.0,2398.017
2398027.0,334.0,32.0,272.0,259.0,2398.027
2398038.0,349.0,33.0,261.0,258.0,2398.038
2398048.0,326.0,32.0,267.0,249.0,2398.048
2398058.0,338.0,32.0,261.0,252.0,2398.058
2398068.0,337.0,32.0,269.0,258.0,2398.068
2398078.0,326.0,32.0,272.0,258.0,2398.078
2398088.0,342.0,33.0,261.0,257.0,2398.088
2398098.0,320.0,33.0,266.0,250.0,2398.098
2398108.0,332.0,32.0,260.0,252.0,2398.108
2398118.0,331.0,32.0,267.0,259.0,2398.118
2398128.0,323.0,33.0,273.0,259.0,2398.128
2398138.0,336.0,32.0,259.0,255.0,2398.138
2398148.0,314.0,32.0,266.0,248.0,2398.148
2398158.0,324.0,33.0,260.0,251.0,2398.158
2398168.0,321.0,33.0,266.0,254.0,2398.168
2398178.0,315.0,32.0,272.0,258.0,2398.178
2398188.0,329.0,33.0,260.0,255.0,2398.188
2398198.0,308.0,31.0,265.0,247.0,2398.198
2398208.0,321.0,32.0,258.0,251.0,2398.208
2398218.0,317.0,32.0,265.0,255.0,2398.218
2398228.0,310.0,33.0,271.0,257.0,2398.228
2398238.0,325.0,32.0,260.0,254.0,2398.238
2398248.0,303.0,32.0,264.0,247.0,2398.248
2398258.0,315.0,32.0,258.0,252.0,2398.258
2398268.0,313.0,33.0,264.0,256.0,2398.268
2398278.0,305.0,32.0,269.0,257.0,2398.278
2398288.0,320.0,33.0,258.0,255.0,2398.288
2398298.0,300.0,33.0,263.0,248.0,2398.298
2398308.0,311.0,32.0,256.0,251.0,2398.308
2398318.0,312.0,32.0,265.0,257.0,2398.318
2398328.0,302.0,31.0,268.0,257.0,2398.328
2398338.0,318.0,33.0,258.0,257.0,2398.338
2398348.0,296.0,32.0,264.0,250.0,2398.348
2398358.0,306.0,33.0,258.0,253.0,2398.358
2398368.0,308.0,32.0,267.0,259.0,2398.368
2398379.0,296.0,33.0,274.0,259.0,2398.379
2398389.0,310.0,33.0,262.0,257.0,2398.389
2398399.0,290.0,33.0,262.0,248.0,2398.399
2398409.0,300.0,32.0,266.0,257.0,2398.409
2398419.0,308.0,35.0,265.0,262.0,2398.419
2398429.0,291.0,32.0,271.0,258.0,2398.429
2398439.0,305.0,33.0,259.0,255.0,2398.439
2398449.0,287.0,33.0,262.0,248.0,2398.449
2398459.0,294.0,33.0,267.0,258.0,2398.459
2398469.0,303.0,33.0,269.0,261.0,2398.469
2398479.0,287.0,33.0,271.0,258.0,2398.479
2398489.0,300.0,33.0,259.0,256.0,2398.489
2398499.0,283.0,32.0,261.0,249.0,2398.499
2398509.0,291.0,33.0,261.0,255.0,2398.509
2398519.0,299.0,32.0,267.0,261.0,2398.519
2398529.0,283.0,33.0,270.0,257.0,2398.529
2398539.0,297.0,33.0,258.0,254.0,2398.539
2398550.0,281.0,32.0,263.0,249.0,2398.55
2398560.0,287.0,32.0,272.0,259.0,2398.56
2398570.0,298.0,33.0,264.0,261.0,2398.57
2398580.0,279.0,32.0,268.0,252.0,2398.58
2398590.0,288.0,33.0,258.0,254.0,2398.59
2398600.0,280.0,33.0,261.0,251.0,2398.6
2398610.0,283.0,33.0,268.0,262.0,2398.61
2398620.0,294.0,33.0,261.0,262.0,2398.62
2398630.0,274.0,32.0,265.0,254.0,2398.63
2398640.0,287.0,33.0,259.0,256.0,2398.64
2398650.0,276.0,33.0,260.0,253.0,2398.65
2398660.0,279.0,32.0,268.0,261.0,2398.66
2398670.0,291.0,33.0,260.0,261.0,2398.67
2398680.0,271.0,32.0,268.0,256.0,2398.68
2398690.0,283.0,32.0,259.0,256.0,2398.69
2398700.0,275.0,32.0,263.0,255.0,2398.7
2398710.0,277.0,32.0,271.0,261.0,2398.71
2398720.0,288.0,33.0,264.0,262.0,2398.72
2398730.0,269.0,32.0,271.0,256.0,2398.73
2398740.0,280.0,34.0,263.0,257.0,2398.74
2398750.0,275.0,32.0,271.0,258.0,2398.75
2398760.0,274.0,32.0,275.0,262.0,2398.76
2398770.0,287.0,33.0,269.0,263.0,2398.77
2398780.0,266.0,32.0,271.0,255.0,2398.78
2398790.0,276.0,32.0,261.0,255.0,2398.79
2398800.0,272.0,33.0,269.0,260.0,2398.8
2398810.0,271.0,32.0,273.0,262.0,2398.81
2398820.0,282.0,33.0,267.0,263.0,2398.82
2398830.0,263.0,32.0,272.0,254.0,2398.83
2398840.0,273.0,33.0,264.0,255.0,2398.84
2398850.0,263.0,32.0,267.0,254.0,2398.85
2398860.0,268.0,32.0,275.0,261.0,2398.86
2398870.0,279.0,34.0,267.0,262.0,2398.87
2398880.0,259.0,32.0,271.0,253.0,2398.88
2398891.0,268.0,33.0,263.0,254.0,2398.891
2398901.0,270.0,33.0,272.0,259.0,2398.901
2398911.0,262.0,32.0,275.0,260.0,2398.911
2398921.0,275.0,33.0,263.0,257.0,2398.921
2398931.0,256.0,33.0,269.0,251.0,2398.931
2398941.0,266.0,32.0,265.0,255.0,2398.941
2398951.0,268.0,32.0,272.0,261.0,2398.951
2398961.0,260.0,33.0,276.0,260.0,2398.961
2398971.0,270.0,32.0,262.0,256.0,2398.971
2398981.0,254.0,32.0,266.0,250.0,2398.981
2398991.0,261.0,33.0,259.0,254.0,2398.991
2399001.0,266.0,33.0,268.0,260.0,2399.001
2399011.0,255.0,32.0,272.0,258.0,2399.011
2399021.0,268.0,33.0,260.0,258.0,2399.021
2399031.0,250.0,32.0,265.0,248.0,2399.031
2399041.0,255.0,32.0,259.0,253.0,2399.041
2399051.0,262.0,32.0,268.0,260.0,2399.051
2399062.0,251.0,33.0,274.0,258.0,2399.062
2399072.0,262.0,32.0,262.0,255.0,2399.072
2399082.0,245.0,32.0,267.0,248.0,2399.082
2399092.0,254.0,32.0,272.0,258.0,2399.092
2399102.0,264.0,33.0,269.0,261.0,2399.102
2399112.0,250.0,32.0,277.0,256.0,2399.112
2399122.0,259.0,33.0,265.0,256.0,2399.122
2399132.0,245.0,32.0,269.0,248.0,2399.132
2399142.0,251.0,32.0,276.0,260.0,2399.142
2399152.0,259.0,32.0,275.0,262.0,2399.152
2399162.0,247.0,31.0,279.0,258.0,2399.162
2399172.0,257.0,32.0,266.0,256.0,2399.172
2399182.0,245.0,32.0,271.0,252.0,2399.182
2399192.0,250.0,32.0,270.0,257.0,2399.192
2399202.0,259.0,32.0,273.0,262.0,2399.202
2399212.0,244.0,32.0,277.0,256.0,2399.212
2399222.0,255.0,33.0,267.0,255.0,2399.222
2399232.0,240.0,32.0,270.0,248.0,2399.232
2399242.0,247.0,32.0,271.0,257.0,2399.242
2399252.0,256.0,34.0,271.0,262.0,2399.252
2399262.0,241.0,32.0,273.0,256.0,2399.262
2399272.0,250.0,33.0,261.0,255.0,2399.272
2399282.0,238.0,32.0,265.0,248.0,2399.282
2399292.0,245.0,33.0,269.0,258.0,2399.292
2399302.0,255.0,33.0,269.0,261.0,2399.302
2399312.0,239.0,33.0,272.0,257.0,2399.312
2399322.0,251.0,33.0,263.0,257.0,2399.322
2399332.0,236.0,32.0,264.0,250.0,2399.332
2399342.0,243.0,32.0,270.0,261.0,2399.342
2399352.0,254.0,34.0,269.0,263.0,2399.352
2399362.0,237.0,32.0,273.0,259.0,2399.362
2399372.0,247.0,32.0,262.0,257.0,2399.372
2399382.0,233.0,33.0,264.0,253.0,2399.382
2399392.0,240.0,32.0,269.0,260.0,2399.392
2399403.0,250.0,34.0,262.0,261.0,2399.403
2399413.0,234.0,32.0,270.0,255.0,2399.413
2399423.0,240.0,33.0,262.0,255.0,2399.423
2399433.0,239.0,33.0,268.0,257.0,2399.433
2399443.0,238.0,33.0,276.0,263.0,2399.443
2399453.0,249.0,33.0,267.0,262.0,2399.453
2399463.0,232.0,33.0,270.0,255.0,2399.463
2399473.0,238.0,33.0,263.0,255.0,2399.473
2399483.0,239.0,33.0,270.0,259.0,2399.483
2399493.0,237.0,33.0,274.0,262.0,2399.493
2399503.0,247.0,33.0,265.0,262.0,2399.503
2399513.0,230.0,33.0,271.0,255.0,2399.513
2399523.0,235.0,32.0,264.0,255.0,2399.523
2399533.0,233.0,33.0,269.0,256.0,2399.533
2399543.0,237.0,33.0,277.0,264.0,2399.543
2399553.0,244.0,33.0,266.0,261.0,2399.553
2399563.0,228.0,33.0,273.0,255.0,2399.563
2399574.0,235.0,33.0,266.0,256.0,2399.574
2399584.0,240.0,32.0,274.0,261.0,2399.584
2399594.0,233.0,32.0,279.0,261.0,2399.594
2399604.0,242.0,33.0,268.0,258.0,2399.604
2399614.0,226.0,32.0,272.0,251.0,2399.614
2399624.0,232.0,33.0,269.0,256.0,2399.624
2399634.0,238.0,33.0,274.0,264.0,2399.634
2399644.0,230.0,32.0,277.0,260.0,2399.644
2399654.0,239.0,32.0,265.0,257.0,2399.654
2399664.0,225.0,33.0,271.0,252.0,2399.664
2399674.0,232.0,32.0,267.0,255.0,2399.674
2399684.0,238.0,33.0,274.0,264.0,2399.684
2399694.0,230.0,33.0,278.0,261.0,2399.694
2399704.0,240.0,34.0,267.0,261.0,2399.704
2399714.0,224.0,32.0,273.0,252.0,2399.714
2399724.0,231.0,31.0,269.0,257.0,2399.724
2399734.0,239.0,33.0,275.0,263.0,2399.734
2399744.0,232.0,32.0,279.0,262.0,2399.744
2399754.0,239.0,33.0,268.0,259.0,2399.754
2399764.0,224.0,32.0,271.0,252.0,2399.764
2399774.0,231.0,32.0,269.0,256.0,2399.774
2399784.0,239.0,32.0,274.0,263.0,2399.784
2399794.0,230.0,32.0,278.0,260.0,2399.794
2399804.0,238.0,32.0,265.0,257.0,2399.804
2399814.0,222.0,32.0,270.0,248.0,2399.814
2399824.0,230.0,32.0,270.0,257.0,2399.824
2399834.0,236.0,33.0,274.0,260.0,2399.834
2399844.0,230.0,32.0,278.0,258.0,2399.844
2399854.0,237.0,32.0,265.0,257.0,2399.854
2399864.0,224.0,32.0,269.0,248.0,2399.864
2399874.0,228.0,32.0,264.0,253.0,2399.874
2399884.0,235.0,33.0,271.0,261.0,2399.884
2399894.0,229.0,33.0,273.0,259.0,2399.894
2399904.0,235.0,32.0,262.0,256.0,2399.904
2399915.0,222.0,32.0,265.0,247.0,2399.915
2399925.0,230.0,32.0,270.0,257.0,2399.925
2399935.0,239.0,33.0,270.0,261.0,2399.935
2399945.0,225.0,32.0,273.0,255.0,2399.945
2399955.0,232.0,33.0,263.0,254.0,2399.955
2399965.0,222.0,32.0,267.0,249.0,2399.965
2399975.0,229.0,32.0,272.0,258.0,2399.975
2399985.0,237.0,33.0,269.0,261.0,2399.985
2399995.0,226.0,31.0,272.0,253.0,2399.995
2400005.0,233.0,32.0,262.0,255.0,2400.005
2400015.0,223.0,31.0,266.0,250.0,2400.015
2400025.0,228.0,33.0,272.0,260.0,2400.025
2400035.0,236.0,33.0,267.0,261.0,2400.035
2400045.0,226.0,33.0,272.0,256.0,2400.045
2400055.0,230.0,33.0,260.0,255.0,2400.055
2400065.0,222.0,32.0,262.0,252.0,2400.065
2400075.0,230.0,32.0,271.0,261.0,2400.075
2400086.0,235.0,33.0,262.0,262.0,2400.086
2400096.0,223.0,32.0,267.0,252.0,2400.096
2400106.0,227.0,32.0,259.0,253.0,2400.106
2400116.0,228.0,33.0,268.0,258.0,2400.116
2400126.0,229.0,31.0,274.0,260.0,2400.126
2400136.0,235.0,32.0,263.0,260.0,2400.136
2400146.0,222.0,32.0,270.0,253.0,2400.146
2400156.0,226.0,33.0,261.0,254.0,2400.156
2400166.0,229.0,32.0,270.0,259.0,2400.166
2400176.0,229.0,32.0,273.0,261.0,2400.176
2400186.0,235.0,32.0,262.0,259.0,2400.186
2400196.0,220.0,33.0,268.0,252.0,2400.196
2400206.0,225.0,32.0,262.0,253.0,2400.206
2400216.0,224.0,32.0,268.0,256.0,2400.216
2400226.0,228.0,32.0,276.0,261.0,2400.226
2400236.0,234.0,33.0,265.0,258.0,2400.236
2400246.0,221.0,32.0,273.0,250.0,2400.246
2400256.0,226.0,32.0,265.0,254.0,2400.256
2400266.0,225.0,32.0,273.0,256.0,2400.266
2400276.0,228.0,32.0,279.0,261.0,2400.276
2400286.0,232.0,32.0,266.0,258.0,2400.286
2400296.0,220.0,32.0,273.0,250.0,2400.296
2400306.0,226.0,33.0,267.0,254.0,2400.306
2400316.0,228.0,31.0,273.0,258.0,2400.316
2400326.0,226.0,32.0,278.0,261.0,2400.326
2400336.0,232.0,32.0,266.0,257.0,2400.336
2400346.0,220.0,33.0,274.0,254.0,2400.346
2400356.0,225.0,32.0,266.0,254.0,2400.356
2400366.0,227.0,32.0,276.0,260.0,2400.366
2400376.0,227.0,32.0,280.0,261.0,2400.376
2400386.0,234.0,33.0,270.0,261.0,2400.386
2400396.0,220.0,33.0,275.0,253.0,2400.396
2400406.0,224.0,33.0,267.0,255.0,2400.406
2400416.0,227.0,32.0,276.0,260.0,2400.416
2400427.0,226.0,32.0,279.0,259.0,2400.427
2400437.0,229.0,32.0,267.0,257.0,2400.437
2400447.0,218.0,31.0,271.0,248.0,2400.447
2400457.0,224.0,32.0,271.0,256.0,2400.457
2400467.0,231.0,33.0,273.0,263.0,2400.467
2400477.0,225.0,33.0,280.0,260.0,2400.477
2400487.0,229.0,32.0,267.0,257.0,2400.487
2400497.0,217.0,32.0,271.0,248.0,2400.497
2400507.0,226.0,31.0,273.0,258.0,2400.507
2400517.0,229.0,32.0,276.0,261.0,2400.517
2400527.0,225.0,32.0,282.0,258.0,2400.527
2400537.0,227.0,33.0,268.0,257.0,2400.537
2400547.0,218.0,32.0,270.0,249.0,2400.547
2400557.0,224.0,32.0,268.0,255.0,2400.557
2400567.0,231.0,32.0,275.0,261.0,2400.567
2400577.0,224.0,31.0,278.0,258.0,2400.577
2400587.0,227.0,32.0,267.0,257.0,2400.587
2400598.0,217.0,32.0,268.0,249.0,2400.598
2400608.0,225.0,32.0,274.0,259.0,2400.608
2400618.0,231.0,32.0,270.0,261.0,2400.618
2400628.0,221.0,32.0,275.0,253.0,2400.628
2400638.0,225.0,31.0,266.0,254.0,2400.638
2400648.0,217.0,32.0,269.0,249.0,2400.648
2400658.0,225.0,32.0,273.0,259.0,2400.658
2400668.0,231.0,33.0,266.0,260.0,2400.668
2400678.0,220.0,32.0,270.0,250.0,2400.678
2400688.0,225.0,32.0,261.0,253.0,2400.688
2400698.0,219.0,32.0,267.0,249.0,2400.698
2400708.0,226.0,32.0,273.0,258.0,2400.708
2400718.0,231.0,32.0,266.0,258.0,2400.718
2400728.0,222.0,33.0,275.0,254.0,2400.728
2400738.0,225.0,32.0,264.0,253.0,2400.738
2400748.0,220.0,31.0,272.0,251.0,2400.748
2400758.0,226.0,32.0,279.0,259.0,2400.758
2400768.0,231.0,31.0,273.0,260.0,2400.768
2400778.0,222.0,31.0,279.0,253.0,2400.778
2400788.0,225.0,32.0,269.0,254.0,2400.788
2400798.0,221.0,32.0,274.0,253.0,2400.798
2400808.0,227.0,31.0,281.0,260.0,2400.808
2400818.0,231.0,32.0,273.0,261.0,2400.818
2400828.0,223.0,31.0,279.0,253.0,2400.828
2400838.0,224.0,32.0,268.0,254.0,2400.838
2400848.0,222.0,32.0,274.0,255.0,2400.848
2400858.0,225.0,33.0,277.0,260.0,2400.858
2400868.0,232.0,32.0,271.0,260.0,2400.868
2400878.0,221.0,32.0,277.0,252.0,2400.878
2400888.0,225.0,32.0,269.0,253.0,2400.888
2400898.0,218.0,31.0,270.0,248.0,2400.898
2400908.0,226.0,33.0,277.0,259.0,2400.908
2400918.0,232.0,33.0,271.0,260.0,2400.918
2400928.0,220.0,32.0,277.0,252.0,2400.928
2400939.0,224.0,32.0,268.0,253.0,2400.939
2400949.0,225.0,32.0,276.0,256.0,2400.949
2400959.0,227.0,31.0,281.0,258.0,2400.959
2400969.0,230.0,32.0,269.0,256.0,2400.969
2400979.0,218.0,32.0,274.0,249.0,2400.979
2400989.0,224.0,32.0,269.0,254.0,2400.989
2400999.0,227.0,32.0,277.0,258.0,2400.999
2401009.0,226.0,32.0,281.0,259.0,2401.009
2401019.0,231.0,32.0,269.0,256.0,2401.019
2401029.0,220.0,31.0,276.0,251.0,2401.029
2401039.0,224.0,32.0,268.0,253.0,2401.039
2401049.0,228.0,33.0,278.0,260.0,2401.049
2401059.0,226.0,32.0,282.0,258.0,2401.059
2401069.0,232.0,32.0,270.0,258.0,2401.069
2401079.0,219.0,31.0,278.0,250.0,2401.079
2401089.0,223.0,31.0,268.0,253.0,2401.089
2401099.0,229.0,33.0,278.0,261.0,2401.099
2401110.0,225.0,32.0,281.0,259.0,2401.11
2401120.0,228.0,32.0,269.0,256.0,2401.12
2401130.0,217.0,32.0,273.0,248.0,2401.13
2401140.0,225.0,32.0,277.0,258.0,2401.14
2401150.0,233.0,31.0,276.0,262.0,2401.15
2401160.0,224.0,32.0,281.0,257.0,2401.16
2401170.0,227.0,32.0,269.0,255.0,2401.17
2401180.0,217.0,33.0,272.0,249.0,2401.18
2401190.0,227.0,32.0,279.0,260.0,2401.19
2401200.0,229.0,33.0,276.0,260.0,2401.2
2401210.0,225.0,31.0,279.0,256.0,2401.21
2401220.0,227.0,31.0,268.0,255.0,2401.22
2401230.0,218.0,32.0,269.0,248.0,2401.23
2401240.0,223.0,33.0,270.0,255.0,2401.24
2401250.0,231.0,33.0,275.0,261.0,2401.25
2401260.0,224.0,32.0,279.0,255.0,2401.26
2401270.0,227.0,32.0,268.0,254.0,2401.27
2401280.0,218.0,31.0,275.0,246.0,2401.28
2401290.0,223.0,32.0,273.0,255.0,2401.29
2401300.0,231.0,32.0,276.0,261.0,2401.3
2401310.0,223.0,33.0,281.0,255.0,2401.31
2401320.0,225.0,32.0,269.0,254.0,2401.32
2401330.0,217.0,32.0,273.0,247.0,2401.33
2401340.0,225.0,32.0,276.0,256.0,2401.34
2401350.0,231.0,33.0,278.0,262.0,2401.35
2401360.0,223.0,32.0,282.0,256.0,2401.36
2401370.0,227.0,34.0,271.0,257.0,2401.37
2401380.0,217.0,32.0,276.0,248.0,2401.38
2401390.0,224.0,32.0,279.0,258.0,2401.39
2401400.0,231.0,32.0,280.0,262.0,2401.4
2401410.0,224.0,31.0,283.0,258.0,2401.41
2401420.0,226.0,33.0,271.0,256.0,2401.42
2401430.0,216.0,32.0,273.0,250.0,2401.43
2401440.0,223.0,33.0,277.0,259.0,2401.44
2401451.0,230.0,32.0,273.0,263.0,2401.451
2401461.0,220.0,32.0,276.0,256.0,2401.461
2401471.0,225.0,32.0,267.0,255.0,2401.471
2401481.0,222.0,32.0,273.0,257.0,2401.481
2401491.0,226.0,33.0,279.0,261.0,2401.491
2401501.0,231.0,34.0,270.0,262.0,2401.501
2401511.0,220.0,32.0,276.0,254.0,2401.511
2401521.0,222.0,33.0,265.0,255.0,2401.521
2401531.0,223.0,33.0,276.0,258.0,2401.531
2401541.0,225.0,32.0,278.0,262.0,2401.541
2401551.0,229.0,33.0,271.0,263.0,2401.551
2401561.0,218.0,33.0,277.0,256.0,2401.561
2401571.0,222.0,32.0,267.0,255.0,2401.571
2401581.0,218.0,32.0,271.0,254.0,2401.581
2401591.0,225.0,32.0,279.0,262.0,2401.591
2401601.0,230.0,33.0,270.0,261.0,2401.601
2401611.0,219.0,33.0,277.0,256.0,2401.611
