time (ms),signal 0,signal 1,signal 2,signal 3,time (sec)
2364036.0,0.0,32.0,213.0,209.0,2364.036
2364046.0,0.0,32.0,207.0,210.0,2364.046
2364056.0,0.0,32.0,213.0,206.0,2364.056
2364066.0,0.0,33.0,205.0,206.0,2364.066
2364076.0,0.0,31.0,205.0,202.0,2364.076
2364086.0,0.0,33.0,208.0,210.0,2364.086
2364096.0,0.0,33.0,203.0,213.0,2364.096
2364106.0,0.0,32.0,207.0,206.0,2364.106
2364116.0,0.0,32.0,199.0,206.0,2364.116
2364126.0,0.0,33.0,200.0,204.0,2364.126
2364136.0,0.0,33.0,207.0,211.0,2364.136
2364146.0,0.0,33.0,198.0,212.0,2364.146
2364156.0,0.0,32.0,204.0,206.0,2364.156
2364166.0,0.0,34.0,195.0,209.0,2364.166
2364176.0,0.0,32.0,197.0,204.0,2364.176
2364186.0,0.0,32.0,204.0,213.0,2364.186
2364196.0,1.0,33.0,199.0,213.0,2364.196
2364206.0,0.0,32.0,204.0,209.0,2364.206
2364216.0,0.0,32.0,195.0,209.0,2364.216
2364226.0,0.0,33.0,197.0,208.0,2364.226
2364236.0,0.0,32.0,203.0,214.0,2364.236
2364246.0,0.0,33.0,199.0,215.0,2364.246
2364256.0,0.0,33.0,204.0,210.0,2364.256
2364266.0,0.0,33.0,196.0,210.0,2364.266
2364276.0,0.0,32.0,199.0,216.0,2364.276
2364286.0,0.0,32.0,213.0,229.0,2364.286
2364296.0,0.0,33.0,209.0,229.0,2364.296
2364306.0,665.0,42.0,238.0,245.0,2364.306
2364316.0,665.0,50.0,232.0,248.0,2364.316
2364326.0,667.0,55.0,233.0,246.0,2364.326
2364336.0,665.0,60.0,236.0,250.0,2364.336
2364346.0,665.0,63.0,236.0,253.0,2364.346
2364356.0,663.0,66.0,238.0,246.0,2364.356
2364366.0,660.0,68.0,232.0,246.0,2364.366
2364376.0,654.0,69.0,233.0,241.0,2364.376
2364386.0,625.0,70.0,245.0,251.0,2364.386
2364396.0,601.0,72.0,239.0,252.0,2364.396
2364406.0,206.0,68.0,246.0,244.0,2364.406
2364416.0,97.0,64.0,238.0,247.0,2364.416
2364426.0,2.0,58.0,240.0,240.0,2364.426
2364436.0,0.0,54.0,247.0,250.0,2364.436
2364446.0,0.0,50.0,239.0,250.0,2364.446
2364456.0,0.0,46.0,241.0,241.0,2364.456
2364466.0,0.0,44.0,234.0,243.0,2364.466
2364476.0,0.0,42.0,234.0,239.0,2364.476
2364486.0,0.0,41.0,240.0,246.0,2364.486
2364496.0,520.0,48.0,240.0,252.0,2364.496
2364506.0,526.0,50.0,244.0,248.0,2364.506
2364516.0,566.0,51.0,237.0,248.0,2364.516
2364526.0,633.0,53.0,242.0,247.0,2364.526
2364536.0,664.0,53.0,251.0,255.0,2364.536
2364546.0,665.0,55.0,246.0,256.0,2364.546
2364556.0,664.0,54.0,249.0,248.0,2364.556
2364566.0,664.0,54.0,241.0,248.0,2364.566
2364576.0,182.0,52.0,249.0,247.0,2364.576
2364587.0,43.0,49.0,255.0,253.0,2364.587
2364597.0,1.0,47.0,243.0,250.0,2364.597
2364607.0,0.0,45.0,243.0,239.0,2364.607
2364617.0,0.0,42.0,236.0,240.0,2364.617
2364627.0,0.0,41.0,239.0,244.0,2364.627
2364637.0,665.0,48.0,255.0,254.0,2364.637
2364647.0,662.0,48.0,244.0,252.0,2364.647
2364657.0,643.0,48.0,246.0,244.0,2364.657
2364667.0,644.0,48.0,241.0,248.0,2364.667
2364677.0,664.0,49.0,246.0,251.0,2364.677
2364687.0,665.0,48.0,253.0,253.0,2364.687
2364697.0,664.0,48.0,242.0,252.0,2364.697
2364707.0,664.0,47.0,247.0,242.0,2364.707
2364717.0,664.0,46.0,242.0,247.0,2364.717
2364727.0,666.0,45.0,248.0,250.0,2364.727
2364737.0,665.0,44.0,255.0,253.0,2364.737
2364747.0,664.0,44.0,244.0,250.0,2364.747
2364758.0,663.0,43.0,245.0,242.0,2364.758
2364768.0,661.0,43.0,245.0,248.0,2364.768
2364778.0,658.0,43.0,250.0,254.0,2364.778
2364788.0,200.0,41.0,256.0,249.0,2364.788
2364798.0,20.0,41.0,246.0,249.0,2364.798
2364808.0,1.0,41.0,250.0,240.0,2364.808
2364818.0,0.0,41.0,244.0,243.0,2364.818
2364828.0,0.0,40.0,241.0,242.0,2364.828
2364838.0,0.0,40.0,239.0,235.0,2364.838
2364848.0,0.0,40.0,225.0,232.0,2364.848
2364858.0,0.0,39.0,222.0,224.0,2364.858
2364868.0,0.0,40.0,220.0,229.0,2364.868
2364878.0,0.0,38.0,217.0,229.0,2364.878
2364888.0,0.0,38.0,214.0,226.0,2364.888
2364898.0,0.0,38.0,203.0,221.0,2364.898
2364908.0,0.0,38.0,198.0,215.0,2364.908
2364918.0,0.0,36.0,199.0,221.0,2364.918
2364928.0,0.0,37.0,210.0,227.0,2364.928
2364938.0,0.0,36.0,206.0,221.0,2364.938
2364948.0,664.0,43.0,212.0,228.0,2364.948
2364958.0,665.0,43.0,202.0,222.0,2364.958
2364968.0,665.0,43.0,210.0,231.0,2364.968
2364978.0,665.0,44.0,216.0,236.0,2364.978
2364988.0,664.0,44.0,218.0,237.0,2364.988
2364998.0,652.0,44.0,214.0,238.0,2364.998
2365008.0,663.0,43.0,209.0,234.0,2365.008
2365018.0,663.0,43.0,211.0,239.0,2365.018
2365028.0,211.0,42.0,212.0,241.0,2365.028
2365038.0,26.0,41.0,214.0,237.0,2365.038
2365048.0,1.0,40.0,215.0,241.0,2365.048
2365058.0,0.0,41.0,209.0,235.0,2365.058
2365068.0,0.0,39.0,207.0,237.0,2365.068
2365078.0,0.0,39.0,211.0,243.0,2365.078
2365088.0,0.0,38.0,198.0,233.0,2365.088
2365099.0,0.0,38.0,188.0,222.0,2365.099
2365109.0,0.0,37.0,177.0,217.0,2365.109
2365119.0,0.0,38.0,181.0,225.0,2365.119
2365129.0,0.0,36.0,179.0,222.0,2365.129
2365139.0,0.0,36.0,173.0,216.0,2365.139
2365149.0,666.0,43.0,199.0,232.0,2365.149
2365159.0,666.0,43.0,201.0,238.0,2365.159
2365169.0,666.0,45.0,216.0,252.0,2365.169
2365179.0,666.0,45.0,209.0,255.0,2365.179
2365189.0,666.0,45.0,223.0,251.0,2365.189
2365199.0,665.0,44.0,216.0,250.0,2365.199
2365209.0,666.0,44.0,228.0,246.0,2365.209
2365219.0,666.0,43.0,246.0,252.0,2365.219
2365229.0,666.0,44.0,243.0,253.0,2365.229
2365239.0,665.0,43.0,268.0,244.0,2365.239
2365249.0,666.0,42.0,263.0,249.0,2365.249
2365259.0,667.0,42.0,288.0,249.0,2365.259
2365270.0,666.0,41.0,310.0,256.0,2365.27
2365280.0,667.0,42.0,300.0,258.0,2365.28
2365290.0,665.0,41.0,338.0,247.0,2365.29
2365300.0,666.0,41.0,333.0,253.0,2365.3
2365310.0,666.0,41.0,346.0,259.0,2365.31
2365320.0,666.0,39.0,374.0,257.0,2365.32
2365330.0,666.0,40.0,361.0,258.0,2365.33
2365340.0,666.0,38.0,403.0,250.0,2365.34
2365350.0,666.0,39.0,394.0,254.0,2365.35
2365360.0,667.0,39.0,410.0,254.0,2365.36
2365370.0,666.0,37.0,434.0,257.0,2365.37
2365380.0,666.0,38.0,414.0,259.0,2365.38
2365390.0,666.0,36.0,453.0,248.0,2365.39
2365400.0,666.0,37.0,441.0,254.0,2365.4
2365410.0,667.0,37.0,458.0,258.0,2365.41
2365420.0,666.0,37.0,476.0,256.0,2365.42
2365430.0,666.0,37.0,456.0,256.0,2365.43
2365440.0,666.0,36.0,489.0,246.0,2365.44
2365450.0,666.0,36.0,476.0,249.0,2365.45
2365460.0,667.0,37.0,489.0,253.0,2365.46
2365470.0,667.0,35.0,508.0,252.0,2365.47
2365480.0,666.0,37.0,482.0,251.0,2365.48
2365490.0,666.0,35.0,512.0,244.0,2365.49
2365500.0,666.0,36.0,491.0,250.0,2365.5
2365510.0,666.0,36.0,496.0,256.0,2365.51
2365520.0,666.0,35.0,513.0,252.0,2365.52
2365530.0,666.0,36.0,486.0,254.0,2365.53
2365540.0,667.0,35.0,520.0,247.0,2365.54
2365550.0,666.0,35.0,501.0,252.0,2365.55
2365560.0,667.0,35.0,506.0,261.0,2365.56
2365570.0,666.0,35.0,518.0,258.0,2365.57
2365580.0,666.0,35.0,491.0,259.0,2365.58
2365590.0,666.0,34.0,520.0,249.0,2365.59
2365600.0,666.0,34.0,502.0,257.0,2365.6
2365611.0,667.0,34.0,502.0,263.0,2365.611
2365621.0,666.0,33.0,521.0,259.0,2365.621
2365631.0,666.0,35.0,494.0,263.0,2365.631
2365641.0,666.0,33.0,517.0,256.0,2365.641
2365651.0,666.0,33.0,511.0,267.0,2365.651
2365661.0,667.0,34.0,498.0,267.0,2365.661
2365671.0,666.0,33.0,520.0,262.0,2365.671
2365681.0,666.0,33.0,493.0,261.0,2365.681
2365691.0,666.0,33.0,515.0,257.0,2365.691
2365701.0,666.0,33.0,500.0,263.0,2365.701
2365711.0,666.0,32.0,496.0,269.0,2365.711
2365721.0,666.0,32.0,514.0,260.0,2365.721
2365731.0,667.0,32.0,492.0,259.0,2365.731
2365741.0,666.0,32.0,513.0,248.0,2365.741
2365751.0,666.0,32.0,501.0,259.0,2365.751
2365761.0,666.0,33.0,490.0,264.0,2365.761
2365771.0,666.0,32.0,516.0,260.0,2365.771
2365782.0,666.0,32.0,490.0,261.0,2365.782
2365792.0,667.0,32.0,508.0,256.0,2365.792
2365802.0,666.0,31.0,509.0,266.0,2365.802
2365812.0,666.0,32.0,483.0,267.0,2365.812
2365822.0,665.0,33.0,511.0,260.0,2365.822
2365832.0,666.0,32.0,486.0,262.0,2365.832
2365842.0,666.0,32.0,505.0,261.0,2365.842
2365852.0,666.0,32.0,503.0,269.0,2365.852
2365862.0,667.0,31.0,479.0,266.0,2365.862
2365872.0,666.0,31.0,507.0,260.0,2365.872
2365882.0,666.0,31.0,483.0,260.0,2365.882
2365892.0,667.0,32.0,495.0,261.0,2365.892
2365902.0,666.0,31.0,503.0,268.0,2365.902
2365912.0,666.0,31.0,479.0,263.0,2365.912
2365922.0,667.0,31.0,502.0,254.0,2365.922
2365932.0,666.0,31.0,475.0,254.0,2365.932
2365942.0,666.0,32.0,487.0,257.0,2365.942
2365952.0,666.0,32.0,491.0,260.0,2365.952
2365962.0,666.0,32.0,471.0,260.0,2365.962
2365972.0,665.0,31.0,500.0,260.0,2365.972
2365982.0,667.0,31.0,479.0,264.0,2365.982
2365992.0,667.0,31.0,485.0,266.0,2365.992
2366002.0,666.0,32.0,489.0,270.0,2366.002
2366012.0,666.0,32.0,466.0,269.0,2366.012
2366022.0,666.0,32.0,493.0,266.0,2366.022
2366032.0,666.0,32.0,469.0,262.0,2366.032
2366042.0,666.0,32.0,481.0,262.0,2366.042
2366052.0,667.0,31.0,485.0,272.0,2366.052
2366062.0,667.0,32.0,459.0,271.0,2366.062
2366072.0,666.0,32.0,484.0,264.0,2366.072
2366082.0,666.0,32.0,457.0,266.0,2366.082
2366092.0,667.0,32.0,473.0,264.0,2366.092
2366102.0,666.0,32.0,473.0,273.0,2366.102
2366112.0,667.0,32.0,448.0,270.0,2366.112
2366123.0,666.0,32.0,469.0,263.0,2366.123
2366133.0,666.0,32.0,448.0,263.0,2366.133
2366143.0,667.0,33.0,451.0,270.0,2366.143
2366153.0,666.0,32.0,463.0,271.0,2366.153
2366163.0,666.0,32.0,437.0,272.0,2366.163
2366173.0,666.0,32.0,458.0,269.0,2366.173
2366183.0,667.0,32.0,438.0,269.0,2366.183
2366193.0,667.0,33.0,443.0,276.0,2366.193
2366203.0,665.0,32.0,454.0,274.0,2366.203
2366213.0,666.0,33.0,424.0,272.0,2366.213
2366223.0,666.0,32.0,445.0,265.0,2366.223
2366233.0,666.0,32.0,427.0,269.0,2366.233
2366243.0,667.0,32.0,429.0,277.0,2366.243
2366253.0,666.0,32.0,435.0,277.0,2366.253
2366263.0,666.0,32.0,411.0,271.0,2366.263
2366273.0,665.0,32.0,430.0,264.0,2366.273
2366283.0,666.0,32.0,413.0,271.0,2366.283
2366294.0,666.0,32.0,410.0,275.0,2366.294
2366304.0,665.0,32.0,421.0,272.0,2366.304
2366314.0,666.0,33.0,398.0,268.0,2366.314
2366324.0,666.0,32.0,410.0,263.0,2366.324
2366334.0,666.0,33.0,405.0,273.0,2366.334
2366344.0,666.0,33.0,395.0,276.0,2366.344
2366354.0,666.0,32.0,406.0,272.0,2366.354
2366364.0,666.0,32.0,383.0,264.0,2366.364
2366374.0,667.0,32.0,394.0,261.0,2366.374
2366384.0,666.0,32.0,388.0,269.0,2366.384
2366394.0,666.0,33.0,383.0,273.0,2366.394
2366404.0,665.0,33.0,399.0,270.0,2366.404
2366414.0,665.0,32.0,374.0,264.0,2366.414
2366424.0,665.0,32.0,388.0,258.0,2366.424
2366434.0,666.0,32.0,381.0,265.0,2366.434
2366444.0,666.0,32.0,379.0,272.0,2366.444
2366454.0,665.0,32.0,392.0,268.0,2366.454
2366464.0,665.0,32.0,369.0,269.0,2366.464
2366474.0,666.0,32.0,383.0,264.0,2366.474
2366484.0,666.0,32.0,375.0,275.0,2366.484
2366494.0,666.0,32.0,364.0,275.0,2366.494
2366504.0,666.0,31.0,379.0,275.0,2366.504
2366514.0,665.0,32.0,359.0,275.0,2366.514
2366524.0,665.0,32.0,371.0,268.0,2366.524
2366534.0,666.0,33.0,368.0,275.0,2366.534
2366544.0,666.0,32.0,353.0,277.0,2366.544
2366554.0,665.0,32.0,364.0,275.0,2366.554
2366564.0,666.0,32.0,344.0,271.0,2366.564
2366574.0,666.0,32.0,351.0,265.0,2366.574
2366584.0,665.0,32.0,352.0,274.0,2366.584
2366594.0,666.0,33.0,343.0,275.0,2366.594
2366604.0,665.0,32.0,351.0,271.0,2366.604
2366614.0,665.0,32.0,331.0,266.0,2366.614
2366624.0,666.0,32.0,336.0,265.0,2366.624
2366635.0,666.0,31.0,338.0,273.0,2366.635
2366645.0,666.0,32.0,327.0,273.0,2366.645
2366655.0,665.0,32.0,335.0,267.0,2366.655
2366665.0,666.0,32.0,319.0,268.0,2366.665
2366675.0,666.0,32.0,328.0,271.0,2366.675
2366685.0,665.0,32.0,328.0,274.0,2366.685
2366695.0,666.0,33.0,313.0,272.0,2366.695
2366705.0,665.0,33.0,320.0,265.0,2366.705
2366715.0,665.0,32.0,308.0,264.0,2366.715
2366725.0,666.0,32.0,313.0,266.0,2366.725
2366735.0,665.0,32.0,319.0,276.0,2366.735
2366745.0,666.0,33.0,303.0,273.0,2366.745
2366755.0,666.0,33.0,313.0,272.0,2366.755
2366765.0,665.0,32.0,301.0,275.0,2366.765
2366775.0,666.0,32.0,305.0,273.0,2366.775
2366785.0,665.0,33.0,310.0,282.0,2366.785
2366795.0,665.0,33.0,295.0,274.0,2366.795
2366806.0,666.0,32.0,302.0,268.0,2366.806
2366816.0,665.0,32.0,294.0,269.0,2366.816
2366826.0,667.0,31.0,298.0,276.0,2366.826
2366836.0,665.0,33.0,298.0,275.0,2366.836
2366846.0,665.0,33.0,282.0,271.0,2366.846
2366856.0,666.0,33.0,288.0,274.0,2366.856
2366866.0,665.0,32.0,279.0,276.0,2366.866
2366876.0,666.0,33.0,281.0,282.0,2366.876
2366886.0,666.0,32.0,282.0,286.0,2366.886
2366896.0,665.0,33.0,265.0,278.0,2366.896
2366906.0,665.0,32.0,259.0,275.0,2366.906
2366916.0,665.0,33.0,254.0,278.0,2366.916
2366926.0,666.0,32.0,255.0,279.0,2366.926
2366936.0,665.0,33.0,247.0,278.0,2366.936
2366946.0,666.0,33.0,244.0,275.0,2366.946
2366956.0,666.0,33.0,236.0,278.0,2366.956
2366966.0,665.0,33.0,237.0,282.0,2366.966
2366976.0,666.0,32.0,236.0,288.0,2366.976
2366986.0,664.0,33.0,227.0,286.0,2366.986
2366996.0,665.0,33.0,233.0,278.0,2366.996
2367006.0,665.0,33.0,213.0,272.0,2367.006
2367016.0,665.0,33.0,224.0,277.0,2367.016
2367026.0,656.0,33.0,231.0,279.0,2367.026
2367036.0,644.0,33.0,220.0,281.0,2367.036
2367046.0,633.0,36.0,246.0,283.0,2367.046
2367056.0,622.0,34.0,225.0,276.0,2367.056
2367066.0,612.0,35.0,244.0,277.0,2367.066
2367076.0,603.0,35.0,258.0,279.0,2367.076
2367086.0,591.0,34.0,251.0,279.0,2367.086
2367096.0,581.0,35.0,284.0,273.0,2367.096
2367106.0,572.0,34.0,266.0,274.0,2367.106
2367116.0,562.0,35.0,298.0,274.0,2367.116
2367126.0,552.0,34.0,320.0,276.0,2367.126
2367136.0,542.0,34.0,312.0,276.0,2367.136
2367147.0,534.0,34.0,355.0,268.0,2367.147
2367157.0,524.0,34.0,345.0,263.0,2367.157
2367167.0,514.0,34.0,372.0,274.0,2367.167
2367177.0,505.0,35.0,407.0,276.0,2367.177
2367187.0,496.0,34.0,390.0,274.0,2367.187
2367197.0,488.0,35.0,434.0,271.0,2367.197
2367207.0,481.0,33.0,425.0,266.0,2367.207
2367217.0,471.0,33.0,446.0,276.0,2367.217
2367227.0,464.0,33.0,485.0,276.0,2367.227
2367237.0,456.0,34.0,466.0,276.0,2367.237
2367247.0,449.0,34.0,507.0,270.0,2367.247
2367257.0,441.0,34.0,494.0,267.0,2367.257
2367267.0,433.0,34.0,510.0,276.0,2367.267
2367277.0,427.0,34.0,545.0,276.0,2367.277
2367287.0,419.0,34.0,525.0,275.0,2367.287
2367297.0,412.0,33.0,563.0,272.0,2367.297
2367307.0,405.0,34.0,551.0,269.0,2367.307
2367318.0,398.0,34.0,561.0,274.0,2367.318
2367328.0,392.0,34.0,595.0,272.0,2367.328
2367338.0,385.0,34.0,567.0,270.0,2367.338
2367348.0,378.0,35.0,599.0,269.0,2367.348
2367358.0,373.0,33.0,598.0,273.0,2367.358
2367368.0,366.0,34.0,585.0,276.0,2367.368
2367378.0,360.0,34.0,620.0,270.0,2367.378
2367388.0,354.0,34.0,589.0,266.0,2367.388
2367398.0,349.0,34.0,616.0,264.0,2367.398
2367408.0,344.0,34.0,604.0,264.0,2367.408
2367418.0,337.0,34.0,598.0,271.0,2367.418
2367428.0,332.0,35.0,625.0,269.0,2367.428
2367438.0,326.0,34.0,592.0,262.0,2367.438
2367448.0,321.0,34.0,619.0,264.0,2367.448
2367458.0,316.0,34.0,602.0,266.0,2367.458
2367468.0,311.0,34.0,593.0,271.0,2367.468
2367478.0,306.0,34.0,618.0,266.0,2367.478
2367488.0,301.0,33.0,583.0,263.0,2367.488
2367498.0,296.0,34.0,606.0,262.0,2367.498
2367508.0,291.0,34.0,590.0,262.0,2367.508
2367518.0,286.0,33.0,575.0,267.0,2367.518
2367528.0,282.0,33.0,602.0,263.0,2367.528
2367538.0,277.0,33.0,563.0,260.0,2367.538
2367548.0,272.0,33.0,583.0,259.0,2367.548
2367558.0,268.0,33.0,571.0,261.0,2367.558
2367568.0,264.0,32.0,550.0,264.0,2367.568
2367578.0,260.0,33.0,575.0,264.0,2367.578
2367588.0,255.0,32.0,535.0,257.0,2367.588
2367598.0,252.0,31.0,552.0,258.0,2367.598
2367608.0,246.0,33.0,539.0,263.0,2367.608
2367618.0,243.0,32.0,522.0,265.0,2367.618
2367628.0,240.0,33.0,544.0,264.0,2367.628
2367638.0,236.0,32.0,502.0,258.0,2367.638
2367648.0,231.0,32.0,519.0,258.0,2367.648
2367659.0,229.0,32.0,509.0,263.0,2367.659
2367669.0,224.0,31.0,483.0,264.0,2367.669
2367679.0,221.0,32.0,504.0,260.0,2367.679
2367689.0,217.0,33.0,467.0,252.0,2367.689
2367699.0,213.0,32.0,475.0,258.0,2367.699
2367709.0,211.0,31.0,475.0,263.0,2367.709
2367719.0,208.0,31.0,450.0,261.0,2367.719
2367729.0,204.0,31.0,470.0,259.0,2367.729
2367739.0,200.0,31.0,433.0,249.0,2367.739
2367749.0,199.0,31.0,448.0,255.0,2367.749
2367759.0,195.0,31.0,446.0,261.0,2367.759
2367769.0,192.0,31.0,417.0,259.0,2367.769
2367779.0,188.0,32.0,437.0,257.0,2367.779
2367789.0,187.0,30.0,404.0,249.0,2367.789
2367799.0,183.0,31.0,410.0,253.0,2367.799
2367809.0,181.0,30.0,413.0,259.0,2367.809
2367819.0,178.0,32.0,385.0,257.0,2367.819
2367830.0,175.0,30.0,401.0,254.0,2367.83
2367840.0,173.0,31.0,369.0,245.0,2367.84
2367850.0,171.0,31.0,374.0,255.0,2367.85
2367860.0,167.0,31.0,385.0,258.0,2367.86
2367870.0,165.0,31.0,351.0,250.0,2367.87
2367880.0,162.0,31.0,370.0,254.0,2367.88
2367890.0,160.0,30.0,343.0,247.0,2367.89
2367900.0,158.0,31.0,346.0,259.0,2367.9
2367910.0,156.0,32.0,360.0,259.0,2367.91
2367920.0,153.0,31.0,328.0,252.0,2367.92
2367930.0,151.0,31.0,343.0,253.0,2367.93
2367940.0,149.0,32.0,320.0,248.0,2367.94
2367950.0,147.0,32.0,321.0,257.0,2367.95
2367960.0,145.0,31.0,333.0,259.0,2367.96
2367970.0,143.0,31.0,305.0,252.0,2367.97
2367980.0,142.0,31.0,318.0,252.0,2367.98
2367990.0,138.0,31.0,299.0,249.0,2367.99
2368000.0,137.0,31.0,300.0,254.0,2368.0
2368010.0,136.0,31.0,308.0,258.0,2368.01
2368020.0,133.0,31.0,281.0,249.0,2368.02
2368030.0,131.0,32.0,293.0,252.0,2368.03
2368040.0,130.0,30.0,279.0,248.0,2368.04
2368050.0,128.0,31.0,280.0,255.0,2368.05
2368060.0,126.0,31.0,292.0,257.0,2368.06
2368070.0,125.0,31.0,263.0,249.0,2368.07
2368080.0,123.0,31.0,274.0,250.0,2368.08
2368090.0,121.0,31.0,256.0,244.0,2368.09
2368100.0,120.0,31.0,264.0,254.0,2368.1
2368110.0,119.0,31.0,273.0,256.0,2368.11
2368120.0,117.0,31.0,245.0,247.0,2368.12
2368130.0,116.0,32.0,261.0,250.0,2368.13
2368140.0,114.0,32.0,242.0,244.0,2368.14
2368150.0,112.0,31.0,248.0,253.0,2368.15
2368160.0,111.0,32.0,257.0,255.0,2368.16
2368171.0,110.0,31.0,234.0,246.0,2368.171
2368181.0,108.0,31.0,241.0,248.0,2368.181
2368191.0,107.0,32.0,242.0,251.0,2368.191
2368201.0,105.0,32.0,237.0,255.0,2368.201
2368211.0,104.0,32.0,248.0,252.0,2368.211
2368221.0,103.0,32.0,225.0,246.0,2368.221
2368231.0,101.0,32.0,233.0,248.0,2368.231
2368241.0,101.0,31.0,233.0,252.0,2368.241
2368251.0,98.0,32.0,228.0,253.0,2368.251
2368261.0,99.0,31.0,239.0,256.0,2368.261
2368271.0,97.0,32.0,216.0,246.0,2368.271
2368281.0,96.0,31.0,223.0,249.0,2368.281
2368291.0,94.0,31.0,225.0,254.0,2368.291
2368301.0,95.0,31.0,223.0,255.0,2368.301
2368311.0,93.0,32.0,229.0,256.0,2368.311
2368321.0,91.0,31.0,209.0,245.0,2368.321
2368331.0,90.0,32.0,214.0,249.0,2368.331
2368342.0,90.0,31.0,221.0,254.0,2368.342
2368352.0,88.0,31.0,212.0,253.0,2368.352
2368362.0,88.0,31.0,217.0,252.0,2368.362
2368372.0,87.0,31.0,199.0,241.0,2368.372
2368382.0,85.0,32.0,210.0,251.0,2368.382
2368392.0,85.0,32.0,215.0,254.0,2368.392
2368402.0,84.0,31.0,209.0,250.0,2368.402
2368412.0,83.0,30.0,209.0,249.0,2368.412
2368422.0,81.0,31.0,195.0,239.0,2368.422
2368432.0,82.0,31.0,202.0,247.0,2368.432
2368442.0,80.0,31.0,210.0,254.0,2368.442
2368452.0,79.0,31.0,203.0,249.0,2368.452
2368462.0,78.0,31.0,206.0,250.0,2368.462
2368472.0,78.0,30.0,196.0,242.0,2368.472
2368482.0,77.0,32.0,202.0,248.0,2368.482
2368492.0,78.0,31.0,211.0,255.0,2368.492
2368502.0,75.0,31.0,204.0,249.0,2368.502
2368512.0,74.0,31.0,206.0,249.0,2368.512
2368522.0,74.0,31.0,193.0,240.0,2368.522
2368532.0,72.0,31.0,201.0,246.0,2368.532
2368542.0,72.0,31.0,210.0,253.0,2368.542
2368552.0,72.0,30.0,203.0,247.0,2368.552
2368562.0,71.0,30.0,206.0,249.0,2368.562
2368572.0,70.0,31.0,196.0,239.0,2368.572
2368582.0,70.0,31.0,206.0,248.0,2368.582
2368592.0,69.0,31.0,214.0,256.0,2368.592
2368602.0,68.0,31.0,212.0,253.0,2368.602
2368612.0,67.0,32.0,211.0,252.0,2368.612
2368622.0,68.0,31.0,202.0,241.0,2368.622
2368632.0,65.0,31.0,207.0,250.0,2368.632
2368642.0,67.0,31.0,213.0,254.0,2368.642
2368652.0,65.0,31.0,209.0,251.0,2368.652
2368662.0,64.0,31.0,208.0,249.0,2368.662
2368672.0,64.0,31.0,198.0,240.0,2368.672
2368683.0,63.0,30.0,209.0,250.0,2368.683
2368693.0,62.0,31.0,215.0,255.0,2368.693
2368703.0,60.0,31.0,207.0,246.0,2368.703
2368713.0,59.0,32.0,206.0,249.0,2368.713
2368723.0,58.0,31.0,207.0,247.0,2368.723
2368733.0,57.0,31.0,212.0,253.0,2368.733
2368743.0,55.0,31.0,216.0,255.0,2368.743
2368753.0,53.0,30.0,208.0,246.0,2368.753
2368763.0,51.0,31.0,206.0,247.0,2368.763
2368773.0,50.0,29.0,202.0,241.0,2368.773
2368783.0,47.0,32.0,211.0,252.0,2368.783
2368793.0,47.0,32.0,214.0,255.0,2368.793
2368803.0,45.0,31.0,207.0,245.0,2368.803
2368813.0,47.0,31.0,209.0,249.0,2368.813
2368823.0,44.0,31.0,206.0,244.0,2368.823
2368833.0,45.0,32.0,216.0,253.0,2368.833
2368843.0,44.0,33.0,217.0,257.0,2368.843
2368854.0,45.0,32.0,211.0,246.0,2368.854
2368864.0,45.0,32.0,211.0,249.0,2368.864
2368874.0,46.0,33.0,217.0,251.0,2368.874
2368884.0,46.0,33.0,219.0,253.0,2368.884
2368894.0,46.0,33.0,214.0,253.0,2368.894
2368904.0,47.0,32.0,213.0,245.0,2368.904
2368914.0,48.0,34.0,213.0,248.0,2368.914
2368924.0,49.0,33.0,219.0,253.0,2368.924
2368934.0,49.0,33.0,223.0,253.0,2368.934
2368944.0,52.0,34.0,221.0,255.0,2368.944
2368954.0,51.0,33.0,217.0,245.0,2368.954
2368964.0,52.0,33.0,218.0,248.0,2368.964
2368974.0,53.0,34.0,223.0,254.0,2368.974
2368984.0,54.0,33.0,226.0,254.0,2368.984
2368994.0,56.0,35.0,220.0,254.0,2368.994
2369004.0,57.0,33.0,217.0,243.0,2369.004
2369014.0,58.0,33.0,214.0,247.0,2369.014
2369024.0,59.0,33.0,218.0,248.0,2369.024
2369034.0,60.0,33.0,224.0,252.0,2369.034
2369044.0,61.0,34.0,219.0,251.0,2369.044
2369054.0,62.0,33.0,220.0,242.0,2369.054
2369064.0,64.0,34.0,220.0,247.0,2369.064
2369074.0,65.0,34.0,225.0,249.0,2369.074
2369084.0,64.0,33.0,233.0,254.0,2369.084
2369094.0,65.0,33.0,225.0,253.0,2369.094
2369104.0,66.0,33.0,225.0,243.0,2369.104
2369114.0,66.0,33.0,225.0,248.0,2369.114
2369124.0,67.0,34.0,232.0,252.0,2369.124
2369134.0,67.0,32.0,236.0,254.0,2369.134
2369144.0,67.0,33.0,228.0,252.0,2369.144
2369154.0,67.0,33.0,231.0,245.0,2369.154
2369164.0,67.0,34.0,227.0,248.0,2369.164
2369174.0,67.0,33.0,234.0,253.0,2369.174
2369184.0,67.0,34.0,239.0,255.0,2369.184
2369195.0,68.0,33.0,231.0,252.0,2369.195
2369205.0,67.0,33.0,231.0,243.0,2369.205
2369215.0,66.0,33.0,232.0,251.0,2369.215
2369225.0,67.0,33.0,236.0,256.0,2369.225
2369235.0,66.0,33.0,237.0,250.0,2369.235
2369245.0,66.0,33.0,233.0,252.0,2369.245
2369255.0,65.0,33.0,231.0,242.0,2369.255
2369265.0,66.0,33.0,236.0,251.0,2369.265
2369275.0,65.0,33.0,239.0,257.0,2369.275
2369285.0,65.0,33.0,241.0,253.0,2369.285
2369295.0,64.0,33.0,232.0,252.0,2369.295
2369305.0,63.0,32.0,229.0,241.0,2369.305
2369315.0,63.0,33.0,235.0,252.0,2369.315
2369325.0,64.0,33.0,239.0,255.0,2369.325
2369335.0,62.0,32.0,239.0,251.0,2369.335
2369345.0,63.0,32.0,232.0,250.0,2369.345
2369355.0,62.0,32.0,230.0,242.0,2369.355
2369366.0,61.0,32.0,239.0,253.0,2369.366
2369376.0,62.0,33.0,239.0,258.0,2369.376
2369386.0,61.0,32.0,239.0,249.0,2369.386
2369396.0,61.0,32.0,232.0,251.0,2369.396
2369406.0,59.0,33.0,238.0,251.0,2369.406
2369416.0,60.0,32.0,240.0,256.0,2369.416
2369426.0,59.0,33.0,239.0,257.0,2369.426
2369436.0,59.0,32.0,238.0,249.0,2369.436
2369446.0,58.0,33.0,233.0,250.0,2369.446
2369456.0,58.0,32.0,233.0,246.0,2369.456
2369466.0,58.0,32.0,242.0,255.0,2369.466
2369476.0,59.0,32.0,240.0,257.0,2369.476
2369486.0,57.0,33.0,240.0,249.0,2369.486
2369496.0,57.0,32.0,235.0,252.0,2369.496
2369506.0,57.0,33.0,237.0,249.0,2369.506
2369516.0,56.0,32.0,246.0,256.0,2369.516
2369526.0,55.0,32.0,240.0,258.0,2369.526
2369536.0,55.0,32.0,244.0,251.0,2369.536
2369546.0,54.0,33.0,236.0,252.0,2369.546
2369556.0,53.0,32.0,238.0,247.0,2369.556
2369566.0,53.0,32.0,247.0,256.0,2369.566
2369576.0,51.0,32.0,242.0,256.0,2369.576
2369586.0,52.0,32.0,245.0,250.0,2369.586
2369596.0,50.0,32.0,238.0,251.0,2369.596
2369606.0,51.0,31.0,244.0,250.0,2369.606
2369616.0,49.0,33.0,251.0,257.0,2369.616
2369626.0,48.0,32.0,246.0,259.0,2369.626
2369636.0,47.0,32.0,245.0,250.0,2369.636
2369646.0,47.0,32.0,239.0,251.0,2369.646
2369656.0,46.0,31.0,242.0,251.0,2369.656
2369666.0,46.0,32.0,246.0,255.0,2369.666
2369676.0,45.0,33.0,242.0,257.0,2369.676
2369686.0,44.0,32.0,243.0,249.0,2369.686
2369696.0,44.0,32.0,238.0,250.0,2369.696
2369707.0,43.0,32.0,245.0,254.0,2369.707
2369717.0,43.0,31.0,251.0,258.0,2369.717
2369727.0,43.0,32.0,242.0,256.0,2369.727
2369737.0,43.0,33.0,243.0,247.0,2369.737
2369747.0,42.0,33.0,240.0,250.0,2369.747
2369757.0,42.0,32.0,244.0,254.0,2369.757
2369767.0,42.0,32.0,249.0,256.0,2369.767
2369777.0,43.0,33.0,240.0,254.0,2369.777
2369787.0,42.0,32.0,240.0,244.0,2369.787
2369797.0,43.0,32.0,239.0,250.0,2369.797
2369807.0,42.0,33.0,246.0,256.0,2369.807
2369817.0,42.0,32.0,251.0,256.0,2369.817
2369827.0,42.0,33.0,241.0,255.0,2369.827
2369837.0,42.0,32.0,245.0,248.0,2369.837
2369847.0,43.0,32.0,240.0,251.0,2369.847
2369857.0,42.0,32.0,246.0,256.0,2369.857
2369867.0,42.0,32.0,250.0,255.0,2369.867
2369878.0,42.0,32.0,241.0,254.0,2369.878
2369888.0,42.0,32.0,242.0,245.0,2369.888
2369898.0,41.0,33.0,245.0,254.0,2369.898
2369908.0,43.0,32.0,248.0,258.0,2369.908
2369918.0,42.0,32.0,248.0,252.0,2369.918
2369928.0,42.0,33.0,240.0,254.0,2369.928
2369938.0,42.0,32.0,242.0,245.0,2369.938
2369948.0,42.0,32.0,250.0,254.0,2369.948
2369958.0,42.0,33.0,248.0,259.0,2369.958
2369968.0,43.0,32.0,250.0,254.0,2369.968
2369978.0,42.0,32.0,240.0,253.0,2369.978
2369988.0,44.0,32.0,241.0,243.0,2369.988
2369998.0,43.0,33.0,245.0,255.0,2369.998
2370008.0,43.0,32.0,247.0,256.0,2370.008
2370018.0,43.0,33.0,248.0,254.0,2370.018
2370028.0,43.0,32.0,239.0,252.0,2370.028
2370038.0,43.0,31.0,239.0,245.0,2370.038
2370048.0,43.0,32.0,241.0,252.0,2370.048
2370058.0,43.0,32.0,246.0,258.0,2370.058
2370068.0,42.0,32.0,244.0,252.0,2370.068
2370078.0,43.0,32.0,236.0,251.0,2370.078
2370088.0,43.0,33.0,236.0,245.0,2370.088
2370098.0,42.0,32.0,239.0,251.0,2370.098
2370108.0,42.0,32.0,244.0,257.0,2370.108
2370118.0,43.0,32.0,245.0,251.0,2370.118
2370128.0,42.0,34.0,237.0,252.0,2370.128
2370138.0,42.0,32.0,236.0,243.0,2370.138
2370148.0,42.0,33.0,240.0,254.0,2370.148
2370158.0,43.0,33.0,244.0,258.0,2370.158
2370168.0,41.0,32.0,242.0,252.0,2370.168
2370178.0,42.0,32.0,237.0,253.0,2370.178
2370188.0,41.0,33.0,235.0,244.0,2370.188
2370198.0,42.0,33.0,239.0,253.0,2370.198
2370208.0,41.0,32.0,240.0,257.0,2370.208
2370219.0,41.0,32.0,237.0,249.0,2370.219
2370229.0,42.0,31.0,229.0,250.0,2370.229
2370239.0,41.0,32.0,229.0,248.0,2370.239
2370249.0,41.0,32.0,238.0,256.0,2370.249
2370259.0,41.0,33.0,231.0,254.0,2370.259
2370269.0,42.0,32.0,235.0,249.0,2370.269
2370279.0,61.0,32.0,230.0,250.0,2370.279
2370289.0,67.0,32.0,233.0,249.0,2370.289
2370299.0,92.0,32.0,240.0,255.0,2370.299
2370309.0,120.0,33.0,236.0,256.0,2370.309
2370319.0,121.0,33.0,235.0,250.0,2370.319
2370329.0,159.0,32.0,231.0,250.0,2370.329
2370339.0,167.0,32.0,235.0,253.0,2370.339
2370349.0,187.0,33.0,239.0,257.0,2370.349
2370359.0,218.0,33.0,237.0,259.0,2370.359
2370369.0,214.0,33.0,236.0,250.0,2370.369
2370379.0,252.0,33.0,231.0,253.0,2370.379
2370390.0,261.0,34.0,236.0,254.0,2370.39
2370400.0,271.0,33.0,242.0,257.0,2370.4
2370410.0,307.0,34.0,236.0,256.0,2370.41
2370420.0,300.0,33.0,235.0,247.0,2370.42
2370430.0,330.0,34.0,234.0,252.0,2370.43
2370440.0,341.0,33.0,239.0,255.0,2370.44
2370450.0,344.0,34.0,243.0,257.0,2370.45
2370460.0,380.0,34.0,235.0,255.0,2370.46
2370470.0,370.0,33.0,236.0,246.0,2370.47
2370480.0,401.0,34.0,236.0,251.0,2370.48
2370490.0,409.0,34.0,241.0,257.0,2370.49
2370500.0,409.0,33.0,247.0,257.0,2370.5
2370510.0,442.0,34.0,238.0,256.0,2370.51
2370520.0,429.0,34.0,239.0,249.0,2370.52
2370530.0,458.0,34.0,235.0,251.0,2370.53
2370540.0,467.0,35.0,243.0,257.0,2370.54
2370550.0,463.0,34.0,247.0,257.0,2370.55
2370560.0,493.0,35.0,239.0,257.0,2370.56
2370570.0,477.0,33.0,239.0,248.0,2370.57
2370580.0,503.0,35.0,236.0,252.0,2370.58
2370590.0,512.0,34.0,244.0,258.0,2370.59
2370600.0,503.0,35.0,245.0,256.0,2370.6
2370610.0,533.0,35.0,238.0,255.0,2370.61
2370620.0,516.0,35.0,236.0,246.0,2370.62
2370630.0,540.0,35.0,235.0,250.0,2370.63
2370640.0,548.0,36.0,242.0,258.0,2370.64
2370650.0,538.0,35.0,247.0,256.0,2370.65
2370660.0,566.0,36.0,238.0,256.0,2370.66
2370670.0,548.0,35.0,240.0,248.0,2370.67
2370680.0,570.0,35.0,239.0,252.0,2370.68
2370690.0,572.0,36.0,243.0,255.0,2370.69
2370700.0,566.0,35.0,247.0,256.0,2370.7
2370710.0,592.0,36.0,239.0,255.0,2370.71
2370720.0,574.0,34.0,240.0,245.0,2370.72
2370731.0,593.0,35.0,241.0,253.0,2370.731
2370741.0,604.0,36.0,247.0,258.0,2370.741
2370751.0,587.0,36.0,247.0,253.0,2370.751
2370761.0,612.0,36.0,239.0,252.0,2370.761
2370771.0,598.0,36.0,239.0,248.0,2370.771
2370781.0,611.0,35.0,242.0,253.0,2370.781
2370791.0,624.0,36.0,245.0,258.0,2370.791
2370801.0,606.0,35.0,247.0,251.0,2370.801
2370811.0,629.0,35.0,236.0,250.0,2370.811
2370821.0,612.0,35.0,235.0,241.0,2370.821
2370831.0,626.0,36.0,240.0,253.0,2370.831
2370841.0,640.0,35.0,242.0,257.0,2370.841
2370851.0,619.0,34.0,244.0,251.0,2370.851
2370861.0,644.0,35.0,237.0,253.0,2370.861
2370871.0,625.0,35.0,238.0,245.0,2370.871
2370881.0,636.0,35.0,244.0,256.0,2370.881
2370891.0,650.0,35.0,246.0,259.0,2370.891
2370902.0,630.0,35.0,246.0,251.0,2370.902
2370912.0,651.0,35.0,238.0,251.0,2370.912
2370922.0,642.0,34.0,239.0,250.0,2370.922
2370932.0,640.0,34.0,249.0,256.0,2370.932
2370942.0,661.0,35.0,239.0,256.0,2370.942
2370952.0,637.0,33.0,245.0,249.0,2370.952
2370962.0,658.0,35.0,238.0,251.0,2370.962
2370972.0,650.0,34.0,242.0,252.0,2370.972
2370982.0,644.0,34.0,249.0,256.0,2370.982
2370992.0,663.0,34.0,244.0,258.0,2370.992
2371002.0,642.0,33.0,244.0,249.0,2371.002
2371012.0,662.0,34.0,236.0,249.0,2371.012
2371022.0,657.0,33.0,241.0,252.0,2371.022
2371032.0,652.0,34.0,246.0,256.0,2371.032
2371042.0,663.0,34.0,242.0,256.0,2371.042
2371052.0,647.0,33.0,241.0,248.0,2371.052
2371062.0,663.0,33.0,238.0,250.0,2371.062
2371072.0,653.0,33.0,238.0,247.0,2371.072
2371082.0,654.0,33.0,247.0,255.0,2371.082
2371092.0,661.0,34.0,241.0,256.0,2371.092
2371102.0,648.0,32.0,240.0,246.0,2371.102
2371112.0,659.0,33.0,236.0,250.0,2371.112
2371122.0,655.0,33.0,239.0,248.0,2371.122
2371132.0,651.0,33.0,246.0,255.0,2371.132
2371142.0,659.0,33.0,238.0,254.0,2371.142
2371152.0,646.0,33.0,239.0,246.0,2371.152
2371162.0,659.0,33.0,235.0,248.0,2371.162
2371172.0,654.0,33.0,238.0,248.0,2371.172
2371182.0,649.0,33.0,245.0,255.0,2371.182
2371192.0,661.0,33.0,237.0,254.0,2371.192
2371202.0,645.0,32.0,241.0,249.0,2371.202
2371212.0,661.0,32.0,236.0,249.0,2371.212
2371222.0,655.0,33.0,240.0,251.0,2371.222
2371232.0,646.0,32.0,246.0,255.0,2371.232
2371243.0,660.0,33.0,238.0,255.0,2371.243
2371253.0,641.0,32.0,239.0,244.0,2371.253
2371263.0,657.0,33.0,235.0,250.0,2371.263
2371273.0,657.0,33.0,243.0,257.0,2371.273
2371283.0,638.0,33.0,245.0,255.0,2371.283
2371293.0,660.0,33.0,237.0,254.0,2371.293
2371303.0,636.0,32.0,239.0,245.0,2371.303
2371313.0,651.0,32.0,238.0,251.0,2371.313
2371323.0,654.0,33.0,244.0,257.0,2371.323
2371333.0,635.0,33.0,249.0,257.0,2371.333
2371343.0,656.0,33.0,241.0,256.0,2371.343
2371353.0,632.0,32.0,240.0,246.0,2371.353
2371363.0,646.0,32.0,240.0,252.0,2371.363
2371373.0,644.0,33.0,243.0,256.0,2371.373
2371383.0,631.0,32.0,248.0,256.0,2371.383
2371393.0,651.0,34.0,238.0,254.0,2371.393
2371403.0,626.0,32.0,236.0,244.0,2371.403
2371414.0,639.0,34.0,240.0,253.0,2371.414
2371424.0,646.0,32.0,244.0,258.0,2371.424
2371434.0,624.0,32.0,243.0,253.0,2371.434
2371444.0,643.0,33.0,237.0,252.0,2371.444
2371454.0,626.0,32.0,234.0,248.0,2371.454
2371464.0,632.0,33.0,238.0,253.0,2371.464
2371474.0,641.0,33.0,244.0,260.0,2371.474
2371484.0,617.0,33.0,243.0,252.0,2371.484
2371494.0,636.0,33.0,236.0,253.0,2371.494
2371504.0,614.0,32.0,233.0,245.0,2371.504
2371514.0,623.0,31.0,240.0,254.0,2371.514
2371524.0,633.0,33.0,243.0,258.0,2371.524
2371534.0,608.0,33.0,242.0,251.0,2371.534
2371544.0,629.0,34.0,236.0,253.0,2371.544
2371554.0,607.0,32.0,234.0,244.0,2371.554
2371564.0,614.0,32.0,241.0,255.0,2371.564
2371574.0,627.0,32.0,241.0,258.0,2371.574
2371584.0,602.0,31.0,238.0,253.0,2371.584
2371594.0,622.0,32.0,231.0,251.0,2371.594
2371604.0,600.0,33.0,229.0,247.0,2371.604
2371614.0,605.0,32.0,238.0,256.0,2371.614
2371624.0,619.0,32.0,236.0,258.0,2371.624
2371634.0,594.0,32.0,235.0,252.0,2371.634
2371644.0,613.0,31.0,228.0,251.0,2371.644
2371654.0,593.0,32.0,226.0,246.0,2371.654
2371664.0,595.0,32.0,236.0,256.0,2371.664
2371674.0,608.0,33.0,234.0,258.0,2371.674
2371684.0,586.0,32.0,235.0,252.0,2371.684
2371694.0,605.0,32.0,228.0,252.0,2371.694
2371704.0,589.0,31.0,229.0,247.0,2371.704
2371714.0,594.0,32.0,232.0,253.0,2371.714
2371724.0,604.0,32.0,236.0,258.0,2371.724
2371734.0,580.0,32.0,236.0,252.0,2371.734
2371744.0,599.0,32.0,230.0,252.0,2371.744
2371755.0,583.0,32.0,232.0,250.0,2371.755
2371765.0,580.0,32.0,242.0,258.0,2371.765
2371775.0,599.0,32.0,236.0,257.0,2371.775
2371785.0,572.0,32.0,235.0,249.0,2371.785
2371795.0,588.0,32.0,232.0,252.0,2371.795
2371805.0,577.0,32.0,234.0,252.0,2371.805
2371815.0,572.0,32.0,242.0,258.0,2371.815
2371825.0,590.0,32.0,235.0,256.0,2371.825
2371835.0,565.0,31.0,233.0,247.0,2371.835
2371845.0,583.0,32.0,230.0,252.0,2371.845
2371855.0,571.0,31.0,233.0,253.0,2371.855
2371865.0,563.0,32.0,238.0,257.0,2371.865
2371875.0,582.0,32.0,231.0,254.0,2371.875
2371885.0,557.0,31.0,234.0,252.0,2371.885
2371895.0,574.0,31.0,231.0,252.0,2371.895
2371905.0,565.0,31.0,234.0,254.0,2371.905
2371915.0,554.0,31.0,241.0,257.0,2371.915
2371926.0,575.0,33.0,234.0,256.0,2371.926
2371936.0,549.0,32.0,234.0,248.0,2371.936
2371946.0,564.0,32.0,236.0,254.0,2371.946
2371956.0,565.0,32.0,241.0,260.0,2371.956
2371966.0,545.0,31.0,242.0,257.0,2371.966
2371976.0,567.0,32.0,234.0,256.0,2371.976
2371986.0,541.0,31.0,235.0,248.0,2371.986
2371996.0,555.0,32.0,235.0,255.0,2371.996
2372006.0,559.0,32.0,242.0,262.0,2372.006
2372016.0,539.0,31.0,244.0,260.0,2372.016
2372026.0,560.0,31.0,237.0,256.0,2372.026
2372036.0,534.0,31.0,236.0,249.0,2372.036
2372046.0,547.0,32.0,238.0,256.0,2372.046
2372056.0,547.0,33.0,241.0,261.0,2372.056
2372066.0,532.0,32.0,245.0,258.0,2372.066
2372076.0,552.0,32.0,236.0,256.0,2372.076
2372086.0,528.0,31.0,235.0,247.0,2372.086
2372096.0,543.0,31.0,232.0,252.0,2372.096
2372106.0,541.0,32.0,241.0,259.0,2372.106
2372116.0,523.0,31.0,243.0,258.0,2372.116
2372126.0,543.0,32.0,233.0,255.0,2372.126
2372136.0,519.0,32.0,231.0,247.0,2372.136
2372146.0,534.0,32.0,232.0,252.0,2372.146
2372156.0,535.0,31.0,240.0,259.0,2372.156
2372166.0,515.0,32.0,242.0,256.0,2372.166
2372176.0,536.0,32.0,234.0,254.0,2372.176
2372186.0,513.0,32.0,235.0,249.0,2372.186
2372196.0,527.0,32.0,235.0,253.0,2372.196
2372206.0,530.0,32.0,244.0,261.0,2372.206
2372216.0,511.0,32.0,245.0,256.0,2372.216
2372226.0,533.0,31.0,236.0,256.0,2372.226
2372236.0,507.0,32.0,236.0,247.0,2372.236
2372246.0,521.0,32.0,236.0,255.0,2372.246
2372256.0,525.0,32.0,242.0,258.0,2372.256
2372267.0,504.0,32.0,244.0,255.0,2372.267
2372277.0,524.0,32.0,237.0,253.0,2372.277
2372287.0,504.0,31.0,238.0,250.0,2372.287
2372297.0,508.0,32.0,246.0,258.0,2372.297
2372307.0,522.0,32.0,243.0,261.0,2372.307
2372317.0,498.0,31.0,244.0,255.0,2372.317
2372327.0,517.0,32.0,236.0,254.0,2372.327
2372337.0,498.0,32.0,235.0,249.0,2372.337
2372347.0,500.0,32.0,245.0,259.0,2372.347
2372357.0,514.0,32.0,242.0,260.0,2372.357
2372367.0,492.0,32.0,242.0,255.0,2372.367
2372377.0,511.0,32.0,235.0,255.0,2372.377
2372387.0,494.0,31.0,235.0,251.0,2372.387
2372397.0,499.0,32.0,238.0,257.0,2372.397
2372407.0,509.0,32.0,241.0,260.0,2372.407
2372417.0,484.0,31.0,238.0,254.0,2372.417
2372427.0,503.0,32.0,231.0,253.0,2372.427
2372438.0,489.0,32.0,233.0,252.0,2372.438
2372448.0,485.0,32.0,242.0,260.0,2372.448
2372458.0,503.0,32.0,236.0,258.0,2372.458
2372468.0,477.0,31.0,235.0,250.0,2372.468
2372478.0,494.0,31.0,232.0,253.0,2372.478
2372488.0,483.0,32.0,235.0,255.0,2372.488
2372498.0,475.0,32.0,242.0,260.0,2372.498
2372508.0,495.0,32.0,235.0,258.0,2372.508
2372518.0,468.0,32.0,234.0,249.0,2372.518
2372528.0,486.0,32.0,232.0,253.0,2372.528
2372538.0,476.0,32.0,238.0,255.0,2372.538
2372548.0,468.0,31.0,242.0,259.0,2372.548
2372558.0,487.0,32.0,234.0,256.0,2372.558
2372568.0,461.0,32.0,237.0,254.0,2372.568
2372578.0,478.0,32.0,232.0,254.0,2372.578
2372588.0,470.0,32.0,237.0,257.0,2372.588
2372598.0,459.0,32.0,244.0,260.0,2372.598
2372608.0,480.0,32.0,240.0,261.0,2372.608
2372618.0,453.0,32.0,239.0,253.0,2372.618
2372628.0,470.0,32.0,235.0,254.0,2372.628
2372638.0,464.0,33.0,240.0,259.0,2372.638
2372648.0,451.0,31.0,245.0,260.0,2372.648
2372658.0,472.0,33.0,239.0,261.0,2372.658
2372668.0,446.0,32.0,240.0,252.0,2372.668
2372678.0,463.0,31.0,236.0,254.0,2372.678
2372688.0,459.0,32.0,241.0,259.0,2372.688
2372698.0,448.0,33.0,245.0,261.0,2372.698
2372708.0,466.0,32.0,238.0,258.0,2372.708
2372718.0,441.0,31.0,238.0,250.0,2372.718
2372728.0,458.0,32.0,233.0,251.0,2372.728
2372738.0,448.0,31.0,236.0,253.0,2372.738
2372748.0,440.0,32.0,242.0,259.0,2372.748
2372758.0,459.0,32.0,235.0,257.0,2372.758
2372768.0,433.0,32.0,237.0,249.0,2372.768
2372779.0,449.0,32.0,235.0,252.0,2372.779
2372789.0,449.0,32.0,242.0,259.0,2372.789
2372799.0,432.0,31.0,245.0,258.0,2372.799
2372809.0,451.0,32.0,236.0,256.0,2372.809
2372819.0,428.0,31.0,236.0,247.0,2372.819
2372829.0,444.0,33.0,235.0,254.0,2372.829
2372839.0,445.0,31.0,244.0,260.0,2372.839
2372849.0,426.0,31.0,245.0,257.0,2372.849
2372859.0,447.0,32.0,237.0,255.0,2372.859
2372869.0,424.0,31.0,236.0,248.0,2372.869
2372879.0,438.0,32.0,237.0,253.0,2372.879
2372889.0,443.0,33.0,244.0,261.0,2372.889
2372899.0,422.0,32.0,245.0,256.0,2372.899
2372909.0,444.0,32.0,237.0,256.0,2372.909
2372919.0,419.0,32.0,237.0,247.0,2372.919
2372929.0,432.0,31.0,239.0,254.0,2372.929
2372939.0,438.0,32.0,244.0,260.0,2372.939
2372950.0,418.0,32.0,246.0,256.0,2372.95
2372960.0,438.0,33.0,237.0,254.0,2372.96
2372970.0,419.0,32.0,238.0,250.0,2372.97
2372980.0,422.0,32.0,245.0,258.0,2372.98
2372990.0,439.0,33.0,241.0,259.0,2372.99
2373000.0,414.0,32.0,242.0,255.0,2373.0
2373010.0,433.0,32.0,235.0,253.0,2373.01
2373020.0,417.0,32.0,235.0,251.0,2373.02
2373030.0,416.0,32.0,243.0,259.0,2373.03
2373040.0,430.0,32.0,241.0,261.0,2373.04
2373050.0,409.0,32.0,242.0,255.0,2373.05
2373060.0,427.0,32.0,235.0,255.0,2373.06
2373070.0,412.0,33.0,237.0,253.0,2373.07
2373080.0,414.0,31.0,240.0,258.0,2373.08
2373090.0,425.0,33.0,242.0,261.0,2373.09
2373100.0,402.0,32.0,241.0,253.0,2373.1
2373110.0,418.0,33.0,235.0,254.0,2373.11
2373120.0,400.0,32.0,235.0,249.0,2373.12
2373130.0,407.0,32.0,242.0,259.0,2373.13
2373140.0,419.0,33.0,241.0,260.0,2373.14
2373150.0,397.0,33.0,241.0,255.0,2373.15
2373160.0,413.0,32.0,236.0,254.0,2373.16
2373170.0,396.0,32.0,235.0,250.0,2373.17
2373180.0,402.0,33.0,244.0,259.0,2373.18
2373190.0,416.0,33.0,241.0,259.0,2373.19
2373200.0,392.0,32.0,242.0,253.0,2373.2
2373210.0,410.0,33.0,237.0,255.0,2373.21
2373220.0,393.0,32.0,238.0,250.0,2373.22
2373230.0,396.0,32.0,245.0,260.0,2373.23
2373240.0,411.0,33.0,241.0,260.0,2373.24
2373250.0,389.0,33.0,245.0,255.0,2373.25
2373260.0,406.0,33.0,240.0,255.0,2373.26
2373270.0,391.0,32.0,241.0,252.0,2373.27
2373280.0,391.0,33.0,248.0,260.0,2373.28
2373291.0,407.0,32.0,242.0,260.0,2373.291
2373301.0,382.0,33.0,243.0,251.0,2373.301
2373311.0,398.0,33.0,239.0,253.0,2373.311
2373321.0,394.0,33.0,244.0,258.0,2373.321
2373331.0,382.0,32.0,249.0,258.0,2373.331
2373341.0,402.0,34.0,241.0,259.0,2373.341
2373351.0,378.0,33.0,243.0,250.0,2373.351
2373361.0,393.0,33.0,239.0,251.0,2373.361
2373371.0,392.0,33.0,246.0,258.0,2373.371
2373381.0,381.0,33.0,251.0,258.0,2373.381
2373391.0,398.0,33.0,242.0,256.0,2373.391
2373401.0,374.0,33.0,246.0,249.0,2373.401
2373411.0,389.0,33.0,242.0,252.0,2373.411
2373421.0,383.0,33.0,247.0,254.0,2373.421
2373431.0,376.0,32.0,253.0,260.0,2373.431
2373441.0,395.0,34.0,245.0,256.0,2373.441
2373451.0,371.0,33.0,246.0,249.0,2373.451
2373462.0,384.0,33.0,243.0,252.0,2373.462
2373472.0,387.0,34.0,251.0,260.0,2373.472
2373482.0,369.0,33.0,253.0,256.0,2373.482
2373492.0,387.0,33.0,243.0,255.0,2373.492
2373502.0,217.0,34.0,256.0,251.0,2373.502
2373512.0,107.0,35.0,256.0,257.0,2373.512
2373522.0,3.0,36.0,253.0,255.0,2373.522
2373532.0,0.0,37.0,245.0,246.0,2373.532
2373542.0,0.0,38.0,229.0,238.0,2373.542
2373552.0,0.0,38.0,221.0,230.0,2373.552
2373562.0,0.0,39.0,216.0,232.0,2373.562
2373572.0,0.0,39.0,213.0,233.0,2373.572
2373582.0,0.0,39.0,205.0,227.0,2373.582
2373592.0,0.0,39.0,197.0,225.0,2373.592
2373602.0,0.0,39.0,190.0,217.0,2373.602
2373612.0,0.0,38.0,190.0,222.0,2373.612
2373622.0,0.0,38.0,190.0,222.0,2373.622
2373632.0,1.0,37.0,188.0,221.0,2373.632
2373642.0,0.0,37.0,179.0,216.0,2373.642
2373652.0,0.0,36.0,176.0,209.0,2373.652
2373662.0,0.0,37.0,178.0,218.0,2373.662
2373672.0,0.0,34.0,179.0,218.0,2373.672
2373682.0,0.0,35.0,180.0,218.0,2373.682
2373692.0,0.0,35.0,174.0,215.0,2373.692
2373702.0,0.0,35.0,171.0,208.0,2373.702
2373712.0,0.0,33.0,179.0,216.0,2373.712
2373722.0,0.0,35.0,179.0,218.0,2373.722
2373732.0,0.0,34.0,181.0,215.0,2373.732
2373742.0,0.0,32.0,175.0,213.0,2373.742
2373752.0,0.0,33.0,174.0,207.0,2373.752
2373762.0,0.0,31.0,176.0,212.0,2373.762
2373772.0,0.0,32.0,181.0,218.0,2373.772
2373782.0,0.0,31.0,185.0,215.0,2373.782
2373792.0,0.0,32.0,178.0,212.0,2373.792
2373803.0,0.0,30.0,178.0,208.0,2373.803
2373813.0,0.0,31.0,187.0,217.0,2373.813
2373823.0,0.0,31.0,182.0,216.0,2373.823
2373833.0,0.0,30.0,184.0,211.0,2373.833
2373843.0,0.0,29.0,179.0,212.0,2373.843
2373853.0,0.0,30.0,182.0,210.0,2373.853
2373863.0,0.0,29.0,191.0,218.0,2373.863
2373873.0,0.0,29.0,185.0,217.0,2373.873
2373883.0,0.0,29.0,189.0,212.0,2373.883
2373893.0,0.0,28.0,184.0,213.0,2373.893
2373903.0,0.0,28.0,188.0,212.0,2373.903
2373913.0,0.0,29.0,197.0,220.0,2373.913
2373923.0,0.0,28.0,189.0,216.0,2373.923
2373933.0,0.0,28.0,195.0,214.0,2373.933
2373943.0,0.0,27.0,191.0,214.0,2373.943
2373953.0,0.0,27.0,194.0,214.0,2373.953
2373963.0,0.0,28.0,203.0,220.0,2373.963
2373974.0,0.0,28.0,193.0,218.0,2373.974
2373984.0,0.0,28.0,199.0,212.0,2373.984
2373994.0,0.0,27.0,194.0,214.0,2373.994
2374004.0,0.0,27.0,201.0,221.0,2374.004
2374014.0,0.0,27.0,206.0,220.0,2374.014
2374024.0,0.0,28.0,196.0,219.0,2374.024
2374034.0,0.0,28.0,202.0,213.0,2374.034
2374044.0,0.0,28.0,197.0,215.0,2374.044
2374054.0,0.0,26.0,202.0,221.0,2374.054
2374064.0,0.0,27.0,208.0,222.0,2374.064
