time (ms),signal 0,signal 1,signal 2,signal 3,time (sec)
2377818.0,0.0,33.0,216.0,214.0,2377.818
2377828.0,0.0,33.0,221.0,214.0,2377.828
2377838.0,0.0,32.0,208.0,212.0,2377.838
2377848.0,0.0,32.0,213.0,204.0,2377.848
2377858.0,0.0,33.0,206.0,208.0,2377.858
2377868.0,0.0,32.0,212.0,214.0,2377.868
2377878.0,0.0,32.0,216.0,213.0,2377.878
2377888.0,0.0,33.0,205.0,212.0,2377.888
2377899.0,0.0,32.0,208.0,204.0,2377.899
2377909.0,0.0,33.0,204.0,210.0,2377.909
2377919.0,0.0,33.0,208.0,217.0,2377.919
2377929.0,0.0,32.0,210.0,212.0,2377.929
2377939.0,0.0,32.0,202.0,212.0,2377.939
2377949.0,0.0,32.0,204.0,207.0,2377.949
2377959.0,0.0,32.0,206.0,214.0,2377.959
2377969.0,0.0,32.0,207.0,219.0,2377.969
2377979.0,0.0,32.0,212.0,215.0,2377.979
2377989.0,0.0,32.0,202.0,215.0,2377.989
2377999.0,0.0,32.0,204.0,208.0,2377.999
2378009.0,0.0,32.0,207.0,216.0,2378.009
2378019.0,0.0,33.0,206.0,220.0,2378.019
2378029.0,0.0,32.0,213.0,217.0,2378.029
2378039.0,0.0,33.0,202.0,216.0,2378.039
2378049.0,0.0,31.0,204.0,209.0,2378.049
2378059.0,0.0,32.0,208.0,218.0,2378.059
2378070.0,0.0,32.0,209.0,221.0,2378.07
2378080.0,0.0,33.0,213.0,214.0,2378.08
2378090.0,0.0,32.0,205.0,215.0,2378.09
2378100.0,0.0,32.0,210.0,216.0,2378.1
2378110.0,0.0,32.0,218.0,221.0,2378.11
2378120.0,0.0,33.0,209.0,221.0,2378.12
2378130.0,0.0,31.0,216.0,214.0,2378.13
2378140.0,0.0,33.0,208.0,217.0,2378.14
2378150.0,0.0,32.0,214.0,218.0,2378.15
2378160.0,0.0,32.0,220.0,223.0,2378.16
2378170.0,0.0,32.0,215.0,222.0,2378.17
2378180.0,0.0,31.0,218.0,215.0,2378.18
2378190.0,0.0,31.0,211.0,215.0,2378.19
2378200.0,0.0,32.0,213.0,214.0,2378.2
2378210.0,0.0,32.0,221.0,222.0,2378.21
2378220.0,0.0,32.0,212.0,222.0,2378.22
2378230.0,0.0,32.0,220.0,215.0,2378.23
2378240.0,1.0,31.0,212.0,217.0,2378.24
2378250.0,0.0,31.0,216.0,215.0,2378.25
2378260.0,0.0,32.0,224.0,223.0,2378.26
2378270.0,0.0,32.0,214.0,221.0,2378.27
2378280.0,0.0,32.0,223.0,213.0,2378.28
2378290.0,0.0,31.0,216.0,217.0,2378.29
2378300.0,1.0,31.0,221.0,217.0,2378.3
2378310.0,0.0,32.0,226.0,222.0,2378.31
2378320.0,0.0,32.0,216.0,220.0,2378.32
2378330.0,0.0,32.0,225.0,216.0,2378.33
2378340.0,0.0,32.0,216.0,216.0,2378.34
2378350.0,0.0,32.0,221.0,218.0,2378.35
2378360.0,0.0,31.0,228.0,222.0,2378.36
2378370.0,0.0,31.0,218.0,223.0,2378.37
2378380.0,0.0,31.0,224.0,215.0,2378.38
2378390.0,0.0,32.0,216.0,218.0,2378.39
2378400.0,0.0,32.0,221.0,220.0,2378.4
2378411.0,0.0,31.0,227.0,222.0,2378.411
2378421.0,0.0,32.0,215.0,221.0,2378.421
2378431.0,0.0,31.0,221.0,214.0,2378.431
2378441.0,0.0,31.0,217.0,216.0,2378.441
2378451.0,0.0,32.0,222.0,224.0,2378.451
2378461.0,0.0,32.0,226.0,223.0,2378.461
2378471.0,0.0,32.0,214.0,220.0,2378.471
2378481.0,0.0,31.0,220.0,212.0,2378.481
2378491.0,0.0,31.0,218.0,217.0,2378.491
2378501.0,0.0,32.0,220.0,222.0,2378.501
2378511.0,0.0,32.0,225.0,221.0,2378.511
2378521.0,0.0,32.0,214.0,220.0,2378.521
2378531.0,0.0,32.0,217.0,211.0,2378.531
2378541.0,0.0,32.0,212.0,215.0,2378.541
2378551.0,0.0,32.0,220.0,222.0,2378.551
2378561.0,0.0,31.0,222.0,221.0,2378.561
2378571.0,0.0,32.0,211.0,218.0,2378.571
2378582.0,0.0,32.0,215.0,211.0,2378.582
2378592.0,0.0,32.0,215.0,218.0,2378.592
2378602.0,0.0,32.0,216.0,223.0,2378.602
2378612.0,0.0,31.0,223.0,218.0,2378.612
2378622.0,0.0,31.0,212.0,218.0,2378.622
2378632.0,0.0,31.0,215.0,211.0,2378.632
2378642.0,0.0,32.0,217.0,221.0,2378.642
2378652.0,0.0,32.0,216.0,224.0,2378.652
2378662.0,0.0,32.0,221.0,217.0,2378.662
2378672.0,0.0,32.0,212.0,218.0,2378.672
2378682.0,0.0,31.0,213.0,212.0,2378.682
2378692.0,0.0,32.0,217.0,219.0,2378.692
2378702.0,0.0,32.0,213.0,225.0,2378.702
2378712.0,0.0,32.0,221.0,220.0,2378.712
2378722.0,0.0,32.0,210.0,219.0,2378.722
2378732.0,0.0,32.0,212.0,214.0,2378.732
2378742.0,0.0,31.0,220.0,222.0,2378.742
2378752.0,0.0,32.0,216.0,225.0,2378.752
2378762.0,0.0,31.0,220.0,220.0,2378.762
2378772.0,0.0,33.0,210.0,221.0,2378.772
2378782.0,0.0,32.0,212.0,214.0,2378.782
2378792.0,0.0,32.0,219.0,223.0,2378.792
2378802.0,0.0,32.0,217.0,225.0,2378.802
2378812.0,0.0,31.0,221.0,220.0,2378.812
2378822.0,0.0,32.0,214.0,220.0,2378.822
2378832.0,0.0,33.0,214.0,217.0,2378.832
2378842.0,0.0,32.0,217.0,220.0,2378.842
2378852.0,0.0,32.0,218.0,225.0,2378.852
2378862.0,0.0,32.0,222.0,219.0,2378.862
2378872.0,0.0,32.0,209.0,217.0,2378.872
2378882.0,0.0,32.0,216.0,212.0,2378.882
2378892.0,0.0,32.0,232.0,223.0,2378.892
2378902.0,344.0,47.0,246.0,249.0,2378.902
2378912.0,377.0,50.0,244.0,238.0,2378.912
2378923.0,362.0,57.0,235.0,240.0,2378.923
2378933.0,330.0,59.0,240.0,237.0,2378.933
2378943.0,343.0,62.0,251.0,245.0,2378.943
2378953.0,402.0,64.0,242.0,247.0,2378.953
2378963.0,493.0,65.0,258.0,239.0,2378.963
2378973.0,597.0,65.0,253.0,243.0,2378.973
2378983.0,666.0,67.0,267.0,245.0,2378.983
2378993.0,666.0,67.0,284.0,255.0,2378.993
2379003.0,666.0,67.0,270.0,258.0,2379.003
2379013.0,666.0,66.0,292.0,252.0,2379.013
2379023.0,665.0,66.0,282.0,253.0,2379.023
2379033.0,666.0,66.0,297.0,254.0,2379.033
2379043.0,666.0,63.0,310.0,256.0,2379.043
2379053.0,656.0,67.0,301.0,260.0,2379.053
2379063.0,666.0,63.0,322.0,246.0,2379.063
2379073.0,665.0,62.0,312.0,249.0,2379.073
2379083.0,666.0,61.0,330.0,253.0,2379.083
2379094.0,665.0,60.0,347.0,255.0,2379.094
2379104.0,666.0,58.0,335.0,255.0,2379.104
2379114.0,666.0,56.0,367.0,241.0,2379.114
2379124.0,666.0,55.0,361.0,247.0,2379.124
2379134.0,666.0,53.0,371.0,255.0,2379.134
2379144.0,665.0,52.0,392.0,249.0,2379.144
2379154.0,666.0,51.0,377.0,253.0,2379.154
2379164.0,666.0,49.0,412.0,238.0,2379.164
2379174.0,666.0,48.0,405.0,245.0,2379.174
2379184.0,667.0,48.0,415.0,249.0,2379.184
2379194.0,666.0,47.0,437.0,249.0,2379.194
2379204.0,666.0,45.0,418.0,252.0,2379.204
2379214.0,666.0,44.0,454.0,241.0,2379.214
2379224.0,666.0,44.0,440.0,246.0,2379.224
2379234.0,666.0,43.0,450.0,253.0,2379.234
2379244.0,666.0,42.0,473.0,248.0,2379.244
2379254.0,666.0,42.0,453.0,249.0,2379.254
2379264.0,666.0,40.0,487.0,241.0,2379.264
2379274.0,666.0,40.0,470.0,244.0,2379.274
2379284.0,667.0,40.0,477.0,253.0,2379.284
2379294.0,666.0,38.0,501.0,248.0,2379.294
2379304.0,666.0,38.0,474.0,251.0,2379.304
2379314.0,666.0,37.0,505.0,241.0,2379.314
2379324.0,666.0,37.0,486.0,246.0,2379.324
2379334.0,667.0,36.0,489.0,252.0,2379.334
2379344.0,665.0,36.0,509.0,248.0,2379.344
2379354.0,666.0,36.0,481.0,251.0,2379.354
2379364.0,666.0,35.0,512.0,240.0,2379.364
2379374.0,666.0,34.0,498.0,248.0,2379.374
2379384.0,667.0,34.0,493.0,256.0,2379.384
2379394.0,666.0,34.0,514.0,252.0,2379.394
2379404.0,666.0,33.0,488.0,252.0,2379.404
2379414.0,666.0,34.0,519.0,242.0,2379.414
2379424.0,666.0,32.0,500.0,250.0,2379.424
2379435.0,666.0,33.0,492.0,256.0,2379.435
2379445.0,666.0,33.0,513.0,249.0,2379.445
2379455.0,666.0,33.0,486.0,250.0,2379.455
2379465.0,666.0,32.0,505.0,248.0,2379.465
2379475.0,666.0,32.0,503.0,257.0,2379.475
2379485.0,666.0,32.0,485.0,258.0,2379.485
2379495.0,666.0,32.0,507.0,249.0,2379.495
2379505.0,666.0,32.0,484.0,249.0,2379.505
2379515.0,667.0,31.0,498.0,244.0,2379.515
2379525.0,666.0,32.0,490.0,251.0,2379.525
2379535.0,666.0,32.0,476.0,254.0,2379.535
2379545.0,666.0,32.0,497.0,247.0,2379.545
2379555.0,666.0,31.0,469.0,249.0,2379.555
2379565.0,666.0,31.0,487.0,242.0,2379.565
2379575.0,666.0,31.0,478.0,254.0,2379.575
2379585.0,666.0,31.0,462.0,261.0,2379.585
2379595.0,666.0,29.0,481.0,252.0,2379.595
2379606.0,666.0,32.0,457.0,254.0,2379.606
2379616.0,667.0,30.0,468.0,253.0,2379.616
2379626.0,666.0,31.0,473.0,260.0,2379.626
2379636.0,667.0,31.0,449.0,259.0,2379.636
2379646.0,666.0,30.0,472.0,251.0,2379.646
2379656.0,666.0,30.0,448.0,250.0,2379.656
2379666.0,667.0,31.0,458.0,253.0,2379.666
2379676.0,665.0,31.0,465.0,258.0,2379.676
2379686.0,666.0,31.0,440.0,257.0,2379.686
2379696.0,665.0,30.0,466.0,252.0,2379.696
2379706.0,666.0,31.0,444.0,253.0,2379.706
2379716.0,667.0,31.0,453.0,256.0,2379.716
2379726.0,665.0,31.0,464.0,257.0,2379.726
2379736.0,666.0,30.0,439.0,259.0,2379.736
2379746.0,666.0,30.0,463.0,250.0,2379.746
2379756.0,666.0,30.0,442.0,252.0,2379.756
2379766.0,667.0,31.0,454.0,258.0,2379.766
2379776.0,666.0,31.0,459.0,262.0,2379.776
2379786.0,666.0,30.0,436.0,261.0,2379.786
2379796.0,665.0,31.0,463.0,257.0,2379.796
2379806.0,666.0,30.0,442.0,259.0,2379.806
2379816.0,667.0,30.0,449.0,264.0,2379.816
2379826.0,666.0,30.0,461.0,267.0,2379.826
2379836.0,667.0,31.0,437.0,267.0,2379.836
2379846.0,666.0,31.0,463.0,260.0,2379.846
2379856.0,665.0,31.0,443.0,261.0,2379.856
2379866.0,666.0,31.0,454.0,262.0,2379.866
2379876.0,666.0,30.0,462.0,269.0,2379.876
2379886.0,666.0,31.0,436.0,265.0,2379.886
2379896.0,665.0,30.0,463.0,258.0,2379.896
2379906.0,666.0,30.0,442.0,261.0,2379.906
2379916.0,667.0,30.0,454.0,264.0,2379.916
2379926.0,665.0,31.0,463.0,268.0,2379.926
2379936.0,666.0,30.0,438.0,262.0,2379.936
2379947.0,665.0,30.0,462.0,258.0,2379.947
2379957.0,666.0,30.0,445.0,261.0,2379.957
2379967.0,667.0,30.0,446.0,268.0,2379.967
2379977.0,666.0,30.0,461.0,265.0,2379.977
2379987.0,666.0,30.0,436.0,263.0,2379.987
2379997.0,665.0,30.0,459.0,257.0,2379.997
2380007.0,666.0,30.0,442.0,262.0,2380.007
2380017.0,666.0,31.0,440.0,270.0,2380.017
2380027.0,666.0,30.0,458.0,269.0,2380.027
2380037.0,665.0,31.0,431.0,267.0,2380.037
2380047.0,666.0,29.0,451.0,258.0,2380.047
2380057.0,665.0,32.0,437.0,265.0,2380.057
2380067.0,666.0,30.0,431.0,269.0,2380.067
2380077.0,666.0,31.0,450.0,271.0,2380.077
2380087.0,666.0,31.0,423.0,265.0,2380.087
2380097.0,665.0,30.0,442.0,258.0,2380.097
2380107.0,666.0,30.0,431.0,265.0,2380.107
2380118.0,666.0,31.0,423.0,271.0,2380.118
2380128.0,665.0,31.0,441.0,266.0,2380.128
2380138.0,666.0,31.0,419.0,265.0,2380.138
2380148.0,666.0,30.0,434.0,264.0,2380.148
2380158.0,666.0,31.0,436.0,272.0,2380.158
2380168.0,666.0,31.0,417.0,269.0,2380.168
2380178.0,666.0,31.0,433.0,262.0,2380.178
2380188.0,666.0,31.0,411.0,259.0,2380.188
2380198.0,667.0,30.0,422.0,259.0,2380.198
2380208.0,666.0,30.0,420.0,266.0,2380.208
2380218.0,667.0,30.0,408.0,267.0,2380.218
2380228.0,666.0,30.0,427.0,262.0,2380.228
2380238.0,665.0,31.0,405.0,260.0,2380.238
2380248.0,666.0,30.0,421.0,256.0,2380.248
2380258.0,666.0,31.0,415.0,264.0,2380.258
2380268.0,666.0,31.0,400.0,267.0,2380.268
2380278.0,666.0,31.0,423.0,262.0,2380.278
2380288.0,666.0,31.0,398.0,264.0,2380.288
2380298.0,666.0,31.0,413.0,257.0,2380.298
2380308.0,666.0,31.0,413.0,271.0,2380.308
2380318.0,666.0,31.0,396.0,272.0,2380.318
2380328.0,666.0,30.0,415.0,266.0,2380.328
2380338.0,666.0,30.0,394.0,266.0,2380.338
2380348.0,667.0,31.0,407.0,261.0,2380.348
2380358.0,665.0,31.0,407.0,272.0,2380.358
2380368.0,666.0,31.0,388.0,269.0,2380.368
2380378.0,665.0,31.0,412.0,271.0,2380.378
2380388.0,665.0,30.0,391.0,268.0,2380.388
2380398.0,666.0,31.0,401.0,264.0,2380.398
2380408.0,666.0,31.0,404.0,272.0,2380.408
2380418.0,666.0,31.0,386.0,271.0,2380.418
2380428.0,665.0,31.0,403.0,267.0,2380.428
2380438.0,665.0,32.0,383.0,265.0,2380.438
2380448.0,666.0,31.0,393.0,263.0,2380.448
2380459.0,666.0,31.0,398.0,272.0,2380.459
2380469.0,666.0,32.0,379.0,267.0,2380.469
2380479.0,666.0,31.0,396.0,262.0,2380.479
2380489.0,665.0,31.0,381.0,265.0,2380.489
2380499.0,666.0,32.0,388.0,274.0,2380.499
2380509.0,666.0,32.0,394.0,275.0,2380.509
2380519.0,665.0,30.0,373.0,270.0,2380.519
2380529.0,665.0,31.0,395.0,266.0,2380.529
2380539.0,666.0,31.0,379.0,267.0,2380.539
2380549.0,667.0,31.0,386.0,270.0,2380.549
2380559.0,666.0,31.0,393.0,275.0,2380.559
2380569.0,666.0,32.0,370.0,271.0,2380.569
2380579.0,665.0,30.0,389.0,263.0,2380.579
2380589.0,666.0,31.0,372.0,267.0,2380.589
2380599.0,667.0,31.0,383.0,271.0,2380.599
2380609.0,666.0,31.0,390.0,275.0,2380.609
2380619.0,665.0,32.0,369.0,268.0,2380.619
2380630.0,665.0,31.0,387.0,264.0,2380.63
2380640.0,666.0,32.0,374.0,269.0,2380.64
2380650.0,667.0,32.0,375.0,273.0,2380.65
2380660.0,666.0,32.0,386.0,268.0,2380.66
2380670.0,666.0,31.0,366.0,265.0,2380.67
2380680.0,665.0,31.0,380.0,259.0,2380.68
2380690.0,665.0,32.0,370.0,265.0,2380.69
2380700.0,666.0,33.0,370.0,272.0,2380.7
2380710.0,665.0,30.0,384.0,270.0,2380.71
2380720.0,665.0,33.0,362.0,269.0,2380.72
2380730.0,666.0,31.0,378.0,262.0,2380.73
2380740.0,666.0,31.0,367.0,269.0,2380.74
2380750.0,666.0,31.0,362.0,272.0,2380.75
2380760.0,665.0,30.0,377.0,272.0,2380.76
2380770.0,666.0,32.0,358.0,269.0,2380.77
2380780.0,666.0,32.0,369.0,262.0,2380.78
2380790.0,666.0,32.0,359.0,268.0,2380.79
2380800.0,666.0,32.0,357.0,272.0,2380.8
2380810.0,665.0,32.0,363.0,271.0,2380.81
2380820.0,666.0,31.0,341.0,265.0,2380.82
2380830.0,666.0,32.0,350.0,260.0,2380.83
2380840.0,665.0,32.0,348.0,271.0,2380.84
2380850.0,666.0,33.0,345.0,273.0,2380.85
2380860.0,666.0,32.0,350.0,274.0,2380.86
2380870.0,665.0,32.0,331.0,273.0,2380.87
2380880.0,665.0,32.0,326.0,261.0,2380.88
2380890.0,665.0,33.0,319.0,268.0,2380.89
2380900.0,666.0,33.0,319.0,273.0,2380.9
2380910.0,665.0,32.0,320.0,275.0,2380.91
2380920.0,666.0,32.0,305.0,271.0,2380.92
2380930.0,665.0,31.0,305.0,265.0,2380.93
2380940.0,665.0,33.0,300.0,273.0,2380.94
2380950.0,666.0,33.0,297.0,276.0,2380.95
2380960.0,665.0,34.0,293.0,271.0,2380.96
2380971.0,665.0,33.0,281.0,268.0,2380.971
2380981.0,666.0,33.0,279.0,264.0,2380.981
2380991.0,666.0,33.0,283.0,272.0,2380.991
2381001.0,666.0,34.0,271.0,267.0,2381.001
2381011.0,665.0,33.0,263.0,259.0,2381.011
2381021.0,665.0,35.0,256.0,262.0,2381.021
2381031.0,666.0,34.0,253.0,260.0,2381.031
2381041.0,665.0,33.0,257.0,268.0,2381.041
2381051.0,667.0,34.0,254.0,267.0,2381.051
2381061.0,664.0,34.0,250.0,267.0,2381.061
2381071.0,655.0,33.0,243.0,265.0,2381.071
2381081.0,644.0,34.0,240.0,267.0,2381.081
2381091.0,632.0,34.0,245.0,274.0,2381.091
2381101.0,623.0,34.0,242.0,271.0,2381.101
2381111.0,611.0,34.0,235.0,271.0,2381.111
2381121.0,601.0,34.0,229.0,268.0,2381.121
2381131.0,288.0,34.0,217.0,260.0,2381.131
2381142.0,182.0,35.0,224.0,266.0,2381.142
2381152.0,19.0,36.0,215.0,256.0,2381.152
2381162.0,0.0,37.0,199.0,247.0,2381.162
2381172.0,0.0,38.0,195.0,242.0,2381.172
2381182.0,342.0,37.0,223.0,251.0,2381.182
2381192.0,276.0,38.0,218.0,257.0,2381.192
2381202.0,366.0,36.0,228.0,255.0,2381.202
2381212.0,661.0,39.0,211.0,253.0,2381.212
2381222.0,383.0,38.0,218.0,257.0,2381.222
2381232.0,164.0,38.0,219.0,263.0,2381.232
2381242.0,7.0,38.0,212.0,262.0,2381.242
2381252.0,0.0,38.0,213.0,250.0,2381.252
2381262.0,0.0,37.0,195.0,243.0,2381.262
2381272.0,0.0,37.0,201.0,242.0,2381.272
2381282.0,0.0,36.0,203.0,246.0,2381.282
2381292.0,0.0,37.0,195.0,246.0,2381.292
2381302.0,0.0,36.0,207.0,238.0,2381.302
2381312.0,1.0,35.0,191.0,235.0,2381.312
2381322.0,0.0,35.0,199.0,233.0,2381.322
2381332.0,0.0,34.0,208.0,236.0,2381.332
2381342.0,0.0,35.0,199.0,236.0,2381.342
2381352.0,0.0,34.0,213.0,229.0,2381.352
2381362.0,0.0,33.0,196.0,227.0,2381.362
2381372.0,0.0,33.0,207.0,225.0,2381.372
2381382.0,0.0,33.0,215.0,229.0,2381.382
2381392.0,0.0,32.0,203.0,229.0,2381.392
2381402.0,0.0,32.0,222.0,227.0,2381.402
2381412.0,0.0,32.0,201.0,222.0,2381.412
2381422.0,0.0,31.0,213.0,221.0,2381.422
2381432.0,1.0,31.0,229.0,233.0,2381.432
2381442.0,0.0,31.0,220.0,236.0,2381.442
2381452.0,0.0,31.0,232.0,233.0,2381.452
2381462.0,0.0,31.0,213.0,230.0,2381.462
2381472.0,0.0,30.0,218.0,230.0,2381.472
2381483.0,0.0,29.0,227.0,235.0,2381.483
2381493.0,0.0,29.0,211.0,232.0,2381.493
2381503.0,663.0,38.0,233.0,238.0,2381.503
2381513.0,662.0,41.0,215.0,234.0,2381.513
2381523.0,657.0,45.0,228.0,247.0,2381.523
2381533.0,655.0,47.0,239.0,251.0,2381.533
2381543.0,634.0,46.0,224.0,249.0,2381.543
2381553.0,656.0,49.0,234.0,250.0,2381.553
2381563.0,663.0,49.0,219.0,246.0,2381.563
2381573.0,659.0,50.0,226.0,253.0,2381.573
2381583.0,663.0,49.0,237.0,259.0,2381.583
2381593.0,662.0,51.0,220.0,255.0,2381.593
2381603.0,662.0,50.0,226.0,253.0,2381.603
2381613.0,663.0,50.0,213.0,249.0,2381.613
2381623.0,663.0,50.0,222.0,258.0,2381.623
2381633.0,663.0,49.0,230.0,262.0,2381.633
2381643.0,663.0,48.0,215.0,257.0,2381.643
2381654.0,662.0,49.0,217.0,256.0,2381.654
2381664.0,663.0,47.0,208.0,252.0,2381.664
2381674.0,663.0,46.0,215.0,260.0,2381.674
2381684.0,664.0,46.0,222.0,259.0,2381.684
2381694.0,663.0,43.0,205.0,251.0,2381.694
2381704.0,663.0,43.0,211.0,254.0,2381.704
2381714.0,663.0,41.0,206.0,252.0,2381.714
2381724.0,662.0,42.0,213.0,260.0,2381.724
2381734.0,663.0,40.0,218.0,259.0,2381.734
2381744.0,662.0,39.0,205.0,253.0,2381.744
2381754.0,663.0,38.0,209.0,254.0,2381.754
2381764.0,663.0,38.0,206.0,253.0,2381.764
2381774.0,662.0,37.0,210.0,257.0,2381.774
2381784.0,662.0,38.0,213.0,259.0,2381.784
2381794.0,664.0,36.0,200.0,248.0,2381.794
2381804.0,664.0,37.0,203.0,250.0,2381.804
2381814.0,665.0,36.0,204.0,252.0,2381.814
2381824.0,664.0,36.0,207.0,255.0,2381.824
2381834.0,665.0,36.0,212.0,257.0,2381.834
2381844.0,663.0,35.0,201.0,248.0,2381.844
2381854.0,664.0,36.0,203.0,250.0,2381.854
2381864.0,665.0,35.0,206.0,252.0,2381.864
2381874.0,664.0,35.0,211.0,256.0,2381.874
2381884.0,666.0,35.0,216.0,256.0,2381.884
2381894.0,664.0,34.0,206.0,248.0,2381.894
2381904.0,664.0,35.0,208.0,251.0,2381.904
2381914.0,665.0,35.0,206.0,250.0,2381.914
2381924.0,664.0,34.0,215.0,256.0,2381.924
2381934.0,665.0,35.0,216.0,257.0,2381.934
2381944.0,664.0,34.0,207.0,247.0,2381.944
2381954.0,664.0,34.0,209.0,251.0,2381.954
2381964.0,665.0,33.0,207.0,249.0,2381.964
2381974.0,664.0,34.0,214.0,255.0,2381.974
2381984.0,665.0,34.0,215.0,255.0,2381.984
2381995.0,664.0,33.0,204.0,245.0,2381.995
2382005.0,664.0,33.0,207.0,249.0,2382.005
2382015.0,666.0,33.0,214.0,256.0,2382.015
2382025.0,664.0,33.0,214.0,255.0,2382.025
2382035.0,664.0,33.0,214.0,254.0,2382.035
2382045.0,664.0,33.0,207.0,246.0,2382.045
2382055.0,664.0,32.0,210.0,250.0,2382.055
2382065.0,665.0,34.0,217.0,257.0,2382.065
2382075.0,665.0,33.0,218.0,254.0,2382.075
2382085.0,665.0,34.0,216.0,255.0,2382.085
2382095.0,664.0,33.0,208.0,247.0,2382.095
2382105.0,664.0,34.0,211.0,253.0,2382.105
2382115.0,665.0,32.0,220.0,259.0,2382.115
2382125.0,664.0,33.0,218.0,258.0,2382.125
2382135.0,665.0,33.0,216.0,256.0,2382.135
2382145.0,665.0,33.0,209.0,246.0,2382.145
2382155.0,664.0,33.0,212.0,252.0,2382.155
2382166.0,665.0,33.0,221.0,259.0,2382.166
2382176.0,664.0,33.0,217.0,252.0,2382.176
2382186.0,664.0,32.0,214.0,251.0,2382.186
2382196.0,665.0,32.0,209.0,246.0,2382.196
2382206.0,665.0,32.0,221.0,255.0,2382.206
2382216.0,666.0,33.0,222.0,259.0,2382.216
2382226.0,665.0,32.0,218.0,252.0,2382.226
2382236.0,665.0,33.0,215.0,253.0,2382.236
2382246.0,666.0,32.0,213.0,246.0,2382.246
2382256.0,665.0,33.0,217.0,254.0,2382.256
2382266.0,667.0,32.0,225.0,259.0,2382.266
2382276.0,665.0,33.0,220.0,253.0,2382.276
2382286.0,665.0,32.0,217.0,252.0,2382.286
2382296.0,665.0,33.0,213.0,245.0,2382.296
2382306.0,665.0,32.0,221.0,254.0,2382.306
2382316.0,666.0,32.0,225.0,258.0,2382.316
2382326.0,664.0,33.0,221.0,250.0,2382.326
2382336.0,666.0,33.0,218.0,251.0,2382.336
2382346.0,665.0,32.0,213.0,243.0,2382.346
2382356.0,665.0,32.0,224.0,253.0,2382.356
2382366.0,666.0,34.0,227.0,259.0,2382.366
2382376.0,664.0,32.0,224.0,250.0,2382.376
2382386.0,665.0,33.0,221.0,252.0,2382.386
2382396.0,666.0,33.0,217.0,244.0,2382.396
2382406.0,665.0,33.0,226.0,255.0,2382.406
2382416.0,666.0,33.0,228.0,257.0,2382.416
2382426.0,665.0,33.0,227.0,253.0,2382.426
2382436.0,665.0,32.0,222.0,252.0,2382.436
2382446.0,666.0,32.0,220.0,247.0,2382.446
2382456.0,666.0,33.0,230.0,257.0,2382.456
2382466.0,666.0,33.0,231.0,259.0,2382.466
2382476.0,665.0,32.0,229.0,253.0,2382.476
2382486.0,665.0,33.0,225.0,254.0,2382.486
2382496.0,666.0,33.0,223.0,248.0,2382.496
2382507.0,665.0,32.0,233.0,256.0,2382.507
2382517.0,666.0,33.0,230.0,257.0,2382.517
2382527.0,666.0,32.0,228.0,247.0,2382.527
2382537.0,665.0,33.0,225.0,250.0,2382.537
2382547.0,666.0,33.0,230.0,254.0,2382.547
2382557.0,665.0,33.0,234.0,255.0,2382.557
2382567.0,666.0,32.0,228.0,256.0,2382.567
2382577.0,665.0,33.0,226.0,246.0,2382.577
2382587.0,666.0,33.0,224.0,248.0,2382.587
2382597.0,666.0,33.0,226.0,248.0,2382.597
2382607.0,665.0,32.0,234.0,255.0,2382.607
2382617.0,666.0,34.0,229.0,255.0,2382.617
2382627.0,664.0,32.0,227.0,244.0,2382.627
2382637.0,665.0,32.0,226.0,250.0,2382.637
2382647.0,666.0,33.0,228.0,250.0,2382.647
2382657.0,666.0,32.0,235.0,255.0,2382.657
2382667.0,665.0,33.0,228.0,253.0,2382.667
2382678.0,665.0,32.0,225.0,244.0,2382.678
2382688.0,665.0,34.0,224.0,248.0,2382.688
2382698.0,666.0,32.0,232.0,255.0,2382.698
2382708.0,664.0,32.0,233.0,252.0,2382.708
2382718.0,665.0,33.0,227.0,251.0,2382.718
2382728.0,664.0,33.0,226.0,244.0,2382.728
2382738.0,664.0,33.0,226.0,249.0,2382.738
2382748.0,665.0,33.0,237.0,258.0,2382.748
2382758.0,663.0,32.0,235.0,252.0,2382.758
2382768.0,663.0,33.0,230.0,254.0,2382.768
2382778.0,664.0,32.0,228.0,244.0,2382.778
2382788.0,664.0,31.0,227.0,250.0,2382.788
2382798.0,665.0,33.0,234.0,257.0,2382.798
2382808.0,664.0,32.0,235.0,254.0,2382.808
2382818.0,665.0,33.0,226.0,253.0,2382.818
2382828.0,664.0,32.0,223.0,242.0,2382.828
2382838.0,665.0,32.0,227.0,250.0,2382.838
2382848.0,666.0,32.0,232.0,254.0,2382.848
2382858.0,663.0,32.0,234.0,252.0,2382.858
2382868.0,663.0,32.0,227.0,251.0,2382.868
2382878.0,662.0,33.0,222.0,242.0,2382.878
2382888.0,663.0,32.0,227.0,250.0,2382.888
2382898.0,663.0,33.0,231.0,255.0,2382.898
2382908.0,664.0,33.0,233.0,252.0,2382.908
2382918.0,664.0,33.0,226.0,252.0,2382.918
2382928.0,664.0,32.0,220.0,242.0,2382.928
2382938.0,664.0,33.0,223.0,249.0,2382.938
2382948.0,665.0,32.0,230.0,256.0,2382.948
2382958.0,664.0,32.0,229.0,251.0,2382.958
2382968.0,664.0,32.0,224.0,251.0,2382.968
2382978.0,665.0,31.0,219.0,243.0,2382.978
2382988.0,664.0,33.0,221.0,249.0,2382.988
2382998.0,665.0,32.0,228.0,257.0,2382.998
2383008.0,664.0,33.0,225.0,253.0,2383.008
2383019.0,664.0,32.0,222.0,252.0,2383.019
2383029.0,664.0,32.0,215.0,244.0,2383.029
2383039.0,665.0,32.0,224.0,254.0,2383.039
2383049.0,665.0,33.0,226.0,257.0,2383.049
2383059.0,664.0,32.0,216.0,246.0,2383.059
2383069.0,664.0,33.0,217.0,251.0,2383.069
2383079.0,665.0,32.0,211.0,244.0,2383.079
2383089.0,664.0,32.0,220.0,253.0,2383.089
2383099.0,659.0,33.0,222.0,256.0,2383.099
2383109.0,648.0,31.0,215.0,250.0,2383.109
2383119.0,637.0,33.0,214.0,250.0,2383.119
2383129.0,627.0,33.0,209.0,246.0,2383.129
2383139.0,616.0,33.0,219.0,254.0,2383.139
2383149.0,607.0,33.0,222.0,257.0,2383.149
2383159.0,595.0,33.0,214.0,250.0,2383.159
2383169.0,587.0,33.0,215.0,250.0,2383.169
2383179.0,577.0,33.0,212.0,248.0,2383.179
2383190.0,567.0,32.0,220.0,254.0,2383.19
2383200.0,558.0,33.0,219.0,256.0,2383.2
2383210.0,547.0,32.0,209.0,244.0,2383.21
2383220.0,538.0,32.0,210.0,248.0,2383.22
2383230.0,531.0,32.0,217.0,254.0,2383.23
2383240.0,522.0,33.0,216.0,254.0,2383.24
2383250.0,513.0,32.0,217.0,254.0,2383.25
2383260.0,504.0,33.0,205.0,245.0,2383.26
2383270.0,496.0,32.0,208.0,247.0,2383.27
2383280.0,489.0,32.0,209.0,249.0,2383.28
2383290.0,481.0,32.0,214.0,253.0,2383.29
2383300.0,474.0,31.0,215.0,253.0,2383.3
2383310.0,464.0,31.0,203.0,242.0,2383.31
2383320.0,458.0,32.0,208.0,249.0,2383.32
2383330.0,451.0,32.0,209.0,251.0,2383.33
2383340.0,443.0,32.0,211.0,253.0,2383.34
2383350.0,436.0,31.0,213.0,253.0,2383.35
2383360.0,430.0,31.0,204.0,246.0,2383.36
2383370.0,422.0,31.0,206.0,249.0,2383.37
2383380.0,416.0,32.0,209.0,251.0,2383.38
2383390.0,408.0,32.0,209.0,254.0,2383.39
2383400.0,401.0,32.0,212.0,252.0,2383.4
2383410.0,396.0,31.0,201.0,245.0,2383.41
2383420.0,390.0,32.0,206.0,248.0,2383.42
2383430.0,384.0,31.0,209.0,252.0,2383.43
2383440.0,377.0,31.0,206.0,252.0,2383.44
2383450.0,372.0,32.0,216.0,255.0,2383.45
2383460.0,366.0,31.0,199.0,244.0,2383.46
2383470.0,360.0,31.0,204.0,247.0,2383.47
2383480.0,355.0,31.0,211.0,253.0,2383.48
2383490.0,350.0,31.0,209.0,254.0,2383.49
2383500.0,343.0,31.0,214.0,254.0,2383.5
2383510.0,338.0,31.0,198.0,243.0,2383.51
2383520.0,332.0,32.0,203.0,248.0,2383.52
2383531.0,328.0,30.0,212.0,254.0,2383.531
2383541.0,321.0,31.0,205.0,250.0,2383.541
2383551.0,317.0,31.0,210.0,250.0,2383.551
2383561.0,312.0,31.0,194.0,240.0,2383.561
2383571.0,307.0,30.0,206.0,252.0,2383.571
2383581.0,303.0,32.0,212.0,257.0,2383.581
2383591.0,298.0,31.0,204.0,251.0,2383.591
2383601.0,293.0,30.0,209.0,250.0,2383.601
2383611.0,289.0,31.0,197.0,242.0,2383.611
2383621.0,286.0,30.0,204.0,249.0,2383.621
2383631.0,281.0,31.0,214.0,256.0,2383.631
2383641.0,276.0,31.0,204.0,252.0,2383.641
2383651.0,272.0,32.0,209.0,251.0,2383.651
2383661.0,269.0,30.0,196.0,242.0,2383.661
2383671.0,265.0,31.0,203.0,249.0,2383.671
2383681.0,263.0,31.0,214.0,256.0,2383.681
2383691.0,257.0,31.0,202.0,249.0,2383.691
2383702.0,254.0,32.0,206.0,250.0,2383.702
2383712.0,251.0,32.0,196.0,243.0,2383.712
2383722.0,247.0,31.0,206.0,253.0,2383.722
2383732.0,243.0,31.0,212.0,255.0,2383.732
2383742.0,240.0,31.0,197.0,245.0,2383.742
2383752.0,237.0,31.0,205.0,249.0,2383.752
2383762.0,234.0,31.0,197.0,245.0,2383.762
2383772.0,230.0,31.0,206.0,254.0,2383.772
2383782.0,227.0,31.0,213.0,255.0,2383.782
2383792.0,224.0,30.0,198.0,247.0,2383.792
2383802.0,221.0,31.0,205.0,249.0,2383.802
2383812.0,219.0,31.0,200.0,247.0,2383.812
2383822.0,214.0,31.0,206.0,254.0,2383.822
2383832.0,212.0,31.0,214.0,256.0,2383.832
2383842.0,209.0,32.0,200.0,248.0,2383.842
2383852.0,206.0,31.0,205.0,249.0,2383.852
2383862.0,204.0,31.0,201.0,248.0,2383.862
2383872.0,201.0,31.0,207.0,253.0,2383.872
2383882.0,198.0,31.0,215.0,256.0,2383.882
2383892.0,194.0,31.0,201.0,246.0,2383.892
2383902.0,192.0,33.0,206.0,249.0,2383.902
2383912.0,189.0,32.0,205.0,249.0,2383.912
2383922.0,187.0,31.0,209.0,253.0,2383.922
2383932.0,185.0,32.0,218.0,256.0,2383.932
2383942.0,182.0,31.0,201.0,246.0,2383.942
2383952.0,178.0,32.0,206.0,249.0,2383.952
2383962.0,177.0,31.0,199.0,244.0,2383.962
2383972.0,174.0,32.0,209.0,253.0,2383.972
2383982.0,172.0,32.0,215.0,256.0,2383.982
2383992.0,169.0,31.0,199.0,244.0,2383.992
2384002.0,168.0,31.0,207.0,248.0,2384.002
2384012.0,164.0,31.0,200.0,246.0,2384.012
2384022.0,162.0,32.0,209.0,253.0,2384.022
2384032.0,160.0,33.0,213.0,256.0,2384.032
2384043.0,157.0,32.0,198.0,244.0,2384.043
2384053.0,156.0,31.0,202.0,247.0,2384.053
2384063.0,154.0,32.0,209.0,252.0,2384.063
2384073.0,151.0,31.0,206.0,251.0,2384.073
2384083.0,149.0,32.0,209.0,252.0,2384.083
2384093.0,147.0,32.0,198.0,245.0,2384.093
2384103.0,145.0,32.0,203.0,247.0,2384.103
2384113.0,143.0,32.0,209.0,254.0,2384.113
2384123.0,141.0,32.0,206.0,251.0,2384.123
2384133.0,140.0,32.0,213.0,253.0,2384.133
2384143.0,137.0,32.0,198.0,243.0,2384.143
2384153.0,135.0,32.0,202.0,247.0,2384.153
2384163.0,134.0,33.0,211.0,256.0,2384.163
2384173.0,132.0,32.0,209.0,253.0,2384.173
2384183.0,129.0,32.0,211.0,253.0,2384.183
2384193.0,129.0,32.0,199.0,242.0,2384.193
2384203.0,126.0,32.0,203.0,247.0,2384.203
2384214.0,125.0,33.0,212.0,256.0,2384.214
2384224.0,123.0,33.0,205.0,251.0,2384.224
2384234.0,121.0,32.0,207.0,250.0,2384.234
2384244.0,119.0,32.0,194.0,241.0,2384.244
2384254.0,117.0,33.0,207.0,252.0,2384.254
2384264.0,116.0,32.0,214.0,255.0,2384.264
2384274.0,114.0,32.0,206.0,249.0,2384.274
2384284.0,113.0,33.0,208.0,251.0,2384.284
2384294.0,111.0,33.0,197.0,242.0,2384.294
2384304.0,110.0,32.0,204.0,248.0,2384.304
2384314.0,109.0,33.0,213.0,255.0,2384.314
2384324.0,108.0,31.0,204.0,248.0,2384.324
2384334.0,105.0,33.0,206.0,249.0,2384.334
2384344.0,104.0,32.0,196.0,240.0,2384.344
2384354.0,103.0,33.0,205.0,250.0,2384.354
2384364.0,102.0,32.0,213.0,256.0,2384.364
2384374.0,100.0,32.0,204.0,249.0,2384.374
2384384.0,99.0,33.0,209.0,250.0,2384.384
2384394.0,97.0,32.0,197.0,241.0,2384.394
2384404.0,96.0,33.0,210.0,253.0,2384.404
2384414.0,95.0,33.0,217.0,259.0,2384.414
2384424.0,94.0,33.0,206.0,250.0,2384.424
2384434.0,93.0,33.0,211.0,252.0,2384.434
2384444.0,92.0,33.0,200.0,242.0,2384.444
2384454.0,90.0,32.0,211.0,254.0,2384.454
2384464.0,90.0,33.0,216.0,257.0,2384.464
2384474.0,88.0,33.0,208.0,251.0,2384.474
2384484.0,86.0,33.0,208.0,251.0,2384.484
2384494.0,86.0,32.0,199.0,243.0,2384.494
2384504.0,85.0,33.0,211.0,255.0,2384.504
2384514.0,84.0,32.0,214.0,256.0,2384.514
2384524.0,83.0,33.0,206.0,251.0,2384.524
2384534.0,83.0,33.0,209.0,250.0,2384.534
2384544.0,81.0,33.0,200.0,245.0,2384.544
2384555.0,80.0,33.0,212.0,255.0,2384.555
2384565.0,79.0,33.0,216.0,256.0,2384.565
2384575.0,78.0,32.0,204.0,246.0,2384.575
2384585.0,78.0,33.0,206.0,249.0,2384.585
2384595.0,77.0,33.0,211.0,251.0,2384.595
2384605.0,76.0,32.0,213.0,255.0,2384.605
2384615.0,75.0,33.0,215.0,257.0,2384.615
2384625.0,74.0,33.0,206.0,246.0,2384.625
2384635.0,73.0,32.0,207.0,248.0,2384.635
2384645.0,73.0,33.0,206.0,246.0,2384.645
2384655.0,71.0,33.0,214.0,254.0,2384.655
2384665.0,71.0,32.0,215.0,254.0,2384.665
2384675.0,70.0,32.0,205.0,243.0,2384.675
2384685.0,70.0,33.0,209.0,249.0,2384.685
2384695.0,69.0,32.0,207.0,246.0,2384.695
2384705.0,68.0,32.0,214.0,253.0,2384.705
2384715.0,68.0,32.0,214.0,253.0,2384.715
2384726.0,66.0,32.0,207.0,243.0,2384.726
2384736.0,66.0,33.0,207.0,248.0,2384.736
2384746.0,65.0,33.0,214.0,253.0,2384.746
2384756.0,65.0,32.0,213.0,251.0,2384.756
2384766.0,64.0,32.0,211.0,250.0,2384.766
2384776.0,64.0,32.0,206.0,243.0,2384.776
2384786.0,62.0,33.0,207.0,247.0,2384.786
2384796.0,63.0,31.0,216.0,254.0,2384.796
2384806.0,62.0,33.0,214.0,251.0,2384.806
2384816.0,62.0,32.0,214.0,252.0,2384.816
2384826.0,61.0,33.0,207.0,243.0,2384.826
2384836.0,61.0,31.0,211.0,248.0,2384.836
2384846.0,59.0,33.0,219.0,256.0,2384.846
2384856.0,60.0,32.0,218.0,253.0,2384.856
2384866.0,59.0,33.0,215.0,254.0,2384.866
2384876.0,58.0,32.0,207.0,243.0,2384.876
2384886.0,57.0,32.0,212.0,249.0,2384.886
2384896.0,58.0,32.0,217.0,253.0,2384.896
2384906.0,57.0,32.0,218.0,254.0,2384.906
2384916.0,56.0,33.0,214.0,251.0,2384.916
2384926.0,56.0,31.0,208.0,242.0,2384.926
2384936.0,56.0,33.0,213.0,250.0,2384.936
2384946.0,56.0,32.0,217.0,253.0,2384.946
2384956.0,55.0,33.0,218.0,253.0,2384.956
2384966.0,55.0,33.0,214.0,251.0,2384.966
2384976.0,54.0,32.0,208.0,241.0,2384.976
2384986.0,54.0,32.0,211.0,247.0,2384.986
2384996.0,52.0,33.0,218.0,254.0,2384.996
2385006.0,53.0,32.0,219.0,251.0,2385.006
2385016.0,53.0,33.0,214.0,251.0,2385.016
2385026.0,51.0,32.0,211.0,242.0,2385.026
2385036.0,52.0,32.0,212.0,246.0,2385.036
2385046.0,51.0,33.0,222.0,254.0,2385.046
2385056.0,51.0,33.0,224.0,252.0,2385.056
2385067.0,50.0,32.0,218.0,251.0,2385.067
2385077.0,51.0,32.0,214.0,242.0,2385.077
2385087.0,49.0,33.0,221.0,252.0,2385.087
2385097.0,50.0,32.0,225.0,256.0,2385.097
2385107.0,49.0,32.0,223.0,247.0,2385.107
2385117.0,49.0,33.0,220.0,250.0,2385.117
2385127.0,49.0,33.0,217.0,242.0,2385.127
2385137.0,48.0,32.0,226.0,252.0,2385.137
2385147.0,47.0,33.0,225.0,255.0,2385.147
2385157.0,49.0,32.0,228.0,251.0,2385.157
2385167.0,47.0,33.0,221.0,250.0,2385.167
2385177.0,46.0,33.0,219.0,243.0,2385.177
2385187.0,46.0,33.0,228.0,253.0,2385.187
2385197.0,46.0,33.0,229.0,256.0,2385.197
2385207.0,46.0,32.0,228.0,249.0,2385.207
2385217.0,45.0,33.0,222.0,250.0,2385.217
2385227.0,45.0,33.0,221.0,245.0,2385.227
2385238.0,45.0,32.0,232.0,254.0,2385.238
2385248.0,45.0,33.0,227.0,256.0,2385.248
2385258.0,44.0,32.0,225.0,246.0,2385.258
2385268.0,44.0,33.0,221.0,247.0,2385.268
2385278.0,43.0,33.0,223.0,250.0,2385.278
2385288.0,44.0,32.0,228.0,252.0,2385.288
2385298.0,42.0,33.0,224.0,252.0,2385.298
2385308.0,44.0,31.0,222.0,243.0,2385.308
2385318.0,43.0,33.0,219.0,245.0,2385.318
2385328.0,43.0,32.0,221.0,244.0,2385.328
2385338.0,42.0,33.0,229.0,253.0,2385.338
2385348.0,43.0,33.0,226.0,251.0,2385.348
2385358.0,41.0,32.0,224.0,243.0,2385.358
2385368.0,42.0,33.0,223.0,248.0,2385.368
2385378.0,41.0,33.0,225.0,248.0,2385.378
2385388.0,41.0,32.0,232.0,253.0,2385.388
2385398.0,41.0,32.0,225.0,251.0,2385.398
2385408.0,41.0,32.0,228.0,246.0,2385.408
2385418.0,41.0,32.0,223.0,247.0,2385.418
2385428.0,39.0,33.0,227.0,248.0,2385.428
2385438.0,40.0,33.0,233.0,252.0,2385.438
2385448.0,40.0,34.0,226.0,250.0,2385.448
2385458.0,39.0,32.0,229.0,244.0,2385.458
2385468.0,39.0,33.0,225.0,247.0,2385.468
2385478.0,40.0,32.0,234.0,251.0,2385.478
2385488.0,39.0,32.0,239.0,253.0,2385.488
2385498.0,39.0,33.0,236.0,255.0,2385.498
2385508.0,38.0,33.0,234.0,246.0,2385.508
2385518.0,38.0,32.0,230.0,246.0,2385.518
2385528.0,38.0,32.0,237.0,251.0,2385.528
2385538.0,39.0,33.0,241.0,253.0,2385.538
2385548.0,39.0,32.0,234.0,253.0,2385.548
2385558.0,38.0,32.0,236.0,244.0,2385.558
2385568.0,37.0,32.0,232.0,246.0,2385.568
2385579.0,37.0,33.0,239.0,251.0,2385.579
2385589.0,38.0,32.0,243.0,251.0,2385.589
2385599.0,37.0,32.0,234.0,250.0,2385.599
2385609.0,37.0,32.0,234.0,240.0,2385.609
2385619.0,36.0,33.0,234.0,248.0,2385.619
2385629.0,37.0,33.0,237.0,252.0,2385.629
2385639.0,36.0,33.0,239.0,250.0,2385.639
2385649.0,37.0,34.0,231.0,247.0,2385.649
2385659.0,37.0,34.0,229.0,240.0,2385.659
2385669.0,37.0,34.0,229.0,244.0,2385.669
2385679.0,36.0,34.0,236.0,252.0,2385.679
2385689.0,38.0,34.0,239.0,248.0,2385.689
2385699.0,38.0,35.0,230.0,248.0,2385.699
2385709.0,37.0,34.0,230.0,241.0,2385.709
2385719.0,38.0,35.0,228.0,247.0,2385.719
2385729.0,39.0,34.0,236.0,253.0,2385.729
2385739.0,39.0,34.0,235.0,248.0,2385.739
2385750.0,39.0,34.0,226.0,246.0,2385.75
2385760.0,40.0,33.0,224.0,239.0,2385.76
2385770.0,40.0,34.0,231.0,248.0,2385.77
2385780.0,40.0,34.0,230.0,251.0,2385.78
2385790.0,40.0,33.0,230.0,242.0,2385.79
2385800.0,42.0,34.0,225.0,245.0,2385.8
2385810.0,41.0,33.0,224.0,239.0,2385.81
2385820.0,52.0,33.0,233.0,248.0,2385.82
2385830.0,77.0,34.0,230.0,250.0,2385.83
2385840.0,82.0,33.0,234.0,245.0,2385.84
2385850.0,116.0,34.0,225.0,244.0,2385.85
2385860.0,119.0,34.0,228.0,239.0,2385.86
2385870.0,148.0,34.0,235.0,249.0,2385.87
2385880.0,175.0,34.0,234.0,251.0,2385.88
2385890.0,177.0,33.0,235.0,245.0,2385.89
2385900.0,217.0,34.0,228.0,244.0,2385.9
2385910.0,220.0,33.0,230.0,242.0,2385.91
2385920.0,245.0,34.0,234.0,247.0,2385.92
2385930.0,273.0,33.0,236.0,251.0,2385.93
2385940.0,271.0,34.0,236.0,245.0,2385.94
2385950.0,308.0,33.0,230.0,245.0,2385.95
2385960.0,313.0,34.0,234.0,243.0,2385.96
2385970.0,331.0,34.0,237.0,247.0,2385.97
2385980.0,358.0,34.0,236.0,251.0,2385.98
2385990.0,354.0,33.0,239.0,243.0,2385.99
2386000.0,388.0,34.0,232.0,244.0,2386.0
2386010.0,384.0,33.0,234.0,238.0,2386.01
2386020.0,406.0,33.0,240.0,248.0,2386.02
2386030.0,433.0,34.0,239.0,249.0,2386.03
2386040.0,424.0,34.0,241.0,242.0,2386.04
2386050.0,456.0,34.0,234.0,244.0,2386.05
2386060.0,452.0,33.0,236.0,239.0,2386.06
2386070.0,466.0,34.0,244.0,249.0,2386.07
2386080.0,494.0,33.0,239.0,251.0,2386.08
2386091.0,482.0,34.0,241.0,242.0,2386.091
2386101.0,512.0,34.0,235.0,243.0,2386.101
2386111.0,514.0,34.0,242.0,246.0,2386.111
2386121.0,515.0,33.0,249.0,248.0,2386.121
2386131.0,544.0,34.0,236.0,246.0,2386.131
2386141.0,529.0,33.0,241.0,240.0,2386.141
2386151.0,555.0,36.0,235.0,242.0,2386.151
2386161.0,559.0,34.0,242.0,246.0,2386.161
2386171.0,555.0,34.0,246.0,247.0,2386.171
2386181.0,585.0,35.0,240.0,248.0,2386.181
2386191.0,567.0,34.0,240.0,239.0,2386.191
2386201.0,592.0,34.0,236.0,242.0,2386.201
2386211.0,597.0,35.0,242.0,248.0,2386.211
2386221.0,591.0,35.0,246.0,249.0,2386.221
2386231.0,617.0,35.0,238.0,247.0,2386.231
2386241.0,599.0,34.0,243.0,241.0,2386.241
2386251.0,623.0,35.0,239.0,244.0,2386.251
2386262.0,626.0,35.0,246.0,250.0,2386.262
2386272.0,616.0,33.0,248.0,249.0,2386.272
2386282.0,640.0,36.0,238.0,246.0,2386.282
2386292.0,623.0,34.0,239.0,237.0,2386.292
2386302.0,638.0,34.0,241.0,246.0,2386.302
2386312.0,649.0,34.0,245.0,249.0,2386.312
2386322.0,635.0,35.0,245.0,248.0,2386.322
2386332.0,659.0,34.0,236.0,245.0,2386.332
2386342.0,641.0,35.0,235.0,238.0,2386.342
2386352.0,659.0,34.0,236.0,243.0,2386.352
2386362.0,665.0,34.0,242.0,250.0,2386.362
2386372.0,650.0,34.0,246.0,246.0,2386.372
2386382.0,665.0,33.0,236.0,244.0,2386.382
2386392.0,655.0,34.0,239.0,238.0,2386.392
2386402.0,665.0,33.0,239.0,245.0,2386.402
2386412.0,666.0,34.0,245.0,251.0,2386.412
2386422.0,662.0,32.0,248.0,246.0,2386.422
2386432.0,664.0,33.0,238.0,247.0,2386.432
2386442.0,664.0,33.0,241.0,239.0,2386.442
2386452.0,665.0,33.0,242.0,247.0,2386.452
2386462.0,666.0,33.0,246.0,252.0,2386.462
2386472.0,665.0,34.0,247.0,247.0,2386.472
2386482.0,665.0,32.0,238.0,246.0,2386.482
2386492.0,665.0,32.0,240.0,237.0,2386.492
2386502.0,665.0,33.0,244.0,246.0,2386.502
2386512.0,666.0,33.0,245.0,251.0,2386.512
2386522.0,665.0,32.0,250.0,247.0,2386.522
2386532.0,665.0,32.0,241.0,246.0,2386.532
2386542.0,665.0,32.0,243.0,236.0,2386.542
2386552.0,665.0,32.0,247.0,247.0,2386.552
2386562.0,666.0,32.0,249.0,250.0,2386.562
2386572.0,666.0,31.0,253.0,246.0,2386.572
2386582.0,665.0,32.0,242.0,244.0,2386.582
2386592.0,665.0,32.0,243.0,237.0,2386.592
2386603.0,665.0,33.0,248.0,248.0,2386.603
2386613.0,666.0,32.0,246.0,249.0,2386.613
2386623.0,665.0,32.0,249.0,243.0,2386.623
2386633.0,666.0,33.0,241.0,243.0,2386.633
2386643.0,666.0,33.0,246.0,245.0,2386.643
2386653.0,665.0,32.0,249.0,249.0,2386.653
2386663.0,666.0,33.0,246.0,253.0,2386.663
2386673.0,665.0,32.0,248.0,243.0,2386.673
2386683.0,665.0,33.0,240.0,244.0,2386.683
2386693.0,666.0,32.0,243.0,240.0,2386.693
2386703.0,665.0,32.0,250.0,250.0,2386.703
2386713.0,666.0,32.0,244.0,250.0,2386.713
2386723.0,665.0,33.0,248.0,242.0,2386.723
2386733.0,665.0,33.0,241.0,245.0,2386.733
2386743.0,666.0,32.0,244.0,241.0,2386.743
2386753.0,665.0,32.0,252.0,250.0,2386.753
2386763.0,666.0,33.0,245.0,250.0,2386.763
2386774.0,661.0,32.0,248.0,242.0,2386.774
2386784.0,665.0,32.0,242.0,242.0,2386.784
2386794.0,666.0,33.0,249.0,249.0,2386.794
2386804.0,660.0,32.0,254.0,250.0,2386.804
2386814.0,665.0,33.0,243.0,247.0,2386.814
2386824.0,656.0,32.0,249.0,241.0,2386.824
2386834.0,665.0,33.0,242.0,244.0,2386.834
2386844.0,666.0,32.0,251.0,249.0,2386.844
2386854.0,655.0,33.0,255.0,250.0,2386.854
2386864.0,665.0,33.0,245.0,249.0,2386.864
2386874.0,650.0,32.0,251.0,241.0,2386.874
2386884.0,665.0,32.0,245.0,243.0,2386.884
2386894.0,665.0,33.0,252.0,250.0,2386.894
2386904.0,649.0,33.0,256.0,250.0,2386.904
2386914.0,665.0,33.0,245.0,249.0,2386.914
2386924.0,643.0,33.0,250.0,242.0,2386.924
2386934.0,657.0,33.0,246.0,245.0,2386.934
2386944.0,651.0,33.0,251.0,248.0,2386.944
2386954.0,641.0,32.0,258.0,251.0,2386.954
2386964.0,659.0,33.0,248.0,249.0,2386.964
2386974.0,635.0,33.0,251.0,241.0,2386.974
2386984.0,649.0,33.0,246.0,247.0,2386.984
2386994.0,645.0,33.0,252.0,250.0,2386.994
2387004.0,633.0,33.0,257.0,252.0,2387.004
2387014.0,652.0,34.0,248.0,250.0,2387.014
2387024.0,627.0,33.0,250.0,241.0,2387.024
2387034.0,644.0,33.0,245.0,245.0,2387.034
2387044.0,639.0,33.0,253.0,250.0,2387.044
2387054.0,626.0,34.0,255.0,251.0,2387.054
2387064.0,646.0,32.0,244.0,247.0,2387.064
2387074.0,622.0,32.0,251.0,242.0,2387.074
2387084.0,640.0,32.0,245.0,243.0,2387.084
2387094.0,634.0,33.0,251.0,251.0,2387.094
2387104.0,619.0,33.0,254.0,249.0,2387.104
2387115.0,638.0,34.0,243.0,248.0,2387.115
2387125.0,616.0,32.0,245.0,240.0,2387.125
2387135.0,626.0,32.0,247.0,247.0,2387.135
2387145.0,635.0,33.0,252.0,253.0,2387.145
2387155.0,612.0,32.0,252.0,247.0,2387.155
2387165.0,633.0,33.0,245.0,247.0,2387.165
2387175.0,609.0,32.0,245.0,241.0,2387.175
2387185.0,618.0,33.0,241.0,248.0,2387.185
2387195.0,628.0,32.0,242.0,251.0,2387.195
2387205.0,605.0,33.0,246.0,248.0,2387.205
2387215.0,624.0,32.0,236.0,246.0,2387.215
2387225.0,602.0,32.0,237.0,239.0,2387.225
2387235.0,609.0,32.0,242.0,248.0,2387.235
2387245.0,617.0,33.0,243.0,251.0,2387.245
2387255.0,596.0,32.0,244.0,246.0,2387.255
2387265.0,615.0,32.0,235.0,244.0,2387.265
2387275.0,594.0,32.0,237.0,240.0,2387.275
2387286.0,597.0,32.0,243.0,249.0,2387.286
2387296.0,611.0,33.0,241.0,250.0,2387.296
2387306.0,585.0,33.0,245.0,245.0,2387.306
2387316.0,602.0,32.0,238.0,244.0,2387.316
2387326.0,591.0,32.0,245.0,248.0,2387.326
2387336.0,586.0,32.0,248.0,251.0,2387.336
2387346.0,601.0,31.0,241.0,251.0,2387.346
2387356.0,575.0,32.0,242.0,244.0,2387.356
2387366.0,591.0,32.0,236.0,245.0,2387.366
2387376.0,576.0,33.0,240.0,244.0,2387.376
2387386.0,575.0,32.0,249.0,254.0,2387.386
2387396.0,591.0,32.0,242.0,252.0,2387.396
2387406.0,566.0,32.0,245.0,245.0,2387.406
2387416.0,583.0,32.0,238.0,246.0,2387.416
2387426.0,568.0,32.0,242.0,245.0,2387.426
2387436.0,564.0,32.0,249.0,255.0,2387.436
2387446.0,581.0,32.0,241.0,251.0,2387.446
2387456.0,555.0,32.0,246.0,247.0,2387.456
2387466.0,572.0,32.0,239.0,246.0,2387.466
2387476.0,558.0,32.0,245.0,247.0,2387.476
2387486.0,552.0,32.0,251.0,252.0,2387.486
2387496.0,571.0,32.0,241.0,251.0,2387.496
2387506.0,545.0,32.0,248.0,247.0,2387.506
2387516.0,562.0,32.0,239.0,246.0,2387.516
2387526.0,551.0,32.0,244.0,248.0,2387.526
2387536.0,543.0,31.0,250.0,253.0,2387.536
2387546.0,560.0,33.0,242.0,253.0,2387.546
2387556.0,535.0,31.0,244.0,246.0,2387.556
2387566.0,553.0,33.0,236.0,247.0,2387.566
2387576.0,543.0,32.0,241.0,249.0,2387.576
2387586.0,537.0,32.0,244.0,252.0,2387.586
2387596.0,553.0,32.0,240.0,253.0,2387.596
2387606.0,527.0,31.0,241.0,246.0,2387.606
2387616.0,543.0,32.0,235.0,246.0,2387.616
2387627.0,536.0,32.0,241.0,252.0,2387.627
2387637.0,523.0,32.0,248.0,253.0,2387.637
2387647.0,542.0,32.0,236.0,250.0,2387.647
2387657.0,518.0,32.0,237.0,242.0,2387.657
2387667.0,531.0,32.0,237.0,247.0,2387.667
2387677.0,529.0,32.0,241.0,251.0,2387.677
2387687.0,515.0,32.0,245.0,252.0,2387.687
2387697.0,534.0,33.0,235.0,249.0,2387.697
2387707.0,510.0,31.0,238.0,240.0,2387.707
2387717.0,525.0,31.0,235.0,245.0,2387.717
2387727.0,522.0,32.0,243.0,251.0,2387.727
2387737.0,506.0,31.0,246.0,251.0,2387.737
2387747.0,525.0,32.0,236.0,247.0,2387.747
2387757.0,502.0,32.0,241.0,243.0,2387.757
2387767.0,518.0,32.0,236.0,246.0,2387.767
2387777.0,516.0,32.0,244.0,253.0,2387.777
2387787.0,499.0,32.0,247.0,251.0,2387.787
2387798.0,519.0,31.0,237.0,248.0,2387.798
2387808.0,495.0,32.0,240.0,241.0,2387.808
2387818.0,503.0,31.0,245.0,251.0,2387.818
2387828.0,513.0,33.0,245.0,253.0,2387.828
2387838.0,490.0,32.0,247.0,247.0,2387.838
2387848.0,509.0,32.0,239.0,248.0,2387.848
