time (ms),signal 0,signal 1,signal 2,signal 3,time (sec)
2463027.0,120.0,33.0,3.0,238.0,2463.027
2463037.0,119.0,32.0,5.0,236.0,2463.037
2463047.0,116.0,32.0,3.0,233.0,2463.047
2463057.0,115.0,33.0,3.0,241.0,2463.057
2463067.0,113.0,32.0,4.0,242.0,2463.067
2463077.0,111.0,33.0,3.0,234.0,2463.077
2463087.0,111.0,32.0,5.0,235.0,2463.087
2463097.0,108.0,32.0,4.0,235.0,2463.097
2463107.0,108.0,32.0,4.0,239.0,2463.107
2463117.0,106.0,33.0,4.0,243.0,2463.117
2463127.0,104.0,32.0,3.0,234.0,2463.127
2463137.0,102.0,32.0,3.0,234.0,2463.137
2463147.0,101.0,32.0,3.0,228.0,2463.147
2463157.0,100.0,31.0,4.0,239.0,2463.157
2463167.0,97.0,32.0,4.0,241.0,2463.167
2463177.0,96.0,32.0,4.0,233.0,2463.177
2463187.0,95.0,32.0,4.0,235.0,2463.187
2463197.0,94.0,32.0,4.0,230.0,2463.197
2463207.0,93.0,31.0,4.0,240.0,2463.207
2463217.0,92.0,32.0,5.0,242.0,2463.217
2463227.0,90.0,32.0,3.0,232.0,2463.227
2463237.0,89.0,32.0,4.0,235.0,2463.237
2463247.0,87.0,33.0,3.0,232.0,2463.247
2463257.0,86.0,32.0,4.0,240.0,2463.257
2463267.0,85.0,32.0,3.0,242.0,2463.267
2463277.0,85.0,32.0,5.0,235.0,2463.277
2463287.0,83.0,31.0,3.0,236.0,2463.287
2463297.0,82.0,32.0,4.0,233.0,2463.297
2463307.0,81.0,33.0,3.0,242.0,2463.307
2463318.0,80.0,32.0,3.0,242.0,2463.318
2463328.0,79.0,31.0,4.0,233.0,2463.328
2463338.0,77.0,32.0,4.0,235.0,2463.338
2463348.0,77.0,31.0,4.0,241.0,2463.348
2463358.0,76.0,31.0,4.0,240.0,2463.358
2463368.0,75.0,32.0,4.0,240.0,2463.368
2463378.0,74.0,32.0,3.0,233.0,2463.378
2463388.0,73.0,32.0,4.0,236.0,2463.388
2463398.0,72.0,32.0,4.0,243.0,2463.398
2463408.0,71.0,31.0,5.0,243.0,2463.408
2463418.0,70.0,31.0,4.0,240.0,2463.418
2463428.0,70.0,31.0,4.0,231.0,2463.428
2463438.0,69.0,32.0,3.0,236.0,2463.438
2463448.0,67.0,32.0,3.0,237.0,2463.448
2463458.0,67.0,31.0,3.0,241.0,2463.458
2463468.0,66.0,31.0,4.0,240.0,2463.468
2463478.0,66.0,31.0,4.0,230.0,2463.478
2463488.0,65.0,31.0,4.0,236.0,2463.488
2463498.0,64.0,31.0,4.0,239.0,2463.498
2463508.0,63.0,32.0,3.0,240.0,2463.508
2463518.0,63.0,32.0,3.0,240.0,2463.518
2463528.0,62.0,31.0,4.0,232.0,2463.528
2463538.0,63.0,31.0,5.0,237.0,2463.538
2463548.0,60.0,31.0,4.0,241.0,2463.548
2463558.0,60.0,31.0,4.0,241.0,2463.558
2463568.0,59.0,32.0,3.0,240.0,2463.568
2463578.0,59.0,31.0,3.0,233.0,2463.578
2463588.0,59.0,31.0,4.0,236.0,2463.588
2463598.0,58.0,32.0,5.0,243.0,2463.598
2463608.0,57.0,32.0,4.0,242.0,2463.608
2463618.0,56.0,32.0,4.0,241.0,2463.618
2463628.0,56.0,32.0,4.0,236.0,2463.628
2463638.0,55.0,32.0,3.0,238.0,2463.638
2463648.0,55.0,32.0,3.0,244.0,2463.648
2463659.0,54.0,32.0,4.0,243.0,2463.659
2463669.0,55.0,31.0,4.0,241.0,2463.669
2463679.0,54.0,32.0,4.0,232.0,2463.679
2463689.0,52.0,32.0,4.0,243.0,2463.689
2463699.0,53.0,32.0,3.0,247.0,2463.699
2463709.0,52.0,32.0,4.0,244.0,2463.709
2463719.0,52.0,31.0,4.0,242.0,2463.719
2463729.0,52.0,32.0,5.0,235.0,2463.729
2463739.0,50.0,32.0,3.0,246.0,2463.739
2463749.0,50.0,32.0,4.0,249.0,2463.749
2463759.0,50.0,33.0,3.0,246.0,2463.759
2463769.0,49.0,32.0,4.0,244.0,2463.769
2463779.0,49.0,32.0,3.0,237.0,2463.779
2463789.0,49.0,32.0,4.0,244.0,2463.789
2463799.0,49.0,31.0,4.0,249.0,2463.799
2463809.0,48.0,33.0,3.0,243.0,2463.809
2463819.0,47.0,33.0,4.0,243.0,2463.819
2463830.0,47.0,33.0,3.0,236.0,2463.83
2463840.0,47.0,32.0,3.0,246.0,2463.84
2463850.0,46.0,33.0,4.0,244.0,2463.85
2463860.0,47.0,33.0,4.0,239.0,2463.86
2463870.0,45.0,33.0,3.0,242.0,2463.87
2463880.0,45.0,33.0,4.0,238.0,2463.88
2463890.0,45.0,33.0,3.0,247.0,2463.89
2463900.0,45.0,33.0,4.0,246.0,2463.9
2463910.0,45.0,32.0,4.0,239.0,2463.91
2463920.0,45.0,33.0,5.0,242.0,2463.92
2463930.0,44.0,33.0,3.0,239.0,2463.93
2463940.0,44.0,33.0,3.0,247.0,2463.94
2463950.0,43.0,33.0,4.0,247.0,2463.95
2463960.0,43.0,32.0,4.0,240.0,2463.96
2463970.0,43.0,32.0,3.0,241.0,2463.97
2463980.0,42.0,33.0,4.0,240.0,2463.98
2463990.0,42.0,33.0,4.0,245.0,2463.99
2464000.0,41.0,33.0,3.0,247.0,2464.0
2464010.0,42.0,33.0,4.0,239.0,2464.01
2464020.0,41.0,33.0,4.0,239.0,2464.02
2464030.0,42.0,32.0,3.0,240.0,2464.03
2464040.0,41.0,33.0,3.0,245.0,2464.04
2464050.0,41.0,32.0,4.0,246.0,2464.05
2464060.0,40.0,33.0,3.0,239.0,2464.06
2464070.0,41.0,33.0,3.0,240.0,2464.07
2464080.0,40.0,34.0,3.0,243.0,2464.08
2464090.0,39.0,32.0,3.0,247.0,2464.09
2464100.0,40.0,33.0,3.0,247.0,2464.1
2464110.0,39.0,33.0,4.0,240.0,2464.11
2464120.0,39.0,32.0,4.0,242.0,2464.12
2464130.0,38.0,33.0,4.0,239.0,2464.13
2464140.0,38.0,33.0,4.0,248.0,2464.14
2464150.0,38.0,33.0,3.0,247.0,2464.15
2464160.0,38.0,32.0,4.0,238.0,2464.16
2464171.0,37.0,33.0,4.0,240.0,2464.171
2464181.0,38.0,33.0,4.0,247.0,2464.181
2464191.0,38.0,34.0,3.0,247.0,2464.191
2464201.0,37.0,33.0,4.0,244.0,2464.201
2464211.0,36.0,35.0,4.0,236.0,2464.211
2464221.0,38.0,34.0,4.0,241.0,2464.221
2464231.0,39.0,35.0,4.0,247.0,2464.231
2464241.0,47.0,35.0,5.0,245.0,2464.241
2464251.0,79.0,36.0,4.0,241.0,2464.251
2464261.0,82.0,36.0,4.0,234.0,2464.261
2464271.0,128.0,36.0,4.0,239.0,2464.271
2464281.0,151.0,37.0,4.0,244.0,2464.281
2464291.0,166.0,36.0,3.0,244.0,2464.291
2464301.0,212.0,37.0,3.0,242.0,2464.301
2464311.0,216.0,36.0,4.0,235.0,2464.311
2464321.0,258.0,37.0,4.0,239.0,2464.321
2464331.0,285.0,36.0,4.0,246.0,2464.331
2464342.0,296.0,37.0,3.0,244.0,2464.342
2464352.0,342.0,36.0,4.0,242.0,2464.352
2464362.0,346.0,35.0,4.0,234.0,2464.362
2464372.0,380.0,35.0,4.0,244.0,2464.372
2464382.0,414.0,35.0,4.0,247.0,2464.382
2464392.0,414.0,35.0,4.0,243.0,2464.392
2464402.0,455.0,35.0,4.0,243.0,2464.402
2464412.0,457.0,36.0,3.0,235.0,2464.412
2464422.0,485.0,35.0,4.0,245.0,2464.422
2464432.0,513.0,36.0,3.0,248.0,2464.432
2464442.0,511.0,35.0,4.0,244.0,2464.442
2464452.0,550.0,36.0,4.0,242.0,2464.452
2464462.0,549.0,37.0,4.0,238.0,2464.462
2464472.0,572.0,36.0,4.0,245.0,2464.472
2464482.0,594.0,36.0,4.0,247.0,2464.482
2464492.0,591.0,36.0,4.0,239.0,2464.492
2464502.0,627.0,37.0,4.0,239.0,2464.502
2464512.0,620.0,36.0,4.0,232.0,2464.512
2464522.0,645.0,36.0,4.0,242.0,2464.522
2464532.0,665.0,37.0,3.0,246.0,2464.532
2464542.0,658.0,36.0,4.0,238.0,2464.542
2464552.0,665.0,37.0,4.0,238.0,2464.552
2464562.0,665.0,36.0,3.0,232.0,2464.562
2464572.0,665.0,36.0,4.0,242.0,2464.572
2464582.0,665.0,37.0,3.0,246.0,2464.582
2464592.0,665.0,36.0,3.0,240.0,2464.592
2464602.0,665.0,35.0,3.0,241.0,2464.602
2464612.0,665.0,34.0,4.0,235.0,2464.612
2464622.0,665.0,34.0,4.0,245.0,2464.622
2464632.0,666.0,35.0,4.0,248.0,2464.632
2464642.0,665.0,34.0,4.0,243.0,2464.642
2464652.0,665.0,33.0,4.0,241.0,2464.652
2464662.0,665.0,34.0,4.0,234.0,2464.662
2464672.0,665.0,33.0,4.0,245.0,2464.672
2464683.0,665.0,34.0,3.0,247.0,2464.683
2464693.0,666.0,33.0,4.0,243.0,2464.693
2464703.0,665.0,33.0,4.0,245.0,2464.703
2464713.0,665.0,33.0,3.0,247.0,2464.713
2464723.0,665.0,34.0,3.0,255.0,2464.723
2464733.0,665.0,33.0,4.0,254.0,2464.733
2464743.0,665.0,33.0,3.0,246.0,2464.743
2464753.0,666.0,33.0,5.0,242.0,2464.753
2464763.0,666.0,32.0,4.0,243.0,2464.763
2464773.0,665.0,33.0,4.0,249.0,2464.773
2464783.0,666.0,33.0,4.0,249.0,2464.783
2464793.0,665.0,33.0,3.0,240.0,2464.793
2464803.0,665.0,32.0,4.0,244.0,2464.803
2464813.0,665.0,33.0,3.0,242.0,2464.813
2464823.0,665.0,31.0,4.0,251.0,2464.823
2464833.0,665.0,33.0,4.0,249.0,2464.833
2464843.0,665.0,32.0,4.0,241.0,2464.843
2464854.0,665.0,33.0,3.0,245.0,2464.854
2464864.0,666.0,32.0,4.0,254.0,2464.864
2464874.0,665.0,32.0,4.0,256.0,2464.874
2464884.0,666.0,33.0,5.0,255.0,2464.884
2464894.0,665.0,32.0,4.0,246.0,2464.894
2464904.0,666.0,32.0,5.0,250.0,2464.904
2464914.0,665.0,33.0,3.0,256.0,2464.914
2464924.0,665.0,32.0,3.0,256.0,2464.924
2464934.0,666.0,33.0,5.0,252.0,2464.934
2464944.0,665.0,32.0,3.0,246.0,2464.944
2464954.0,666.0,31.0,4.0,249.0,2464.954
2464964.0,666.0,32.0,4.0,252.0,2464.964
2464974.0,665.0,32.0,4.0,248.0,2464.974
2464984.0,665.0,32.0,4.0,248.0,2464.984
2464994.0,665.0,32.0,4.0,244.0,2464.994
2465004.0,665.0,32.0,4.0,251.0,2465.004
2465014.0,666.0,32.0,5.0,255.0,2465.014
2465024.0,665.0,32.0,4.0,255.0,2465.024
2465034.0,665.0,32.0,4.0,261.0,2465.034
2465044.0,665.0,33.0,3.0,251.0,2465.044
2465054.0,665.0,32.0,4.0,254.0,2465.054
2465064.0,666.0,32.0,4.0,260.0,2465.064
2465074.0,665.0,32.0,3.0,258.0,2465.074
2465084.0,665.0,31.0,4.0,252.0,2465.084
2465094.0,665.0,33.0,4.0,245.0,2465.094
2465104.0,665.0,31.0,4.0,250.0,2465.104
2465114.0,665.0,32.0,4.0,259.0,2465.114
2465124.0,665.0,32.0,4.0,262.0,2465.124
2465134.0,665.0,32.0,3.0,262.0,2465.134
2465144.0,666.0,31.0,5.0,252.0,2465.144
2465154.0,665.0,33.0,4.0,255.0,2465.154
2465164.0,665.0,32.0,4.0,267.0,2465.164
2465174.0,665.0,33.0,3.0,260.0,2465.174
2465184.0,665.0,32.0,3.0,256.0,2465.184
2465195.0,665.0,32.0,4.0,252.0,2465.195
2465205.0,666.0,32.0,4.0,263.0,2465.205
2465215.0,666.0,31.0,4.0,263.0,2465.215
2465225.0,665.0,32.0,4.0,253.0,2465.225
2465235.0,665.0,33.0,3.0,255.0,2465.235
2465245.0,666.0,32.0,4.0,244.0,2465.245
2465255.0,665.0,32.0,4.0,255.0,2465.255
2465265.0,666.0,32.0,4.0,256.0,2465.265
2465275.0,666.0,31.0,4.0,247.0,2465.275
2465285.0,665.0,32.0,4.0,252.0,2465.285
2465295.0,665.0,32.0,4.0,243.0,2465.295
2465305.0,665.0,33.0,3.0,258.0,2465.305
2465315.0,665.0,32.0,4.0,254.0,2465.315
2465325.0,665.0,33.0,3.0,245.0,2465.325
2465335.0,666.0,31.0,5.0,246.0,2465.335
2465345.0,665.0,31.0,4.0,250.0,2465.345
2465355.0,665.0,32.0,4.0,261.0,2465.355
2465366.0,666.0,33.0,4.0,264.0,2465.366
2465376.0,665.0,32.0,4.0,263.0,2465.376
2465386.0,665.0,32.0,3.0,266.0,2465.386
2465396.0,666.0,32.0,4.0,260.0,2465.396
2465406.0,665.0,31.0,4.0,253.0,2465.406
2465416.0,666.0,33.0,4.0,246.0,2465.416
2465426.0,665.0,32.0,4.0,234.0,2465.426
2465436.0,665.0,33.0,3.0,227.0,2465.436
2465446.0,665.0,32.0,4.0,233.0,2465.446
2465456.0,665.0,33.0,3.0,246.0,2465.456
2465466.0,666.0,32.0,5.0,238.0,2465.466
2465476.0,665.0,32.0,4.0,225.0,2465.476
2465486.0,665.0,32.0,4.0,233.0,2465.486
2465496.0,665.0,32.0,4.0,237.0,2465.496
2465506.0,665.0,32.0,3.0,250.0,2465.506
2465516.0,665.0,33.0,4.0,243.0,2465.516
2465526.0,665.0,33.0,5.0,243.0,2465.526
2465536.0,665.0,33.0,3.0,255.0,2465.536
2465546.0,665.0,32.0,4.0,255.0,2465.546
2465556.0,665.0,33.0,4.0,254.0,2465.556
2465566.0,665.0,32.0,3.0,243.0,2465.566
2465576.0,665.0,32.0,4.0,228.0,2465.576
2465586.0,665.0,33.0,3.0,236.0,2465.586
2465596.0,666.0,33.0,4.0,241.0,2465.596
2465606.0,665.0,33.0,4.0,237.0,2465.606
2465616.0,665.0,33.0,4.0,235.0,2465.616
2465626.0,665.0,33.0,3.0,249.0,2465.626
2465636.0,665.0,32.0,4.0,260.0,2465.636
2465646.0,666.0,32.0,4.0,264.0,2465.646
2465656.0,666.0,32.0,4.0,265.0,2465.656
2465666.0,665.0,32.0,4.0,267.0,2465.666
2465676.0,665.0,32.0,4.0,250.0,2465.676
2465686.0,665.0,33.0,4.0,256.0,2465.686
2465696.0,666.0,32.0,4.0,277.0,2465.696
2465707.0,665.0,32.0,4.0,277.0,2465.707
2465717.0,666.0,33.0,5.0,283.0,2465.717
2465727.0,666.0,32.0,4.0,279.0,2465.727
2465737.0,665.0,33.0,3.0,287.0,2465.737
2465747.0,666.0,33.0,4.0,305.0,2465.747
2465757.0,665.0,33.0,4.0,297.0,2465.757
2465767.0,665.0,32.0,3.0,294.0,2465.767
2465777.0,665.0,32.0,4.0,279.0,2465.777
2465787.0,666.0,33.0,4.0,279.0,2465.787
2465797.0,666.0,33.0,4.0,280.0,2465.797
2465807.0,664.0,32.0,4.0,275.0,2465.807
2465817.0,665.0,33.0,3.0,272.0,2465.817
2465827.0,660.0,32.0,4.0,267.0,2465.827
2465837.0,665.0,33.0,4.0,273.0,2465.837
2465847.0,666.0,33.0,4.0,269.0,2465.847
2465857.0,654.0,33.0,4.0,251.0,2465.857
2465867.0,665.0,33.0,4.0,251.0,2465.867
2465878.0,647.0,34.0,3.0,255.0,2465.878
2465888.0,654.0,33.0,4.0,262.0,2465.888
2465898.0,662.0,34.0,4.0,266.0,2465.898
2465908.0,637.0,33.0,4.0,255.0,2465.908
2465918.0,654.0,33.0,4.0,245.0,2465.918
2465928.0,631.0,33.0,4.0,236.0,2465.928
2465938.0,636.0,34.0,4.0,249.0,2465.938
2465948.0,646.0,35.0,3.0,252.0,2465.948
2465958.0,621.0,34.0,4.0,244.0,2465.958
2465968.0,640.0,35.0,3.0,243.0,2465.968
2465978.0,616.0,34.0,4.0,239.0,2465.978
2465988.0,619.0,34.0,4.0,246.0,2465.988
2465998.0,634.0,33.0,4.0,245.0,2465.998
2466008.0,605.0,34.0,4.0,251.0,2466.008
2466018.0,624.0,34.0,4.0,260.0,2466.018
2466028.0,604.0,33.0,4.0,252.0,2466.028
2466038.0,604.0,34.0,5.0,256.0,2466.038
2466048.0,613.0,33.0,4.0,251.0,2466.048
2466058.0,587.0,33.0,4.0,245.0,2466.058
2466068.0,606.0,33.0,4.0,244.0,2466.068
2466078.0,590.0,35.0,3.0,249.0,2466.078
2466088.0,590.0,33.0,4.0,263.0,2466.088
2466098.0,604.0,35.0,3.0,271.0,2466.098
2466108.0,580.0,33.0,5.0,258.0,2466.108
2466118.0,596.0,34.0,4.0,253.0,2466.118
2466128.0,579.0,33.0,4.0,248.0,2466.128
2466138.0,583.0,33.0,4.0,254.0,2466.138
2466148.0,593.0,33.0,4.0,258.0,2466.148
2466158.0,566.0,33.0,4.0,249.0,2466.158
2466168.0,581.0,33.0,5.0,253.0,2466.168
2466178.0,560.0,33.0,4.0,247.0,2466.178
2466188.0,570.0,34.0,4.0,254.0,2466.188
2466198.0,581.0,33.0,4.0,259.0,2466.198
2466208.0,555.0,34.0,3.0,251.0,2466.208
2466219.0,571.0,32.0,4.0,254.0,2466.219
2466229.0,556.0,33.0,3.0,251.0,2466.229
2466239.0,549.0,32.0,5.0,250.0,2466.239
2466249.0,568.0,34.0,3.0,246.0,2466.249
2466259.0,540.0,32.0,4.0,237.0,2466.259
2466269.0,559.0,33.0,4.0,243.0,2466.269
2466279.0,545.0,32.0,4.0,253.0,2466.279
2466289.0,535.0,33.0,4.0,252.0,2466.289
2466299.0,554.0,32.0,5.0,251.0,2466.299
2466309.0,530.0,32.0,4.0,247.0,2466.309
2466319.0,545.0,33.0,3.0,249.0,2466.319
2466329.0,536.0,33.0,3.0,258.0,2466.329
2466339.0,522.0,32.0,3.0,262.0,2466.339
2466349.0,542.0,33.0,3.0,271.0,2466.349
2466359.0,517.0,32.0,4.0,258.0,2466.359
2466369.0,533.0,33.0,4.0,260.0,2466.369
2466379.0,525.0,33.0,3.0,261.0,2466.379
2466390.0,510.0,32.0,4.0,261.0,2466.39
2466400.0,531.0,33.0,3.0,254.0,2466.4
2466410.0,505.0,32.0,4.0,240.0,2466.41
2466420.0,517.0,33.0,4.0,248.0,2466.42
2466430.0,523.0,32.0,5.0,258.0,2466.43
2466440.0,503.0,32.0,4.0,262.0,2466.44
2466450.0,520.0,32.0,4.0,265.0,2466.45
2466460.0,496.0,34.0,3.0,256.0,2466.46
2466470.0,505.0,32.0,4.0,265.0,2466.47
2466480.0,508.0,33.0,3.0,270.0,2466.48
2466490.0,489.0,33.0,4.0,267.0,2466.49
2466500.0,509.0,32.0,4.0,258.0,2466.5
2466510.0,487.0,33.0,4.0,242.0,2466.51
2466520.0,500.0,32.0,4.0,249.0,2466.52
2466530.0,500.0,33.0,3.0,251.0,2466.53
2466540.0,480.0,32.0,4.0,248.0,2466.54
2466550.0,501.0,33.0,4.0,249.0,2466.55
2466560.0,477.0,32.0,4.0,245.0,2466.56
2466570.0,489.0,33.0,3.0,250.0,2466.57
2466580.0,491.0,32.0,4.0,256.0,2466.58
2466590.0,470.0,33.0,3.0,254.0,2466.59
2466600.0,489.0,32.0,4.0,249.0,2466.6
2466610.0,466.0,34.0,3.0,244.0,2466.61
2466620.0,476.0,33.0,5.0,250.0,2466.62
2466630.0,482.0,33.0,4.0,257.0,2466.63
2466640.0,461.0,32.0,4.0,250.0,2466.64
2466650.0,480.0,33.0,4.0,249.0,2466.65
2466660.0,459.0,32.0,4.0,244.0,2466.66
2466670.0,468.0,32.0,4.0,265.0,2466.67
2466680.0,476.0,33.0,4.0,269.0,2466.68
2466690.0,454.0,33.0,4.0,266.0,2466.69
2466700.0,473.0,34.0,2.0,263.0,2466.7
2466710.0,450.0,33.0,4.0,253.0,2466.71
2466720.0,457.0,33.0,4.0,255.0,2466.72
2466731.0,468.0,33.0,4.0,257.0,2466.731
2466741.0,444.0,32.0,4.0,255.0,2466.741
2466751.0,463.0,33.0,5.0,249.0,2466.751
2466761.0,446.0,33.0,4.0,245.0,2466.761
2466771.0,444.0,33.0,4.0,253.0,2466.771
2466781.0,460.0,33.0,4.0,251.0,2466.781
2466791.0,436.0,32.0,4.0,245.0,2466.791
2466801.0,453.0,32.0,4.0,245.0,2466.801
2466811.0,443.0,33.0,4.0,244.0,2466.811
2466821.0,443.0,33.0,5.0,245.0,2466.821
2466831.0,456.0,33.0,4.0,245.0,2466.831
2466841.0,432.0,33.0,4.0,237.0,2466.841
2466851.0,449.0,32.0,3.0,239.0,2466.851
2466861.0,429.0,32.0,4.0,237.0,2466.861
2466871.0,433.0,32.0,4.0,246.0,2466.871
2466881.0,448.0,33.0,4.0,243.0,2466.881
2466891.0,424.0,32.0,4.0,239.0,2466.891
2466902.0,440.0,32.0,4.0,244.0,2466.902
2466912.0,432.0,33.0,3.0,245.0,2466.912
2466922.0,422.0,32.0,4.0,248.0,2466.922
2466932.0,441.0,33.0,3.0,245.0,2466.932
2466942.0,418.0,32.0,5.0,237.0,2466.942
2466952.0,434.0,33.0,3.0,241.0,2466.952
2466962.0,425.0,33.0,4.0,250.0,2466.962
2466972.0,416.0,33.0,4.0,256.0,2466.972
2466982.0,434.0,33.0,3.0,254.0,2466.982
2466992.0,411.0,32.0,4.0,246.0,2466.992
2467002.0,427.0,32.0,4.0,244.0,2467.002
2467012.0,419.0,33.0,4.0,248.0,2467.012
2467022.0,410.0,32.0,4.0,249.0,2467.022
2467032.0,431.0,31.0,5.0,246.0,2467.032
2467042.0,404.0,33.0,3.0,243.0,2467.042
2467052.0,420.0,32.0,4.0,237.0,2467.052
2467062.0,418.0,32.0,4.0,244.0,2467.062
2467072.0,409.0,32.0,4.0,244.0,2467.072
2467082.0,426.0,32.0,4.0,245.0,2467.082
2467092.0,400.0,31.0,4.0,234.0,2467.092
2467102.0,414.0,33.0,3.0,240.0,2467.102
2467112.0,413.0,32.0,4.0,247.0,2467.112
2467122.0,399.0,33.0,3.0,250.0,2467.122
2467132.0,417.0,32.0,5.0,246.0,2467.132
2467142.0,394.0,31.0,4.0,238.0,2467.142
2467152.0,409.0,32.0,4.0,244.0,2467.152
2467162.0,399.0,31.0,4.0,248.0,2467.162
2467172.0,392.0,32.0,4.0,254.0,2467.172
2467182.0,410.0,32.0,4.0,250.0,2467.182
2467192.0,386.0,32.0,4.0,244.0,2467.192
2467202.0,405.0,32.0,4.0,250.0,2467.202
2467212.0,398.0,32.0,4.0,251.0,2467.212
2467222.0,386.0,32.0,4.0,253.0,2467.222
2467232.0,404.0,33.0,3.0,254.0,2467.232
2467243.0,380.0,32.0,4.0,242.0,2467.243
2467253.0,391.0,32.0,3.0,248.0,2467.253
2467263.0,397.0,32.0,4.0,253.0,2467.263
2467273.0,377.0,31.0,3.0,250.0,2467.273
2467283.0,394.0,32.0,4.0,249.0,2467.283
2467293.0,374.0,31.0,4.0,242.0,2467.293
2467303.0,384.0,32.0,3.0,249.0,2467.303
2467313.0,391.0,32.0,4.0,253.0,2467.313
2467323.0,371.0,32.0,4.0,247.0,2467.323
2467333.0,390.0,32.0,5.0,247.0,2467.333
2467343.0,368.0,31.0,4.0,239.0,2467.343
2467353.0,376.0,32.0,4.0,246.0,2467.353
2467363.0,384.0,33.0,3.0,251.0,2467.363
2467373.0,365.0,32.0,4.0,248.0,2467.373
2467383.0,382.0,32.0,3.0,246.0,2467.383
2467393.0,362.0,31.0,4.0,236.0,2467.393
2467403.0,370.0,31.0,4.0,246.0,2467.403
2467414.0,378.0,32.0,4.0,249.0,2467.414
2467424.0,358.0,32.0,4.0,244.0,2467.424
2467434.0,374.0,32.0,3.0,242.0,2467.434
2467444.0,362.0,32.0,4.0,241.0,2467.444
2467454.0,362.0,32.0,5.0,251.0,2467.454
2467464.0,376.0,32.0,4.0,251.0,2467.464
2467474.0,353.0,32.0,3.0,246.0,2467.474
2467484.0,369.0,32.0,3.0,252.0,2467.484
2467494.0,359.0,33.0,4.0,250.0,2467.494
2467504.0,360.0,32.0,4.0,254.0,2467.504
2467514.0,371.0,32.0,4.0,251.0,2467.514
2467524.0,350.0,32.0,4.0,241.0,2467.524
2467534.0,365.0,32.0,4.0,242.0,2467.534
2467544.0,351.0,32.0,5.0,237.0,2467.544
2467554.0,356.0,33.0,3.0,248.0,2467.554
2467564.0,368.0,32.0,4.0,251.0,2467.564
2467574.0,347.0,32.0,4.0,240.0,2467.574
2467584.0,362.0,32.0,4.0,242.0,2467.584
2467594.0,346.0,31.0,4.0,240.0,2467.594
2467604.0,350.0,31.0,3.0,250.0,2467.604
2467614.0,363.0,33.0,3.0,253.0,2467.614
2467624.0,341.0,32.0,3.0,242.0,2467.624
2467634.0,356.0,32.0,4.0,245.0,2467.634
2467644.0,342.0,32.0,4.0,242.0,2467.644
2467654.0,343.0,31.0,4.0,251.0,2467.654
2467664.0,358.0,32.0,4.0,249.0,2467.664
2467674.0,338.0,31.0,4.0,250.0,2467.674
2467684.0,352.0,33.0,3.0,251.0,2467.684
2467694.0,341.0,32.0,4.0,250.0,2467.694
2467704.0,340.0,32.0,4.0,259.0,2467.704
2467714.0,354.0,32.0,4.0,259.0,2467.714
2467724.0,333.0,31.0,4.0,255.0,2467.724
2467734.0,348.0,32.0,4.0,254.0,2467.734
2467744.0,338.0,32.0,3.0,254.0,2467.744
2467755.0,334.0,32.0,4.0,260.0,2467.755
2467765.0,349.0,32.0,4.0,258.0,2467.765
2467775.0,328.0,32.0,5.0,250.0,2467.775
2467785.0,339.0,31.0,4.0,253.0,2467.785
2467795.0,340.0,32.0,4.0,258.0,2467.795
2467805.0,328.0,31.0,4.0,253.0,2467.805
2467815.0,344.0,32.0,3.0,249.0,2467.815
2467825.0,322.0,32.0,4.0,245.0,2467.825
2467835.0,333.0,33.0,4.0,249.0,2467.835
2467845.0,332.0,32.0,4.0,256.0,2467.845
2467855.0,325.0,33.0,4.0,261.0,2467.855
2467865.0,340.0,32.0,4.0,261.0,2467.865
2467875.0,318.0,33.0,3.0,255.0,2467.875
2467885.0,332.0,32.0,4.0,256.0,2467.885
2467895.0,329.0,33.0,4.0,257.0,2467.895
2467905.0,321.0,32.0,5.0,256.0,2467.905
2467915.0,336.0,32.0,4.0,251.0,2467.915
2467926.0,316.0,32.0,4.0,244.0,2467.926
2467936.0,325.0,33.0,3.0,252.0,2467.936
2467946.0,332.0,33.0,4.0,257.0,2467.946
2467956.0,316.0,32.0,4.0,255.0,2467.956
2467966.0,330.0,33.0,4.0,252.0,2467.966
2467976.0,312.0,32.0,4.0,245.0,2467.976
2467986.0,320.0,33.0,3.0,251.0,2467.986
2467996.0,328.0,33.0,4.0,257.0,2467.996
2468006.0,310.0,33.0,3.0,254.0,2468.006
2468016.0,326.0,33.0,4.0,252.0,2468.016
2468026.0,308.0,32.0,4.0,245.0,2468.026
2468036.0,316.0,32.0,4.0,254.0,2468.036
2468046.0,326.0,33.0,4.0,260.0,2468.046
2468056.0,310.0,32.0,4.0,259.0,2468.056
2468066.0,324.0,33.0,3.0,256.0,2468.066
2468076.0,305.0,32.0,4.0,246.0,2468.076
2468086.0,313.0,32.0,4.0,254.0,2468.086
2468096.0,320.0,33.0,4.0,256.0,2468.096
2468106.0,305.0,32.0,4.0,255.0,2468.106
2468116.0,319.0,33.0,4.0,251.0,2468.116
2468126.0,301.0,33.0,4.0,245.0,2468.126
2468136.0,307.0,33.0,3.0,256.0,2468.136
2468146.0,316.0,33.0,4.0,257.0,2468.146
2468156.0,300.0,32.0,4.0,253.0,2468.156
2468166.0,316.0,33.0,4.0,251.0,2468.166
2468176.0,298.0,33.0,4.0,245.0,2468.176
2468186.0,308.0,32.0,5.0,248.0,2468.186
2468196.0,315.0,32.0,4.0,252.0,2468.196
2468206.0,299.0,32.0,4.0,250.0,2468.206
2468216.0,313.0,32.0,4.0,251.0,2468.216
2468226.0,296.0,32.0,3.0,244.0,2468.226
2468236.0,305.0,32.0,4.0,251.0,2468.236
2468246.0,314.0,33.0,4.0,254.0,2468.246
2468256.0,298.0,32.0,4.0,251.0,2468.256
2468267.0,310.0,33.0,3.0,249.0,2468.267
2468277.0,299.0,32.0,4.0,247.0,2468.277
2468287.0,302.0,32.0,4.0,256.0,2468.287
2468297.0,315.0,32.0,4.0,255.0,2468.297
2468307.0,294.0,32.0,4.0,249.0,2468.307
2468317.0,309.0,33.0,4.0,251.0,2468.317
2468327.0,298.0,33.0,3.0,249.0,2468.327
2468337.0,300.0,32.0,4.0,256.0,2468.337
2468347.0,312.0,32.0,4.0,256.0,2468.347
2468357.0,293.0,32.0,4.0,254.0,2468.357
2468367.0,304.0,33.0,3.0,254.0,2468.367
2468377.0,296.0,33.0,4.0,254.0,2468.377
2468387.0,295.0,33.0,3.0,259.0,2468.387
2468397.0,308.0,33.0,4.0,258.0,2468.397
2468407.0,289.0,32.0,4.0,251.0,2468.407
2468417.0,302.0,32.0,5.0,251.0,2468.417
2468427.0,296.0,31.0,4.0,252.0,2468.427
2468438.0,292.0,32.0,4.0,256.0,2468.438
2468448.0,305.0,33.0,4.0,253.0,2468.448
2468458.0,285.0,32.0,3.0,246.0,2468.458
2468468.0,294.0,32.0,4.0,244.0,2468.468
2468478.0,298.0,32.0,4.0,250.0,2468.478
2468488.0,288.0,32.0,4.0,251.0,2468.488
2468498.0,301.0,32.0,4.0,247.0,2468.498
2468508.0,281.0,32.0,4.0,239.0,2468.508
2468518.0,290.0,32.0,3.0,245.0,2468.518
2468528.0,290.0,32.0,4.0,247.0,2468.528
2468538.0,284.0,32.0,3.0,252.0,2468.538
2468548.0,296.0,33.0,2.0,248.0,2468.548
2468558.0,278.0,31.0,4.0,241.0,2468.558
2468568.0,289.0,32.0,5.0,244.0,2468.568
2468578.0,288.0,33.0,3.0,251.0,2468.578
2468588.0,280.0,32.0,4.0,252.0,2468.588
2468598.0,293.0,32.0,4.0,249.0,2468.598
2468608.0,274.0,32.0,3.0,243.0,2468.608
2468618.0,285.0,31.0,4.0,245.0,2468.618
2468628.0,286.0,33.0,4.0,250.0,2468.628
2468638.0,277.0,32.0,4.0,250.0,2468.638
2468648.0,290.0,33.0,3.0,247.0,2468.648
2468658.0,272.0,32.0,4.0,241.0,2468.658
2468668.0,281.0,32.0,4.0,244.0,2468.668
2468678.0,287.0,32.0,5.0,251.0,2468.678
2468688.0,274.0,32.0,4.0,249.0,2468.688
2468698.0,291.0,33.0,5.0,248.0,2468.698
2468708.0,271.0,32.0,4.0,241.0,2468.708
2468718.0,280.0,32.0,4.0,244.0,2468.718
2468728.0,285.0,32.0,4.0,251.0,2468.728
2468738.0,274.0,32.0,4.0,250.0,2468.738
2468748.0,288.0,33.0,4.0,248.0,2468.748
2468758.0,268.0,32.0,4.0,239.0,2468.758
2468768.0,276.0,33.0,3.0,244.0,2468.768
2468779.0,283.0,33.0,3.0,250.0,2468.779
2468789.0,269.0,32.0,3.0,245.0,2468.789
2468799.0,282.0,32.0,4.0,243.0,2468.799
2468809.0,268.0,33.0,3.0,239.0,2468.809
2468819.0,273.0,33.0,3.0,248.0,2468.819
2468829.0,284.0,32.0,5.0,250.0,2468.829
2468839.0,267.0,33.0,3.0,248.0,2468.839
2468849.0,280.0,32.0,4.0,246.0,2468.849
2468859.0,266.0,33.0,3.0,242.0,2468.859
2468869.0,272.0,32.0,4.0,248.0,2468.869
2468879.0,280.0,33.0,4.0,253.0,2468.879
2468889.0,264.0,32.0,4.0,245.0,2468.889
2468899.0,276.0,32.0,4.0,245.0,2468.899
2468909.0,261.0,32.0,4.0,238.0,2468.909
2468919.0,268.0,32.0,4.0,247.0,2468.919
2468929.0,278.0,33.0,5.0,251.0,2468.929
2468939.0,262.0,33.0,4.0,245.0,2468.939
2468950.0,273.0,32.0,4.0,245.0,2468.95
2468960.0,263.0,33.0,4.0,244.0,2468.96
2468970.0,266.0,33.0,3.0,250.0,2468.97
2468980.0,277.0,32.0,4.0,247.0,2468.98
2468990.0,257.0,32.0,4.0,239.0,2468.99
2469000.0,269.0,32.0,4.0,242.0,2469.0
2469010.0,261.0,33.0,2.0,242.0,2469.01
2469020.0,263.0,32.0,4.0,249.0,2469.02
2469030.0,274.0,34.0,3.0,248.0,2469.03
2469040.0,255.0,32.0,4.0,243.0,2469.04
2469050.0,266.0,33.0,4.0,244.0,2469.05
2469060.0,260.0,33.0,5.0,244.0,2469.06
2469070.0,260.0,33.0,4.0,250.0,2469.07
2469080.0,271.0,33.0,4.0,249.0,2469.08
2469090.0,254.0,33.0,4.0,243.0,2469.09
2469100.0,263.0,33.0,3.0,243.0,2469.1
2469110.0,260.0,32.0,4.0,245.0,2469.11
2469120.0,259.0,33.0,3.0,250.0,2469.12
2469130.0,271.0,33.0,4.0,251.0,2469.13
2469140.0,251.0,33.0,4.0,243.0,2469.14
2469150.0,260.0,33.0,4.0,245.0,2469.15
2469160.0,258.0,34.0,3.0,249.0,2469.16
2469170.0,256.0,33.0,4.0,249.0,2469.17
2469180.0,266.0,33.0,4.0,250.0,2469.18
2469190.0,248.0,33.0,5.0,245.0,2469.19
2469200.0,257.0,33.0,4.0,250.0,2469.2
2469210.0,251.0,33.0,4.0,247.0,2469.21
2469220.0,254.0,32.0,4.0,254.0,2469.22
2469230.0,264.0,33.0,4.0,252.0,2469.23
2469240.0,245.0,33.0,4.0,247.0,2469.24
2469250.0,256.0,33.0,3.0,251.0,2469.25
2469260.0,250.0,33.0,4.0,250.0,2469.26
2469270.0,250.0,33.0,4.0,255.0,2469.27
2469280.0,261.0,33.0,5.0,251.0,2469.28
2469291.0,243.0,33.0,3.0,241.0,2469.291
2469301.0,250.0,32.0,4.0,244.0,2469.301
2469311.0,254.0,34.0,3.0,251.0,2469.311
2469321.0,246.0,33.0,4.0,249.0,2469.321
2469331.0,256.0,33.0,4.0,245.0,2469.331
2469341.0,242.0,33.0,5.0,239.0,2469.341
2469351.0,247.0,34.0,3.0,243.0,2469.351
2469361.0,253.0,33.0,4.0,248.0,2469.361
2469371.0,243.0,33.0,4.0,246.0,2469.371
2469381.0,255.0,34.0,4.0,246.0,2469.381
2469391.0,238.0,34.0,4.0,238.0,2469.391
2469401.0,245.0,34.0,3.0,242.0,2469.401
2469411.0,253.0,33.0,4.0,250.0,2469.411
2469421.0,244.0,34.0,3.0,248.0,2469.421
2469431.0,254.0,34.0,4.0,246.0,2469.431
2469441.0,236.0,34.0,4.0,238.0,2469.441
2469451.0,244.0,33.0,4.0,244.0,2469.451
2469462.0,252.0,35.0,4.0,249.0,2469.462
2469472.0,238.0,33.0,4.0,247.0,2469.472
2469482.0,248.0,35.0,3.0,247.0,2469.482
2469492.0,235.0,32.0,4.0,241.0,2469.492
2469502.0,241.0,33.0,3.0,251.0,2469.502
2469512.0,250.0,34.0,4.0,252.0,2469.512
2469522.0,236.0,33.0,4.0,248.0,2469.522
2469532.0,245.0,33.0,4.0,247.0,2469.532
2469542.0,234.0,33.0,4.0,244.0,2469.542
2469552.0,239.0,33.0,4.0,249.0,2469.552
2469562.0,248.0,33.0,4.0,254.0,2469.562
2469572.0,234.0,33.0,5.0,247.0,2469.572
2469582.0,243.0,33.0,4.0,247.0,2469.582
2469592.0,230.0,33.0,4.0,241.0,2469.592
2469602.0,237.0,33.0,4.0,250.0,2469.602
2469612.0,246.0,34.0,3.0,251.0,2469.612
2469622.0,232.0,33.0,4.0,242.0,2469.622
2469632.0,244.0,34.0,3.0,244.0,2469.632
2469642.0,230.0,33.0,4.0,235.0,2469.642
2469652.0,237.0,33.0,2.0,246.0,2469.652
2469662.0,247.0,33.0,4.0,249.0,2469.662
2469672.0,232.0,33.0,3.0,243.0,2469.672
2469682.0,243.0,33.0,4.0,244.0,2469.682
2469692.0,229.0,33.0,4.0,237.0,2469.692
2469702.0,237.0,33.0,5.0,247.0,2469.702
2469712.0,246.0,33.0,4.0,248.0,2469.712
2469722.0,232.0,33.0,4.0,245.0,2469.722
2469732.0,243.0,33.0,4.0,245.0,2469.732
2469742.0,230.0,33.0,3.0,240.0,2469.742
2469752.0,237.0,32.0,4.0,249.0,2469.752
2469762.0,244.0,34.0,3.0,251.0,2469.762
2469772.0,232.0,33.0,5.0,247.0,2469.772
2469782.0,241.0,33.0,4.0,246.0,2469.782
2469792.0,230.0,32.0,4.0,241.0,2469.792
2469803.0,235.0,34.0,3.0,250.0,2469.803
2469813.0,246.0,32.0,4.0,250.0,2469.813
2469823.0,228.0,32.0,4.0,242.0,2469.823
2469833.0,237.0,33.0,5.0,244.0,2469.833
2469843.0,236.0,33.0,3.0,248.0,2469.843
2469853.0,236.0,33.0,5.0,251.0,2469.853
2469863.0,245.0,34.0,3.0,252.0,2469.863
2469873.0,227.0,32.0,4.0,242.0,2469.873
2469883.0,234.0,32.0,4.0,245.0,2469.883
2469893.0,230.0,33.0,3.0,246.0,2469.893
2469903.0,234.0,33.0,3.0,252.0,2469.903
2469913.0,243.0,33.0,4.0,250.0,2469.913
2469923.0,226.0,32.0,4.0,242.0,2469.923
2469933.0,235.0,33.0,3.0,244.0,2469.933
2469943.0,231.0,32.0,4.0,243.0,2469.943
2469953.0,232.0,33.0,3.0,248.0,2469.953
2469963.0,243.0,33.0,4.0,248.0,2469.963
2469974.0,224.0,33.0,4.0,240.0,2469.974
2469984.0,230.0,33.0,3.0,243.0,2469.984
2469994.0,236.0,33.0,3.0,251.0,2469.994
2470004.0,228.0,32.0,4.0,248.0,2470.004
2470014.0,237.0,33.0,4.0,247.0,2470.014
2470024.0,223.0,32.0,4.0,240.0,2470.024
2470034.0,228.0,32.0,4.0,243.0,2470.034
2470044.0,235.0,32.0,4.0,252.0,2470.044
2470054.0,226.0,33.0,4.0,249.0,2470.054
2470064.0,237.0,32.0,4.0,248.0,2470.064
2470074.0,221.0,32.0,3.0,240.0,2470.074
2470084.0,227.0,33.0,4.0,245.0,2470.084
2470094.0,235.0,33.0,4.0,251.0,2470.094
2470104.0,227.0,32.0,4.0,248.0,2470.104
2470114.0,236.0,33.0,4.0,247.0,2470.114
2470124.0,221.0,33.0,3.0,238.0,2470.124
2470134.0,227.0,32.0,4.0,244.0,2470.134
2470144.0,231.0,33.0,3.0,249.0,2470.144
2470154.0,227.0,32.0,4.0,248.0,2470.154
2470164.0,234.0,33.0,3.0,246.0,2470.164
2470174.0,220.0,32.0,4.0,236.0,2470.174
2470184.0,226.0,34.0,3.0,245.0,2470.184
2470194.0,232.0,32.0,4.0,248.0,2470.194
2470204.0,225.0,33.0,3.0,247.0,2470.204
2470214.0,234.0,32.0,5.0,247.0,2470.214
2470224.0,219.0,32.0,3.0,237.0,2470.224
2470234.0,225.0,33.0,4.0,243.0,2470.234
2470244.0,232.0,32.0,4.0,249.0,2470.244
2470254.0,224.0,33.0,3.0,247.0,2470.254
2470264.0,231.0,32.0,4.0,244.0,2470.264
2470274.0,218.0,32.0,3.0,236.0,2470.274
2470284.0,225.0,33.0,4.0,240.0,2470.284
2470294.0,231.0,33.0,4.0,248.0,2470.294
2470304.0,223.0,32.0,4.0,245.0,2470.304
2470315.0,230.0,34.0,3.0,246.0,2470.315
2470325.0,218.0,32.0,4.0,238.0,2470.325
2470335.0,226.0,32.0,4.0,247.0,2470.335
2470345.0,235.0,33.0,5.0,250.0,2470.345
2470355.0,221.0,33.0,2.0,241.0,2470.355
2470365.0,230.0,33.0,4.0,243.0,2470.365
2470375.0,219.0,33.0,4.0,238.0,2470.375
2470385.0,226.0,33.0,3.0,247.0,2470.385
2470395.0,235.0,32.0,4.0,249.0,2470.395
2470405.0,223.0,32.0,4.0,244.0,2470.405
2470415.0,230.0,33.0,3.0,244.0,2470.415
2470425.0,219.0,33.0,4.0,239.0,2470.425
2470435.0,227.0,32.0,4.0,250.0,2470.435
2470445.0,234.0,33.0,4.0,251.0,2470.445
2470455.0,222.0,32.0,4.0,245.0,2470.455
2470465.0,229.0,32.0,4.0,245.0,2470.465
2470475.0,221.0,33.0,4.0,242.0,2470.475
2470486.0,226.0,33.0,4.0,249.0,2470.486
2470496.0,235.0,33.0,4.0,249.0,2470.496
2470506.0,221.0,33.0,4.0,243.0,2470.506
2470516.0,226.0,33.0,4.0,244.0,2470.516
2470526.0,229.0,32.0,4.0,250.0,2470.526
2470536.0,227.0,32.0,4.0,250.0,2470.536
2470546.0,235.0,33.0,4.0,250.0,2470.546
2470556.0,218.0,33.0,3.0,241.0,2470.556
2470566.0,225.0,33.0,3.0,245.0,2470.566
2470576.0,223.0,32.0,4.0,244.0,2470.576
2470586.0,227.0,32.0,4.0,250.0,2470.586
2470596.0,234.0,33.0,5.0,248.0,2470.596
2470606.0,220.0,32.0,4.0,238.0,2470.606
2470616.0,227.0,33.0,4.0,242.0,2470.616
2470626.0,224.0,33.0,4.0,244.0,2470.626
2470636.0,225.0,33.0,3.0,248.0,2470.636
2470646.0,232.0,33.0,4.0,246.0,2470.646
2470656.0,219.0,34.0,3.0,241.0,2470.656
2470666.0,225.0,33.0,5.0,243.0,2470.666
2470676.0,224.0,33.0,4.0,246.0,2470.676
2470686.0,225.0,33.0,4.0,248.0,2470.686
2470696.0,232.0,33.0,4.0,247.0,2470.696
2470706.0,219.0,32.0,4.0,239.0,2470.706
2470716.0,225.0,32.0,3.0,242.0,2470.716
2470726.0,225.0,32.0,4.0,246.0,2470.726
2470736.0,225.0,32.0,4.0,247.0,2470.736
2470746.0,233.0,33.0,4.0,248.0,2470.746
2470756.0,218.0,32.0,4.0,239.0,2470.756
2470766.0,223.0,34.0,3.0,242.0,2470.766
2470776.0,226.0,32.0,4.0,246.0,2470.776
2470786.0,224.0,33.0,3.0,250.0,2470.786
2470796.0,233.0,33.0,4.0,251.0,2470.796
2470806.0,217.0,32.0,4.0,241.0,2470.806
2470816.0,222.0,33.0,3.0,244.0,2470.816
2470827.0,225.0,33.0,3.0,249.0,2470.827
2470837.0,221.0,32.0,3.0,246.0,2470.837
2470847.0,228.0,33.0,3.0,244.0,2470.847
2470857.0,215.0,32.0,5.0,235.0,2470.857
2470867.0,221.0,33.0,3.0,243.0,2470.867
2470877.0,227.0,33.0,4.0,247.0,2470.877
2470887.0,221.0,32.0,4.0,245.0,2470.887
2470897.0,227.0,33.0,3.0,242.0,2470.897
2470907.0,213.0,32.0,4.0,233.0,2470.907
2470917.0,219.0,33.0,3.0,240.0,2470.917
2470927.0,227.0,33.0,4.0,245.0,2470.927
2470937.0,220.0,32.0,4.0,243.0,2470.937
2470947.0,226.0,33.0,4.0,241.0,2470.947
2470957.0,214.0,33.0,3.0,235.0,2470.957
2470967.0,219.0,32.0,4.0,240.0,2470.967
2470977.0,226.0,33.0,3.0,247.0,2470.977
2470987.0,219.0,32.0,5.0,243.0,2470.987
2470998.0,225.0,32.0,3.0,241.0,2470.998
2471008.0,214.0,32.0,4.0,233.0,2471.008
2471018.0,222.0,33.0,3.0,245.0,2471.018
2471028.0,229.0,32.0,4.0,245.0,2471.028
2471038.0,216.0,32.0,4.0,238.0,2471.038
2471048.0,224.0,33.0,5.0,240.0,2471.048
2471058.0,214.0,31.0,4.0,235.0,2471.058
2471068.0,221.0,32.0,4.0,245.0,2471.068
2471078.0,229.0,33.0,4.0,246.0,2471.078
2471088.0,218.0,32.0,3.0,241.0,2471.088
2471098.0,223.0,32.0,4.0,240.0,2471.098
2471108.0,215.0,32.0,4.0,237.0,2471.108
2471118.0,221.0,32.0,5.0,246.0,2471.118
2471128.0,227.0,33.0,4.0,247.0,2471.128
2471138.0,216.0,32.0,4.0,243.0,2471.138
2471148.0,223.0,33.0,3.0,243.0,2471.148
2471158.0,215.0,32.0,3.0,240.0,2471.158
2471168.0,219.0,33.0,3.0,245.0,2471.168
2471178.0,228.0,33.0,4.0,248.0,2471.178
2471188.0,215.0,32.0,4.0,240.0,2471.188
2471198.0,221.0,32.0,4.0,241.0,2471.198
2471208.0,216.0,32.0,4.0,240.0,2471.208
2471218.0,219.0,32.0,3.0,244.0,2471.218
2471228.0,228.0,32.0,3.0,247.0,2471.228
2471238.0,215.0,32.0,4.0,239.0,2471.238
2471248.0,222.0,32.0,4.0,239.0,2471.248
2471258.0,211.0,32.0,4.0,234.0,2471.258
2471268.0,219.0,32.0,4.0,243.0,2471.268
2471278.0,227.0,33.0,3.0,245.0,2471.278
2471288.0,214.0,32.0,3.0,236.0,2471.288
2471298.0,223.0,33.0,3.0,239.0,2471.298
2471308.0,213.0,32.0,5.0,233.0,2471.308
2471318.0,220.0,33.0,2.0,243.0,2471.318
2471328.0,227.0,33.0,4.0,244.0,2471.328
2471339.0,214.0,33.0,3.0,237.0,2471.339
2471349.0,219.0,32.0,4.0,238.0,2471.349
2471359.0,219.0,32.0,4.0,241.0,2471.359
2471369.0,219.0,33.0,4.0,243.0,2471.369
2471379.0,225.0,33.0,4.0,242.0,2471.379
2471389.0,213.0,32.0,4.0,236.0,2471.389
2471399.0,219.0,33.0,4.0,237.0,2471.399
2471409.0,220.0,33.0,3.0,240.0,2471.409
2471419.0,218.0,32.0,4.0,242.0,2471.419
2471429.0,227.0,33.0,4.0,243.0,2471.429
2471439.0,214.0,31.0,4.0,235.0,2471.439
2471449.0,218.0,33.0,4.0,237.0,2471.449
2471459.0,221.0,33.0,4.0,243.0,2471.459
2471469.0,219.0,33.0,4.0,244.0,2471.469
2471479.0,226.0,32.0,3.0,243.0,2471.479
2471489.0,212.0,32.0,4.0,236.0,2471.489
2471499.0,218.0,33.0,4.0,238.0,2471.499
2471510.0,221.0,33.0,4.0,243.0,2471.51
2471520.0,216.0,33.0,3.0,241.0,2471.52
2471530.0,223.0,33.0,4.0,241.0,2471.53
2471540.0,210.0,32.0,4.0,230.0,2471.54
2471550.0,216.0,32.0,4.0,240.0,2471.55
2471560.0,222.0,33.0,3.0,243.0,2471.56
2471570.0,216.0,33.0,4.0,239.0,2471.57
2471580.0,221.0,33.0,3.0,238.0,2471.58
2471590.0,210.0,33.0,4.0,231.0,2471.59
2471600.0,215.0,33.0,4.0,237.0,2471.6
2471610.0,223.0,32.0,4.0,244.0,2471.61
2471620.0,215.0,32.0,4.0,241.0,2471.62
2471630.0,222.0,32.0,5.0,238.0,2471.63
2471640.0,211.0,32.0,4.0,231.0,2471.64
2471650.0,216.0,33.0,3.0,237.0,2471.65
2471660.0,224.0,34.0,4.0,243.0,2471.66
2471670.0,215.0,33.0,3.0,238.0,2471.67
2471680.0,224.0,34.0,4.0,240.0,2471.68
2471690.0,211.0,33.0,5.0,230.0,2471.69
2471700.0,216.0,33.0,3.0,237.0,2471.7
2471710.0,224.0,33.0,4.0,242.0,2471.71
2471720.0,215.0,32.0,4.0,237.0,2471.72
2471730.0,223.0,33.0,4.0,237.0,2471.73
2471740.0,211.0,32.0,4.0,229.0,2471.74
2471750.0,217.0,33.0,4.0,237.0,2471.75
2471760.0,226.0,33.0,5.0,242.0,2471.76
2471770.0,216.0,33.0,3.0,240.0,2471.77
2471780.0,222.0,33.0,4.0,237.0,2471.78
2471790.0,209.0,33.0,3.0,230.0,2471.79
2471800.0,216.0,33.0,4.0,238.0,2471.8
2471810.0,221.0,33.0,5.0,242.0,2471.81
2471820.0,216.0,32.0,5.0,240.0,2471.82
2471830.0,220.0,33.0,3.0,238.0,2471.83
2471840.0,209.0,32.0,4.0,229.0,2471.84
2471851.0,216.0,33.0,3.0,241.0,2471.851
2471861.0,223.0,32.0,4.0,244.0,2471.861
2471871.0,212.0,32.0,3.0,238.0,2471.871
2471881.0,217.0,32.0,4.0,238.0,2471.881
2471891.0,213.0,33.0,4.0,237.0,2471.891
2471901.0,215.0,33.0,4.0,240.0,2471.901
2471911.0,222.0,33.0,4.0,243.0,2471.911
2471921.0,211.0,33.0,3.0,235.0,2471.921
2471931.0,216.0,33.0,4.0,236.0,2471.931
2471941.0,208.0,33.0,4.0,231.0,2471.941
2471951.0,216.0,32.0,5.0,240.0,2471.951
2471961.0,222.0,33.0,4.0,243.0,2471.961
2471971.0,210.0,32.0,4.0,234.0,2471.971
2471981.0,217.0,33.0,3.0,236.0,2471.981
2471991.0,209.0,32.0,4.0,231.0,2471.991
2472001.0,216.0,32.0,3.0,240.0,2472.001
2472011.0,223.0,33.0,4.0,240.0,2472.011
2472022.0,210.0,31.0,4.0,232.0,2472.022
2472032.0,215.0,33.0,3.0,233.0,2472.032
2472042.0,215.0,33.0,4.0,238.0,2472.042
2472052.0,215.0,33.0,4.0,239.0,2472.052
2472062.0,221.0,32.0,4.0,236.0,2472.062
2472072.0,210.0,32.0,3.0,232.0,2472.072
2472082.0,215.0,31.0,4.0,234.0,2472.082
2472092.0,216.0,33.0,3.0,239.0,2472.092
2472102.0,215.0,32.0,4.0,241.0,2472.102
2472112.0,223.0,33.0,3.0,242.0,2472.112
2472122.0,210.0,32.0,4.0,233.0,2472.122
2472132.0,213.0,33.0,4.0,235.0,2472.132
2472142.0,219.0,33.0,5.0,240.0,2472.142
2472152.0,216.0,33.0,4.0,241.0,2472.152
2472162.0,223.0,34.0,3.0,240.0,2472.162
2472172.0,208.0,33.0,4.0,232.0,2472.172
2472182.0,213.0,32.0,4.0,234.0,2472.182
2472192.0,213.0,33.0,4.0,237.0,2472.192
2472202.0,215.0,33.0,4.0,240.0,2472.202
2472212.0,222.0,32.0,4.0,238.0,2472.212
2472222.0,208.0,32.0,4.0,231.0,2472.222
2472232.0,213.0,32.0,4.0,235.0,2472.232
2472242.0,214.0,32.0,4.0,238.0,2472.242
2472252.0,215.0,32.0,4.0,240.0,2472.252
2472262.0,220.0,32.0,4.0,238.0,2472.262
2472272.0,208.0,33.0,4.0,231.0,2472.272
2472282.0,214.0,32.0,4.0,234.0,2472.282
2472292.0,216.0,32.0,4.0,237.0,2472.292
2472302.0,215.0,33.0,4.0,241.0,2472.302
2472312.0,220.0,32.0,3.0,238.0,2472.312
2472322.0,209.0,32.0,4.0,234.0,2472.322
2472332.0,213.0,32.0,5.0,235.0,2472.332
2472342.0,217.0,32.0,4.0,239.0,2472.342
2472352.0,214.0,32.0,3.0,240.0,2472.352
2472363.0,219.0,33.0,4.0,239.0,2472.363
2472373.0,207.0,32.0,3.0,229.0,2472.373
2472383.0,213.0,32.0,4.0,238.0,2472.383
2472393.0,221.0,33.0,4.0,242.0,2472.393
2472403.0,212.0,33.0,4.0,236.0,2472.403
2472413.0,219.0,32.0,4.0,237.0,2472.413
2472423.0,207.0,32.0,4.0,230.0,2472.423
2472433.0,213.0,33.0,3.0,238.0,2472.433
2472443.0,221.0,32.0,3.0,240.0,2472.443
2472453.0,214.0,33.0,3.0,239.0,2472.453
2472463.0,219.0,33.0,5.0,235.0,2472.463
2472473.0,207.0,32.0,4.0,228.0,2472.473
2472483.0,214.0,32.0,4.0,237.0,2472.483
2472493.0,220.0,33.0,4.0,240.0,2472.493
2472503.0,213.0,32.0,4.0,236.0,2472.503
2472513.0,218.0,33.0,4.0,235.0,2472.513
2472523.0,207.0,32.0,5.0,228.0,2472.523
2472534.0,215.0,31.0,4.0,238.0,2472.534
2472544.0,222.0,33.0,4.0,240.0,2472.544
2472554.0,211.0,32.0,4.0,234.0,2472.554
2472564.0,215.0,33.0,3.0,234.0,2472.564
2472574.0,213.0,32.0,4.0,234.0,2472.574
2472584.0,215.0,33.0,3.0,238.0,2472.584
2472594.0,222.0,33.0,4.0,240.0,2472.594
2472604.0,209.0,32.0,4.0,234.0,2472.604
2472614.0,214.0,32.0,4.0,235.0,2472.614
2472624.0,207.0,32.0,4.0,232.0,2472.624
2472634.0,214.0,32.0,3.0,240.0,2472.634
2472644.0,221.0,33.0,3.0,241.0,2472.644
2472654.0,210.0,32.0,5.0,233.0,2472.654
2472664.0,215.0,32.0,3.0,236.0,2472.664
2472674.0,208.0,33.0,3.0,232.0,2472.674
2472684.0,214.0,32.0,3.0,241.0,2472.684
2472694.0,220.0,33.0,4.0,240.0,2472.694
2472704.0,210.0,32.0,4.0,236.0,2472.704
2472714.0,215.0,33.0,4.0,235.0,2472.714
2472724.0,210.0,33.0,4.0,233.0,2472.724
2472734.0,215.0,33.0,4.0,241.0,2472.734
2472744.0,222.0,33.0,4.0,241.0,2472.744
2472754.0,211.0,33.0,3.0,236.0,2472.754
2472764.0,216.0,33.0,4.0,236.0,2472.764
2472774.0,212.0,33.0,3.0,235.0,2472.774
2472784.0,217.0,32.0,5.0,241.0,2472.784
2472794.0,222.0,32.0,4.0,242.0,2472.794
2472804.0,210.0,32.0,4.0,235.0,2472.804
2472814.0,215.0,33.0,3.0,236.0,2472.814
2472824.0,213.0,32.0,4.0,236.0,2472.824
2472834.0,215.0,32.0,4.0,240.0,2472.834
2472844.0,222.0,33.0,4.0,241.0,2472.844
2472854.0,210.0,33.0,4.0,235.0,2472.854
2472864.0,214.0,33.0,3.0,235.0,2472.864
2472875.0,213.0,32.0,4.0,238.0,2472.875
2472885.0,215.0,32.0,4.0,242.0,2472.885
2472895.0,220.0,32.0,3.0,239.0,2472.895
2472905.0,206.0,33.0,4.0,231.0,2472.905
2472915.0,212.0,32.0,5.0,235.0,2472.915
2472925.0,214.0,33.0,4.0,238.0,2472.925
2472935.0,215.0,32.0,4.0,240.0,2472.935
2472945.0,219.0,34.0,3.0,238.0,2472.945
2472955.0,207.0,32.0,4.0,230.0,2472.955
2472965.0,212.0,32.0,3.0,234.0,2472.965
2472975.0,215.0,32.0,5.0,238.0,2472.975
2472985.0,214.0,31.0,4.0,239.0,2472.985
2472995.0,218.0,32.0,4.0,236.0,2472.995
2473005.0,208.0,32.0,4.0,231.0,2473.005
2473015.0,211.0,32.0,3.0,234.0,2473.015
2473025.0,216.0,33.0,4.0,239.0,2473.025
2473035.0,213.0,33.0,4.0,239.0,2473.035
2473046.0,217.0,33.0,4.0,236.0,2473.046
2473056.0,206.0,32.0,4.0,228.0,2473.056
