time (ms),signal 0,signal 1,signal 2,signal 3,time (sec)
2483100.0,207.0,33.0,5.0,230.0,2483.1
2483110.0,213.0,33.0,3.0,236.0,2483.11
2483120.0,216.0,34.0,4.0,236.0,2483.12
2483130.0,208.0,33.0,4.0,228.0,2483.13
2483140.0,211.0,33.0,5.0,230.0,2483.14
2483150.0,206.0,33.0,4.0,228.0,2483.15
2483160.0,210.0,33.0,4.0,233.0,2483.16
2483170.0,215.0,34.0,4.0,237.0,2483.17
2483180.0,207.0,32.0,4.0,228.0,2483.18
2483190.0,209.0,33.0,4.0,229.0,2483.19
2483200.0,203.0,33.0,3.0,224.0,2483.2
2483210.0,211.0,33.0,4.0,234.0,2483.21
2483220.0,215.0,33.0,3.0,236.0,2483.22
2483230.0,208.0,33.0,3.0,230.0,2483.23
2483240.0,210.0,33.0,3.0,232.0,2483.24
2483250.0,205.0,32.0,4.0,227.0,2483.25
2483260.0,213.0,33.0,4.0,237.0,2483.26
2483270.0,217.0,33.0,4.0,239.0,2483.27
2483280.0,207.0,33.0,4.0,231.0,2483.28
2483290.0,212.0,33.0,5.0,234.0,2483.29
2483300.0,206.0,32.0,3.0,230.0,2483.3
2483310.0,213.0,32.0,3.0,238.0,2483.31
2483320.0,217.0,32.0,4.0,240.0,2483.32
2483330.0,211.0,32.0,3.0,233.0,2483.33
2483340.0,212.0,32.0,4.0,234.0,2483.34
2483350.0,207.0,32.0,3.0,232.0,2483.35
2483360.0,214.0,32.0,4.0,240.0,2483.36
2483371.0,217.0,33.0,3.0,240.0,2483.371
2483381.0,208.0,32.0,4.0,230.0,2483.381
2483391.0,212.0,32.0,4.0,233.0,2483.391
2483401.0,215.0,33.0,4.0,239.0,2483.401
2483411.0,214.0,32.0,4.0,238.0,2483.411
2483421.0,219.0,33.0,4.0,239.0,2483.421
2483431.0,208.0,33.0,3.0,231.0,2483.431
2483441.0,211.0,32.0,4.0,233.0,2483.441
2483451.0,216.0,31.0,4.0,240.0,2483.451
2483461.0,216.0,32.0,3.0,240.0,2483.461
2483471.0,219.0,32.0,4.0,239.0,2483.471
2483481.0,209.0,32.0,4.0,232.0,2483.481
2483491.0,212.0,32.0,4.0,237.0,2483.491
2483501.0,213.0,32.0,4.0,237.0,2483.501
2483511.0,217.0,32.0,3.0,242.0,2483.511
2483521.0,219.0,32.0,5.0,240.0,2483.521
2483531.0,209.0,31.0,4.0,231.0,2483.531
2483542.0,212.0,32.0,3.0,236.0,2483.542
2483552.0,219.0,32.0,4.0,244.0,2483.552
2483562.0,215.0,32.0,3.0,239.0,2483.562
2483572.0,216.0,32.0,3.0,239.0,2483.572
2483582.0,207.0,32.0,4.0,231.0,2483.582
2483592.0,214.0,31.0,3.0,238.0,2483.592
2483602.0,220.0,32.0,4.0,244.0,2483.602
2483612.0,216.0,31.0,4.0,238.0,2483.612
2483622.0,217.0,33.0,3.0,238.0,2483.622
2483632.0,209.0,32.0,3.0,230.0,2483.632
2483642.0,214.0,32.0,4.0,238.0,2483.642
2483652.0,221.0,32.0,5.0,243.0,2483.652
2483662.0,215.0,31.0,2.0,238.0,2483.662
2483672.0,218.0,32.0,5.0,239.0,2483.672
2483682.0,209.0,33.0,3.0,231.0,2483.682
2483692.0,215.0,32.0,4.0,238.0,2483.692
2483702.0,220.0,32.0,4.0,244.0,2483.702
2483712.0,217.0,32.0,3.0,240.0,2483.712
2483722.0,218.0,31.0,4.0,239.0,2483.722
2483732.0,208.0,32.0,3.0,229.0,2483.732
2483742.0,215.0,32.0,4.0,239.0,2483.742
2483752.0,221.0,33.0,3.0,245.0,2483.752
2483762.0,217.0,31.0,4.0,241.0,2483.762
2483772.0,217.0,32.0,4.0,240.0,2483.772
2483782.0,210.0,31.0,5.0,231.0,2483.782
2483792.0,216.0,32.0,4.0,240.0,2483.792
2483802.0,222.0,32.0,5.0,244.0,2483.802
2483812.0,217.0,32.0,3.0,241.0,2483.812
2483822.0,217.0,32.0,4.0,239.0,2483.822
2483832.0,209.0,32.0,4.0,231.0,2483.832
2483842.0,214.0,32.0,4.0,238.0,2483.842
2483852.0,221.0,31.0,4.0,243.0,2483.852
2483862.0,216.0,32.0,3.0,238.0,2483.862
2483872.0,217.0,32.0,3.0,238.0,2483.872
2483883.0,209.0,32.0,4.0,232.0,2483.883
2483893.0,219.0,31.0,4.0,243.0,2483.893
2483903.0,221.0,32.0,4.0,244.0,2483.903
2483913.0,213.0,31.0,4.0,234.0,2483.913
2483923.0,215.0,32.0,4.0,236.0,2483.923
2483933.0,212.0,31.0,4.0,232.0,2483.933
2483943.0,219.0,33.0,3.0,242.0,2483.943
2483953.0,222.0,32.0,4.0,243.0,2483.953
2483963.0,214.0,31.0,4.0,234.0,2483.963
2483973.0,217.0,32.0,4.0,238.0,2483.973
2483983.0,210.0,31.0,2.0,234.0,2483.983
2483993.0,219.0,32.0,4.0,243.0,2483.993
2484003.0,222.0,33.0,3.0,246.0,2484.003
2484013.0,215.0,32.0,4.0,238.0,2484.013
2484023.0,216.0,32.0,4.0,240.0,2484.023
2484033.0,213.0,32.0,4.0,238.0,2484.033
2484043.0,219.0,31.0,4.0,244.0,2484.043
2484054.0,220.0,32.0,4.0,244.0,2484.054
2484064.0,211.0,32.0,3.0,235.0,2484.064
2484074.0,213.0,32.0,3.0,238.0,2484.074
2484084.0,217.0,32.0,4.0,243.0,2484.084
2484094.0,217.0,32.0,4.0,242.0,2484.094
2484104.0,221.0,32.0,4.0,243.0,2484.104
2484114.0,210.0,32.0,3.0,234.0,2484.114
2484124.0,213.0,32.0,4.0,237.0,2484.124
2484134.0,219.0,33.0,3.0,245.0,2484.134
2484144.0,217.0,32.0,4.0,244.0,2484.144
2484154.0,219.0,33.0,4.0,242.0,2484.154
2484164.0,212.0,32.0,5.0,233.0,2484.164
2484174.0,214.0,31.0,4.0,239.0,2484.174
2484184.0,214.0,32.0,5.0,243.0,2484.184
2484194.0,218.0,32.0,3.0,247.0,2484.194
2484204.0,217.0,32.0,4.0,241.0,2484.204
2484214.0,208.0,32.0,4.0,231.0,2484.214
2484224.0,214.0,33.0,3.0,238.0,2484.224
2484234.0,217.0,32.0,4.0,241.0,2484.234
2484244.0,219.0,32.0,4.0,243.0,2484.244
2484254.0,220.0,33.0,4.0,242.0,2484.254
2484264.0,211.0,33.0,3.0,233.0,2484.264
2484274.0,215.0,33.0,4.0,238.0,2484.274
2484284.0,218.0,33.0,3.0,243.0,2484.284
2484294.0,220.0,32.0,4.0,243.0,2484.294
2484304.0,220.0,33.0,4.0,241.0,2484.304
2484314.0,215.0,32.0,5.0,234.0,2484.314
2484324.0,218.0,33.0,3.0,238.0,2484.324
2484334.0,221.0,32.0,4.0,243.0,2484.334
2484344.0,221.0,32.0,4.0,241.0,2484.344
2484354.0,223.0,33.0,3.0,242.0,2484.354
2484364.0,214.0,31.0,4.0,234.0,2484.364
2484374.0,218.0,33.0,3.0,237.0,2484.374
2484384.0,221.0,33.0,3.0,244.0,2484.384
2484395.0,219.0,33.0,3.0,242.0,2484.395
2484405.0,221.0,32.0,3.0,242.0,2484.405
2484415.0,209.0,32.0,4.0,232.0,2484.415
2484425.0,215.0,31.0,5.0,242.0,2484.425
2484435.0,220.0,32.0,4.0,250.0,2484.435
2484445.0,215.0,32.0,4.0,245.0,2484.445
2484455.0,215.0,33.0,3.0,244.0,2484.455
2484465.0,208.0,32.0,4.0,235.0,2484.465
2484475.0,216.0,32.0,4.0,245.0,2484.475
2484485.0,218.0,32.0,3.0,254.0,2484.485
2484495.0,218.0,32.0,4.0,250.0,2484.495
2484505.0,214.0,32.0,4.0,244.0,2484.505
2484515.0,207.0,33.0,3.0,239.0,2484.515
2484525.0,218.0,33.0,3.0,246.0,2484.525
2484535.0,225.0,33.0,4.0,252.0,2484.535
2484545.0,220.0,33.0,4.0,245.0,2484.545
2484555.0,219.0,33.0,4.0,247.0,2484.555
2484566.0,215.0,33.0,4.0,243.0,2484.566
2484576.0,225.0,33.0,4.0,249.0,2484.576
2484586.0,222.0,33.0,3.0,245.0,2484.586
2484596.0,217.0,32.0,4.0,235.0,2484.596
2484606.0,224.0,33.0,4.0,229.0,2484.606
2484616.0,220.0,32.0,4.0,228.0,2484.616
2484626.0,222.0,33.0,4.0,231.0,2484.626
2484636.0,220.0,33.0,4.0,227.0,2484.636
2484646.0,215.0,33.0,3.0,221.0,2484.646
2484656.0,227.0,33.0,3.0,233.0,2484.656
2484666.0,228.0,33.0,4.0,230.0,2484.666
2484676.0,232.0,33.0,5.0,235.0,2484.676
2484686.0,227.0,34.0,4.0,228.0,2484.686
2484696.0,219.0,33.0,5.0,218.0,2484.696
2484706.0,213.0,34.0,3.0,225.0,2484.706
2484716.0,220.0,34.0,3.0,233.0,2484.716
2484726.0,227.0,32.0,4.0,244.0,2484.726
2484736.0,229.0,34.0,3.0,272.0,2484.736
2484746.0,225.0,33.0,4.0,258.0,2484.746
2484756.0,223.0,34.0,2.0,260.0,2484.756
2484766.0,237.0,33.0,4.0,257.0,2484.766
2484776.0,243.0,34.0,3.0,256.0,2484.776
2484786.0,248.0,33.0,4.0,261.0,2484.786
2484796.0,233.0,33.0,3.0,264.0,2484.796
2484806.0,233.0,33.0,5.0,272.0,2484.806
2484816.0,240.0,33.0,4.0,276.0,2484.816
2484826.0,241.0,33.0,5.0,278.0,2484.826
2484836.0,243.0,34.0,3.0,279.0,2484.836
2484846.0,233.0,32.0,4.0,288.0,2484.846
2484856.0,242.0,33.0,3.0,296.0,2484.856
2484866.0,241.0,32.0,3.0,288.0,2484.866
2484876.0,251.0,33.0,4.0,301.0,2484.876
2484886.0,254.0,33.0,4.0,296.0,2484.886
2484896.0,242.0,33.0,4.0,293.0,2484.896
2484907.0,244.0,34.0,3.0,302.0,2484.907
2484917.0,244.0,32.0,4.0,295.0,2484.917
2484927.0,244.0,33.0,4.0,295.0,2484.927
2484937.0,243.0,33.0,4.0,302.0,2484.937
2484947.0,242.0,33.0,4.0,305.0,2484.947
2484957.0,244.0,33.0,5.0,306.0,2484.957
2484967.0,249.0,33.0,4.0,309.0,2484.967
2484977.0,249.0,32.0,4.0,304.0,2484.977
2484987.0,242.0,32.0,4.0,306.0,2484.987
2484997.0,236.0,32.0,4.0,298.0,2484.997
2485007.0,234.0,33.0,4.0,290.0,2485.007
2485017.0,235.0,32.0,4.0,281.0,2485.017
2485027.0,232.0,33.0,4.0,276.0,2485.027
2485037.0,228.0,33.0,4.0,284.0,2485.037
2485047.0,218.0,32.0,3.0,273.0,2485.047
2485057.0,219.0,33.0,4.0,275.0,2485.057
2485067.0,225.0,33.0,4.0,286.0,2485.067
2485078.0,224.0,33.0,3.0,275.0,2485.078
2485088.0,215.0,32.0,4.0,261.0,2485.088
2485098.0,205.0,33.0,3.0,256.0,2485.098
2485108.0,214.0,32.0,4.0,267.0,2485.108
2485118.0,224.0,32.0,4.0,260.0,2485.118
2485128.0,224.0,32.0,5.0,250.0,2485.128
2485138.0,221.0,33.0,4.0,256.0,2485.138
2485148.0,214.0,32.0,4.0,247.0,2485.148
2485158.0,227.0,33.0,3.0,259.0,2485.158
2485168.0,227.0,33.0,3.0,264.0,2485.168
2485178.0,221.0,31.0,4.0,258.0,2485.178
2485188.0,225.0,32.0,4.0,260.0,2485.188
2485198.0,220.0,31.0,4.0,251.0,2485.198
2485208.0,227.0,32.0,5.0,255.0,2485.208
2485218.0,235.0,33.0,4.0,270.0,2485.218
2485228.0,234.0,32.0,4.0,262.0,2485.228
2485238.0,234.0,32.0,4.0,256.0,2485.238
2485248.0,226.0,33.0,4.0,246.0,2485.248
2485258.0,232.0,32.0,4.0,259.0,2485.258
2485268.0,242.0,33.0,4.0,269.0,2485.268
2485278.0,241.0,32.0,4.0,260.0,2485.278
2485288.0,233.0,33.0,3.0,263.0,2485.288
2485298.0,225.0,32.0,4.0,252.0,2485.298
2485308.0,231.0,32.0,4.0,256.0,2485.308
2485318.0,239.0,32.0,4.0,259.0,2485.318
2485328.0,232.0,32.0,4.0,246.0,2485.328
2485338.0,238.0,32.0,4.0,248.0,2485.338
2485348.0,230.0,32.0,3.0,239.0,2485.348
2485358.0,239.0,32.0,3.0,244.0,2485.358
2485368.0,244.0,32.0,3.0,249.0,2485.368
2485378.0,240.0,32.0,4.0,238.0,2485.378
2485388.0,240.0,31.0,4.0,240.0,2485.388
2485398.0,234.0,32.0,4.0,243.0,2485.398
2485408.0,237.0,32.0,4.0,245.0,2485.408
2485419.0,240.0,33.0,3.0,246.0,2485.419
2485429.0,232.0,31.0,4.0,230.0,2485.429
2485439.0,233.0,32.0,4.0,231.0,2485.439
2485449.0,233.0,31.0,5.0,229.0,2485.449
2485459.0,234.0,31.0,4.0,233.0,2485.459
2485469.0,229.0,31.0,5.0,239.0,2485.469
2485479.0,228.0,32.0,3.0,231.0,2485.479
2485489.0,231.0,32.0,4.0,231.0,2485.489
2485499.0,228.0,31.0,4.0,237.0,2485.499
2485509.0,231.0,32.0,4.0,242.0,2485.509
2485519.0,232.0,31.0,4.0,239.0,2485.519
2485529.0,224.0,32.0,4.0,234.0,2485.529
2485539.0,221.0,32.0,4.0,242.0,2485.539
2485549.0,218.0,32.0,4.0,241.0,2485.549
2485559.0,228.0,32.0,4.0,247.0,2485.559
2485569.0,229.0,32.0,4.0,253.0,2485.569
2485579.0,228.0,31.0,4.0,246.0,2485.579
2485590.0,228.0,32.0,4.0,251.0,2485.59
2485600.0,231.0,32.0,4.0,257.0,2485.6
2485610.0,238.0,33.0,3.0,264.0,2485.61
2485620.0,237.0,32.0,4.0,262.0,2485.62
2485630.0,227.0,32.0,4.0,250.0,2485.63
2485640.0,231.0,32.0,4.0,252.0,2485.64
2485650.0,228.0,32.0,4.0,255.0,2485.65
2485660.0,231.0,32.0,4.0,260.0,2485.66
2485670.0,238.0,33.0,3.0,259.0,2485.67
2485680.0,235.0,31.0,4.0,245.0,2485.68
2485690.0,237.0,33.0,4.0,250.0,2485.69
2485700.0,239.0,32.0,5.0,263.0,2485.7
2485710.0,240.0,31.0,4.0,253.0,2485.71
2485720.0,236.0,32.0,5.0,251.0,2485.72
2485730.0,226.0,32.0,3.0,241.0,2485.73
2485740.0,223.0,33.0,3.0,241.0,2485.74
2485750.0,234.0,32.0,4.0,247.0,2485.75
2485760.0,232.0,33.0,3.0,246.0,2485.76
2485770.0,231.0,32.0,5.0,248.0,2485.77
2485780.0,224.0,32.0,4.0,244.0,2485.78
2485790.0,229.0,32.0,3.0,262.0,2485.79
2485800.0,239.0,33.0,3.0,268.0,2485.8
2485810.0,235.0,32.0,4.0,259.0,2485.81
2485820.0,230.0,32.0,3.0,259.0,2485.82
2485830.0,224.0,31.0,5.0,243.0,2485.83
2485840.0,226.0,31.0,3.0,244.0,2485.84
2485850.0,228.0,32.0,3.0,246.0,2485.85
2485860.0,224.0,32.0,3.0,243.0,2485.86
2485870.0,221.0,33.0,3.0,235.0,2485.87
2485880.0,213.0,32.0,4.0,227.0,2485.88
2485890.0,218.0,32.0,3.0,225.0,2485.89
2485900.0,223.0,31.0,5.0,228.0,2485.9
2485910.0,234.0,32.0,4.0,233.0,2485.91
2485920.0,234.0,32.0,4.0,230.0,2485.92
2485931.0,229.0,33.0,3.0,220.0,2485.931
2485941.0,235.0,32.0,3.0,235.0,2485.941
2485951.0,240.0,32.0,4.0,236.0,2485.951
2485961.0,236.0,32.0,5.0,227.0,2485.961
2485971.0,232.0,32.0,4.0,234.0,2485.971
2485981.0,229.0,31.0,5.0,230.0,2485.981
2485991.0,232.0,33.0,3.0,238.0,2485.991
2486001.0,236.0,32.0,4.0,251.0,2486.001
2486011.0,231.0,32.0,4.0,243.0,2486.011
2486021.0,232.0,32.0,4.0,253.0,2486.021
2486031.0,227.0,31.0,4.0,249.0,2486.031
2486041.0,235.0,33.0,3.0,250.0,2486.041
2486051.0,236.0,33.0,4.0,253.0,2486.051
2486061.0,229.0,32.0,3.0,243.0,2486.061
2486071.0,226.0,32.0,4.0,239.0,2486.071
2486081.0,221.0,32.0,4.0,238.0,2486.081
2486091.0,228.0,32.0,4.0,237.0,2486.091
2486102.0,228.0,34.0,3.0,244.0,2486.102
2486112.0,223.0,32.0,4.0,240.0,2486.112
2486122.0,221.0,34.0,4.0,246.0,2486.122
2486132.0,223.0,32.0,4.0,243.0,2486.132
2486142.0,227.0,33.0,4.0,244.0,2486.142
2486152.0,225.0,32.0,4.0,246.0,2486.152
2486162.0,220.0,33.0,3.0,247.0,2486.162
2486172.0,221.0,33.0,4.0,248.0,2486.172
2486182.0,221.0,34.0,3.0,254.0,2486.182
2486192.0,226.0,33.0,4.0,260.0,2486.192
2486202.0,232.0,33.0,5.0,255.0,2486.202
2486212.0,226.0,33.0,4.0,239.0,2486.212
2486222.0,222.0,33.0,4.0,241.0,2486.222
2486232.0,228.0,33.0,5.0,248.0,2486.232
2486242.0,236.0,32.0,4.0,252.0,2486.242
2486252.0,240.0,34.0,3.0,253.0,2486.252
2486262.0,234.0,32.0,3.0,251.0,2486.262
2486272.0,236.0,33.0,3.0,263.0,2486.272
2486282.0,234.0,32.0,5.0,259.0,2486.282
2486292.0,236.0,32.0,4.0,265.0,2486.292
2486302.0,234.0,33.0,4.0,257.0,2486.302
2486312.0,230.0,33.0,3.0,250.0,2486.312
2486322.0,230.0,32.0,4.0,258.0,2486.322
2486332.0,229.0,33.0,3.0,263.0,2486.332
2486342.0,234.0,32.0,5.0,266.0,2486.342
2486352.0,230.0,32.0,4.0,263.0,2486.352
2486362.0,224.0,33.0,3.0,257.0,2486.362
2486372.0,224.0,33.0,4.0,254.0,2486.372
2486382.0,230.0,32.0,3.0,252.0,2486.382
2486392.0,241.0,32.0,4.0,257.0,2486.392
2486402.0,243.0,32.0,4.0,261.0,2486.402
2486412.0,238.0,32.0,4.0,246.0,2486.412
2486422.0,236.0,32.0,4.0,242.0,2486.422
2486432.0,235.0,32.0,4.0,245.0,2486.432
2486443.0,237.0,33.0,3.0,246.0,2486.443
2486453.0,234.0,32.0,5.0,240.0,2486.453
2486463.0,224.0,32.0,4.0,230.0,2486.463
2486473.0,228.0,32.0,5.0,238.0,2486.473
2486483.0,232.0,32.0,4.0,246.0,2486.483
2486493.0,233.0,32.0,5.0,245.0,2486.493
2486503.0,230.0,33.0,3.0,243.0,2486.503
2486513.0,222.0,32.0,4.0,238.0,2486.513
2486523.0,227.0,32.0,3.0,246.0,2486.523
2486533.0,230.0,32.0,4.0,249.0,2486.533
2486543.0,231.0,31.0,4.0,251.0,2486.543
2486553.0,229.0,33.0,3.0,249.0,2486.553
2486563.0,223.0,32.0,4.0,242.0,2486.563
2486573.0,226.0,33.0,3.0,245.0,2486.573
2486583.0,230.0,32.0,4.0,250.0,2486.583
2486593.0,230.0,32.0,4.0,252.0,2486.593
2486603.0,228.0,32.0,4.0,249.0,2486.603
2486614.0,220.0,32.0,4.0,243.0,2486.614
2486624.0,227.0,32.0,4.0,253.0,2486.624
2486634.0,234.0,33.0,3.0,278.0,2486.634
2486644.0,225.0,32.0,4.0,264.0,2486.644
2486654.0,223.0,32.0,4.0,261.0,2486.654
2486664.0,213.0,32.0,4.0,250.0,2486.664
2486674.0,221.0,32.0,4.0,257.0,2486.674
2486684.0,225.0,32.0,4.0,254.0,2486.684
2486694.0,217.0,33.0,3.0,249.0,2486.694
2486704.0,217.0,33.0,3.0,239.0,2486.704
2486714.0,210.0,32.0,4.0,228.0,2486.714
2486724.0,219.0,33.0,4.0,240.0,2486.724
2486734.0,223.0,32.0,4.0,244.0,2486.734
2486744.0,221.0,32.0,4.0,245.0,2486.744
2486754.0,224.0,32.0,4.0,244.0,2486.754
2486764.0,216.0,33.0,3.0,238.0,2486.764
2486774.0,224.0,32.0,4.0,247.0,2486.774
2486784.0,227.0,34.0,3.0,248.0,2486.784
2486794.0,223.0,33.0,4.0,249.0,2486.794
2486804.0,222.0,33.0,4.0,248.0,2486.804
2486814.0,218.0,32.0,4.0,251.0,2486.814
2486824.0,223.0,33.0,4.0,259.0,2486.824
2486834.0,225.0,33.0,4.0,256.0,2486.834
2486844.0,217.0,33.0,3.0,247.0,2486.844
2486854.0,219.0,33.0,5.0,246.0,2486.854
2486864.0,216.0,33.0,4.0,254.0,2486.864
2486874.0,220.0,33.0,3.0,259.0,2486.874
2486884.0,225.0,33.0,4.0,257.0,2486.884
2486894.0,217.0,33.0,3.0,246.0,2486.894
2486904.0,215.0,33.0,3.0,247.0,2486.904
2486914.0,207.0,33.0,4.0,240.0,2486.914
2486924.0,216.0,32.0,5.0,251.0,2486.924
2486934.0,220.0,33.0,3.0,255.0,2486.934
2486944.0,214.0,32.0,4.0,248.0,2486.944
2486955.0,215.0,34.0,3.0,248.0,2486.955
2486965.0,214.0,32.0,4.0,248.0,2486.965
2486975.0,219.0,33.0,3.0,253.0,2486.975
2486985.0,221.0,33.0,5.0,247.0,2486.985
2486995.0,210.0,32.0,3.0,239.0,2486.995
2487005.0,215.0,32.0,4.0,243.0,2487.005
2487015.0,214.0,33.0,3.0,249.0,2487.015
2487025.0,217.0,32.0,4.0,252.0,2487.025
2487035.0,218.0,33.0,4.0,246.0,2487.035
2487045.0,212.0,32.0,4.0,241.0,2487.045
2487055.0,215.0,33.0,4.0,242.0,2487.055
2487065.0,215.0,34.0,3.0,246.0,2487.065
2487075.0,218.0,32.0,4.0,245.0,2487.075
2487085.0,221.0,33.0,3.0,245.0,2487.085
2487095.0,213.0,32.0,4.0,241.0,2487.095
2487105.0,213.0,32.0,4.0,240.0,2487.105
2487115.0,217.0,33.0,4.0,243.0,2487.115
2487126.0,216.0,33.0,4.0,244.0,2487.126
2487136.0,216.0,33.0,4.0,243.0,2487.136
2487146.0,208.0,33.0,3.0,235.0,2487.146
2487156.0,215.0,32.0,4.0,242.0,2487.156
2487166.0,220.0,33.0,4.0,248.0,2487.166
2487176.0,218.0,32.0,4.0,249.0,2487.176
2487186.0,218.0,33.0,4.0,247.0,2487.186
2487196.0,210.0,33.0,3.0,239.0,2487.196
2487206.0,216.0,33.0,4.0,248.0,2487.206
2487216.0,220.0,33.0,4.0,251.0,2487.216
2487226.0,219.0,32.0,3.0,250.0,2487.226
2487236.0,219.0,33.0,4.0,248.0,2487.236
2487246.0,210.0,31.0,4.0,241.0,2487.246
2487256.0,215.0,33.0,4.0,247.0,2487.256
2487266.0,220.0,33.0,4.0,253.0,2487.266
2487276.0,219.0,32.0,3.0,252.0,2487.276
2487286.0,218.0,32.0,4.0,248.0,2487.286
2487296.0,211.0,33.0,3.0,242.0,2487.296
2487306.0,214.0,33.0,5.0,243.0,2487.306
2487316.0,219.0,33.0,4.0,251.0,2487.316
2487326.0,217.0,32.0,4.0,246.0,2487.326
2487336.0,217.0,32.0,3.0,246.0,2487.336
2487346.0,210.0,32.0,3.0,240.0,2487.346
2487356.0,213.0,32.0,4.0,247.0,2487.356
2487366.0,220.0,33.0,5.0,252.0,2487.366
2487376.0,216.0,32.0,4.0,247.0,2487.376
2487386.0,216.0,33.0,4.0,245.0,2487.386
2487396.0,208.0,32.0,4.0,238.0,2487.396
2487406.0,216.0,32.0,3.0,245.0,2487.406
2487416.0,222.0,32.0,4.0,251.0,2487.416
2487426.0,217.0,33.0,3.0,248.0,2487.426
2487436.0,219.0,33.0,4.0,245.0,2487.436
2487446.0,209.0,32.0,4.0,237.0,2487.446
2487456.0,215.0,32.0,4.0,247.0,2487.456
2487467.0,221.0,33.0,3.0,251.0,2487.467
2487477.0,214.0,32.0,4.0,245.0,2487.477
2487487.0,216.0,32.0,4.0,246.0,2487.487
2487497.0,212.0,32.0,5.0,243.0,2487.497
2487507.0,218.0,31.0,2.0,251.0,2487.507
2487517.0,220.0,32.0,4.0,249.0,2487.517
2487527.0,213.0,33.0,3.0,243.0,2487.527
2487537.0,214.0,32.0,4.0,242.0,2487.537
2487547.0,211.0,32.0,4.0,242.0,2487.547
2487557.0,216.0,32.0,4.0,246.0,2487.557
2487567.0,221.0,32.0,4.0,248.0,2487.567
2487577.0,213.0,33.0,3.0,242.0,2487.577
2487587.0,214.0,32.0,4.0,243.0,2487.587
2487597.0,208.0,33.0,3.0,238.0,2487.597
2487607.0,216.0,32.0,4.0,247.0,2487.607
2487617.0,220.0,32.0,4.0,248.0,2487.617
2487627.0,213.0,32.0,5.0,242.0,2487.627
2487638.0,214.0,31.0,4.0,241.0,2487.638
2487648.0,213.0,32.0,4.0,242.0,2487.648
2487658.0,217.0,32.0,3.0,249.0,2487.658
2487668.0,218.0,32.0,4.0,244.0,2487.668
2487678.0,209.0,32.0,4.0,238.0,2487.678
2487688.0,214.0,32.0,5.0,241.0,2487.688
2487698.0,214.0,31.0,4.0,245.0,2487.698
2487708.0,218.0,32.0,4.0,248.0,2487.708
2487718.0,218.0,33.0,3.0,246.0,2487.718
2487728.0,211.0,32.0,3.0,241.0,2487.728
2487738.0,214.0,32.0,3.0,242.0,2487.738
2487748.0,216.0,32.0,4.0,247.0,2487.748
2487758.0,218.0,31.0,4.0,249.0,2487.758
2487768.0,221.0,32.0,5.0,249.0,2487.768
2487778.0,210.0,32.0,4.0,241.0,2487.778
2487788.0,213.0,33.0,4.0,243.0,2487.788
2487798.0,216.0,32.0,4.0,248.0,2487.798
2487808.0,218.0,33.0,3.0,250.0,2487.808
2487818.0,221.0,33.0,5.0,246.0,2487.818
2487828.0,210.0,32.0,3.0,240.0,2487.828
2487838.0,213.0,32.0,4.0,241.0,2487.838
2487848.0,217.0,33.0,3.0,248.0,2487.848
2487858.0,218.0,31.0,4.0,247.0,2487.858
2487868.0,219.0,32.0,4.0,245.0,2487.868
2487878.0,209.0,32.0,4.0,239.0,2487.878
2487888.0,213.0,31.0,4.0,242.0,2487.888
2487898.0,215.0,32.0,5.0,245.0,2487.898
2487908.0,218.0,32.0,4.0,250.0,2487.908
2487918.0,219.0,33.0,3.0,246.0,2487.918
2487928.0,211.0,32.0,5.0,240.0,2487.928
2487938.0,215.0,32.0,4.0,244.0,2487.938
2487948.0,216.0,32.0,5.0,248.0,2487.948
2487958.0,216.0,32.0,4.0,251.0,2487.958
2487968.0,217.0,32.0,4.0,247.0,2487.968
2487979.0,208.0,33.0,3.0,241.0,2487.979
2487989.0,213.0,32.0,3.0,245.0,2487.989
2487999.0,220.0,33.0,4.0,252.0,2487.999
2488009.0,216.0,32.0,5.0,247.0,2488.009
2488019.0,216.0,33.0,4.0,245.0,2488.019
2488029.0,209.0,32.0,5.0,238.0,2488.029
2488039.0,213.0,33.0,3.0,247.0,2488.039
2488049.0,219.0,32.0,3.0,251.0,2488.049
2488059.0,215.0,32.0,3.0,246.0,2488.059
2488069.0,217.0,33.0,3.0,246.0,2488.069
2488079.0,209.0,31.0,4.0,238.0,2488.079
2488089.0,214.0,33.0,4.0,246.0,2488.089
2488099.0,221.0,33.0,4.0,251.0,2488.099
2488109.0,216.0,33.0,4.0,248.0,2488.109
2488119.0,218.0,32.0,4.0,245.0,2488.119
2488129.0,208.0,33.0,4.0,238.0,2488.129
2488139.0,216.0,33.0,5.0,246.0,2488.139
2488150.0,220.0,33.0,4.0,250.0,2488.15
2488160.0,214.0,32.0,4.0,244.0,2488.16
2488170.0,215.0,33.0,3.0,244.0,2488.17
2488180.0,211.0,32.0,4.0,242.0,2488.18
2488190.0,218.0,33.0,3.0,249.0,2488.19
2488200.0,221.0,32.0,4.0,249.0,2488.2
2488210.0,213.0,32.0,4.0,244.0,2488.21
2488220.0,214.0,33.0,3.0,244.0,2488.22
2488230.0,212.0,33.0,4.0,244.0,2488.23
2488240.0,215.0,33.0,3.0,249.0,2488.24
2488250.0,220.0,33.0,4.0,250.0,2488.25
2488260.0,211.0,33.0,4.0,244.0,2488.26
2488270.0,215.0,33.0,4.0,243.0,2488.27
2488280.0,209.0,33.0,4.0,241.0,2488.28
2488290.0,217.0,33.0,4.0,250.0,2488.29
2488300.0,221.0,34.0,3.0,251.0,2488.3
2488310.0,212.0,32.0,3.0,244.0,2488.31
2488320.0,216.0,34.0,3.0,246.0,2488.32
2488330.0,209.0,33.0,5.0,241.0,2488.33
2488340.0,216.0,33.0,4.0,251.0,2488.34
2488350.0,221.0,33.0,4.0,249.0,2488.35
2488360.0,211.0,33.0,3.0,243.0,2488.36
2488370.0,215.0,33.0,4.0,244.0,2488.37
2488380.0,209.0,33.0,4.0,241.0,2488.38
2488390.0,217.0,33.0,5.0,249.0,2488.39
2488400.0,220.0,34.0,4.0,248.0,2488.4
2488410.0,213.0,33.0,4.0,244.0,2488.41
2488420.0,215.0,33.0,4.0,244.0,2488.42
2488430.0,211.0,33.0,3.0,242.0,2488.43
2488440.0,218.0,33.0,5.0,249.0,2488.44
2488450.0,221.0,34.0,3.0,250.0,2488.45
2488460.0,214.0,34.0,5.0,244.0,2488.46
2488470.0,214.0,34.0,4.0,243.0,2488.47
2488480.0,212.0,33.0,4.0,243.0,2488.48
2488491.0,218.0,34.0,4.0,249.0,2488.491
2488501.0,222.0,33.0,4.0,246.0,2488.501
2488511.0,211.0,33.0,4.0,239.0,2488.511
2488521.0,214.0,34.0,5.0,242.0,2488.521
2488531.0,219.0,34.0,2.0,249.0,2488.531
2488541.0,219.0,33.0,5.0,250.0,2488.541
2488551.0,220.0,33.0,4.0,248.0,2488.551
2488561.0,210.0,34.0,3.0,240.0,2488.561
2488571.0,214.0,33.0,4.0,244.0,2488.571
2488581.0,215.0,34.0,3.0,246.0,2488.581
2488591.0,218.0,33.0,4.0,250.0,2488.591
2488601.0,219.0,34.0,4.0,247.0,2488.601
2488611.0,210.0,33.0,4.0,240.0,2488.611
2488621.0,214.0,33.0,3.0,244.0,2488.621
2488631.0,216.0,32.0,4.0,250.0,2488.631
2488641.0,217.0,33.0,4.0,252.0,2488.641
2488651.0,219.0,33.0,5.0,248.0,2488.651
2488662.0,209.0,33.0,4.0,241.0,2488.662
2488672.0,213.0,33.0,3.0,247.0,2488.672
2488682.0,220.0,34.0,3.0,253.0,2488.682
2488692.0,216.0,32.0,3.0,248.0,2488.692
2488702.0,217.0,33.0,4.0,245.0,2488.702
2488712.0,209.0,32.0,4.0,239.0,2488.712
2488722.0,215.0,33.0,3.0,246.0,2488.722
2488732.0,221.0,33.0,4.0,250.0,2488.732
2488742.0,216.0,33.0,3.0,245.0,2488.742
2488752.0,218.0,33.0,4.0,245.0,2488.752
2488762.0,210.0,32.0,4.0,237.0,2488.762
2488772.0,216.0,33.0,4.0,246.0,2488.772
2488782.0,223.0,33.0,4.0,251.0,2488.782
2488792.0,217.0,33.0,4.0,248.0,2488.792
2488802.0,217.0,33.0,3.0,244.0,2488.802
2488812.0,208.0,34.0,3.0,238.0,2488.812
2488822.0,217.0,32.0,4.0,248.0,2488.822
2488832.0,219.0,34.0,3.0,250.0,2488.832
2488842.0,217.0,33.0,5.0,246.0,2488.842
2488852.0,216.0,33.0,4.0,244.0,2488.852
2488862.0,209.0,32.0,4.0,237.0,2488.862
2488872.0,217.0,33.0,4.0,248.0,2488.872
2488882.0,221.0,33.0,4.0,249.0,2488.882
2488892.0,217.0,32.0,3.0,247.0,2488.892
2488902.0,217.0,33.0,4.0,245.0,2488.902
2488912.0,209.0,33.0,4.0,239.0,2488.912
2488922.0,215.0,33.0,4.0,246.0,2488.922
2488932.0,221.0,33.0,3.0,251.0,2488.932
2488942.0,217.0,33.0,3.0,246.0,2488.942
2488952.0,218.0,33.0,4.0,244.0,2488.952
2488962.0,210.0,33.0,3.0,238.0,2488.962
2488972.0,217.0,33.0,4.0,245.0,2488.972
2488982.0,221.0,33.0,3.0,251.0,2488.982
2488992.0,215.0,33.0,3.0,246.0,2488.992
2489003.0,216.0,33.0,3.0,245.0,2489.003
2489013.0,211.0,32.0,4.0,240.0,2489.013
2489023.0,219.0,33.0,4.0,248.0,2489.023
2489033.0,222.0,33.0,5.0,247.0,2489.033
2489043.0,212.0,33.0,3.0,240.0,2489.043
2489053.0,217.0,33.0,5.0,243.0,2489.053
2489063.0,212.0,33.0,3.0,242.0,2489.063
2489073.0,219.0,33.0,3.0,247.0,2489.073
2489083.0,222.0,33.0,4.0,246.0,2489.083
2489093.0,215.0,33.0,3.0,243.0,2489.093
2489103.0,217.0,33.0,4.0,242.0,2489.103
2489113.0,212.0,33.0,3.0,243.0,2489.113
2489123.0,220.0,32.0,4.0,249.0,2489.123
2489133.0,222.0,33.0,3.0,248.0,2489.133
2489143.0,213.0,32.0,4.0,243.0,2489.143
2489153.0,215.0,33.0,4.0,243.0,2489.153
2489163.0,215.0,33.0,4.0,243.0,2489.163
2489174.0,218.0,33.0,2.0,249.0,2489.174
2489184.0,220.0,33.0,4.0,246.0,2489.184
2489194.0,210.0,33.0,3.0,243.0,2489.194
2489204.0,213.0,32.0,3.0,244.0,2489.204
2489214.0,219.0,32.0,4.0,251.0,2489.214
2489224.0,219.0,32.0,4.0,250.0,2489.224
2489234.0,219.0,33.0,4.0,246.0,2489.234
2489244.0,210.0,32.0,4.0,240.0,2489.244
2489254.0,213.0,32.0,4.0,245.0,2489.254
2489264.0,214.0,33.0,3.0,247.0,2489.264
2489274.0,217.0,32.0,4.0,250.0,2489.274
2489284.0,217.0,33.0,4.0,246.0,2489.284
2489294.0,210.0,32.0,5.0,239.0,2489.294
2489304.0,214.0,31.0,4.0,242.0,2489.304
2489314.0,215.0,33.0,4.0,246.0,2489.314
2489324.0,217.0,33.0,3.0,248.0,2489.324
2489334.0,217.0,32.0,4.0,244.0,2489.334
2489344.0,210.0,33.0,3.0,240.0,2489.344
2489354.0,213.0,33.0,4.0,242.0,2489.354
2489364.0,215.0,33.0,4.0,247.0,2489.364
2489374.0,215.0,32.0,3.0,247.0,2489.374
2489384.0,216.0,33.0,3.0,245.0,2489.384
2489394.0,208.0,32.0,4.0,239.0,2489.394
2489404.0,212.0,32.0,4.0,241.0,2489.404
2489414.0,216.0,33.0,4.0,248.0,2489.414
2489424.0,216.0,32.0,4.0,245.0,2489.424
2489434.0,219.0,33.0,4.0,243.0,2489.434
2489444.0,209.0,32.0,4.0,237.0,2489.444
2489454.0,211.0,33.0,3.0,240.0,2489.454
2489464.0,218.0,32.0,4.0,245.0,2489.464
2489474.0,217.0,33.0,3.0,244.0,2489.474
2489484.0,218.0,33.0,5.0,241.0,2489.484
2489494.0,208.0,33.0,4.0,234.0,2489.494
2489504.0,212.0,32.0,4.0,239.0,2489.504
2489515.0,218.0,33.0,3.0,245.0,2489.515
2489525.0,214.0,32.0,4.0,242.0,2489.525
2489535.0,214.0,32.0,4.0,239.0,2489.535
2489545.0,206.0,33.0,4.0,234.0,2489.545
2489555.0,214.0,32.0,4.0,243.0,2489.555
2489565.0,217.0,33.0,3.0,245.0,2489.565
2489575.0,213.0,32.0,4.0,241.0,2489.575
2489585.0,213.0,32.0,3.0,239.0,2489.585
2489595.0,206.0,32.0,4.0,235.0,2489.595
2489605.0,211.0,32.0,4.0,241.0,2489.605
2489615.0,217.0,33.0,4.0,244.0,2489.615
2489625.0,211.0,33.0,3.0,240.0,2489.625
2489635.0,212.0,32.0,4.0,239.0,2489.635
2489645.0,204.0,32.0,4.0,233.0,2489.645
2489655.0,210.0,32.0,4.0,240.0,2489.655
2489665.0,216.0,32.0,4.0,244.0,2489.665
2489675.0,211.0,32.0,5.0,239.0,2489.675
2489686.0,211.0,33.0,4.0,238.0,2489.686
2489696.0,207.0,32.0,4.0,236.0,2489.696
2489706.0,215.0,33.0,4.0,245.0,2489.706
2489716.0,217.0,32.0,4.0,242.0,2489.716
2489726.0,208.0,32.0,4.0,235.0,2489.726
2489736.0,212.0,32.0,4.0,237.0,2489.736
2489746.0,208.0,33.0,4.0,236.0,2489.746
2489756.0,214.0,32.0,4.0,242.0,2489.756
2489766.0,217.0,33.0,4.0,241.0,2489.766
2489776.0,209.0,33.0,4.0,237.0,2489.776
2489786.0,211.0,32.0,4.0,237.0,2489.786
2489796.0,208.0,33.0,4.0,237.0,2489.796
2489806.0,213.0,33.0,5.0,243.0,2489.806
2489816.0,215.0,33.0,4.0,243.0,2489.816
2489826.0,207.0,32.0,4.0,237.0,2489.826
2489836.0,209.0,34.0,3.0,237.0,2489.836
2489846.0,209.0,32.0,4.0,239.0,2489.846
2489856.0,211.0,33.0,3.0,243.0,2489.856
2489866.0,215.0,33.0,5.0,242.0,2489.866
2489876.0,206.0,32.0,4.0,236.0,2489.876
2489886.0,208.0,33.0,4.0,236.0,2489.886
2489896.0,209.0,33.0,3.0,239.0,2489.896
2489906.0,212.0,32.0,4.0,241.0,2489.906
2489916.0,215.0,33.0,3.0,241.0,2489.916
2489926.0,207.0,32.0,4.0,235.0,2489.926
2489936.0,209.0,31.0,4.0,235.0,2489.936
2489946.0,205.0,32.0,4.0,234.0,2489.946
2489956.0,212.0,32.0,4.0,241.0,2489.956
2489966.0,215.0,34.0,3.0,241.0,2489.966
2489976.0,206.0,32.0,4.0,234.0,2489.976
2489986.0,210.0,34.0,3.0,237.0,2489.986
2489996.0,207.0,33.0,4.0,235.0,2489.996
2490006.0,212.0,33.0,4.0,241.0,2490.006
2490016.0,214.0,33.0,4.0,238.0,2490.016
2490027.0,205.0,33.0,4.0,233.0,2490.027
2490037.0,208.0,32.0,4.0,234.0,2490.037
2490047.0,212.0,33.0,3.0,241.0,2490.047
2490057.0,211.0,33.0,4.0,241.0,2490.057
2490067.0,211.0,33.0,4.0,238.0,2490.067
2490077.0,204.0,33.0,3.0,234.0,2490.077
2490087.0,208.0,33.0,3.0,237.0,2490.087
2490097.0,213.0,34.0,3.0,243.0,2490.097
2490107.0,211.0,32.0,4.0,240.0,2490.107
2490117.0,213.0,33.0,3.0,239.0,2490.117
2490127.0,206.0,32.0,4.0,233.0,2490.127
2490137.0,208.0,33.0,2.0,236.0,2490.137
2490147.0,214.0,32.0,4.0,242.0,2490.147
2490157.0,213.0,32.0,4.0,241.0,2490.157
2490167.0,214.0,33.0,4.0,238.0,2490.167
2490177.0,205.0,32.0,3.0,231.0,2490.177
2490187.0,210.0,33.0,5.0,235.0,2490.187
2490198.0,215.0,33.0,3.0,241.0,2490.198
2490208.0,211.0,33.0,4.0,237.0,2490.208
2490218.0,211.0,34.0,3.0,237.0,2490.218
2490228.0,204.0,32.0,3.0,230.0,2490.228
2490238.0,211.0,33.0,4.0,240.0,2490.238
2490248.0,214.0,33.0,4.0,241.0,2490.248
2490258.0,210.0,32.0,4.0,237.0,2490.258
2490268.0,210.0,33.0,4.0,235.0,2490.268
2490278.0,208.0,33.0,4.0,234.0,2490.278
2490288.0,213.0,33.0,4.0,240.0,2490.288
2490298.0,218.0,32.0,4.0,243.0,2490.298
2490308.0,212.0,33.0,4.0,238.0,2490.308
2490318.0,213.0,33.0,5.0,237.0,2490.318
2490328.0,205.0,33.0,4.0,230.0,2490.328
2490338.0,211.0,33.0,4.0,239.0,2490.338
2490348.0,216.0,34.0,3.0,243.0,2490.348
2490358.0,210.0,32.0,4.0,236.0,2490.358
2490368.0,211.0,34.0,4.0,237.0,2490.368
2490378.0,205.0,33.0,4.0,229.0,2490.378
2490388.0,211.0,33.0,4.0,238.0,2490.388
2490398.0,216.0,33.0,4.0,240.0,2490.398
2490408.0,209.0,32.0,3.0,235.0,2490.408
2490418.0,212.0,33.0,4.0,235.0,2490.418
2490428.0,204.0,33.0,4.0,229.0,2490.428
2490438.0,211.0,33.0,4.0,238.0,2490.438
2490448.0,217.0,33.0,4.0,239.0,2490.448
2490458.0,211.0,33.0,4.0,237.0,2490.458
2490468.0,212.0,33.0,3.0,235.0,2490.468
2490478.0,204.0,34.0,3.0,231.0,2490.478
2490488.0,213.0,32.0,4.0,239.0,2490.488
2490498.0,215.0,34.0,3.0,241.0,2490.498
2490508.0,211.0,33.0,5.0,236.0,2490.508
2490518.0,210.0,33.0,4.0,236.0,2490.518
2490528.0,205.0,32.0,4.0,231.0,2490.528
2490539.0,212.0,33.0,3.0,241.0,2490.539
2490549.0,215.0,34.0,3.0,240.0,2490.549
2490559.0,206.0,32.0,4.0,233.0,2490.559
2490569.0,209.0,33.0,4.0,234.0,2490.569
2490579.0,210.0,33.0,4.0,238.0,2490.579
2490589.0,212.0,33.0,4.0,241.0,2490.589
2490599.0,214.0,33.0,4.0,239.0,2490.599
2490609.0,207.0,33.0,3.0,232.0,2490.609
2490619.0,209.0,32.0,4.0,234.0,2490.619
2490629.0,206.0,33.0,3.0,235.0,2490.629
2490639.0,213.0,32.0,5.0,240.0,2490.639
2490649.0,214.0,33.0,2.0,240.0,2490.649
2490659.0,206.0,32.0,4.0,232.0,2490.659
2490669.0,210.0,33.0,4.0,235.0,2490.669
2490679.0,207.0,32.0,4.0,234.0,2490.679
2490689.0,213.0,33.0,3.0,239.0,2490.689
2490699.0,215.0,33.0,5.0,237.0,2490.699
2490710.0,206.0,32.0,4.0,230.0,2490.71
2490720.0,208.0,32.0,4.0,233.0,2490.72
2490730.0,213.0,33.0,4.0,240.0,2490.73
2490740.0,212.0,32.0,4.0,238.0,2490.74
2490750.0,212.0,33.0,4.0,236.0,2490.75
2490760.0,205.0,33.0,4.0,230.0,2490.76
2490770.0,209.0,32.0,4.0,233.0,2490.77
2490780.0,214.0,33.0,2.0,240.0,2490.78
2490790.0,212.0,32.0,3.0,237.0,2490.79
2490800.0,214.0,33.0,3.0,238.0,2490.8
2490810.0,206.0,32.0,4.0,230.0,2490.81
2490820.0,209.0,32.0,4.0,235.0,2490.82
2490830.0,215.0,33.0,4.0,240.0,2490.83
2490840.0,213.0,32.0,4.0,239.0,2490.84
2490850.0,213.0,33.0,4.0,235.0,2490.85
2490860.0,205.0,33.0,3.0,229.0,2490.86
2490870.0,209.0,32.0,4.0,234.0,2490.87
2490880.0,212.0,33.0,4.0,239.0,2490.88
2490890.0,213.0,32.0,5.0,238.0,2490.89
2490900.0,213.0,32.0,4.0,235.0,2490.9
2490910.0,204.0,33.0,3.0,228.0,2490.91
2490920.0,210.0,33.0,4.0,236.0,2490.92
2490930.0,212.0,33.0,4.0,239.0,2490.93
2490940.0,213.0,32.0,4.0,239.0,2490.94
2490950.0,212.0,33.0,4.0,236.0,2490.95
2490960.0,205.0,31.0,4.0,228.0,2490.96
2490970.0,208.0,32.0,4.0,233.0,2490.97
2490980.0,213.0,32.0,4.0,239.0,2490.98
2490990.0,212.0,33.0,3.0,238.0,2490.99
2491000.0,212.0,32.0,4.0,235.0,2491.0
2491010.0,205.0,32.0,3.0,230.0,2491.01
2491020.0,207.0,33.0,5.0,234.0,2491.02
2491030.0,212.0,33.0,2.0,240.0,2491.03
2491040.0,211.0,33.0,4.0,238.0,2491.04
2491051.0,212.0,33.0,4.0,237.0,2491.051
2491061.0,203.0,33.0,3.0,229.0,2491.061
2491071.0,211.0,33.0,4.0,239.0,2491.071
2491081.0,216.0,33.0,4.0,241.0,2491.081
2491091.0,207.0,33.0,4.0,233.0,2491.091
2491101.0,211.0,32.0,5.0,235.0,2491.101
2491111.0,203.0,32.0,4.0,229.0,2491.111
2491121.0,211.0,33.0,3.0,239.0,2491.121
2491131.0,216.0,32.0,4.0,238.0,2491.131
2491141.0,209.0,32.0,4.0,235.0,2491.141
2491151.0,212.0,33.0,4.0,234.0,2491.151
2491161.0,204.0,33.0,4.0,229.0,2491.161
2491171.0,212.0,32.0,4.0,239.0,2491.171
2491181.0,216.0,33.0,3.0,241.0,2491.181
2491191.0,208.0,32.0,4.0,235.0,2491.191
2491201.0,212.0,33.0,4.0,234.0,2491.201
2491211.0,206.0,32.0,4.0,231.0,2491.211
2491222.0,213.0,32.0,4.0,240.0,2491.222
2491232.0,219.0,33.0,4.0,237.0,2491.232
2491242.0,206.0,32.0,4.0,231.0,2491.242
2491252.0,211.0,33.0,3.0,232.0,2491.252
2491262.0,213.0,32.0,4.0,237.0,2491.262
2491272.0,213.0,32.0,4.0,239.0,2491.272
2491282.0,221.0,31.0,4.0,238.0,2491.282
2491292.0,206.0,32.0,3.0,231.0,2491.292
2491302.0,212.0,32.0,4.0,233.0,2491.302
2491312.0,210.0,32.0,4.0,233.0,2491.312
2491322.0,215.0,32.0,4.0,238.0,2491.322
2491332.0,224.0,32.0,4.0,237.0,2491.332
2491342.0,209.0,32.0,5.0,230.0,2491.342
2491352.0,217.0,32.0,4.0,234.0,2491.352
2491362.0,215.0,32.0,4.0,235.0,2491.362
2491372.0,217.0,33.0,3.0,241.0,2491.372
2491382.0,226.0,32.0,4.0,238.0,2491.382
2491392.0,212.0,33.0,3.0,233.0,2491.392
2491402.0,221.0,32.0,5.0,233.0,2491.402
2491412.0,221.0,31.0,4.0,234.0,2491.412
2491422.0,221.0,32.0,3.0,238.0,2491.422
2491432.0,231.0,32.0,4.0,236.0,2491.432
2491442.0,217.0,32.0,3.0,232.0,2491.442
2491452.0,224.0,32.0,4.0,233.0,2491.452
2491462.0,224.0,32.0,4.0,236.0,2491.462
2491472.0,223.0,32.0,4.0,239.0,2491.472
2491482.0,232.0,32.0,4.0,240.0,2491.482
2491492.0,218.0,32.0,3.0,232.0,2491.492
2491502.0,225.0,33.0,3.0,234.0,2491.502
2491512.0,227.0,32.0,4.0,238.0,2491.512
2491522.0,225.0,32.0,4.0,240.0,2491.522
2491532.0,234.0,32.0,5.0,238.0,2491.532
2491542.0,218.0,32.0,4.0,232.0,2491.542
2491552.0,224.0,32.0,4.0,233.0,2491.552
2491563.0,227.0,33.0,4.0,239.0,2491.563
2491573.0,222.0,32.0,3.0,238.0,2491.573
2491583.0,231.0,32.0,4.0,235.0,2491.583
2491593.0,216.0,32.0,4.0,228.0,2491.593
2491603.0,223.0,31.0,4.0,235.0,2491.603
2491613.0,227.0,32.0,4.0,237.0,2491.613
2491623.0,220.0,32.0,4.0,237.0,2491.623
2491633.0,228.0,33.0,3.0,234.0,2491.633
2491643.0,214.0,32.0,3.0,226.0,2491.643
2491653.0,219.0,33.0,3.0,233.0,2491.653
2491663.0,226.0,32.0,5.0,239.0,2491.663
2491673.0,217.0,32.0,4.0,237.0,2491.673
2491683.0,224.0,32.0,4.0,234.0,2491.683
2491693.0,212.0,32.0,2.0,228.0,2491.693
2491703.0,217.0,32.0,4.0,232.0,2491.703
2491713.0,224.0,32.0,4.0,238.0,2491.713
2491723.0,216.0,32.0,4.0,236.0,2491.723
2491734.0,222.0,31.0,4.0,234.0,2491.734
2491744.0,210.0,32.0,4.0,228.0,2491.744
2491754.0,216.0,32.0,4.0,237.0,2491.754
2491764.0,223.0,33.0,3.0,240.0,2491.764
2491774.0,211.0,32.0,4.0,231.0,2491.774
2491784.0,217.0,32.0,4.0,233.0,2491.784
2491794.0,208.0,31.0,4.0,227.0,2491.794
2491804.0,214.0,32.0,4.0,238.0,2491.804
2491814.0,221.0,32.0,4.0,239.0,2491.814
2491824.0,211.0,33.0,3.0,234.0,2491.824
2491834.0,214.0,32.0,3.0,234.0,2491.834
2491844.0,207.0,31.0,3.0,229.0,2491.844
2491854.0,216.0,32.0,5.0,239.0,2491.854
2491864.0,219.0,31.0,4.0,240.0,2491.864
2491874.0,210.0,32.0,4.0,233.0,2491.874
2491884.0,214.0,32.0,3.0,234.0,2491.884
2491894.0,207.0,32.0,4.0,230.0,2491.894
2491904.0,212.0,32.0,4.0,235.0,2491.904
2491914.0,217.0,32.0,4.0,239.0,2491.914
2491924.0,210.0,31.0,4.0,231.0,2491.924
2491934.0,212.0,32.0,4.0,232.0,2491.934
2491944.0,208.0,32.0,3.0,232.0,2491.944
2491954.0,211.0,33.0,3.0,236.0,2491.954
2491964.0,217.0,32.0,4.0,239.0,2491.964
2491974.0,207.0,31.0,3.0,233.0,2491.974
2491984.0,211.0,31.0,5.0,233.0,2491.984
2491994.0,202.0,31.0,4.0,227.0,2491.994
2492004.0,211.0,31.0,4.0,236.0,2492.004
2492014.0,215.0,33.0,3.0,239.0,2492.014
2492024.0,207.0,31.0,4.0,230.0,2492.024
2492034.0,211.0,32.0,4.0,234.0,2492.034
2492044.0,204.0,32.0,4.0,227.0,2492.044
2492054.0,211.0,31.0,4.0,235.0,2492.054
2492064.0,215.0,32.0,4.0,237.0,2492.064
2492075.0,207.0,32.0,4.0,229.0,2492.075
2492085.0,209.0,32.0,3.0,231.0,2492.085
2492095.0,209.0,31.0,4.0,234.0,2492.095
2492105.0,211.0,32.0,5.0,236.0,2492.105
2492115.0,213.0,31.0,4.0,234.0,2492.115
2492125.0,205.0,31.0,4.0,230.0,2492.125
2492135.0,207.0,31.0,4.0,231.0,2492.135
2492145.0,209.0,33.0,3.0,237.0,2492.145
2492155.0,211.0,32.0,4.0,236.0,2492.155
2492165.0,215.0,32.0,4.0,237.0,2492.165
2492175.0,206.0,32.0,5.0,229.0,2492.175
2492185.0,209.0,31.0,2.0,232.0,2492.185
2492195.0,212.0,32.0,4.0,236.0,2492.195
2492205.0,212.0,32.0,3.0,239.0,2492.205
2492215.0,215.0,32.0,3.0,238.0,2492.215
2492225.0,206.0,32.0,3.0,230.0,2492.225
2492235.0,209.0,32.0,4.0,232.0,2492.235
2492246.0,213.0,31.0,5.0,237.0,2492.246
2492256.0,212.0,32.0,4.0,237.0,2492.256
2492266.0,213.0,32.0,4.0,236.0,2492.266
2492276.0,203.0,32.0,3.0,226.0,2492.276
2492286.0,210.0,32.0,4.0,235.0,2492.286
2492296.0,214.0,32.0,4.0,238.0,2492.296
2492306.0,212.0,31.0,4.0,236.0,2492.306
2492316.0,212.0,32.0,4.0,234.0,2492.316
2492326.0,203.0,32.0,4.0,227.0,2492.326
2492336.0,208.0,31.0,4.0,233.0,2492.336
2492346.0,214.0,32.0,4.0,238.0,2492.346
2492356.0,209.0,32.0,3.0,235.0,2492.356
2492366.0,212.0,32.0,4.0,233.0,2492.366
2492376.0,204.0,31.0,4.0,227.0,2492.376
2492386.0,208.0,32.0,3.0,231.0,2492.386
2492396.0,214.0,33.0,4.0,238.0,2492.396
2492406.0,209.0,32.0,3.0,234.0,2492.406
2492416.0,212.0,32.0,3.0,235.0,2492.416
2492426.0,203.0,33.0,4.0,226.0,2492.426
2492436.0,209.0,32.0,4.0,232.0,2492.436
2492446.0,214.0,33.0,4.0,238.0,2492.446
2492456.0,208.0,32.0,4.0,234.0,2492.456
2492466.0,212.0,33.0,2.0,234.0,2492.466
2492476.0,203.0,32.0,4.0,225.0,2492.476
2492486.0,208.0,32.0,4.0,233.0,2492.486
2492496.0,215.0,33.0,5.0,238.0,2492.496
2492506.0,210.0,32.0,4.0,236.0,2492.506
2492516.0,211.0,33.0,3.0,233.0,2492.516
2492526.0,203.0,33.0,3.0,227.0,2492.526
2492536.0,209.0,32.0,4.0,235.0,2492.536
2492546.0,215.0,32.0,4.0,239.0,2492.546
2492556.0,212.0,33.0,5.0,236.0,2492.556
2492566.0,212.0,33.0,4.0,234.0,2492.566
2492576.0,204.0,33.0,3.0,226.0,2492.576
2492587.0,210.0,33.0,4.0,235.0,2492.587
2492597.0,215.0,33.0,3.0,238.0,2492.597
2492607.0,208.0,32.0,3.0,231.0,2492.607
2492617.0,209.0,33.0,4.0,231.0,2492.617
2492627.0,207.0,33.0,5.0,230.0,2492.627
2492637.0,210.0,32.0,4.0,235.0,2492.637
2492647.0,215.0,33.0,4.0,237.0,2492.647
2492657.0,208.0,34.0,3.0,231.0,2492.657
2492667.0,209.0,33.0,4.0,230.0,2492.667
2492677.0,203.0,33.0,3.0,226.0,2492.677
2492687.0,212.0,33.0,5.0,237.0,2492.687
2492697.0,216.0,33.0,4.0,237.0,2492.697
2492707.0,208.0,33.0,4.0,230.0,2492.707
2492717.0,211.0,33.0,3.0,234.0,2492.717
2492727.0,204.0,33.0,3.0,228.0,2492.727
2492737.0,212.0,33.0,3.0,237.0,2492.737
2492747.0,216.0,34.0,4.0,237.0,2492.747
2492758.0,207.0,33.0,4.0,230.0,2492.758
2492768.0,210.0,33.0,4.0,231.0,2492.768
2492778.0,210.0,33.0,4.0,236.0,2492.778
2492788.0,213.0,33.0,3.0,238.0,2492.788
2492798.0,213.0,34.0,4.0,235.0,2492.798
2492808.0,206.0,33.0,4.0,231.0,2492.808
2492818.0,209.0,34.0,5.0,231.0,2492.818
2492828.0,210.0,33.0,4.0,237.0,2492.828
2492838.0,212.0,32.0,4.0,238.0,2492.838
2492848.0,214.0,34.0,4.0,238.0,2492.848
2492858.0,205.0,33.0,3.0,232.0,2492.858
2492868.0,207.0,33.0,3.0,234.0,2492.868
2492878.0,211.0,33.0,5.0,238.0,2492.878
2492888.0,213.0,33.0,4.0,240.0,2492.888
2492898.0,214.0,33.0,4.0,237.0,2492.898
2492908.0,206.0,32.0,4.0,231.0,2492.908
2492918.0,208.0,33.0,4.0,233.0,2492.918
2492928.0,208.0,33.0,3.0,236.0,2492.928
2492938.0,213.0,33.0,3.0,240.0,2492.938
2492948.0,216.0,33.0,5.0,238.0,2492.948
2492958.0,205.0,33.0,3.0,232.0,2492.958
2492968.0,208.0,33.0,3.0,235.0,2492.968
2492978.0,208.0,33.0,4.0,237.0,2492.978
2492988.0,213.0,32.0,3.0,240.0,2492.988
2492998.0,213.0,34.0,3.0,238.0,2492.998
2493008.0,206.0,33.0,5.0,230.0,2493.008
2493018.0,209.0,33.0,3.0,234.0,2493.018
2493028.0,210.0,33.0,4.0,237.0,2493.028
2493038.0,213.0,33.0,3.0,239.0,2493.038
2493048.0,213.0,33.0,3.0,236.0,2493.048
2493058.0,207.0,33.0,3.0,232.0,2493.058
2493068.0,208.0,33.0,4.0,233.0,2493.068
2493078.0,211.0,33.0,4.0,237.0,2493.078
2493088.0,212.0,33.0,4.0,238.0,2493.088
2493099.0,213.0,33.0,4.0,235.0,2493.099
2493109.0,203.0,33.0,3.0,228.0,2493.109
2493119.0,209.0,33.0,4.0,234.0,2493.119
2493129.0,214.0,33.0,4.0,239.0,2493.129
