time (ms),signal 0,signal 1,signal 2,signal 3,time (sec)
2449328.0,306.0,33.0,4.0,239.0,2449.328
2449338.0,288.0,33.0,4.0,233.0,2449.338
2449348.0,297.0,33.0,3.0,235.0,2449.348
2449358.0,297.0,32.0,4.0,240.0,2449.358
2449368.0,288.0,33.0,4.0,242.0,2449.368
2449378.0,301.0,33.0,5.0,239.0,2449.378
2449388.0,278.0,32.0,4.0,233.0,2449.388
2449398.0,287.0,33.0,4.0,236.0,2449.398
2449408.0,284.0,33.0,4.0,238.0,2449.408
2449418.0,279.0,32.0,4.0,242.0,2449.418
2449428.0,290.0,33.0,4.0,239.0,2449.428
2449438.0,271.0,33.0,5.0,231.0,2449.438
2449448.0,277.0,33.0,3.0,235.0,2449.448
2449458.0,277.0,33.0,5.0,238.0,2449.458
2449468.0,271.0,33.0,3.0,242.0,2449.468
2449478.0,283.0,33.0,3.0,238.0,2449.478
2449488.0,263.0,33.0,3.0,231.0,2449.488
2449498.0,273.0,33.0,4.0,235.0,2449.498
2449508.0,271.0,34.0,4.0,238.0,2449.508
2449518.0,263.0,33.0,4.0,239.0,2449.518
2449528.0,276.0,33.0,4.0,237.0,2449.528
2449538.0,258.0,34.0,3.0,232.0,2449.538
2449548.0,267.0,32.0,4.0,234.0,2449.548
2449558.0,267.0,33.0,3.0,238.0,2449.558
2449568.0,261.0,33.0,5.0,239.0,2449.568
2449579.0,271.0,34.0,4.0,237.0,2449.579
2449589.0,254.0,33.0,4.0,229.0,2449.589
2449599.0,261.0,34.0,3.0,239.0,2449.599
2449609.0,269.0,33.0,4.0,244.0,2449.609
2449619.0,253.0,33.0,4.0,239.0,2449.619
2449629.0,267.0,33.0,3.0,240.0,2449.629
2449639.0,250.0,33.0,4.0,231.0,2449.639
2449649.0,256.0,33.0,4.0,240.0,2449.649
2449659.0,265.0,33.0,3.0,245.0,2449.659
2449669.0,252.0,33.0,4.0,240.0,2449.669
2449679.0,264.0,33.0,5.0,238.0,2449.679
2449689.0,248.0,33.0,3.0,232.0,2449.689
2449699.0,256.0,33.0,4.0,240.0,2449.699
2449709.0,262.0,33.0,4.0,243.0,2449.709
2449719.0,250.0,33.0,4.0,240.0,2449.719
2449729.0,262.0,34.0,3.0,239.0,2449.729
2449739.0,247.0,32.0,4.0,232.0,2449.739
2449750.0,254.0,33.0,4.0,241.0,2449.75
2449760.0,267.0,33.0,5.0,244.0,2449.76
2449770.0,248.0,33.0,4.0,236.0,2449.77
2449780.0,258.0,33.0,4.0,236.0,2449.78
2449790.0,253.0,33.0,4.0,239.0,2449.79
2449800.0,253.0,33.0,3.0,242.0,2449.8
2449810.0,264.0,33.0,4.0,244.0,2449.81
2449820.0,246.0,33.0,5.0,237.0,2449.82
2449830.0,256.0,33.0,4.0,238.0,2449.83
2449840.0,246.0,33.0,4.0,235.0,2449.84
2449850.0,253.0,33.0,4.0,245.0,2449.85
2449860.0,263.0,34.0,3.0,245.0,2449.86
2449870.0,245.0,33.0,4.0,238.0,2449.87
2449880.0,257.0,33.0,4.0,240.0,2449.88
2449890.0,248.0,33.0,5.0,235.0,2449.89
2449900.0,252.0,33.0,4.0,245.0,2449.9
2449910.0,263.0,33.0,4.0,244.0,2449.91
2449920.0,246.0,33.0,4.0,241.0,2449.92
2449930.0,257.0,32.0,3.0,241.0,2449.93
2449940.0,249.0,32.0,3.0,239.0,2449.94
2449950.0,252.0,33.0,4.0,246.0,2449.95
2449960.0,262.0,33.0,4.0,244.0,2449.96
2449970.0,245.0,32.0,5.0,241.0,2449.97
2449980.0,254.0,33.0,4.0,242.0,2449.98
2449990.0,248.0,32.0,4.0,241.0,2449.99
2450000.0,248.0,32.0,4.0,246.0,2450.0
2450010.0,259.0,33.0,3.0,247.0,2450.01
2450020.0,243.0,33.0,4.0,241.0,2450.02
2450030.0,250.0,33.0,4.0,241.0,2450.03
2450040.0,246.0,32.0,4.0,241.0,2450.04
2450050.0,247.0,32.0,4.0,247.0,2450.05
2450060.0,256.0,32.0,4.0,247.0,2450.06
2450070.0,239.0,32.0,4.0,240.0,2450.07
2450080.0,248.0,32.0,5.0,241.0,2450.08
2450091.0,245.0,32.0,4.0,245.0,2450.091
2450101.0,242.0,32.0,4.0,247.0,2450.101
2450111.0,253.0,33.0,3.0,245.0,2450.111
2450121.0,235.0,32.0,4.0,236.0,2450.121
2450131.0,242.0,32.0,4.0,242.0,2450.131
2450141.0,245.0,32.0,4.0,245.0,2450.141
2450151.0,242.0,31.0,4.0,247.0,2450.151
2450161.0,253.0,32.0,4.0,243.0,2450.161
2450171.0,236.0,32.0,4.0,236.0,2450.171
2450181.0,243.0,32.0,3.0,240.0,2450.181
2450191.0,246.0,32.0,5.0,244.0,2450.191
2450201.0,239.0,31.0,4.0,245.0,2450.201
2450211.0,249.0,31.0,4.0,243.0,2450.211
2450221.0,232.0,31.0,4.0,238.0,2450.221
2450231.0,240.0,32.0,4.0,240.0,2450.231
2450241.0,244.0,32.0,3.0,247.0,2450.241
2450251.0,236.0,30.0,4.0,243.0,2450.251
2450262.0,245.0,31.0,3.0,242.0,2450.262
2450272.0,230.0,31.0,5.0,232.0,2450.272
2450282.0,236.0,31.0,3.0,241.0,2450.282
2450292.0,245.0,31.0,4.0,244.0,2450.292
2450302.0,231.0,32.0,3.0,240.0,2450.302
2450312.0,243.0,31.0,3.0,240.0,2450.312
2450322.0,228.0,30.0,4.0,231.0,2450.322
2450332.0,235.0,31.0,5.0,242.0,2450.332
2450342.0,245.0,31.0,4.0,246.0,2450.342
2450352.0,231.0,31.0,4.0,242.0,2450.352
2450362.0,241.0,31.0,4.0,240.0,2450.362
2450372.0,227.0,31.0,3.0,233.0,2450.372
2450382.0,234.0,31.0,4.0,242.0,2450.382
2450392.0,242.0,31.0,3.0,244.0,2450.392
2450402.0,231.0,31.0,5.0,240.0,2450.402
2450412.0,240.0,31.0,4.0,240.0,2450.412
2450422.0,227.0,30.0,4.0,233.0,2450.422
2450432.0,233.0,31.0,4.0,241.0,2450.432
2450442.0,242.0,32.0,3.0,246.0,2450.442
2450452.0,229.0,30.0,4.0,241.0,2450.452
2450462.0,237.0,31.0,4.0,240.0,2450.462
2450472.0,227.0,31.0,4.0,235.0,2450.472
2450482.0,230.0,31.0,3.0,240.0,2450.482
2450492.0,240.0,31.0,4.0,245.0,2450.492
2450502.0,226.0,32.0,3.0,240.0,2450.502
2450512.0,235.0,32.0,4.0,239.0,2450.512
2450522.0,223.0,31.0,4.0,232.0,2450.522
2450532.0,230.0,31.0,4.0,241.0,2450.532
2450542.0,238.0,32.0,3.0,245.0,2450.542
2450552.0,225.0,31.0,4.0,239.0,2450.552
2450562.0,236.0,32.0,4.0,241.0,2450.562
2450572.0,221.0,31.0,4.0,232.0,2450.572
2450582.0,229.0,31.0,4.0,242.0,2450.582
2450592.0,237.0,32.0,4.0,246.0,2450.592
2450603.0,224.0,31.0,4.0,239.0,2450.603
2450613.0,231.0,32.0,4.0,239.0,2450.613
2450623.0,226.0,31.0,4.0,240.0,2450.623
2450633.0,227.0,32.0,3.0,246.0,2450.633
2450643.0,238.0,32.0,3.0,245.0,2450.643
2450653.0,222.0,32.0,3.0,240.0,2450.653
2450663.0,230.0,32.0,4.0,241.0,2450.663
2450673.0,226.0,32.0,3.0,242.0,2450.673
2450683.0,228.0,32.0,4.0,245.0,2450.683
2450693.0,236.0,32.0,4.0,247.0,2450.693
2450703.0,221.0,32.0,3.0,239.0,2450.703
2450713.0,227.0,32.0,4.0,240.0,2450.713
2450723.0,228.0,31.0,5.0,243.0,2450.723
2450733.0,228.0,32.0,4.0,247.0,2450.733
2450743.0,236.0,33.0,4.0,246.0,2450.743
2450753.0,221.0,32.0,3.0,239.0,2450.753
2450763.0,228.0,32.0,4.0,239.0,2450.763
2450774.0,229.0,32.0,4.0,243.0,2450.774
2450784.0,227.0,32.0,5.0,245.0,2450.784
2450794.0,234.0,31.0,4.0,243.0,2450.794
2450804.0,219.0,32.0,4.0,235.0,2450.804
2450814.0,223.0,32.0,4.0,242.0,2450.814
2450824.0,228.0,33.0,4.0,244.0,2450.824
2450834.0,224.0,32.0,4.0,246.0,2450.834
2450844.0,231.0,33.0,4.0,243.0,2450.844
2450854.0,217.0,32.0,4.0,237.0,2450.854
2450864.0,222.0,33.0,4.0,241.0,2450.864
2450874.0,227.0,33.0,4.0,246.0,2450.874
2450884.0,221.0,33.0,3.0,245.0,2450.884
2450894.0,229.0,32.0,4.0,243.0,2450.894
2450904.0,217.0,32.0,4.0,238.0,2450.904
2450914.0,223.0,32.0,5.0,240.0,2450.914
2450924.0,229.0,33.0,4.0,248.0,2450.924
2450934.0,221.0,32.0,4.0,247.0,2450.934
2450944.0,232.0,33.0,4.0,246.0,2450.944
2450954.0,219.0,33.0,3.0,239.0,2450.954
2450964.0,225.0,32.0,3.0,242.0,2450.964
2450974.0,231.0,33.0,5.0,248.0,2450.974
2450984.0,223.0,33.0,4.0,246.0,2450.984
2450994.0,233.0,33.0,4.0,245.0,2450.994
2451004.0,218.0,32.0,4.0,237.0,2451.004
2451014.0,224.0,34.0,3.0,243.0,2451.014
2451024.0,229.0,32.0,4.0,247.0,2451.024
2451034.0,223.0,33.0,4.0,247.0,2451.034
2451044.0,232.0,33.0,5.0,244.0,2451.044
2451054.0,217.0,32.0,4.0,243.0,2451.054
2451064.0,222.0,32.0,4.0,249.0,2451.064
2451074.0,224.0,33.0,4.0,252.0,2451.074
2451084.0,219.0,32.0,4.0,248.0,2451.084
2451094.0,227.0,33.0,4.0,235.0,2451.094
2451104.0,213.0,33.0,5.0,229.0,2451.104
2451115.0,220.0,31.0,4.0,238.0,2451.115
2451125.0,229.0,33.0,4.0,241.0,2451.125
2451135.0,219.0,33.0,4.0,241.0,2451.135
2451145.0,228.0,33.0,3.0,244.0,2451.145
2451155.0,219.0,32.0,4.0,236.0,2451.155
2451165.0,225.0,32.0,4.0,241.0,2451.165
2451175.0,234.0,33.0,4.0,247.0,2451.175
2451185.0,221.0,33.0,4.0,244.0,2451.185
2451195.0,228.0,32.0,4.0,245.0,2451.195
2451205.0,226.0,33.0,4.0,243.0,2451.205
2451215.0,231.0,32.0,4.0,252.0,2451.215
2451225.0,240.0,32.0,4.0,251.0,2451.225
2451235.0,227.0,32.0,5.0,241.0,2451.235
2451245.0,236.0,32.0,4.0,238.0,2451.245
2451255.0,228.0,32.0,4.0,228.0,2451.255
2451265.0,241.0,33.0,4.0,231.0,2451.265
2451275.0,258.0,33.0,3.0,231.0,2451.275
2451286.0,244.0,32.0,4.0,228.0,2451.286
2451296.0,249.0,33.0,4.0,237.0,2451.296
2451306.0,255.0,32.0,4.0,248.0,2451.306
2451316.0,256.0,32.0,4.0,251.0,2451.316
2451326.0,258.0,33.0,4.0,259.0,2451.326
2451336.0,245.0,33.0,3.0,258.0,2451.336
2451346.0,252.0,32.0,4.0,263.0,2451.346
2451356.0,249.0,33.0,4.0,262.0,2451.356
2451366.0,253.0,33.0,4.0,257.0,2451.366
2451376.0,267.0,33.0,4.0,273.0,2451.376
2451386.0,254.0,32.0,4.0,267.0,2451.386
2451396.0,253.0,34.0,3.0,269.0,2451.396
2451406.0,251.0,32.0,4.0,268.0,2451.406
2451416.0,249.0,33.0,4.0,275.0,2451.416
2451426.0,253.0,33.0,4.0,284.0,2451.426
2451436.0,236.0,31.0,4.0,269.0,2451.436
2451446.0,237.0,32.0,4.0,272.0,2451.446
2451456.0,230.0,31.0,4.0,267.0,2451.456
2451466.0,232.0,32.0,3.0,267.0,2451.466
2451476.0,238.0,32.0,4.0,268.0,2451.476
2451486.0,221.0,32.0,4.0,261.0,2451.486
2451496.0,223.0,32.0,4.0,260.0,2451.496
2451506.0,219.0,32.0,4.0,265.0,2451.506
2451516.0,225.0,32.0,4.0,268.0,2451.516
2451526.0,230.0,33.0,3.0,269.0,2451.526
2451536.0,214.0,32.0,4.0,254.0,2451.536
2451546.0,226.0,33.0,3.0,261.0,2451.546
2451556.0,233.0,32.0,5.0,265.0,2451.556
2451566.0,234.0,32.0,4.0,267.0,2451.566
2451576.0,238.0,33.0,4.0,263.0,2451.576
2451586.0,225.0,33.0,4.0,258.0,2451.586
2451596.0,229.0,33.0,3.0,258.0,2451.596
2451606.0,231.0,32.0,4.0,259.0,2451.606
2451616.0,233.0,33.0,4.0,258.0,2451.616
2451627.0,237.0,33.0,4.0,255.0,2451.627
2451637.0,221.0,32.0,4.0,251.0,2451.637
2451647.0,223.0,32.0,4.0,259.0,2451.647
2451657.0,229.0,33.0,4.0,262.0,2451.657
2451667.0,223.0,32.0,4.0,260.0,2451.667
2451677.0,233.0,33.0,4.0,264.0,2451.677
2451687.0,220.0,33.0,5.0,251.0,2451.687
2451697.0,224.0,33.0,4.0,248.0,2451.697
2451707.0,241.0,33.0,3.0,257.0,2451.707
2451717.0,234.0,32.0,4.0,255.0,2451.717
2451727.0,239.0,33.0,4.0,249.0,2451.727
2451737.0,225.0,32.0,4.0,243.0,2451.737
2451747.0,229.0,32.0,5.0,249.0,2451.747
2451757.0,234.0,33.0,4.0,254.0,2451.757
2451767.0,226.0,33.0,4.0,249.0,2451.767
2451777.0,229.0,33.0,4.0,247.0,2451.777
2451787.0,213.0,32.0,4.0,240.0,2451.787
2451798.0,214.0,32.0,4.0,248.0,2451.798
2451808.0,225.0,33.0,5.0,257.0,2451.808
2451818.0,216.0,33.0,4.0,252.0,2451.818
2451828.0,224.0,33.0,4.0,255.0,2451.828
2451838.0,219.0,32.0,4.0,264.0,2451.838
2451848.0,226.0,34.0,3.0,268.0,2451.848
2451858.0,236.0,32.0,4.0,267.0,2451.858
2451868.0,224.0,32.0,4.0,258.0,2451.868
2451878.0,228.0,33.0,5.0,259.0,2451.878
2451888.0,220.0,32.0,4.0,251.0,2451.888
2451898.0,229.0,32.0,4.0,260.0,2451.898
2451908.0,235.0,33.0,3.0,263.0,2451.908
2451918.0,223.0,32.0,4.0,254.0,2451.918
2451928.0,233.0,32.0,4.0,255.0,2451.928
2451938.0,222.0,33.0,4.0,247.0,2451.938
2451948.0,229.0,33.0,4.0,250.0,2451.948
2451958.0,233.0,33.0,4.0,247.0,2451.958
2451968.0,225.0,32.0,4.0,243.0,2451.968
2451978.0,230.0,34.0,3.0,245.0,2451.978
2451988.0,223.0,32.0,4.0,238.0,2451.988
2451998.0,225.0,33.0,3.0,245.0,2451.998
2452008.0,231.0,33.0,5.0,241.0,2452.008
2452018.0,219.0,32.0,4.0,239.0,2452.018
2452028.0,222.0,33.0,4.0,240.0,2452.028
2452038.0,216.0,33.0,3.0,245.0,2452.038
2452048.0,225.0,32.0,4.0,247.0,2452.048
2452058.0,229.0,33.0,3.0,249.0,2452.058
2452068.0,223.0,33.0,5.0,248.0,2452.068
2452078.0,228.0,33.0,4.0,247.0,2452.078
2452088.0,219.0,33.0,4.0,243.0,2452.088
2452098.0,224.0,33.0,4.0,246.0,2452.098
2452108.0,230.0,34.0,3.0,248.0,2452.108
2452118.0,219.0,33.0,4.0,242.0,2452.118
2452128.0,225.0,33.0,4.0,247.0,2452.128
2452139.0,225.0,33.0,4.0,254.0,2452.139
2452149.0,225.0,32.0,4.0,261.0,2452.149
2452159.0,229.0,33.0,4.0,258.0,2452.159
2452169.0,213.0,33.0,3.0,248.0,2452.169
2452179.0,223.0,32.0,4.0,249.0,2452.179
2452189.0,226.0,35.0,3.0,257.0,2452.189
2452199.0,228.0,33.0,5.0,258.0,2452.199
2452209.0,231.0,33.0,4.0,255.0,2452.209
2452219.0,219.0,33.0,3.0,246.0,2452.219
2452229.0,228.0,32.0,3.0,249.0,2452.229
2452239.0,229.0,33.0,4.0,250.0,2452.239
2452249.0,227.0,33.0,4.0,251.0,2452.249
2452259.0,231.0,33.0,4.0,247.0,2452.259
2452269.0,220.0,33.0,3.0,243.0,2452.269
2452279.0,225.0,33.0,4.0,245.0,2452.279
2452289.0,232.0,33.0,4.0,246.0,2452.289
2452299.0,231.0,34.0,3.0,250.0,2452.299
2452310.0,234.0,33.0,4.0,253.0,2452.31
2452320.0,224.0,33.0,4.0,249.0,2452.32
2452330.0,225.0,33.0,4.0,251.0,2452.33
2452340.0,232.0,33.0,4.0,253.0,2452.34
2452350.0,223.0,33.0,4.0,242.0,2452.35
2452360.0,230.0,34.0,3.0,239.0,2452.36
2452370.0,220.0,32.0,4.0,233.0,2452.37
2452380.0,227.0,34.0,4.0,244.0,2452.38
2452390.0,235.0,34.0,4.0,254.0,2452.39
2452400.0,228.0,33.0,4.0,250.0,2452.4
2452410.0,228.0,33.0,4.0,248.0,2452.41
2452420.0,213.0,33.0,4.0,238.0,2452.42
2452430.0,221.0,33.0,4.0,247.0,2452.43
2452440.0,224.0,34.0,4.0,248.0,2452.44
2452450.0,220.0,33.0,4.0,242.0,2452.45
2452460.0,224.0,33.0,4.0,240.0,2452.46
2452470.0,214.0,33.0,4.0,229.0,2452.47
2452480.0,220.0,33.0,4.0,240.0,2452.48
2452490.0,224.0,34.0,4.0,249.0,2452.49
2452500.0,216.0,32.0,4.0,245.0,2452.5
2452510.0,219.0,34.0,4.0,242.0,2452.51
2452520.0,207.0,33.0,5.0,232.0,2452.52
2452530.0,212.0,33.0,3.0,237.0,2452.53
2452540.0,222.0,33.0,4.0,245.0,2452.54
2452550.0,213.0,34.0,3.0,235.0,2452.55
2452560.0,218.0,34.0,4.0,234.0,2452.56
2452570.0,211.0,33.0,4.0,229.0,2452.57
2452580.0,215.0,33.0,5.0,236.0,2452.58
2452590.0,227.0,34.0,4.0,244.0,2452.59
2452600.0,222.0,33.0,4.0,245.0,2452.6
2452610.0,227.0,33.0,3.0,241.0,2452.61
2452620.0,213.0,34.0,3.0,229.0,2452.62
2452630.0,219.0,33.0,4.0,236.0,2452.63
2452640.0,227.0,34.0,4.0,241.0,2452.64
2452651.0,217.0,33.0,4.0,233.0,2452.651
2452661.0,222.0,34.0,2.0,235.0,2452.661
2452671.0,215.0,33.0,4.0,233.0,2452.671
2452681.0,222.0,34.0,3.0,244.0,2452.681
2452691.0,226.0,34.0,4.0,243.0,2452.691
2452701.0,216.0,34.0,4.0,239.0,2452.701
2452711.0,221.0,33.0,5.0,237.0,2452.711
2452721.0,215.0,34.0,4.0,235.0,2452.721
2452731.0,221.0,33.0,4.0,246.0,2452.731
2452741.0,227.0,34.0,3.0,251.0,2452.741
2452751.0,217.0,34.0,3.0,244.0,2452.751
2452761.0,221.0,34.0,4.0,242.0,2452.761
2452771.0,217.0,33.0,4.0,241.0,2452.771
2452781.0,219.0,33.0,5.0,244.0,2452.781
2452791.0,226.0,34.0,4.0,248.0,2452.791
2452801.0,216.0,33.0,4.0,242.0,2452.801
2452811.0,220.0,35.0,3.0,243.0,2452.811
2452822.0,218.0,32.0,4.0,244.0,2452.822
2452832.0,221.0,33.0,4.0,251.0,2452.832
2452842.0,228.0,33.0,5.0,247.0,2452.842
2452852.0,214.0,33.0,3.0,243.0,2452.852
2452862.0,220.0,33.0,4.0,245.0,2452.862
2452872.0,222.0,33.0,4.0,252.0,2452.872
2452882.0,223.0,33.0,4.0,256.0,2452.882
2452892.0,228.0,33.0,4.0,251.0,2452.892
2452902.0,216.0,33.0,5.0,244.0,2452.902
2452912.0,220.0,33.0,3.0,242.0,2452.912
2452922.0,220.0,33.0,4.0,249.0,2452.922
2452932.0,222.0,33.0,4.0,254.0,2452.932
2452942.0,227.0,34.0,3.0,260.0,2452.942
2452952.0,215.0,33.0,4.0,256.0,2452.952
2452962.0,221.0,33.0,4.0,267.0,2452.962
2452972.0,223.0,33.0,4.0,265.0,2452.972
2452982.0,221.0,34.0,4.0,262.0,2452.982
2452992.0,231.0,33.0,4.0,260.0,2452.992
2453002.0,215.0,34.0,3.0,256.0,2453.002
2453012.0,220.0,32.0,4.0,248.0,2453.012
2453022.0,221.0,33.0,4.0,255.0,2453.022
2453032.0,220.0,33.0,4.0,255.0,2453.032
2453042.0,228.0,34.0,3.0,250.0,2453.042
2453052.0,215.0,33.0,4.0,243.0,2453.052
2453062.0,220.0,34.0,4.0,249.0,2453.062
2453072.0,223.0,34.0,4.0,254.0,2453.072
2453082.0,222.0,33.0,4.0,257.0,2453.082
2453092.0,228.0,33.0,5.0,258.0,2453.092
2453102.0,216.0,33.0,4.0,255.0,2453.102
2453112.0,218.0,34.0,3.0,252.0,2453.112
2453122.0,221.0,33.0,4.0,251.0,2453.122
2453132.0,222.0,34.0,3.0,253.0,2453.132
2453142.0,227.0,34.0,4.0,246.0,2453.142
2453152.0,213.0,33.0,3.0,241.0,2453.152
2453163.0,218.0,33.0,5.0,245.0,2453.163
2453173.0,224.0,33.0,4.0,252.0,2453.173
2453183.0,218.0,32.0,4.0,248.0,2453.183
2453193.0,222.0,35.0,3.0,248.0,2453.193
2453203.0,211.0,32.0,4.0,250.0,2453.203
2453213.0,217.0,33.0,4.0,256.0,2453.213
2453223.0,224.0,33.0,5.0,257.0,2453.223
2453233.0,216.0,33.0,4.0,250.0,2453.233
2453243.0,219.0,33.0,4.0,248.0,2453.243
2453253.0,210.0,33.0,4.0,244.0,2453.253
2453263.0,216.0,33.0,3.0,249.0,2453.263
2453273.0,224.0,33.0,4.0,256.0,2453.273
2453283.0,213.0,33.0,3.0,252.0,2453.283
2453293.0,221.0,33.0,4.0,252.0,2453.293
2453303.0,210.0,33.0,4.0,244.0,2453.303
2453313.0,216.0,33.0,4.0,252.0,2453.313
2453323.0,224.0,34.0,3.0,256.0,2453.323
2453334.0,213.0,34.0,4.0,251.0,2453.334
2453344.0,218.0,33.0,3.0,251.0,2453.344
2453354.0,214.0,33.0,5.0,248.0,2453.354
2453364.0,219.0,33.0,4.0,253.0,2453.364
2453374.0,225.0,33.0,4.0,251.0,2453.374
2453384.0,213.0,34.0,3.0,248.0,2453.384
2453394.0,219.0,34.0,3.0,245.0,2453.394
2453404.0,214.0,34.0,4.0,245.0,2453.404
2453414.0,218.0,33.0,5.0,251.0,2453.414
2453424.0,224.0,33.0,4.0,251.0,2453.424
2453434.0,213.0,33.0,4.0,246.0,2453.434
2453444.0,217.0,33.0,4.0,244.0,2453.444
2453454.0,214.0,33.0,3.0,243.0,2453.454
2453464.0,218.0,32.0,4.0,247.0,2453.464
2453474.0,224.0,33.0,4.0,252.0,2453.474
2453484.0,213.0,33.0,5.0,247.0,2453.484
2453494.0,216.0,33.0,4.0,247.0,2453.494
2453504.0,210.0,33.0,5.0,242.0,2453.504
2453514.0,216.0,34.0,3.0,251.0,2453.514
2453524.0,223.0,32.0,4.0,250.0,2453.524
2453534.0,212.0,33.0,3.0,245.0,2453.534
2453544.0,217.0,32.0,5.0,244.0,2453.544
2453554.0,211.0,33.0,4.0,243.0,2453.554
2453564.0,219.0,33.0,4.0,253.0,2453.564
2453574.0,225.0,33.0,4.0,258.0,2453.574
2453584.0,211.0,33.0,3.0,248.0,2453.584
2453594.0,219.0,32.0,4.0,247.0,2453.594
2453604.0,212.0,33.0,4.0,243.0,2453.604
2453614.0,220.0,32.0,5.0,251.0,2453.614
2453624.0,224.0,33.0,4.0,250.0,2453.624
2453634.0,214.0,32.0,4.0,246.0,2453.634
2453644.0,218.0,33.0,3.0,246.0,2453.644
2453654.0,214.0,32.0,4.0,246.0,2453.654
2453664.0,218.0,32.0,4.0,251.0,2453.664
2453675.0,225.0,33.0,5.0,250.0,2453.675
2453685.0,212.0,32.0,4.0,242.0,2453.685
2453695.0,215.0,33.0,3.0,243.0,2453.695
2453705.0,219.0,34.0,3.0,250.0,2453.705
2453715.0,217.0,32.0,4.0,249.0,2453.715
2453725.0,223.0,33.0,3.0,249.0,2453.725
2453735.0,211.0,32.0,4.0,242.0,2453.735
2453745.0,215.0,33.0,4.0,246.0,2453.745
2453755.0,221.0,33.0,3.0,252.0,2453.755
2453765.0,219.0,32.0,4.0,251.0,2453.765
2453775.0,223.0,33.0,3.0,250.0,2453.775
2453785.0,211.0,32.0,4.0,241.0,2453.785
2453795.0,215.0,32.0,4.0,245.0,2453.795
2453805.0,217.0,33.0,4.0,249.0,2453.805
2453815.0,218.0,32.0,4.0,250.0,2453.815
2453825.0,222.0,33.0,4.0,245.0,2453.825
2453835.0,209.0,32.0,3.0,239.0,2453.835
2453846.0,214.0,32.0,4.0,242.0,2453.846
2453856.0,221.0,33.0,3.0,248.0,2453.856
2453866.0,215.0,32.0,4.0,244.0,2453.866
2453876.0,218.0,33.0,2.0,242.0,2453.876
2453886.0,209.0,32.0,4.0,236.0,2453.886
2453896.0,214.0,32.0,4.0,243.0,2453.896
2453906.0,222.0,32.0,4.0,245.0,2453.906
2453916.0,213.0,32.0,4.0,240.0,2453.916
2453926.0,216.0,32.0,4.0,239.0,2453.926
2453936.0,208.0,31.0,5.0,233.0,2453.936
2453946.0,214.0,33.0,4.0,241.0,2453.946
2453956.0,221.0,32.0,4.0,246.0,2453.956
2453966.0,212.0,32.0,3.0,243.0,2453.966
2453976.0,217.0,32.0,4.0,244.0,2453.976
2453986.0,207.0,32.0,4.0,236.0,2453.986
2453996.0,214.0,33.0,4.0,245.0,2453.996
2454006.0,222.0,33.0,4.0,252.0,2454.006
2454016.0,216.0,32.0,5.0,248.0,2454.016
2454026.0,219.0,33.0,4.0,247.0,2454.026
2454036.0,208.0,32.0,3.0,238.0,2454.036
2454046.0,216.0,32.0,3.0,247.0,2454.046
2454056.0,221.0,32.0,5.0,250.0,2454.056
2454066.0,214.0,31.0,4.0,246.0,2454.066
2454076.0,217.0,32.0,3.0,245.0,2454.076
2454086.0,207.0,33.0,4.0,238.0,2454.086
2454096.0,214.0,32.0,3.0,245.0,2454.096
2454106.0,219.0,33.0,4.0,247.0,2454.106
2454116.0,213.0,32.0,4.0,243.0,2454.116
2454126.0,217.0,32.0,5.0,242.0,2454.126
2454136.0,207.0,32.0,4.0,237.0,2454.136
2454146.0,212.0,33.0,3.0,242.0,2454.146
2454156.0,219.0,33.0,3.0,247.0,2454.156
2454166.0,213.0,32.0,4.0,242.0,2454.166
2454176.0,215.0,32.0,4.0,240.0,2454.176
2454187.0,208.0,33.0,5.0,236.0,2454.187
2454197.0,215.0,32.0,4.0,247.0,2454.197
2454207.0,221.0,32.0,4.0,245.0,2454.207
2454217.0,209.0,33.0,3.0,240.0,2454.217
2454227.0,213.0,32.0,3.0,240.0,2454.227
2454237.0,209.0,32.0,4.0,237.0,2454.237
2454247.0,215.0,33.0,4.0,245.0,2454.247
2454257.0,221.0,33.0,4.0,244.0,2454.257
2454267.0,209.0,32.0,4.0,238.0,2454.267
2454277.0,215.0,33.0,4.0,239.0,2454.277
2454287.0,210.0,33.0,3.0,241.0,2454.287
2454297.0,216.0,32.0,4.0,247.0,2454.297
2454307.0,220.0,33.0,4.0,245.0,2454.307
2454317.0,211.0,32.0,3.0,243.0,2454.317
2454327.0,214.0,33.0,4.0,242.0,2454.327
2454337.0,211.0,33.0,4.0,242.0,2454.337
2454347.0,216.0,34.0,3.0,249.0,2454.347
2454358.0,220.0,33.0,3.0,244.0,2454.358
2454368.0,208.0,32.0,4.0,237.0,2454.368
2454378.0,213.0,33.0,5.0,240.0,2454.378
2454388.0,218.0,33.0,4.0,249.0,2454.388
2454398.0,214.0,33.0,3.0,246.0,2454.398
2454408.0,220.0,33.0,4.0,245.0,2454.408
2454418.0,209.0,33.0,3.0,238.0,2454.418
2454428.0,213.0,33.0,4.0,243.0,2454.428
2454438.0,219.0,33.0,4.0,248.0,2454.438
2454448.0,217.0,32.0,4.0,247.0,2454.448
2454458.0,220.0,33.0,4.0,244.0,2454.458
2454468.0,209.0,32.0,4.0,237.0,2454.468
2454478.0,213.0,34.0,3.0,244.0,2454.478
2454488.0,215.0,34.0,4.0,244.0,2454.488
2454498.0,216.0,32.0,3.0,246.0,2454.498
2454508.0,218.0,33.0,4.0,242.0,2454.508
2454518.0,208.0,33.0,2.0,235.0,2454.518
2454528.0,213.0,33.0,4.0,239.0,2454.528
2454538.0,217.0,33.0,3.0,245.0,2454.538
2454548.0,216.0,32.0,4.0,244.0,2454.548
2454558.0,220.0,33.0,4.0,242.0,2454.558
2454568.0,209.0,33.0,5.0,235.0,2454.568
2454578.0,214.0,33.0,4.0,238.0,2454.578
2454588.0,218.0,33.0,3.0,245.0,2454.588
2454598.0,217.0,32.0,4.0,244.0,2454.598
2454608.0,219.0,33.0,3.0,241.0,2454.608
2454618.0,211.0,32.0,3.0,236.0,2454.618
2454628.0,213.0,33.0,3.0,240.0,2454.628
2454638.0,221.0,33.0,4.0,248.0,2454.638
2454648.0,215.0,33.0,4.0,245.0,2454.648
2454658.0,221.0,32.0,4.0,243.0,2454.658
2454668.0,210.0,32.0,3.0,236.0,2454.668
2454678.0,213.0,32.0,3.0,240.0,2454.678
2454688.0,220.0,32.0,4.0,247.0,2454.688
2454699.0,216.0,33.0,4.0,244.0,2454.699
2454709.0,217.0,33.0,4.0,243.0,2454.709
2454719.0,207.0,32.0,4.0,235.0,2454.719
2454729.0,215.0,33.0,3.0,246.0,2454.729
2454739.0,220.0,33.0,3.0,246.0,2454.739
2454749.0,214.0,32.0,4.0,243.0,2454.749
2454759.0,215.0,32.0,4.0,242.0,2454.759
2454769.0,208.0,32.0,4.0,235.0,2454.769
2454779.0,215.0,33.0,4.0,246.0,2454.779
2454789.0,220.0,32.0,4.0,247.0,2454.789
2454799.0,213.0,33.0,3.0,244.0,2454.799
2454809.0,216.0,32.0,3.0,242.0,2454.809
2454819.0,208.0,33.0,4.0,238.0,2454.819
2454829.0,213.0,33.0,5.0,243.0,2454.829
2454839.0,220.0,33.0,3.0,249.0,2454.839
2454849.0,214.0,32.0,4.0,241.0,2454.849
2454859.0,215.0,33.0,4.0,242.0,2454.859
2454870.0,209.0,32.0,4.0,239.0,2454.87
2454880.0,217.0,32.0,3.0,248.0,2454.88
2454890.0,220.0,32.0,4.0,247.0,2454.89
2454900.0,211.0,33.0,3.0,238.0,2454.9
2454910.0,213.0,33.0,4.0,239.0,2454.91
2454920.0,210.0,32.0,4.0,238.0,2454.92
2454930.0,218.0,33.0,3.0,246.0,2454.93
2454940.0,220.0,32.0,4.0,246.0,2454.94
2454950.0,210.0,32.0,3.0,236.0,2454.95
2454960.0,215.0,33.0,5.0,239.0,2454.96
2454970.0,211.0,33.0,3.0,239.0,2454.97
2454980.0,217.0,33.0,3.0,244.0,2454.98
2454990.0,219.0,34.0,3.0,243.0,2454.99
2455000.0,213.0,32.0,4.0,236.0,2455.0
2455010.0,213.0,33.0,3.0,239.0,2455.01
2455020.0,212.0,33.0,4.0,240.0,2455.02
2455030.0,218.0,32.0,4.0,244.0,2455.03
2455040.0,220.0,33.0,4.0,245.0,2455.04
2455050.0,213.0,32.0,4.0,237.0,2455.05
2455060.0,215.0,33.0,4.0,239.0,2455.06
2455070.0,215.0,32.0,4.0,241.0,2455.07
2455080.0,219.0,33.0,4.0,245.0,2455.08
2455090.0,222.0,33.0,4.0,248.0,2455.09
2455100.0,212.0,33.0,3.0,239.0,2455.1
2455110.0,215.0,33.0,4.0,240.0,2455.11
2455120.0,217.0,34.0,3.0,243.0,2455.12
2455130.0,219.0,32.0,4.0,246.0,2455.13
2455140.0,222.0,33.0,3.0,245.0,2455.14
2455150.0,214.0,32.0,5.0,237.0,2455.15
2455160.0,216.0,33.0,4.0,239.0,2455.16
2455170.0,213.0,32.0,4.0,238.0,2455.17
2455180.0,220.0,32.0,4.0,247.0,2455.18
2455190.0,221.0,33.0,4.0,245.0,2455.19
2455200.0,212.0,32.0,4.0,238.0,2455.2
2455211.0,215.0,33.0,4.0,241.0,2455.211
2455221.0,219.0,33.0,4.0,247.0,2455.221
2455231.0,218.0,32.0,4.0,247.0,2455.231
2455241.0,219.0,33.0,4.0,245.0,2455.241
2455251.0,210.0,33.0,3.0,237.0,2455.251
2455261.0,215.0,32.0,4.0,242.0,2455.261
2455271.0,220.0,33.0,3.0,250.0,2455.271
2455281.0,220.0,33.0,4.0,249.0,2455.281
2455291.0,220.0,33.0,4.0,246.0,2455.291
2455301.0,212.0,32.0,4.0,240.0,2455.301
2455311.0,215.0,33.0,3.0,245.0,2455.311
2455321.0,222.0,32.0,4.0,250.0,2455.321
2455331.0,218.0,32.0,4.0,248.0,2455.331
2455341.0,221.0,33.0,5.0,248.0,2455.341
2455351.0,211.0,31.0,4.0,240.0,2455.351
2455361.0,215.0,32.0,3.0,245.0,2455.361
2455371.0,223.0,32.0,4.0,250.0,2455.371
2455382.0,219.0,33.0,3.0,248.0,2455.382
2455392.0,220.0,32.0,4.0,245.0,2455.392
2455402.0,212.0,33.0,4.0,239.0,2455.402
2455412.0,220.0,31.0,4.0,249.0,2455.412
2455422.0,224.0,33.0,4.0,250.0,2455.422
2455432.0,218.0,32.0,4.0,247.0,2455.432
2455442.0,219.0,33.0,3.0,246.0,2455.442
2455452.0,213.0,32.0,4.0,240.0,2455.452
2455462.0,221.0,32.0,3.0,250.0,2455.462
2455472.0,225.0,33.0,5.0,251.0,2455.472
2455482.0,218.0,32.0,4.0,247.0,2455.482
2455492.0,220.0,32.0,4.0,245.0,2455.492
2455502.0,214.0,33.0,3.0,244.0,2455.502
2455512.0,218.0,32.0,4.0,249.0,2455.512
2455522.0,223.0,32.0,4.0,252.0,2455.522
2455532.0,217.0,32.0,4.0,247.0,2455.532
2455542.0,219.0,33.0,4.0,246.0,2455.542
2455552.0,211.0,32.0,5.0,238.0,2455.552
2455562.0,219.0,33.0,4.0,248.0,2455.562
2455572.0,223.0,34.0,3.0,251.0,2455.572
2455582.0,217.0,32.0,4.0,246.0,2455.582
2455592.0,218.0,33.0,4.0,245.0,2455.592
2455602.0,213.0,33.0,4.0,240.0,2455.602
2455612.0,220.0,33.0,4.0,249.0,2455.612
2455622.0,225.0,33.0,4.0,251.0,2455.622
2455632.0,218.0,33.0,3.0,246.0,2455.632
2455642.0,220.0,33.0,4.0,246.0,2455.642
2455652.0,213.0,33.0,3.0,239.0,2455.652
2455662.0,222.0,32.0,5.0,250.0,2455.662
2455672.0,225.0,33.0,4.0,251.0,2455.672
2455682.0,220.0,33.0,3.0,248.0,2455.682
2455692.0,220.0,32.0,4.0,246.0,2455.692
2455702.0,213.0,33.0,4.0,242.0,2455.702
2455712.0,221.0,32.0,4.0,252.0,2455.712
2455723.0,224.0,33.0,4.0,252.0,2455.723
2455733.0,217.0,32.0,4.0,245.0,2455.733
2455743.0,218.0,33.0,4.0,245.0,2455.743
2455753.0,219.0,33.0,4.0,248.0,2455.753
2455763.0,221.0,34.0,3.0,250.0,2455.763
2455773.0,223.0,34.0,4.0,250.0,2455.773
2455783.0,215.0,33.0,4.0,243.0,2455.783
2455793.0,218.0,33.0,5.0,243.0,2455.793
2455803.0,220.0,33.0,4.0,248.0,2455.803
2455813.0,223.0,33.0,4.0,250.0,2455.813
2455823.0,224.0,35.0,4.0,249.0,2455.823
2455833.0,216.0,33.0,3.0,242.0,2455.833
2455843.0,218.0,33.0,4.0,243.0,2455.843
2455853.0,217.0,33.0,4.0,243.0,2455.853
2455863.0,224.0,33.0,4.0,250.0,2455.863
2455873.0,224.0,34.0,4.0,248.0,2455.873
2455883.0,216.0,32.0,4.0,240.0,2455.883
2455894.0,219.0,34.0,3.0,243.0,2455.894
2455904.0,223.0,34.0,4.0,249.0,2455.904
2455914.0,222.0,33.0,4.0,247.0,2455.914
2455924.0,223.0,34.0,4.0,245.0,2455.924
2455934.0,214.0,34.0,4.0,237.0,2455.934
2455944.0,219.0,33.0,4.0,242.0,2455.944
2455954.0,224.0,35.0,3.0,250.0,2455.954
2455964.0,222.0,33.0,4.0,246.0,2455.964
2455974.0,221.0,33.0,4.0,245.0,2455.974
2455984.0,216.0,33.0,5.0,239.0,2455.984
2455994.0,218.0,33.0,4.0,245.0,2455.994
2456004.0,224.0,33.0,4.0,250.0,2456.004
2456014.0,221.0,33.0,4.0,247.0,2456.014
2456024.0,222.0,34.0,3.0,246.0,2456.024
2456034.0,214.0,33.0,4.0,238.0,2456.034
2456044.0,219.0,33.0,4.0,243.0,2456.044
2456054.0,225.0,34.0,3.0,249.0,2456.054
2456064.0,222.0,33.0,4.0,248.0,2456.064
2456074.0,222.0,33.0,4.0,245.0,2456.074
2456084.0,213.0,34.0,3.0,237.0,2456.084
2456094.0,219.0,32.0,4.0,245.0,2456.094
2456104.0,224.0,34.0,4.0,250.0,2456.104
2456114.0,222.0,33.0,3.0,247.0,2456.114
2456124.0,221.0,34.0,4.0,245.0,2456.124
2456134.0,211.0,33.0,4.0,236.0,2456.134
2456144.0,218.0,34.0,3.0,246.0,2456.144
2456154.0,222.0,33.0,3.0,247.0,2456.154
2456164.0,220.0,33.0,4.0,245.0,2456.164
2456174.0,221.0,33.0,4.0,243.0,2456.174
2456184.0,212.0,33.0,4.0,235.0,2456.184
2456194.0,217.0,33.0,4.0,241.0,2456.194
2456204.0,224.0,33.0,3.0,250.0,2456.204
2456214.0,219.0,34.0,3.0,246.0,2456.214
2456224.0,222.0,33.0,4.0,244.0,2456.224
2456235.0,212.0,33.0,5.0,237.0,2456.235
2456245.0,220.0,33.0,4.0,247.0,2456.245
2456255.0,226.0,34.0,3.0,249.0,2456.255
2456265.0,216.0,32.0,4.0,241.0,2456.265
2456275.0,219.0,34.0,3.0,242.0,2456.275
2456285.0,211.0,32.0,4.0,237.0,2456.285
2456295.0,220.0,33.0,4.0,246.0,2456.295
2456305.0,227.0,33.0,5.0,247.0,2456.305
2456315.0,216.0,32.0,4.0,240.0,2456.315
2456325.0,221.0,33.0,3.0,243.0,2456.325
2456335.0,213.0,34.0,4.0,238.0,2456.335
2456345.0,220.0,33.0,4.0,246.0,2456.345
2456355.0,227.0,33.0,4.0,247.0,2456.355
2456365.0,217.0,33.0,4.0,243.0,2456.365
2456375.0,223.0,33.0,5.0,241.0,2456.375
2456385.0,214.0,33.0,4.0,237.0,2456.385
2456395.0,221.0,32.0,4.0,246.0,2456.395
2456406.0,226.0,34.0,3.0,247.0,2456.406
2456416.0,214.0,32.0,3.0,238.0,2456.416
2456426.0,217.0,33.0,4.0,240.0,2456.426
2456436.0,220.0,33.0,4.0,243.0,2456.436
2456446.0,220.0,33.0,4.0,245.0,2456.446
2456456.0,226.0,33.0,4.0,245.0,2456.456
2456466.0,214.0,33.0,3.0,239.0,2456.466
2456476.0,218.0,32.0,4.0,239.0,2456.476
2456486.0,221.0,33.0,4.0,245.0,2456.486
2456496.0,221.0,32.0,4.0,246.0,2456.496
2456506.0,225.0,34.0,4.0,244.0,2456.506
2456516.0,214.0,33.0,3.0,233.0,2456.516
2456526.0,218.0,33.0,4.0,238.0,2456.526
2456536.0,217.0,34.0,3.0,239.0,2456.536
2456546.0,222.0,33.0,3.0,244.0,2456.546
2456556.0,225.0,34.0,4.0,243.0,2456.556
2456566.0,215.0,33.0,4.0,235.0,2456.566
2456576.0,219.0,33.0,3.0,239.0,2456.576
2456586.0,218.0,33.0,4.0,241.0,2456.586
2456596.0,222.0,35.0,3.0,246.0,2456.596
2456606.0,223.0,34.0,4.0,242.0,2456.606
2456616.0,213.0,33.0,4.0,235.0,2456.616
2456626.0,219.0,34.0,4.0,240.0,2456.626
2456636.0,218.0,34.0,4.0,242.0,2456.636
2456646.0,221.0,33.0,4.0,245.0,2456.646
2456656.0,223.0,35.0,3.0,244.0,2456.656
2456666.0,214.0,33.0,3.0,237.0,2456.666
2456676.0,218.0,34.0,4.0,239.0,2456.676
2456686.0,220.0,34.0,4.0,243.0,2456.686
2456696.0,221.0,33.0,4.0,245.0,2456.696
2456706.0,224.0,34.0,3.0,244.0,2456.706
2456716.0,215.0,32.0,4.0,235.0,2456.716
2456726.0,218.0,34.0,3.0,238.0,2456.726
2456736.0,221.0,34.0,4.0,243.0,2456.736
2456747.0,221.0,33.0,4.0,243.0,2456.747
2456757.0,222.0,33.0,4.0,242.0,2456.757
2456767.0,212.0,34.0,2.0,234.0,2456.767
2456777.0,217.0,33.0,4.0,242.0,2456.777
2456787.0,224.0,34.0,3.0,248.0,2456.787
2456797.0,219.0,32.0,4.0,243.0,2456.797
2456807.0,220.0,33.0,4.0,242.0,2456.807
2456817.0,211.0,33.0,5.0,233.0,2456.817
2456827.0,218.0,33.0,4.0,242.0,2456.827
2456837.0,222.0,33.0,4.0,245.0,2456.837
2456847.0,219.0,32.0,4.0,244.0,2456.847
2456857.0,219.0,33.0,4.0,241.0,2456.857
2456867.0,210.0,33.0,4.0,234.0,2456.867
2456877.0,215.0,33.0,4.0,240.0,2456.877
2456887.0,223.0,33.0,4.0,248.0,2456.887
2456897.0,218.0,32.0,3.0,243.0,2456.897
2456907.0,220.0,33.0,3.0,242.0,2456.907
2456918.0,211.0,33.0,3.0,237.0,2456.918
2456928.0,219.0,32.0,4.0,245.0,2456.928
2456938.0,224.0,33.0,3.0,248.0,2456.938
2456948.0,216.0,32.0,5.0,241.0,2456.948
2456958.0,218.0,32.0,4.0,241.0,2456.958
2456968.0,211.0,32.0,4.0,237.0,2456.968
2456978.0,219.0,33.0,4.0,248.0,2456.978
2456988.0,224.0,33.0,3.0,249.0,2456.988
2456998.0,215.0,32.0,4.0,241.0,2456.998
2457008.0,219.0,33.0,4.0,243.0,2457.008
2457018.0,213.0,31.0,4.0,238.0,2457.018
2457028.0,220.0,32.0,4.0,248.0,2457.028
2457038.0,224.0,32.0,4.0,248.0,2457.038
2457048.0,216.0,32.0,3.0,244.0,2457.048
2457058.0,219.0,32.0,3.0,242.0,2457.058
2457068.0,212.0,32.0,4.0,240.0,2457.068
2457078.0,221.0,31.0,4.0,248.0,2457.078
2457088.0,224.0,32.0,4.0,249.0,2457.088
2457098.0,215.0,31.0,4.0,243.0,2457.098
2457108.0,218.0,33.0,3.0,243.0,2457.108
2457118.0,214.0,32.0,4.0,242.0,2457.118
2457128.0,220.0,32.0,4.0,248.0,2457.128
2457138.0,224.0,33.0,4.0,249.0,2457.138
2457148.0,215.0,31.0,3.0,242.0,2457.148
2457158.0,218.0,32.0,4.0,242.0,2457.158
2457168.0,215.0,32.0,4.0,244.0,2457.168
2457178.0,219.0,32.0,3.0,248.0,2457.178
2457188.0,223.0,32.0,4.0,249.0,2457.188
2457198.0,214.0,31.0,4.0,243.0,2457.198
2457208.0,218.0,31.0,4.0,243.0,2457.208
2457218.0,210.0,31.0,4.0,239.0,2457.218
2457228.0,219.0,31.0,4.0,248.0,2457.228
2457238.0,223.0,33.0,3.0,248.0,2457.238
2457248.0,214.0,31.0,3.0,240.0,2457.248
2457259.0,218.0,31.0,4.0,241.0,2457.259
2457269.0,218.0,31.0,5.0,243.0,2457.269
2457279.0,220.0,31.0,4.0,246.0,2457.279
2457289.0,222.0,32.0,4.0,244.0,2457.289
2457299.0,211.0,33.0,3.0,239.0,2457.299
2457309.0,217.0,32.0,4.0,241.0,2457.309
2457319.0,219.0,32.0,4.0,245.0,2457.319
2457329.0,220.0,32.0,4.0,248.0,2457.329
2457339.0,221.0,32.0,4.0,245.0,2457.339
2457349.0,214.0,32.0,4.0,241.0,2457.349
2457359.0,217.0,32.0,4.0,242.0,2457.359
2457369.0,219.0,33.0,3.0,246.0,2457.369
2457379.0,220.0,32.0,4.0,247.0,2457.379
2457389.0,223.0,32.0,4.0,246.0,2457.389
2457399.0,214.0,31.0,5.0,240.0,2457.399
2457409.0,216.0,32.0,3.0,242.0,2457.409
2457419.0,220.0,32.0,4.0,247.0,2457.419
2457430.0,219.0,33.0,3.0,249.0,2457.43
2457440.0,219.0,32.0,4.0,244.0,2457.44
2457450.0,210.0,31.0,4.0,237.0,2457.45
2457460.0,219.0,32.0,5.0,246.0,2457.46
2457470.0,224.0,31.0,4.0,250.0,2457.47
2457480.0,219.0,32.0,4.0,247.0,2457.48
2457490.0,219.0,33.0,3.0,245.0,2457.49
2457500.0,211.0,32.0,3.0,238.0,2457.5
2457510.0,219.0,32.0,4.0,247.0,2457.51
2457520.0,222.0,32.0,4.0,249.0,2457.52
2457530.0,220.0,31.0,4.0,246.0,2457.53
2457540.0,219.0,31.0,3.0,244.0,2457.54
2457550.0,211.0,32.0,4.0,237.0,2457.55
2457560.0,217.0,33.0,3.0,244.0,2457.56
2457570.0,222.0,32.0,4.0,249.0,2457.57
2457580.0,219.0,32.0,4.0,245.0,2457.58
2457590.0,220.0,32.0,5.0,243.0,2457.59
2457600.0,212.0,31.0,4.0,237.0,2457.6
2457610.0,218.0,32.0,4.0,246.0,2457.61
2457620.0,223.0,33.0,3.0,250.0,2457.62
2457630.0,219.0,32.0,4.0,246.0,2457.63
2457640.0,218.0,32.0,4.0,244.0,2457.64
2457650.0,213.0,32.0,3.0,238.0,2457.65
2457660.0,219.0,31.0,4.0,246.0,2457.66
2457670.0,224.0,32.0,4.0,249.0,2457.67
2457680.0,220.0,32.0,4.0,245.0,2457.68
2457690.0,220.0,32.0,3.0,245.0,2457.69
2457700.0,213.0,30.0,4.0,238.0,2457.7
2457710.0,219.0,32.0,4.0,247.0,2457.71
2457720.0,225.0,31.0,4.0,251.0,2457.72
2457730.0,221.0,32.0,3.0,248.0,2457.73
2457740.0,220.0,32.0,4.0,245.0,2457.74
2457750.0,211.0,33.0,3.0,240.0,2457.75
2457760.0,219.0,32.0,4.0,248.0,2457.76
2457771.0,225.0,31.0,4.0,251.0,2457.771
2457781.0,218.0,31.0,5.0,246.0,2457.781
2457791.0,217.0,31.0,2.0,246.0,2457.791
2457801.0,215.0,31.0,4.0,245.0,2457.801
2457811.0,221.0,33.0,4.0,252.0,2457.811
2457821.0,223.0,32.0,4.0,251.0,2457.821
2457831.0,216.0,32.0,3.0,246.0,2457.831
2457841.0,218.0,32.0,4.0,245.0,2457.841
2457851.0,216.0,31.0,4.0,247.0,2457.851
2457861.0,219.0,32.0,3.0,251.0,2457.861
2457871.0,224.0,32.0,4.0,252.0,2457.871
2457881.0,216.0,33.0,3.0,246.0,2457.881
2457891.0,217.0,32.0,4.0,246.0,2457.891
2457901.0,212.0,32.0,4.0,244.0,2457.901
2457911.0,221.0,31.0,5.0,253.0,2457.911
2457921.0,223.0,32.0,4.0,251.0,2457.921
2457931.0,215.0,31.0,4.0,245.0,2457.931
2457942.0,217.0,32.0,3.0,246.0,2457.942
2457952.0,219.0,32.0,4.0,248.0,2457.952
2457962.0,221.0,31.0,5.0,251.0,2457.962
2457972.0,221.0,32.0,5.0,247.0,2457.972
2457982.0,212.0,31.0,4.0,241.0,2457.982
2457992.0,218.0,32.0,4.0,245.0,2457.992
2458002.0,220.0,32.0,4.0,249.0,2458.002
2458012.0,221.0,32.0,3.0,250.0,2458.012
2458022.0,221.0,32.0,4.0,247.0,2458.022
2458032.0,214.0,32.0,3.0,243.0,2458.032
2458042.0,218.0,31.0,4.0,245.0,2458.042
2458052.0,220.0,32.0,4.0,251.0,2458.052
2458062.0,221.0,31.0,4.0,252.0,2458.062
2458072.0,223.0,32.0,4.0,250.0,2458.072
2458082.0,214.0,32.0,4.0,243.0,2458.082
2458092.0,216.0,33.0,3.0,245.0,2458.092
2458102.0,222.0,32.0,5.0,251.0,2458.102
2458112.0,221.0,33.0,3.0,252.0,2458.112
2458122.0,222.0,33.0,3.0,249.0,2458.122
2458132.0,213.0,33.0,4.0,244.0,2458.132
2458142.0,216.0,32.0,4.0,246.0,2458.142
2458152.0,222.0,33.0,3.0,253.0,2458.152
2458162.0,221.0,32.0,3.0,253.0,2458.162
2458172.0,222.0,33.0,4.0,249.0,2458.172
2458182.0,212.0,33.0,3.0,244.0,2458.182
2458192.0,215.0,32.0,4.0,248.0,2458.192
2458202.0,218.0,33.0,4.0,251.0,2458.202
2458212.0,220.0,32.0,4.0,254.0,2458.212
2458222.0,220.0,32.0,4.0,250.0,2458.222
2458232.0,212.0,32.0,5.0,245.0,2458.232
2458242.0,215.0,32.0,4.0,248.0,2458.242
2458252.0,219.0,33.0,4.0,253.0,2458.252
2458262.0,219.0,33.0,3.0,255.0,2458.262
2458272.0,219.0,33.0,4.0,250.0,2458.272
2458283.0,211.0,32.0,4.0,244.0,2458.283
2458293.0,216.0,33.0,5.0,251.0,2458.293
2458303.0,222.0,33.0,4.0,255.0,2458.303
2458313.0,216.0,32.0,4.0,253.0,2458.313
2458323.0,216.0,33.0,4.0,251.0,2458.323
2458333.0,209.0,33.0,4.0,245.0,2458.333
2458343.0,216.0,32.0,4.0,252.0,2458.343
2458353.0,221.0,33.0,4.0,255.0,2458.353
2458363.0,216.0,32.0,4.0,252.0,2458.363
2458373.0,217.0,34.0,3.0,250.0,2458.373
2458383.0,209.0,32.0,4.0,245.0,2458.383
2458393.0,216.0,34.0,3.0,253.0,2458.393
2458403.0,221.0,34.0,3.0,254.0,2458.403
2458413.0,216.0,33.0,3.0,254.0,2458.413
2458423.0,219.0,33.0,5.0,250.0,2458.423
2458433.0,208.0,33.0,4.0,245.0,2458.433
2458443.0,217.0,33.0,4.0,254.0,2458.443
2458454.0,222.0,34.0,4.0,256.0,2458.454
2458464.0,215.0,32.0,4.0,251.0,2458.464
2458474.0,217.0,33.0,5.0,249.0,2458.474
2458484.0,215.0,33.0,4.0,251.0,2458.484
2458494.0,218.0,33.0,4.0,257.0,2458.494
2458504.0,222.0,33.0,4.0,255.0,2458.504
2458514.0,213.0,33.0,4.0,252.0,2458.514
2458524.0,215.0,33.0,4.0,250.0,2458.524
2458534.0,216.0,33.0,4.0,252.0,2458.534
2458544.0,218.0,33.0,3.0,257.0,2458.544
2458554.0,223.0,33.0,5.0,254.0,2458.554
2458564.0,213.0,32.0,4.0,250.0,2458.564
2458574.0,216.0,33.0,3.0,248.0,2458.574
2458584.0,211.0,33.0,2.0,248.0,2458.584
2458594.0,219.0,33.0,3.0,256.0,2458.594
2458604.0,222.0,33.0,3.0,254.0,2458.604
2458614.0,213.0,33.0,5.0,249.0,2458.614
2458624.0,216.0,33.0,3.0,249.0,2458.624
2458634.0,211.0,34.0,3.0,249.0,2458.634
2458644.0,219.0,33.0,4.0,257.0,2458.644
2458654.0,221.0,34.0,3.0,252.0,2458.654
2458664.0,212.0,32.0,4.0,247.0,2458.664
2458674.0,217.0,33.0,3.0,248.0,2458.674
2458684.0,215.0,32.0,4.0,249.0,2458.684
2458694.0,220.0,33.0,4.0,255.0,2458.694
2458704.0,222.0,33.0,4.0,250.0,2458.704
2458714.0,214.0,33.0,3.0,250.0,2458.714
2458724.0,216.0,32.0,4.0,248.0,2458.724
2458734.0,215.0,33.0,3.0,250.0,2458.734
2458744.0,219.0,32.0,4.0,255.0,2458.744
2458754.0,222.0,33.0,4.0,252.0,2458.754
2458764.0,213.0,32.0,3.0,248.0,2458.764
2458774.0,215.0,33.0,4.0,248.0,2458.774
2458784.0,215.0,32.0,3.0,249.0,2458.784
2458795.0,218.0,32.0,4.0,253.0,2458.795
2458805.0,218.0,33.0,5.0,248.0,2458.805
2458815.0,210.0,32.0,4.0,244.0,2458.815
2458825.0,214.0,33.0,3.0,248.0,2458.825
2458835.0,220.0,33.0,4.0,253.0,2458.835
2458845.0,217.0,33.0,4.0,253.0,2458.845
2458855.0,220.0,32.0,4.0,248.0,2458.855
2458865.0,209.0,32.0,4.0,244.0,2458.865
2458875.0,215.0,33.0,4.0,248.0,2458.875
2458885.0,217.0,33.0,4.0,251.0,2458.885
2458895.0,217.0,32.0,4.0,253.0,2458.895
2458905.0,219.0,33.0,3.0,249.0,2458.905
2458915.0,208.0,32.0,4.0,242.0,2458.915
2458925.0,214.0,33.0,3.0,245.0,2458.925
2458935.0,218.0,33.0,4.0,250.0,2458.935
2458945.0,217.0,32.0,4.0,251.0,2458.945
2458955.0,218.0,33.0,4.0,246.0,2458.955
2458966.0,208.0,33.0,3.0,241.0,2458.966
2458976.0,215.0,33.0,3.0,250.0,2458.976
2458986.0,222.0,33.0,4.0,252.0,2458.986
2458996.0,214.0,33.0,4.0,249.0,2458.996
2459006.0,217.0,33.0,4.0,247.0,2459.006
2459016.0,209.0,32.0,4.0,241.0,2459.016
2459026.0,216.0,33.0,4.0,251.0,2459.026
2459036.0,222.0,34.0,3.0,253.0,2459.036
2459046.0,214.0,32.0,4.0,249.0,2459.046
2459056.0,218.0,34.0,3.0,249.0,2459.056
2459066.0,210.0,33.0,4.0,242.0,2459.066
2459076.0,216.0,33.0,2.0,251.0,2459.076
2459086.0,222.0,33.0,4.0,251.0,2459.086
2459096.0,216.0,33.0,4.0,251.0,2459.096
2459106.0,217.0,34.0,3.0,247.0,2459.106
2459116.0,209.0,33.0,4.0,243.0,2459.116
2459126.0,217.0,33.0,5.0,253.0,2459.126
2459136.0,221.0,33.0,4.0,253.0,2459.136
2459146.0,215.0,34.0,3.0,250.0,2459.146
2459156.0,217.0,33.0,4.0,248.0,2459.156
2459166.0,210.0,33.0,3.0,244.0,2459.166
2459176.0,213.0,34.0,3.0,255.0,2459.176
2459186.0,161.0,36.0,3.0,252.0,2459.186
2459196.0,18.0,37.0,5.0,245.0,2459.196
2459206.0,0.0,38.0,2.0,236.0,2459.206
2459216.0,0.0,37.0,4.0,230.0,2459.216
2459226.0,0.0,39.0,3.0,231.0,2459.226
2459236.0,0.0,38.0,4.0,226.0,2459.236
2459246.0,0.0,38.0,3.0,220.0,2459.246
2459256.0,1.0,38.0,5.0,220.0,2459.256
2459266.0,0.0,38.0,4.0,210.0,2459.266
2459276.0,0.0,37.0,3.0,217.0,2459.276
2459286.0,0.0,39.0,3.0,215.0,2459.286
2459296.0,0.0,38.0,3.0,212.0,2459.296
2459307.0,0.0,38.0,3.0,208.0,2459.307
2459317.0,0.0,37.0,4.0,208.0,2459.317
2459327.0,0.0,36.0,4.0,212.0,2459.327
2459337.0,0.0,37.0,3.0,207.0,2459.337
2459347.0,0.0,36.0,4.0,206.0,2459.347
2459357.0,0.0,35.0,4.0,204.0,2459.357
