time (ms),signal 0,signal 1,signal 2,signal 3,time (sec)
2564319.0,214.0,32.0,4.0,236.0,2564.319
2564329.0,213.0,33.0,3.0,234.0,2564.329
2564339.0,205.0,33.0,4.0,227.0,2564.339
2564349.0,211.0,33.0,4.0,236.0,2564.349
2564359.0,214.0,33.0,5.0,238.0,2564.359
2564369.0,212.0,33.0,4.0,236.0,2564.369
2564379.0,211.0,33.0,4.0,234.0,2564.379
2564389.0,204.0,33.0,3.0,227.0,2564.389
2564399.0,208.0,33.0,3.0,232.0,2564.399
2564409.0,215.0,33.0,4.0,238.0,2564.409
2564419.0,211.0,33.0,3.0,235.0,2564.419
2564429.0,210.0,33.0,3.0,233.0,2564.429
2564439.0,204.0,33.0,4.0,228.0,2564.439
2564449.0,210.0,32.0,4.0,234.0,2564.449
2564459.0,215.0,33.0,3.0,238.0,2564.459
2564469.0,212.0,33.0,5.0,234.0,2564.469
2564480.0,211.0,33.0,4.0,232.0,2564.48
2564490.0,204.0,33.0,3.0,229.0,2564.49
2564500.0,214.0,33.0,3.0,240.0,2564.5
2564510.0,216.0,33.0,4.0,238.0,2564.51
2564520.0,209.0,32.0,4.0,231.0,2564.52
2564530.0,211.0,32.0,3.0,233.0,2564.53
2564540.0,207.0,33.0,4.0,230.0,2564.54
2564550.0,215.0,33.0,4.0,239.0,2564.55
2564560.0,216.0,33.0,3.0,239.0,2564.56
2564570.0,212.0,32.0,3.0,233.0,2564.57
2564580.0,213.0,32.0,3.0,234.0,2564.58
2564590.0,208.0,32.0,4.0,233.0,2564.59
2564600.0,217.0,33.0,4.0,241.0,2564.6
2564610.0,217.0,33.0,3.0,241.0,2564.61
2564620.0,213.0,33.0,3.0,235.0,2564.62
2564630.0,213.0,34.0,4.0,236.0,2564.63
2564640.0,212.0,32.0,4.0,234.0,2564.64
2564651.0,217.0,32.0,4.0,241.0,2564.651
2564661.0,220.0,33.0,4.0,239.0,2564.661
2564671.0,212.0,32.0,4.0,232.0,2564.671
2564681.0,213.0,32.0,4.0,235.0,2564.681
2564691.0,218.0,33.0,4.0,241.0,2564.691
2564701.0,220.0,33.0,4.0,241.0,2564.701
2564711.0,220.0,33.0,3.0,240.0,2564.711
2564721.0,212.0,32.0,4.0,233.0,2564.721
2564731.0,215.0,32.0,4.0,235.0,2564.731
2564741.0,216.0,32.0,4.0,237.0,2564.741
2564751.0,220.0,32.0,4.0,241.0,2564.751
2564761.0,219.0,33.0,3.0,238.0,2564.761
2564771.0,213.0,32.0,4.0,232.0,2564.771
2564781.0,216.0,33.0,3.0,237.0,2564.781
2564791.0,218.0,32.0,5.0,240.0,2564.791
2564801.0,220.0,32.0,4.0,243.0,2564.801
2564811.0,221.0,33.0,3.0,241.0,2564.811
2564822.0,213.0,33.0,3.0,235.0,2564.822
2564832.0,217.0,32.0,3.0,239.0,2564.832
2564842.0,222.0,32.0,4.0,245.0,2564.842
2564852.0,220.0,32.0,5.0,242.0,2564.852
2564862.0,218.0,33.0,2.0,242.0,2564.862
2564872.0,213.0,32.0,5.0,235.0,2564.872
2564882.0,217.0,33.0,3.0,242.0,2564.882
2564892.0,223.0,33.0,3.0,247.0,2564.892
2564902.0,220.0,32.0,4.0,243.0,2564.902
2564912.0,219.0,33.0,3.0,243.0,2564.912
2564922.0,213.0,31.0,4.0,236.0,2564.922
2564932.0,217.0,32.0,4.0,244.0,2564.932
2564942.0,223.0,32.0,3.0,248.0,2564.942
2564952.0,220.0,33.0,3.0,246.0,2564.952
2564962.0,220.0,32.0,4.0,242.0,2564.962
2564972.0,213.0,32.0,3.0,236.0,2564.972
2564982.0,219.0,33.0,5.0,244.0,2564.982
2564992.0,221.0,32.0,4.0,247.0,2564.992
2565002.0,221.0,32.0,4.0,245.0,2565.002
2565012.0,219.0,32.0,3.0,244.0,2565.012
2565022.0,211.0,32.0,4.0,236.0,2565.022
2565032.0,219.0,32.0,4.0,245.0,2565.032
2565042.0,223.0,32.0,4.0,247.0,2565.042
2565052.0,221.0,32.0,4.0,245.0,2565.052
2565062.0,219.0,32.0,4.0,243.0,2565.062
2565072.0,212.0,32.0,4.0,237.0,2565.072
2565082.0,217.0,32.0,4.0,243.0,2565.082
2565092.0,223.0,33.0,3.0,248.0,2565.092
2565102.0,220.0,32.0,4.0,245.0,2565.102
2565112.0,221.0,31.0,5.0,242.0,2565.112
2565122.0,213.0,32.0,4.0,237.0,2565.122
2565132.0,218.0,32.0,4.0,244.0,2565.132
2565142.0,224.0,34.0,3.0,250.0,2565.142
2565152.0,221.0,32.0,3.0,244.0,2565.152
2565163.0,219.0,32.0,4.0,244.0,2565.163
2565173.0,213.0,33.0,4.0,239.0,2565.173
2565183.0,221.0,31.0,2.0,249.0,2565.183
2565193.0,224.0,32.0,4.0,248.0,2565.193
2565203.0,217.0,33.0,4.0,243.0,2565.203
2565213.0,219.0,32.0,4.0,243.0,2565.213
2565223.0,214.0,32.0,4.0,240.0,2565.223
2565233.0,221.0,33.0,4.0,248.0,2565.233
2565243.0,224.0,32.0,4.0,247.0,2565.243
2565253.0,218.0,32.0,4.0,245.0,2565.253
2565263.0,219.0,32.0,4.0,243.0,2565.263
2565273.0,214.0,33.0,3.0,241.0,2565.273
2565283.0,222.0,32.0,4.0,248.0,2565.283
2565293.0,223.0,33.0,3.0,248.0,2565.293
2565303.0,219.0,32.0,4.0,243.0,2565.303
2565313.0,218.0,33.0,3.0,243.0,2565.313
2565323.0,215.0,32.0,3.0,242.0,2565.323
2565334.0,222.0,33.0,3.0,251.0,2565.334
2565344.0,223.0,32.0,4.0,246.0,2565.344
2565354.0,214.0,32.0,4.0,241.0,2565.354
2565364.0,217.0,32.0,5.0,243.0,2565.364
2565374.0,220.0,32.0,4.0,249.0,2565.374
2565384.0,221.0,32.0,5.0,249.0,2565.384
2565394.0,222.0,33.0,3.0,246.0,2565.394
2565404.0,213.0,32.0,3.0,240.0,2565.404
2565414.0,216.0,32.0,4.0,243.0,2565.414
2565424.0,216.0,33.0,3.0,245.0,2565.424
2565434.0,221.0,31.0,4.0,249.0,2565.434
2565444.0,221.0,32.0,4.0,247.0,2565.444
2565454.0,214.0,32.0,4.0,239.0,2565.454
2565464.0,217.0,33.0,2.0,243.0,2565.464
2565474.0,217.0,32.0,4.0,246.0,2565.474
2565484.0,220.0,33.0,4.0,247.0,2565.484
2565494.0,221.0,32.0,5.0,243.0,2565.494
2565504.0,215.0,32.0,4.0,239.0,2565.504
2565514.0,216.0,32.0,4.0,240.0,2565.514
2565524.0,218.0,33.0,3.0,247.0,2565.524
2565534.0,221.0,32.0,4.0,247.0,2565.534
2565544.0,220.0,32.0,3.0,244.0,2565.544
2565554.0,214.0,32.0,3.0,239.0,2565.554
2565564.0,217.0,31.0,4.0,240.0,2565.564
2565574.0,218.0,33.0,3.0,246.0,2565.574
2565584.0,220.0,33.0,4.0,247.0,2565.584
2565594.0,222.0,33.0,4.0,246.0,2565.594
2565604.0,214.0,32.0,4.0,239.0,2565.604
2565614.0,216.0,32.0,3.0,241.0,2565.614
2565624.0,221.0,32.0,4.0,246.0,2565.624
2565634.0,220.0,32.0,4.0,248.0,2565.634
2565644.0,222.0,33.0,3.0,245.0,2565.644
2565654.0,213.0,33.0,3.0,239.0,2565.654
2565664.0,215.0,32.0,4.0,240.0,2565.664
2565675.0,220.0,32.0,4.0,246.0,2565.675
2565685.0,219.0,32.0,4.0,245.0,2565.685
2565695.0,218.0,33.0,3.0,242.0,2565.695
2565705.0,210.0,32.0,4.0,234.0,2565.705
2565715.0,218.0,33.0,3.0,244.0,2565.715
2565725.0,221.0,32.0,4.0,246.0,2565.725
2565735.0,219.0,32.0,3.0,244.0,2565.735
2565745.0,219.0,32.0,4.0,241.0,2565.745
2565755.0,210.0,31.0,4.0,233.0,2565.755
2565765.0,215.0,33.0,4.0,241.0,2565.765
2565775.0,222.0,32.0,4.0,247.0,2565.775
2565785.0,218.0,33.0,3.0,243.0,2565.785
2565795.0,219.0,32.0,4.0,241.0,2565.795
2565805.0,211.0,33.0,3.0,236.0,2565.805
2565815.0,216.0,32.0,5.0,242.0,2565.815
2565825.0,222.0,33.0,3.0,247.0,2565.825
2565835.0,218.0,32.0,4.0,242.0,2565.835
2565846.0,218.0,33.0,3.0,241.0,2565.846
2565856.0,211.0,32.0,4.0,234.0,2565.856
2565866.0,219.0,32.0,4.0,244.0,2565.866
2565876.0,224.0,32.0,5.0,244.0,2565.876
2565886.0,216.0,31.0,3.0,239.0,2565.886
2565896.0,218.0,32.0,4.0,240.0,2565.896
2565906.0,213.0,32.0,4.0,237.0,2565.906
2565916.0,221.0,32.0,4.0,244.0,2565.916
2565926.0,223.0,32.0,4.0,243.0,2565.926
2565936.0,217.0,32.0,3.0,240.0,2565.936
2565946.0,219.0,31.0,4.0,239.0,2565.946
2565956.0,213.0,32.0,4.0,236.0,2565.956
2565966.0,221.0,32.0,4.0,244.0,2565.966
2565976.0,222.0,32.0,4.0,245.0,2565.976
2565986.0,217.0,30.0,4.0,238.0,2565.986
2565996.0,217.0,32.0,4.0,240.0,2565.996
2566006.0,214.0,32.0,4.0,238.0,2566.006
2566016.0,218.0,31.0,4.0,243.0,2566.016
2566026.0,223.0,32.0,4.0,246.0,2566.026
2566036.0,215.0,32.0,3.0,241.0,2566.036
2566046.0,217.0,32.0,3.0,240.0,2566.046
2566056.0,214.0,31.0,3.0,241.0,2566.056
2566066.0,218.0,32.0,4.0,245.0,2566.066
2566076.0,223.0,31.0,4.0,247.0,2566.076
2566086.0,214.0,32.0,4.0,239.0,2566.086
2566096.0,216.0,32.0,4.0,240.0,2566.096
2566106.0,210.0,31.0,4.0,236.0,2566.106
2566116.0,218.0,32.0,4.0,246.0,2566.116
2566126.0,222.0,32.0,4.0,247.0,2566.126
2566136.0,215.0,31.0,5.0,240.0,2566.136
2566146.0,217.0,32.0,3.0,242.0,2566.146
2566156.0,211.0,31.0,4.0,238.0,2566.156
2566166.0,219.0,32.0,4.0,249.0,2566.166
2566176.0,222.0,32.0,4.0,249.0,2566.176
2566187.0,214.0,31.0,5.0,241.0,2566.187
2566197.0,216.0,32.0,4.0,242.0,2566.197
2566207.0,217.0,32.0,3.0,246.0,2566.207
2566217.0,220.0,32.0,3.0,248.0,2566.217
2566227.0,220.0,32.0,4.0,243.0,2566.227
2566237.0,213.0,31.0,4.0,233.0,2566.237
2566247.0,215.0,32.0,3.0,237.0,2566.247
2566257.0,217.0,32.0,4.0,241.0,2566.257
2566267.0,221.0,31.0,5.0,245.0,2566.267
2566277.0,222.0,32.0,4.0,246.0,2566.277
2566287.0,218.0,32.0,4.0,244.0,2566.287
2566297.0,219.0,33.0,3.0,244.0,2566.297
2566307.0,221.0,32.0,4.0,248.0,2566.307
2566317.0,221.0,33.0,3.0,251.0,2566.317
2566327.0,223.0,33.0,5.0,247.0,2566.327
2566337.0,214.0,31.0,4.0,236.0,2566.337
2566347.0,214.0,31.0,4.0,229.0,2566.347
2566358.0,218.0,33.0,3.0,236.0,2566.358
2566368.0,216.0,32.0,4.0,231.0,2566.368
2566378.0,215.0,32.0,3.0,233.0,2566.378
2566388.0,207.0,32.0,5.0,225.0,2566.388
2566398.0,220.0,31.0,4.0,228.0,2566.398
2566408.0,226.0,32.0,5.0,234.0,2566.408
2566418.0,226.0,32.0,4.0,235.0,2566.418
2566428.0,223.0,33.0,3.0,237.0,2566.428
2566438.0,212.0,32.0,4.0,228.0,2566.438
2566448.0,220.0,33.0,3.0,241.0,2566.448
2566458.0,227.0,33.0,4.0,250.0,2566.458
2566468.0,230.0,32.0,4.0,249.0,2566.468
2566478.0,236.0,32.0,4.0,251.0,2566.478
2566488.0,228.0,33.0,4.0,247.0,2566.488
2566498.0,230.0,32.0,4.0,249.0,2566.498
2566508.0,233.0,32.0,4.0,253.0,2566.508
2566518.0,226.0,32.0,4.0,248.0,2566.518
2566528.0,230.0,33.0,4.0,251.0,2566.528
2566538.0,223.0,32.0,3.0,243.0,2566.538
2566548.0,226.0,33.0,3.0,249.0,2566.548
2566558.0,233.0,33.0,3.0,255.0,2566.558
2566568.0,222.0,32.0,4.0,243.0,2566.568
2566578.0,225.0,33.0,3.0,247.0,2566.578
2566588.0,217.0,31.0,4.0,242.0,2566.588
2566598.0,227.0,32.0,3.0,253.0,2566.598
2566608.0,236.0,32.0,4.0,260.0,2566.608
2566618.0,233.0,32.0,4.0,253.0,2566.618
2566628.0,238.0,32.0,4.0,250.0,2566.628
2566638.0,227.0,32.0,4.0,239.0,2566.638
2566648.0,235.0,32.0,4.0,240.0,2566.648
2566658.0,239.0,32.0,4.0,246.0,2566.658
2566668.0,236.0,32.0,4.0,243.0,2566.668
2566678.0,237.0,33.0,3.0,244.0,2566.678
2566688.0,225.0,32.0,3.0,232.0,2566.688
2566699.0,236.0,32.0,5.0,246.0,2566.699
2566709.0,247.0,33.0,5.0,248.0,2566.709
2566719.0,240.0,31.0,4.0,239.0,2566.719
2566729.0,241.0,32.0,4.0,237.0,2566.729
2566739.0,244.0,33.0,4.0,238.0,2566.739
2566749.0,245.0,33.0,4.0,239.0,2566.749
2566759.0,251.0,32.0,4.0,247.0,2566.759
2566769.0,248.0,32.0,4.0,242.0,2566.769
2566779.0,247.0,32.0,4.0,240.0,2566.779
2566789.0,241.0,32.0,4.0,234.0,2566.789
2566799.0,247.0,32.0,4.0,246.0,2566.799
2566809.0,251.0,33.0,3.0,252.0,2566.809
2566819.0,247.0,32.0,4.0,238.0,2566.819
2566829.0,245.0,33.0,3.0,242.0,2566.829
2566839.0,240.0,32.0,3.0,234.0,2566.839
2566849.0,255.0,33.0,2.0,241.0,2566.849
2566859.0,255.0,33.0,4.0,245.0,2566.859
2566870.0,250.0,33.0,4.0,239.0,2566.87
2566880.0,243.0,33.0,3.0,239.0,2566.88
2566890.0,242.0,33.0,4.0,243.0,2566.89
2566900.0,249.0,33.0,4.0,245.0,2566.9
2566910.0,250.0,33.0,4.0,249.0,2566.91
2566920.0,241.0,33.0,4.0,240.0,2566.92
2566930.0,240.0,33.0,4.0,245.0,2566.93
2566940.0,242.0,33.0,3.0,247.0,2566.94
2566950.0,246.0,32.0,3.0,249.0,2566.95
2566960.0,253.0,34.0,4.0,257.0,2566.96
2566970.0,244.0,32.0,4.0,246.0,2566.97
2566980.0,248.0,33.0,4.0,249.0,2566.98
2566990.0,253.0,33.0,3.0,253.0,2566.99
2567000.0,254.0,33.0,4.0,255.0,2567.0
2567010.0,259.0,34.0,4.0,260.0,2567.01
2567020.0,249.0,33.0,3.0,248.0,2567.02
2567030.0,250.0,33.0,5.0,251.0,2567.03
2567040.0,246.0,33.0,4.0,252.0,2567.04
2567050.0,254.0,33.0,3.0,260.0,2567.05
2567060.0,254.0,34.0,4.0,260.0,2567.06
2567070.0,245.0,33.0,3.0,248.0,2567.07
2567080.0,243.0,33.0,4.0,252.0,2567.08
2567090.0,242.0,33.0,3.0,252.0,2567.09
2567100.0,249.0,33.0,4.0,255.0,2567.1
2567110.0,248.0,34.0,3.0,259.0,2567.11
2567120.0,238.0,33.0,4.0,247.0,2567.12
2567130.0,242.0,33.0,4.0,252.0,2567.13
2567140.0,245.0,32.0,3.0,254.0,2567.14
2567150.0,248.0,33.0,4.0,258.0,2567.15
2567160.0,250.0,33.0,5.0,254.0,2567.16
2567170.0,241.0,32.0,3.0,246.0,2567.17
2567180.0,245.0,33.0,4.0,248.0,2567.18
2567190.0,249.0,34.0,3.0,255.0,2567.19
2567200.0,251.0,32.0,4.0,258.0,2567.2
2567211.0,256.0,33.0,4.0,259.0,2567.211
2567221.0,244.0,33.0,5.0,249.0,2567.221
2567231.0,247.0,33.0,4.0,256.0,2567.231
2567241.0,257.0,33.0,4.0,261.0,2567.241
2567251.0,252.0,33.0,4.0,254.0,2567.251
2567261.0,254.0,33.0,3.0,258.0,2567.261
2567271.0,250.0,32.0,4.0,254.0,2567.271
2567281.0,256.0,33.0,4.0,263.0,2567.281
2567291.0,262.0,33.0,4.0,268.0,2567.291
2567301.0,257.0,33.0,3.0,261.0,2567.301
2567311.0,256.0,33.0,4.0,260.0,2567.311
2567321.0,249.0,34.0,3.0,252.0,2567.321
2567331.0,247.0,32.0,4.0,256.0,2567.331
2567341.0,250.0,34.0,3.0,261.0,2567.341
2567351.0,250.0,33.0,5.0,257.0,2567.351
2567361.0,247.0,34.0,3.0,256.0,2567.361
2567371.0,239.0,33.0,4.0,249.0,2567.371
2567382.0,249.0,34.0,4.0,261.0,2567.382
2567392.0,255.0,33.0,4.0,263.0,2567.392
2567402.0,252.0,33.0,4.0,261.0,2567.402
2567412.0,255.0,33.0,4.0,258.0,2567.412
2567422.0,249.0,34.0,3.0,261.0,2567.422
2567432.0,251.0,34.0,4.0,264.0,2567.432
2567442.0,259.0,33.0,4.0,270.0,2567.442
2567452.0,251.0,34.0,3.0,259.0,2567.452
2567462.0,254.0,33.0,3.0,259.0,2567.462
2567472.0,245.0,34.0,3.0,253.0,2567.472
2567482.0,255.0,34.0,4.0,266.0,2567.482
2567492.0,255.0,34.0,4.0,262.0,2567.492
2567502.0,247.0,33.0,4.0,254.0,2567.502
2567512.0,246.0,33.0,4.0,254.0,2567.512
2567522.0,239.0,32.0,4.0,249.0,2567.522
2567532.0,252.0,33.0,4.0,257.0,2567.532
2567542.0,257.0,34.0,4.0,258.0,2567.542
2567552.0,255.0,33.0,4.0,256.0,2567.552
2567562.0,256.0,35.0,3.0,258.0,2567.562
2567572.0,252.0,33.0,4.0,254.0,2567.572
2567582.0,257.0,33.0,3.0,263.0,2567.582
2567592.0,264.0,34.0,3.0,257.0,2567.592
2567602.0,259.0,33.0,4.0,253.0,2567.602
2567612.0,261.0,33.0,4.0,255.0,2567.612
2567622.0,252.0,34.0,2.0,255.0,2567.622
2567632.0,256.0,33.0,4.0,265.0,2567.632
2567642.0,257.0,34.0,4.0,268.0,2567.642
2567652.0,251.0,33.0,4.0,262.0,2567.652
2567662.0,246.0,33.0,4.0,259.0,2567.662
2567672.0,247.0,33.0,5.0,261.0,2567.672
2567682.0,247.0,34.0,3.0,266.0,2567.682
2567692.0,255.0,33.0,4.0,267.0,2567.692
2567702.0,246.0,34.0,3.0,262.0,2567.702
2567712.0,247.0,33.0,4.0,262.0,2567.712
2567723.0,246.0,33.0,4.0,263.0,2567.723
2567733.0,247.0,33.0,5.0,269.0,2567.733
2567743.0,246.0,34.0,4.0,263.0,2567.743
2567753.0,237.0,33.0,3.0,260.0,2567.753
2567763.0,242.0,33.0,4.0,260.0,2567.763
2567773.0,244.0,34.0,4.0,265.0,2567.773
2567783.0,249.0,33.0,4.0,269.0,2567.783
2567793.0,243.0,34.0,4.0,264.0,2567.793
2567803.0,239.0,33.0,5.0,258.0,2567.803
2567813.0,245.0,33.0,4.0,262.0,2567.813
2567823.0,243.0,32.0,4.0,260.0,2567.823
2567833.0,246.0,34.0,3.0,261.0,2567.833
2567843.0,246.0,33.0,4.0,250.0,2567.843
2567853.0,240.0,33.0,3.0,243.0,2567.853
2567863.0,237.0,33.0,5.0,239.0,2567.863
2567873.0,242.0,33.0,3.0,248.0,2567.873
2567883.0,245.0,33.0,4.0,251.0,2567.883
2567894.0,245.0,34.0,3.0,250.0,2567.894
2567904.0,234.0,33.0,4.0,248.0,2567.904
2567914.0,237.0,33.0,5.0,253.0,2567.914
2567924.0,249.0,33.0,4.0,262.0,2567.924
2567934.0,241.0,31.0,4.0,256.0,2567.934
2567944.0,245.0,33.0,4.0,255.0,2567.944
2567954.0,237.0,33.0,3.0,250.0,2567.954
2567964.0,245.0,33.0,3.0,262.0,2567.964
2567974.0,250.0,32.0,4.0,263.0,2567.974
2567984.0,244.0,34.0,3.0,261.0,2567.984
2567994.0,242.0,33.0,4.0,257.0,2567.994
2568004.0,231.0,33.0,4.0,249.0,2568.004
2568014.0,241.0,33.0,4.0,258.0,2568.014
2568024.0,246.0,34.0,2.0,266.0,2568.024
2568034.0,245.0,32.0,4.0,264.0,2568.034
2568044.0,252.0,33.0,3.0,262.0,2568.044
2568054.0,242.0,33.0,4.0,256.0,2568.054
2568064.0,247.0,33.0,4.0,262.0,2568.064
2568074.0,255.0,34.0,3.0,274.0,2568.074
2568084.0,253.0,33.0,3.0,275.0,2568.084
2568094.0,252.0,33.0,3.0,270.0,2568.094
2568104.0,243.0,32.0,4.0,256.0,2568.104
2568114.0,246.0,33.0,3.0,260.0,2568.114
2568124.0,252.0,33.0,4.0,266.0,2568.124
2568134.0,247.0,32.0,4.0,260.0,2568.134
2568144.0,249.0,33.0,4.0,260.0,2568.144
2568154.0,242.0,32.0,4.0,254.0,2568.154
2568164.0,245.0,32.0,4.0,261.0,2568.164
2568174.0,252.0,33.0,4.0,263.0,2568.174
2568184.0,251.0,32.0,5.0,261.0,2568.184
2568194.0,253.0,33.0,4.0,261.0,2568.194
2568204.0,243.0,32.0,4.0,258.0,2568.204
2568214.0,251.0,33.0,4.0,267.0,2568.214
2568224.0,257.0,33.0,3.0,272.0,2568.224
2568235.0,253.0,32.0,4.0,272.0,2568.235
2568245.0,254.0,33.0,4.0,271.0,2568.245
2568255.0,249.0,33.0,4.0,265.0,2568.255
2568265.0,258.0,34.0,3.0,276.0,2568.265
2568275.0,259.0,33.0,4.0,272.0,2568.275
2568285.0,254.0,32.0,3.0,267.0,2568.285
2568295.0,254.0,33.0,4.0,266.0,2568.295
2568305.0,252.0,32.0,4.0,270.0,2568.305
2568315.0,261.0,32.0,4.0,278.0,2568.315
2568325.0,261.0,33.0,4.0,275.0,2568.325
2568335.0,251.0,32.0,4.0,265.0,2568.335
2568345.0,250.0,34.0,3.0,263.0,2568.345
2568355.0,246.0,32.0,4.0,261.0,2568.355
2568365.0,251.0,33.0,4.0,268.0,2568.365
2568375.0,256.0,32.0,5.0,269.0,2568.375
2568385.0,248.0,31.0,3.0,263.0,2568.385
2568395.0,247.0,32.0,4.0,261.0,2568.395
2568406.0,245.0,32.0,4.0,263.0,2568.406
2568416.0,252.0,32.0,3.0,270.0,2568.416
2568426.0,254.0,33.0,4.0,275.0,2568.426
2568436.0,247.0,32.0,4.0,271.0,2568.436
2568446.0,252.0,32.0,4.0,282.0,2568.446
2568456.0,249.0,32.0,4.0,280.0,2568.456
2568466.0,254.0,32.0,4.0,283.0,2568.466
2568476.0,253.0,33.0,3.0,279.0,2568.476
2568486.0,242.0,32.0,4.0,268.0,2568.486
2568496.0,245.0,33.0,3.0,268.0,2568.496
2568506.0,246.0,32.0,5.0,272.0,2568.506
2568516.0,250.0,31.0,4.0,280.0,2568.516
2568526.0,250.0,32.0,4.0,273.0,2568.526
2568536.0,244.0,33.0,4.0,277.0,2568.536
2568546.0,245.0,32.0,4.0,273.0,2568.546
2568556.0,244.0,32.0,4.0,279.0,2568.556
2568566.0,244.0,32.0,5.0,278.0,2568.566
2568576.0,247.0,32.0,4.0,278.0,2568.576
2568586.0,237.0,33.0,4.0,272.0,2568.586
2568596.0,240.0,32.0,4.0,274.0,2568.596
2568606.0,241.0,32.0,3.0,276.0,2568.606
2568616.0,243.0,32.0,4.0,281.0,2568.616
2568626.0,247.0,34.0,3.0,282.0,2568.626
2568636.0,235.0,33.0,4.0,271.0,2568.636
2568646.0,235.0,32.0,4.0,268.0,2568.646
2568656.0,238.0,32.0,4.0,274.0,2568.656
2568666.0,239.0,32.0,4.0,273.0,2568.666
2568676.0,240.0,32.0,4.0,263.0,2568.676
2568686.0,228.0,32.0,4.0,256.0,2568.686
2568696.0,230.0,33.0,5.0,251.0,2568.696
2568706.0,227.0,32.0,4.0,252.0,2568.706
2568716.0,231.0,33.0,4.0,256.0,2568.716
2568726.0,232.0,33.0,3.0,249.0,2568.726
2568736.0,222.0,32.0,4.0,242.0,2568.736
2568747.0,226.0,32.0,4.0,243.0,2568.747
2568757.0,228.0,32.0,4.0,246.0,2568.757
2568767.0,226.0,31.0,4.0,242.0,2568.767
2568777.0,225.0,34.0,3.0,242.0,2568.777
2568787.0,216.0,32.0,4.0,237.0,2568.787
2568797.0,219.0,32.0,4.0,243.0,2568.797
2568807.0,225.0,32.0,3.0,248.0,2568.807
2568817.0,221.0,32.0,4.0,248.0,2568.817
2568827.0,223.0,32.0,4.0,246.0,2568.827
2568837.0,216.0,32.0,4.0,240.0,2568.837
2568847.0,221.0,32.0,4.0,248.0,2568.847
2568857.0,226.0,33.0,3.0,256.0,2568.857
2568867.0,222.0,32.0,4.0,251.0,2568.867
2568877.0,223.0,33.0,4.0,251.0,2568.877
2568887.0,215.0,32.0,5.0,242.0,2568.887
2568897.0,220.0,32.0,4.0,249.0,2568.897
2568907.0,226.0,33.0,3.0,253.0,2568.907
2568918.0,221.0,32.0,4.0,251.0,2568.918
2568928.0,221.0,33.0,3.0,249.0,2568.928
2568938.0,215.0,32.0,3.0,244.0,2568.938
2568948.0,223.0,33.0,4.0,252.0,2568.948
2568958.0,226.0,33.0,4.0,251.0,2568.958
2568968.0,220.0,33.0,4.0,247.0,2568.968
2568978.0,219.0,32.0,4.0,244.0,2568.978
2568988.0,213.0,33.0,3.0,239.0,2568.988
2568998.0,221.0,32.0,4.0,245.0,2568.998
2569008.0,223.0,33.0,3.0,247.0,2569.008
2569018.0,219.0,32.0,5.0,241.0,2569.018
2569028.0,218.0,32.0,4.0,241.0,2569.028
2569038.0,215.0,32.0,3.0,239.0,2569.038
2569048.0,220.0,32.0,4.0,245.0,2569.048
2569058.0,225.0,32.0,3.0,248.0,2569.058
2569068.0,219.0,32.0,4.0,242.0,2569.068
2569078.0,220.0,33.0,4.0,243.0,2569.078
2569088.0,212.0,32.0,3.0,236.0,2569.088
2569098.0,220.0,32.0,3.0,246.0,2569.098
2569108.0,224.0,33.0,4.0,247.0,2569.108
2569118.0,217.0,33.0,3.0,238.0,2569.118
2569128.0,218.0,32.0,4.0,238.0,2569.128
2569138.0,211.0,33.0,3.0,235.0,2569.138
2569148.0,221.0,33.0,4.0,245.0,2569.148
2569158.0,224.0,34.0,2.0,248.0,2569.158
2569168.0,218.0,32.0,3.0,239.0,2569.168
2569178.0,221.0,33.0,3.0,240.0,2569.178
2569188.0,215.0,32.0,4.0,234.0,2569.188
2569198.0,223.0,32.0,4.0,245.0,2569.198
2569208.0,225.0,33.0,4.0,244.0,2569.208
2569218.0,220.0,32.0,3.0,240.0,2569.218
2569228.0,219.0,33.0,3.0,239.0,2569.228
2569238.0,214.0,33.0,4.0,236.0,2569.238
2569248.0,222.0,33.0,3.0,244.0,2569.248
2569259.0,225.0,32.0,4.0,243.0,2569.259
2569269.0,216.0,33.0,4.0,235.0,2569.269
2569279.0,220.0,33.0,4.0,237.0,2569.279
2569289.0,220.0,33.0,4.0,241.0,2569.289
2569299.0,222.0,33.0,4.0,243.0,2569.299
2569309.0,224.0,33.0,4.0,243.0,2569.309
2569319.0,216.0,32.0,4.0,238.0,2569.319
2569329.0,218.0,33.0,3.0,240.0,2569.329
2569339.0,222.0,33.0,4.0,245.0,2569.339
2569349.0,224.0,32.0,4.0,247.0,2569.349
2569359.0,224.0,33.0,3.0,245.0,2569.359
2569369.0,216.0,33.0,3.0,239.0,2569.369
2569379.0,217.0,33.0,3.0,240.0,2569.379
2569389.0,217.0,33.0,4.0,242.0,2569.389
2569399.0,223.0,32.0,4.0,248.0,2569.399
2569409.0,223.0,33.0,4.0,245.0,2569.409
2569419.0,215.0,32.0,4.0,237.0,2569.419
2569430.0,218.0,33.0,4.0,241.0,2569.43
2569440.0,222.0,33.0,3.0,247.0,2569.44
2569450.0,221.0,32.0,4.0,246.0,2569.45
2569460.0,219.0,32.0,4.0,243.0,2569.46
2569470.0,212.0,32.0,4.0,237.0,2569.47
2569480.0,216.0,33.0,4.0,243.0,2569.48
2569490.0,222.0,32.0,4.0,249.0,2569.49
2569500.0,219.0,33.0,4.0,246.0,2569.5
2569510.0,219.0,32.0,3.0,243.0,2569.51
2569520.0,213.0,33.0,3.0,237.0,2569.52
2569530.0,216.0,32.0,5.0,242.0,2569.53
2569540.0,221.0,32.0,4.0,247.0,2569.54
2569550.0,219.0,32.0,4.0,244.0,2569.55
2569560.0,220.0,31.0,4.0,243.0,2569.56
2569570.0,211.0,32.0,3.0,236.0,2569.57
2569580.0,215.0,32.0,4.0,242.0,2569.58
2569590.0,221.0,32.0,4.0,247.0,2569.59
2569600.0,219.0,32.0,3.0,244.0,2569.6
2569610.0,219.0,33.0,3.0,242.0,2569.61
2569620.0,211.0,32.0,3.0,235.0,2569.62
2569630.0,216.0,33.0,3.0,243.0,2569.63
2569640.0,221.0,33.0,4.0,248.0,2569.64
2569650.0,219.0,33.0,3.0,246.0,2569.65
2569660.0,219.0,32.0,4.0,242.0,2569.66
2569670.0,210.0,32.0,4.0,236.0,2569.67
2569680.0,216.0,32.0,4.0,242.0,2569.68
2569690.0,220.0,33.0,2.0,245.0,2569.69
2569700.0,219.0,32.0,4.0,243.0,2569.7
2569710.0,219.0,32.0,4.0,241.0,2569.71
2569720.0,210.0,32.0,5.0,233.0,2569.72
2569730.0,215.0,32.0,4.0,240.0,2569.73
2569740.0,220.0,32.0,4.0,246.0,2569.74
2569750.0,217.0,32.0,4.0,245.0,2569.75
2569760.0,217.0,33.0,3.0,242.0,2569.76
2569771.0,210.0,32.0,4.0,234.0,2569.771
2569781.0,216.0,32.0,4.0,244.0,2569.781
2569791.0,222.0,33.0,5.0,247.0,2569.791
2569801.0,214.0,32.0,3.0,241.0,2569.801
2569811.0,216.0,32.0,4.0,241.0,2569.811
2569821.0,208.0,33.0,2.0,236.0,2569.821
2569831.0,218.0,32.0,3.0,246.0,2569.831
2569841.0,222.0,32.0,4.0,247.0,2569.841
2569851.0,215.0,32.0,4.0,238.0,2569.851
2569861.0,217.0,33.0,4.0,240.0,2569.861
2569871.0,210.0,33.0,4.0,235.0,2569.871
2569881.0,218.0,33.0,3.0,245.0,2569.881
2569891.0,223.0,32.0,3.0,245.0,2569.891
2569901.0,216.0,33.0,4.0,242.0,2569.901
2569911.0,217.0,33.0,4.0,241.0,2569.911
2569921.0,212.0,32.0,4.0,236.0,2569.921
2569931.0,218.0,33.0,4.0,245.0,2569.931
2569942.0,222.0,33.0,4.0,245.0,2569.942
2569952.0,213.0,33.0,3.0,239.0,2569.952
2569962.0,216.0,33.0,4.0,240.0,2569.962
2569972.0,217.0,33.0,4.0,244.0,2569.972
2569982.0,220.0,32.0,5.0,246.0,2569.982
2569992.0,221.0,33.0,3.0,247.0,2569.992
2570002.0,212.0,32.0,4.0,238.0,2570.002
2570012.0,215.0,33.0,3.0,241.0,2570.012
2570022.0,218.0,32.0,4.0,244.0,2570.022
2570032.0,219.0,33.0,3.0,247.0,2570.032
2570042.0,222.0,33.0,5.0,244.0,2570.042
2570052.0,211.0,32.0,3.0,237.0,2570.052
2570062.0,214.0,32.0,4.0,237.0,2570.062
2570072.0,214.0,33.0,4.0,239.0,2570.072
2570082.0,219.0,32.0,4.0,246.0,2570.082
2570092.0,222.0,32.0,4.0,244.0,2570.092
2570102.0,211.0,32.0,4.0,237.0,2570.102
2570112.0,216.0,32.0,3.0,241.0,2570.112
2570122.0,214.0,33.0,4.0,242.0,2570.122
2570132.0,219.0,32.0,4.0,246.0,2570.132
2570142.0,220.0,34.0,3.0,244.0,2570.142
2570152.0,211.0,32.0,5.0,237.0,2570.152
2570162.0,215.0,33.0,3.0,239.0,2570.162
2570172.0,216.0,33.0,5.0,241.0,2570.172
2570182.0,220.0,32.0,4.0,245.0,2570.182
2570192.0,221.0,33.0,4.0,242.0,2570.192
2570202.0,214.0,32.0,3.0,238.0,2570.202
2570212.0,215.0,33.0,3.0,240.0,2570.212
2570222.0,217.0,32.0,4.0,242.0,2570.222
2570232.0,219.0,33.0,4.0,245.0,2570.232
2570242.0,223.0,32.0,4.0,246.0,2570.242
2570252.0,212.0,33.0,3.0,239.0,2570.252
2570262.0,215.0,33.0,4.0,239.0,2570.262
2570272.0,217.0,33.0,3.0,242.0,2570.272
2570283.0,219.0,32.0,4.0,244.0,2570.283
2570293.0,219.0,32.0,4.0,240.0,2570.293
2570303.0,210.0,32.0,5.0,232.0,2570.303
2570313.0,214.0,33.0,4.0,240.0,2570.313
2570323.0,221.0,32.0,4.0,244.0,2570.323
2570333.0,217.0,32.0,4.0,245.0,2570.333
2570343.0,218.0,32.0,3.0,242.0,2570.343
2570353.0,209.0,32.0,3.0,236.0,2570.353
2570363.0,216.0,32.0,5.0,243.0,2570.363
2570373.0,218.0,32.0,4.0,246.0,2570.373
2570383.0,217.0,32.0,4.0,246.0,2570.383
2570393.0,218.0,33.0,4.0,244.0,2570.393
2570403.0,210.0,32.0,3.0,236.0,2570.403
2570413.0,215.0,33.0,3.0,242.0,2570.413
2570423.0,220.0,32.0,4.0,247.0,2570.423
2570433.0,218.0,31.0,4.0,246.0,2570.433
2570443.0,217.0,32.0,4.0,244.0,2570.443
2570454.0,208.0,31.0,4.0,236.0,2570.454
2570464.0,216.0,32.0,3.0,246.0,2570.464
2570474.0,221.0,32.0,3.0,248.0,2570.474
2570484.0,215.0,32.0,4.0,241.0,2570.484
2570494.0,218.0,31.0,5.0,241.0,2570.494
2570504.0,209.0,32.0,4.0,235.0,2570.504
2570514.0,217.0,32.0,4.0,245.0,2570.514
2570524.0,222.0,33.0,3.0,247.0,2570.524
2570534.0,215.0,31.0,3.0,240.0,2570.534
2570544.0,219.0,32.0,3.0,243.0,2570.544
2570554.0,210.0,32.0,5.0,236.0,2570.554
2570564.0,219.0,31.0,4.0,247.0,2570.564
2570574.0,222.0,32.0,4.0,246.0,2570.574
2570584.0,217.0,31.0,4.0,241.0,2570.584
2570594.0,217.0,32.0,3.0,240.0,2570.594
2570604.0,211.0,32.0,3.0,236.0,2570.604
2570614.0,219.0,32.0,3.0,246.0,2570.614
2570624.0,223.0,32.0,3.0,247.0,2570.624
2570634.0,217.0,32.0,2.0,241.0,2570.634
2570644.0,218.0,31.0,4.0,241.0,2570.644
2570654.0,211.0,33.0,3.0,238.0,2570.654
2570664.0,220.0,32.0,4.0,244.0,2570.664
2570674.0,222.0,33.0,3.0,246.0,2570.674
2570684.0,217.0,32.0,5.0,241.0,2570.684
2570694.0,216.0,32.0,2.0,240.0,2570.694
2570704.0,212.0,31.0,4.0,237.0,2570.704
2570714.0,217.0,31.0,4.0,242.0,2570.714
2570724.0,222.0,32.0,3.0,245.0,2570.724
2570734.0,216.0,32.0,4.0,238.0,2570.734
2570744.0,217.0,32.0,4.0,239.0,2570.744
2570754.0,210.0,32.0,3.0,234.0,2570.754
2570764.0,218.0,32.0,3.0,242.0,2570.764
2570774.0,223.0,32.0,4.0,247.0,2570.774
2570784.0,215.0,33.0,3.0,241.0,2570.784
2570795.0,217.0,32.0,4.0,241.0,2570.795
2570805.0,214.0,32.0,4.0,241.0,2570.805
2570815.0,221.0,32.0,5.0,246.0,2570.815
2570825.0,221.0,33.0,3.0,244.0,2570.825
2570835.0,212.0,32.0,4.0,237.0,2570.835
2570845.0,216.0,32.0,3.0,240.0,2570.845
2570855.0,216.0,32.0,4.0,240.0,2570.855
2570865.0,219.0,32.0,4.0,243.0,2570.865
2570875.0,221.0,33.0,3.0,241.0,2570.875
2570885.0,214.0,32.0,4.0,237.0,2570.885
2570895.0,215.0,33.0,3.0,239.0,2570.895
2570905.0,216.0,33.0,3.0,243.0,2570.905
2570915.0,219.0,32.0,4.0,245.0,2570.915
2570925.0,222.0,33.0,4.0,244.0,2570.925
2570935.0,213.0,32.0,4.0,236.0,2570.935
2570945.0,217.0,33.0,4.0,238.0,2570.945
2570955.0,217.0,32.0,4.0,241.0,2570.955
2570966.0,220.0,32.0,4.0,245.0,2570.966
2570976.0,220.0,33.0,3.0,243.0,2570.976
2570986.0,212.0,32.0,4.0,234.0,2570.986
2570996.0,216.0,33.0,3.0,241.0,2570.996
2571006.0,224.0,33.0,5.0,247.0,2571.006
2571016.0,221.0,33.0,3.0,245.0,2571.016
2571026.0,220.0,33.0,3.0,242.0,2571.026
2571036.0,212.0,34.0,3.0,236.0,2571.036
2571046.0,216.0,32.0,3.0,241.0,2571.046
2571056.0,220.0,33.0,4.0,245.0,2571.056
2571066.0,221.0,32.0,4.0,244.0,2571.066
2571076.0,220.0,33.0,4.0,242.0,2571.076
2571086.0,211.0,33.0,4.0,233.0,2571.086
2571096.0,216.0,33.0,4.0,238.0,2571.096
2571106.0,219.0,34.0,3.0,246.0,2571.106
2571116.0,220.0,32.0,4.0,245.0,2571.116
2571126.0,219.0,33.0,4.0,242.0,2571.126
2571136.0,212.0,32.0,4.0,236.0,2571.136
2571146.0,214.0,33.0,2.0,241.0,2571.146
2571156.0,220.0,32.0,4.0,247.0,2571.156
2571166.0,218.0,33.0,3.0,245.0,2571.166
2571176.0,218.0,32.0,3.0,241.0,2571.176
2571186.0,211.0,33.0,3.0,235.0,2571.186
2571196.0,216.0,32.0,5.0,239.0,2571.196
2571206.0,221.0,32.0,3.0,245.0,2571.206
2571216.0,218.0,32.0,4.0,241.0,2571.216
2571226.0,220.0,33.0,3.0,242.0,2571.226
2571236.0,211.0,32.0,4.0,235.0,2571.236
2571246.0,215.0,32.0,3.0,241.0,2571.246
2571256.0,222.0,32.0,4.0,247.0,2571.256
2571266.0,220.0,32.0,4.0,245.0,2571.266
2571276.0,220.0,33.0,3.0,243.0,2571.276
2571286.0,210.0,32.0,4.0,236.0,2571.286
2571296.0,215.0,33.0,3.0,243.0,2571.296
2571307.0,221.0,32.0,4.0,248.0,2571.307
2571317.0,217.0,32.0,3.0,244.0,2571.317
2571327.0,218.0,33.0,5.0,242.0,2571.327
2571337.0,211.0,33.0,2.0,238.0,2571.337
2571347.0,219.0,32.0,4.0,245.0,2571.347
2571357.0,222.0,33.0,4.0,246.0,2571.357
2571367.0,216.0,32.0,3.0,241.0,2571.367
2571377.0,217.0,33.0,4.0,240.0,2571.377
2571387.0,212.0,33.0,4.0,236.0,2571.387
2571397.0,217.0,33.0,3.0,241.0,2571.397
2571407.0,222.0,33.0,3.0,245.0,2571.407
2571417.0,215.0,33.0,3.0,239.0,2571.417
2571427.0,217.0,33.0,3.0,239.0,2571.427
2571437.0,209.0,33.0,3.0,233.0,2571.437
2571447.0,216.0,33.0,3.0,242.0,2571.447
2571457.0,222.0,33.0,5.0,245.0,2571.457
2571467.0,214.0,33.0,3.0,239.0,2571.467
2571478.0,216.0,33.0,4.0,239.0,2571.478
2571488.0,213.0,34.0,3.0,238.0,2571.488
2571498.0,219.0,32.0,4.0,244.0,2571.498
2571508.0,221.0,33.0,4.0,243.0,2571.508
2571518.0,212.0,33.0,5.0,236.0,2571.518
2571528.0,216.0,33.0,4.0,239.0,2571.528
2571538.0,213.0,33.0,4.0,239.0,2571.538
2571548.0,219.0,34.0,3.0,246.0,2571.548
2571558.0,221.0,34.0,3.0,241.0,2571.558
2571568.0,213.0,34.0,4.0,238.0,2571.568
2571578.0,216.0,34.0,4.0,237.0,2571.578
2571588.0,216.0,33.0,4.0,240.0,2571.588
2571598.0,220.0,33.0,4.0,243.0,2571.598
2571608.0,223.0,33.0,4.0,245.0,2571.608
2571618.0,214.0,34.0,3.0,237.0,2571.618
2571628.0,216.0,33.0,4.0,238.0,2571.628
2571638.0,217.0,34.0,3.0,241.0,2571.638
2571648.0,220.0,33.0,4.0,243.0,2571.648
2571658.0,222.0,34.0,4.0,244.0,2571.658
2571668.0,212.0,33.0,4.0,236.0,2571.668
2571678.0,216.0,34.0,3.0,239.0,2571.678
2571688.0,217.0,33.0,4.0,242.0,2571.688
2571698.0,219.0,34.0,3.0,245.0,2571.698
2571708.0,223.0,34.0,4.0,243.0,2571.708
2571718.0,212.0,33.0,4.0,236.0,2571.718
2571728.0,215.0,33.0,3.0,238.0,2571.728
2571738.0,213.0,33.0,4.0,239.0,2571.738
2571748.0,219.0,33.0,4.0,246.0,2571.748
2571758.0,222.0,34.0,4.0,243.0,2571.758
2571768.0,212.0,33.0,4.0,236.0,2571.768
2571778.0,217.0,33.0,4.0,239.0,2571.778
2571788.0,214.0,33.0,4.0,239.0,2571.788
2571798.0,219.0,33.0,4.0,244.0,2571.798
2571808.0,221.0,34.0,3.0,243.0,2571.808
2571819.0,211.0,32.0,3.0,236.0,2571.819
2571829.0,215.0,33.0,3.0,239.0,2571.829
2571839.0,221.0,33.0,5.0,246.0,2571.839
2571849.0,218.0,32.0,4.0,244.0,2571.849
2571859.0,219.0,33.0,4.0,239.0,2571.859
2571869.0,212.0,32.0,4.0,233.0,2571.869
2571879.0,215.0,33.0,4.0,237.0,2571.879
2571889.0,221.0,33.0,3.0,244.0,2571.889
2571899.0,218.0,32.0,5.0,241.0,2571.899
2571909.0,221.0,33.0,3.0,241.0,2571.909
2571919.0,210.0,33.0,4.0,232.0,2571.919
2571929.0,214.0,32.0,4.0,239.0,2571.929
2571939.0,221.0,33.0,3.0,245.0,2571.939
2571949.0,218.0,33.0,4.0,245.0,2571.949
2571959.0,220.0,33.0,3.0,242.0,2571.959
2571969.0,211.0,32.0,5.0,233.0,2571.969
2571979.0,215.0,32.0,4.0,242.0,2571.979
2571990.0,221.0,32.0,4.0,246.0,2571.99
2572000.0,216.0,33.0,3.0,242.0,2572.0
2572010.0,218.0,32.0,4.0,241.0,2572.01
2572020.0,209.0,33.0,3.0,236.0,2572.02
2572030.0,220.0,32.0,5.0,245.0,2572.03
2572040.0,224.0,32.0,4.0,246.0,2572.04
2572050.0,216.0,32.0,4.0,241.0,2572.05
2572060.0,219.0,33.0,4.0,240.0,2572.06
2572070.0,213.0,32.0,4.0,234.0,2572.07
2572080.0,218.0,33.0,3.0,239.0,2572.08
2572090.0,224.0,33.0,4.0,244.0,2572.09
2572100.0,217.0,31.0,4.0,237.0,2572.1
2572110.0,218.0,33.0,4.0,238.0,2572.11
2572120.0,211.0,31.0,4.0,230.0,2572.12
2572130.0,217.0,32.0,4.0,240.0,2572.13
2572140.0,223.0,32.0,3.0,244.0,2572.14
2572150.0,215.0,32.0,3.0,238.0,2572.15
2572160.0,220.0,32.0,4.0,240.0,2572.16
2572170.0,210.0,32.0,4.0,233.0,2572.17
2572180.0,218.0,32.0,4.0,243.0,2572.18
2572190.0,224.0,34.0,3.0,248.0,2572.19
2572200.0,215.0,32.0,4.0,239.0,2572.2
2572210.0,219.0,33.0,3.0,241.0,2572.21
2572220.0,210.0,32.0,4.0,234.0,2572.22
2572230.0,218.0,32.0,3.0,245.0,2572.23
2572240.0,223.0,33.0,4.0,247.0,2572.24
2572250.0,217.0,31.0,4.0,241.0,2572.25
2572260.0,219.0,33.0,3.0,240.0,2572.26
2572270.0,211.0,32.0,4.0,235.0,2572.27
2572280.0,219.0,33.0,4.0,245.0,2572.28
2572290.0,224.0,32.0,3.0,247.0,2572.29
2572300.0,216.0,32.0,2.0,241.0,2572.3
2572310.0,218.0,32.0,4.0,239.0,2572.31
2572320.0,211.0,34.0,3.0,236.0,2572.32
2572331.0,218.0,32.0,4.0,244.0,2572.331
2572341.0,223.0,33.0,4.0,244.0,2572.341
2572351.0,213.0,33.0,5.0,235.0,2572.351
2572361.0,216.0,32.0,4.0,238.0,2572.361
2572371.0,217.0,33.0,4.0,241.0,2572.371
2572381.0,219.0,32.0,4.0,243.0,2572.381
2572391.0,223.0,33.0,4.0,242.0,2572.391
2572401.0,213.0,32.0,4.0,235.0,2572.401
2572411.0,217.0,33.0,5.0,239.0,2572.411
2572421.0,213.0,32.0,4.0,238.0,2572.421
2572431.0,218.0,33.0,3.0,245.0,2572.431
2572441.0,223.0,33.0,3.0,243.0,2572.441
2572451.0,211.0,33.0,3.0,235.0,2572.451
2572461.0,217.0,32.0,4.0,238.0,2572.461
2572471.0,213.0,33.0,4.0,239.0,2572.471
2572481.0,220.0,33.0,5.0,245.0,2572.481
2572491.0,222.0,33.0,4.0,244.0,2572.491
2572502.0,212.0,32.0,4.0,237.0,2572.502
2572512.0,216.0,33.0,3.0,240.0,2572.512
2572522.0,220.0,32.0,4.0,246.0,2572.522
2572532.0,218.0,32.0,4.0,244.0,2572.532
2572542.0,221.0,33.0,5.0,241.0,2572.542
2572552.0,211.0,33.0,3.0,235.0,2572.552
2572562.0,215.0,32.0,4.0,239.0,2572.562
2572572.0,221.0,33.0,4.0,245.0,2572.572
2572582.0,218.0,32.0,4.0,243.0,2572.582
2572592.0,222.0,34.0,3.0,244.0,2572.592
2572602.0,211.0,32.0,4.0,235.0,2572.602
2572612.0,216.0,33.0,4.0,240.0,2572.612
2572622.0,220.0,33.0,4.0,246.0,2572.622
2572632.0,220.0,31.0,4.0,244.0,2572.632
2572642.0,221.0,33.0,3.0,242.0,2572.642
2572652.0,210.0,32.0,4.0,234.0,2572.652
2572662.0,214.0,32.0,4.0,241.0,2572.662
2572672.0,218.0,32.0,4.0,243.0,2572.672
2572682.0,218.0,32.0,2.0,244.0,2572.682
2572692.0,220.0,32.0,4.0,241.0,2572.692
2572702.0,209.0,33.0,3.0,233.0,2572.702
2572712.0,214.0,32.0,4.0,240.0,2572.712
2572722.0,217.0,33.0,3.0,244.0,2572.722
2572732.0,217.0,32.0,4.0,243.0,2572.732
2572742.0,220.0,32.0,4.0,241.0,2572.742
2572752.0,209.0,32.0,3.0,233.0,2572.752
2572762.0,215.0,33.0,4.0,239.0,2572.762
2572772.0,219.0,34.0,3.0,245.0,2572.772
2572782.0,217.0,32.0,4.0,245.0,2572.782
2572792.0,219.0,33.0,4.0,244.0,2572.792
2572802.0,210.0,32.0,4.0,237.0,2572.802
2572812.0,214.0,33.0,3.0,240.0,2572.812
2572822.0,220.0,33.0,4.0,245.0,2572.822
2572832.0,217.0,33.0,3.0,243.0,2572.832
2572843.0,219.0,32.0,4.0,240.0,2572.843
2572853.0,209.0,33.0,4.0,233.0,2572.853
2572863.0,217.0,33.0,5.0,242.0,2572.863
2572873.0,223.0,32.0,4.0,246.0,2572.873
2572883.0,214.0,33.0,4.0,239.0,2572.883
2572893.0,218.0,32.0,4.0,240.0,2572.893
2572903.0,209.0,33.0,4.0,232.0,2572.903
2572913.0,217.0,32.0,4.0,242.0,2572.913
2572923.0,223.0,33.0,4.0,245.0,2572.923
2572933.0,216.0,32.0,4.0,242.0,2572.933
2572943.0,218.0,33.0,4.0,241.0,2572.943
2572953.0,210.0,32.0,4.0,235.0,2572.953
2572963.0,218.0,34.0,3.0,245.0,2572.963
2572973.0,222.0,33.0,4.0,247.0,2572.973
2572983.0,215.0,33.0,3.0,242.0,2572.983
2572993.0,218.0,33.0,4.0,241.0,2572.993
2573003.0,210.0,33.0,2.0,236.0,2573.003
2573014.0,218.0,32.0,3.0,244.0,2573.014
2573024.0,222.0,34.0,3.0,245.0,2573.024
2573034.0,213.0,32.0,4.0,239.0,2573.034
2573044.0,215.0,33.0,3.0,240.0,2573.044
2573054.0,217.0,33.0,5.0,243.0,2573.054
2573064.0,219.0,33.0,4.0,245.0,2573.064
2573074.0,222.0,34.0,4.0,245.0,2573.074
2573084.0,212.0,33.0,4.0,238.0,2573.084
2573094.0,215.0,33.0,3.0,238.0,2573.094
2573104.0,211.0,33.0,3.0,238.0,2573.104
2573114.0,219.0,33.0,4.0,245.0,2573.114
2573124.0,223.0,33.0,4.0,244.0,2573.124
2573134.0,212.0,33.0,4.0,236.0,2573.134
2573144.0,217.0,33.0,4.0,240.0,2573.144
2573154.0,211.0,34.0,3.0,239.0,2573.154
2573164.0,219.0,32.0,4.0,244.0,2573.164
2573174.0,221.0,33.0,4.0,243.0,2573.174
2573184.0,215.0,32.0,4.0,239.0,2573.184
2573194.0,216.0,33.0,2.0,240.0,2573.194
2573204.0,215.0,33.0,4.0,239.0,2573.204
2573214.0,220.0,33.0,4.0,245.0,2573.214
2573224.0,222.0,34.0,4.0,241.0,2573.224
2573234.0,215.0,33.0,4.0,239.0,2573.234
2573244.0,217.0,34.0,4.0,240.0,2573.244
2573254.0,217.0,33.0,3.0,241.0,2573.254
2573264.0,220.0,33.0,4.0,245.0,2573.264
2573274.0,224.0,33.0,4.0,247.0,2573.274
2573284.0,215.0,34.0,3.0,239.0,2573.284
2573294.0,217.0,32.0,4.0,238.0,2573.294
2573304.0,217.0,34.0,4.0,240.0,2573.304
2573314.0,220.0,33.0,4.0,243.0,2573.314
2573324.0,224.0,34.0,4.0,243.0,2573.324
2573334.0,214.0,33.0,4.0,235.0,2573.334
2573344.0,216.0,35.0,3.0,238.0,2573.344
2573355.0,217.0,33.0,4.0,240.0,2573.355
2573365.0,219.0,33.0,4.0,244.0,2573.365
2573375.0,220.0,33.0,4.0,243.0,2573.375
2573385.0,210.0,33.0,4.0,236.0,2573.385
2573395.0,215.0,33.0,4.0,240.0,2573.395
2573405.0,218.0,34.0,3.0,244.0,2573.405
2573415.0,220.0,33.0,3.0,245.0,2573.415
2573425.0,220.0,33.0,4.0,242.0,2573.425
2573435.0,211.0,33.0,4.0,235.0,2573.435
2573445.0,216.0,34.0,4.0,240.0,2573.445
2573455.0,220.0,33.0,4.0,245.0,2573.455
2573465.0,220.0,33.0,4.0,245.0,2573.465
2573475.0,219.0,34.0,3.0,242.0,2573.475
2573485.0,212.0,33.0,4.0,237.0,2573.485
2573495.0,215.0,33.0,3.0,240.0,2573.495
2573505.0,221.0,33.0,4.0,246.0,2573.505
2573515.0,218.0,33.0,4.0,246.0,2573.515
2573526.0,219.0,33.0,4.0,241.0,2573.526
2573536.0,211.0,33.0,3.0,235.0,2573.536
2573546.0,217.0,32.0,4.0,243.0,2573.546
2573556.0,223.0,33.0,3.0,247.0,2573.556
2573566.0,217.0,32.0,4.0,242.0,2573.566
2573576.0,218.0,34.0,4.0,242.0,2573.576
2573586.0,210.0,33.0,4.0,236.0,2573.586
2573596.0,218.0,33.0,3.0,246.0,2573.596
2573606.0,222.0,33.0,4.0,248.0,2573.606
2573616.0,218.0,33.0,4.0,246.0,2573.616
2573626.0,218.0,33.0,4.0,243.0,2573.626
2573636.0,212.0,33.0,5.0,237.0,2573.636
2573646.0,218.0,33.0,4.0,245.0,2573.646
2573656.0,223.0,33.0,4.0,247.0,2573.656
2573666.0,218.0,34.0,3.0,245.0,2573.666
2573676.0,218.0,32.0,3.0,242.0,2573.676
2573686.0,211.0,33.0,4.0,237.0,2573.686
2573696.0,216.0,32.0,4.0,242.0,2573.696
2573706.0,222.0,33.0,4.0,247.0,2573.706
2573716.0,216.0,33.0,4.0,241.0,2573.716
2573726.0,217.0,34.0,4.0,242.0,2573.726
2573736.0,210.0,33.0,3.0,236.0,2573.736
2573746.0,216.0,33.0,4.0,242.0,2573.746
2573756.0,221.0,33.0,5.0,246.0,2573.756
2573766.0,215.0,32.0,3.0,240.0,2573.766
2573776.0,216.0,33.0,3.0,240.0,2573.776
2573786.0,211.0,32.0,4.0,232.0,2573.786
2573796.0,217.0,34.0,3.0,241.0,2573.796
2573806.0,222.0,32.0,3.0,245.0,2573.806
2573816.0,217.0,33.0,3.0,240.0,2573.816
2573826.0,219.0,32.0,4.0,240.0,2573.826
2573836.0,210.0,32.0,4.0,232.0,2573.836
2573846.0,218.0,32.0,4.0,242.0,2573.846
2573856.0,223.0,34.0,3.0,247.0,2573.856
2573867.0,217.0,32.0,4.0,238.0,2573.867
2573877.0,218.0,32.0,4.0,240.0,2573.877
2573887.0,215.0,32.0,4.0,239.0,2573.887
2573897.0,222.0,31.0,4.0,245.0,2573.897
2573907.0,222.0,32.0,4.0,243.0,2573.907
2573917.0,217.0,32.0,4.0,238.0,2573.917
2573927.0,217.0,32.0,3.0,239.0,2573.927
2573937.0,216.0,32.0,4.0,240.0,2573.937
2573947.0,222.0,32.0,4.0,245.0,2573.947
2573957.0,223.0,33.0,3.0,245.0,2573.957
2573967.0,217.0,32.0,4.0,237.0,2573.967
2573977.0,218.0,32.0,4.0,237.0,2573.977
2573987.0,218.0,33.0,3.0,240.0,2573.987
2573997.0,222.0,32.0,4.0,244.0,2573.997
2574007.0,224.0,32.0,3.0,244.0,2574.007
2574017.0,217.0,31.0,4.0,237.0,2574.017
2574027.0,218.0,31.0,3.0,238.0,2574.027
2574038.0,218.0,32.0,4.0,240.0,2574.038
2574048.0,223.0,32.0,4.0,245.0,2574.048
2574058.0,221.0,32.0,4.0,242.0,2574.058
2574068.0,215.0,31.0,3.0,235.0,2574.068
2574078.0,218.0,32.0,5.0,240.0,2574.078
2574088.0,220.0,31.0,4.0,242.0,2574.088
2574098.0,223.0,31.0,4.0,243.0,2574.098
2574108.0,222.0,32.0,4.0,241.0,2574.108
2574118.0,216.0,31.0,4.0,234.0,2574.118
2574128.0,219.0,32.0,4.0,239.0,2574.128
2574138.0,221.0,32.0,4.0,244.0,2574.138
2574148.0,225.0,31.0,5.0,244.0,2574.148
2574158.0,223.0,31.0,4.0,243.0,2574.158
2574168.0,220.0,31.0,5.0,237.0,2574.168
2574178.0,220.0,32.0,3.0,241.0,2574.178
2574188.0,223.0,31.0,4.0,244.0,2574.188
2574198.0,225.0,31.0,3.0,244.0,2574.198
2574208.0,225.0,32.0,4.0,242.0,2574.208
2574218.0,219.0,31.0,4.0,236.0,2574.218
2574228.0,220.0,31.0,4.0,239.0,2574.228
2574238.0,225.0,32.0,3.0,245.0,2574.238
2574248.0,225.0,32.0,3.0,242.0,2574.248
2574258.0,225.0,32.0,4.0,243.0,2574.258
2574268.0,219.0,31.0,4.0,235.0,2574.268
2574278.0,221.0,31.0,4.0,237.0,2574.278
2574288.0,226.0,32.0,3.0,244.0,2574.288
2574298.0,227.0,31.0,4.0,244.0,2574.298
2574308.0,225.0,32.0,3.0,242.0,2574.308
2574318.0,218.0,31.0,4.0,234.0,2574.318
2574328.0,220.0,31.0,3.0,239.0,2574.328
2574338.0,223.0,30.0,4.0,241.0,2574.338
2574348.0,226.0,31.0,4.0,244.0,2574.348
