time (ms),signal 0,signal 1,signal 2,signal 3,time (sec)
2545428.0,210.0,33.0,3.0,240.0,2545.428
2545438.0,216.0,34.0,3.0,242.0,2545.438
2545448.0,209.0,32.0,4.0,238.0,2545.448
2545458.0,213.0,34.0,3.0,239.0,2545.458
2545468.0,205.0,33.0,5.0,231.0,2545.468
2545478.0,210.0,34.0,4.0,240.0,2545.478
2545488.0,215.0,33.0,3.0,242.0,2545.488
2545498.0,210.0,33.0,3.0,242.0,2545.498
2545508.0,211.0,34.0,3.0,237.0,2545.508
2545518.0,203.0,33.0,4.0,229.0,2545.518
2545528.0,209.0,33.0,4.0,240.0,2545.528
2545538.0,214.0,33.0,4.0,241.0,2545.538
2545548.0,210.0,33.0,4.0,238.0,2545.548
2545558.0,211.0,33.0,3.0,236.0,2545.558
2545568.0,203.0,34.0,3.0,230.0,2545.568
2545579.0,210.0,33.0,4.0,240.0,2545.579
2545589.0,215.0,33.0,4.0,240.0,2545.589
2545599.0,207.0,33.0,4.0,234.0,2545.599
2545609.0,208.0,33.0,3.0,235.0,2545.609
2545619.0,208.0,33.0,4.0,236.0,2545.619
2545629.0,211.0,34.0,3.0,241.0,2545.629
2545639.0,215.0,33.0,3.0,240.0,2545.639
2545649.0,207.0,33.0,4.0,235.0,2545.649
2545659.0,209.0,33.0,5.0,235.0,2545.659
2545669.0,205.0,33.0,4.0,233.0,2545.669
2545679.0,212.0,33.0,4.0,240.0,2545.679
2545689.0,217.0,34.0,4.0,241.0,2545.689
2545699.0,208.0,32.0,3.0,233.0,2545.699
2545709.0,211.0,33.0,3.0,236.0,2545.709
2545719.0,206.0,33.0,3.0,233.0,2545.719
2545729.0,214.0,32.0,4.0,241.0,2545.729
2545739.0,217.0,34.0,4.0,240.0,2545.739
2545750.0,208.0,33.0,3.0,234.0,2545.75
2545760.0,210.0,33.0,3.0,235.0,2545.76
2545770.0,212.0,32.0,4.0,239.0,2545.77
2545780.0,212.0,32.0,4.0,240.0,2545.78
2545790.0,215.0,33.0,4.0,237.0,2545.79
2545800.0,206.0,32.0,4.0,233.0,2545.8
2545810.0,209.0,32.0,4.0,236.0,2545.81
2545820.0,213.0,33.0,3.0,243.0,2545.82
2545830.0,212.0,32.0,4.0,240.0,2545.83
2545840.0,215.0,33.0,4.0,237.0,2545.84
2545850.0,205.0,33.0,4.0,230.0,2545.85
2545860.0,209.0,33.0,4.0,232.0,2545.86
2545870.0,214.0,33.0,4.0,239.0,2545.87
2545880.0,213.0,33.0,3.0,241.0,2545.88
2545890.0,215.0,33.0,3.0,237.0,2545.89
2545900.0,206.0,32.0,4.0,231.0,2545.9
2545910.0,209.0,33.0,4.0,236.0,2545.91
2545920.0,212.0,33.0,4.0,238.0,2545.92
2545930.0,214.0,33.0,4.0,240.0,2545.93
2545940.0,215.0,33.0,4.0,237.0,2545.94
2545950.0,206.0,33.0,3.0,232.0,2545.95
2545960.0,210.0,32.0,4.0,235.0,2545.96
2545970.0,212.0,33.0,3.0,239.0,2545.97
2545980.0,216.0,32.0,4.0,241.0,2545.98
2545990.0,214.0,33.0,2.0,239.0,2545.99
2546000.0,205.0,32.0,3.0,232.0,2546.0
2546010.0,211.0,33.0,4.0,238.0,2546.01
2546020.0,213.0,32.0,3.0,243.0,2546.02
2546030.0,213.0,32.0,3.0,243.0,2546.03
2546040.0,215.0,32.0,5.0,240.0,2546.04
2546050.0,207.0,32.0,4.0,235.0,2546.05
2546060.0,210.0,32.0,4.0,237.0,2546.06
2546070.0,215.0,32.0,3.0,242.0,2546.07
2546080.0,214.0,33.0,3.0,242.0,2546.08
2546091.0,213.0,32.0,4.0,239.0,2546.091
2546101.0,204.0,32.0,4.0,232.0,2546.101
2546111.0,210.0,32.0,5.0,241.0,2546.111
2546121.0,215.0,33.0,3.0,245.0,2546.121
2546131.0,209.0,32.0,4.0,239.0,2546.131
2546141.0,213.0,33.0,3.0,240.0,2546.141
2546151.0,205.0,32.0,4.0,232.0,2546.151
2546161.0,211.0,32.0,4.0,244.0,2546.161
2546171.0,217.0,32.0,5.0,245.0,2546.171
2546181.0,211.0,31.0,4.0,242.0,2546.181
2546191.0,212.0,33.0,3.0,239.0,2546.191
2546201.0,204.0,32.0,4.0,234.0,2546.201
2546211.0,211.0,32.0,3.0,242.0,2546.211
2546221.0,216.0,32.0,4.0,242.0,2546.221
2546231.0,212.0,32.0,5.0,239.0,2546.231
2546241.0,213.0,33.0,4.0,238.0,2546.241
2546251.0,204.0,32.0,2.0,234.0,2546.251
2546262.0,212.0,33.0,3.0,245.0,2546.262
2546272.0,216.0,34.0,4.0,245.0,2546.272
2546282.0,209.0,32.0,4.0,237.0,2546.282
2546292.0,210.0,32.0,4.0,237.0,2546.292
2546302.0,211.0,32.0,5.0,240.0,2546.302
2546312.0,214.0,32.0,3.0,244.0,2546.312
2546322.0,217.0,33.0,4.0,241.0,2546.322
2546332.0,209.0,33.0,3.0,234.0,2546.332
2546342.0,211.0,32.0,3.0,236.0,2546.342
2546352.0,207.0,32.0,4.0,233.0,2546.352
2546362.0,217.0,33.0,4.0,243.0,2546.362
2546372.0,218.0,32.0,4.0,241.0,2546.372
2546382.0,210.0,32.0,4.0,234.0,2546.382
2546392.0,214.0,32.0,4.0,238.0,2546.392
2546402.0,209.0,33.0,3.0,235.0,2546.402
2546412.0,216.0,32.0,4.0,242.0,2546.412
2546422.0,218.0,33.0,4.0,240.0,2546.422
2546432.0,212.0,32.0,4.0,236.0,2546.432
2546442.0,212.0,33.0,3.0,237.0,2546.442
2546452.0,210.0,32.0,4.0,236.0,2546.452
2546462.0,216.0,33.0,3.0,243.0,2546.462
2546472.0,217.0,32.0,5.0,240.0,2546.472
2546482.0,209.0,33.0,3.0,237.0,2546.482
2546492.0,212.0,33.0,5.0,237.0,2546.492
2546502.0,210.0,33.0,2.0,239.0,2546.502
2546512.0,215.0,32.0,4.0,242.0,2546.512
2546522.0,217.0,33.0,4.0,244.0,2546.522
2546532.0,208.0,33.0,3.0,236.0,2546.532
2546542.0,212.0,33.0,3.0,237.0,2546.542
2546552.0,212.0,32.0,5.0,238.0,2546.552
2546562.0,216.0,31.0,4.0,241.0,2546.562
2546572.0,218.0,33.0,4.0,242.0,2546.572
2546582.0,210.0,32.0,3.0,234.0,2546.582
2546592.0,212.0,34.0,3.0,236.0,2546.592
2546603.0,214.0,32.0,3.0,240.0,2546.603
2546613.0,216.0,33.0,3.0,242.0,2546.613
2546623.0,217.0,33.0,4.0,239.0,2546.623
2546633.0,208.0,32.0,2.0,232.0,2546.633
2546643.0,212.0,32.0,4.0,235.0,2546.643
2546653.0,214.0,33.0,3.0,240.0,2546.653
2546663.0,212.0,32.0,4.0,240.0,2546.663
2546673.0,212.0,33.0,4.0,239.0,2546.673
2546683.0,205.0,32.0,5.0,229.0,2546.683
2546693.0,210.0,32.0,4.0,235.0,2546.693
2546703.0,215.0,33.0,4.0,240.0,2546.703
2546713.0,216.0,33.0,3.0,240.0,2546.713
2546723.0,216.0,33.0,3.0,238.0,2546.723
2546733.0,209.0,32.0,4.0,234.0,2546.733
2546743.0,212.0,32.0,4.0,232.0,2546.743
2546753.0,217.0,33.0,4.0,239.0,2546.753
2546763.0,216.0,32.0,4.0,239.0,2546.763
2546774.0,219.0,32.0,4.0,234.0,2546.774
2546784.0,209.0,33.0,3.0,227.0,2546.784
2546794.0,217.0,32.0,4.0,236.0,2546.794
2546804.0,222.0,33.0,4.0,241.0,2546.804
2546814.0,217.0,32.0,5.0,237.0,2546.814
2546824.0,219.0,32.0,2.0,240.0,2546.824
2546834.0,213.0,32.0,4.0,232.0,2546.834
2546844.0,224.0,33.0,3.0,246.0,2546.844
2546854.0,232.0,32.0,4.0,246.0,2546.854
2546864.0,226.0,32.0,4.0,247.0,2546.864
2546874.0,227.0,33.0,4.0,247.0,2546.874
2546884.0,221.0,31.0,4.0,246.0,2546.884
2546894.0,227.0,33.0,3.0,256.0,2546.894
2546904.0,230.0,33.0,3.0,256.0,2546.904
2546914.0,229.0,33.0,3.0,250.0,2546.914
2546924.0,232.0,32.0,4.0,249.0,2546.924
2546934.0,220.0,33.0,4.0,242.0,2546.934
2546944.0,226.0,32.0,4.0,247.0,2546.944
2546954.0,228.0,33.0,4.0,249.0,2546.954
2546964.0,220.0,32.0,4.0,242.0,2546.964
2546974.0,223.0,34.0,3.0,243.0,2546.974
2546984.0,217.0,33.0,4.0,238.0,2546.984
2546994.0,221.0,33.0,3.0,243.0,2546.994
2547004.0,229.0,33.0,5.0,244.0,2547.004
2547014.0,222.0,32.0,4.0,239.0,2547.014
2547024.0,226.0,32.0,4.0,240.0,2547.024
2547034.0,216.0,33.0,4.0,232.0,2547.034
2547044.0,223.0,33.0,3.0,244.0,2547.044
2547054.0,235.0,33.0,4.0,248.0,2547.054
2547064.0,225.0,33.0,4.0,241.0,2547.064
2547074.0,232.0,33.0,4.0,244.0,2547.074
2547084.0,222.0,33.0,4.0,237.0,2547.084
2547094.0,231.0,32.0,4.0,249.0,2547.094
2547104.0,234.0,34.0,3.0,252.0,2547.104
2547115.0,222.0,32.0,4.0,241.0,2547.115
2547125.0,221.0,33.0,4.0,238.0,2547.125
2547135.0,218.0,33.0,5.0,240.0,2547.135
2547145.0,226.0,33.0,4.0,247.0,2547.145
2547155.0,225.0,33.0,4.0,245.0,2547.155
2547165.0,216.0,34.0,3.0,240.0,2547.165
2547175.0,217.0,32.0,4.0,239.0,2547.175
2547185.0,223.0,32.0,4.0,243.0,2547.185
2547195.0,231.0,33.0,5.0,246.0,2547.195
2547205.0,235.0,33.0,4.0,249.0,2547.205
2547215.0,229.0,32.0,4.0,240.0,2547.215
2547225.0,230.0,33.0,3.0,242.0,2547.225
2547235.0,230.0,33.0,3.0,244.0,2547.235
2547245.0,230.0,33.0,4.0,246.0,2547.245
2547255.0,232.0,33.0,4.0,244.0,2547.255
2547265.0,223.0,33.0,5.0,232.0,2547.265
2547275.0,223.0,33.0,4.0,234.0,2547.275
2547286.0,226.0,33.0,3.0,238.0,2547.286
2547296.0,227.0,33.0,3.0,238.0,2547.296
2547306.0,230.0,32.0,4.0,239.0,2547.306
2547316.0,228.0,32.0,4.0,230.0,2547.316
2547326.0,236.0,33.0,5.0,241.0,2547.326
2547336.0,244.0,33.0,2.0,246.0,2547.336
2547346.0,248.0,32.0,3.0,246.0,2547.346
2547356.0,243.0,34.0,3.0,250.0,2547.356
2547366.0,233.0,32.0,4.0,235.0,2547.366
2547376.0,241.0,32.0,4.0,246.0,2547.376
2547386.0,247.0,33.0,4.0,259.0,2547.386
2547396.0,243.0,33.0,4.0,252.0,2547.396
2547406.0,242.0,33.0,4.0,255.0,2547.406
2547416.0,238.0,33.0,4.0,247.0,2547.416
2547426.0,243.0,34.0,3.0,254.0,2547.426
2547436.0,247.0,32.0,4.0,258.0,2547.436
2547446.0,246.0,33.0,3.0,249.0,2547.446
2547456.0,246.0,32.0,4.0,249.0,2547.456
2547466.0,240.0,32.0,4.0,238.0,2547.466
2547476.0,240.0,33.0,3.0,243.0,2547.476
2547486.0,246.0,33.0,3.0,251.0,2547.486
2547496.0,240.0,32.0,4.0,244.0,2547.496
2547506.0,244.0,34.0,3.0,250.0,2547.506
2547516.0,239.0,33.0,5.0,239.0,2547.516
2547526.0,238.0,32.0,4.0,241.0,2547.526
2547536.0,240.0,33.0,4.0,246.0,2547.536
2547546.0,241.0,33.0,4.0,244.0,2547.546
2547556.0,237.0,33.0,3.0,245.0,2547.556
2547566.0,226.0,32.0,4.0,233.0,2547.566
2547576.0,233.0,33.0,4.0,242.0,2547.576
2547586.0,236.0,33.0,4.0,246.0,2547.586
2547596.0,238.0,32.0,4.0,246.0,2547.596
2547606.0,235.0,32.0,4.0,244.0,2547.606
2547616.0,229.0,33.0,3.0,236.0,2547.616
2547627.0,232.0,32.0,4.0,246.0,2547.627
2547637.0,244.0,33.0,4.0,254.0,2547.637
2547647.0,240.0,33.0,4.0,245.0,2547.647
2547657.0,238.0,33.0,4.0,247.0,2547.657
2547667.0,241.0,32.0,4.0,246.0,2547.667
2547677.0,243.0,33.0,2.0,252.0,2547.677
2547687.0,248.0,33.0,4.0,254.0,2547.687
2547697.0,241.0,32.0,4.0,245.0,2547.697
2547707.0,242.0,32.0,4.0,249.0,2547.707
2547717.0,234.0,33.0,4.0,240.0,2547.717
2547727.0,243.0,33.0,3.0,253.0,2547.727
2547737.0,247.0,32.0,4.0,256.0,2547.737
2547747.0,241.0,32.0,3.0,247.0,2547.747
2547757.0,238.0,33.0,4.0,249.0,2547.757
2547767.0,232.0,32.0,4.0,242.0,2547.767
2547777.0,243.0,33.0,4.0,253.0,2547.777
2547787.0,248.0,33.0,4.0,258.0,2547.787
2547798.0,241.0,32.0,3.0,247.0,2547.798
2547808.0,242.0,33.0,3.0,251.0,2547.808
2547818.0,243.0,32.0,4.0,251.0,2547.818
2547828.0,250.0,32.0,3.0,256.0,2547.828
2547838.0,250.0,33.0,5.0,255.0,2547.838
2547848.0,246.0,33.0,2.0,249.0,2547.848
2547858.0,242.0,33.0,4.0,248.0,2547.858
2547868.0,242.0,33.0,3.0,251.0,2547.868
2547878.0,245.0,32.0,4.0,249.0,2547.878
2547888.0,247.0,33.0,4.0,252.0,2547.888
2547898.0,239.0,32.0,4.0,242.0,2547.898
2547908.0,239.0,33.0,4.0,243.0,2547.908
2547918.0,242.0,33.0,4.0,247.0,2547.918
2547928.0,241.0,32.0,4.0,248.0,2547.928
2547938.0,245.0,34.0,4.0,250.0,2547.938
2547948.0,238.0,32.0,4.0,242.0,2547.948
2547958.0,238.0,32.0,4.0,240.0,2547.958
2547968.0,239.0,32.0,4.0,242.0,2547.968
2547978.0,246.0,33.0,3.0,250.0,2547.978
2547988.0,247.0,32.0,4.0,251.0,2547.988
2547998.0,237.0,33.0,3.0,244.0,2547.998
2548008.0,235.0,32.0,4.0,244.0,2548.008
2548018.0,235.0,33.0,3.0,246.0,2548.018
2548028.0,238.0,33.0,4.0,248.0,2548.028
2548038.0,239.0,33.0,3.0,246.0,2548.038
2548048.0,229.0,32.0,4.0,237.0,2548.048
2548058.0,238.0,32.0,4.0,241.0,2548.058
2548068.0,236.0,33.0,3.0,241.0,2548.068
2548078.0,243.0,32.0,4.0,246.0,2548.078
2548088.0,241.0,32.0,4.0,244.0,2548.088
2548098.0,233.0,32.0,4.0,240.0,2548.098
2548108.0,234.0,33.0,4.0,242.0,2548.108
2548118.0,237.0,33.0,4.0,247.0,2548.118
2548128.0,241.0,34.0,3.0,250.0,2548.128
2548139.0,242.0,32.0,4.0,250.0,2548.139
2548149.0,233.0,32.0,4.0,242.0,2548.149
2548159.0,239.0,32.0,5.0,247.0,2548.159
2548169.0,246.0,32.0,4.0,256.0,2548.169
2548179.0,244.0,32.0,4.0,254.0,2548.179
2548189.0,246.0,33.0,4.0,254.0,2548.189
2548199.0,238.0,32.0,3.0,246.0,2548.199
2548209.0,243.0,32.0,3.0,252.0,2548.209
2548219.0,254.0,32.0,5.0,260.0,2548.219
2548229.0,250.0,31.0,4.0,257.0,2548.229
2548239.0,248.0,32.0,4.0,252.0,2548.239
2548249.0,239.0,33.0,4.0,247.0,2548.249
2548259.0,243.0,33.0,3.0,257.0,2548.259
2548269.0,247.0,32.0,4.0,261.0,2548.269
2548279.0,248.0,32.0,4.0,260.0,2548.279
2548289.0,245.0,33.0,5.0,257.0,2548.289
2548299.0,232.0,33.0,4.0,248.0,2548.299
2548310.0,239.0,33.0,4.0,257.0,2548.31
2548320.0,245.0,33.0,3.0,260.0,2548.32
2548330.0,240.0,32.0,3.0,253.0,2548.33
2548340.0,240.0,32.0,3.0,254.0,2548.34
2548350.0,237.0,32.0,5.0,250.0,2548.35
2548360.0,243.0,33.0,4.0,257.0,2548.36
2548370.0,247.0,33.0,4.0,258.0,2548.37
2548380.0,241.0,33.0,3.0,252.0,2548.38
2548390.0,241.0,32.0,3.0,251.0,2548.39
2548400.0,235.0,32.0,4.0,246.0,2548.4
2548410.0,244.0,33.0,4.0,256.0,2548.41
2548420.0,250.0,33.0,4.0,259.0,2548.42
2548430.0,244.0,32.0,4.0,253.0,2548.43
2548440.0,247.0,32.0,4.0,255.0,2548.44
2548450.0,242.0,34.0,3.0,249.0,2548.45
2548460.0,247.0,32.0,3.0,256.0,2548.46
2548470.0,249.0,33.0,3.0,256.0,2548.47
2548480.0,244.0,32.0,4.0,251.0,2548.48
2548490.0,244.0,33.0,4.0,251.0,2548.49
2548500.0,240.0,32.0,4.0,250.0,2548.5
2548510.0,248.0,34.0,3.0,262.0,2548.51
2548520.0,252.0,33.0,4.0,260.0,2548.52
2548530.0,244.0,33.0,4.0,255.0,2548.53
2548540.0,244.0,33.0,4.0,254.0,2548.54
2548550.0,239.0,33.0,3.0,250.0,2548.55
2548560.0,245.0,33.0,4.0,259.0,2548.56
2548570.0,248.0,33.0,4.0,260.0,2548.57
2548580.0,241.0,33.0,3.0,254.0,2548.58
2548590.0,241.0,33.0,4.0,254.0,2548.59
2548600.0,238.0,33.0,4.0,252.0,2548.6
2548610.0,242.0,33.0,5.0,256.0,2548.61
2548620.0,246.0,34.0,4.0,260.0,2548.62
2548630.0,242.0,33.0,4.0,255.0,2548.63
2548640.0,244.0,34.0,3.0,256.0,2548.64
2548651.0,243.0,33.0,4.0,254.0,2548.651
2548661.0,251.0,33.0,4.0,260.0,2548.661
2548671.0,252.0,34.0,5.0,259.0,2548.671
2548681.0,241.0,33.0,4.0,250.0,2548.681
2548691.0,244.0,33.0,3.0,255.0,2548.691
2548701.0,245.0,33.0,3.0,259.0,2548.701
2548711.0,249.0,32.0,3.0,263.0,2548.711
2548721.0,251.0,33.0,4.0,260.0,2548.721
2548731.0,239.0,33.0,3.0,251.0,2548.731
2548741.0,246.0,33.0,4.0,255.0,2548.741
2548751.0,244.0,33.0,4.0,256.0,2548.751
2548761.0,248.0,33.0,4.0,261.0,2548.761
2548771.0,249.0,34.0,3.0,256.0,2548.771
2548781.0,241.0,32.0,3.0,249.0,2548.781
2548791.0,244.0,33.0,4.0,251.0,2548.791
2548801.0,245.0,33.0,4.0,254.0,2548.801
2548811.0,247.0,33.0,4.0,257.0,2548.811
2548822.0,248.0,32.0,3.0,254.0,2548.822
2548832.0,237.0,33.0,3.0,246.0,2548.832
2548842.0,241.0,32.0,4.0,253.0,2548.842
2548852.0,248.0,33.0,4.0,258.0,2548.852
2548862.0,246.0,32.0,5.0,254.0,2548.862
2548872.0,246.0,32.0,4.0,255.0,2548.872
2548882.0,240.0,32.0,4.0,251.0,2548.882
2548892.0,245.0,32.0,4.0,260.0,2548.892
2548902.0,250.0,32.0,4.0,264.0,2548.902
2548912.0,250.0,30.0,4.0,263.0,2548.912
2548922.0,248.0,32.0,3.0,259.0,2548.922
2548932.0,240.0,32.0,4.0,249.0,2548.932
2548942.0,246.0,33.0,4.0,260.0,2548.942
2548952.0,251.0,32.0,5.0,263.0,2548.952
2548962.0,249.0,33.0,3.0,263.0,2548.962
2548972.0,246.0,32.0,4.0,259.0,2548.972
2548982.0,237.0,33.0,3.0,250.0,2548.982
2548992.0,244.0,32.0,4.0,258.0,2548.992
2549002.0,247.0,32.0,2.0,264.0,2549.002
2549012.0,245.0,32.0,4.0,261.0,2549.012
2549022.0,244.0,33.0,3.0,259.0,2549.022
2549032.0,234.0,32.0,4.0,248.0,2549.032
2549042.0,238.0,32.0,4.0,255.0,2549.042
2549052.0,245.0,33.0,4.0,261.0,2549.052
2549062.0,245.0,31.0,4.0,257.0,2549.062
2549072.0,246.0,33.0,4.0,257.0,2549.072
2549082.0,240.0,32.0,4.0,250.0,2549.082
2549092.0,244.0,33.0,3.0,256.0,2549.092
2549102.0,252.0,32.0,4.0,260.0,2549.102
2549112.0,248.0,32.0,3.0,255.0,2549.112
2549122.0,250.0,33.0,5.0,255.0,2549.122
2549132.0,239.0,32.0,4.0,246.0,2549.132
2549142.0,243.0,32.0,3.0,253.0,2549.142
2549152.0,249.0,33.0,3.0,260.0,2549.152
2549163.0,246.0,32.0,4.0,254.0,2549.163
2549173.0,248.0,32.0,4.0,254.0,2549.173
2549183.0,240.0,33.0,4.0,250.0,2549.183
2549193.0,249.0,31.0,4.0,261.0,2549.193
2549203.0,252.0,33.0,4.0,260.0,2549.203
2549213.0,245.0,33.0,4.0,255.0,2549.213
2549223.0,243.0,33.0,3.0,254.0,2549.223
2549233.0,238.0,32.0,4.0,251.0,2549.233
2549243.0,245.0,33.0,5.0,259.0,2549.243
2549253.0,248.0,32.0,4.0,260.0,2549.253
2549263.0,242.0,33.0,2.0,254.0,2549.263
2549273.0,243.0,32.0,4.0,254.0,2549.273
2549283.0,240.0,33.0,3.0,252.0,2549.283
2549293.0,244.0,32.0,4.0,257.0,2549.293
2549303.0,251.0,33.0,3.0,260.0,2549.303
2549313.0,244.0,33.0,4.0,253.0,2549.313
2549323.0,240.0,33.0,4.0,252.0,2549.323
2549334.0,238.0,32.0,4.0,250.0,2549.334
2549344.0,244.0,33.0,3.0,256.0,2549.344
2549354.0,246.0,32.0,3.0,253.0,2549.354
2549364.0,238.0,32.0,5.0,247.0,2549.364
2549374.0,241.0,32.0,5.0,250.0,2549.374
2549384.0,241.0,32.0,4.0,253.0,2549.384
2549394.0,246.0,32.0,4.0,257.0,2549.394
2549404.0,245.0,33.0,4.0,255.0,2549.404
2549414.0,236.0,32.0,3.0,248.0,2549.414
2549424.0,240.0,32.0,4.0,252.0,2549.424
2549434.0,241.0,32.0,4.0,256.0,2549.434
2549444.0,245.0,31.0,5.0,258.0,2549.444
2549454.0,244.0,33.0,4.0,255.0,2549.454
2549464.0,239.0,32.0,4.0,251.0,2549.464
2549474.0,240.0,33.0,3.0,253.0,2549.474
2549484.0,243.0,32.0,4.0,257.0,2549.484
2549494.0,245.0,32.0,4.0,259.0,2549.494
2549504.0,247.0,32.0,4.0,258.0,2549.504
2549514.0,238.0,31.0,4.0,251.0,2549.514
2549524.0,240.0,32.0,3.0,252.0,2549.524
2549534.0,243.0,33.0,4.0,258.0,2549.534
2549544.0,244.0,32.0,4.0,257.0,2549.544
2549554.0,245.0,32.0,4.0,256.0,2549.554
2549564.0,238.0,32.0,4.0,249.0,2549.564
2549574.0,241.0,31.0,3.0,252.0,2549.574
2549584.0,244.0,32.0,4.0,258.0,2549.584
2549594.0,246.0,32.0,4.0,260.0,2549.594
2549604.0,246.0,34.0,3.0,257.0,2549.604
2549614.0,237.0,32.0,4.0,250.0,2549.614
2549624.0,238.0,33.0,4.0,253.0,2549.624
2549634.0,239.0,32.0,5.0,254.0,2549.634
2549644.0,244.0,32.0,3.0,265.0,2549.644
2549654.0,246.0,32.0,3.0,264.0,2549.654
2549664.0,238.0,33.0,3.0,254.0,2549.664
2549675.0,236.0,32.0,4.0,256.0,2549.675
2549685.0,243.0,33.0,4.0,262.0,2549.685
2549695.0,239.0,32.0,4.0,258.0,2549.695
2549705.0,245.0,32.0,4.0,257.0,2549.705
2549715.0,233.0,32.0,4.0,249.0,2549.715
2549725.0,240.0,33.0,4.0,256.0,2549.725
2549735.0,243.0,33.0,3.0,263.0,2549.735
2549745.0,240.0,32.0,4.0,257.0,2549.745
2549755.0,240.0,33.0,4.0,250.0,2549.755
2549765.0,231.0,31.0,4.0,242.0,2549.765
2549775.0,234.0,33.0,4.0,249.0,2549.775
2549785.0,241.0,33.0,4.0,256.0,2549.785
2549795.0,238.0,34.0,3.0,253.0,2549.795
2549805.0,241.0,32.0,4.0,256.0,2549.805
2549815.0,233.0,33.0,3.0,252.0,2549.815
2549825.0,241.0,33.0,5.0,262.0,2549.825
2549835.0,246.0,33.0,4.0,269.0,2549.835
2549846.0,240.0,32.0,4.0,261.0,2549.846
2549856.0,241.0,34.0,3.0,262.0,2549.856
2549866.0,232.0,32.0,4.0,255.0,2549.866
2549876.0,241.0,32.0,5.0,267.0,2549.876
2549886.0,241.0,33.0,5.0,269.0,2549.886
2549896.0,233.0,32.0,4.0,257.0,2549.896
2549906.0,233.0,33.0,4.0,255.0,2549.906
2549916.0,228.0,33.0,4.0,255.0,2549.916
2549926.0,235.0,33.0,3.0,258.0,2549.926
2549936.0,238.0,33.0,3.0,257.0,2549.936
2549946.0,230.0,33.0,4.0,246.0,2549.946
2549956.0,233.0,34.0,4.0,247.0,2549.956
2549966.0,227.0,33.0,2.0,246.0,2549.966
2549976.0,233.0,33.0,4.0,255.0,2549.976
2549986.0,236.0,34.0,3.0,257.0,2549.986
2549996.0,226.0,32.0,4.0,246.0,2549.996
2550006.0,228.0,33.0,3.0,247.0,2550.006
2550016.0,221.0,32.0,4.0,242.0,2550.016
2550026.0,229.0,33.0,4.0,251.0,2550.026
2550036.0,232.0,34.0,3.0,253.0,2550.036
2550046.0,224.0,33.0,3.0,245.0,2550.046
2550056.0,225.0,33.0,3.0,246.0,2550.056
2550066.0,219.0,32.0,4.0,242.0,2550.066
2550076.0,226.0,33.0,4.0,252.0,2550.076
2550086.0,229.0,33.0,4.0,250.0,2550.086
2550096.0,220.0,32.0,4.0,242.0,2550.096
2550106.0,223.0,33.0,4.0,244.0,2550.106
2550116.0,218.0,34.0,3.0,240.0,2550.116
2550126.0,224.0,32.0,4.0,244.0,2550.126
2550136.0,226.0,33.0,4.0,245.0,2550.136
2550146.0,221.0,33.0,4.0,240.0,2550.146
2550156.0,222.0,33.0,4.0,241.0,2550.156
2550166.0,219.0,32.0,3.0,240.0,2550.166
2550176.0,225.0,33.0,3.0,248.0,2550.176
2550187.0,226.0,32.0,4.0,244.0,2550.187
2550197.0,218.0,32.0,4.0,236.0,2550.197
2550207.0,220.0,33.0,4.0,239.0,2550.207
2550217.0,224.0,33.0,4.0,246.0,2550.217
2550227.0,225.0,32.0,4.0,246.0,2550.227
2550237.0,226.0,33.0,4.0,245.0,2550.237
2550247.0,219.0,32.0,3.0,236.0,2550.247
2550257.0,220.0,32.0,3.0,239.0,2550.257
2550267.0,224.0,32.0,4.0,245.0,2550.267
2550277.0,224.0,33.0,4.0,243.0,2550.277
2550287.0,222.0,33.0,4.0,240.0,2550.287
2550297.0,216.0,32.0,3.0,232.0,2550.297
2550307.0,218.0,33.0,3.0,237.0,2550.307
2550317.0,219.0,32.0,4.0,242.0,2550.317
2550327.0,223.0,33.0,3.0,244.0,2550.327
2550337.0,222.0,33.0,5.0,242.0,2550.337
2550347.0,215.0,33.0,2.0,233.0,2550.347
2550358.0,218.0,33.0,4.0,238.0,2550.358
2550368.0,224.0,33.0,4.0,246.0,2550.368
2550378.0,222.0,33.0,4.0,242.0,2550.378
2550388.0,221.0,33.0,4.0,241.0,2550.388
2550398.0,214.0,33.0,5.0,233.0,2550.398
2550408.0,219.0,33.0,4.0,239.0,2550.408
2550418.0,224.0,33.0,4.0,245.0,2550.418
2550428.0,222.0,33.0,3.0,241.0,2550.428
2550438.0,221.0,34.0,3.0,239.0,2550.438
2550448.0,215.0,32.0,3.0,230.0,2550.448
2550458.0,221.0,33.0,4.0,239.0,2550.458
2550468.0,227.0,33.0,5.0,243.0,2550.468
2550478.0,222.0,33.0,4.0,238.0,2550.478
2550488.0,221.0,33.0,4.0,239.0,2550.488
2550498.0,215.0,34.0,3.0,231.0,2550.498
2550508.0,220.0,32.0,4.0,239.0,2550.508
2550518.0,225.0,33.0,3.0,243.0,2550.518
2550528.0,223.0,32.0,3.0,239.0,2550.528
2550538.0,222.0,33.0,4.0,238.0,2550.538
2550548.0,216.0,34.0,3.0,230.0,2550.548
2550558.0,223.0,33.0,4.0,239.0,2550.558
2550568.0,225.0,33.0,3.0,242.0,2550.568
2550578.0,223.0,33.0,3.0,240.0,2550.578
2550588.0,221.0,33.0,4.0,239.0,2550.588
2550598.0,216.0,33.0,4.0,232.0,2550.598
2550608.0,222.0,33.0,2.0,242.0,2550.608
2550618.0,225.0,33.0,4.0,246.0,2550.618
2550628.0,223.0,33.0,3.0,241.0,2550.628
2550638.0,221.0,33.0,4.0,239.0,2550.638
2550648.0,214.0,33.0,3.0,232.0,2550.648
2550658.0,220.0,33.0,5.0,238.0,2550.658
2550668.0,224.0,33.0,2.0,244.0,2550.668
2550678.0,222.0,33.0,4.0,239.0,2550.678
2550688.0,221.0,34.0,3.0,240.0,2550.688
2550699.0,215.0,32.0,4.0,234.0,2550.699
2550709.0,223.0,32.0,3.0,242.0,2550.709
2550719.0,225.0,34.0,5.0,242.0,2550.719
2550729.0,218.0,32.0,4.0,235.0,2550.729
2550739.0,219.0,35.0,3.0,239.0,2550.739
2550749.0,215.0,33.0,4.0,235.0,2550.749
2550759.0,222.0,33.0,3.0,241.0,2550.759
2550769.0,223.0,34.0,4.0,242.0,2550.769
2550779.0,216.0,33.0,4.0,234.0,2550.779
2550789.0,219.0,33.0,4.0,239.0,2550.789
2550799.0,215.0,33.0,4.0,235.0,2550.799
2550809.0,222.0,33.0,3.0,243.0,2550.809
2550819.0,223.0,34.0,3.0,242.0,2550.819
2550829.0,219.0,32.0,4.0,236.0,2550.829
2550839.0,219.0,33.0,4.0,236.0,2550.839
2550849.0,217.0,34.0,5.0,234.0,2550.849
2550859.0,223.0,34.0,4.0,241.0,2550.859
2550870.0,223.0,34.0,3.0,240.0,2550.87
2550880.0,217.0,33.0,3.0,232.0,2550.88
2550890.0,218.0,32.0,4.0,236.0,2550.89
2550900.0,223.0,34.0,4.0,242.0,2550.9
2550910.0,223.0,34.0,4.0,240.0,2550.91
2550920.0,224.0,34.0,4.0,240.0,2550.92
2550930.0,216.0,33.0,4.0,232.0,2550.93
2550940.0,219.0,33.0,4.0,236.0,2550.94
2550950.0,223.0,34.0,3.0,242.0,2550.95
2550960.0,224.0,32.0,4.0,241.0,2550.96
2550970.0,222.0,34.0,4.0,240.0,2550.97
2550980.0,217.0,33.0,4.0,231.0,2550.98
2550990.0,218.0,33.0,4.0,237.0,2550.99
2551000.0,220.0,33.0,3.0,239.0,2551.0
2551010.0,224.0,34.0,3.0,241.0,2551.01
2551020.0,222.0,34.0,4.0,238.0,2551.02
2551030.0,215.0,33.0,4.0,229.0,2551.03
2551040.0,219.0,34.0,5.0,234.0,2551.04
2551050.0,221.0,33.0,4.0,238.0,2551.05
2551060.0,223.0,34.0,4.0,238.0,2551.06
2551070.0,221.0,34.0,3.0,238.0,2551.07
2551080.0,215.0,33.0,4.0,229.0,2551.08
2551090.0,219.0,33.0,4.0,234.0,2551.09
2551100.0,223.0,33.0,4.0,240.0,2551.1
2551110.0,224.0,33.0,4.0,240.0,2551.11
2551120.0,222.0,34.0,4.0,240.0,2551.12
2551130.0,218.0,33.0,4.0,232.0,2551.13
2551140.0,219.0,35.0,3.0,236.0,2551.14
2551150.0,224.0,34.0,3.0,242.0,2551.15
2551160.0,224.0,33.0,4.0,240.0,2551.16
2551170.0,225.0,33.0,4.0,240.0,2551.17
2551180.0,217.0,33.0,4.0,231.0,2551.18
2551190.0,219.0,33.0,4.0,235.0,2551.19
2551200.0,225.0,33.0,3.0,242.0,2551.2
2551211.0,223.0,32.0,3.0,238.0,2551.211
2551221.0,221.0,33.0,4.0,238.0,2551.221
2551231.0,214.0,33.0,4.0,230.0,2551.231
2551241.0,220.0,33.0,4.0,239.0,2551.241
2551251.0,223.0,34.0,3.0,243.0,2551.251
2551261.0,220.0,33.0,3.0,237.0,2551.261
2551271.0,219.0,34.0,3.0,236.0,2551.271
2551281.0,212.0,32.0,4.0,229.0,2551.281
2551291.0,220.0,33.0,4.0,239.0,2551.291
2551301.0,224.0,33.0,5.0,242.0,2551.301
2551311.0,220.0,33.0,3.0,238.0,2551.311
2551321.0,219.0,33.0,4.0,237.0,2551.321
2551331.0,213.0,34.0,3.0,233.0,2551.331
2551341.0,218.0,32.0,4.0,238.0,2551.341
2551351.0,223.0,33.0,4.0,243.0,2551.351
2551361.0,220.0,33.0,5.0,237.0,2551.361
2551371.0,219.0,33.0,4.0,238.0,2551.371
2551382.0,212.0,33.0,4.0,233.0,2551.382
2551392.0,221.0,33.0,4.0,244.0,2551.392
2551402.0,223.0,34.0,3.0,243.0,2551.402
2551412.0,215.0,32.0,3.0,235.0,2551.412
2551422.0,216.0,33.0,5.0,237.0,2551.422
2551432.0,214.0,33.0,4.0,234.0,2551.432
2551442.0,221.0,33.0,4.0,241.0,2551.442
2551452.0,222.0,33.0,4.0,241.0,2551.452
2551462.0,214.0,33.0,3.0,234.0,2551.462
2551472.0,217.0,33.0,4.0,237.0,2551.472
2551482.0,213.0,33.0,4.0,237.0,2551.482
2551492.0,221.0,33.0,5.0,241.0,2551.492
2551502.0,220.0,34.0,2.0,240.0,2551.502
2551512.0,214.0,33.0,4.0,236.0,2551.512
2551522.0,216.0,34.0,3.0,238.0,2551.522
2551532.0,214.0,33.0,4.0,238.0,2551.532
2551542.0,220.0,33.0,4.0,243.0,2551.542
2551552.0,223.0,33.0,5.0,244.0,2551.552
2551562.0,215.0,33.0,4.0,237.0,2551.562
2551572.0,216.0,33.0,3.0,238.0,2551.572
2551582.0,216.0,33.0,4.0,239.0,2551.582
2551592.0,219.0,33.0,3.0,243.0,2551.592
2551602.0,222.0,32.0,4.0,244.0,2551.602
2551612.0,213.0,33.0,3.0,236.0,2551.612
2551622.0,216.0,33.0,4.0,237.0,2551.622
2551632.0,216.0,33.0,3.0,240.0,2551.632
2551642.0,218.0,32.0,4.0,243.0,2551.642
2551652.0,222.0,35.0,3.0,244.0,2551.652
2551662.0,213.0,32.0,4.0,234.0,2551.662
2551672.0,215.0,33.0,3.0,237.0,2551.672
2551682.0,212.0,32.0,5.0,234.0,2551.682
2551692.0,219.0,33.0,3.0,242.0,2551.692
2551702.0,222.0,33.0,4.0,241.0,2551.702
2551712.0,212.0,33.0,3.0,234.0,2551.712
2551723.0,214.0,33.0,4.0,236.0,2551.723
2551733.0,218.0,33.0,4.0,241.0,2551.733
2551743.0,218.0,33.0,5.0,240.0,2551.743
2551753.0,218.0,33.0,4.0,238.0,2551.753
2551763.0,209.0,34.0,3.0,230.0,2551.763
2551773.0,215.0,33.0,4.0,236.0,2551.773
2551783.0,219.0,34.0,3.0,242.0,2551.783
2551793.0,218.0,32.0,4.0,240.0,2551.793
2551803.0,217.0,33.0,3.0,239.0,2551.803
2551813.0,212.0,33.0,5.0,232.0,2551.813
2551823.0,214.0,33.0,4.0,236.0,2551.823
2551833.0,219.0,33.0,4.0,241.0,2551.833
2551843.0,217.0,34.0,3.0,240.0,2551.843
2551853.0,220.0,33.0,4.0,240.0,2551.853
2551863.0,210.0,32.0,3.0,231.0,2551.863
2551873.0,213.0,33.0,5.0,237.0,2551.873
2551883.0,220.0,33.0,4.0,243.0,2551.883
2551894.0,216.0,33.0,4.0,239.0,2551.894
2551904.0,218.0,33.0,3.0,238.0,2551.904
2551914.0,208.0,33.0,3.0,230.0,2551.914
2551924.0,217.0,32.0,3.0,239.0,2551.924
2551934.0,221.0,33.0,4.0,242.0,2551.934
2551944.0,216.0,32.0,4.0,236.0,2551.944
2551954.0,217.0,33.0,2.0,236.0,2551.954
2551964.0,209.0,33.0,4.0,231.0,2551.964
2551974.0,217.0,34.0,4.0,240.0,2551.974
2551984.0,222.0,33.0,4.0,242.0,2551.984
2551994.0,213.0,32.0,4.0,236.0,2551.994
2552004.0,218.0,33.0,5.0,237.0,2552.004
2552014.0,210.0,34.0,4.0,232.0,2552.014
2552024.0,215.0,32.0,4.0,237.0,2552.024
2552034.0,222.0,33.0,3.0,242.0,2552.034
2552044.0,215.0,32.0,3.0,234.0,2552.044
2552054.0,217.0,33.0,3.0,236.0,2552.054
2552064.0,209.0,32.0,4.0,228.0,2552.064
2552074.0,217.0,33.0,4.0,238.0,2552.074
2552084.0,222.0,33.0,4.0,242.0,2552.084
2552094.0,215.0,32.0,4.0,235.0,2552.094
2552104.0,217.0,33.0,3.0,235.0,2552.104
2552114.0,210.0,32.0,4.0,228.0,2552.114
2552124.0,217.0,33.0,3.0,238.0,2552.124
2552134.0,224.0,33.0,4.0,242.0,2552.134
2552144.0,214.0,33.0,4.0,233.0,2552.144
2552154.0,218.0,33.0,4.0,236.0,2552.154
2552164.0,209.0,33.0,3.0,229.0,2552.164
2552174.0,217.0,32.0,4.0,238.0,2552.174
2552184.0,223.0,33.0,4.0,241.0,2552.184
2552194.0,216.0,32.0,5.0,234.0,2552.194
2552204.0,218.0,32.0,4.0,235.0,2552.204
2552214.0,209.0,33.0,3.0,229.0,2552.214
2552224.0,217.0,33.0,3.0,239.0,2552.224
2552235.0,223.0,33.0,4.0,240.0,2552.235
2552245.0,213.0,32.0,4.0,231.0,2552.245
2552255.0,216.0,33.0,4.0,235.0,2552.255
2552265.0,217.0,32.0,4.0,237.0,2552.265
2552275.0,219.0,32.0,4.0,238.0,2552.275
2552285.0,223.0,33.0,4.0,240.0,2552.285
2552295.0,212.0,34.0,3.0,232.0,2552.295
2552305.0,217.0,32.0,4.0,235.0,2552.305
2552315.0,218.0,33.0,4.0,238.0,2552.315
2552325.0,220.0,32.0,5.0,240.0,2552.325
2552335.0,224.0,33.0,4.0,241.0,2552.335
2552345.0,212.0,32.0,4.0,230.0,2552.345
2552355.0,216.0,34.0,3.0,235.0,2552.355
2552365.0,213.0,33.0,4.0,232.0,2552.365
2552375.0,219.0,32.0,3.0,239.0,2552.375
2552385.0,224.0,33.0,5.0,241.0,2552.385
2552395.0,212.0,31.0,4.0,231.0,2552.395
2552406.0,214.0,33.0,4.0,234.0,2552.406
2552416.0,221.0,33.0,3.0,244.0,2552.416
2552426.0,218.0,32.0,4.0,238.0,2552.426
2552436.0,221.0,33.0,4.0,239.0,2552.436
2552446.0,209.0,33.0,4.0,229.0,2552.446
2552456.0,216.0,33.0,4.0,235.0,2552.456
2552466.0,220.0,32.0,4.0,243.0,2552.466
2552476.0,217.0,32.0,4.0,238.0,2552.476
2552486.0,219.0,33.0,3.0,239.0,2552.486
2552496.0,211.0,32.0,3.0,230.0,2552.496
2552506.0,215.0,32.0,3.0,236.0,2552.506
2552516.0,222.0,32.0,4.0,243.0,2552.516
2552526.0,216.0,31.0,4.0,238.0,2552.526
2552536.0,221.0,32.0,4.0,241.0,2552.536
2552546.0,211.0,33.0,3.0,230.0,2552.546
2552556.0,215.0,32.0,4.0,236.0,2552.556
2552566.0,222.0,32.0,4.0,243.0,2552.566
2552576.0,218.0,32.0,3.0,239.0,2552.576
2552586.0,221.0,31.0,4.0,239.0,2552.586
2552596.0,210.0,32.0,4.0,228.0,2552.596
2552606.0,214.0,32.0,4.0,237.0,2552.606
2552616.0,223.0,32.0,3.0,242.0,2552.616
2552626.0,217.0,32.0,4.0,236.0,2552.626
2552636.0,220.0,32.0,4.0,237.0,2552.636
2552646.0,211.0,32.0,5.0,227.0,2552.646
2552656.0,215.0,32.0,4.0,237.0,2552.656
2552666.0,220.0,32.0,4.0,241.0,2552.666
2552676.0,217.0,33.0,3.0,238.0,2552.676
2552686.0,219.0,32.0,4.0,238.0,2552.686
2552696.0,209.0,32.0,4.0,227.0,2552.696
2552706.0,215.0,32.0,4.0,234.0,2552.706
2552716.0,220.0,31.0,4.0,240.0,2552.716
2552726.0,216.0,32.0,4.0,237.0,2552.726
2552736.0,219.0,32.0,4.0,238.0,2552.736
2552747.0,209.0,32.0,3.0,228.0,2552.747
2552757.0,217.0,32.0,4.0,238.0,2552.757
2552767.0,223.0,32.0,4.0,242.0,2552.767
2552777.0,214.0,31.0,4.0,233.0,2552.777
2552787.0,217.0,33.0,3.0,234.0,2552.787
2552797.0,209.0,32.0,4.0,228.0,2552.797
2552807.0,217.0,33.0,4.0,238.0,2552.807
2552817.0,222.0,32.0,3.0,241.0,2552.817
2552827.0,212.0,32.0,4.0,231.0,2552.827
2552837.0,218.0,32.0,5.0,235.0,2552.837
2552847.0,208.0,32.0,4.0,229.0,2552.847
2552857.0,217.0,32.0,4.0,239.0,2552.857
2552867.0,223.0,33.0,4.0,243.0,2552.867
2552877.0,215.0,32.0,3.0,234.0,2552.877
2552887.0,218.0,32.0,3.0,236.0,2552.887
2552897.0,211.0,32.0,4.0,230.0,2552.897
2552907.0,218.0,32.0,4.0,239.0,2552.907
2552918.0,222.0,32.0,3.0,241.0,2552.918
2552928.0,212.0,33.0,4.0,230.0,2552.928
2552938.0,216.0,33.0,3.0,233.0,2552.938
2552948.0,217.0,32.0,4.0,238.0,2552.948
2552958.0,218.0,32.0,4.0,239.0,2552.958
2552968.0,223.0,33.0,4.0,243.0,2552.968
2552978.0,211.0,32.0,3.0,233.0,2552.978
2552988.0,215.0,32.0,4.0,236.0,2552.988
2552998.0,218.0,33.0,3.0,240.0,2552.998
2553008.0,219.0,32.0,4.0,240.0,2553.008
2553018.0,222.0,33.0,4.0,241.0,2553.018
2553028.0,211.0,33.0,4.0,230.0,2553.028
2553038.0,214.0,33.0,2.0,235.0,2553.038
2553048.0,214.0,32.0,3.0,235.0,2553.048
2553058.0,219.0,32.0,4.0,241.0,2553.058
2553068.0,222.0,33.0,3.0,240.0,2553.068
2553078.0,211.0,32.0,4.0,230.0,2553.078
2553088.0,216.0,32.0,4.0,235.0,2553.088
2553098.0,216.0,31.0,4.0,237.0,2553.098
2553108.0,219.0,32.0,3.0,241.0,2553.108
2553118.0,222.0,32.0,4.0,241.0,2553.118
2553128.0,211.0,32.0,3.0,231.0,2553.128
2553138.0,217.0,32.0,4.0,236.0,2553.138
2553148.0,217.0,32.0,4.0,238.0,2553.148
2553158.0,221.0,32.0,5.0,240.0,2553.158
2553168.0,221.0,32.0,4.0,240.0,2553.168
2553178.0,213.0,32.0,4.0,233.0,2553.178
2553188.0,217.0,33.0,3.0,238.0,2553.188
2553198.0,218.0,32.0,4.0,240.0,2553.198
2553208.0,220.0,32.0,4.0,241.0,2553.208
2553218.0,225.0,32.0,4.0,243.0,2553.218
2553228.0,213.0,31.0,4.0,233.0,2553.228
2553238.0,216.0,32.0,3.0,237.0,2553.238
2553248.0,219.0,32.0,4.0,241.0,2553.248
2553259.0,219.0,32.0,3.0,240.0,2553.259
2553269.0,220.0,32.0,4.0,239.0,2553.269
2553279.0,211.0,32.0,4.0,230.0,2553.279
2553289.0,216.0,31.0,4.0,238.0,2553.289
2553299.0,222.0,32.0,4.0,244.0,2553.299
2553309.0,218.0,32.0,4.0,239.0,2553.309
2553319.0,220.0,33.0,3.0,239.0,2553.319
2553329.0,210.0,32.0,4.0,229.0,2553.329
2553339.0,216.0,32.0,3.0,239.0,2553.339
2553349.0,221.0,32.0,5.0,243.0,2553.349
2553359.0,218.0,31.0,4.0,240.0,2553.359
2553369.0,219.0,31.0,4.0,239.0,2553.369
2553379.0,210.0,32.0,3.0,231.0,2553.379
2553389.0,215.0,32.0,3.0,237.0,2553.389
2553399.0,222.0,32.0,4.0,242.0,2553.399
2553409.0,219.0,32.0,4.0,236.0,2553.409
2553419.0,219.0,31.0,4.0,237.0,2553.419
2553430.0,211.0,32.0,4.0,229.0,2553.43
2553440.0,218.0,31.0,4.0,239.0,2553.44
2553450.0,223.0,32.0,3.0,243.0,2553.45
2553460.0,215.0,30.0,4.0,234.0,2553.46
2553470.0,216.0,31.0,3.0,237.0,2553.47
2553480.0,211.0,31.0,5.0,231.0,2553.48
2553490.0,218.0,31.0,4.0,241.0,2553.49
2553500.0,222.0,31.0,4.0,244.0,2553.5
2553510.0,214.0,32.0,3.0,235.0,2553.51
2553520.0,218.0,31.0,4.0,238.0,2553.52
2553530.0,211.0,31.0,3.0,233.0,2553.53
2553540.0,219.0,31.0,5.0,242.0,2553.54
2553550.0,222.0,31.0,4.0,244.0,2553.55
2553560.0,214.0,31.0,3.0,239.0,2553.56
2553570.0,217.0,32.0,3.0,240.0,2553.57
2553580.0,211.0,32.0,3.0,235.0,2553.58
2553590.0,220.0,31.0,4.0,244.0,2553.59
2553600.0,221.0,32.0,4.0,246.0,2553.6
2553610.0,216.0,31.0,4.0,237.0,2553.61
2553620.0,216.0,32.0,4.0,237.0,2553.62
2553630.0,213.0,31.0,4.0,235.0,2553.63
2553640.0,220.0,32.0,4.0,242.0,2553.64
2553650.0,223.0,32.0,3.0,242.0,2553.65
2553660.0,216.0,31.0,4.0,235.0,2553.66
2553670.0,219.0,31.0,4.0,236.0,2553.67
2553680.0,214.0,31.0,3.0,236.0,2553.68
2553690.0,219.0,31.0,3.0,240.0,2553.69
2553700.0,223.0,32.0,3.0,245.0,2553.7
2553710.0,216.0,30.0,4.0,234.0,2553.71
2553720.0,216.0,31.0,3.0,236.0,2553.72
2553730.0,210.0,31.0,4.0,231.0,2553.73
2553740.0,219.0,31.0,4.0,239.0,2553.74
2553750.0,222.0,32.0,4.0,242.0,2553.75
2553760.0,214.0,31.0,4.0,233.0,2553.76
2553771.0,217.0,31.0,3.0,236.0,2553.771
2553781.0,216.0,32.0,4.0,237.0,2553.781
2553791.0,220.0,32.0,4.0,240.0,2553.791
2553801.0,221.0,31.0,4.0,239.0,2553.801
2553811.0,211.0,32.0,4.0,230.0,2553.811
2553821.0,216.0,31.0,4.0,235.0,2553.821
2553831.0,217.0,33.0,3.0,240.0,2553.831
2553841.0,220.0,31.0,4.0,241.0,2553.841
2553851.0,220.0,33.0,4.0,239.0,2553.851
2553861.0,214.0,32.0,5.0,233.0,2553.861
2553871.0,216.0,31.0,4.0,236.0,2553.871
2553881.0,218.0,32.0,4.0,240.0,2553.881
2553891.0,219.0,33.0,3.0,241.0,2553.891
2553901.0,222.0,33.0,3.0,241.0,2553.901
2553911.0,213.0,31.0,4.0,232.0,2553.911
2553921.0,215.0,32.0,5.0,236.0,2553.921
2553931.0,219.0,31.0,4.0,241.0,2553.931
2553942.0,218.0,32.0,3.0,240.0,2553.942
2553952.0,219.0,32.0,4.0,239.0,2553.952
2553962.0,211.0,33.0,3.0,230.0,2553.962
2553972.0,217.0,32.0,4.0,240.0,2553.972
2553982.0,222.0,32.0,4.0,244.0,2553.982
2553992.0,220.0,33.0,5.0,240.0,2553.992
2554002.0,219.0,33.0,4.0,239.0,2554.002
2554012.0,210.0,33.0,4.0,229.0,2554.012
2554022.0,217.0,32.0,3.0,240.0,2554.022
2554032.0,221.0,32.0,4.0,242.0,2554.032
2554042.0,218.0,32.0,4.0,239.0,2554.042
2554052.0,219.0,33.0,5.0,239.0,2554.052
2554062.0,210.0,32.0,4.0,231.0,2554.062
2554072.0,215.0,33.0,4.0,236.0,2554.072
2554082.0,222.0,33.0,4.0,243.0,2554.082
2554092.0,218.0,32.0,4.0,238.0,2554.092
2554102.0,218.0,33.0,4.0,238.0,2554.102
2554112.0,212.0,33.0,4.0,230.0,2554.112
2554122.0,217.0,32.0,5.0,237.0,2554.122
2554132.0,222.0,33.0,3.0,243.0,2554.132
2554142.0,218.0,33.0,4.0,237.0,2554.142
2554152.0,218.0,33.0,3.0,238.0,2554.152
2554162.0,211.0,32.0,4.0,231.0,2554.162
2554172.0,216.0,32.0,4.0,239.0,2554.172
2554182.0,222.0,33.0,5.0,244.0,2554.182
2554192.0,217.0,32.0,4.0,239.0,2554.192
2554202.0,219.0,33.0,4.0,241.0,2554.202
2554212.0,211.0,33.0,3.0,233.0,2554.212
2554222.0,218.0,32.0,4.0,241.0,2554.222
2554232.0,223.0,33.0,4.0,245.0,2554.232
2554242.0,220.0,32.0,4.0,241.0,2554.242
2554252.0,220.0,33.0,4.0,240.0,2554.252
2554262.0,210.0,33.0,4.0,232.0,2554.262
2554272.0,218.0,32.0,4.0,241.0,2554.272
2554283.0,223.0,33.0,3.0,245.0,2554.283
2554293.0,217.0,32.0,4.0,236.0,2554.293
2554303.0,217.0,33.0,4.0,238.0,2554.303
2554313.0,215.0,32.0,5.0,236.0,2554.313
2554323.0,221.0,32.0,4.0,242.0,2554.323
2554333.0,223.0,33.0,4.0,244.0,2554.333
2554343.0,216.0,34.0,3.0,236.0,2554.343
2554353.0,217.0,32.0,4.0,237.0,2554.353
2554363.0,216.0,32.0,4.0,237.0,2554.363
2554373.0,220.0,33.0,5.0,240.0,2554.373
2554383.0,224.0,33.0,4.0,244.0,2554.383
2554393.0,217.0,32.0,3.0,236.0,2554.393
2554403.0,217.0,33.0,3.0,238.0,2554.403
2554413.0,213.0,32.0,3.0,233.0,2554.413
2554423.0,221.0,32.0,3.0,243.0,2554.423
2554433.0,223.0,32.0,4.0,243.0,2554.433
2554443.0,217.0,31.0,4.0,235.0,2554.443
2554454.0,218.0,32.0,4.0,236.0,2554.454
2554464.0,220.0,32.0,4.0,239.0,2554.464
2554474.0,223.0,33.0,3.0,242.0,2554.474
2554484.0,222.0,32.0,4.0,240.0,2554.484
2554494.0,215.0,32.0,4.0,231.0,2554.494
2554504.0,219.0,32.0,4.0,237.0,2554.504
2554514.0,221.0,32.0,4.0,242.0,2554.514
2554524.0,223.0,32.0,4.0,241.0,2554.524
2554534.0,221.0,33.0,3.0,241.0,2554.534
2554544.0,217.0,31.0,4.0,234.0,2554.544
2554554.0,218.0,32.0,3.0,237.0,2554.554
2554564.0,221.0,33.0,4.0,243.0,2554.564
2554574.0,223.0,31.0,4.0,242.0,2554.574
2554584.0,222.0,32.0,4.0,241.0,2554.584
2554594.0,215.0,32.0,4.0,234.0,2554.594
2554604.0,217.0,32.0,3.0,238.0,2554.604
2554614.0,222.0,32.0,3.0,244.0,2554.614
2554624.0,223.0,32.0,4.0,244.0,2554.624
2554634.0,223.0,31.0,4.0,242.0,2554.634
2554644.0,214.0,32.0,3.0,235.0,2554.644
2554654.0,217.0,32.0,4.0,239.0,2554.654
2554664.0,222.0,33.0,3.0,245.0,2554.664
2554674.0,223.0,32.0,4.0,244.0,2554.674
2554684.0,221.0,32.0,4.0,241.0,2554.684
2554694.0,215.0,31.0,5.0,234.0,2554.694
2554704.0,217.0,32.0,4.0,240.0,2554.704
2554714.0,219.0,31.0,3.0,243.0,2554.714
2554724.0,222.0,32.0,3.0,245.0,2554.724
2554734.0,222.0,32.0,4.0,242.0,2554.734
2554744.0,214.0,31.0,4.0,232.0,2554.744
2554754.0,217.0,32.0,4.0,238.0,2554.754
2554764.0,220.0,31.0,4.0,242.0,2554.764
2554774.0,222.0,32.0,3.0,242.0,2554.774
2554784.0,221.0,32.0,4.0,239.0,2554.784
2554795.0,214.0,32.0,3.0,230.0,2554.795
2554805.0,218.0,32.0,4.0,238.0,2554.805
2554815.0,222.0,32.0,4.0,244.0,2554.815
2554825.0,219.0,31.0,4.0,238.0,2554.825
2554835.0,218.0,32.0,4.0,237.0,2554.835
2554845.0,213.0,31.0,4.0,231.0,2554.845
2554855.0,219.0,32.0,3.0,241.0,2554.855
2554865.0,225.0,32.0,4.0,244.0,2554.865
2554875.0,219.0,31.0,3.0,237.0,2554.875
2554885.0,221.0,31.0,5.0,238.0,2554.885
2554895.0,213.0,31.0,4.0,229.0,2554.895
2554905.0,219.0,31.0,4.0,238.0,2554.905
2554915.0,224.0,32.0,3.0,243.0,2554.915
2554925.0,221.0,32.0,3.0,239.0,2554.925
2554935.0,220.0,32.0,3.0,237.0,2554.935
2554945.0,212.0,31.0,4.0,230.0,2554.945
2554955.0,220.0,31.0,4.0,241.0,2554.955
2554966.0,223.0,32.0,4.0,244.0,2554.966
2554976.0,218.0,31.0,4.0,237.0,2554.976
2554986.0,219.0,33.0,3.0,238.0,2554.986
2554996.0,217.0,31.0,4.0,238.0,2554.996
2555006.0,223.0,31.0,3.0,242.0,2555.006
2555016.0,224.0,31.0,4.0,242.0,2555.016
2555026.0,218.0,31.0,4.0,236.0,2555.026
2555036.0,218.0,31.0,4.0,236.0,2555.036
2555046.0,218.0,32.0,3.0,239.0,2555.046
2555056.0,222.0,32.0,3.0,242.0,2555.056
2555066.0,224.0,32.0,4.0,244.0,2555.066
2555076.0,217.0,31.0,5.0,235.0,2555.076
2555086.0,218.0,31.0,4.0,236.0,2555.086
2555096.0,214.0,31.0,3.0,233.0,2555.096
2555106.0,222.0,32.0,3.0,243.0,2555.106
2555116.0,223.0,32.0,3.0,242.0,2555.116
2555126.0,216.0,31.0,4.0,235.0,2555.126
2555136.0,218.0,32.0,4.0,238.0,2555.136
2555146.0,215.0,31.0,5.0,235.0,2555.146
2555156.0,222.0,31.0,4.0,243.0,2555.156
2555166.0,223.0,32.0,4.0,242.0,2555.166
2555176.0,217.0,32.0,3.0,236.0,2555.176
2555186.0,219.0,32.0,4.0,238.0,2555.186
2555196.0,216.0,31.0,4.0,238.0,2555.196
2555206.0,223.0,31.0,5.0,244.0,2555.206
2555216.0,223.0,32.0,4.0,242.0,2555.216
2555226.0,218.0,31.0,4.0,239.0,2555.226
2555236.0,219.0,32.0,4.0,240.0,2555.236
2555246.0,217.0,31.0,3.0,240.0,2555.246
2555256.0,223.0,31.0,3.0,246.0,2555.256
2555266.0,224.0,32.0,3.0,245.0,2555.266
2555276.0,218.0,31.0,4.0,238.0,2555.276
2555286.0,218.0,32.0,4.0,238.0,2555.286
2555296.0,218.0,31.0,4.0,240.0,2555.296
2555307.0,223.0,32.0,3.0,245.0,2555.307
2555317.0,222.0,32.0,4.0,242.0,2555.317
2555327.0,215.0,31.0,4.0,235.0,2555.327
2555337.0,218.0,31.0,5.0,240.0,2555.337
2555347.0,222.0,32.0,4.0,246.0,2555.347
2555357.0,223.0,31.0,4.0,245.0,2555.357
2555367.0,222.0,33.0,3.0,245.0,2555.367
2555377.0,214.0,31.0,4.0,237.0,2555.377
2555387.0,218.0,32.0,3.0,241.0,2555.387
2555397.0,220.0,32.0,5.0,244.0,2555.397
2555407.0,223.0,31.0,4.0,246.0,2555.407
2555417.0,221.0,32.0,4.0,242.0,2555.417
2555427.0,214.0,32.0,3.0,235.0,2555.427
2555437.0,218.0,32.0,3.0,238.0,2555.437
2555447.0,221.0,31.0,4.0,244.0,2555.447
2555457.0,221.0,32.0,4.0,245.0,2555.457
