time (ms),signal 0,signal 1,signal 2,signal 3,time (sec)
2649096.0,225.0,32.0,4.0,245.0,2649.096
2649106.0,229.0,33.0,4.0,248.0,2649.106
2649116.0,223.0,33.0,4.0,241.0,2649.116
2649126.0,223.0,33.0,4.0,242.0,2649.126
2649136.0,216.0,33.0,3.0,235.0,2649.136
2649146.0,223.0,33.0,5.0,243.0,2649.146
2649156.0,226.0,34.0,4.0,247.0,2649.156
2649166.0,222.0,33.0,4.0,242.0,2649.166
2649176.0,219.0,33.0,4.0,242.0,2649.176
2649186.0,210.0,33.0,4.0,233.0,2649.186
2649196.0,218.0,34.0,3.0,243.0,2649.196
2649206.0,223.0,32.0,4.0,246.0,2649.206
2649216.0,221.0,33.0,3.0,244.0,2649.216
2649226.0,220.0,33.0,4.0,241.0,2649.226
2649236.0,212.0,33.0,2.0,234.0,2649.236
2649246.0,221.0,33.0,4.0,244.0,2649.246
2649256.0,225.0,34.0,3.0,247.0,2649.256
2649266.0,221.0,33.0,4.0,241.0,2649.266
2649276.0,217.0,33.0,3.0,240.0,2649.276
2649286.0,210.0,33.0,4.0,235.0,2649.286
2649296.0,220.0,33.0,4.0,244.0,2649.296
2649306.0,223.0,33.0,4.0,246.0,2649.306
2649316.0,220.0,33.0,4.0,240.0,2649.316
2649326.0,219.0,34.0,3.0,240.0,2649.326
2649336.0,214.0,32.0,4.0,236.0,2649.336
2649346.0,219.0,33.0,3.0,242.0,2649.346
2649356.0,226.0,33.0,5.0,246.0,2649.356
2649366.0,222.0,33.0,4.0,241.0,2649.366
2649376.0,224.0,33.0,4.0,240.0,2649.376
2649387.0,219.0,33.0,3.0,238.0,2649.387
2649397.0,226.0,32.0,4.0,246.0,2649.397
2649407.0,228.0,33.0,4.0,246.0,2649.407
2649417.0,221.0,32.0,5.0,237.0,2649.417
2649427.0,221.0,32.0,4.0,240.0,2649.427
2649437.0,220.0,33.0,4.0,240.0,2649.437
2649447.0,227.0,33.0,4.0,247.0,2649.447
2649457.0,226.0,33.0,4.0,245.0,2649.457
2649467.0,217.0,32.0,4.0,239.0,2649.467
2649477.0,221.0,32.0,3.0,243.0,2649.477
2649487.0,219.0,32.0,4.0,242.0,2649.487
2649497.0,226.0,32.0,3.0,248.0,2649.497
2649507.0,226.0,33.0,4.0,246.0,2649.507
2649517.0,221.0,32.0,3.0,242.0,2649.517
2649527.0,222.0,32.0,4.0,242.0,2649.527
2649537.0,220.0,32.0,4.0,244.0,2649.537
2649547.0,223.0,31.0,4.0,248.0,2649.547
2649558.0,222.0,31.0,4.0,247.0,2649.558
2649568.0,215.0,32.0,4.0,238.0,2649.568
2649578.0,218.0,33.0,3.0,244.0,2649.578
2649588.0,223.0,32.0,4.0,249.0,2649.588
2649598.0,222.0,32.0,3.0,247.0,2649.598
2649608.0,224.0,32.0,5.0,246.0,2649.608
2649618.0,218.0,31.0,4.0,240.0,2649.618
2649628.0,222.0,32.0,4.0,244.0,2649.628
2649638.0,228.0,32.0,4.0,251.0,2649.638
2649648.0,227.0,32.0,4.0,249.0,2649.648
2649658.0,226.0,32.0,4.0,246.0,2649.658
2649668.0,217.0,32.0,4.0,238.0,2649.668
2649678.0,222.0,32.0,4.0,245.0,2649.678
2649688.0,224.0,32.0,3.0,248.0,2649.688
2649698.0,226.0,31.0,4.0,248.0,2649.698
2649708.0,226.0,33.0,3.0,246.0,2649.708
2649718.0,217.0,32.0,4.0,237.0,2649.718
2649728.0,218.0,33.0,3.0,243.0,2649.728
2649738.0,223.0,32.0,4.0,249.0,2649.738
2649748.0,223.0,31.0,3.0,249.0,2649.748
2649758.0,223.0,32.0,4.0,245.0,2649.758
2649768.0,216.0,33.0,3.0,238.0,2649.768
2649778.0,221.0,32.0,4.0,243.0,2649.778
2649788.0,226.0,32.0,4.0,251.0,2649.788
2649798.0,226.0,32.0,4.0,251.0,2649.798
2649808.0,222.0,32.0,4.0,249.0,2649.808
2649818.0,214.0,32.0,2.0,242.0,2649.818
2649828.0,218.0,32.0,4.0,245.0,2649.828
2649838.0,223.0,33.0,4.0,253.0,2649.838
2649848.0,223.0,32.0,4.0,250.0,2649.848
2649858.0,224.0,34.0,3.0,249.0,2649.858
2649868.0,218.0,32.0,5.0,241.0,2649.868
2649878.0,220.0,32.0,3.0,246.0,2649.878
2649888.0,230.0,32.0,4.0,252.0,2649.888
2649899.0,227.0,33.0,3.0,250.0,2649.899
2649909.0,224.0,32.0,4.0,246.0,2649.909
2649919.0,215.0,32.0,4.0,239.0,2649.919
2649929.0,224.0,32.0,4.0,249.0,2649.929
2649939.0,228.0,32.0,4.0,251.0,2649.939
2649949.0,223.0,32.0,5.0,246.0,2649.949
2649959.0,219.0,33.0,4.0,245.0,2649.959
2649969.0,213.0,32.0,3.0,240.0,2649.969
2649979.0,222.0,32.0,4.0,252.0,2649.979
2649989.0,227.0,33.0,3.0,256.0,2649.989
2649999.0,226.0,32.0,4.0,251.0,2649.999
2650009.0,224.0,32.0,4.0,249.0,2650.009
2650019.0,216.0,32.0,4.0,244.0,2650.019
2650029.0,224.0,32.0,4.0,250.0,2650.029
2650039.0,234.0,32.0,3.0,254.0,2650.039
2650049.0,229.0,33.0,4.0,249.0,2650.049
2650059.0,231.0,33.0,5.0,248.0,2650.059
2650070.0,223.0,32.0,4.0,246.0,2650.07
2650080.0,232.0,33.0,4.0,256.0,2650.08
2650090.0,236.0,34.0,3.0,256.0,2650.09
2650100.0,231.0,32.0,3.0,254.0,2650.1
2650110.0,226.0,32.0,4.0,254.0,2650.11
2650120.0,221.0,32.0,4.0,254.0,2650.12
2650130.0,230.0,33.0,4.0,261.0,2650.13
2650140.0,230.0,33.0,4.0,255.0,2650.14
2650150.0,220.0,33.0,4.0,250.0,2650.15
2650160.0,221.0,33.0,3.0,253.0,2650.16
2650170.0,217.0,33.0,4.0,255.0,2650.17
2650180.0,226.0,32.0,4.0,262.0,2650.18
2650190.0,227.0,33.0,4.0,254.0,2650.19
2650200.0,222.0,33.0,4.0,253.0,2650.2
2650210.0,219.0,33.0,4.0,254.0,2650.21
2650220.0,219.0,32.0,3.0,259.0,2650.22
2650230.0,217.0,32.0,4.0,254.0,2650.23
2650240.0,225.0,33.0,3.0,256.0,2650.24
2650250.0,226.0,32.0,5.0,253.0,2650.25
2650260.0,228.0,33.0,4.0,255.0,2650.26
2650270.0,229.0,33.0,4.0,255.0,2650.27
2650280.0,237.0,33.0,3.0,266.0,2650.28
2650290.0,234.0,33.0,3.0,273.0,2650.29
2650300.0,231.0,32.0,4.0,270.0,2650.3
2650310.0,250.0,33.0,4.0,271.0,2650.31
2650320.0,261.0,33.0,4.0,277.0,2650.32
2650330.0,264.0,33.0,4.0,282.0,2650.33
2650340.0,261.0,33.0,3.0,281.0,2650.34
2650350.0,258.0,33.0,3.0,285.0,2650.35
2650360.0,257.0,32.0,4.0,287.0,2650.36
2650370.0,245.0,34.0,3.0,278.0,2650.37
2650380.0,250.0,33.0,4.0,276.0,2650.38
2650390.0,250.0,34.0,4.0,281.0,2650.39
2650400.0,239.0,33.0,4.0,270.0,2650.4
2650411.0,238.0,33.0,4.0,272.0,2650.411
2650421.0,241.0,33.0,4.0,274.0,2650.421
2650431.0,249.0,33.0,3.0,283.0,2650.431
2650441.0,248.0,34.0,5.0,280.0,2650.441
2650451.0,243.0,33.0,4.0,278.0,2650.451
2650461.0,244.0,34.0,4.0,282.0,2650.461
2650471.0,247.0,34.0,4.0,285.0,2650.471
2650481.0,248.0,33.0,3.0,281.0,2650.481
2650491.0,248.0,34.0,4.0,278.0,2650.491
2650501.0,250.0,34.0,3.0,276.0,2650.501
2650511.0,255.0,34.0,4.0,278.0,2650.511
2650521.0,254.0,34.0,4.0,285.0,2650.521
2650531.0,253.0,33.0,4.0,273.0,2650.531
2650541.0,254.0,34.0,4.0,269.0,2650.541
2650551.0,249.0,33.0,3.0,265.0,2650.551
2650561.0,252.0,33.0,3.0,272.0,2650.561
2650571.0,261.0,34.0,5.0,282.0,2650.571
2650582.0,254.0,34.0,4.0,274.0,2650.582
2650592.0,260.0,33.0,4.0,268.0,2650.592
2650602.0,256.0,34.0,3.0,263.0,2650.602
2650612.0,266.0,32.0,4.0,276.0,2650.612
2650622.0,265.0,34.0,3.0,275.0,2650.622
2650632.0,255.0,33.0,4.0,270.0,2650.632
2650642.0,253.0,34.0,4.0,271.0,2650.642
2650652.0,246.0,33.0,3.0,263.0,2650.652
2650662.0,248.0,33.0,4.0,272.0,2650.662
2650672.0,250.0,33.0,4.0,269.0,2650.672
2650682.0,246.0,32.0,4.0,263.0,2650.682
2650692.0,246.0,33.0,4.0,263.0,2650.692
2650702.0,244.0,33.0,5.0,257.0,2650.702
2650712.0,248.0,33.0,4.0,260.0,2650.712
2650722.0,255.0,32.0,4.0,273.0,2650.722
2650732.0,251.0,34.0,3.0,269.0,2650.732
2650742.0,244.0,33.0,4.0,260.0,2650.742
2650752.0,235.0,34.0,3.0,252.0,2650.752
2650762.0,243.0,33.0,4.0,262.0,2650.762
2650772.0,254.0,33.0,4.0,267.0,2650.772
2650782.0,243.0,33.0,3.0,261.0,2650.782
2650792.0,242.0,33.0,3.0,259.0,2650.792
2650802.0,231.0,32.0,4.0,250.0,2650.802
2650812.0,238.0,32.0,4.0,255.0,2650.812
2650822.0,242.0,33.0,4.0,257.0,2650.822
2650832.0,240.0,33.0,4.0,250.0,2650.832
2650842.0,243.0,33.0,4.0,247.0,2650.842
2650852.0,239.0,32.0,3.0,243.0,2650.852
2650862.0,247.0,34.0,3.0,253.0,2650.862
2650872.0,253.0,32.0,4.0,253.0,2650.872
2650882.0,248.0,33.0,3.0,251.0,2650.882
2650892.0,248.0,33.0,5.0,251.0,2650.892
2650902.0,242.0,33.0,4.0,249.0,2650.902
2650912.0,250.0,32.0,4.0,259.0,2650.912
2650923.0,255.0,33.0,3.0,259.0,2650.923
2650933.0,245.0,32.0,4.0,252.0,2650.933
2650943.0,248.0,32.0,4.0,249.0,2650.943
2650953.0,245.0,32.0,5.0,251.0,2650.953
2650963.0,251.0,32.0,4.0,258.0,2650.963
2650973.0,252.0,32.0,4.0,259.0,2650.973
2650983.0,242.0,32.0,4.0,257.0,2650.983
2650993.0,251.0,33.0,3.0,259.0,2650.993
2651003.0,252.0,32.0,4.0,262.0,2651.003
2651013.0,254.0,33.0,3.0,268.0,2651.013
2651023.0,255.0,33.0,4.0,260.0,2651.023
2651033.0,243.0,32.0,3.0,251.0,2651.033
2651043.0,242.0,32.0,4.0,250.0,2651.043
2651053.0,237.0,32.0,4.0,249.0,2651.053
2651063.0,253.0,32.0,4.0,256.0,2651.063
2651073.0,252.0,32.0,4.0,253.0,2651.073
2651083.0,239.0,32.0,5.0,248.0,2651.083
2651094.0,244.0,32.0,3.0,251.0,2651.094
2651104.0,249.0,32.0,4.0,258.0,2651.104
2651114.0,248.0,33.0,3.0,258.0,2651.114
2651124.0,248.0,32.0,3.0,254.0,2651.124
2651134.0,237.0,31.0,4.0,245.0,2651.134
2651144.0,242.0,32.0,3.0,250.0,2651.144
2651154.0,249.0,31.0,4.0,254.0,2651.154
2651164.0,250.0,32.0,4.0,251.0,2651.164
2651174.0,249.0,32.0,4.0,252.0,2651.174
2651184.0,246.0,31.0,4.0,249.0,2651.184
2651194.0,246.0,32.0,4.0,253.0,2651.194
2651204.0,254.0,32.0,3.0,261.0,2651.204
2651214.0,249.0,31.0,4.0,263.0,2651.214
2651224.0,252.0,32.0,4.0,265.0,2651.224
2651234.0,241.0,32.0,4.0,254.0,2651.234
2651244.0,242.0,33.0,3.0,260.0,2651.244
2651254.0,248.0,32.0,4.0,261.0,2651.254
2651264.0,246.0,32.0,4.0,259.0,2651.264
2651274.0,242.0,32.0,5.0,254.0,2651.274
2651284.0,230.0,31.0,4.0,247.0,2651.284
2651294.0,232.0,32.0,4.0,251.0,2651.294
2651304.0,245.0,32.0,4.0,264.0,2651.304
2651314.0,242.0,32.0,4.0,263.0,2651.314
2651324.0,242.0,32.0,4.0,261.0,2651.324
2651334.0,231.0,32.0,4.0,252.0,2651.334
2651344.0,234.0,31.0,5.0,253.0,2651.344
2651354.0,239.0,32.0,3.0,257.0,2651.354
2651364.0,241.0,31.0,4.0,259.0,2651.364
2651374.0,242.0,33.0,3.0,257.0,2651.374
2651384.0,235.0,32.0,4.0,248.0,2651.384
2651394.0,238.0,33.0,3.0,253.0,2651.394
2651404.0,252.0,32.0,5.0,264.0,2651.404
2651414.0,251.0,31.0,4.0,264.0,2651.414
2651424.0,251.0,32.0,4.0,260.0,2651.424
2651435.0,244.0,33.0,3.0,251.0,2651.435
2651445.0,251.0,32.0,3.0,258.0,2651.445
2651455.0,254.0,32.0,4.0,262.0,2651.455
2651465.0,246.0,32.0,4.0,254.0,2651.465
2651475.0,246.0,31.0,4.0,251.0,2651.475
2651485.0,236.0,32.0,4.0,242.0,2651.485
2651495.0,245.0,32.0,3.0,254.0,2651.495
2651505.0,251.0,33.0,3.0,256.0,2651.505
2651515.0,247.0,32.0,4.0,249.0,2651.515
2651525.0,251.0,34.0,3.0,252.0,2651.525
2651535.0,243.0,33.0,4.0,247.0,2651.535
2651545.0,248.0,33.0,3.0,258.0,2651.545
2651555.0,255.0,33.0,3.0,261.0,2651.555
2651565.0,258.0,32.0,4.0,261.0,2651.565
2651575.0,255.0,33.0,4.0,258.0,2651.575
2651585.0,249.0,33.0,4.0,251.0,2651.585
2651595.0,257.0,33.0,5.0,263.0,2651.595
2651606.0,259.0,33.0,4.0,264.0,2651.606
2651616.0,252.0,32.0,3.0,255.0,2651.616
2651626.0,255.0,33.0,3.0,256.0,2651.626
2651636.0,253.0,32.0,3.0,255.0,2651.636
2651646.0,257.0,33.0,4.0,259.0,2651.646
2651656.0,257.0,33.0,3.0,258.0,2651.656
2651666.0,247.0,32.0,4.0,252.0,2651.666
2651676.0,251.0,33.0,4.0,253.0,2651.676
2651686.0,251.0,33.0,4.0,257.0,2651.686
2651696.0,252.0,33.0,2.0,262.0,2651.696
2651706.0,252.0,32.0,4.0,266.0,2651.706
2651716.0,241.0,33.0,3.0,258.0,2651.716
2651726.0,238.0,32.0,5.0,253.0,2651.726
2651736.0,233.0,33.0,4.0,250.0,2651.736
2651746.0,244.0,32.0,4.0,259.0,2651.746
2651756.0,251.0,34.0,4.0,258.0,2651.756
2651766.0,242.0,32.0,3.0,250.0,2651.766
2651776.0,253.0,33.0,3.0,254.0,2651.776
2651786.0,245.0,33.0,4.0,251.0,2651.786
2651796.0,254.0,33.0,3.0,259.0,2651.796
2651806.0,254.0,34.0,3.0,259.0,2651.806
2651816.0,242.0,32.0,4.0,249.0,2651.816
2651826.0,248.0,33.0,4.0,251.0,2651.826
2651836.0,249.0,32.0,4.0,256.0,2651.836
2651846.0,254.0,32.0,3.0,267.0,2651.846
2651856.0,256.0,33.0,5.0,265.0,2651.856
2651866.0,246.0,32.0,4.0,260.0,2651.866
2651876.0,243.0,33.0,4.0,259.0,2651.876
2651886.0,242.0,33.0,4.0,261.0,2651.886
2651896.0,243.0,33.0,4.0,262.0,2651.896
2651906.0,245.0,34.0,3.0,263.0,2651.906
2651916.0,237.0,32.0,5.0,254.0,2651.916
2651926.0,239.0,33.0,4.0,255.0,2651.926
2651936.0,241.0,32.0,4.0,260.0,2651.936
2651947.0,245.0,33.0,4.0,266.0,2651.947
2651957.0,247.0,33.0,3.0,266.0,2651.957
2651967.0,236.0,32.0,4.0,255.0,2651.967
2651977.0,239.0,33.0,4.0,259.0,2651.977
2651987.0,246.0,33.0,4.0,267.0,2651.987
2651997.0,246.0,33.0,4.0,264.0,2651.997
2652007.0,246.0,33.0,3.0,261.0,2652.007
2652017.0,239.0,33.0,3.0,256.0,2652.017
2652027.0,245.0,32.0,4.0,262.0,2652.027
2652037.0,243.0,34.0,3.0,270.0,2652.037
2652047.0,243.0,32.0,4.0,270.0,2652.047
2652057.0,241.0,33.0,4.0,268.0,2652.057
2652067.0,230.0,32.0,3.0,256.0,2652.067
2652077.0,232.0,33.0,2.0,258.0,2652.077
2652087.0,239.0,32.0,3.0,261.0,2652.087
2652097.0,241.0,32.0,4.0,261.0,2652.097
2652107.0,242.0,32.0,5.0,258.0,2652.107
2652118.0,237.0,31.0,3.0,249.0,2652.118
2652128.0,241.0,32.0,4.0,256.0,2652.128
2652138.0,247.0,33.0,4.0,260.0,2652.138
2652148.0,241.0,32.0,3.0,252.0,2652.148
2652158.0,245.0,32.0,4.0,253.0,2652.158
2652168.0,237.0,32.0,4.0,247.0,2652.168
2652178.0,244.0,33.0,4.0,259.0,2652.178
2652188.0,247.0,33.0,4.0,261.0,2652.188
2652198.0,243.0,32.0,3.0,255.0,2652.198
2652208.0,246.0,32.0,4.0,258.0,2652.208
2652218.0,233.0,32.0,4.0,247.0,2652.218
2652228.0,241.0,33.0,4.0,259.0,2652.228
2652238.0,248.0,33.0,4.0,259.0,2652.238
2652248.0,241.0,33.0,3.0,254.0,2652.248
2652258.0,242.0,33.0,3.0,252.0,2652.258
2652268.0,239.0,33.0,3.0,249.0,2652.268
2652278.0,249.0,32.0,3.0,258.0,2652.278
2652288.0,251.0,33.0,3.0,258.0,2652.288
2652298.0,242.0,32.0,4.0,254.0,2652.298
2652308.0,239.0,32.0,4.0,251.0,2652.308
2652318.0,233.0,33.0,4.0,248.0,2652.318
2652328.0,248.0,33.0,4.0,261.0,2652.328
2652338.0,247.0,34.0,4.0,260.0,2652.338
2652348.0,247.0,32.0,4.0,263.0,2652.348
2652358.0,248.0,33.0,4.0,266.0,2652.358
2652368.0,242.0,33.0,5.0,261.0,2652.368
2652378.0,245.0,32.0,3.0,264.0,2652.378
2652388.0,248.0,33.0,4.0,266.0,2652.388
2652398.0,241.0,33.0,3.0,260.0,2652.398
2652408.0,241.0,33.0,4.0,255.0,2652.408
2652418.0,233.0,33.0,4.0,247.0,2652.418
2652428.0,241.0,33.0,4.0,258.0,2652.428
2652438.0,247.0,33.0,4.0,261.0,2652.438
2652448.0,241.0,32.0,4.0,254.0,2652.448
2652459.0,245.0,33.0,4.0,255.0,2652.459
2652469.0,240.0,33.0,3.0,254.0,2652.469
2652479.0,247.0,32.0,4.0,262.0,2652.479
2652489.0,246.0,33.0,4.0,259.0,2652.489
2652499.0,236.0,33.0,4.0,254.0,2652.499
2652509.0,239.0,33.0,3.0,257.0,2652.509
2652519.0,241.0,33.0,3.0,257.0,2652.519
2652529.0,248.0,33.0,3.0,262.0,2652.529
2652539.0,249.0,32.0,4.0,258.0,2652.539
2652549.0,240.0,33.0,3.0,256.0,2652.549
2652559.0,244.0,32.0,5.0,256.0,2652.559
2652569.0,244.0,33.0,3.0,257.0,2652.569
2652579.0,249.0,32.0,4.0,264.0,2652.579
2652589.0,249.0,33.0,4.0,260.0,2652.589
2652599.0,240.0,32.0,4.0,250.0,2652.599
2652609.0,243.0,32.0,4.0,253.0,2652.609
2652619.0,244.0,33.0,5.0,256.0,2652.619
2652630.0,242.0,32.0,4.0,258.0,2652.63
2652640.0,242.0,33.0,3.0,256.0,2652.64
2652650.0,232.0,33.0,4.0,251.0,2652.65
2652660.0,237.0,33.0,3.0,257.0,2652.66
2652670.0,244.0,33.0,4.0,260.0,2652.67
2652680.0,242.0,33.0,3.0,261.0,2652.68
2652690.0,242.0,33.0,4.0,258.0,2652.69
2652700.0,230.0,33.0,4.0,252.0,2652.7
2652710.0,236.0,33.0,4.0,265.0,2652.71
2652720.0,241.0,33.0,2.0,270.0,2652.72
2652730.0,240.0,32.0,3.0,262.0,2652.73
2652740.0,240.0,33.0,3.0,264.0,2652.74
2652750.0,235.0,33.0,5.0,258.0,2652.75
2652760.0,240.0,33.0,5.0,260.0,2652.76
2652770.0,246.0,34.0,4.0,268.0,2652.77
2652780.0,247.0,34.0,3.0,268.0,2652.78
2652790.0,247.0,33.0,4.0,262.0,2652.79
2652800.0,238.0,33.0,4.0,258.0,2652.8
2652810.0,241.0,34.0,4.0,261.0,2652.81
2652820.0,251.0,34.0,4.0,264.0,2652.82
2652830.0,247.0,33.0,4.0,262.0,2652.83
2652840.0,246.0,33.0,3.0,261.0,2652.84
2652850.0,234.0,34.0,3.0,253.0,2652.85
2652860.0,236.0,34.0,4.0,256.0,2652.86
2652870.0,240.0,34.0,3.0,264.0,2652.87
2652880.0,238.0,33.0,4.0,259.0,2652.88
2652890.0,243.0,34.0,3.0,261.0,2652.89
2652900.0,231.0,33.0,4.0,249.0,2652.9
2652910.0,234.0,34.0,3.0,255.0,2652.91
2652920.0,240.0,34.0,3.0,260.0,2652.92
2652930.0,237.0,34.0,3.0,261.0,2652.93
2652940.0,235.0,33.0,5.0,258.0,2652.94
2652950.0,224.0,33.0,4.0,248.0,2652.95
2652960.0,226.0,34.0,4.0,254.0,2652.96
2652971.0,235.0,33.0,4.0,263.0,2652.971
2652981.0,230.0,33.0,3.0,255.0,2652.981
2652991.0,230.0,33.0,4.0,253.0,2652.991
2653001.0,221.0,33.0,4.0,246.0,2653.001
2653011.0,230.0,33.0,5.0,255.0,2653.011
2653021.0,232.0,32.0,4.0,260.0,2653.021
2653031.0,226.0,33.0,4.0,250.0,2653.031
2653041.0,226.0,34.0,3.0,251.0,2653.041
2653051.0,220.0,32.0,4.0,247.0,2653.051
2653061.0,225.0,34.0,3.0,253.0,2653.061
2653071.0,230.0,33.0,4.0,255.0,2653.071
2653081.0,224.0,32.0,4.0,249.0,2653.081
2653091.0,227.0,33.0,4.0,249.0,2653.091
2653101.0,218.0,32.0,4.0,242.0,2653.101
2653111.0,224.0,32.0,3.0,254.0,2653.111
2653121.0,230.0,32.0,3.0,257.0,2653.121
2653131.0,223.0,32.0,4.0,248.0,2653.131
2653142.0,225.0,31.0,4.0,248.0,2653.142
2653152.0,220.0,32.0,4.0,247.0,2653.152
2653162.0,226.0,32.0,4.0,253.0,2653.162
2653172.0,229.0,34.0,3.0,251.0,2653.172
2653182.0,222.0,32.0,4.0,241.0,2653.182
2653192.0,226.0,33.0,3.0,247.0,2653.192
2653202.0,224.0,31.0,4.0,245.0,2653.202
2653212.0,228.0,31.0,2.0,251.0,2653.212
2653222.0,228.0,32.0,4.0,248.0,2653.222
2653232.0,220.0,31.0,4.0,244.0,2653.232
2653242.0,222.0,32.0,3.0,244.0,2653.242
2653252.0,219.0,32.0,4.0,244.0,2653.252
2653262.0,222.0,32.0,5.0,249.0,2653.262
2653272.0,223.0,32.0,5.0,249.0,2653.272
2653282.0,211.0,32.0,4.0,241.0,2653.282
2653292.0,215.0,32.0,4.0,243.0,2653.292
2653302.0,215.0,32.0,3.0,248.0,2653.302
2653312.0,219.0,32.0,4.0,250.0,2653.312
2653322.0,222.0,32.0,4.0,250.0,2653.322
2653332.0,215.0,31.0,4.0,241.0,2653.332
2653342.0,215.0,32.0,3.0,241.0,2653.342
2653352.0,217.0,32.0,4.0,244.0,2653.352
2653362.0,223.0,31.0,2.0,247.0,2653.362
2653372.0,228.0,32.0,4.0,247.0,2653.372
2653382.0,219.0,32.0,3.0,241.0,2653.382
2653392.0,223.0,32.0,5.0,243.0,2653.392
2653402.0,218.0,32.0,3.0,243.0,2653.402
2653412.0,225.0,31.0,4.0,250.0,2653.412
2653422.0,227.0,32.0,4.0,249.0,2653.422
2653432.0,217.0,31.0,4.0,239.0,2653.432
2653442.0,221.0,33.0,4.0,243.0,2653.442
2653452.0,223.0,32.0,4.0,243.0,2653.452
2653462.0,228.0,31.0,4.0,250.0,2653.462
2653472.0,230.0,32.0,4.0,247.0,2653.472
2653483.0,219.0,32.0,4.0,239.0,2653.483
2653493.0,222.0,32.0,3.0,244.0,2653.493
2653503.0,226.0,32.0,4.0,249.0,2653.503
2653513.0,223.0,32.0,4.0,248.0,2653.513
2653523.0,224.0,31.0,4.0,246.0,2653.523
2653533.0,217.0,31.0,4.0,240.0,2653.533
2653543.0,223.0,31.0,4.0,244.0,2653.543
2653553.0,227.0,33.0,3.0,251.0,2653.553
2653563.0,223.0,32.0,4.0,246.0,2653.563
2653573.0,225.0,33.0,3.0,248.0,2653.573
2653583.0,216.0,32.0,5.0,239.0,2653.583
2653593.0,219.0,31.0,4.0,245.0,2653.593
2653603.0,224.0,32.0,4.0,252.0,2653.603
2653613.0,222.0,31.0,3.0,250.0,2653.613
2653623.0,223.0,32.0,3.0,247.0,2653.623
2653633.0,213.0,32.0,4.0,238.0,2653.633
2653643.0,217.0,32.0,4.0,245.0,2653.643
2653654.0,224.0,31.0,4.0,252.0,2653.654
2653664.0,218.0,32.0,4.0,246.0,2653.664
2653674.0,220.0,32.0,4.0,244.0,2653.674
2653684.0,213.0,33.0,3.0,239.0,2653.684
2653694.0,221.0,32.0,4.0,249.0,2653.694
2653704.0,227.0,33.0,3.0,250.0,2653.704
2653714.0,222.0,32.0,5.0,244.0,2653.714
2653724.0,222.0,32.0,4.0,244.0,2653.724
2653734.0,215.0,32.0,4.0,239.0,2653.734
2653744.0,220.0,32.0,3.0,246.0,2653.744
2653754.0,225.0,32.0,4.0,250.0,2653.754
2653764.0,218.0,32.0,4.0,242.0,2653.764
2653774.0,220.0,32.0,4.0,243.0,2653.774
2653784.0,217.0,32.0,5.0,236.0,2653.784
2653794.0,222.0,32.0,4.0,246.0,2653.794
2653804.0,227.0,33.0,4.0,252.0,2653.804
2653814.0,219.0,33.0,3.0,244.0,2653.814
2653824.0,224.0,32.0,4.0,246.0,2653.824
2653834.0,213.0,33.0,4.0,238.0,2653.834
2653844.0,222.0,32.0,4.0,249.0,2653.844
2653854.0,226.0,33.0,4.0,253.0,2653.854
2653864.0,220.0,32.0,4.0,244.0,2653.864
2653874.0,226.0,32.0,4.0,246.0,2653.874
2653884.0,217.0,32.0,4.0,238.0,2653.884
2653894.0,224.0,32.0,4.0,249.0,2653.894
2653904.0,229.0,32.0,5.0,250.0,2653.904
2653914.0,222.0,32.0,3.0,245.0,2653.914
2653924.0,222.0,32.0,4.0,243.0,2653.924
2653934.0,214.0,33.0,3.0,238.0,2653.934
2653944.0,217.0,32.0,4.0,244.0,2653.944
2653954.0,221.0,32.0,4.0,247.0,2653.954
2653964.0,216.0,32.0,4.0,241.0,2653.964
2653974.0,218.0,33.0,4.0,241.0,2653.974
2653984.0,210.0,32.0,4.0,237.0,2653.984
2653995.0,220.0,33.0,3.0,246.0,2653.995
2654005.0,224.0,33.0,3.0,248.0,2654.005
2654015.0,215.0,32.0,4.0,238.0,2654.015
2654025.0,217.0,32.0,4.0,240.0,2654.025
2654035.0,225.0,33.0,5.0,245.0,2654.035
2654045.0,225.0,32.0,4.0,247.0,2654.045
2654055.0,229.0,32.0,4.0,248.0,2654.055
2654065.0,218.0,33.0,3.0,239.0,2654.065
2654075.0,220.0,32.0,4.0,240.0,2654.075
2654085.0,218.0,33.0,4.0,239.0,2654.085
2654095.0,224.0,33.0,4.0,245.0,2654.095
2654105.0,226.0,32.0,4.0,245.0,2654.105
2654115.0,216.0,32.0,4.0,236.0,2654.115
2654125.0,220.0,33.0,4.0,240.0,2654.125
2654135.0,217.0,32.0,4.0,240.0,2654.135
2654145.0,223.0,32.0,3.0,247.0,2654.145
2654155.0,225.0,33.0,4.0,246.0,2654.155
2654166.0,216.0,31.0,4.0,237.0,2654.166
2654176.0,217.0,33.0,4.0,240.0,2654.176
2654186.0,219.0,33.0,4.0,245.0,2654.186
2654196.0,216.0,33.0,3.0,242.0,2654.196
2654206.0,217.0,32.0,4.0,241.0,2654.206
2654216.0,210.0,32.0,3.0,235.0,2654.216
2654226.0,216.0,32.0,5.0,239.0,2654.226
2654236.0,220.0,33.0,3.0,246.0,2654.236
2654246.0,218.0,32.0,4.0,242.0,2654.246
2654256.0,220.0,33.0,2.0,244.0,2654.256
2654266.0,213.0,33.0,3.0,234.0,2654.266
2654276.0,217.0,33.0,4.0,240.0,2654.276
2654286.0,223.0,33.0,4.0,248.0,2654.286
2654296.0,222.0,33.0,4.0,245.0,2654.296
2654306.0,222.0,33.0,3.0,244.0,2654.306
2654316.0,213.0,33.0,4.0,235.0,2654.316
2654326.0,218.0,33.0,3.0,242.0,2654.326
2654336.0,220.0,32.0,4.0,246.0,2654.336
2654346.0,223.0,33.0,3.0,245.0,2654.346
2654356.0,225.0,33.0,5.0,243.0,2654.356
2654366.0,214.0,33.0,3.0,235.0,2654.366
2654376.0,220.0,33.0,3.0,242.0,2654.376
2654386.0,222.0,33.0,3.0,246.0,2654.386
2654396.0,222.0,33.0,4.0,244.0,2654.396
2654406.0,222.0,33.0,3.0,244.0,2654.406
2654416.0,214.0,33.0,5.0,234.0,2654.416
2654426.0,219.0,33.0,4.0,239.0,2654.426
2654436.0,228.0,33.0,4.0,247.0,2654.436
2654446.0,226.0,33.0,4.0,245.0,2654.446
2654456.0,226.0,33.0,4.0,244.0,2654.456
2654466.0,219.0,33.0,4.0,237.0,2654.466
2654476.0,221.0,33.0,4.0,241.0,2654.476
2654486.0,226.0,33.0,4.0,248.0,2654.486
2654496.0,223.0,33.0,3.0,243.0,2654.496
2654507.0,223.0,33.0,4.0,243.0,2654.507
2654517.0,214.0,33.0,3.0,234.0,2654.517
2654527.0,219.0,32.0,4.0,244.0,2654.527
2654537.0,224.0,33.0,4.0,248.0,2654.537
2654547.0,219.0,32.0,5.0,240.0,2654.547
2654557.0,220.0,33.0,4.0,242.0,2654.557
2654567.0,212.0,33.0,4.0,235.0,2654.567
2654577.0,220.0,34.0,3.0,248.0,2654.577
2654587.0,223.0,34.0,3.0,248.0,2654.587
2654597.0,219.0,34.0,3.0,243.0,2654.597
2654607.0,220.0,33.0,4.0,242.0,2654.607
2654617.0,214.0,33.0,4.0,235.0,2654.617
2654627.0,224.0,32.0,4.0,247.0,2654.627
2654637.0,227.0,33.0,4.0,248.0,2654.637
2654647.0,221.0,32.0,4.0,242.0,2654.647
2654657.0,222.0,32.0,4.0,242.0,2654.657
2654667.0,215.0,33.0,4.0,238.0,2654.667
2654678.0,224.0,32.0,4.0,247.0,2654.678
2654688.0,225.0,33.0,3.0,248.0,2654.688
2654698.0,220.0,33.0,4.0,238.0,2654.698
2654708.0,222.0,33.0,4.0,240.0,2654.708
2654718.0,222.0,32.0,4.0,243.0,2654.718
2654728.0,223.0,34.0,3.0,248.0,2654.728
2654738.0,226.0,33.0,5.0,247.0,2654.738
2654748.0,216.0,32.0,4.0,239.0,2654.748
2654758.0,218.0,33.0,3.0,241.0,2654.758
2654768.0,216.0,33.0,4.0,241.0,2654.768
2654778.0,223.0,33.0,3.0,247.0,2654.778
2654788.0,224.0,32.0,4.0,246.0,2654.788
2654798.0,215.0,33.0,4.0,237.0,2654.798
2654808.0,218.0,33.0,3.0,241.0,2654.808
2654818.0,215.0,33.0,3.0,241.0,2654.818
2654828.0,222.0,32.0,4.0,247.0,2654.828
2654838.0,223.0,33.0,3.0,246.0,2654.838
2654848.0,217.0,32.0,4.0,241.0,2654.848
2654858.0,219.0,32.0,4.0,242.0,2654.858
2654868.0,218.0,33.0,5.0,242.0,2654.868
2654878.0,223.0,33.0,4.0,247.0,2654.878
2654888.0,228.0,33.0,3.0,245.0,2654.888
2654898.0,220.0,32.0,4.0,241.0,2654.898
2654908.0,222.0,32.0,3.0,242.0,2654.908
2654918.0,221.0,33.0,4.0,243.0,2654.918
2654928.0,225.0,32.0,4.0,246.0,2654.928
2654938.0,226.0,33.0,4.0,248.0,2654.938
2654948.0,218.0,33.0,3.0,239.0,2654.948
2654958.0,220.0,33.0,4.0,242.0,2654.958
2654968.0,221.0,32.0,3.0,245.0,2654.968
2654978.0,226.0,33.0,3.0,249.0,2654.978
2654988.0,229.0,33.0,4.0,248.0,2654.988
2654998.0,222.0,31.0,4.0,238.0,2654.998
2655008.0,222.0,32.0,4.0,240.0,2655.008
2655019.0,224.0,32.0,4.0,245.0,2655.019
2655029.0,227.0,32.0,4.0,244.0,2655.029
2655039.0,226.0,32.0,3.0,243.0,2655.039
2655049.0,217.0,32.0,4.0,234.0,2655.049
2655059.0,225.0,32.0,5.0,242.0,2655.059
2655069.0,225.0,32.0,4.0,245.0,2655.069
2655079.0,226.0,32.0,4.0,244.0,2655.079
2655089.0,225.0,32.0,4.0,245.0,2655.089
2655099.0,217.0,32.0,4.0,235.0,2655.099
2655109.0,221.0,33.0,4.0,242.0,2655.109
2655119.0,224.0,33.0,4.0,248.0,2655.119
2655129.0,224.0,32.0,4.0,246.0,2655.129
2655139.0,222.0,33.0,4.0,244.0,2655.139
2655149.0,218.0,31.0,4.0,237.0,2655.149
2655159.0,220.0,32.0,4.0,240.0,2655.159
2655169.0,225.0,32.0,4.0,246.0,2655.169
2655179.0,223.0,32.0,3.0,245.0,2655.179
2655190.0,223.0,32.0,4.0,243.0,2655.19
2655200.0,214.0,32.0,4.0,235.0,2655.2
2655210.0,223.0,32.0,4.0,247.0,2655.21
2655220.0,226.0,34.0,3.0,251.0,2655.22
2655230.0,219.0,32.0,4.0,242.0,2655.23
2655240.0,221.0,33.0,3.0,245.0,2655.24
2655250.0,213.0,32.0,5.0,235.0,2655.25
2655260.0,220.0,33.0,4.0,246.0,2655.26
2655270.0,224.0,33.0,4.0,248.0,2655.27
2655280.0,220.0,31.0,4.0,244.0,2655.28
2655290.0,220.0,33.0,4.0,243.0,2655.29
2655300.0,213.0,32.0,4.0,238.0,2655.3
2655310.0,223.0,32.0,4.0,248.0,2655.31
2655320.0,226.0,32.0,4.0,250.0,2655.32
2655330.0,223.0,33.0,4.0,245.0,2655.33
2655340.0,224.0,33.0,4.0,244.0,2655.34
2655350.0,217.0,33.0,4.0,239.0,2655.35
2655360.0,222.0,32.0,4.0,245.0,2655.36
2655370.0,227.0,33.0,3.0,250.0,2655.37
2655380.0,224.0,32.0,5.0,243.0,2655.38
2655390.0,222.0,33.0,2.0,245.0,2655.39
2655400.0,217.0,32.0,4.0,241.0,2655.4
2655410.0,224.0,33.0,4.0,245.0,2655.41
2655420.0,229.0,33.0,4.0,249.0,2655.42
2655430.0,223.0,32.0,4.0,242.0,2655.43
2655440.0,224.0,33.0,4.0,243.0,2655.44
2655450.0,216.0,32.0,4.0,236.0,2655.45
2655460.0,224.0,32.0,4.0,247.0,2655.46
2655470.0,228.0,33.0,4.0,252.0,2655.47
2655480.0,221.0,32.0,3.0,243.0,2655.48
2655490.0,223.0,33.0,4.0,246.0,2655.49
2655500.0,215.0,32.0,4.0,238.0,2655.5
2655510.0,218.0,33.0,4.0,247.0,2655.51
2655520.0,223.0,33.0,4.0,249.0,2655.52
2655531.0,215.0,32.0,4.0,241.0,2655.531
2655541.0,216.0,33.0,3.0,243.0,2655.541
2655551.0,215.0,32.0,4.0,242.0,2655.551
2655561.0,221.0,33.0,4.0,247.0,2655.561
2655571.0,223.0,33.0,5.0,246.0,2655.571
2655581.0,216.0,32.0,4.0,240.0,2655.581
2655591.0,218.0,32.0,4.0,242.0,2655.591
2655601.0,216.0,33.0,4.0,245.0,2655.601
2655611.0,217.0,33.0,3.0,248.0,2655.611
2655621.0,220.0,33.0,4.0,249.0,2655.621
2655631.0,213.0,32.0,4.0,242.0,2655.631
2655641.0,216.0,33.0,4.0,243.0,2655.641
2655651.0,216.0,33.0,4.0,245.0,2655.651
2655661.0,221.0,32.0,4.0,248.0,2655.661
2655671.0,222.0,33.0,3.0,249.0,2655.671
2655681.0,215.0,32.0,4.0,240.0,2655.681
2655691.0,217.0,33.0,4.0,242.0,2655.691
2655702.0,222.0,32.0,5.0,246.0,2655.702
2655712.0,224.0,33.0,4.0,248.0,2655.712
2655722.0,223.0,33.0,4.0,244.0,2655.722
2655732.0,215.0,34.0,3.0,238.0,2655.732
2655742.0,220.0,32.0,4.0,244.0,2655.742
2655752.0,224.0,34.0,3.0,249.0,2655.752
2655762.0,225.0,33.0,4.0,248.0,2655.762
2655772.0,223.0,33.0,4.0,246.0,2655.772
2655782.0,215.0,33.0,4.0,237.0,2655.782
2655792.0,219.0,33.0,4.0,243.0,2655.792
2655802.0,225.0,34.0,3.0,249.0,2655.802
2655812.0,225.0,32.0,4.0,248.0,2655.812
2655822.0,223.0,33.0,4.0,246.0,2655.822
2655832.0,218.0,33.0,4.0,239.0,2655.832
2655842.0,220.0,34.0,4.0,243.0,2655.842
2655852.0,227.0,33.0,4.0,249.0,2655.852
2655862.0,225.0,32.0,4.0,247.0,2655.862
2655872.0,226.0,33.0,4.0,246.0,2655.872
2655882.0,218.0,33.0,3.0,238.0,2655.882
2655892.0,222.0,33.0,4.0,242.0,2655.892
2655902.0,230.0,34.0,4.0,250.0,2655.902
2655912.0,228.0,33.0,4.0,246.0,2655.912
2655922.0,228.0,33.0,3.0,247.0,2655.922
2655932.0,219.0,33.0,3.0,238.0,2655.932
2655942.0,223.0,33.0,3.0,243.0,2655.942
2655952.0,229.0,33.0,4.0,248.0,2655.952
2655962.0,228.0,33.0,4.0,246.0,2655.962
2655972.0,224.0,34.0,4.0,244.0,2655.972
2655982.0,218.0,33.0,3.0,236.0,2655.982
2655992.0,223.0,34.0,3.0,244.0,2655.992
2656002.0,228.0,33.0,4.0,247.0,2656.002
2656012.0,228.0,33.0,4.0,247.0,2656.012
2656022.0,226.0,33.0,4.0,245.0,2656.022
2656032.0,218.0,33.0,4.0,238.0,2656.032
2656043.0,222.0,33.0,4.0,246.0,2656.043
2656053.0,227.0,34.0,3.0,251.0,2656.053
2656063.0,223.0,32.0,4.0,244.0,2656.063
2656073.0,223.0,33.0,4.0,244.0,2656.073
2656083.0,219.0,33.0,4.0,241.0,2656.083
2656093.0,222.0,34.0,4.0,247.0,2656.093
2656103.0,231.0,33.0,4.0,251.0,2656.103
2656113.0,226.0,33.0,3.0,247.0,2656.113
2656123.0,225.0,34.0,3.0,245.0,2656.123
2656133.0,219.0,33.0,4.0,239.0,2656.133
2656143.0,225.0,33.0,4.0,249.0,2656.143
2656153.0,230.0,33.0,5.0,252.0,2656.153
2656163.0,224.0,33.0,3.0,246.0,2656.163
2656173.0,225.0,33.0,4.0,247.0,2656.173
2656183.0,216.0,34.0,3.0,240.0,2656.183
2656193.0,221.0,32.0,4.0,249.0,2656.193
2656203.0,224.0,33.0,4.0,251.0,2656.203
2656214.0,220.0,32.0,4.0,244.0,2656.214
2656224.0,218.0,32.0,4.0,245.0,2656.224
2656234.0,217.0,33.0,3.0,245.0,2656.234
2656244.0,223.0,34.0,3.0,251.0,2656.244
2656254.0,222.0,34.0,3.0,247.0,2656.254
2656264.0,219.0,33.0,3.0,243.0,2656.264
2656274.0,220.0,33.0,4.0,243.0,2656.274
2656284.0,219.0,32.0,4.0,246.0,2656.284
2656294.0,227.0,33.0,4.0,250.0,2656.294
2656304.0,228.0,33.0,4.0,250.0,2656.304
2656314.0,222.0,34.0,3.0,242.0,2656.314
2656324.0,222.0,32.0,4.0,243.0,2656.324
2656334.0,223.0,33.0,4.0,247.0,2656.334
2656344.0,227.0,32.0,4.0,250.0,2656.344
2656354.0,227.0,34.0,2.0,249.0,2656.354
2656364.0,222.0,32.0,4.0,241.0,2656.364
2656374.0,222.0,33.0,3.0,244.0,2656.374
2656384.0,219.0,33.0,4.0,243.0,2656.384
2656394.0,224.0,33.0,4.0,251.0,2656.394
2656404.0,226.0,33.0,4.0,249.0,2656.404
2656414.0,218.0,33.0,3.0,240.0,2656.414
2656424.0,220.0,33.0,4.0,242.0,2656.424
2656434.0,218.0,33.0,4.0,243.0,2656.434
2656444.0,225.0,33.0,3.0,250.0,2656.444
2656454.0,225.0,33.0,4.0,248.0,2656.454
2656464.0,219.0,33.0,4.0,239.0,2656.464
2656474.0,221.0,32.0,4.0,243.0,2656.474
2656484.0,220.0,33.0,4.0,244.0,2656.484
2656494.0,226.0,33.0,4.0,249.0,2656.494
2656504.0,225.0,33.0,3.0,246.0,2656.504
2656514.0,221.0,32.0,4.0,241.0,2656.514
2656524.0,221.0,32.0,3.0,242.0,2656.524
2656534.0,221.0,33.0,4.0,244.0,2656.534
2656544.0,226.0,33.0,4.0,248.0,2656.544
2656555.0,224.0,32.0,4.0,244.0,2656.555
2656565.0,219.0,33.0,3.0,238.0,2656.565
2656575.0,221.0,32.0,4.0,241.0,2656.575
2656585.0,227.0,32.0,4.0,247.0,2656.585
2656595.0,226.0,33.0,5.0,246.0,2656.595
2656605.0,225.0,32.0,4.0,245.0,2656.605
2656615.0,217.0,33.0,3.0,238.0,2656.615
2656625.0,221.0,33.0,4.0,244.0,2656.625
2656635.0,226.0,33.0,3.0,249.0,2656.635
2656645.0,226.0,32.0,4.0,248.0,2656.645
2656655.0,224.0,33.0,4.0,244.0,2656.655
2656665.0,218.0,33.0,4.0,237.0,2656.665
2656675.0,221.0,33.0,4.0,244.0,2656.675
2656685.0,225.0,33.0,4.0,247.0,2656.685
2656695.0,226.0,33.0,3.0,249.0,2656.695
2656705.0,224.0,32.0,4.0,245.0,2656.705
2656715.0,217.0,32.0,4.0,238.0,2656.715
2656726.0,222.0,32.0,4.0,247.0,2656.726
2656736.0,227.0,32.0,4.0,251.0,2656.736
2656746.0,223.0,32.0,4.0,245.0,2656.746
2656756.0,224.0,32.0,3.0,245.0,2656.756
2656766.0,219.0,32.0,4.0,242.0,2656.766
2656776.0,224.0,33.0,3.0,248.0,2656.776
2656786.0,228.0,32.0,5.0,251.0,2656.786
2656796.0,223.0,31.0,3.0,246.0,2656.796
2656806.0,218.0,32.0,3.0,244.0,2656.806
2656816.0,213.0,31.0,4.0,238.0,2656.816
2656826.0,219.0,32.0,3.0,248.0,2656.826
2656836.0,225.0,31.0,4.0,250.0,2656.836
2656846.0,220.0,32.0,3.0,245.0,2656.846
2656856.0,221.0,32.0,4.0,246.0,2656.856
2656866.0,214.0,31.0,2.0,238.0,2656.866
2656876.0,222.0,31.0,4.0,248.0,2656.876
2656886.0,226.0,32.0,3.0,250.0,2656.886
2656896.0,225.0,31.0,4.0,247.0,2656.896
2656906.0,226.0,31.0,4.0,247.0,2656.906
2656916.0,220.0,31.0,4.0,240.0,2656.916
2656926.0,226.0,31.0,3.0,250.0,2656.926
2656936.0,229.0,32.0,3.0,251.0,2656.936
2656946.0,226.0,31.0,4.0,247.0,2656.946
2656956.0,224.0,32.0,4.0,246.0,2656.956
2656966.0,219.0,30.0,4.0,241.0,2656.966
2656976.0,227.0,31.0,4.0,251.0,2656.976
2656986.0,229.0,32.0,4.0,252.0,2656.986
2656996.0,224.0,31.0,4.0,246.0,2656.996
2657006.0,224.0,31.0,3.0,245.0,2657.006
2657016.0,220.0,32.0,3.0,243.0,2657.016
2657026.0,225.0,31.0,4.0,248.0,2657.026
2657036.0,229.0,32.0,3.0,251.0,2657.036
2657046.0,225.0,31.0,5.0,246.0,2657.046
2657056.0,224.0,31.0,4.0,245.0,2657.056
2657067.0,220.0,32.0,4.0,241.0,2657.067
2657077.0,227.0,33.0,3.0,251.0,2657.077
2657087.0,228.0,32.0,4.0,249.0,2657.087
2657097.0,225.0,31.0,3.0,242.0,2657.097
2657107.0,228.0,32.0,4.0,243.0,2657.107
2657117.0,225.0,32.0,4.0,244.0,2657.117
2657127.0,231.0,31.0,4.0,250.0,2657.127
2657137.0,231.0,32.0,4.0,249.0,2657.137
2657147.0,223.0,32.0,3.0,242.0,2657.147
2657157.0,224.0,32.0,4.0,245.0,2657.157
2657167.0,223.0,32.0,4.0,246.0,2657.167
2657177.0,229.0,31.0,5.0,251.0,2657.177
2657187.0,227.0,33.0,4.0,249.0,2657.187
2657197.0,224.0,31.0,4.0,244.0,2657.197
2657207.0,221.0,33.0,3.0,246.0,2657.207
2657217.0,219.0,32.0,4.0,246.0,2657.217
2657227.0,224.0,32.0,4.0,251.0,2657.227
2657238.0,224.0,33.0,3.0,249.0,2657.238
2657248.0,215.0,32.0,2.0,241.0,2657.248
2657258.0,218.0,32.0,4.0,244.0,2657.258
2657268.0,224.0,33.0,3.0,250.0,2657.268
2657278.0,222.0,32.0,3.0,246.0,2657.278
2657288.0,223.0,33.0,3.0,246.0,2657.288
2657298.0,216.0,32.0,4.0,238.0,2657.298
2657308.0,216.0,31.0,4.0,243.0,2657.308
2657318.0,220.0,33.0,4.0,249.0,2657.318
2657328.0,221.0,32.0,4.0,249.0,2657.328
2657338.0,219.0,33.0,3.0,246.0,2657.338
2657348.0,213.0,32.0,4.0,238.0,2657.348
2657358.0,216.0,33.0,3.0,245.0,2657.358
2657368.0,218.0,32.0,4.0,248.0,2657.368
2657378.0,218.0,32.0,4.0,251.0,2657.378
2657388.0,218.0,33.0,4.0,248.0,2657.388
2657398.0,211.0,33.0,3.0,241.0,2657.398
2657408.0,216.0,33.0,4.0,245.0,2657.408
2657418.0,220.0,33.0,4.0,251.0,2657.418
2657428.0,221.0,33.0,5.0,250.0,2657.428
2657438.0,221.0,33.0,4.0,247.0,2657.438
2657448.0,213.0,33.0,4.0,239.0,2657.448
2657458.0,218.0,33.0,4.0,245.0,2657.458
2657468.0,222.0,34.0,3.0,251.0,2657.468
2657478.0,222.0,33.0,4.0,250.0,2657.478
2657488.0,221.0,33.0,4.0,248.0,2657.488
2657498.0,215.0,32.0,4.0,242.0,2657.498
2657508.0,218.0,33.0,4.0,246.0,2657.508
2657518.0,222.0,33.0,4.0,252.0,2657.518
2657528.0,219.0,34.0,3.0,249.0,2657.528
2657538.0,221.0,33.0,3.0,246.0,2657.538
2657548.0,213.0,33.0,4.0,239.0,2657.548
2657558.0,217.0,33.0,5.0,245.0,2657.558
2657568.0,223.0,34.0,4.0,251.0,2657.568
2657579.0,220.0,33.0,3.0,248.0,2657.579
2657589.0,220.0,32.0,4.0,247.0,2657.589
2657599.0,210.0,32.0,4.0,241.0,2657.599
2657609.0,219.0,33.0,4.0,251.0,2657.609
2657619.0,223.0,33.0,4.0,251.0,2657.619
2657629.0,219.0,32.0,4.0,247.0,2657.629
2657639.0,218.0,33.0,3.0,245.0,2657.639
2657649.0,212.0,33.0,3.0,240.0,2657.649
2657659.0,220.0,33.0,3.0,250.0,2657.659
2657669.0,224.0,33.0,4.0,251.0,2657.669
2657679.0,219.0,33.0,4.0,247.0,2657.679
2657689.0,221.0,33.0,5.0,244.0,2657.689
2657699.0,218.0,33.0,4.0,242.0,2657.699
2657709.0,225.0,33.0,4.0,247.0,2657.709
2657719.0,228.0,34.0,3.0,253.0,2657.719
2657729.0,222.0,32.0,4.0,246.0,2657.729
2657739.0,222.0,33.0,4.0,244.0,2657.739
2657750.0,217.0,33.0,4.0,242.0,2657.75
2657760.0,224.0,33.0,4.0,248.0,2657.76
2657770.0,225.0,33.0,4.0,247.0,2657.77
2657780.0,216.0,33.0,3.0,241.0,2657.78
2657790.0,219.0,33.0,3.0,242.0,2657.79
2657800.0,215.0,33.0,4.0,243.0,2657.8
2657810.0,222.0,32.0,5.0,248.0,2657.81
2657820.0,223.0,33.0,4.0,247.0,2657.82
2657830.0,214.0,33.0,4.0,239.0,2657.83
2657840.0,219.0,33.0,4.0,242.0,2657.84
2657850.0,216.0,34.0,3.0,243.0,2657.85
2657860.0,222.0,32.0,4.0,247.0,2657.86
2657870.0,221.0,34.0,3.0,244.0,2657.87
2657880.0,215.0,32.0,4.0,240.0,2657.88
2657890.0,217.0,33.0,4.0,240.0,2657.89
2657900.0,219.0,33.0,4.0,241.0,2657.9
2657910.0,223.0,34.0,3.0,245.0,2657.91
2657920.0,224.0,33.0,4.0,245.0,2657.92
2657930.0,217.0,33.0,4.0,237.0,2657.93
2657940.0,218.0,34.0,4.0,239.0,2657.94
2657950.0,219.0,33.0,4.0,242.0,2657.95
2657960.0,223.0,33.0,4.0,245.0,2657.96
2657970.0,225.0,33.0,4.0,247.0,2657.97
2657980.0,216.0,34.0,3.0,238.0,2657.98
2657990.0,218.0,32.0,4.0,239.0,2657.99
2658000.0,220.0,33.0,4.0,243.0,2658.0
2658010.0,224.0,32.0,4.0,246.0,2658.01
2658020.0,225.0,34.0,4.0,244.0,2658.02
2658030.0,217.0,33.0,3.0,237.0,2658.03
2658040.0,219.0,34.0,3.0,241.0,2658.04
2658050.0,216.0,33.0,4.0,239.0,2658.05
2658060.0,221.0,33.0,4.0,247.0,2658.06
2658070.0,223.0,34.0,4.0,246.0,2658.07
2658080.0,215.0,33.0,4.0,238.0,2658.08
2658091.0,218.0,33.0,4.0,240.0,2658.091
2658101.0,225.0,34.0,4.0,246.0,2658.101
2658111.0,225.0,33.0,4.0,247.0,2658.111
2658121.0,224.0,34.0,3.0,245.0,2658.121
2658131.0,216.0,33.0,4.0,236.0,2658.131
2658141.0,219.0,33.0,4.0,240.0,2658.141
2658151.0,224.0,34.0,3.0,247.0,2658.151
2658161.0,223.0,33.0,4.0,245.0,2658.161
2658171.0,222.0,34.0,3.0,242.0,2658.171
2658181.0,216.0,33.0,4.0,237.0,2658.181
2658191.0,220.0,33.0,4.0,241.0,2658.191
2658201.0,229.0,33.0,5.0,248.0,2658.201
2658211.0,225.0,33.0,4.0,245.0,2658.211
2658221.0,226.0,34.0,5.0,243.0,2658.221
2658231.0,218.0,33.0,3.0,237.0,2658.231
2658241.0,220.0,32.0,4.0,241.0,2658.241
2658251.0,225.0,33.0,3.0,248.0,2658.251
2658262.0,222.0,33.0,4.0,245.0,2658.262
2658272.0,221.0,33.0,4.0,243.0,2658.272
2658282.0,217.0,33.0,4.0,237.0,2658.282
2658292.0,225.0,34.0,3.0,247.0,2658.292
2658302.0,227.0,34.0,3.0,248.0,2658.302
2658312.0,222.0,33.0,4.0,246.0,2658.312
2658322.0,222.0,33.0,4.0,244.0,2658.322
2658332.0,216.0,33.0,4.0,239.0,2658.332
2658342.0,222.0,34.0,3.0,249.0,2658.342
2658352.0,226.0,33.0,5.0,250.0,2658.352
2658362.0,221.0,34.0,3.0,247.0,2658.362
2658372.0,221.0,33.0,4.0,246.0,2658.372
2658382.0,217.0,33.0,4.0,242.0,2658.382
2658392.0,221.0,33.0,4.0,247.0,2658.392
2658402.0,226.0,33.0,4.0,251.0,2658.402
2658412.0,220.0,33.0,3.0,246.0,2658.412
2658422.0,220.0,35.0,4.0,246.0,2658.422
2658432.0,212.0,33.0,3.0,239.0,2658.432
2658442.0,218.0,33.0,4.0,247.0,2658.442
2658452.0,223.0,34.0,4.0,250.0,2658.452
2658462.0,219.0,33.0,4.0,244.0,2658.462
2658472.0,221.0,34.0,4.0,244.0,2658.472
2658482.0,215.0,33.0,4.0,239.0,2658.482
2658492.0,221.0,34.0,3.0,249.0,2658.492
2658502.0,224.0,34.0,4.0,250.0,2658.502
2658512.0,217.0,33.0,4.0,245.0,2658.512
2658522.0,219.0,34.0,4.0,245.0,2658.522
2658532.0,212.0,33.0,3.0,239.0,2658.532
2658542.0,220.0,33.0,4.0,249.0,2658.542
2658552.0,223.0,35.0,3.0,252.0,2658.552
2658562.0,219.0,33.0,3.0,249.0,2658.562
2658572.0,219.0,33.0,4.0,247.0,2658.572
2658582.0,212.0,33.0,4.0,241.0,2658.582
2658592.0,220.0,33.0,3.0,250.0,2658.592
2658603.0,224.0,33.0,3.0,249.0,2658.603
2658613.0,217.0,32.0,4.0,242.0,2658.613
2658623.0,218.0,33.0,3.0,242.0,2658.623
2658633.0,217.0,34.0,4.0,246.0,2658.633
2658643.0,216.0,34.0,4.0,248.0,2658.643
2658653.0,218.0,33.0,4.0,247.0,2658.653
2658663.0,210.0,33.0,4.0,242.0,2658.663
2658673.0,213.0,33.0,4.0,243.0,2658.673
2658683.0,215.0,34.0,3.0,246.0,2658.683
2658693.0,218.0,33.0,4.0,249.0,2658.693
2658703.0,220.0,34.0,4.0,247.0,2658.703
2658713.0,213.0,33.0,4.0,242.0,2658.713
2658723.0,214.0,33.0,4.0,242.0,2658.723
2658733.0,216.0,34.0,5.0,242.0,2658.733
2658743.0,223.0,34.0,3.0,249.0,2658.743
2658753.0,224.0,33.0,3.0,247.0,2658.753
2658763.0,215.0,33.0,3.0,240.0,2658.763
2658774.0,217.0,33.0,4.0,242.0,2658.774
2658784.0,221.0,33.0,4.0,247.0,2658.784
2658794.0,221.0,33.0,4.0,249.0,2658.794
2658804.0,221.0,32.0,4.0,246.0,2658.804
2658814.0,217.0,34.0,3.0,239.0,2658.814
2658824.0,222.0,33.0,4.0,244.0,2658.824
2658834.0,224.0,34.0,4.0,249.0,2658.834
2658844.0,224.0,33.0,4.0,249.0,2658.844
2658854.0,222.0,33.0,4.0,246.0,2658.854
2658864.0,217.0,33.0,5.0,241.0,2658.864
2658874.0,218.0,34.0,3.0,245.0,2658.874
2658884.0,223.0,33.0,3.0,250.0,2658.884
2658894.0,221.0,33.0,3.0,249.0,2658.894
2658904.0,220.0,34.0,4.0,245.0,2658.904
2658914.0,210.0,33.0,2.0,239.0,2658.914
2658924.0,213.0,33.0,3.0,242.0,2658.924
2658934.0,220.0,33.0,4.0,249.0,2658.934
2658944.0,219.0,33.0,4.0,248.0,2658.944
2658954.0,219.0,33.0,4.0,245.0,2658.954
2658964.0,211.0,33.0,2.0,239.0,2658.964
2658974.0,216.0,33.0,4.0,244.0,2658.974
2658984.0,221.0,33.0,4.0,248.0,2658.984
2658994.0,221.0,33.0,4.0,248.0,2658.994
2659004.0,223.0,34.0,3.0,245.0,2659.004
2659014.0,214.0,32.0,4.0,239.0,2659.014
2659024.0,217.0,33.0,3.0,246.0,2659.024
2659034.0,221.0,32.0,4.0,248.0,2659.034
2659044.0,221.0,32.0,4.0,249.0,2659.044
2659054.0,222.0,33.0,4.0,244.0,2659.054
2659064.0,213.0,34.0,3.0,241.0,2659.064
2659074.0,218.0,33.0,4.0,245.0,2659.074
2659084.0,225.0,33.0,3.0,252.0,2659.084
2659094.0,225.0,33.0,4.0,252.0,2659.094
2659104.0,223.0,33.0,4.0,248.0,2659.104
2659115.0,215.0,32.0,4.0,240.0,2659.115
2659125.0,221.0,33.0,3.0,250.0,2659.125
