time (ms),signal 0,signal 1,signal 2,signal 3,time (sec)
2632392.0,210.0,32.0,5.0,231.0,2632.392
2632402.0,214.0,33.0,4.0,237.0,2632.402
2632412.0,216.0,32.0,4.0,239.0,2632.412
2632422.0,219.0,33.0,4.0,243.0,2632.422
2632432.0,219.0,33.0,3.0,239.0,2632.432
2632442.0,212.0,32.0,4.0,231.0,2632.442
2632452.0,216.0,32.0,3.0,235.0,2632.452
2632462.0,222.0,33.0,4.0,241.0,2632.462
2632472.0,222.0,33.0,4.0,241.0,2632.472
2632482.0,222.0,32.0,3.0,239.0,2632.482
2632492.0,216.0,33.0,4.0,234.0,2632.492
2632502.0,218.0,32.0,4.0,236.0,2632.502
2632512.0,221.0,33.0,3.0,242.0,2632.512
2632522.0,224.0,33.0,5.0,241.0,2632.522
2632532.0,222.0,33.0,2.0,240.0,2632.532
2632542.0,217.0,32.0,5.0,233.0,2632.542
2632552.0,218.0,33.0,3.0,239.0,2632.552
2632562.0,221.0,33.0,4.0,244.0,2632.562
2632572.0,221.0,32.0,4.0,242.0,2632.572
2632582.0,223.0,34.0,3.0,242.0,2632.582
2632592.0,216.0,32.0,4.0,234.0,2632.592
2632602.0,218.0,33.0,3.0,238.0,2632.602
2632612.0,223.0,33.0,4.0,245.0,2632.612
2632622.0,224.0,33.0,2.0,244.0,2632.622
2632632.0,225.0,32.0,4.0,242.0,2632.632
2632642.0,216.0,32.0,4.0,234.0,2632.642
2632652.0,217.0,33.0,4.0,238.0,2632.652
2632662.0,218.0,33.0,4.0,241.0,2632.662
2632672.0,222.0,32.0,4.0,244.0,2632.672
2632682.0,222.0,33.0,4.0,243.0,2632.682
2632692.0,214.0,33.0,3.0,234.0,2632.692
2632702.0,218.0,32.0,4.0,239.0,2632.702
2632712.0,221.0,33.0,4.0,243.0,2632.712
2632722.0,222.0,33.0,4.0,245.0,2632.722
2632732.0,222.0,33.0,4.0,243.0,2632.732
2632742.0,214.0,33.0,3.0,236.0,2632.742
2632752.0,216.0,33.0,4.0,239.0,2632.752
2632762.0,220.0,32.0,4.0,245.0,2632.762
2632772.0,221.0,33.0,4.0,245.0,2632.772
2632782.0,221.0,33.0,4.0,243.0,2632.782
2632792.0,214.0,33.0,3.0,236.0,2632.792
2632802.0,218.0,33.0,4.0,239.0,2632.802
2632812.0,222.0,33.0,4.0,247.0,2632.812
2632822.0,223.0,32.0,3.0,244.0,2632.822
2632832.0,224.0,34.0,3.0,246.0,2632.832
2632842.0,216.0,33.0,5.0,236.0,2632.842
2632852.0,216.0,33.0,3.0,240.0,2632.852
2632862.0,222.0,33.0,4.0,247.0,2632.862
2632872.0,220.0,33.0,3.0,245.0,2632.872
2632882.0,223.0,33.0,4.0,245.0,2632.882
2632892.0,215.0,32.0,4.0,236.0,2632.892
2632902.0,219.0,33.0,4.0,241.0,2632.902
2632912.0,225.0,33.0,4.0,248.0,2632.912
2632922.0,224.0,33.0,4.0,246.0,2632.922
2632932.0,224.0,33.0,3.0,244.0,2632.932
2632942.0,216.0,33.0,3.0,236.0,2632.942
2632952.0,220.0,32.0,4.0,241.0,2632.952
2632962.0,223.0,33.0,3.0,245.0,2632.962
2632972.0,226.0,33.0,4.0,245.0,2632.972
2632982.0,224.0,33.0,4.0,244.0,2632.982
2632992.0,216.0,33.0,4.0,235.0,2632.992
2633003.0,219.0,33.0,3.0,244.0,2633.003
2633013.0,226.0,33.0,4.0,249.0,2633.013
2633023.0,222.0,33.0,4.0,243.0,2633.023
2633033.0,223.0,33.0,5.0,243.0,2633.033
2633043.0,217.0,33.0,4.0,238.0,2633.043
2633053.0,222.0,32.0,5.0,242.0,2633.053
2633063.0,228.0,33.0,4.0,248.0,2633.063
2633073.0,223.0,33.0,3.0,241.0,2633.073
2633083.0,223.0,34.0,4.0,242.0,2633.083
2633093.0,217.0,33.0,3.0,234.0,2633.093
2633103.0,224.0,32.0,5.0,244.0,2633.103
2633113.0,227.0,33.0,3.0,249.0,2633.113
2633123.0,223.0,32.0,3.0,239.0,2633.123
2633133.0,226.0,33.0,4.0,243.0,2633.133
2633143.0,217.0,32.0,4.0,234.0,2633.143
2633153.0,224.0,33.0,3.0,244.0,2633.153
2633163.0,229.0,33.0,5.0,247.0,2633.163
2633174.0,223.0,33.0,4.0,239.0,2633.174
2633184.0,223.0,33.0,4.0,240.0,2633.184
2633194.0,219.0,33.0,3.0,240.0,2633.194
2633204.0,227.0,32.0,4.0,246.0,2633.204
2633214.0,229.0,33.0,4.0,244.0,2633.214
2633224.0,223.0,32.0,3.0,237.0,2633.224
2633234.0,225.0,33.0,4.0,240.0,2633.234
2633244.0,221.0,33.0,3.0,239.0,2633.244
2633254.0,228.0,32.0,3.0,245.0,2633.254
2633264.0,233.0,34.0,4.0,247.0,2633.264
2633274.0,227.0,32.0,4.0,239.0,2633.274
2633284.0,228.0,33.0,4.0,242.0,2633.284
2633294.0,227.0,33.0,4.0,243.0,2633.294
2633304.0,229.0,33.0,3.0,248.0,2633.304
2633314.0,231.0,33.0,4.0,251.0,2633.314
2633324.0,230.0,34.0,3.0,246.0,2633.324
2633334.0,235.0,32.0,4.0,249.0,2633.334
2633344.0,226.0,33.0,3.0,246.0,2633.344
2633354.0,233.0,32.0,5.0,252.0,2633.354
2633364.0,235.0,33.0,3.0,252.0,2633.364
2633374.0,227.0,32.0,4.0,244.0,2633.374
2633384.0,231.0,33.0,3.0,249.0,2633.384
2633394.0,228.0,33.0,4.0,248.0,2633.394
2633404.0,232.0,32.0,4.0,255.0,2633.404
2633414.0,235.0,33.0,4.0,256.0,2633.414
2633424.0,229.0,32.0,4.0,247.0,2633.424
2633434.0,229.0,32.0,4.0,247.0,2633.434
2633444.0,224.0,33.0,4.0,244.0,2633.444
2633454.0,232.0,34.0,3.0,250.0,2633.454
2633464.0,233.0,32.0,4.0,247.0,2633.464
2633474.0,224.0,33.0,3.0,243.0,2633.474
2633484.0,228.0,33.0,5.0,246.0,2633.484
2633494.0,225.0,32.0,4.0,248.0,2633.494
2633504.0,231.0,32.0,4.0,252.0,2633.504
2633515.0,232.0,33.0,3.0,254.0,2633.515
2633525.0,222.0,32.0,4.0,244.0,2633.525
2633535.0,224.0,32.0,3.0,250.0,2633.535
2633545.0,229.0,32.0,4.0,255.0,2633.545
2633555.0,226.0,31.0,4.0,249.0,2633.555
2633565.0,231.0,32.0,4.0,249.0,2633.565
2633575.0,220.0,32.0,3.0,240.0,2633.575
2633585.0,223.0,33.0,3.0,243.0,2633.585
2633595.0,230.0,32.0,4.0,253.0,2633.595
2633605.0,228.0,32.0,4.0,252.0,2633.605
2633615.0,232.0,31.0,5.0,250.0,2633.615
2633625.0,224.0,31.0,3.0,240.0,2633.625
2633635.0,223.0,32.0,3.0,245.0,2633.635
2633645.0,226.0,31.0,4.0,249.0,2633.645
2633655.0,231.0,30.0,4.0,252.0,2633.655
2633665.0,234.0,32.0,4.0,253.0,2633.665
2633675.0,224.0,31.0,4.0,244.0,2633.675
2633686.0,224.0,31.0,4.0,247.0,2633.686
2633696.0,229.0,31.0,4.0,252.0,2633.696
2633706.0,223.0,32.0,4.0,250.0,2633.706
2633716.0,225.0,32.0,3.0,250.0,2633.716
2633726.0,215.0,31.0,4.0,242.0,2633.726
2633736.0,223.0,31.0,3.0,249.0,2633.736
2633746.0,232.0,31.0,4.0,253.0,2633.746
2633756.0,225.0,31.0,3.0,247.0,2633.756
2633766.0,225.0,32.0,3.0,247.0,2633.766
2633776.0,219.0,31.0,3.0,239.0,2633.776
2633786.0,224.0,30.0,4.0,245.0,2633.786
2633796.0,233.0,31.0,4.0,247.0,2633.796
2633806.0,227.0,31.0,4.0,241.0,2633.806
2633816.0,229.0,32.0,3.0,244.0,2633.816
2633826.0,223.0,32.0,4.0,237.0,2633.826
2633836.0,231.0,32.0,3.0,249.0,2633.836
2633846.0,234.0,32.0,4.0,252.0,2633.846
2633856.0,231.0,32.0,3.0,251.0,2633.856
2633866.0,231.0,32.0,4.0,247.0,2633.866
2633876.0,221.0,31.0,4.0,236.0,2633.876
2633886.0,235.0,32.0,4.0,248.0,2633.886
2633896.0,239.0,33.0,3.0,252.0,2633.896
2633906.0,236.0,32.0,3.0,249.0,2633.906
2633916.0,239.0,32.0,4.0,250.0,2633.916
2633926.0,231.0,32.0,4.0,243.0,2633.926
2633936.0,238.0,32.0,4.0,253.0,2633.936
2633946.0,243.0,32.0,4.0,255.0,2633.946
2633956.0,236.0,32.0,4.0,249.0,2633.956
2633966.0,240.0,33.0,3.0,250.0,2633.966
2633976.0,233.0,32.0,4.0,245.0,2633.976
2633986.0,234.0,32.0,3.0,253.0,2633.986
2633996.0,240.0,33.0,4.0,257.0,2633.996
2634006.0,233.0,32.0,2.0,251.0,2634.006
2634016.0,237.0,33.0,3.0,252.0,2634.016
2634027.0,232.0,33.0,3.0,251.0,2634.027
2634037.0,239.0,32.0,3.0,261.0,2634.037
2634047.0,247.0,33.0,3.0,264.0,2634.047
2634057.0,240.0,32.0,5.0,257.0,2634.057
2634067.0,245.0,32.0,4.0,254.0,2634.067
2634077.0,237.0,32.0,5.0,249.0,2634.077
2634087.0,245.0,33.0,4.0,257.0,2634.087
2634097.0,246.0,34.0,3.0,256.0,2634.097
2634107.0,238.0,33.0,3.0,248.0,2634.107
2634117.0,243.0,34.0,3.0,252.0,2634.117
2634127.0,239.0,32.0,5.0,250.0,2634.127
2634137.0,246.0,33.0,4.0,258.0,2634.137
2634147.0,235.0,34.0,4.0,256.0,2634.147
2634157.0,230.0,32.0,4.0,249.0,2634.157
2634167.0,225.0,32.0,4.0,243.0,2634.167
2634177.0,232.0,33.0,4.0,248.0,2634.177
2634187.0,239.0,33.0,4.0,257.0,2634.187
2634198.0,242.0,33.0,3.0,255.0,2634.198
2634208.0,231.0,32.0,4.0,246.0,2634.208
2634218.0,235.0,33.0,4.0,251.0,2634.218
2634228.0,245.0,34.0,3.0,258.0,2634.228
2634238.0,244.0,33.0,4.0,256.0,2634.238
2634248.0,248.0,34.0,4.0,258.0,2634.248
2634258.0,241.0,33.0,4.0,249.0,2634.258
2634268.0,240.0,33.0,4.0,252.0,2634.268
2634278.0,252.0,33.0,3.0,264.0,2634.278
2634288.0,250.0,33.0,3.0,261.0,2634.288
2634298.0,243.0,32.0,4.0,258.0,2634.298
2634308.0,233.0,32.0,4.0,248.0,2634.308
2634318.0,238.0,33.0,5.0,252.0,2634.318
2634328.0,242.0,32.0,4.0,256.0,2634.328
2634338.0,246.0,33.0,4.0,259.0,2634.338
2634348.0,249.0,34.0,3.0,260.0,2634.348
2634358.0,240.0,32.0,4.0,250.0,2634.358
2634368.0,243.0,33.0,3.0,254.0,2634.368
2634378.0,244.0,33.0,5.0,256.0,2634.378
2634388.0,246.0,33.0,4.0,253.0,2634.388
2634398.0,247.0,33.0,4.0,250.0,2634.398
2634408.0,243.0,32.0,4.0,241.0,2634.408
2634418.0,244.0,33.0,3.0,245.0,2634.418
2634428.0,249.0,32.0,4.0,252.0,2634.428
2634438.0,249.0,33.0,3.0,252.0,2634.438
2634448.0,248.0,33.0,4.0,251.0,2634.448
2634458.0,240.0,32.0,4.0,244.0,2634.458
2634468.0,241.0,33.0,4.0,247.0,2634.468
2634478.0,245.0,34.0,3.0,253.0,2634.478
2634488.0,247.0,32.0,3.0,253.0,2634.488
2634498.0,249.0,34.0,3.0,256.0,2634.498
2634508.0,238.0,33.0,5.0,246.0,2634.508
2634518.0,240.0,33.0,4.0,251.0,2634.518
2634528.0,247.0,33.0,3.0,259.0,2634.528
2634539.0,247.0,33.0,3.0,257.0,2634.539
2634549.0,243.0,34.0,3.0,255.0,2634.549
2634559.0,239.0,33.0,4.0,249.0,2634.559
2634569.0,249.0,33.0,4.0,264.0,2634.569
2634579.0,250.0,34.0,4.0,263.0,2634.579
2634589.0,245.0,33.0,4.0,257.0,2634.589
2634599.0,248.0,33.0,4.0,256.0,2634.599
2634609.0,239.0,33.0,3.0,248.0,2634.609
2634619.0,249.0,32.0,4.0,258.0,2634.619
2634629.0,251.0,35.0,3.0,257.0,2634.629
2634639.0,248.0,33.0,5.0,252.0,2634.639
2634649.0,248.0,33.0,3.0,253.0,2634.649
2634659.0,240.0,33.0,4.0,245.0,2634.659
2634669.0,242.0,34.0,4.0,253.0,2634.669
2634679.0,252.0,34.0,4.0,260.0,2634.679
2634689.0,247.0,33.0,4.0,254.0,2634.689
2634699.0,248.0,34.0,5.0,252.0,2634.699
2634710.0,242.0,34.0,4.0,246.0,2634.71
2634720.0,244.0,33.0,4.0,254.0,2634.72
2634730.0,245.0,34.0,4.0,254.0,2634.73
2634740.0,239.0,33.0,3.0,244.0,2634.74
2634750.0,239.0,33.0,4.0,247.0,2634.75
2634760.0,234.0,34.0,3.0,246.0,2634.76
2634770.0,244.0,33.0,4.0,254.0,2634.77
2634780.0,247.0,34.0,4.0,255.0,2634.78
2634790.0,238.0,33.0,4.0,245.0,2634.79
2634800.0,241.0,34.0,4.0,250.0,2634.8
2634810.0,238.0,32.0,4.0,247.0,2634.81
2634820.0,245.0,34.0,3.0,256.0,2634.82
2634830.0,247.0,34.0,5.0,256.0,2634.83
2634840.0,239.0,32.0,4.0,249.0,2634.84
2634850.0,239.0,33.0,4.0,252.0,2634.85
2634860.0,236.0,33.0,3.0,250.0,2634.86
2634870.0,241.0,32.0,4.0,253.0,2634.87
2634880.0,244.0,34.0,3.0,256.0,2634.88
2634890.0,241.0,33.0,4.0,250.0,2634.89
2634900.0,245.0,33.0,4.0,253.0,2634.9
2634910.0,242.0,33.0,4.0,252.0,2634.91
2634920.0,249.0,33.0,4.0,258.0,2634.92
2634930.0,253.0,34.0,4.0,258.0,2634.93
2634940.0,244.0,33.0,4.0,248.0,2634.94
2634950.0,243.0,33.0,3.0,251.0,2634.95
2634960.0,249.0,33.0,5.0,254.0,2634.96
2634970.0,248.0,33.0,4.0,257.0,2634.97
2634980.0,248.0,33.0,4.0,257.0,2634.98
2634990.0,240.0,33.0,3.0,249.0,2634.99
2635000.0,243.0,32.0,4.0,248.0,2635.0
2635010.0,237.0,34.0,3.0,246.0,2635.01
2635020.0,246.0,33.0,5.0,255.0,2635.02
2635030.0,251.0,33.0,4.0,255.0,2635.03
2635040.0,242.0,32.0,4.0,245.0,2635.04
2635051.0,244.0,33.0,4.0,249.0,2635.051
2635061.0,249.0,32.0,4.0,255.0,2635.061
2635071.0,252.0,32.0,4.0,256.0,2635.071
2635081.0,243.0,33.0,4.0,253.0,2635.081
2635091.0,231.0,33.0,4.0,243.0,2635.091
2635101.0,235.0,33.0,4.0,250.0,2635.101
2635111.0,240.0,33.0,4.0,260.0,2635.111
2635121.0,241.0,34.0,3.0,258.0,2635.121
2635131.0,242.0,32.0,4.0,256.0,2635.131
2635141.0,242.0,33.0,3.0,251.0,2635.141
2635151.0,247.0,33.0,5.0,255.0,2635.151
2635161.0,253.0,33.0,4.0,262.0,2635.161
2635171.0,252.0,33.0,4.0,257.0,2635.171
2635181.0,252.0,34.0,3.0,260.0,2635.181
2635191.0,243.0,33.0,4.0,248.0,2635.191
2635201.0,245.0,32.0,4.0,252.0,2635.201
2635211.0,250.0,33.0,5.0,259.0,2635.211
2635222.0,246.0,32.0,4.0,258.0,2635.222
2635232.0,246.0,33.0,4.0,256.0,2635.232
2635242.0,240.0,33.0,3.0,249.0,2635.242
2635252.0,253.0,33.0,3.0,259.0,2635.252
2635262.0,256.0,33.0,4.0,261.0,2635.262
2635272.0,251.0,33.0,3.0,256.0,2635.272
2635282.0,250.0,33.0,4.0,255.0,2635.282
2635292.0,240.0,33.0,3.0,247.0,2635.292
2635302.0,249.0,32.0,4.0,257.0,2635.302
2635312.0,248.0,33.0,4.0,258.0,2635.312
2635322.0,242.0,32.0,4.0,253.0,2635.322
2635332.0,243.0,33.0,3.0,253.0,2635.332
2635342.0,238.0,33.0,4.0,247.0,2635.342
2635352.0,243.0,33.0,3.0,253.0,2635.352
2635362.0,249.0,34.0,3.0,259.0,2635.362
2635372.0,247.0,33.0,3.0,254.0,2635.372
2635382.0,248.0,33.0,4.0,253.0,2635.382
2635392.0,243.0,33.0,3.0,247.0,2635.392
2635402.0,247.0,32.0,4.0,257.0,2635.402
2635412.0,255.0,34.0,4.0,262.0,2635.412
2635422.0,247.0,33.0,3.0,255.0,2635.422
2635432.0,247.0,33.0,4.0,255.0,2635.432
2635442.0,241.0,33.0,4.0,248.0,2635.442
2635452.0,247.0,32.0,4.0,258.0,2635.452
2635462.0,249.0,33.0,4.0,261.0,2635.462
2635472.0,241.0,33.0,4.0,253.0,2635.472
2635482.0,241.0,33.0,4.0,255.0,2635.482
2635492.0,236.0,32.0,4.0,248.0,2635.492
2635502.0,246.0,33.0,3.0,262.0,2635.502
2635512.0,249.0,33.0,4.0,262.0,2635.512
2635522.0,247.0,33.0,3.0,258.0,2635.522
2635532.0,247.0,33.0,5.0,256.0,2635.532
2635542.0,241.0,31.0,4.0,247.0,2635.542
2635552.0,254.0,32.0,4.0,258.0,2635.552
2635563.0,257.0,33.0,3.0,261.0,2635.563
2635573.0,247.0,32.0,3.0,252.0,2635.573
2635583.0,247.0,32.0,4.0,254.0,2635.583
2635593.0,245.0,33.0,4.0,255.0,2635.593
2635603.0,251.0,31.0,4.0,258.0,2635.603
2635613.0,253.0,32.0,4.0,260.0,2635.613
2635623.0,245.0,32.0,3.0,251.0,2635.623
2635633.0,244.0,33.0,3.0,253.0,2635.633
2635643.0,243.0,32.0,4.0,255.0,2635.643
2635653.0,243.0,33.0,3.0,260.0,2635.653
2635663.0,247.0,33.0,5.0,259.0,2635.663
2635673.0,239.0,32.0,2.0,252.0,2635.673
2635683.0,240.0,32.0,4.0,253.0,2635.683
2635693.0,236.0,32.0,4.0,251.0,2635.693
2635703.0,240.0,32.0,3.0,259.0,2635.703
2635713.0,242.0,32.0,4.0,259.0,2635.713
2635723.0,235.0,32.0,4.0,251.0,2635.723
2635734.0,236.0,31.0,4.0,253.0,2635.734
2635744.0,240.0,32.0,3.0,259.0,2635.744
2635754.0,241.0,32.0,3.0,259.0,2635.754
2635764.0,240.0,33.0,3.0,255.0,2635.764
2635774.0,232.0,32.0,4.0,246.0,2635.774
2635784.0,233.0,32.0,3.0,252.0,2635.784
2635794.0,237.0,32.0,5.0,256.0,2635.794
2635804.0,237.0,32.0,4.0,256.0,2635.804
2635814.0,237.0,32.0,4.0,251.0,2635.814
2635824.0,231.0,32.0,4.0,244.0,2635.824
2635834.0,235.0,32.0,4.0,248.0,2635.834
2635844.0,242.0,32.0,4.0,255.0,2635.844
2635854.0,242.0,33.0,3.0,254.0,2635.854
2635864.0,241.0,32.0,4.0,253.0,2635.864
2635874.0,230.0,33.0,3.0,247.0,2635.874
2635884.0,234.0,33.0,3.0,252.0,2635.884
2635894.0,241.0,32.0,4.0,257.0,2635.894
2635904.0,241.0,32.0,4.0,258.0,2635.904
2635914.0,241.0,33.0,4.0,254.0,2635.914
2635924.0,234.0,31.0,4.0,247.0,2635.924
2635934.0,238.0,32.0,4.0,253.0,2635.934
2635944.0,245.0,33.0,4.0,259.0,2635.944
2635954.0,244.0,33.0,2.0,261.0,2635.954
2635964.0,243.0,32.0,4.0,256.0,2635.964
2635974.0,234.0,32.0,4.0,249.0,2635.974
2635984.0,234.0,32.0,5.0,258.0,2635.984
2635994.0,232.0,32.0,4.0,268.0,2635.994
2636004.0,231.0,32.0,4.0,267.0,2636.004
2636014.0,233.0,33.0,3.0,261.0,2636.014
2636024.0,223.0,32.0,4.0,250.0,2636.024
2636034.0,229.0,32.0,3.0,252.0,2636.034
2636044.0,233.0,33.0,4.0,259.0,2636.044
2636054.0,234.0,33.0,4.0,256.0,2636.054
2636064.0,232.0,32.0,4.0,256.0,2636.064
2636075.0,222.0,33.0,3.0,245.0,2636.075
2636085.0,229.0,33.0,3.0,256.0,2636.085
2636095.0,234.0,32.0,4.0,260.0,2636.095
2636105.0,229.0,33.0,4.0,253.0,2636.105
2636115.0,231.0,33.0,4.0,252.0,2636.115
2636125.0,224.0,33.0,4.0,244.0,2636.125
2636135.0,232.0,33.0,4.0,253.0,2636.135
2636145.0,237.0,34.0,3.0,257.0,2636.145
2636155.0,233.0,32.0,3.0,250.0,2636.155
2636165.0,234.0,34.0,3.0,252.0,2636.165
2636175.0,227.0,33.0,5.0,243.0,2636.175
2636185.0,235.0,33.0,4.0,256.0,2636.185
2636195.0,239.0,33.0,4.0,256.0,2636.195
2636205.0,234.0,33.0,3.0,253.0,2636.205
2636215.0,232.0,33.0,3.0,251.0,2636.215
2636225.0,224.0,33.0,4.0,244.0,2636.225
2636235.0,233.0,33.0,4.0,255.0,2636.235
2636246.0,237.0,33.0,4.0,257.0,2636.246
2636256.0,228.0,33.0,3.0,248.0,2636.256
2636266.0,229.0,32.0,4.0,247.0,2636.266
2636276.0,227.0,34.0,3.0,247.0,2636.276
2636286.0,234.0,32.0,3.0,251.0,2636.286
2636296.0,236.0,34.0,3.0,251.0,2636.296
2636306.0,229.0,32.0,5.0,241.0,2636.306
2636316.0,230.0,33.0,4.0,244.0,2636.316
2636326.0,229.0,32.0,4.0,248.0,2636.326
2636336.0,232.0,32.0,4.0,253.0,2636.336
2636346.0,234.0,32.0,4.0,253.0,2636.346
2636356.0,228.0,32.0,3.0,245.0,2636.356
2636366.0,229.0,33.0,5.0,242.0,2636.366
2636376.0,225.0,33.0,4.0,240.0,2636.376
2636386.0,233.0,33.0,3.0,249.0,2636.386
2636396.0,234.0,33.0,4.0,251.0,2636.396
2636406.0,225.0,32.0,3.0,242.0,2636.406
2636416.0,228.0,33.0,4.0,245.0,2636.416
2636426.0,224.0,33.0,4.0,241.0,2636.426
2636436.0,232.0,33.0,4.0,249.0,2636.436
2636446.0,232.0,33.0,4.0,249.0,2636.446
2636456.0,223.0,32.0,4.0,241.0,2636.456
2636466.0,226.0,33.0,4.0,244.0,2636.466
2636476.0,223.0,32.0,4.0,242.0,2636.476
2636486.0,231.0,33.0,3.0,249.0,2636.486
2636496.0,233.0,34.0,4.0,247.0,2636.496
2636506.0,226.0,33.0,3.0,244.0,2636.506
2636516.0,228.0,33.0,3.0,244.0,2636.516
2636526.0,225.0,33.0,3.0,245.0,2636.526
2636536.0,229.0,32.0,3.0,249.0,2636.536
2636546.0,231.0,32.0,4.0,250.0,2636.546
2636556.0,223.0,32.0,4.0,242.0,2636.556
2636566.0,222.0,33.0,4.0,245.0,2636.566
2636576.0,220.0,33.0,4.0,247.0,2636.576
2636587.0,224.0,33.0,4.0,250.0,2636.587
2636597.0,225.0,34.0,3.0,248.0,2636.597
2636607.0,216.0,32.0,5.0,241.0,2636.607
2636617.0,220.0,33.0,3.0,246.0,2636.617
2636627.0,228.0,33.0,4.0,252.0,2636.627
2636637.0,226.0,32.0,4.0,251.0,2636.637
2636647.0,225.0,33.0,4.0,248.0,2636.647
2636657.0,218.0,34.0,3.0,241.0,2636.657
2636667.0,219.0,32.0,4.0,246.0,2636.667
2636677.0,221.0,33.0,3.0,250.0,2636.677
2636687.0,224.0,32.0,4.0,250.0,2636.687
2636697.0,224.0,32.0,4.0,248.0,2636.697
2636707.0,215.0,32.0,4.0,239.0,2636.707
2636717.0,220.0,33.0,4.0,246.0,2636.717
2636727.0,223.0,32.0,3.0,250.0,2636.727
2636737.0,224.0,32.0,5.0,250.0,2636.737
2636747.0,224.0,32.0,4.0,248.0,2636.747
2636758.0,217.0,31.0,4.0,239.0,2636.758
2636768.0,222.0,32.0,4.0,248.0,2636.768
2636778.0,230.0,32.0,4.0,253.0,2636.778
2636788.0,224.0,33.0,3.0,247.0,2636.788
2636798.0,224.0,32.0,4.0,245.0,2636.798
2636808.0,217.0,32.0,3.0,238.0,2636.808
2636818.0,224.0,32.0,5.0,248.0,2636.818
2636828.0,228.0,33.0,2.0,252.0,2636.828
2636838.0,222.0,32.0,4.0,244.0,2636.838
2636848.0,225.0,32.0,4.0,245.0,2636.848
2636858.0,216.0,32.0,4.0,236.0,2636.858
2636868.0,224.0,32.0,3.0,247.0,2636.868
2636878.0,229.0,33.0,5.0,250.0,2636.878
2636888.0,225.0,32.0,4.0,247.0,2636.888
2636898.0,224.0,33.0,3.0,245.0,2636.898
2636908.0,216.0,33.0,3.0,240.0,2636.908
2636918.0,223.0,32.0,3.0,249.0,2636.918
2636928.0,227.0,32.0,4.0,252.0,2636.928
2636938.0,224.0,32.0,3.0,248.0,2636.938
2636948.0,223.0,32.0,4.0,247.0,2636.948
2636958.0,214.0,32.0,4.0,242.0,2636.958
2636968.0,223.0,32.0,4.0,252.0,2636.968
2636978.0,226.0,32.0,4.0,253.0,2636.978
2636988.0,221.0,32.0,4.0,248.0,2636.988
2636998.0,222.0,32.0,3.0,247.0,2636.998
2637008.0,217.0,32.0,5.0,242.0,2637.008
2637018.0,222.0,32.0,4.0,248.0,2637.018
2637028.0,228.0,32.0,4.0,252.0,2637.028
2637038.0,222.0,33.0,3.0,248.0,2637.038
2637048.0,223.0,32.0,3.0,246.0,2637.048
2637058.0,216.0,32.0,4.0,239.0,2637.058
2637068.0,224.0,32.0,4.0,248.0,2637.068
2637078.0,229.0,31.0,4.0,252.0,2637.078
2637088.0,222.0,32.0,4.0,247.0,2637.088
2637099.0,224.0,32.0,4.0,246.0,2637.099
2637109.0,219.0,33.0,3.0,245.0,2637.109
2637119.0,226.0,32.0,4.0,251.0,2637.119
2637129.0,226.0,33.0,4.0,249.0,2637.129
2637139.0,218.0,31.0,4.0,242.0,2637.139
2637149.0,221.0,32.0,4.0,245.0,2637.149
2637159.0,219.0,32.0,4.0,245.0,2637.159
2637169.0,225.0,33.0,3.0,252.0,2637.169
2637179.0,227.0,32.0,4.0,248.0,2637.179
2637189.0,221.0,33.0,3.0,246.0,2637.189
2637199.0,222.0,33.0,5.0,243.0,2637.199
2637209.0,220.0,32.0,4.0,246.0,2637.209
2637219.0,226.0,32.0,3.0,250.0,2637.219
2637229.0,228.0,33.0,4.0,250.0,2637.229
2637239.0,223.0,32.0,3.0,245.0,2637.239
2637249.0,228.0,32.0,5.0,245.0,2637.249
2637259.0,225.0,33.0,4.0,247.0,2637.259
2637270.0,230.0,32.0,4.0,251.0,2637.27
2637280.0,228.0,33.0,3.0,247.0,2637.28
2637290.0,220.0,32.0,4.0,241.0,2637.29
2637300.0,223.0,33.0,3.0,247.0,2637.3
2637310.0,229.0,32.0,4.0,252.0,2637.31
2637320.0,227.0,33.0,3.0,252.0,2637.32
2637330.0,227.0,32.0,5.0,248.0,2637.33
2637340.0,219.0,32.0,4.0,240.0,2637.34
2637350.0,222.0,32.0,4.0,245.0,2637.35
2637360.0,230.0,31.0,4.0,250.0,2637.36
2637370.0,230.0,32.0,3.0,252.0,2637.37
2637380.0,228.0,32.0,3.0,248.0,2637.38
2637390.0,220.0,32.0,4.0,241.0,2637.39
2637400.0,224.0,32.0,4.0,244.0,2637.4
2637410.0,226.0,32.0,4.0,249.0,2637.41
2637420.0,228.0,32.0,4.0,250.0,2637.42
2637430.0,226.0,33.0,3.0,247.0,2637.43
2637440.0,220.0,32.0,3.0,242.0,2637.44
2637450.0,222.0,32.0,3.0,243.0,2637.45
2637460.0,228.0,31.0,4.0,249.0,2637.46
2637470.0,226.0,32.0,4.0,247.0,2637.47
2637480.0,226.0,32.0,4.0,244.0,2637.48
2637490.0,220.0,32.0,4.0,239.0,2637.49
2637500.0,223.0,32.0,4.0,242.0,2637.5
2637510.0,229.0,32.0,4.0,248.0,2637.51
2637520.0,228.0,33.0,4.0,246.0,2637.52
2637530.0,228.0,33.0,3.0,246.0,2637.53
2637540.0,219.0,32.0,4.0,239.0,2637.54
2637550.0,222.0,32.0,4.0,244.0,2637.55
2637560.0,227.0,32.0,3.0,250.0,2637.56
2637570.0,227.0,32.0,3.0,250.0,2637.57
2637580.0,225.0,33.0,4.0,246.0,2637.58
2637590.0,218.0,31.0,4.0,239.0,2637.59
2637600.0,222.0,32.0,4.0,246.0,2637.6
2637611.0,228.0,33.0,3.0,251.0,2637.611
2637621.0,225.0,33.0,3.0,248.0,2637.621
2637631.0,225.0,32.0,4.0,246.0,2637.631
2637641.0,217.0,32.0,3.0,240.0,2637.641
2637651.0,228.0,32.0,4.0,249.0,2637.651
2637661.0,228.0,33.0,3.0,251.0,2637.661
2637671.0,225.0,31.0,4.0,245.0,2637.671
2637681.0,224.0,33.0,3.0,245.0,2637.681
2637691.0,218.0,32.0,3.0,240.0,2637.691
2637701.0,224.0,33.0,3.0,246.0,2637.701
2637711.0,229.0,32.0,5.0,249.0,2637.711
2637721.0,224.0,31.0,4.0,245.0,2637.721
2637731.0,224.0,33.0,3.0,244.0,2637.731
2637741.0,219.0,31.0,4.0,238.0,2637.741
2637751.0,226.0,33.0,3.0,247.0,2637.751
2637761.0,232.0,33.0,5.0,250.0,2637.761
2637771.0,225.0,32.0,4.0,245.0,2637.771
2637782.0,226.0,33.0,4.0,245.0,2637.782
2637792.0,220.0,32.0,4.0,244.0,2637.792
2637802.0,228.0,32.0,4.0,252.0,2637.802
2637812.0,229.0,34.0,3.0,250.0,2637.812
2637822.0,222.0,32.0,4.0,242.0,2637.822
2637832.0,224.0,33.0,3.0,245.0,2637.832
2637842.0,221.0,33.0,5.0,244.0,2637.842
2637852.0,224.0,33.0,4.0,250.0,2637.852
2637862.0,225.0,33.0,4.0,248.0,2637.862
2637872.0,220.0,32.0,4.0,243.0,2637.872
2637882.0,221.0,32.0,3.0,244.0,2637.882
2637892.0,220.0,33.0,3.0,245.0,2637.892
2637902.0,226.0,32.0,5.0,251.0,2637.902
2637912.0,228.0,33.0,4.0,250.0,2637.912
2637922.0,220.0,33.0,3.0,243.0,2637.922
2637932.0,221.0,33.0,3.0,245.0,2637.932
2637942.0,221.0,33.0,3.0,246.0,2637.942
2637952.0,224.0,33.0,4.0,251.0,2637.952
2637962.0,224.0,33.0,3.0,250.0,2637.962
2637972.0,216.0,33.0,5.0,243.0,2637.972
2637982.0,218.0,33.0,4.0,244.0,2637.982
2637992.0,219.0,33.0,4.0,247.0,2637.992
2638002.0,222.0,33.0,4.0,251.0,2638.002
2638012.0,224.0,34.0,3.0,250.0,2638.012
2638022.0,218.0,33.0,3.0,243.0,2638.022
2638032.0,221.0,33.0,5.0,243.0,2638.032
2638042.0,217.0,33.0,4.0,243.0,2638.042
2638052.0,225.0,33.0,4.0,251.0,2638.052
2638062.0,227.0,34.0,4.0,250.0,2638.062
2638072.0,220.0,33.0,3.0,242.0,2638.072
2638082.0,223.0,33.0,3.0,246.0,2638.082
2638092.0,221.0,33.0,4.0,244.0,2638.092
2638102.0,228.0,32.0,4.0,252.0,2638.102
2638112.0,228.0,34.0,3.0,250.0,2638.112
2638123.0,220.0,33.0,3.0,243.0,2638.123
2638133.0,222.0,34.0,3.0,245.0,2638.133
2638143.0,226.0,34.0,4.0,251.0,2638.143
2638153.0,225.0,32.0,4.0,251.0,2638.153
2638163.0,226.0,33.0,4.0,247.0,2638.163
2638173.0,219.0,32.0,4.0,242.0,2638.173
2638183.0,218.0,32.0,4.0,244.0,2638.183
2638193.0,223.0,33.0,4.0,251.0,2638.193
2638203.0,222.0,32.0,4.0,250.0,2638.203
2638213.0,223.0,34.0,3.0,248.0,2638.213
2638223.0,216.0,32.0,5.0,242.0,2638.223
2638233.0,219.0,33.0,4.0,245.0,2638.233
2638243.0,225.0,33.0,4.0,251.0,2638.243
2638253.0,225.0,31.0,4.0,251.0,2638.253
2638263.0,224.0,33.0,4.0,247.0,2638.263
2638273.0,218.0,32.0,3.0,241.0,2638.273
2638283.0,220.0,33.0,4.0,245.0,2638.283
2638294.0,227.0,33.0,4.0,251.0,2638.294
2638304.0,220.0,32.0,4.0,248.0,2638.304
2638314.0,221.0,33.0,4.0,247.0,2638.314
2638324.0,213.0,33.0,3.0,242.0,2638.324
2638334.0,222.0,32.0,4.0,251.0,2638.334
2638344.0,226.0,34.0,3.0,253.0,2638.344
2638354.0,223.0,33.0,4.0,249.0,2638.354
2638364.0,222.0,33.0,4.0,247.0,2638.364
2638374.0,215.0,32.0,4.0,243.0,2638.374
2638384.0,220.0,33.0,2.0,249.0,2638.384
2638394.0,226.0,32.0,4.0,252.0,2638.394
2638404.0,222.0,32.0,4.0,247.0,2638.404
2638414.0,224.0,33.0,4.0,245.0,2638.414
2638424.0,216.0,32.0,4.0,240.0,2638.424
2638434.0,223.0,32.0,3.0,249.0,2638.434
2638444.0,228.0,32.0,4.0,252.0,2638.444
2638454.0,222.0,33.0,3.0,247.0,2638.454
2638464.0,224.0,33.0,4.0,246.0,2638.464
2638474.0,215.0,32.0,3.0,239.0,2638.474
2638484.0,224.0,32.0,5.0,249.0,2638.484
2638494.0,227.0,33.0,2.0,253.0,2638.494
2638504.0,221.0,32.0,4.0,248.0,2638.504
2638514.0,223.0,33.0,4.0,248.0,2638.514
2638524.0,215.0,32.0,4.0,242.0,2638.524
2638534.0,221.0,32.0,4.0,252.0,2638.534
2638544.0,226.0,33.0,5.0,253.0,2638.544
2638554.0,221.0,32.0,4.0,250.0,2638.554
2638564.0,222.0,33.0,3.0,248.0,2638.564
2638574.0,215.0,32.0,4.0,243.0,2638.574
2638584.0,223.0,33.0,3.0,252.0,2638.584
2638594.0,226.0,33.0,4.0,254.0,2638.594
2638604.0,223.0,32.0,4.0,250.0,2638.604
2638614.0,223.0,32.0,4.0,248.0,2638.614
2638624.0,216.0,33.0,3.0,244.0,2638.624
2638635.0,221.0,32.0,4.0,252.0,2638.635
2638645.0,225.0,34.0,3.0,252.0,2638.645
2638655.0,218.0,32.0,4.0,245.0,2638.655
2638665.0,220.0,33.0,3.0,246.0,2638.665
2638675.0,221.0,33.0,4.0,249.0,2638.675
2638685.0,224.0,32.0,4.0,252.0,2638.685
2638695.0,226.0,33.0,4.0,251.0,2638.695
2638705.0,219.0,33.0,3.0,246.0,2638.705
2638715.0,220.0,33.0,4.0,246.0,2638.715
2638725.0,218.0,33.0,4.0,245.0,2638.725
2638735.0,225.0,32.0,5.0,252.0,2638.735
2638745.0,231.0,33.0,4.0,250.0,2638.745
2638755.0,221.0,32.0,4.0,244.0,2638.755
2638765.0,224.0,32.0,4.0,246.0,2638.765
2638775.0,221.0,33.0,3.0,245.0,2638.775
2638785.0,227.0,32.0,4.0,252.0,2638.785
2638795.0,228.0,33.0,4.0,249.0,2638.795
2638806.0,221.0,31.0,5.0,243.0,2638.806
2638816.0,222.0,33.0,3.0,246.0,2638.816
2638826.0,227.0,32.0,4.0,251.0,2638.826
2638836.0,227.0,33.0,3.0,251.0,2638.836
2638846.0,230.0,32.0,4.0,247.0,2638.846
2638856.0,223.0,33.0,3.0,244.0,2638.856
2638866.0,226.0,32.0,5.0,246.0,2638.866
2638876.0,230.0,33.0,2.0,252.0,2638.876
2638886.0,228.0,33.0,4.0,251.0,2638.886
2638896.0,230.0,33.0,4.0,249.0,2638.896
2638906.0,222.0,32.0,4.0,243.0,2638.906
2638916.0,225.0,32.0,3.0,246.0,2638.916
2638926.0,229.0,33.0,4.0,253.0,2638.926
2638936.0,228.0,33.0,4.0,253.0,2638.936
2638946.0,226.0,33.0,4.0,249.0,2638.946
2638956.0,219.0,32.0,4.0,243.0,2638.956
2638966.0,223.0,34.0,3.0,247.0,2638.966
2638976.0,225.0,33.0,3.0,250.0,2638.976
2638986.0,227.0,33.0,3.0,253.0,2638.986
2638996.0,227.0,33.0,5.0,248.0,2638.996
2639006.0,218.0,33.0,3.0,242.0,2639.006
2639016.0,222.0,33.0,4.0,248.0,2639.016
2639026.0,224.0,33.0,4.0,252.0,2639.026
2639036.0,227.0,32.0,4.0,252.0,2639.036
2639046.0,230.0,32.0,4.0,249.0,2639.046
2639056.0,222.0,32.0,5.0,243.0,2639.056
2639066.0,224.0,32.0,4.0,247.0,2639.066
2639076.0,228.0,33.0,4.0,253.0,2639.076
2639086.0,229.0,33.0,3.0,254.0,2639.086
2639096.0,227.0,33.0,3.0,250.0,2639.096
2639106.0,221.0,32.0,3.0,246.0,2639.106
2639116.0,223.0,32.0,4.0,247.0,2639.116
2639126.0,229.0,32.0,5.0,253.0,2639.126
2639136.0,228.0,33.0,4.0,252.0,2639.136
2639147.0,224.0,32.0,4.0,248.0,2639.147
2639157.0,215.0,33.0,3.0,241.0,2639.157
2639167.0,223.0,32.0,4.0,249.0,2639.167
2639177.0,228.0,32.0,4.0,253.0,2639.177
2639187.0,223.0,32.0,5.0,248.0,2639.187
2639197.0,224.0,32.0,4.0,247.0,2639.197
2639207.0,217.0,31.0,4.0,242.0,2639.207
2639217.0,226.0,33.0,3.0,254.0,2639.217
2639227.0,229.0,32.0,4.0,252.0,2639.227
2639237.0,226.0,32.0,4.0,251.0,2639.237
2639247.0,224.0,32.0,4.0,248.0,2639.247
2639257.0,215.0,31.0,3.0,243.0,2639.257
2639267.0,224.0,32.0,3.0,253.0,2639.267
2639277.0,227.0,31.0,4.0,254.0,2639.277
2639287.0,223.0,32.0,3.0,252.0,2639.287
2639297.0,223.0,32.0,4.0,249.0,2639.297
2639307.0,216.0,32.0,4.0,245.0,2639.307
2639318.0,224.0,31.0,4.0,255.0,2639.318
2639328.0,228.0,33.0,3.0,255.0,2639.328
2639338.0,221.0,31.0,4.0,249.0,2639.338
2639348.0,221.0,33.0,4.0,249.0,2639.348
2639358.0,227.0,32.0,4.0,251.0,2639.358
2639368.0,230.0,33.0,3.0,256.0,2639.368
2639378.0,232.0,33.0,5.0,254.0,2639.378
2639388.0,224.0,31.0,4.0,248.0,2639.388
2639398.0,226.0,32.0,4.0,248.0,2639.398
2639408.0,222.0,31.0,3.0,247.0,2639.408
2639418.0,229.0,32.0,3.0,256.0,2639.418
2639428.0,231.0,32.0,4.0,253.0,2639.428
2639438.0,224.0,32.0,4.0,247.0,2639.438
2639448.0,223.0,32.0,4.0,248.0,2639.448
2639458.0,219.0,32.0,4.0,246.0,2639.458
2639468.0,226.0,32.0,4.0,254.0,2639.468
2639478.0,227.0,33.0,3.0,252.0,2639.478
2639488.0,222.0,32.0,3.0,248.0,2639.488
2639498.0,223.0,32.0,4.0,248.0,2639.498
2639508.0,222.0,32.0,5.0,248.0,2639.508
2639518.0,226.0,32.0,4.0,255.0,2639.518
2639528.0,227.0,32.0,4.0,249.0,2639.528
2639538.0,223.0,32.0,4.0,248.0,2639.538
2639548.0,223.0,32.0,3.0,247.0,2639.548
2639558.0,225.0,32.0,4.0,249.0,2639.558
2639568.0,229.0,32.0,5.0,255.0,2639.568
2639578.0,231.0,32.0,3.0,254.0,2639.578
2639588.0,223.0,32.0,4.0,248.0,2639.588
2639598.0,224.0,32.0,4.0,249.0,2639.598
2639608.0,224.0,33.0,3.0,250.0,2639.608
2639618.0,228.0,32.0,4.0,255.0,2639.618
2639628.0,229.0,32.0,3.0,253.0,2639.628
2639638.0,224.0,31.0,5.0,247.0,2639.638
2639648.0,224.0,32.0,4.0,248.0,2639.648
2639659.0,225.0,32.0,4.0,252.0,2639.659
2639669.0,227.0,33.0,3.0,255.0,2639.669
2639679.0,226.0,32.0,4.0,251.0,2639.679
2639689.0,219.0,32.0,3.0,243.0,2639.689
2639699.0,224.0,32.0,5.0,249.0,2639.699
2639709.0,225.0,32.0,4.0,252.0,2639.709
2639719.0,228.0,32.0,3.0,253.0,2639.719
2639729.0,226.0,33.0,3.0,251.0,2639.729
2639739.0,218.0,32.0,4.0,242.0,2639.739
2639749.0,222.0,33.0,3.0,248.0,2639.749
2639759.0,225.0,32.0,5.0,252.0,2639.759
2639769.0,228.0,32.0,4.0,253.0,2639.769
2639779.0,226.0,33.0,3.0,250.0,2639.779
2639789.0,223.0,31.0,4.0,246.0,2639.789
2639799.0,223.0,32.0,3.0,248.0,2639.799
2639809.0,228.0,33.0,3.0,254.0,2639.809
2639819.0,228.0,33.0,4.0,253.0,2639.819
2639830.0,227.0,32.0,5.0,249.0,2639.83
2639840.0,218.0,32.0,4.0,243.0,2639.84
2639850.0,225.0,32.0,4.0,251.0,2639.85
2639860.0,229.0,33.0,3.0,255.0,2639.86
2639870.0,224.0,32.0,4.0,248.0,2639.87
2639880.0,226.0,33.0,3.0,249.0,2639.88
2639890.0,219.0,32.0,5.0,241.0,2639.89
2639900.0,228.0,31.0,3.0,251.0,2639.9
2639910.0,233.0,33.0,3.0,253.0,2639.91
2639920.0,229.0,33.0,3.0,251.0,2639.92
2639930.0,228.0,33.0,4.0,247.0,2639.93
2639940.0,220.0,32.0,4.0,241.0,2639.94
2639950.0,228.0,33.0,4.0,251.0,2639.95
2639960.0,230.0,32.0,4.0,252.0,2639.96
2639970.0,226.0,33.0,3.0,249.0,2639.97
2639980.0,226.0,33.0,4.0,247.0,2639.98
2639990.0,219.0,34.0,3.0,243.0,2639.99
2640000.0,224.0,33.0,3.0,248.0,2640.0
2640010.0,229.0,33.0,3.0,253.0,2640.01
2640020.0,225.0,32.0,5.0,249.0,2640.02
2640030.0,224.0,33.0,4.0,247.0,2640.03
2640040.0,218.0,32.0,4.0,243.0,2640.04
2640050.0,224.0,33.0,2.0,249.0,2640.05
2640060.0,227.0,33.0,3.0,253.0,2640.06
2640070.0,223.0,32.0,4.0,249.0,2640.07
2640080.0,224.0,33.0,5.0,248.0,2640.08
2640090.0,217.0,32.0,4.0,242.0,2640.09
2640100.0,224.0,33.0,3.0,251.0,2640.1
2640110.0,232.0,33.0,4.0,254.0,2640.11
2640120.0,226.0,33.0,3.0,249.0,2640.12
2640130.0,227.0,32.0,4.0,249.0,2640.13
2640140.0,218.0,33.0,3.0,241.0,2640.14
2640150.0,226.0,32.0,5.0,251.0,2640.15
2640160.0,230.0,33.0,4.0,254.0,2640.16
2640171.0,224.0,32.0,4.0,248.0,2640.171
2640181.0,224.0,34.0,3.0,248.0,2640.181
2640191.0,221.0,32.0,4.0,247.0,2640.191
2640201.0,229.0,32.0,4.0,254.0,2640.201
2640211.0,230.0,32.0,5.0,250.0,2640.211
2640221.0,225.0,32.0,4.0,248.0,2640.221
2640231.0,226.0,33.0,4.0,247.0,2640.231
2640241.0,224.0,33.0,3.0,249.0,2640.241
2640251.0,229.0,32.0,3.0,254.0,2640.251
2640261.0,230.0,33.0,3.0,253.0,2640.261
2640271.0,222.0,32.0,4.0,247.0,2640.271
2640281.0,224.0,31.0,4.0,246.0,2640.281
2640291.0,222.0,32.0,4.0,249.0,2640.291
2640301.0,227.0,31.0,5.0,253.0,2640.301
2640311.0,229.0,33.0,3.0,253.0,2640.311
2640321.0,221.0,32.0,4.0,246.0,2640.321
2640331.0,224.0,33.0,3.0,247.0,2640.331
2640342.0,226.0,33.0,4.0,250.0,2640.342
2640352.0,228.0,33.0,4.0,253.0,2640.352
2640362.0,227.0,32.0,3.0,249.0,2640.362
2640372.0,218.0,33.0,3.0,245.0,2640.372
2640382.0,223.0,31.0,3.0,249.0,2640.382
2640392.0,225.0,33.0,3.0,253.0,2640.392
2640402.0,227.0,32.0,4.0,253.0,2640.402
2640412.0,226.0,31.0,4.0,249.0,2640.412
2640422.0,217.0,32.0,4.0,242.0,2640.422
2640432.0,222.0,31.0,4.0,246.0,2640.432
2640442.0,225.0,32.0,3.0,252.0,2640.442
2640452.0,228.0,32.0,4.0,253.0,2640.452
2640462.0,227.0,33.0,4.0,249.0,2640.462
2640472.0,221.0,32.0,4.0,245.0,2640.472
2640482.0,223.0,32.0,3.0,247.0,2640.482
2640492.0,228.0,32.0,4.0,253.0,2640.492
2640502.0,226.0,33.0,3.0,253.0,2640.502
2640512.0,227.0,33.0,4.0,250.0,2640.512
2640522.0,219.0,32.0,4.0,245.0,2640.522
2640532.0,222.0,32.0,5.0,247.0,2640.532
2640542.0,226.0,32.0,3.0,254.0,2640.542
2640552.0,226.0,32.0,3.0,252.0,2640.552
2640562.0,225.0,33.0,4.0,249.0,2640.562
2640572.0,216.0,32.0,4.0,242.0,2640.572
2640582.0,218.0,32.0,4.0,246.0,2640.582
2640592.0,225.0,33.0,4.0,253.0,2640.592
2640602.0,225.0,32.0,3.0,253.0,2640.602
2640612.0,224.0,33.0,4.0,248.0,2640.612
2640622.0,216.0,32.0,4.0,242.0,2640.622
2640632.0,220.0,33.0,3.0,247.0,2640.632
2640642.0,223.0,32.0,4.0,250.0,2640.642
2640652.0,225.0,32.0,3.0,252.0,2640.652
2640662.0,225.0,33.0,5.0,248.0,2640.662
2640672.0,216.0,32.0,4.0,241.0,2640.672
2640683.0,221.0,33.0,4.0,247.0,2640.683
2640693.0,227.0,34.0,3.0,253.0,2640.693
2640703.0,224.0,32.0,4.0,248.0,2640.703
2640713.0,225.0,33.0,3.0,247.0,2640.713
2640723.0,220.0,32.0,4.0,243.0,2640.723
2640733.0,224.0,32.0,3.0,249.0,2640.733
2640743.0,229.0,33.0,3.0,253.0,2640.743
2640753.0,223.0,33.0,4.0,249.0,2640.753
2640763.0,223.0,33.0,4.0,246.0,2640.763
2640773.0,217.0,33.0,3.0,241.0,2640.773
2640783.0,222.0,33.0,3.0,249.0,2640.783
2640793.0,230.0,33.0,4.0,251.0,2640.793
2640803.0,222.0,32.0,3.0,246.0,2640.803
2640813.0,226.0,33.0,4.0,247.0,2640.813
2640823.0,216.0,33.0,3.0,240.0,2640.823
2640833.0,223.0,32.0,3.0,250.0,2640.833
2640843.0,227.0,33.0,4.0,253.0,2640.843
2640854.0,218.0,32.0,5.0,246.0,2640.854
2640864.0,220.0,32.0,4.0,246.0,2640.864
2640874.0,216.0,33.0,4.0,246.0,2640.874
2640884.0,223.0,33.0,3.0,253.0,2640.884
2640894.0,225.0,33.0,4.0,249.0,2640.894
2640904.0,219.0,33.0,3.0,247.0,2640.904
2640914.0,221.0,33.0,4.0,246.0,2640.914
2640924.0,219.0,33.0,4.0,247.0,2640.924
2640934.0,225.0,32.0,4.0,253.0,2640.934
2640944.0,227.0,33.0,4.0,253.0,2640.944
2640954.0,222.0,33.0,3.0,246.0,2640.954
2640964.0,224.0,33.0,3.0,246.0,2640.964
2640974.0,224.0,33.0,4.0,248.0,2640.974
2640984.0,226.0,32.0,4.0,252.0,2640.984
2640994.0,229.0,33.0,4.0,252.0,2640.994
2641004.0,220.0,32.0,4.0,245.0,2641.004
2641014.0,223.0,34.0,3.0,245.0,2641.014
2641024.0,218.0,32.0,4.0,243.0,2641.024
2641034.0,226.0,32.0,4.0,251.0,2641.034
2641044.0,230.0,34.0,5.0,250.0,2641.044
2641054.0,220.0,32.0,3.0,243.0,2641.054
2641064.0,219.0,33.0,4.0,244.0,2641.064
2641074.0,215.0,33.0,4.0,244.0,2641.074
2641084.0,223.0,33.0,3.0,251.0,2641.084
2641094.0,225.0,33.0,4.0,249.0,2641.094
2641104.0,217.0,33.0,4.0,243.0,2641.104
2641114.0,221.0,32.0,4.0,246.0,2641.114
2641124.0,218.0,32.0,4.0,245.0,2641.124
2641134.0,224.0,33.0,4.0,252.0,2641.134
2641144.0,226.0,33.0,3.0,249.0,2641.144
2641154.0,220.0,32.0,4.0,245.0,2641.154
2641164.0,221.0,33.0,4.0,245.0,2641.164
2641174.0,220.0,33.0,5.0,245.0,2641.174
2641184.0,228.0,32.0,4.0,252.0,2641.184
2641195.0,230.0,33.0,4.0,249.0,2641.195
2641205.0,220.0,34.0,3.0,243.0,2641.205
2641215.0,223.0,33.0,4.0,245.0,2641.215
2641225.0,228.0,33.0,4.0,250.0,2641.225
2641235.0,227.0,32.0,5.0,249.0,2641.235
2641245.0,228.0,33.0,4.0,247.0,2641.245
2641255.0,219.0,33.0,4.0,240.0,2641.255
2641265.0,222.0,33.0,3.0,245.0,2641.265
2641275.0,227.0,33.0,3.0,250.0,2641.275
2641285.0,226.0,32.0,4.0,249.0,2641.285
2641295.0,226.0,33.0,4.0,245.0,2641.295
2641305.0,218.0,32.0,4.0,239.0,2641.305
2641315.0,220.0,32.0,4.0,245.0,2641.315
2641325.0,224.0,32.0,4.0,248.0,2641.325
2641335.0,225.0,33.0,3.0,250.0,2641.335
2641345.0,229.0,32.0,4.0,247.0,2641.345
2641355.0,219.0,32.0,4.0,240.0,2641.355
2641366.0,225.0,32.0,4.0,246.0,2641.366
2641376.0,229.0,33.0,2.0,252.0,2641.376
2641386.0,224.0,32.0,3.0,247.0,2641.386
2641396.0,224.0,33.0,3.0,247.0,2641.396
2641406.0,217.0,32.0,4.0,241.0,2641.406
2641416.0,223.0,33.0,3.0,247.0,2641.416
2641426.0,228.0,32.0,5.0,252.0,2641.426
2641436.0,223.0,31.0,4.0,247.0,2641.436
2641446.0,222.0,33.0,4.0,246.0,2641.446
2641456.0,216.0,31.0,4.0,240.0,2641.456
2641466.0,221.0,33.0,3.0,249.0,2641.466
2641476.0,226.0,32.0,4.0,253.0,2641.476
2641486.0,220.0,32.0,4.0,246.0,2641.486
2641496.0,223.0,32.0,3.0,247.0,2641.496
2641506.0,214.0,32.0,4.0,239.0,2641.506
2641516.0,222.0,32.0,4.0,248.0,2641.516
2641526.0,228.0,33.0,3.0,251.0,2641.526
2641536.0,224.0,32.0,4.0,247.0,2641.536
2641546.0,223.0,33.0,3.0,246.0,2641.546
2641556.0,216.0,32.0,4.0,238.0,2641.556
2641566.0,223.0,32.0,4.0,248.0,2641.566
2641576.0,227.0,32.0,3.0,249.0,2641.576
2641586.0,224.0,31.0,4.0,247.0,2641.586
2641596.0,226.0,32.0,4.0,244.0,2641.596
2641606.0,217.0,32.0,3.0,239.0,2641.606
2641616.0,225.0,32.0,4.0,248.0,2641.616
2641626.0,229.0,32.0,3.0,251.0,2641.626
2641636.0,225.0,32.0,5.0,246.0,2641.636
2641646.0,225.0,32.0,4.0,245.0,2641.646
2641656.0,218.0,33.0,3.0,241.0,2641.656
2641666.0,223.0,32.0,4.0,246.0,2641.666
2641676.0,228.0,33.0,4.0,252.0,2641.676
2641686.0,220.0,32.0,4.0,246.0,2641.686
2641696.0,220.0,33.0,4.0,245.0,2641.696
2641707.0,215.0,32.0,4.0,240.0,2641.707
2641717.0,224.0,33.0,3.0,250.0,2641.717
2641727.0,227.0,32.0,4.0,250.0,2641.727
2641737.0,218.0,32.0,4.0,242.0,2641.737
2641747.0,221.0,33.0,5.0,243.0,2641.747
2641757.0,217.0,32.0,3.0,242.0,2641.757
2641767.0,224.0,33.0,4.0,249.0,2641.767
2641777.0,227.0,33.0,4.0,249.0,2641.777
2641787.0,217.0,33.0,3.0,240.0,2641.787
2641797.0,221.0,33.0,4.0,244.0,2641.797
2641807.0,217.0,32.0,4.0,242.0,2641.807
2641817.0,226.0,31.0,5.0,248.0,2641.817
2641827.0,226.0,33.0,4.0,247.0,2641.827
2641837.0,220.0,33.0,4.0,242.0,2641.837
2641847.0,221.0,34.0,3.0,244.0,2641.847
2641857.0,219.0,32.0,4.0,243.0,2641.857
2641867.0,225.0,32.0,4.0,248.0,2641.867
2641878.0,225.0,33.0,5.0,247.0,2641.878
2641888.0,214.0,32.0,4.0,238.0,2641.888
2641898.0,218.0,32.0,4.0,241.0,2641.898
2641908.0,223.0,33.0,4.0,248.0,2641.908
2641918.0,222.0,33.0,4.0,245.0,2641.918
2641928.0,224.0,33.0,3.0,247.0,2641.928
2641938.0,216.0,32.0,4.0,237.0,2641.938
2641948.0,221.0,31.0,4.0,241.0,2641.948
2641958.0,226.0,32.0,4.0,248.0,2641.958
2641968.0,226.0,32.0,4.0,247.0,2641.968
2641978.0,228.0,32.0,3.0,246.0,2641.978
2641988.0,219.0,32.0,4.0,236.0,2641.988
2641998.0,221.0,33.0,4.0,242.0,2641.998
2642008.0,224.0,32.0,4.0,245.0,2642.008
2642018.0,226.0,32.0,4.0,247.0,2642.018
2642028.0,226.0,32.0,4.0,244.0,2642.028
2642038.0,218.0,33.0,3.0,237.0,2642.038
2642048.0,222.0,32.0,4.0,241.0,2642.048
2642058.0,225.0,32.0,4.0,246.0,2642.058
2642068.0,225.0,32.0,5.0,246.0,2642.068
2642078.0,224.0,32.0,4.0,245.0,2642.078
2642088.0,215.0,32.0,3.0,236.0,2642.088
2642098.0,221.0,32.0,4.0,241.0,2642.098
2642108.0,224.0,32.0,4.0,247.0,2642.108
2642118.0,225.0,32.0,4.0,246.0,2642.118
2642128.0,224.0,32.0,4.0,245.0,2642.128
2642138.0,218.0,32.0,4.0,238.0,2642.138
2642148.0,220.0,33.0,2.0,242.0,2642.148
2642158.0,225.0,33.0,4.0,248.0,2642.158
2642168.0,219.0,33.0,3.0,246.0,2642.168
2642178.0,222.0,33.0,3.0,245.0,2642.178
2642188.0,214.0,32.0,4.0,238.0,2642.188
2642198.0,218.0,33.0,5.0,242.0,2642.198
2642208.0,224.0,33.0,2.0,249.0,2642.208
2642219.0,223.0,33.0,4.0,245.0,2642.219
2642229.0,222.0,34.0,3.0,245.0,2642.229
2642239.0,215.0,33.0,3.0,236.0,2642.239
2642249.0,225.0,33.0,3.0,247.0,2642.249
2642259.0,233.0,33.0,5.0,249.0,2642.259
2642269.0,228.0,33.0,3.0,245.0,2642.269
2642279.0,226.0,34.0,3.0,244.0,2642.279
2642289.0,218.0,33.0,4.0,237.0,2642.289
2642299.0,227.0,33.0,3.0,246.0,2642.299
2642309.0,229.0,33.0,4.0,248.0,2642.309
2642319.0,225.0,34.0,3.0,243.0,2642.319
2642329.0,226.0,34.0,5.0,242.0,2642.329
2642339.0,218.0,34.0,4.0,236.0,2642.339
2642349.0,225.0,34.0,4.0,243.0,2642.349
2642359.0,229.0,35.0,3.0,249.0,2642.359
2642369.0,224.0,34.0,3.0,243.0,2642.369
2642379.0,224.0,34.0,3.0,243.0,2642.379
2642390.0,219.0,34.0,4.0,239.0,2642.39
2642400.0,226.0,34.0,2.0,247.0,2642.4
2642410.0,229.0,33.0,4.0,248.0,2642.41
2642420.0,221.0,34.0,3.0,240.0,2642.42
