time (ms),signal 0,signal 1,signal 2,signal 3,time (sec)
2791957.0,205.0,32.0,4.0,234.0,2791.957
2791967.0,214.0,31.0,4.0,247.0,2791.967
2791977.0,216.0,32.0,3.0,246.0,2791.977
2791987.0,212.0,32.0,4.0,241.0,2791.987
2791997.0,212.0,32.0,3.0,241.0,2791.997
2792007.0,207.0,32.0,3.0,236.0,2792.007
2792017.0,214.0,33.0,4.0,245.0,2792.017
2792027.0,217.0,32.0,3.0,246.0,2792.027
2792037.0,212.0,33.0,3.0,240.0,2792.037
2792047.0,213.0,33.0,4.0,239.0,2792.047
2792057.0,209.0,34.0,3.0,239.0,2792.057
2792067.0,213.0,32.0,4.0,243.0,2792.067
2792077.0,218.0,33.0,3.0,247.0,2792.077
2792087.0,212.0,33.0,4.0,241.0,2792.087
2792097.0,213.0,33.0,4.0,241.0,2792.097
2792107.0,207.0,32.0,5.0,234.0,2792.107
2792117.0,214.0,33.0,3.0,245.0,2792.117
2792127.0,220.0,34.0,3.0,246.0,2792.127
2792137.0,212.0,32.0,4.0,239.0,2792.137
2792147.0,215.0,33.0,4.0,240.0,2792.147
2792157.0,208.0,32.0,4.0,234.0,2792.157
2792167.0,215.0,33.0,3.0,245.0,2792.167
2792177.0,220.0,33.0,3.0,247.0,2792.177
2792187.0,211.0,33.0,3.0,241.0,2792.187
2792197.0,215.0,33.0,4.0,242.0,2792.197
2792207.0,208.0,33.0,3.0,237.0,2792.207
2792217.0,218.0,33.0,5.0,248.0,2792.217
2792227.0,221.0,34.0,3.0,249.0,2792.227
2792237.0,216.0,33.0,4.0,244.0,2792.237
2792247.0,217.0,33.0,3.0,245.0,2792.247
2792257.0,210.0,34.0,3.0,241.0,2792.257
2792267.0,219.0,32.0,4.0,251.0,2792.267
2792278.0,222.0,34.0,4.0,251.0,2792.278
2792288.0,215.0,33.0,4.0,243.0,2792.288
2792298.0,217.0,33.0,4.0,245.0,2792.298
2792308.0,218.0,33.0,4.0,249.0,2792.308
2792318.0,219.0,33.0,3.0,250.0,2792.318
2792328.0,223.0,33.0,4.0,251.0,2792.328
2792338.0,213.0,32.0,4.0,243.0,2792.338
2792348.0,217.0,33.0,4.0,247.0,2792.348
2792358.0,219.0,33.0,3.0,252.0,2792.358
2792368.0,221.0,33.0,5.0,251.0,2792.368
2792378.0,222.0,34.0,3.0,252.0,2792.378
2792388.0,214.0,32.0,4.0,242.0,2792.388
2792398.0,216.0,34.0,3.0,246.0,2792.398
2792408.0,215.0,33.0,3.0,246.0,2792.408
2792418.0,222.0,33.0,3.0,253.0,2792.418
2792428.0,223.0,34.0,3.0,251.0,2792.428
2792438.0,215.0,33.0,3.0,243.0,2792.438
2792448.0,218.0,33.0,4.0,246.0,2792.448
2792458.0,217.0,32.0,3.0,247.0,2792.458
2792468.0,221.0,33.0,4.0,252.0,2792.468
2792478.0,223.0,33.0,4.0,249.0,2792.478
2792488.0,214.0,33.0,3.0,240.0,2792.488
2792498.0,219.0,34.0,4.0,246.0,2792.498
2792508.0,219.0,34.0,3.0,249.0,2792.508
2792518.0,222.0,33.0,4.0,251.0,2792.518
2792528.0,221.0,33.0,4.0,249.0,2792.528
2792538.0,215.0,32.0,4.0,244.0,2792.538
2792548.0,217.0,34.0,3.0,247.0,2792.548
2792558.0,219.0,33.0,3.0,250.0,2792.558
2792568.0,222.0,34.0,4.0,253.0,2792.568
2792578.0,225.0,34.0,3.0,253.0,2792.578
2792588.0,216.0,32.0,4.0,245.0,2792.588
2792598.0,219.0,33.0,4.0,248.0,2792.598
2792608.0,221.0,33.0,4.0,251.0,2792.608
2792619.0,222.0,33.0,4.0,251.0,2792.619
2792629.0,223.0,33.0,4.0,250.0,2792.629
2792639.0,213.0,33.0,3.0,240.0,2792.639
2792649.0,219.0,33.0,3.0,247.0,2792.649
2792659.0,225.0,33.0,4.0,253.0,2792.659
2792669.0,222.0,32.0,4.0,250.0,2792.669
2792679.0,222.0,32.0,4.0,249.0,2792.679
2792689.0,213.0,32.0,4.0,241.0,2792.689
2792699.0,219.0,33.0,3.0,251.0,2792.699
2792709.0,222.0,33.0,4.0,253.0,2792.709
2792719.0,221.0,32.0,3.0,252.0,2792.719
2792729.0,223.0,32.0,5.0,251.0,2792.729
2792739.0,213.0,32.0,3.0,241.0,2792.739
2792749.0,218.0,32.0,4.0,247.0,2792.749
2792759.0,223.0,33.0,3.0,255.0,2792.759
2792769.0,219.0,33.0,3.0,252.0,2792.769
2792779.0,221.0,32.0,3.0,250.0,2792.779
2792790.0,212.0,33.0,4.0,243.0,2792.79
2792800.0,221.0,31.0,4.0,253.0,2792.8
2792810.0,225.0,32.0,4.0,255.0,2792.81
2792820.0,218.0,32.0,4.0,248.0,2792.82
2792830.0,217.0,33.0,3.0,248.0,2792.83
2792840.0,209.0,32.0,3.0,241.0,2792.84
2792850.0,219.0,32.0,3.0,252.0,2792.85
2792860.0,224.0,32.0,4.0,253.0,2792.86
2792870.0,215.0,32.0,3.0,246.0,2792.87
2792880.0,220.0,32.0,5.0,249.0,2792.88
2792890.0,212.0,32.0,3.0,244.0,2792.89
2792900.0,220.0,32.0,3.0,253.0,2792.9
2792910.0,224.0,32.0,4.0,254.0,2792.91
2792920.0,218.0,32.0,4.0,249.0,2792.92
2792930.0,220.0,31.0,4.0,251.0,2792.93
2792940.0,213.0,32.0,3.0,245.0,2792.94
2792950.0,219.0,32.0,4.0,253.0,2792.95
2792960.0,222.0,32.0,3.0,254.0,2792.96
2792970.0,217.0,32.0,3.0,246.0,2792.97
2792980.0,219.0,32.0,3.0,247.0,2792.98
2792990.0,214.0,31.0,4.0,243.0,2792.99
2793000.0,220.0,32.0,3.0,255.0,2793.0
2793010.0,224.0,32.0,5.0,257.0,2793.01
2793020.0,217.0,33.0,3.0,252.0,2793.02
2793030.0,218.0,32.0,3.0,252.0,2793.03
2793040.0,214.0,32.0,4.0,253.0,2793.04
2793050.0,220.0,32.0,4.0,258.0,2793.05
2793060.0,226.0,32.0,4.0,258.0,2793.06
2793070.0,218.0,31.0,3.0,249.0,2793.07
2793080.0,219.0,33.0,3.0,251.0,2793.08
2793090.0,212.0,32.0,3.0,242.0,2793.09
2793100.0,222.0,31.0,3.0,252.0,2793.1
2793110.0,225.0,32.0,4.0,253.0,2793.11
2793120.0,218.0,31.0,4.0,243.0,2793.12
2793131.0,218.0,31.0,4.0,245.0,2793.131
2793141.0,217.0,31.0,4.0,248.0,2793.141
2793151.0,222.0,33.0,3.0,252.0,2793.151
2793161.0,223.0,30.0,4.0,249.0,2793.161
2793171.0,216.0,31.0,4.0,242.0,2793.171
2793181.0,223.0,30.0,4.0,248.0,2793.181
2793191.0,222.0,31.0,4.0,251.0,2793.191
2793201.0,226.0,31.0,4.0,254.0,2793.201
2793211.0,225.0,32.0,3.0,253.0,2793.211
2793221.0,220.0,31.0,3.0,248.0,2793.221
2793231.0,221.0,31.0,3.0,248.0,2793.231
2793241.0,223.0,31.0,3.0,250.0,2793.241
2793251.0,228.0,31.0,4.0,252.0,2793.251
2793261.0,227.0,32.0,4.0,255.0,2793.261
2793271.0,221.0,30.0,4.0,246.0,2793.271
2793281.0,222.0,32.0,3.0,248.0,2793.281
2793291.0,223.0,30.0,3.0,250.0,2793.291
2793302.0,225.0,31.0,4.0,253.0,2793.302
2793312.0,225.0,31.0,4.0,249.0,2793.312
2793322.0,217.0,31.0,3.0,243.0,2793.322
2793332.0,223.0,31.0,4.0,252.0,2793.332
2793342.0,227.0,33.0,3.0,257.0,2793.342
2793352.0,227.0,31.0,3.0,253.0,2793.352
2793362.0,224.0,32.0,3.0,251.0,2793.362
2793372.0,217.0,31.0,5.0,241.0,2793.372
2793382.0,223.0,31.0,4.0,249.0,2793.382
2793392.0,225.0,31.0,5.0,250.0,2793.392
2793402.0,226.0,32.0,3.0,252.0,2793.402
2793412.0,228.0,31.0,3.0,253.0,2793.412
2793422.0,220.0,32.0,4.0,242.0,2793.422
2793432.0,223.0,32.0,3.0,247.0,2793.432
2793442.0,227.0,31.0,4.0,253.0,2793.442
2793452.0,226.0,32.0,3.0,251.0,2793.452
2793462.0,224.0,32.0,4.0,250.0,2793.462
2793472.0,217.0,31.0,3.0,243.0,2793.472
2793482.0,221.0,32.0,3.0,244.0,2793.482
2793492.0,224.0,32.0,3.0,250.0,2793.492
2793502.0,223.0,31.0,4.0,246.0,2793.502
2793512.0,220.0,32.0,2.0,245.0,2793.512
2793522.0,217.0,32.0,4.0,239.0,2793.522
2793532.0,218.0,32.0,3.0,245.0,2793.532
2793542.0,225.0,32.0,3.0,260.0,2793.542
2793552.0,222.0,31.0,4.0,253.0,2793.552
2793562.0,223.0,32.0,4.0,255.0,2793.562
2793572.0,215.0,31.0,4.0,246.0,2793.572
2793582.0,220.0,32.0,3.0,256.0,2793.582
2793592.0,227.0,33.0,4.0,262.0,2793.592
2793602.0,226.0,32.0,3.0,260.0,2793.602
2793612.0,226.0,32.0,4.0,253.0,2793.612
2793622.0,217.0,32.0,4.0,240.0,2793.622
2793632.0,223.0,31.0,4.0,249.0,2793.632
2793643.0,229.0,32.0,4.0,254.0,2793.643
2793653.0,225.0,32.0,3.0,249.0,2793.653
2793663.0,225.0,33.0,3.0,251.0,2793.663
2793673.0,219.0,32.0,3.0,246.0,2793.673
2793683.0,228.0,32.0,3.0,256.0,2793.683
2793693.0,231.0,32.0,4.0,260.0,2793.693
2793703.0,226.0,31.0,2.0,254.0,2793.703
2793713.0,226.0,33.0,3.0,254.0,2793.713
2793723.0,221.0,32.0,4.0,250.0,2793.723
2793733.0,224.0,32.0,3.0,251.0,2793.733
2793743.0,229.0,32.0,3.0,254.0,2793.743
2793753.0,224.0,33.0,4.0,246.0,2793.753
2793763.0,224.0,32.0,4.0,246.0,2793.763
2793773.0,216.0,32.0,4.0,240.0,2793.773
2793783.0,224.0,32.0,3.0,251.0,2793.783
2793793.0,227.0,33.0,3.0,253.0,2793.793
2793803.0,221.0,32.0,4.0,243.0,2793.803
2793814.0,218.0,33.0,3.0,245.0,2793.814
2793824.0,219.0,33.0,3.0,245.0,2793.824
2793834.0,224.0,33.0,2.0,253.0,2793.834
2793844.0,225.0,32.0,4.0,251.0,2793.844
2793854.0,216.0,33.0,3.0,246.0,2793.854
2793864.0,221.0,33.0,4.0,249.0,2793.864
2793874.0,220.0,32.0,4.0,249.0,2793.874
2793884.0,226.0,32.0,5.0,253.0,2793.884
2793894.0,226.0,33.0,4.0,250.0,2793.894
2793904.0,219.0,33.0,4.0,242.0,2793.904
2793914.0,220.0,33.0,4.0,242.0,2793.914
2793924.0,220.0,32.0,3.0,244.0,2793.924
2793934.0,224.0,32.0,4.0,248.0,2793.934
2793944.0,226.0,33.0,3.0,250.0,2793.944
2793954.0,218.0,33.0,4.0,240.0,2793.954
2793964.0,221.0,33.0,3.0,244.0,2793.964
2793974.0,221.0,32.0,4.0,245.0,2793.974
2793984.0,224.0,33.0,2.0,249.0,2793.984
2793994.0,227.0,32.0,4.0,250.0,2793.994
2794004.0,218.0,32.0,3.0,241.0,2794.004
2794014.0,220.0,33.0,5.0,243.0,2794.014
2794024.0,222.0,33.0,4.0,248.0,2794.024
2794034.0,225.0,33.0,5.0,250.0,2794.034
2794044.0,226.0,33.0,4.0,250.0,2794.044
2794054.0,218.0,32.0,3.0,242.0,2794.054
2794064.0,219.0,32.0,4.0,241.0,2794.064
2794074.0,216.0,33.0,4.0,240.0,2794.074
2794084.0,223.0,31.0,4.0,247.0,2794.084
2794094.0,222.0,33.0,3.0,247.0,2794.094
2794104.0,213.0,32.0,4.0,239.0,2794.104
2794114.0,218.0,33.0,2.0,246.0,2794.114
2794124.0,218.0,32.0,3.0,246.0,2794.124
2794134.0,222.0,33.0,3.0,252.0,2794.134
2794144.0,224.0,33.0,5.0,249.0,2794.144
2794155.0,214.0,32.0,3.0,242.0,2794.155
2794165.0,217.0,32.0,4.0,245.0,2794.165
2794175.0,222.0,33.0,3.0,257.0,2794.175
2794185.0,220.0,32.0,3.0,252.0,2794.185
2794195.0,221.0,32.0,3.0,252.0,2794.195
2794205.0,213.0,32.0,3.0,246.0,2794.205
2794215.0,218.0,33.0,3.0,250.0,2794.215
2794225.0,224.0,32.0,3.0,256.0,2794.225
2794235.0,220.0,32.0,3.0,252.0,2794.235
2794245.0,223.0,33.0,3.0,252.0,2794.245
2794255.0,214.0,32.0,4.0,243.0,2794.255
2794265.0,218.0,33.0,3.0,250.0,2794.265
2794275.0,226.0,32.0,4.0,255.0,2794.275
2794285.0,221.0,32.0,4.0,250.0,2794.285
2794295.0,224.0,33.0,3.0,247.0,2794.295
2794305.0,213.0,33.0,3.0,241.0,2794.305
2794315.0,220.0,32.0,4.0,249.0,2794.315
2794326.0,226.0,33.0,3.0,253.0,2794.326
2794336.0,221.0,32.0,5.0,249.0,2794.336
2794346.0,222.0,33.0,2.0,250.0,2794.346
2794356.0,215.0,32.0,4.0,244.0,2794.356
2794366.0,222.0,33.0,3.0,254.0,2794.366
2794376.0,226.0,33.0,3.0,253.0,2794.376
2794386.0,219.0,32.0,4.0,247.0,2794.386
2794396.0,221.0,33.0,4.0,248.0,2794.396
2794406.0,216.0,31.0,3.0,245.0,2794.406
2794416.0,220.0,32.0,4.0,251.0,2794.416
2794426.0,227.0,32.0,4.0,256.0,2794.426
2794436.0,219.0,32.0,3.0,249.0,2794.436
2794446.0,221.0,32.0,3.0,250.0,2794.446
2794456.0,214.0,33.0,3.0,243.0,2794.456
2794466.0,222.0,32.0,4.0,252.0,2794.466
2794476.0,227.0,33.0,4.0,256.0,2794.476
2794486.0,219.0,32.0,3.0,250.0,2794.486
2794496.0,222.0,33.0,2.0,251.0,2794.496
2794506.0,213.0,32.0,3.0,244.0,2794.506
2794516.0,221.0,32.0,4.0,255.0,2794.516
2794526.0,225.0,32.0,5.0,255.0,2794.526
2794536.0,217.0,32.0,3.0,249.0,2794.536
2794546.0,221.0,33.0,4.0,251.0,2794.546
2794556.0,214.0,32.0,4.0,245.0,2794.556
2794566.0,223.0,33.0,3.0,257.0,2794.566
2794576.0,226.0,32.0,3.0,257.0,2794.576
2794586.0,221.0,32.0,3.0,254.0,2794.586
2794596.0,223.0,32.0,4.0,252.0,2794.596
2794606.0,214.0,33.0,3.0,248.0,2794.606
2794616.0,223.0,32.0,4.0,257.0,2794.616
2794626.0,226.0,33.0,2.0,258.0,2794.626
2794636.0,220.0,32.0,4.0,251.0,2794.636
2794646.0,221.0,33.0,3.0,251.0,2794.646
2794656.0,217.0,33.0,4.0,248.0,2794.656
2794667.0,224.0,33.0,2.0,257.0,2794.667
2794677.0,227.0,33.0,4.0,256.0,2794.677
2794687.0,219.0,33.0,3.0,250.0,2794.687
2794697.0,221.0,33.0,3.0,252.0,2794.697
2794707.0,224.0,32.0,4.0,255.0,2794.707
2794717.0,227.0,32.0,3.0,258.0,2794.717
2794727.0,231.0,33.0,4.0,257.0,2794.727
2794737.0,221.0,32.0,3.0,248.0,2794.737
2794747.0,223.0,33.0,4.0,251.0,2794.747
2794757.0,222.0,34.0,3.0,252.0,2794.757
2794767.0,228.0,32.0,3.0,258.0,2794.767
2794777.0,228.0,34.0,3.0,256.0,2794.777
2794787.0,220.0,32.0,4.0,248.0,2794.787
2794797.0,222.0,33.0,4.0,251.0,2794.797
2794807.0,221.0,33.0,4.0,252.0,2794.807
2794817.0,227.0,33.0,3.0,258.0,2794.817
2794827.0,227.0,33.0,3.0,254.0,2794.827
2794838.0,218.0,33.0,3.0,247.0,2794.838
2794848.0,222.0,33.0,4.0,251.0,2794.848
2794858.0,225.0,33.0,4.0,257.0,2794.858
2794868.0,223.0,33.0,4.0,254.0,2794.868
2794878.0,223.0,33.0,3.0,253.0,2794.878
2794888.0,216.0,33.0,3.0,246.0,2794.888
2794898.0,220.0,32.0,4.0,250.0,2794.898
2794908.0,225.0,34.0,4.0,257.0,2794.908
2794918.0,223.0,33.0,4.0,254.0,2794.918
2794928.0,223.0,33.0,3.0,253.0,2794.928
2794938.0,214.0,33.0,4.0,245.0,2794.938
2794948.0,219.0,33.0,3.0,252.0,2794.948
2794958.0,226.0,32.0,4.0,257.0,2794.958
2794968.0,224.0,33.0,4.0,256.0,2794.968
2794978.0,224.0,33.0,4.0,253.0,2794.978
2794988.0,214.0,32.0,4.0,245.0,2794.988
2794998.0,219.0,33.0,4.0,252.0,2794.998
2795008.0,222.0,33.0,4.0,255.0,2795.008
2795018.0,222.0,32.0,3.0,255.0,2795.018
2795028.0,221.0,32.0,3.0,252.0,2795.028
2795038.0,214.0,32.0,4.0,244.0,2795.038
2795048.0,221.0,31.0,4.0,254.0,2795.048
2795058.0,224.0,33.0,4.0,257.0,2795.058
2795068.0,223.0,32.0,4.0,256.0,2795.068
2795078.0,222.0,33.0,3.0,254.0,2795.078
2795088.0,214.0,32.0,3.0,245.0,2795.088
2795098.0,218.0,33.0,3.0,251.0,2795.098
2795108.0,224.0,31.0,4.0,256.0,2795.108
2795118.0,224.0,31.0,4.0,254.0,2795.118
2795128.0,225.0,32.0,4.0,252.0,2795.128
2795138.0,218.0,32.0,3.0,246.0,2795.138
2795148.0,221.0,32.0,3.0,251.0,2795.148
2795158.0,228.0,32.0,3.0,257.0,2795.158
2795168.0,224.0,32.0,4.0,254.0,2795.168
2795179.0,223.0,31.0,3.0,252.0,2795.179
2795189.0,214.0,32.0,3.0,243.0,2795.189
2795199.0,223.0,32.0,3.0,256.0,2795.199
2795209.0,226.0,33.0,3.0,257.0,2795.209
2795219.0,220.0,31.0,3.0,250.0,2795.219
2795229.0,222.0,32.0,4.0,252.0,2795.229
2795239.0,216.0,31.0,3.0,247.0,2795.239
2795249.0,223.0,31.0,4.0,256.0,2795.249
2795259.0,227.0,32.0,3.0,257.0,2795.259
2795269.0,222.0,32.0,3.0,254.0,2795.269
2795279.0,222.0,32.0,4.0,252.0,2795.279
2795289.0,216.0,31.0,4.0,246.0,2795.289
2795299.0,224.0,31.0,5.0,255.0,2795.299
2795309.0,226.0,31.0,4.0,255.0,2795.309
2795319.0,220.0,32.0,3.0,249.0,2795.319
2795329.0,222.0,32.0,3.0,252.0,2795.329
2795339.0,216.0,32.0,3.0,246.0,2795.339
2795350.0,224.0,32.0,4.0,255.0,2795.35
2795360.0,227.0,32.0,4.0,255.0,2795.36
2795370.0,218.0,31.0,4.0,246.0,2795.37
2795380.0,220.0,32.0,3.0,249.0,2795.38
2795390.0,222.0,32.0,4.0,254.0,2795.39
2795400.0,225.0,32.0,3.0,256.0,2795.4
2795410.0,226.0,32.0,3.0,254.0,2795.41
2795420.0,217.0,32.0,3.0,248.0,2795.42
2795430.0,220.0,31.0,4.0,250.0,2795.43
2795440.0,218.0,32.0,4.0,250.0,2795.44
2795450.0,224.0,32.0,3.0,256.0,2795.45
2795460.0,226.0,32.0,4.0,254.0,2795.46
2795470.0,218.0,30.0,4.0,246.0,2795.47
2795480.0,223.0,32.0,3.0,252.0,2795.48
2795490.0,222.0,32.0,4.0,251.0,2795.49
2795500.0,226.0,31.0,3.0,257.0,2795.5
2795510.0,227.0,32.0,4.0,254.0,2795.51
2795520.0,221.0,31.0,4.0,251.0,2795.52
2795530.0,221.0,32.0,3.0,253.0,2795.53
2795540.0,220.0,32.0,3.0,254.0,2795.54
2795550.0,223.0,32.0,3.0,258.0,2795.55
2795560.0,225.0,33.0,4.0,254.0,2795.56
2795570.0,217.0,32.0,3.0,250.0,2795.57
2795580.0,220.0,32.0,4.0,251.0,2795.58
2795590.0,221.0,33.0,3.0,254.0,2795.59
2795600.0,223.0,32.0,3.0,257.0,2795.6
2795610.0,225.0,33.0,4.0,257.0,2795.61
2795620.0,218.0,32.0,3.0,247.0,2795.62
2795630.0,220.0,32.0,4.0,250.0,2795.63
2795640.0,222.0,33.0,3.0,252.0,2795.64
2795650.0,224.0,33.0,3.0,255.0,2795.65
2795660.0,226.0,33.0,3.0,254.0,2795.66
2795670.0,217.0,32.0,4.0,246.0,2795.67
2795680.0,220.0,33.0,4.0,249.0,2795.68
2795691.0,223.0,33.0,4.0,255.0,2795.691
2795701.0,222.0,33.0,3.0,254.0,2795.701
2795711.0,223.0,33.0,3.0,253.0,2795.711
2795721.0,215.0,33.0,3.0,243.0,2795.721
2795731.0,220.0,32.0,3.0,251.0,2795.731
2795741.0,223.0,33.0,3.0,254.0,2795.741
2795751.0,223.0,33.0,4.0,254.0,2795.751
2795761.0,223.0,33.0,2.0,251.0,2795.761
2795771.0,213.0,33.0,3.0,242.0,2795.771
2795781.0,219.0,33.0,3.0,249.0,2795.781
2795791.0,223.0,32.0,4.0,256.0,2795.791
2795801.0,222.0,33.0,3.0,253.0,2795.801
2795811.0,224.0,33.0,5.0,251.0,2795.811
2795821.0,214.0,33.0,3.0,245.0,2795.821
2795831.0,219.0,33.0,3.0,249.0,2795.831
2795841.0,226.0,33.0,4.0,257.0,2795.841
2795851.0,222.0,33.0,3.0,252.0,2795.851
2795862.0,223.0,32.0,4.0,251.0,2795.862
2795872.0,214.0,33.0,4.0,242.0,2795.872
2795882.0,222.0,33.0,4.0,252.0,2795.882
2795892.0,226.0,33.0,4.0,255.0,2795.892
2795902.0,218.0,32.0,4.0,251.0,2795.902
2795912.0,222.0,34.0,3.0,256.0,2795.912
2795922.0,214.0,32.0,3.0,246.0,2795.922
2795932.0,220.0,33.0,3.0,256.0,2795.932
2795942.0,227.0,33.0,4.0,257.0,2795.942
2795952.0,219.0,32.0,4.0,251.0,2795.952
2795962.0,220.0,33.0,4.0,251.0,2795.962
2795972.0,212.0,32.0,4.0,244.0,2795.972
2795982.0,220.0,32.0,3.0,254.0,2795.982
2795992.0,224.0,33.0,3.0,256.0,2795.992
2796002.0,219.0,32.0,4.0,249.0,2796.002
2796012.0,221.0,33.0,3.0,249.0,2796.012
2796022.0,214.0,33.0,4.0,244.0,2796.022
2796032.0,220.0,33.0,4.0,251.0,2796.032
2796042.0,226.0,33.0,3.0,255.0,2796.042
2796052.0,219.0,32.0,4.0,247.0,2796.052
2796062.0,220.0,32.0,3.0,248.0,2796.062
2796072.0,216.0,32.0,4.0,245.0,2796.072
2796082.0,220.0,32.0,4.0,251.0,2796.082
2796092.0,226.0,33.0,3.0,255.0,2796.092
2796102.0,219.0,33.0,3.0,248.0,2796.102
2796112.0,221.0,32.0,3.0,248.0,2796.112
2796122.0,213.0,33.0,3.0,243.0,2796.122
2796132.0,222.0,33.0,3.0,252.0,2796.132
2796142.0,227.0,33.0,4.0,255.0,2796.142
2796152.0,218.0,32.0,4.0,246.0,2796.152
2796162.0,222.0,33.0,3.0,250.0,2796.162
2796172.0,213.0,33.0,3.0,241.0,2796.172
2796182.0,222.0,32.0,4.0,251.0,2796.182
2796192.0,225.0,33.0,4.0,254.0,2796.192
2796203.0,218.0,31.0,4.0,244.0,2796.203
2796213.0,220.0,32.0,4.0,247.0,2796.213
2796223.0,218.0,32.0,4.0,248.0,2796.223
2796233.0,223.0,33.0,3.0,252.0,2796.233
2796243.0,224.0,32.0,4.0,250.0,2796.243
2796253.0,217.0,33.0,3.0,245.0,2796.253
2796263.0,220.0,33.0,4.0,246.0,2796.263
2796273.0,220.0,33.0,3.0,248.0,2796.273
2796283.0,223.0,33.0,4.0,251.0,2796.283
2796293.0,226.0,33.0,4.0,252.0,2796.293
2796303.0,217.0,32.0,3.0,244.0,2796.303
2796313.0,219.0,32.0,3.0,247.0,2796.313
2796323.0,221.0,33.0,2.0,251.0,2796.323
2796333.0,223.0,33.0,4.0,254.0,2796.333
2796343.0,226.0,33.0,4.0,252.0,2796.343
2796353.0,216.0,33.0,3.0,245.0,2796.353
2796363.0,219.0,33.0,3.0,248.0,2796.363
2796374.0,222.0,32.0,4.0,251.0,2796.374
2796384.0,221.0,33.0,3.0,251.0,2796.384
2796394.0,223.0,33.0,4.0,249.0,2796.394
2796404.0,214.0,32.0,2.0,240.0,2796.404
2796414.0,220.0,33.0,3.0,249.0,2796.414
2796424.0,222.0,33.0,4.0,253.0,2796.424
2796434.0,222.0,32.0,3.0,252.0,2796.434
2796444.0,222.0,33.0,3.0,250.0,2796.444
2796454.0,213.0,33.0,4.0,240.0,2796.454
2796464.0,218.0,32.0,4.0,245.0,2796.464
2796474.0,223.0,33.0,4.0,251.0,2796.474
2796484.0,221.0,32.0,4.0,250.0,2796.484
2796494.0,221.0,33.0,3.0,248.0,2796.494
2796504.0,214.0,33.0,3.0,242.0,2796.504
2796514.0,217.0,33.0,4.0,247.0,2796.514
2796524.0,224.0,33.0,3.0,254.0,2796.524
2796534.0,221.0,33.0,4.0,251.0,2796.534
2796544.0,224.0,33.0,4.0,251.0,2796.544
2796554.0,214.0,34.0,3.0,244.0,2796.554
2796564.0,218.0,32.0,4.0,248.0,2796.564
2796574.0,224.0,33.0,4.0,255.0,2796.574
2796584.0,221.0,33.0,5.0,251.0,2796.584
2796594.0,222.0,33.0,3.0,251.0,2796.594
2796604.0,214.0,33.0,4.0,243.0,2796.604
2796614.0,219.0,34.0,3.0,252.0,2796.614
2796624.0,224.0,33.0,3.0,255.0,2796.624
2796634.0,222.0,33.0,3.0,254.0,2796.634
2796644.0,222.0,33.0,4.0,251.0,2796.644
2796654.0,214.0,32.0,4.0,243.0,2796.654
2796664.0,219.0,33.0,4.0,251.0,2796.664
2796674.0,222.0,33.0,4.0,254.0,2796.674
2796684.0,222.0,33.0,3.0,254.0,2796.684
2796694.0,222.0,32.0,4.0,251.0,2796.694
2796704.0,212.0,33.0,3.0,242.0,2796.704
2796715.0,220.0,32.0,4.0,251.0,2796.715
2796725.0,225.0,33.0,4.0,256.0,2796.725
2796735.0,219.0,33.0,3.0,249.0,2796.735
2796745.0,221.0,33.0,3.0,251.0,2796.745
2796755.0,215.0,32.0,4.0,246.0,2796.755
2796765.0,221.0,32.0,4.0,253.0,2796.765
2796775.0,227.0,33.0,4.0,256.0,2796.775
2796785.0,220.0,32.0,4.0,249.0,2796.785
2796795.0,220.0,33.0,3.0,250.0,2796.795
2796805.0,214.0,33.0,3.0,243.0,2796.805
2796815.0,222.0,33.0,3.0,253.0,2796.815
2796825.0,227.0,32.0,3.0,256.0,2796.825
2796835.0,220.0,32.0,4.0,249.0,2796.835
2796845.0,222.0,32.0,4.0,250.0,2796.845
2796855.0,212.0,33.0,4.0,243.0,2796.855
2796865.0,221.0,33.0,4.0,253.0,2796.865
2796875.0,225.0,33.0,3.0,255.0,2796.875
2796886.0,217.0,32.0,3.0,247.0,2796.886
2796896.0,219.0,33.0,3.0,249.0,2796.896
2796906.0,219.0,33.0,4.0,249.0,2796.906
2796916.0,222.0,33.0,2.0,253.0,2796.916
2796926.0,224.0,33.0,4.0,250.0,2796.926
2796936.0,217.0,32.0,4.0,246.0,2796.936
2796946.0,219.0,33.0,4.0,247.0,2796.946
2796956.0,219.0,32.0,3.0,250.0,2796.956
2796966.0,223.0,33.0,5.0,254.0,2796.966
2796976.0,224.0,33.0,3.0,252.0,2796.976
2796986.0,215.0,33.0,4.0,244.0,2796.986
2796996.0,218.0,33.0,3.0,248.0,2796.996
2797006.0,219.0,33.0,3.0,250.0,2797.006
2797016.0,223.0,33.0,4.0,253.0,2797.016
2797026.0,225.0,33.0,4.0,252.0,2797.026
2797036.0,217.0,32.0,4.0,245.0,2797.036
2797046.0,219.0,33.0,2.0,248.0,2797.046
2797056.0,218.0,33.0,4.0,247.0,2797.056
2797066.0,224.0,33.0,3.0,255.0,2797.066
2797076.0,225.0,32.0,3.0,253.0,2797.076
2797086.0,216.0,32.0,4.0,245.0,2797.086
2797096.0,220.0,32.0,5.0,248.0,2797.096
2797106.0,218.0,33.0,3.0,250.0,2797.106
2797116.0,224.0,33.0,3.0,255.0,2797.116
2797126.0,225.0,33.0,3.0,253.0,2797.126
2797136.0,216.0,32.0,3.0,244.0,2797.136
2797146.0,220.0,33.0,4.0,249.0,2797.146
2797156.0,218.0,32.0,4.0,248.0,2797.156
2797166.0,223.0,32.0,4.0,254.0,2797.166
2797176.0,222.0,33.0,3.0,252.0,2797.176
2797186.0,217.0,31.0,4.0,247.0,2797.186
2797196.0,219.0,33.0,3.0,249.0,2797.196
2797206.0,219.0,32.0,4.0,251.0,2797.206
2797216.0,221.0,32.0,4.0,254.0,2797.216
2797227.0,224.0,33.0,4.0,252.0,2797.227
2797237.0,214.0,32.0,4.0,244.0,2797.237
2797247.0,218.0,32.0,3.0,251.0,2797.247
2797257.0,224.0,33.0,3.0,257.0,2797.257
2797267.0,221.0,32.0,3.0,252.0,2797.267
2797277.0,223.0,33.0,3.0,253.0,2797.277
2797287.0,214.0,32.0,4.0,245.0,2797.287
2797297.0,219.0,31.0,4.0,251.0,2797.297
2797307.0,225.0,33.0,4.0,256.0,2797.307
2797317.0,223.0,33.0,3.0,255.0,2797.317
2797327.0,222.0,33.0,3.0,251.0,2797.327
2797337.0,214.0,32.0,4.0,243.0,2797.337
2797347.0,219.0,32.0,4.0,250.0,2797.347
2797357.0,222.0,32.0,3.0,254.0,2797.357
2797367.0,223.0,32.0,4.0,253.0,2797.367
2797377.0,223.0,32.0,3.0,251.0,2797.377
2797387.0,213.0,33.0,3.0,244.0,2797.387
2797398.0,219.0,32.0,3.0,252.0,2797.398
2797408.0,226.0,32.0,4.0,257.0,2797.408
2797418.0,220.0,33.0,4.0,251.0,2797.418
2797428.0,222.0,33.0,2.0,251.0,2797.428
2797438.0,216.0,32.0,3.0,248.0,2797.438
2797448.0,221.0,33.0,3.0,253.0,2797.448
2797458.0,226.0,33.0,3.0,256.0,2797.458
2797468.0,218.0,32.0,4.0,250.0,2797.468
2797478.0,220.0,33.0,4.0,250.0,2797.478
2797488.0,213.0,32.0,4.0,243.0,2797.488
2797498.0,221.0,32.0,3.0,255.0,2797.498
2797508.0,225.0,33.0,4.0,257.0,2797.508
2797518.0,218.0,33.0,3.0,250.0,2797.518
2797528.0,221.0,33.0,4.0,251.0,2797.528
2797538.0,213.0,33.0,3.0,244.0,2797.538
2797548.0,222.0,33.0,4.0,255.0,2797.548
2797558.0,225.0,34.0,4.0,255.0,2797.558
2797568.0,220.0,32.0,5.0,251.0,2797.568
2797578.0,221.0,35.0,3.0,251.0,2797.578
2797588.0,213.0,32.0,4.0,244.0,2797.588
2797598.0,221.0,33.0,3.0,256.0,2797.598
2797608.0,225.0,33.0,5.0,255.0,2797.608
2797618.0,220.0,32.0,4.0,251.0,2797.618
2797628.0,220.0,33.0,3.0,250.0,2797.628
2797638.0,214.0,33.0,3.0,247.0,2797.638
2797648.0,222.0,34.0,3.0,255.0,2797.648
2797658.0,224.0,33.0,4.0,257.0,2797.658
2797668.0,218.0,33.0,4.0,252.0,2797.668
2797678.0,221.0,33.0,4.0,252.0,2797.678
2797688.0,214.0,33.0,4.0,248.0,2797.688
2797698.0,220.0,33.0,5.0,253.0,2797.698
2797708.0,224.0,34.0,3.0,257.0,2797.708
2797718.0,217.0,32.0,3.0,251.0,2797.718
2797728.0,220.0,33.0,3.0,252.0,2797.728
2797739.0,217.0,33.0,4.0,250.0,2797.739
2797749.0,223.0,32.0,4.0,257.0,2797.749
2797759.0,224.0,33.0,3.0,255.0,2797.759
2797769.0,215.0,33.0,3.0,250.0,2797.769
2797779.0,218.0,33.0,3.0,250.0,2797.779
2797789.0,217.0,33.0,3.0,252.0,2797.789
2797799.0,223.0,33.0,4.0,258.0,2797.799
2797809.0,225.0,33.0,4.0,254.0,2797.809
2797819.0,214.0,33.0,3.0,249.0,2797.819
2797829.0,220.0,32.0,4.0,253.0,2797.829
2797839.0,217.0,33.0,3.0,254.0,2797.839
2797849.0,223.0,32.0,4.0,258.0,2797.849
2797859.0,224.0,31.0,4.0,254.0,2797.859
2797869.0,217.0,32.0,4.0,250.0,2797.869
2797879.0,220.0,33.0,4.0,253.0,2797.879
2797889.0,220.0,32.0,4.0,255.0,2797.889
2797899.0,223.0,33.0,4.0,259.0,2797.899
2797910.0,224.0,32.0,3.0,255.0,2797.91
2797920.0,214.0,32.0,3.0,248.0,2797.92
2797930.0,219.0,32.0,5.0,253.0,2797.93
2797940.0,224.0,33.0,3.0,259.0,2797.94
2797950.0,221.0,31.0,3.0,255.0,2797.95
2797960.0,223.0,33.0,3.0,255.0,2797.96
2797970.0,214.0,32.0,3.0,247.0,2797.97
2797980.0,219.0,32.0,4.0,252.0,2797.98
2797990.0,225.0,32.0,3.0,258.0,2797.99
2798000.0,223.0,31.0,4.0,256.0,2798.0
2798010.0,222.0,32.0,3.0,253.0,2798.01
2798020.0,214.0,32.0,4.0,246.0,2798.02
2798030.0,219.0,33.0,3.0,254.0,2798.03
2798040.0,222.0,32.0,3.0,256.0,2798.04
2798050.0,222.0,32.0,4.0,256.0,2798.05
2798060.0,223.0,32.0,5.0,252.0,2798.06
2798070.0,213.0,31.0,3.0,244.0,2798.07
2798080.0,219.0,32.0,4.0,251.0,2798.08
2798090.0,223.0,33.0,3.0,257.0,2798.09
2798100.0,222.0,32.0,4.0,256.0,2798.1
2798110.0,221.0,32.0,4.0,253.0,2798.11
2798120.0,213.0,32.0,4.0,246.0,2798.12
2798130.0,218.0,32.0,4.0,252.0,2798.13
2798140.0,222.0,32.0,3.0,258.0,2798.14
2798150.0,222.0,32.0,4.0,255.0,2798.15
2798160.0,221.0,33.0,3.0,253.0,2798.16
2798170.0,215.0,32.0,3.0,247.0,2798.17
2798180.0,217.0,32.0,3.0,252.0,2798.18
2798190.0,224.0,32.0,4.0,258.0,2798.19
2798200.0,221.0,32.0,3.0,255.0,2798.2
2798210.0,222.0,33.0,5.0,253.0,2798.21
2798220.0,214.0,33.0,3.0,247.0,2798.22
2798230.0,217.0,32.0,4.0,251.0,2798.23
2798240.0,224.0,32.0,4.0,257.0,2798.24
2798251.0,221.0,32.0,5.0,253.0,2798.251
2798261.0,220.0,31.0,4.0,252.0,2798.261
2798271.0,213.0,32.0,3.0,246.0,2798.271
2798281.0,222.0,32.0,4.0,256.0,2798.281
2798291.0,225.0,32.0,3.0,256.0,2798.291
2798301.0,221.0,32.0,4.0,252.0,2798.301
2798311.0,220.0,33.0,4.0,251.0,2798.311
2798321.0,216.0,32.0,4.0,247.0,2798.321
2798331.0,223.0,32.0,2.0,258.0,2798.331
2798341.0,226.0,33.0,4.0,258.0,2798.341
2798351.0,219.0,33.0,3.0,253.0,2798.351
2798361.0,220.0,33.0,4.0,252.0,2798.361
2798371.0,215.0,33.0,3.0,250.0,2798.371
2798381.0,221.0,33.0,4.0,255.0,2798.381
2798391.0,225.0,33.0,2.0,257.0,2798.391
2798401.0,220.0,32.0,4.0,252.0,2798.401
2798411.0,220.0,33.0,3.0,252.0,2798.411
2798422.0,217.0,32.0,3.0,249.0,2798.422
2798432.0,224.0,32.0,4.0,257.0,2798.432
2798442.0,225.0,33.0,4.0,255.0,2798.442
2798452.0,216.0,31.0,4.0,247.0,2798.452
2798462.0,218.0,32.0,3.0,250.0,2798.462
2798472.0,219.0,32.0,4.0,251.0,2798.472
2798482.0,223.0,33.0,4.0,258.0,2798.482
2798492.0,225.0,32.0,4.0,254.0,2798.492
2798502.0,216.0,32.0,3.0,248.0,2798.502
2798512.0,220.0,32.0,4.0,252.0,2798.512
2798522.0,218.0,33.0,4.0,253.0,2798.522
2798532.0,224.0,33.0,4.0,258.0,2798.532
2798542.0,223.0,34.0,3.0,254.0,2798.542
2798552.0,219.0,32.0,4.0,250.0,2798.552
2798562.0,220.0,32.0,3.0,252.0,2798.562
2798572.0,222.0,33.0,4.0,255.0,2798.572
2798582.0,226.0,32.0,4.0,258.0,2798.582
2798592.0,227.0,33.0,5.0,258.0,2798.592
2798602.0,220.0,33.0,3.0,251.0,2798.602
2798612.0,222.0,33.0,3.0,252.0,2798.612
2798622.0,224.0,32.0,4.0,256.0,2798.622
2798632.0,227.0,33.0,3.0,258.0,2798.632
2798642.0,228.0,33.0,4.0,256.0,2798.642
2798652.0,220.0,33.0,2.0,250.0,2798.652
2798662.0,222.0,33.0,3.0,253.0,2798.662
2798672.0,223.0,34.0,3.0,257.0,2798.672
2798682.0,226.0,32.0,4.0,258.0,2798.682
2798692.0,227.0,33.0,4.0,255.0,2798.692
2798702.0,219.0,32.0,5.0,248.0,2798.702
2798712.0,220.0,33.0,4.0,252.0,2798.712
2798722.0,218.0,33.0,3.0,252.0,2798.722
2798732.0,225.0,33.0,3.0,259.0,2798.732
2798742.0,225.0,33.0,3.0,255.0,2798.742
2798752.0,218.0,32.0,3.0,249.0,2798.752
2798763.0,220.0,33.0,4.0,251.0,2798.763
2798773.0,225.0,33.0,4.0,257.0,2798.773
2798783.0,225.0,33.0,4.0,256.0,2798.783
2798793.0,224.0,33.0,3.0,254.0,2798.793
2798803.0,216.0,34.0,3.0,245.0,2798.803
2798813.0,221.0,33.0,3.0,252.0,2798.813
2798823.0,225.0,33.0,4.0,257.0,2798.823
2798833.0,226.0,33.0,5.0,255.0,2798.833
2798843.0,223.0,33.0,2.0,253.0,2798.843
2798853.0,219.0,32.0,4.0,246.0,2798.853
2798863.0,221.0,34.0,3.0,253.0,2798.863
2798873.0,227.0,32.0,4.0,258.0,2798.873
2798883.0,225.0,32.0,4.0,256.0,2798.883
2798893.0,225.0,32.0,3.0,254.0,2798.893
2798903.0,218.0,32.0,4.0,246.0,2798.903
2798913.0,222.0,33.0,4.0,252.0,2798.913
2798923.0,228.0,33.0,3.0,258.0,2798.923
2798934.0,225.0,32.0,3.0,253.0,2798.934
2798944.0,224.0,33.0,4.0,251.0,2798.944
2798954.0,217.0,33.0,4.0,246.0,2798.954
2798964.0,226.0,33.0,3.0,256.0,2798.964
2798974.0,228.0,34.0,2.0,257.0,2798.974
2798984.0,226.0,33.0,3.0,253.0,2798.984
2798994.0,224.0,33.0,3.0,251.0,2798.994
2799004.0,219.0,32.0,3.0,247.0,2799.004
2799014.0,227.0,33.0,3.0,257.0,2799.014
2799024.0,230.0,33.0,5.0,258.0,2799.024
2799034.0,225.0,33.0,3.0,253.0,2799.034
2799044.0,224.0,32.0,4.0,252.0,2799.044
2799054.0,220.0,34.0,3.0,251.0,2799.054
2799064.0,224.0,33.0,3.0,255.0,2799.064
2799074.0,229.0,33.0,4.0,258.0,2799.074
2799084.0,225.0,32.0,4.0,254.0,2799.084
2799094.0,225.0,33.0,3.0,253.0,2799.094
2799104.0,217.0,32.0,4.0,245.0,2799.104
2799114.0,225.0,33.0,4.0,256.0,2799.114
2799124.0,228.0,34.0,3.0,258.0,2799.124
2799134.0,224.0,32.0,4.0,250.0,2799.134
2799144.0,223.0,33.0,4.0,250.0,2799.144
2799154.0,218.0,33.0,5.0,244.0,2799.154
2799164.0,224.0,33.0,2.0,255.0,2799.164
2799174.0,228.0,33.0,4.0,257.0,2799.174
2799184.0,222.0,33.0,3.0,252.0,2799.184
2799194.0,223.0,33.0,3.0,251.0,2799.194
2799204.0,216.0,32.0,4.0,245.0,2799.204
2799214.0,225.0,32.0,4.0,256.0,2799.214
2799224.0,227.0,33.0,3.0,255.0,2799.224
2799234.0,224.0,32.0,2.0,253.0,2799.234
2799244.0,222.0,33.0,3.0,253.0,2799.244
2799254.0,217.0,33.0,3.0,248.0,2799.254
2799264.0,225.0,32.0,3.0,259.0,2799.264
2799275.0,227.0,32.0,4.0,258.0,2799.275
2799285.0,220.0,31.0,4.0,250.0,2799.285
2799295.0,220.0,33.0,3.0,251.0,2799.295
2799305.0,223.0,32.0,4.0,254.0,2799.305
2799315.0,226.0,33.0,3.0,257.0,2799.315
2799325.0,227.0,32.0,3.0,257.0,2799.325
2799335.0,220.0,32.0,4.0,249.0,2799.335
2799345.0,222.0,32.0,5.0,251.0,2799.345
2799355.0,223.0,32.0,4.0,255.0,2799.355
2799365.0,227.0,32.0,3.0,257.0,2799.365
2799375.0,227.0,33.0,3.0,256.0,2799.375
2799385.0,219.0,32.0,3.0,248.0,2799.385
2799395.0,221.0,31.0,4.0,251.0,2799.395
2799405.0,220.0,32.0,3.0,251.0,2799.405
2799415.0,227.0,31.0,4.0,257.0,2799.415
2799425.0,227.0,32.0,3.0,255.0,2799.425
2799435.0,220.0,32.0,4.0,247.0,2799.435
2799446.0,221.0,33.0,3.0,250.0,2799.446
2799456.0,226.0,32.0,4.0,257.0,2799.456
2799466.0,225.0,32.0,4.0,256.0,2799.466
2799476.0,226.0,33.0,4.0,253.0,2799.476
2799486.0,218.0,32.0,3.0,245.0,2799.486
2799496.0,222.0,32.0,4.0,251.0,2799.496
2799506.0,227.0,33.0,3.0,258.0,2799.506
2799516.0,227.0,32.0,4.0,254.0,2799.516
2799526.0,224.0,32.0,4.0,252.0,2799.526
2799536.0,219.0,32.0,5.0,245.0,2799.536
2799546.0,222.0,33.0,3.0,252.0,2799.546
2799556.0,227.0,32.0,3.0,257.0,2799.556
2799566.0,226.0,33.0,3.0,253.0,2799.566
2799576.0,226.0,32.0,3.0,254.0,2799.576
2799586.0,220.0,32.0,5.0,245.0,2799.586
2799596.0,223.0,32.0,4.0,251.0,2799.596
2799606.0,229.0,33.0,4.0,257.0,2799.606
2799616.0,226.0,32.0,4.0,256.0,2799.616
2799626.0,225.0,32.0,3.0,253.0,2799.626
2799636.0,218.0,33.0,3.0,246.0,2799.636
2799646.0,223.0,32.0,4.0,254.0,2799.646
2799656.0,228.0,33.0,4.0,258.0,2799.656
2799666.0,227.0,32.0,4.0,255.0,2799.666
2799676.0,224.0,33.0,2.0,253.0,2799.676
2799686.0,218.0,32.0,3.0,245.0,2799.686
2799696.0,224.0,33.0,3.0,255.0,2799.696
2799706.0,226.0,33.0,4.0,256.0,2799.706
2799716.0,226.0,32.0,3.0,255.0,2799.716
2799726.0,224.0,33.0,4.0,251.0,2799.726
2799736.0,218.0,32.0,4.0,244.0,2799.736
2799746.0,222.0,33.0,3.0,249.0,2799.746
2799756.0,226.0,33.0,4.0,256.0,2799.756
2799766.0,226.0,32.0,3.0,254.0,2799.766
2799776.0,223.0,33.0,4.0,251.0,2799.776
2799787.0,217.0,32.0,4.0,244.0,2799.787
2799797.0,226.0,31.0,4.0,254.0,2799.797
2799807.0,228.0,32.0,4.0,257.0,2799.807
2799817.0,223.0,32.0,4.0,249.0,2799.817
2799827.0,223.0,33.0,3.0,251.0,2799.827
2799837.0,218.0,32.0,4.0,245.0,2799.837
2799847.0,225.0,31.0,3.0,256.0,2799.847
2799857.0,229.0,32.0,5.0,257.0,2799.857
2799867.0,223.0,31.0,3.0,251.0,2799.867
2799877.0,223.0,32.0,3.0,251.0,2799.877
2799887.0,218.0,32.0,3.0,246.0,2799.887
2799897.0,226.0,32.0,3.0,256.0,2799.897
2799907.0,228.0,32.0,4.0,255.0,2799.907
2799917.0,224.0,31.0,4.0,251.0,2799.917
2799927.0,224.0,31.0,4.0,249.0,2799.927
2799937.0,216.0,32.0,4.0,244.0,2799.937
2799947.0,225.0,32.0,4.0,253.0,2799.947
2799958.0,226.0,33.0,3.0,254.0,2799.958
2799968.0,221.0,31.0,3.0,246.0,2799.968
2799978.0,221.0,31.0,4.0,248.0,2799.978
2799988.0,225.0,31.0,5.0,251.0,2799.988
2799998.0,226.0,31.0,2.0,255.0,2799.998
2800008.0,227.0,32.0,4.0,254.0,2800.008
2800018.0,219.0,32.0,3.0,247.0,2800.018
2800028.0,221.0,31.0,4.0,249.0,2800.028
2800038.0,224.0,31.0,4.0,254.0,2800.038
2800048.0,226.0,31.0,3.0,258.0,2800.048
2800058.0,227.0,31.0,3.0,255.0,2800.058
2800068.0,218.0,31.0,3.0,248.0,2800.068
2800078.0,221.0,32.0,4.0,251.0,2800.078
2800088.0,220.0,31.0,4.0,251.0,2800.088
2800098.0,227.0,31.0,4.0,258.0,2800.098
2800108.0,225.0,32.0,4.0,254.0,2800.108
2800118.0,219.0,31.0,4.0,248.0,2800.118
2800128.0,222.0,32.0,3.0,252.0,2800.128
2800138.0,221.0,31.0,4.0,252.0,2800.138
2800148.0,227.0,32.0,3.0,258.0,2800.148
2800158.0,226.0,32.0,3.0,254.0,2800.158
2800168.0,219.0,31.0,3.0,247.0,2800.168
2800178.0,222.0,32.0,4.0,250.0,2800.178
2800188.0,222.0,31.0,4.0,252.0,2800.188
2800198.0,227.0,32.0,4.0,257.0,2800.198
2800208.0,226.0,33.0,4.0,254.0,2800.208
2800218.0,222.0,32.0,4.0,249.0,2800.218
2800228.0,223.0,32.0,3.0,252.0,2800.228
2800238.0,225.0,32.0,4.0,255.0,2800.238
2800248.0,229.0,31.0,4.0,258.0,2800.248
2800258.0,229.0,32.0,4.0,256.0,2800.258
2800268.0,223.0,32.0,4.0,249.0,2800.268
2800278.0,223.0,33.0,3.0,252.0,2800.278
2800288.0,226.0,32.0,4.0,255.0,2800.288
2800299.0,227.0,32.0,3.0,256.0,2800.299
2800309.0,227.0,33.0,4.0,253.0,2800.309
2800319.0,218.0,32.0,4.0,244.0,2800.319
2800329.0,222.0,32.0,3.0,251.0,2800.329
2800339.0,227.0,34.0,3.0,258.0,2800.339
2800349.0,226.0,32.0,4.0,256.0,2800.349
2800359.0,225.0,33.0,4.0,254.0,2800.359
2800369.0,218.0,33.0,4.0,245.0,2800.369
2800379.0,224.0,32.0,4.0,255.0,2800.379
2800389.0,225.0,33.0,4.0,257.0,2800.389
2800399.0,226.0,32.0,4.0,256.0,2800.399
2800409.0,223.0,34.0,3.0,252.0,2800.409
2800419.0,216.0,32.0,4.0,243.0,2800.419
2800429.0,221.0,34.0,3.0,250.0,2800.429
2800439.0,227.0,32.0,5.0,255.0,2800.439
2800449.0,225.0,33.0,3.0,254.0,2800.449
2800459.0,224.0,33.0,3.0,252.0,2800.459
2800470.0,217.0,33.0,3.0,245.0,2800.47
2800480.0,225.0,32.0,3.0,255.0,2800.48
2800490.0,228.0,33.0,4.0,256.0,2800.49
2800500.0,223.0,32.0,5.0,250.0,2800.5
2800510.0,223.0,33.0,2.0,251.0,2800.51
2800520.0,218.0,32.0,5.0,243.0,2800.52
2800530.0,225.0,33.0,3.0,256.0,2800.53
2800540.0,227.0,33.0,3.0,256.0,2800.54
2800550.0,222.0,32.0,3.0,250.0,2800.55
2800560.0,223.0,32.0,3.0,252.0,2800.56
2800570.0,218.0,32.0,3.0,246.0,2800.57
2800580.0,225.0,33.0,3.0,256.0,2800.58
2800590.0,228.0,33.0,3.0,257.0,2800.59
2800600.0,224.0,33.0,3.0,253.0,2800.6
2800610.0,224.0,33.0,3.0,250.0,2800.61
2800620.0,217.0,32.0,3.0,247.0,2800.62
2800630.0,227.0,33.0,4.0,256.0,2800.63
2800640.0,228.0,33.0,3.0,256.0,2800.64
2800650.0,223.0,33.0,4.0,252.0,2800.65
2800660.0,222.0,33.0,3.0,252.0,2800.66
2800670.0,218.0,32.0,4.0,247.0,2800.67
2800680.0,225.0,33.0,3.0,257.0,2800.68
2800690.0,228.0,33.0,3.0,258.0,2800.69
2800700.0,223.0,33.0,4.0,252.0,2800.7
2800710.0,222.0,33.0,4.0,251.0,2800.71
2800720.0,218.0,33.0,3.0,252.0,2800.72
2800730.0,224.0,33.0,3.0,255.0,2800.73
2800740.0,228.0,32.0,4.0,257.0,2800.74
2800750.0,222.0,32.0,3.0,251.0,2800.75
2800760.0,223.0,33.0,4.0,251.0,2800.76
2800770.0,217.0,33.0,4.0,246.0,2800.77
2800780.0,224.0,33.0,4.0,256.0,2800.78
2800790.0,227.0,34.0,3.0,259.0,2800.79
2800800.0,221.0,32.0,3.0,251.0,2800.8
2800811.0,221.0,33.0,3.0,252.0,2800.811
2800821.0,221.0,33.0,4.0,253.0,2800.821
2800831.0,225.0,33.0,3.0,257.0,2800.831
2800841.0,225.0,33.0,3.0,254.0,2800.841
2800851.0,218.0,33.0,3.0,247.0,2800.851
2800861.0,221.0,33.0,4.0,249.0,2800.861
2800871.0,221.0,32.0,3.0,251.0,2800.871
2800881.0,225.0,33.0,4.0,254.0,2800.881
2800891.0,224.0,33.0,4.0,251.0,2800.891
2800901.0,219.0,32.0,4.0,246.0,2800.901
2800911.0,221.0,33.0,3.0,247.0,2800.911
2800921.0,221.0,34.0,3.0,250.0,2800.921
2800931.0,225.0,32.0,3.0,252.0,2800.931
2800941.0,226.0,34.0,3.0,252.0,2800.941
2800951.0,219.0,33.0,4.0,244.0,2800.951
2800961.0,220.0,33.0,3.0,247.0,2800.961
2800971.0,223.0,32.0,4.0,251.0,2800.971
2800982.0,224.0,34.0,3.0,252.0,2800.982
2800992.0,223.0,32.0,4.0,249.0,2800.992
2801002.0,216.0,33.0,3.0,240.0,2801.002
2801012.0,221.0,33.0,5.0,248.0,2801.012
2801022.0,228.0,33.0,4.0,252.0,2801.022
2801032.0,225.0,33.0,4.0,251.0,2801.032
2801042.0,224.0,33.0,3.0,251.0,2801.042
2801052.0,216.0,33.0,3.0,241.0,2801.052
2801062.0,223.0,32.0,4.0,250.0,2801.062
2801072.0,226.0,34.0,3.0,253.0,2801.072
2801082.0,225.0,33.0,4.0,251.0,2801.082
2801092.0,224.0,33.0,2.0,251.0,2801.092
2801102.0,217.0,32.0,4.0,241.0,2801.102
2801112.0,220.0,33.0,4.0,248.0,2801.112
2801122.0,226.0,32.0,4.0,254.0,2801.122
2801132.0,224.0,33.0,3.0,252.0,2801.132
2801142.0,224.0,33.0,4.0,250.0,2801.142
2801152.0,217.0,32.0,4.0,242.0,2801.152
2801162.0,221.0,33.0,4.0,248.0,2801.162
2801172.0,226.0,33.0,3.0,256.0,2801.172
2801182.0,224.0,33.0,3.0,250.0,2801.182
2801192.0,223.0,33.0,3.0,249.0,2801.192
2801202.0,216.0,33.0,3.0,242.0,2801.202
2801212.0,220.0,33.0,3.0,247.0,2801.212
2801222.0,226.0,33.0,3.0,254.0,2801.222
2801232.0,223.0,32.0,4.0,248.0,2801.232
2801242.0,224.0,33.0,4.0,248.0,2801.242
2801252.0,216.0,32.0,4.0,240.0,2801.252
2801262.0,221.0,32.0,4.0,248.0,2801.262
2801272.0,227.0,33.0,5.0,254.0,2801.272
2801282.0,224.0,32.0,3.0,252.0,2801.282
2801292.0,223.0,32.0,4.0,250.0,2801.292
2801302.0,215.0,33.0,3.0,241.0,2801.302
2801312.0,221.0,32.0,3.0,249.0,2801.312
2801323.0,226.0,33.0,4.0,254.0,2801.323
2801333.0,221.0,33.0,4.0,247.0,2801.333
2801343.0,221.0,33.0,2.0,248.0,2801.343
2801353.0,216.0,33.0,3.0,244.0,2801.353
2801363.0,223.0,33.0,3.0,253.0,2801.363
2801373.0,225.0,32.0,4.0,253.0,2801.373
2801383.0,221.0,32.0,3.0,246.0,2801.383
2801393.0,221.0,32.0,4.0,247.0,2801.393
2801403.0,218.0,32.0,4.0,245.0,2801.403
2801413.0,221.0,32.0,4.0,250.0,2801.413
2801423.0,227.0,32.0,3.0,253.0,2801.423
2801433.0,221.0,33.0,3.0,247.0,2801.433
2801443.0,221.0,32.0,3.0,247.0,2801.443
2801453.0,214.0,33.0,3.0,242.0,2801.453
2801463.0,222.0,33.0,4.0,251.0,2801.463
2801473.0,226.0,33.0,4.0,255.0,2801.473
2801483.0,220.0,32.0,3.0,247.0,2801.483
2801494.0,220.0,33.0,3.0,249.0,2801.494
2801504.0,219.0,32.0,3.0,249.0,2801.504
2801514.0,224.0,32.0,3.0,254.0,2801.514
2801524.0,225.0,33.0,3.0,252.0,2801.524
2801534.0,217.0,31.0,4.0,244.0,2801.534
2801544.0,221.0,32.0,4.0,249.0,2801.544
2801554.0,221.0,32.0,4.0,251.0,2801.554
2801564.0,225.0,32.0,3.0,254.0,2801.564
2801574.0,224.0,32.0,3.0,251.0,2801.574
2801584.0,218.0,33.0,3.0,247.0,2801.584
2801594.0,221.0,32.0,5.0,248.0,2801.594
2801604.0,220.0,32.0,4.0,250.0,2801.604
2801614.0,224.0,32.0,3.0,252.0,2801.614
2801624.0,225.0,34.0,4.0,252.0,2801.624
2801634.0,218.0,32.0,4.0,245.0,2801.634
2801644.0,219.0,33.0,3.0,247.0,2801.644
2801654.0,223.0,33.0,5.0,251.0,2801.654
2801664.0,225.0,32.0,3.0,255.0,2801.664
2801674.0,225.0,33.0,3.0,253.0,2801.674
2801684.0,218.0,32.0,4.0,246.0,2801.684
2801694.0,220.0,32.0,3.0,247.0,2801.694
2801704.0,224.0,32.0,4.0,253.0,2801.704
2801714.0,225.0,33.0,3.0,254.0,2801.714
2801724.0,227.0,33.0,4.0,252.0,2801.724
2801734.0,218.0,33.0,4.0,245.0,2801.734
2801744.0,221.0,33.0,3.0,248.0,2801.744
2801754.0,220.0,32.0,4.0,249.0,2801.754
2801764.0,226.0,32.0,4.0,254.0,2801.764
2801774.0,225.0,33.0,3.0,251.0,2801.774
2801784.0,218.0,33.0,5.0,243.0,2801.784
2801794.0,221.0,32.0,3.0,249.0,2801.794
2801804.0,220.0,33.0,3.0,250.0,2801.804
2801814.0,225.0,33.0,3.0,254.0,2801.814
2801824.0,224.0,33.0,4.0,250.0,2801.824
2801835.0,218.0,32.0,4.0,243.0,2801.835
2801845.0,220.0,32.0,4.0,249.0,2801.845
2801855.0,225.0,33.0,4.0,254.0,2801.855
2801865.0,224.0,33.0,3.0,251.0,2801.865
2801875.0,223.0,33.0,4.0,249.0,2801.875
2801885.0,217.0,32.0,3.0,242.0,2801.885
2801895.0,221.0,32.0,3.0,250.0,2801.895
2801905.0,226.0,33.0,3.0,256.0,2801.905
2801915.0,224.0,32.0,5.0,252.0,2801.915
2801925.0,224.0,33.0,3.0,252.0,2801.925
2801935.0,216.0,32.0,3.0,244.0,2801.935
2801945.0,221.0,33.0,3.0,252.0,2801.945
2801955.0,228.0,32.0,4.0,257.0,2801.955
2801965.0,225.0,33.0,3.0,254.0,2801.965
2801975.0,225.0,33.0,5.0,251.0,2801.975
2801985.0,217.0,32.0,4.0,242.0,2801.985
