time (ms),signal 0,signal 1,signal 2,signal 3,time (sec)
2751586.0,216.0,33.0,4.0,252.0,2751.586
2751596.0,221.0,32.0,4.0,248.0,2751.596
2751606.0,210.0,33.0,2.0,241.0,2751.606
2751616.0,217.0,33.0,3.0,244.0,2751.616
2751626.0,217.0,33.0,3.0,248.0,2751.626
2751636.0,219.0,32.0,3.0,250.0,2751.636
2751646.0,221.0,33.0,5.0,247.0,2751.646
2751656.0,209.0,32.0,5.0,239.0,2751.656
2751666.0,216.0,31.0,4.0,244.0,2751.666
2751676.0,217.0,33.0,3.0,249.0,2751.676
2751686.0,217.0,33.0,3.0,251.0,2751.686
2751696.0,219.0,34.0,4.0,248.0,2751.696
2751706.0,210.0,32.0,4.0,243.0,2751.706
2751716.0,215.0,32.0,4.0,245.0,2751.716
2751726.0,220.0,33.0,4.0,251.0,2751.726
2751736.0,216.0,33.0,3.0,250.0,2751.736
2751746.0,222.0,33.0,3.0,249.0,2751.746
2751756.0,211.0,33.0,3.0,244.0,2751.756
2751766.0,216.0,33.0,3.0,247.0,2751.766
2751776.0,221.0,33.0,3.0,254.0,2751.776
2751787.0,219.0,33.0,4.0,251.0,2751.787
2751797.0,221.0,33.0,3.0,249.0,2751.797
2751807.0,211.0,33.0,3.0,242.0,2751.807
2751817.0,219.0,33.0,4.0,253.0,2751.817
2751827.0,225.0,34.0,3.0,255.0,2751.827
2751837.0,219.0,32.0,3.0,252.0,2751.837
2751847.0,221.0,33.0,4.0,250.0,2751.847
2751857.0,213.0,32.0,4.0,241.0,2751.857
2751867.0,220.0,33.0,3.0,252.0,2751.867
2751877.0,225.0,32.0,4.0,256.0,2751.877
2751887.0,220.0,33.0,3.0,253.0,2751.887
2751897.0,222.0,32.0,3.0,250.0,2751.897
2751907.0,213.0,32.0,4.0,244.0,2751.907
2751917.0,219.0,32.0,4.0,251.0,2751.917
2751927.0,225.0,33.0,2.0,257.0,2751.927
2751937.0,219.0,32.0,3.0,253.0,2751.937
2751947.0,222.0,33.0,3.0,253.0,2751.947
2751958.0,214.0,32.0,4.0,246.0,2751.958
2751968.0,221.0,32.0,3.0,256.0,2751.968
2751978.0,227.0,33.0,4.0,257.0,2751.978
2751988.0,217.0,31.0,4.0,249.0,2751.988
2751998.0,220.0,32.0,3.0,250.0,2751.998
2752008.0,214.0,32.0,4.0,247.0,2752.008
2752018.0,221.0,33.0,3.0,256.0,2752.018
2752028.0,227.0,32.0,4.0,255.0,2752.028
2752038.0,216.0,32.0,4.0,248.0,2752.038
2752048.0,222.0,32.0,4.0,252.0,2752.048
2752058.0,217.0,31.0,2.0,249.0,2752.058
2752068.0,224.0,32.0,4.0,258.0,2752.068
2752078.0,228.0,32.0,3.0,257.0,2752.078
2752088.0,219.0,32.0,4.0,253.0,2752.088
2752098.0,223.0,32.0,3.0,254.0,2752.098
2752108.0,218.0,33.0,4.0,252.0,2752.108
2752118.0,224.0,32.0,3.0,259.0,2752.118
2752128.0,229.0,33.0,4.0,259.0,2752.128
2752138.0,219.0,32.0,4.0,253.0,2752.138
2752148.0,222.0,33.0,3.0,254.0,2752.148
2752158.0,220.0,32.0,3.0,254.0,2752.158
2752168.0,223.0,32.0,4.0,260.0,2752.168
2752178.0,227.0,32.0,4.0,259.0,2752.178
2752188.0,218.0,32.0,4.0,254.0,2752.188
2752198.0,222.0,32.0,4.0,254.0,2752.198
2752208.0,221.0,33.0,3.0,256.0,2752.208
2752218.0,223.0,32.0,4.0,260.0,2752.218
2752228.0,229.0,32.0,3.0,261.0,2752.228
2752238.0,220.0,32.0,4.0,255.0,2752.238
2752248.0,223.0,32.0,4.0,256.0,2752.248
2752258.0,217.0,32.0,5.0,254.0,2752.258
2752268.0,225.0,33.0,4.0,264.0,2752.268
2752278.0,229.0,33.0,3.0,262.0,2752.278
2752288.0,218.0,32.0,3.0,255.0,2752.288
2752299.0,222.0,32.0,4.0,256.0,2752.299
2752309.0,224.0,33.0,3.0,260.0,2752.309
2752319.0,224.0,32.0,4.0,261.0,2752.319
2752329.0,227.0,33.0,4.0,258.0,2752.329
2752339.0,216.0,33.0,3.0,251.0,2752.339
2752349.0,222.0,32.0,4.0,255.0,2752.349
2752359.0,224.0,32.0,4.0,259.0,2752.359
2752369.0,224.0,32.0,5.0,259.0,2752.369
2752379.0,226.0,33.0,3.0,255.0,2752.379
2752389.0,218.0,32.0,5.0,251.0,2752.389
2752399.0,221.0,33.0,3.0,255.0,2752.399
2752409.0,225.0,32.0,4.0,259.0,2752.409
2752419.0,223.0,32.0,3.0,259.0,2752.419
2752429.0,229.0,32.0,4.0,256.0,2752.429
2752439.0,218.0,32.0,4.0,251.0,2752.439
2752449.0,222.0,32.0,3.0,256.0,2752.449
2752459.0,228.0,33.0,3.0,263.0,2752.459
2752470.0,223.0,32.0,3.0,260.0,2752.47
2752480.0,227.0,32.0,3.0,258.0,2752.48
2752490.0,216.0,33.0,4.0,250.0,2752.49
2752500.0,224.0,31.0,4.0,259.0,2752.5
2752510.0,230.0,33.0,4.0,262.0,2752.51
2752520.0,225.0,32.0,4.0,261.0,2752.52
2752530.0,226.0,33.0,4.0,260.0,2752.53
2752540.0,216.0,32.0,3.0,252.0,2752.54
2752550.0,224.0,32.0,3.0,262.0,2752.55
2752560.0,229.0,32.0,4.0,263.0,2752.56
2752570.0,222.0,32.0,3.0,260.0,2752.57
2752580.0,226.0,32.0,4.0,257.0,2752.58
2752590.0,215.0,33.0,3.0,255.0,2752.59
2752600.0,221.0,32.0,3.0,260.0,2752.6
2752610.0,233.0,32.0,4.0,263.0,2752.61
2752620.0,225.0,32.0,5.0,258.0,2752.62
2752630.0,228.0,31.0,4.0,257.0,2752.63
2752640.0,218.0,32.0,4.0,250.0,2752.64
2752650.0,224.0,32.0,4.0,263.0,2752.65
2752660.0,233.0,33.0,3.0,270.0,2752.66
2752670.0,225.0,32.0,4.0,265.0,2752.67
2752680.0,228.0,32.0,4.0,266.0,2752.68
2752690.0,218.0,32.0,4.0,256.0,2752.69
2752700.0,226.0,33.0,3.0,265.0,2752.7
2752710.0,232.0,32.0,4.0,268.0,2752.71
2752720.0,224.0,33.0,3.0,272.0,2752.72
2752730.0,228.0,33.0,3.0,277.0,2752.73
2752740.0,219.0,32.0,4.0,267.0,2752.74
2752750.0,227.0,32.0,4.0,273.0,2752.75
2752760.0,231.0,33.0,3.0,276.0,2752.76
2752770.0,224.0,32.0,4.0,273.0,2752.77
2752780.0,224.0,32.0,3.0,270.0,2752.78
2752790.0,214.0,33.0,3.0,260.0,2752.79
2752800.0,219.0,32.0,4.0,270.0,2752.8
2752811.0,224.0,33.0,4.0,270.0,2752.811
2752821.0,215.0,32.0,4.0,258.0,2752.821
2752831.0,218.0,33.0,4.0,259.0,2752.831
2752841.0,216.0,32.0,4.0,256.0,2752.841
2752851.0,220.0,33.0,3.0,263.0,2752.851
2752861.0,224.0,33.0,4.0,260.0,2752.861
2752871.0,216.0,32.0,4.0,254.0,2752.871
2752881.0,220.0,32.0,5.0,258.0,2752.881
2752891.0,222.0,33.0,4.0,264.0,2752.891
2752901.0,225.0,32.0,4.0,267.0,2752.901
2752911.0,227.0,33.0,3.0,265.0,2752.911
2752921.0,218.0,32.0,3.0,257.0,2752.921
2752931.0,218.0,32.0,3.0,258.0,2752.931
2752941.0,213.0,32.0,3.0,259.0,2752.941
2752951.0,224.0,33.0,4.0,271.0,2752.951
2752961.0,230.0,33.0,4.0,273.0,2752.961
2752971.0,219.0,32.0,3.0,261.0,2752.971
2752982.0,222.0,34.0,3.0,263.0,2752.982
2752992.0,226.0,32.0,4.0,274.0,2752.992
2753002.0,227.0,33.0,3.0,280.0,2753.002
2753012.0,232.0,33.0,5.0,285.0,2753.012
2753022.0,221.0,33.0,4.0,277.0,2753.022
2753032.0,225.0,33.0,3.0,274.0,2753.032
2753042.0,225.0,34.0,3.0,277.0,2753.042
2753052.0,225.0,32.0,4.0,274.0,2753.052
2753062.0,225.0,33.0,3.0,268.0,2753.062
2753072.0,219.0,32.0,4.0,263.0,2753.072
2753082.0,223.0,31.0,4.0,268.0,2753.082
2753092.0,224.0,33.0,3.0,269.0,2753.092
2753102.0,222.0,33.0,4.0,263.0,2753.102
2753112.0,224.0,33.0,3.0,258.0,2753.112
2753122.0,215.0,32.0,4.0,247.0,2753.122
2753132.0,213.0,33.0,4.0,251.0,2753.132
2753142.0,221.0,33.0,4.0,258.0,2753.142
2753152.0,218.0,32.0,4.0,257.0,2753.152
2753162.0,220.0,33.0,3.0,255.0,2753.162
2753172.0,211.0,33.0,3.0,247.0,2753.172
2753182.0,214.0,32.0,3.0,251.0,2753.182
2753192.0,220.0,33.0,4.0,256.0,2753.192
2753202.0,219.0,32.0,4.0,254.0,2753.202
2753212.0,219.0,33.0,4.0,252.0,2753.212
2753222.0,213.0,32.0,4.0,240.0,2753.222
2753232.0,220.0,33.0,3.0,247.0,2753.232
2753242.0,220.0,32.0,4.0,249.0,2753.242
2753252.0,222.0,32.0,4.0,253.0,2753.252
2753262.0,223.0,32.0,4.0,257.0,2753.262
2753272.0,212.0,32.0,4.0,246.0,2753.272
2753282.0,219.0,33.0,4.0,250.0,2753.282
2753292.0,222.0,32.0,4.0,257.0,2753.292
2753302.0,222.0,33.0,3.0,255.0,2753.302
2753312.0,222.0,32.0,4.0,251.0,2753.312
2753323.0,213.0,33.0,3.0,243.0,2753.323
2753333.0,220.0,32.0,5.0,250.0,2753.333
2753343.0,226.0,33.0,4.0,265.0,2753.343
2753353.0,220.0,32.0,3.0,253.0,2753.353
2753363.0,222.0,33.0,3.0,256.0,2753.363
2753373.0,214.0,33.0,3.0,247.0,2753.373
2753383.0,223.0,32.0,3.0,258.0,2753.383
2753393.0,230.0,32.0,4.0,262.0,2753.393
2753403.0,222.0,32.0,4.0,259.0,2753.403
2753413.0,226.0,33.0,4.0,263.0,2753.413
2753423.0,218.0,32.0,3.0,263.0,2753.423
2753433.0,225.0,33.0,3.0,272.0,2753.433
2753443.0,229.0,32.0,3.0,275.0,2753.443
2753453.0,223.0,32.0,3.0,269.0,2753.453
2753463.0,223.0,32.0,4.0,261.0,2753.463
2753473.0,212.0,32.0,4.0,252.0,2753.473
2753483.0,221.0,32.0,3.0,263.0,2753.483
2753494.0,225.0,33.0,3.0,271.0,2753.494
2753504.0,216.0,32.0,4.0,258.0,2753.504
2753514.0,217.0,32.0,3.0,259.0,2753.514
2753524.0,220.0,33.0,5.0,262.0,2753.524
2753534.0,224.0,32.0,3.0,264.0,2753.534
2753544.0,227.0,32.0,4.0,266.0,2753.544
2753554.0,217.0,33.0,3.0,258.0,2753.554
2753564.0,220.0,32.0,3.0,260.0,2753.564
2753574.0,220.0,32.0,4.0,258.0,2753.574
2753584.0,221.0,33.0,3.0,258.0,2753.584
2753594.0,224.0,33.0,4.0,257.0,2753.594
2753604.0,213.0,32.0,3.0,247.0,2753.604
2753614.0,216.0,33.0,4.0,250.0,2753.614
2753624.0,216.0,33.0,4.0,251.0,2753.624
2753634.0,223.0,32.0,4.0,259.0,2753.634
2753644.0,224.0,33.0,3.0,259.0,2753.644
2753654.0,215.0,31.0,5.0,250.0,2753.654
2753664.0,217.0,33.0,3.0,252.0,2753.664
2753674.0,214.0,32.0,4.0,249.0,2753.674
2753684.0,220.0,33.0,3.0,256.0,2753.684
2753694.0,223.0,32.0,4.0,254.0,2753.694
2753704.0,214.0,32.0,3.0,246.0,2753.704
2753714.0,219.0,32.0,3.0,251.0,2753.714
2753724.0,217.0,33.0,3.0,250.0,2753.724
2753734.0,220.0,33.0,3.0,256.0,2753.734
2753744.0,222.0,33.0,3.0,253.0,2753.744
2753754.0,214.0,32.0,3.0,248.0,2753.754
2753764.0,218.0,32.0,4.0,250.0,2753.764
2753774.0,215.0,33.0,3.0,253.0,2753.774
2753784.0,220.0,32.0,4.0,257.0,2753.784
2753794.0,222.0,33.0,3.0,258.0,2753.794
2753804.0,214.0,32.0,4.0,252.0,2753.804
2753814.0,218.0,34.0,3.0,255.0,2753.814
2753824.0,217.0,32.0,3.0,256.0,2753.824
2753835.0,223.0,32.0,3.0,261.0,2753.835
2753845.0,225.0,32.0,5.0,258.0,2753.845
2753855.0,214.0,33.0,4.0,248.0,2753.855
2753865.0,219.0,33.0,4.0,256.0,2753.865
2753875.0,226.0,33.0,3.0,264.0,2753.875
2753885.0,222.0,33.0,3.0,261.0,2753.885
2753895.0,224.0,32.0,3.0,258.0,2753.895
2753905.0,213.0,32.0,4.0,249.0,2753.905
2753915.0,220.0,31.0,4.0,257.0,2753.915
2753925.0,222.0,33.0,3.0,261.0,2753.925
2753935.0,222.0,32.0,3.0,260.0,2753.935
2753945.0,221.0,34.0,3.0,256.0,2753.945
2753955.0,213.0,32.0,4.0,248.0,2753.955
2753965.0,219.0,33.0,3.0,256.0,2753.965
2753975.0,226.0,33.0,4.0,261.0,2753.975
2753985.0,222.0,32.0,4.0,258.0,2753.985
2753995.0,222.0,32.0,3.0,256.0,2753.995
2754006.0,212.0,33.0,3.0,248.0,2754.006
2754016.0,218.0,32.0,3.0,257.0,2754.016
2754026.0,224.0,32.0,4.0,261.0,2754.026
2754036.0,219.0,32.0,5.0,257.0,2754.036
2754046.0,221.0,33.0,4.0,256.0,2754.046
2754056.0,213.0,32.0,5.0,248.0,2754.056
2754066.0,218.0,33.0,3.0,258.0,2754.066
2754076.0,224.0,33.0,3.0,261.0,2754.076
2754086.0,216.0,32.0,4.0,255.0,2754.086
2754096.0,221.0,33.0,3.0,255.0,2754.096
2754106.0,213.0,32.0,4.0,249.0,2754.106
2754116.0,218.0,33.0,2.0,261.0,2754.116
2754126.0,222.0,33.0,4.0,260.0,2754.126
2754136.0,218.0,32.0,4.0,256.0,2754.136
2754146.0,219.0,32.0,3.0,252.0,2754.146
2754156.0,209.0,32.0,4.0,245.0,2754.156
2754166.0,219.0,33.0,4.0,255.0,2754.166
2754176.0,224.0,32.0,3.0,257.0,2754.176
2754186.0,222.0,32.0,4.0,254.0,2754.186
2754196.0,225.0,33.0,3.0,254.0,2754.196
2754206.0,219.0,33.0,3.0,249.0,2754.206
2754216.0,226.0,32.0,4.0,260.0,2754.216
2754226.0,228.0,33.0,4.0,260.0,2754.226
2754236.0,222.0,33.0,4.0,256.0,2754.236
2754246.0,224.0,33.0,4.0,255.0,2754.246
2754256.0,217.0,33.0,4.0,251.0,2754.256
2754266.0,222.0,32.0,3.0,257.0,2754.266
2754276.0,227.0,32.0,4.0,260.0,2754.276
2754286.0,219.0,33.0,3.0,254.0,2754.286
2754296.0,222.0,33.0,4.0,251.0,2754.296
2754306.0,213.0,32.0,3.0,246.0,2754.306
2754316.0,221.0,32.0,3.0,257.0,2754.316
2754326.0,226.0,32.0,3.0,261.0,2754.326
2754336.0,217.0,32.0,4.0,256.0,2754.336
2754347.0,220.0,32.0,3.0,256.0,2754.347
2754357.0,217.0,32.0,5.0,256.0,2754.357
2754367.0,223.0,32.0,4.0,263.0,2754.367
2754377.0,225.0,33.0,4.0,259.0,2754.377
2754387.0,214.0,32.0,4.0,253.0,2754.387
2754397.0,220.0,32.0,4.0,256.0,2754.397
2754407.0,218.0,32.0,4.0,256.0,2754.407
2754417.0,223.0,32.0,3.0,264.0,2754.417
2754427.0,227.0,32.0,4.0,262.0,2754.427
2754437.0,217.0,32.0,4.0,257.0,2754.437
2754447.0,221.0,32.0,4.0,256.0,2754.447
2754457.0,220.0,33.0,3.0,257.0,2754.457
2754467.0,223.0,32.0,3.0,259.0,2754.467
2754477.0,227.0,33.0,3.0,259.0,2754.477
2754487.0,217.0,32.0,4.0,252.0,2754.487
2754497.0,220.0,33.0,3.0,253.0,2754.497
2754507.0,220.0,32.0,3.0,255.0,2754.507
2754518.0,222.0,33.0,3.0,259.0,2754.518
2754528.0,224.0,32.0,4.0,254.0,2754.528
2754538.0,214.0,32.0,4.0,247.0,2754.538
2754548.0,219.0,32.0,4.0,254.0,2754.548
2754558.0,227.0,33.0,3.0,260.0,2754.558
2754568.0,222.0,32.0,3.0,259.0,2754.568
2754578.0,225.0,33.0,3.0,256.0,2754.578
2754588.0,214.0,32.0,3.0,248.0,2754.588
2754598.0,220.0,32.0,4.0,255.0,2754.598
2754608.0,223.0,34.0,3.0,259.0,2754.608
2754618.0,223.0,32.0,5.0,258.0,2754.618
2754628.0,224.0,33.0,3.0,255.0,2754.628
2754638.0,214.0,33.0,3.0,246.0,2754.638
2754648.0,220.0,33.0,2.0,255.0,2754.648
2754658.0,225.0,33.0,4.0,259.0,2754.658
2754668.0,222.0,32.0,4.0,258.0,2754.668
2754678.0,224.0,33.0,5.0,255.0,2754.678
2754688.0,216.0,32.0,4.0,250.0,2754.688
2754698.0,220.0,33.0,4.0,254.0,2754.698
2754708.0,227.0,33.0,4.0,260.0,2754.708
2754718.0,223.0,33.0,3.0,257.0,2754.718
2754728.0,225.0,32.0,4.0,254.0,2754.728
2754738.0,217.0,33.0,3.0,249.0,2754.738
2754748.0,220.0,33.0,3.0,255.0,2754.748
2754758.0,227.0,34.0,2.0,260.0,2754.758
2754768.0,223.0,32.0,4.0,258.0,2754.768
2754778.0,227.0,33.0,4.0,257.0,2754.778
2754788.0,217.0,32.0,4.0,248.0,2754.788
2754798.0,222.0,33.0,3.0,256.0,2754.798
2754808.0,229.0,33.0,5.0,260.0,2754.808
2754818.0,226.0,33.0,3.0,259.0,2754.818
2754828.0,227.0,33.0,3.0,256.0,2754.828
2754838.0,216.0,33.0,3.0,247.0,2754.838
2754848.0,222.0,33.0,3.0,254.0,2754.848
2754859.0,229.0,32.0,4.0,258.0,2754.859
2754869.0,222.0,33.0,4.0,254.0,2754.869
2754879.0,224.0,33.0,4.0,255.0,2754.879
2754889.0,217.0,33.0,3.0,249.0,2754.889
2754899.0,226.0,33.0,3.0,259.0,2754.899
2754909.0,230.0,33.0,4.0,260.0,2754.909
2754919.0,223.0,32.0,3.0,254.0,2754.919
2754929.0,224.0,33.0,3.0,255.0,2754.929
2754939.0,219.0,32.0,4.0,251.0,2754.939
2754949.0,223.0,32.0,4.0,257.0,2754.949
2754959.0,229.0,33.0,3.0,261.0,2754.959
2754969.0,221.0,33.0,3.0,254.0,2754.969
2754979.0,224.0,32.0,4.0,253.0,2754.979
2754989.0,216.0,33.0,3.0,247.0,2754.989
2754999.0,224.0,32.0,4.0,257.0,2754.999
2755009.0,229.0,33.0,4.0,258.0,2755.009
2755019.0,220.0,32.0,3.0,251.0,2755.019
2755030.0,223.0,33.0,4.0,252.0,2755.03
2755040.0,220.0,33.0,3.0,251.0,2755.04
2755050.0,225.0,32.0,4.0,257.0,2755.05
2755060.0,228.0,33.0,4.0,255.0,2755.06
2755070.0,219.0,31.0,4.0,247.0,2755.07
2755080.0,223.0,32.0,4.0,252.0,2755.08
2755090.0,221.0,32.0,4.0,253.0,2755.09
2755100.0,226.0,32.0,3.0,256.0,2755.1
2755110.0,227.0,32.0,4.0,255.0,2755.11
2755120.0,219.0,32.0,4.0,248.0,2755.12
2755130.0,223.0,32.0,5.0,251.0,2755.13
2755140.0,223.0,33.0,4.0,255.0,2755.14
2755150.0,227.0,33.0,3.0,260.0,2755.15
2755160.0,230.0,33.0,3.0,261.0,2755.16
2755170.0,220.0,33.0,3.0,252.0,2755.17
2755180.0,223.0,33.0,3.0,254.0,2755.18
2755190.0,225.0,33.0,4.0,257.0,2755.19
2755200.0,227.0,32.0,3.0,260.0,2755.2
2755210.0,229.0,33.0,3.0,259.0,2755.21
2755220.0,218.0,32.0,4.0,249.0,2755.22
2755230.0,221.0,34.0,3.0,253.0,2755.23
2755240.0,224.0,32.0,3.0,258.0,2755.24
2755250.0,224.0,33.0,3.0,259.0,2755.25
2755260.0,227.0,33.0,3.0,257.0,2755.26
2755270.0,216.0,33.0,4.0,249.0,2755.27
2755280.0,221.0,33.0,4.0,252.0,2755.28
2755290.0,220.0,33.0,2.0,253.0,2755.29
2755300.0,225.0,32.0,3.0,258.0,2755.3
2755310.0,228.0,33.0,3.0,256.0,2755.31
2755320.0,217.0,33.0,3.0,247.0,2755.32
2755330.0,221.0,33.0,3.0,251.0,2755.33
2755340.0,220.0,33.0,4.0,252.0,2755.34
2755350.0,225.0,32.0,4.0,257.0,2755.35
2755360.0,227.0,34.0,3.0,254.0,2755.36
2755371.0,218.0,32.0,4.0,246.0,2755.371
2755381.0,221.0,33.0,3.0,251.0,2755.381
2755391.0,228.0,33.0,4.0,259.0,2755.391
2755401.0,224.0,33.0,3.0,255.0,2755.401
2755411.0,225.0,32.0,4.0,255.0,2755.411
2755421.0,218.0,32.0,3.0,246.0,2755.421
2755431.0,222.0,33.0,3.0,254.0,2755.431
2755441.0,228.0,33.0,4.0,260.0,2755.441
2755451.0,225.0,33.0,3.0,255.0,2755.451
2755461.0,227.0,33.0,4.0,256.0,2755.461
2755471.0,217.0,33.0,4.0,245.0,2755.471
2755481.0,223.0,33.0,3.0,253.0,2755.481
2755491.0,229.0,33.0,3.0,258.0,2755.491
2755501.0,225.0,33.0,3.0,256.0,2755.501
2755511.0,226.0,33.0,3.0,253.0,2755.511
2755521.0,217.0,33.0,4.0,244.0,2755.521
2755531.0,221.0,33.0,3.0,252.0,2755.531
2755542.0,227.0,33.0,4.0,257.0,2755.542
2755552.0,221.0,33.0,3.0,250.0,2755.552
2755562.0,222.0,34.0,3.0,251.0,2755.562
2755572.0,215.0,33.0,4.0,246.0,2755.572
2755582.0,225.0,33.0,4.0,257.0,2755.582
2755592.0,227.0,33.0,3.0,259.0,2755.592
2755602.0,221.0,33.0,4.0,250.0,2755.602
2755612.0,222.0,33.0,3.0,252.0,2755.612
2755622.0,218.0,32.0,3.0,248.0,2755.622
2755632.0,223.0,34.0,3.0,255.0,2755.632
2755642.0,229.0,33.0,4.0,259.0,2755.642
2755652.0,221.0,32.0,4.0,250.0,2755.652
2755662.0,222.0,33.0,3.0,252.0,2755.662
2755672.0,215.0,33.0,4.0,245.0,2755.672
2755682.0,223.0,34.0,3.0,256.0,2755.682
2755692.0,229.0,33.0,4.0,258.0,2755.692
2755702.0,221.0,33.0,4.0,250.0,2755.702
2755712.0,223.0,32.0,3.0,253.0,2755.712
2755722.0,215.0,33.0,2.0,245.0,2755.722
2755732.0,224.0,33.0,4.0,254.0,2755.732
2755742.0,229.0,34.0,3.0,258.0,2755.742
2755752.0,220.0,32.0,4.0,247.0,2755.752
2755762.0,223.0,33.0,3.0,252.0,2755.762
2755772.0,215.0,33.0,3.0,246.0,2755.772
2755782.0,224.0,32.0,4.0,257.0,2755.782
2755792.0,228.0,32.0,4.0,256.0,2755.792
2755802.0,221.0,31.0,4.0,251.0,2755.802
2755812.0,222.0,33.0,3.0,251.0,2755.812
2755822.0,217.0,33.0,3.0,246.0,2755.822
2755832.0,225.0,32.0,4.0,256.0,2755.832
2755842.0,229.0,33.0,4.0,257.0,2755.842
2755852.0,220.0,33.0,3.0,250.0,2755.852
2755862.0,223.0,32.0,4.0,251.0,2755.862
2755872.0,218.0,33.0,3.0,249.0,2755.872
2755883.0,225.0,32.0,3.0,256.0,2755.883
2755893.0,227.0,32.0,4.0,256.0,2755.893
2755903.0,219.0,32.0,3.0,248.0,2755.903
2755913.0,221.0,33.0,2.0,250.0,2755.913
2755923.0,225.0,32.0,4.0,255.0,2755.923
2755933.0,226.0,32.0,2.0,257.0,2755.933
2755943.0,228.0,32.0,4.0,255.0,2755.943
2755953.0,218.0,32.0,3.0,246.0,2755.953
2755963.0,222.0,33.0,2.0,252.0,2755.963
2755973.0,221.0,32.0,3.0,253.0,2755.973
2755983.0,226.0,32.0,4.0,258.0,2755.983
2755993.0,228.0,32.0,4.0,257.0,2755.993
2756003.0,219.0,33.0,3.0,248.0,2756.003
2756013.0,224.0,33.0,3.0,254.0,2756.013
2756023.0,223.0,32.0,4.0,256.0,2756.023
2756033.0,228.0,33.0,4.0,259.0,2756.033
2756043.0,228.0,32.0,4.0,258.0,2756.043
2756054.0,219.0,32.0,3.0,249.0,2756.054
2756064.0,223.0,33.0,3.0,254.0,2756.064
2756074.0,229.0,32.0,3.0,260.0,2756.074
2756084.0,225.0,32.0,4.0,255.0,2756.084
2756094.0,225.0,32.0,5.0,253.0,2756.094
2756104.0,217.0,32.0,3.0,246.0,2756.104
2756114.0,222.0,32.0,4.0,251.0,2756.114
2756124.0,229.0,33.0,3.0,259.0,2756.124
2756134.0,225.0,32.0,3.0,252.0,2756.134
2756144.0,227.0,32.0,4.0,253.0,2756.144
2756154.0,217.0,32.0,4.0,243.0,2756.154
2756164.0,224.0,31.0,4.0,252.0,2756.164
2756174.0,228.0,32.0,4.0,257.0,2756.174
2756184.0,226.0,32.0,4.0,255.0,2756.184
2756194.0,226.0,33.0,3.0,255.0,2756.194
2756204.0,218.0,32.0,4.0,246.0,2756.204
2756214.0,224.0,32.0,4.0,256.0,2756.214
2756224.0,228.0,32.0,3.0,259.0,2756.224
2756234.0,226.0,32.0,4.0,257.0,2756.234
2756244.0,226.0,32.0,4.0,255.0,2756.244
2756254.0,216.0,33.0,3.0,245.0,2756.254
2756264.0,223.0,32.0,3.0,256.0,2756.264
2756274.0,228.0,33.0,3.0,262.0,2756.274
2756284.0,225.0,32.0,4.0,258.0,2756.284
2756294.0,226.0,32.0,4.0,257.0,2756.294
2756304.0,216.0,32.0,4.0,246.0,2756.304
2756314.0,223.0,31.0,4.0,253.0,2756.314
2756324.0,228.0,33.0,3.0,260.0,2756.324
2756334.0,226.0,32.0,4.0,256.0,2756.334
2756344.0,225.0,32.0,4.0,255.0,2756.344
2756354.0,219.0,32.0,3.0,247.0,2756.354
2756364.0,224.0,32.0,4.0,254.0,2756.364
2756374.0,229.0,33.0,3.0,259.0,2756.374
2756384.0,224.0,33.0,3.0,253.0,2756.384
2756395.0,225.0,32.0,3.0,254.0,2756.395
2756405.0,216.0,32.0,4.0,247.0,2756.405
2756415.0,226.0,33.0,4.0,257.0,2756.415
2756425.0,228.0,33.0,4.0,258.0,2756.425
2756435.0,220.0,32.0,4.0,248.0,2756.435
2756445.0,223.0,32.0,4.0,252.0,2756.445
2756455.0,216.0,32.0,3.0,245.0,2756.455
2756465.0,224.0,32.0,3.0,257.0,2756.465
2756475.0,227.0,33.0,2.0,258.0,2756.475
2756485.0,220.0,32.0,3.0,251.0,2756.485
2756495.0,222.0,32.0,4.0,252.0,2756.495
2756505.0,217.0,32.0,4.0,249.0,2756.505
2756515.0,225.0,33.0,3.0,259.0,2756.515
2756525.0,228.0,33.0,3.0,260.0,2756.525
2756535.0,221.0,32.0,3.0,252.0,2756.535
2756545.0,223.0,32.0,5.0,253.0,2756.545
2756555.0,218.0,32.0,4.0,250.0,2756.555
2756566.0,225.0,32.0,4.0,256.0,2756.566
2756576.0,227.0,33.0,3.0,257.0,2756.576
2756586.0,218.0,32.0,3.0,247.0,2756.586
2756596.0,220.0,32.0,3.0,250.0,2756.596
2756606.0,225.0,32.0,5.0,256.0,2756.606
2756616.0,225.0,32.0,3.0,257.0,2756.616
2756626.0,226.0,33.0,3.0,256.0,2756.626
2756636.0,217.0,32.0,4.0,247.0,2756.636
2756646.0,221.0,32.0,3.0,251.0,2756.646
2756656.0,221.0,32.0,4.0,253.0,2756.656
2756666.0,225.0,32.0,4.0,257.0,2756.666
2756676.0,228.0,32.0,5.0,256.0,2756.676
2756686.0,218.0,32.0,2.0,246.0,2756.686
2756696.0,223.0,32.0,5.0,251.0,2756.696
2756706.0,222.0,33.0,3.0,253.0,2756.706
2756716.0,225.0,32.0,4.0,255.0,2756.716
2756726.0,226.0,32.0,4.0,254.0,2756.726
2756736.0,219.0,32.0,3.0,247.0,2756.736
2756746.0,222.0,31.0,4.0,250.0,2756.746
2756756.0,223.0,32.0,3.0,253.0,2756.756
2756766.0,227.0,32.0,4.0,259.0,2756.766
2756776.0,226.0,32.0,3.0,255.0,2756.776
2756786.0,219.0,32.0,3.0,248.0,2756.786
2756796.0,222.0,32.0,3.0,251.0,2756.796
2756806.0,225.0,32.0,4.0,255.0,2756.806
2756816.0,226.0,31.0,4.0,255.0,2756.816
2756826.0,229.0,32.0,4.0,255.0,2756.826
2756836.0,218.0,33.0,3.0,246.0,2756.836
2756846.0,220.0,32.0,4.0,248.0,2756.846
2756856.0,224.0,32.0,3.0,255.0,2756.856
2756866.0,226.0,32.0,4.0,256.0,2756.866
2756876.0,227.0,32.0,2.0,251.0,2756.876
2756886.0,218.0,32.0,4.0,241.0,2756.886
2756896.0,221.0,32.0,3.0,246.0,2756.896
2756907.0,225.0,32.0,3.0,251.0,2756.907
2756917.0,224.0,32.0,3.0,251.0,2756.917
2756927.0,224.0,32.0,4.0,250.0,2756.927
2756937.0,215.0,31.0,3.0,241.0,2756.937
2756947.0,222.0,32.0,4.0,252.0,2756.947
2756957.0,226.0,31.0,3.0,255.0,2756.957
2756967.0,223.0,33.0,3.0,253.0,2756.967
2756977.0,224.0,32.0,4.0,252.0,2756.977
2756987.0,215.0,32.0,4.0,243.0,2756.987
2756997.0,222.0,32.0,4.0,250.0,2756.997
2757007.0,226.0,32.0,2.0,255.0,2757.007
2757017.0,223.0,32.0,4.0,251.0,2757.017
2757027.0,224.0,33.0,3.0,252.0,2757.027
2757037.0,217.0,32.0,3.0,244.0,2757.037
2757047.0,221.0,32.0,3.0,251.0,2757.047
2757057.0,228.0,32.0,4.0,257.0,2757.057
2757067.0,223.0,31.0,4.0,252.0,2757.067
2757078.0,224.0,32.0,3.0,252.0,2757.078
2757088.0,217.0,32.0,3.0,247.0,2757.088
2757098.0,226.0,32.0,3.0,256.0,2757.098
2757108.0,229.0,32.0,3.0,257.0,2757.108
2757118.0,221.0,32.0,4.0,250.0,2757.118
2757128.0,226.0,33.0,4.0,253.0,2757.128
2757138.0,218.0,32.0,4.0,248.0,2757.138
2757148.0,226.0,32.0,4.0,258.0,2757.148
2757158.0,229.0,33.0,3.0,258.0,2757.158
2757168.0,223.0,32.0,3.0,252.0,2757.168
2757178.0,224.0,32.0,3.0,253.0,2757.178
2757188.0,220.0,32.0,5.0,249.0,2757.188
2757198.0,226.0,32.0,2.0,257.0,2757.198
2757208.0,229.0,32.0,4.0,258.0,2757.208
2757218.0,222.0,33.0,3.0,253.0,2757.218
2757228.0,223.0,32.0,3.0,253.0,2757.228
2757238.0,219.0,32.0,3.0,251.0,2757.238
2757248.0,223.0,32.0,3.0,256.0,2757.248
2757258.0,228.0,31.0,4.0,259.0,2757.258
2757268.0,220.0,32.0,4.0,252.0,2757.268
2757278.0,223.0,33.0,3.0,253.0,2757.278
2757288.0,219.0,33.0,3.0,252.0,2757.288
2757298.0,225.0,32.0,4.0,257.0,2757.298
2757308.0,228.0,33.0,4.0,257.0,2757.308
2757318.0,221.0,32.0,4.0,250.0,2757.318
2757328.0,222.0,32.0,4.0,251.0,2757.328
2757338.0,217.0,33.0,4.0,246.0,2757.338
2757348.0,226.0,33.0,3.0,257.0,2757.348
2757358.0,229.0,32.0,4.0,258.0,2757.358
2757368.0,220.0,33.0,4.0,251.0,2757.368
2757378.0,225.0,32.0,3.0,254.0,2757.378
2757388.0,218.0,33.0,3.0,250.0,2757.388
2757398.0,226.0,33.0,3.0,260.0,2757.398
2757408.0,229.0,33.0,3.0,261.0,2757.408
2757419.0,219.0,32.0,3.0,250.0,2757.419
2757429.0,223.0,32.0,4.0,252.0,2757.429
2757439.0,225.0,33.0,4.0,257.0,2757.439
2757449.0,226.0,31.0,4.0,257.0,2757.449
2757459.0,226.0,33.0,3.0,256.0,2757.459
2757469.0,219.0,31.0,4.0,250.0,2757.469
2757479.0,222.0,33.0,3.0,253.0,2757.479
2757489.0,225.0,32.0,4.0,257.0,2757.489
2757499.0,225.0,32.0,4.0,259.0,2757.499
2757509.0,229.0,32.0,4.0,258.0,2757.509
2757519.0,218.0,33.0,2.0,249.0,2757.519
2757529.0,222.0,32.0,4.0,252.0,2757.529
2757539.0,226.0,33.0,3.0,259.0,2757.539
2757549.0,226.0,32.0,3.0,258.0,2757.549
2757559.0,228.0,33.0,3.0,256.0,2757.559
2757569.0,218.0,33.0,4.0,248.0,2757.569
2757579.0,221.0,33.0,3.0,252.0,2757.579
2757590.0,225.0,33.0,3.0,258.0,2757.59
2757600.0,224.0,32.0,4.0,257.0,2757.6
2757610.0,224.0,33.0,3.0,254.0,2757.61
2757620.0,215.0,32.0,4.0,246.0,2757.62
2757630.0,222.0,33.0,4.0,257.0,2757.63
2757640.0,226.0,32.0,4.0,258.0,2757.64
2757650.0,223.0,33.0,3.0,255.0,2757.65
2757660.0,224.0,33.0,4.0,253.0,2757.66
2757670.0,215.0,33.0,3.0,246.0,2757.67
2757680.0,221.0,33.0,3.0,253.0,2757.68
2757690.0,227.0,33.0,3.0,259.0,2757.69
2757700.0,224.0,32.0,5.0,255.0,2757.7
2757710.0,224.0,33.0,2.0,253.0,2757.71
2757720.0,217.0,33.0,4.0,246.0,2757.72
2757730.0,222.0,33.0,3.0,253.0,2757.73
2757740.0,228.0,32.0,3.0,259.0,2757.74
2757750.0,223.0,32.0,4.0,254.0,2757.75
2757760.0,225.0,33.0,3.0,255.0,2757.76
2757770.0,217.0,33.0,4.0,246.0,2757.77
2757780.0,222.0,33.0,3.0,255.0,2757.78
2757790.0,230.0,33.0,4.0,261.0,2757.79
2757800.0,223.0,33.0,3.0,254.0,2757.8
2757810.0,226.0,33.0,4.0,253.0,2757.81
2757820.0,216.0,33.0,3.0,245.0,2757.82
2757830.0,225.0,32.0,5.0,254.0,2757.83
2757840.0,229.0,33.0,4.0,259.0,2757.84
2757850.0,225.0,33.0,5.0,255.0,2757.85
2757860.0,225.0,33.0,3.0,253.0,2757.86
2757870.0,215.0,33.0,3.0,242.0,2757.87
2757880.0,223.0,32.0,4.0,254.0,2757.88
2757890.0,227.0,33.0,3.0,257.0,2757.89
2757900.0,225.0,31.0,4.0,254.0,2757.9
2757910.0,224.0,33.0,3.0,253.0,2757.91
2757920.0,216.0,33.0,4.0,245.0,2757.92
2757931.0,223.0,34.0,3.0,256.0,2757.931
2757941.0,229.0,32.0,4.0,258.0,2757.941
2757951.0,220.0,32.0,3.0,251.0,2757.951
2757961.0,223.0,32.0,4.0,252.0,2757.961
2757971.0,220.0,32.0,4.0,252.0,2757.971
2757981.0,224.0,32.0,3.0,256.0,2757.981
2757991.0,228.0,34.0,3.0,259.0,2757.991
2758001.0,220.0,32.0,4.0,250.0,2758.001
2758011.0,223.0,33.0,3.0,252.0,2758.011
2758021.0,217.0,32.0,5.0,247.0,2758.021
2758031.0,225.0,32.0,4.0,256.0,2758.031
2758041.0,229.0,33.0,3.0,257.0,2758.041
2758051.0,220.0,33.0,3.0,250.0,2758.051
2758061.0,224.0,33.0,3.0,252.0,2758.061
2758071.0,218.0,32.0,4.0,247.0,2758.071
2758081.0,225.0,32.0,4.0,257.0,2758.081
2758091.0,230.0,33.0,4.0,257.0,2758.091
2758102.0,220.0,32.0,4.0,248.0,2758.102
2758112.0,223.0,33.0,4.0,252.0,2758.112
2758122.0,224.0,33.0,3.0,255.0,2758.122
2758132.0,226.0,32.0,4.0,256.0,2758.132
2758142.0,228.0,32.0,4.0,256.0,2758.142
2758152.0,221.0,33.0,4.0,249.0,2758.152
2758162.0,223.0,33.0,4.0,252.0,2758.162
2758172.0,227.0,33.0,4.0,256.0,2758.172
2758182.0,226.0,33.0,3.0,258.0,2758.182
2758192.0,230.0,33.0,3.0,257.0,2758.192
2758202.0,219.0,33.0,4.0,248.0,2758.202
2758212.0,223.0,33.0,4.0,252.0,2758.212
2758222.0,227.0,33.0,3.0,257.0,2758.222
2758232.0,228.0,33.0,4.0,259.0,2758.232
2758242.0,229.0,33.0,4.0,257.0,2758.242
2758252.0,219.0,33.0,3.0,247.0,2758.252
2758262.0,222.0,32.0,4.0,250.0,2758.262
2758272.0,222.0,34.0,3.0,252.0,2758.272
2758282.0,227.0,32.0,5.0,257.0,2758.282
2758292.0,228.0,33.0,4.0,254.0,2758.292
2758302.0,218.0,32.0,4.0,245.0,2758.302
2758312.0,222.0,33.0,3.0,252.0,2758.312
2758322.0,223.0,32.0,4.0,255.0,2758.322
2758332.0,226.0,33.0,3.0,257.0,2758.332
2758342.0,227.0,33.0,4.0,255.0,2758.342
2758352.0,216.0,32.0,4.0,246.0,2758.352
2758362.0,221.0,33.0,3.0,252.0,2758.362
2758372.0,223.0,33.0,3.0,255.0,2758.372
2758382.0,224.0,32.0,4.0,256.0,2758.382
2758392.0,226.0,32.0,4.0,255.0,2758.392
2758402.0,217.0,33.0,4.0,248.0,2758.402
2758412.0,222.0,32.0,4.0,250.0,2758.412
2758422.0,223.0,33.0,4.0,255.0,2758.422
2758432.0,223.0,32.0,4.0,255.0,2758.432
2758443.0,224.0,34.0,3.0,253.0,2758.443
2758453.0,215.0,32.0,4.0,244.0,2758.453
2758463.0,219.0,33.0,3.0,252.0,2758.463
2758473.0,228.0,33.0,5.0,256.0,2758.473
2758483.0,220.0,32.0,4.0,250.0,2758.483
2758493.0,223.0,33.0,5.0,251.0,2758.493
2758503.0,214.0,33.0,3.0,245.0,2758.503
2758513.0,221.0,32.0,3.0,254.0,2758.513
2758523.0,228.0,32.0,4.0,257.0,2758.523
2758533.0,222.0,33.0,3.0,254.0,2758.533
2758543.0,224.0,33.0,3.0,253.0,2758.543
2758553.0,214.0,32.0,3.0,244.0,2758.553
2758563.0,222.0,32.0,4.0,254.0,2758.563
2758573.0,226.0,32.0,4.0,257.0,2758.573
2758583.0,223.0,32.0,3.0,254.0,2758.583
2758593.0,224.0,33.0,4.0,253.0,2758.593
2758603.0,216.0,32.0,4.0,245.0,2758.603
2758614.0,224.0,32.0,4.0,257.0,2758.614
2758624.0,230.0,32.0,4.0,258.0,2758.624
2758634.0,221.0,32.0,3.0,251.0,2758.634
2758644.0,223.0,32.0,3.0,253.0,2758.644
2758654.0,221.0,32.0,3.0,254.0,2758.654
2758664.0,225.0,32.0,4.0,258.0,2758.664
2758674.0,228.0,33.0,4.0,259.0,2758.674
2758684.0,220.0,32.0,3.0,250.0,2758.684
2758694.0,223.0,33.0,3.0,252.0,2758.694
2758704.0,216.0,32.0,3.0,246.0,2758.704
2758714.0,225.0,32.0,4.0,257.0,2758.714
2758724.0,228.0,32.0,4.0,257.0,2758.724
2758734.0,219.0,32.0,4.0,249.0,2758.734
2758744.0,224.0,32.0,4.0,252.0,2758.744
2758754.0,218.0,32.0,4.0,249.0,2758.754
2758764.0,225.0,33.0,3.0,258.0,2758.764
2758774.0,228.0,32.0,4.0,256.0,2758.774
2758784.0,222.0,33.0,3.0,253.0,2758.784
2758794.0,224.0,32.0,5.0,252.0,2758.794
2758804.0,218.0,31.0,3.0,250.0,2758.804
2758814.0,226.0,32.0,3.0,258.0,2758.814
2758824.0,228.0,33.0,3.0,258.0,2758.824
2758834.0,221.0,32.0,3.0,253.0,2758.834
2758844.0,223.0,32.0,3.0,254.0,2758.844
2758854.0,220.0,32.0,4.0,254.0,2758.854
2758864.0,227.0,31.0,3.0,261.0,2758.864
2758874.0,229.0,31.0,3.0,260.0,2758.874
2758884.0,222.0,32.0,4.0,253.0,2758.884
2758894.0,225.0,33.0,3.0,254.0,2758.894
2758904.0,222.0,32.0,4.0,254.0,2758.904
2758914.0,225.0,32.0,3.0,260.0,2758.914
2758924.0,231.0,32.0,4.0,261.0,2758.924
2758934.0,221.0,32.0,4.0,253.0,2758.934
2758944.0,223.0,32.0,4.0,254.0,2758.944
2758955.0,223.0,32.0,3.0,256.0,2758.955
2758965.0,227.0,32.0,4.0,259.0,2758.965
2758975.0,228.0,32.0,3.0,257.0,2758.975
2758985.0,220.0,31.0,5.0,248.0,2758.985
2758995.0,222.0,31.0,3.0,253.0,2758.995
2759005.0,223.0,32.0,3.0,255.0,2759.005
2759015.0,227.0,32.0,4.0,258.0,2759.015
2759025.0,227.0,32.0,3.0,254.0,2759.025
2759035.0,217.0,31.0,3.0,245.0,2759.035
2759045.0,222.0,32.0,3.0,250.0,2759.045
2759055.0,224.0,32.0,4.0,253.0,2759.055
2759065.0,225.0,32.0,4.0,256.0,2759.065
2759075.0,225.0,32.0,3.0,253.0,2759.075
2759085.0,218.0,32.0,3.0,248.0,2759.085
2759095.0,222.0,32.0,3.0,251.0,2759.095
2759105.0,224.0,32.0,4.0,256.0,2759.105
2759115.0,225.0,32.0,5.0,256.0,2759.115
2759126.0,224.0,33.0,4.0,255.0,2759.126
2759136.0,216.0,32.0,4.0,245.0,2759.136
2759146.0,222.0,33.0,3.0,254.0,2759.146
2759156.0,228.0,32.0,4.0,258.0,2759.156
2759166.0,222.0,32.0,3.0,252.0,2759.166
2759176.0,225.0,32.0,4.0,253.0,2759.176
2759186.0,216.0,31.0,4.0,244.0,2759.186
2759196.0,222.0,33.0,3.0,255.0,2759.196
2759206.0,229.0,33.0,4.0,259.0,2759.206
2759216.0,224.0,32.0,3.0,254.0,2759.216
2759226.0,224.0,32.0,4.0,253.0,2759.226
2759236.0,215.0,33.0,3.0,245.0,2759.236
2759246.0,224.0,32.0,4.0,256.0,2759.246
2759256.0,227.0,33.0,4.0,257.0,2759.256
2759266.0,223.0,32.0,4.0,253.0,2759.266
2759276.0,224.0,34.0,3.0,253.0,2759.276
2759286.0,215.0,32.0,4.0,244.0,2759.286
2759296.0,221.0,33.0,3.0,253.0,2759.296
2759306.0,228.0,33.0,4.0,258.0,2759.306
2759316.0,225.0,32.0,4.0,254.0,2759.316
2759326.0,224.0,33.0,4.0,253.0,2759.326
2759336.0,217.0,33.0,3.0,247.0,2759.336
2759346.0,223.0,33.0,3.0,255.0,2759.346
2759356.0,229.0,33.0,3.0,260.0,2759.356
2759366.0,224.0,33.0,3.0,255.0,2759.366
2759376.0,226.0,32.0,4.0,254.0,2759.376
2759386.0,218.0,33.0,3.0,246.0,2759.386
2759396.0,223.0,33.0,4.0,254.0,2759.396
2759406.0,229.0,34.0,3.0,260.0,2759.406
2759416.0,223.0,32.0,3.0,254.0,2759.416
2759426.0,225.0,34.0,3.0,256.0,2759.426
2759436.0,217.0,32.0,5.0,247.0,2759.436
2759446.0,223.0,33.0,2.0,256.0,2759.446
2759456.0,229.0,33.0,4.0,260.0,2759.456
2759467.0,222.0,33.0,3.0,254.0,2759.467
2759477.0,223.0,32.0,4.0,254.0,2759.477
2759487.0,218.0,32.0,3.0,251.0,2759.487
2759497.0,225.0,32.0,4.0,258.0,2759.497
2759507.0,228.0,33.0,3.0,257.0,2759.507
2759517.0,221.0,32.0,4.0,252.0,2759.517
2759527.0,223.0,32.0,4.0,253.0,2759.527
2759537.0,219.0,33.0,3.0,252.0,2759.537
2759547.0,225.0,32.0,4.0,258.0,2759.547
2759557.0,228.0,32.0,4.0,260.0,2759.557
2759567.0,222.0,31.0,4.0,252.0,2759.567
2759577.0,223.0,32.0,3.0,254.0,2759.577
2759587.0,220.0,32.0,4.0,253.0,2759.587
2759597.0,224.0,33.0,3.0,258.0,2759.597
2759607.0,227.0,32.0,3.0,258.0,2759.607
2759617.0,219.0,32.0,4.0,252.0,2759.617
2759627.0,223.0,32.0,5.0,253.0,2759.627
2759638.0,222.0,33.0,2.0,257.0,2759.638
2759648.0,225.0,32.0,3.0,261.0,2759.648
2759658.0,227.0,33.0,3.0,260.0,2759.658
2759668.0,217.0,32.0,3.0,250.0,2759.668
2759678.0,221.0,32.0,3.0,255.0,2759.678
2759688.0,223.0,32.0,4.0,257.0,2759.688
2759698.0,225.0,31.0,4.0,259.0,2759.698
2759708.0,224.0,32.0,4.0,256.0,2759.708
2759718.0,217.0,32.0,4.0,248.0,2759.718
2759728.0,221.0,32.0,3.0,253.0,2759.728
2759738.0,224.0,32.0,3.0,257.0,2759.738
2759748.0,224.0,32.0,4.0,258.0,2759.748
2759758.0,225.0,32.0,4.0,255.0,2759.758
2759768.0,217.0,32.0,3.0,249.0,2759.768
2759778.0,221.0,32.0,3.0,251.0,2759.778
2759788.0,224.0,33.0,3.0,257.0,2759.788
2759798.0,225.0,32.0,3.0,257.0,2759.798
2759808.0,227.0,33.0,3.0,257.0,2759.808
2759818.0,218.0,32.0,4.0,249.0,2759.818
2759828.0,221.0,31.0,4.0,253.0,2759.828
2759838.0,224.0,33.0,3.0,259.0,2759.838
2759848.0,224.0,32.0,4.0,259.0,2759.848
2759858.0,226.0,33.0,4.0,257.0,2759.858
2759868.0,217.0,32.0,4.0,249.0,2759.868
2759878.0,221.0,33.0,3.0,254.0,2759.878
2759888.0,227.0,33.0,4.0,261.0,2759.888
2759898.0,227.0,32.0,4.0,260.0,2759.898
2759908.0,226.0,32.0,4.0,257.0,2759.908
2759918.0,217.0,33.0,3.0,251.0,2759.918
2759928.0,221.0,32.0,4.0,254.0,2759.928
2759938.0,222.0,32.0,4.0,256.0,2759.938
2759948.0,226.0,33.0,5.0,259.0,2759.948
2759958.0,225.0,33.0,4.0,255.0,2759.958
2759968.0,216.0,32.0,4.0,248.0,2759.968
2759979.0,221.0,33.0,3.0,254.0,2759.979
2759989.0,227.0,33.0,3.0,259.0,2759.989
2759999.0,224.0,33.0,3.0,256.0,2759.999
2760009.0,224.0,33.0,4.0,254.0,2760.009
2760019.0,216.0,33.0,4.0,247.0,2760.019
2760029.0,221.0,33.0,4.0,253.0,2760.029
2760039.0,227.0,33.0,4.0,257.0,2760.039
2760049.0,223.0,34.0,3.0,253.0,2760.049
2760059.0,223.0,32.0,4.0,252.0,2760.059
2760069.0,216.0,34.0,3.0,246.0,2760.069
2760079.0,223.0,33.0,4.0,254.0,2760.079
2760089.0,227.0,33.0,4.0,257.0,2760.089
2760099.0,222.0,32.0,4.0,252.0,2760.099
2760109.0,223.0,33.0,2.0,254.0,2760.109
2760119.0,216.0,33.0,3.0,245.0,2760.119
2760129.0,223.0,33.0,3.0,256.0,2760.129
2760139.0,228.0,33.0,4.0,258.0,2760.139
2760150.0,223.0,33.0,4.0,252.0,2760.15
2760160.0,222.0,33.0,3.0,253.0,2760.16
2760170.0,218.0,33.0,4.0,251.0,2760.17
2760180.0,226.0,33.0,3.0,258.0,2760.18
2760190.0,227.0,34.0,4.0,255.0,2760.19
2760200.0,221.0,33.0,3.0,252.0,2760.2
2760210.0,223.0,33.0,4.0,253.0,2760.21
2760220.0,219.0,33.0,2.0,252.0,2760.22
2760230.0,226.0,33.0,4.0,258.0,2760.23
2760240.0,228.0,33.0,3.0,259.0,2760.24
2760250.0,221.0,32.0,4.0,252.0,2760.25
2760260.0,222.0,33.0,3.0,254.0,2760.26
2760270.0,221.0,33.0,5.0,254.0,2760.27
2760280.0,225.0,33.0,3.0,258.0,2760.28
2760290.0,227.0,33.0,3.0,261.0,2760.29
2760300.0,221.0,33.0,3.0,254.0,2760.3
2760310.0,222.0,33.0,3.0,254.0,2760.31
2760320.0,216.0,33.0,4.0,251.0,2760.32
2760330.0,225.0,32.0,4.0,259.0,2760.33
2760340.0,228.0,33.0,4.0,258.0,2760.34
2760350.0,220.0,32.0,3.0,251.0,2760.35
2760360.0,221.0,33.0,3.0,252.0,2760.36
2760370.0,216.0,32.0,4.0,249.0,2760.37
2760380.0,225.0,32.0,3.0,256.0,2760.38
2760390.0,225.0,33.0,4.0,256.0,2760.39
2760400.0,218.0,32.0,5.0,248.0,2760.4
2760410.0,221.0,33.0,4.0,251.0,2760.41
2760420.0,216.0,33.0,3.0,248.0,2760.42
2760430.0,223.0,33.0,3.0,257.0,2760.43
2760440.0,225.0,32.0,4.0,254.0,2760.44
2760450.0,219.0,33.0,3.0,250.0,2760.45
2760460.0,220.0,32.0,4.0,250.0,2760.46
2760470.0,216.0,33.0,4.0,251.0,2760.47
2760480.0,222.0,32.0,4.0,256.0,2760.48
2760491.0,223.0,33.0,4.0,254.0,2760.491
2760501.0,214.0,33.0,3.0,246.0,2760.501
2760511.0,217.0,32.0,4.0,249.0,2760.511
2760521.0,221.0,33.0,4.0,254.0,2760.521
2760531.0,221.0,31.0,4.0,253.0,2760.531
2760541.0,221.0,33.0,3.0,251.0,2760.541
2760551.0,213.0,32.0,3.0,244.0,2760.551
2760561.0,216.0,33.0,3.0,247.0,2760.561
2760571.0,222.0,32.0,4.0,254.0,2760.571
2760581.0,221.0,33.0,3.0,255.0,2760.581
2760591.0,222.0,33.0,5.0,251.0,2760.591
2760601.0,212.0,32.0,4.0,244.0,2760.601
2760611.0,216.0,32.0,4.0,248.0,2760.611
2760621.0,218.0,32.0,4.0,250.0,2760.621
2760631.0,220.0,32.0,3.0,254.0,2760.631
2760641.0,221.0,32.0,4.0,250.0,2760.641
2760651.0,212.0,32.0,3.0,244.0,2760.651
2760662.0,216.0,31.0,4.0,249.0,2760.662
2760672.0,221.0,33.0,4.0,254.0,2760.672
2760682.0,217.0,32.0,3.0,250.0,2760.682
2760692.0,217.0,33.0,3.0,246.0,2760.692
2760702.0,210.0,32.0,4.0,240.0,2760.702
2760712.0,216.0,33.0,3.0,249.0,2760.712
2760722.0,222.0,32.0,4.0,252.0,2760.722
2760732.0,216.0,32.0,4.0,248.0,2760.732
2760742.0,217.0,32.0,3.0,248.0,2760.742
2760752.0,210.0,32.0,2.0,241.0,2760.752
2760762.0,216.0,32.0,3.0,249.0,2760.762
2760772.0,222.0,33.0,3.0,254.0,2760.772
2760782.0,216.0,32.0,4.0,248.0,2760.782
2760792.0,219.0,32.0,3.0,249.0,2760.792
2760802.0,210.0,32.0,3.0,241.0,2760.802
2760812.0,217.0,32.0,4.0,251.0,2760.812
2760822.0,223.0,32.0,3.0,254.0,2760.822
2760832.0,219.0,32.0,4.0,251.0,2760.832
2760842.0,219.0,32.0,4.0,249.0,2760.842
2760852.0,211.0,31.0,4.0,241.0,2760.852
2760862.0,218.0,33.0,3.0,251.0,2760.862
2760872.0,223.0,32.0,4.0,253.0,2760.872
2760882.0,218.0,32.0,4.0,250.0,2760.882
2760892.0,218.0,32.0,4.0,247.0,2760.892
2760902.0,209.0,32.0,3.0,242.0,2760.902
2760912.0,217.0,32.0,4.0,249.0,2760.912
2760922.0,220.0,32.0,3.0,251.0,2760.922
2760932.0,216.0,32.0,3.0,247.0,2760.932
2760942.0,217.0,33.0,4.0,245.0,2760.942
2760952.0,208.0,32.0,4.0,239.0,2760.952
2760962.0,214.0,32.0,3.0,246.0,2760.962
2760972.0,221.0,33.0,4.0,251.0,2760.972
2760982.0,216.0,31.0,4.0,246.0,2760.982
2760992.0,217.0,32.0,4.0,245.0,2760.992
2761003.0,210.0,32.0,3.0,241.0,2761.003
2761013.0,218.0,33.0,3.0,251.0,2761.013
2761023.0,222.0,32.0,4.0,250.0,2761.023
2761033.0,212.0,32.0,4.0,242.0,2761.033
2761043.0,216.0,33.0,4.0,243.0,2761.043
2761053.0,211.0,32.0,3.0,243.0,2761.053
2761063.0,218.0,32.0,3.0,251.0,2761.063
2761073.0,222.0,34.0,3.0,251.0,2761.073
2761083.0,212.0,32.0,3.0,242.0,2761.083
2761093.0,217.0,33.0,3.0,246.0,2761.093
2761103.0,212.0,32.0,4.0,242.0,2761.103
2761113.0,218.0,33.0,3.0,250.0,2761.113
2761123.0,221.0,33.0,3.0,248.0,2761.123
2761133.0,215.0,31.0,4.0,244.0,2761.133
2761143.0,218.0,33.0,3.0,245.0,2761.143
2761153.0,215.0,32.0,4.0,244.0,2761.153
2761163.0,220.0,32.0,4.0,250.0,2761.163
2761174.0,224.0,33.0,4.0,248.0,2761.174
2761184.0,211.0,32.0,4.0,241.0,2761.184
2761194.0,214.0,33.0,3.0,244.0,2761.194
2761204.0,218.0,34.0,3.0,250.0,2761.204
2761214.0,216.0,32.0,4.0,248.0,2761.214
2761224.0,220.0,34.0,3.0,248.0,2761.224
2761234.0,210.0,32.0,5.0,240.0,2761.234
2761244.0,213.0,32.0,4.0,243.0,2761.244
2761254.0,219.0,32.0,4.0,249.0,2761.254
2761264.0,217.0,31.0,4.0,249.0,2761.264
2761274.0,219.0,33.0,3.0,246.0,2761.274
2761284.0,209.0,32.0,4.0,238.0,2761.284
2761294.0,213.0,32.0,4.0,242.0,2761.294
2761304.0,216.0,32.0,3.0,246.0,2761.304
2761314.0,217.0,32.0,4.0,247.0,2761.314
2761324.0,219.0,32.0,4.0,246.0,2761.324
2761334.0,208.0,33.0,3.0,239.0,2761.334
2761344.0,214.0,32.0,4.0,242.0,2761.344
2761354.0,216.0,33.0,3.0,247.0,2761.354
2761364.0,217.0,32.0,5.0,248.0,2761.364
2761374.0,218.0,33.0,4.0,245.0,2761.374
2761384.0,209.0,32.0,4.0,237.0,2761.384
2761394.0,214.0,32.0,3.0,241.0,2761.394
2761404.0,217.0,32.0,4.0,245.0,2761.404
2761414.0,217.0,32.0,4.0,245.0,2761.414
2761424.0,219.0,33.0,4.0,243.0,2761.424
2761434.0,210.0,32.0,3.0,238.0,2761.434
2761444.0,213.0,33.0,3.0,240.0,2761.444
2761454.0,218.0,33.0,3.0,247.0,2761.454
2761464.0,216.0,32.0,3.0,246.0,2761.464
2761474.0,219.0,33.0,3.0,245.0,2761.474
2761484.0,209.0,32.0,4.0,237.0,2761.484
2761494.0,213.0,32.0,4.0,240.0,2761.494
2761504.0,218.0,32.0,3.0,248.0,2761.504
2761515.0,216.0,32.0,4.0,247.0,2761.515
2761525.0,217.0,34.0,3.0,246.0,2761.525
2761535.0,207.0,32.0,4.0,237.0,2761.535
2761545.0,215.0,32.0,4.0,246.0,2761.545
2761555.0,222.0,32.0,5.0,249.0,2761.555
2761565.0,214.0,32.0,4.0,245.0,2761.565
2761575.0,216.0,32.0,3.0,243.0,2761.575
2761585.0,207.0,32.0,3.0,237.0,2761.585
2761595.0,216.0,32.0,3.0,246.0,2761.595
2761605.0,219.0,32.0,4.0,247.0,2761.605
2761615.0,213.0,32.0,4.0,242.0,2761.615
