time (ms),signal 0,signal 1,signal 2,signal 3,time (sec)
2777777.0,207.0,33.0,4.0,235.0,2777.777
2777787.0,212.0,34.0,4.0,243.0,2777.787
2777797.0,217.0,34.0,3.0,249.0,2777.797
2777807.0,214.0,33.0,4.0,244.0,2777.807
2777817.0,216.0,34.0,4.0,245.0,2777.817
2777827.0,208.0,32.0,4.0,236.0,2777.827
2777837.0,213.0,33.0,4.0,244.0,2777.837
2777847.0,220.0,33.0,4.0,248.0,2777.847
2777857.0,216.0,34.0,3.0,245.0,2777.857
2777867.0,216.0,33.0,3.0,242.0,2777.867
2777877.0,208.0,33.0,3.0,234.0,2777.877
2777887.0,213.0,34.0,3.0,242.0,2777.887
2777897.0,219.0,32.0,4.0,247.0,2777.897
2777907.0,216.0,33.0,3.0,246.0,2777.907
2777917.0,217.0,33.0,4.0,244.0,2777.917
2777927.0,208.0,33.0,3.0,236.0,2777.927
2777937.0,214.0,33.0,3.0,246.0,2777.937
2777947.0,218.0,33.0,2.0,248.0,2777.947
2777957.0,216.0,32.0,4.0,246.0,2777.957
2777967.0,218.0,33.0,3.0,245.0,2777.967
2777977.0,210.0,33.0,4.0,237.0,2777.977
2777987.0,215.0,33.0,3.0,244.0,2777.987
2777997.0,220.0,33.0,3.0,250.0,2777.997
2778007.0,218.0,34.0,3.0,248.0,2778.007
2778017.0,218.0,33.0,4.0,246.0,2778.017
2778027.0,211.0,33.0,3.0,240.0,2778.027
2778037.0,216.0,33.0,4.0,245.0,2778.037
2778047.0,222.0,33.0,3.0,252.0,2778.047
2778057.0,218.0,33.0,3.0,247.0,2778.057
2778067.0,219.0,33.0,4.0,247.0,2778.067
2778077.0,212.0,32.0,3.0,240.0,2778.077
2778087.0,217.0,32.0,4.0,248.0,2778.087
2778097.0,223.0,33.0,3.0,253.0,2778.097
2778107.0,220.0,32.0,5.0,248.0,2778.107
2778117.0,221.0,33.0,3.0,249.0,2778.117
2778127.0,211.0,33.0,3.0,240.0,2778.127
2778137.0,219.0,33.0,3.0,251.0,2778.137
2778147.0,224.0,32.0,3.0,254.0,2778.147
2778157.0,220.0,33.0,3.0,253.0,2778.157
2778167.0,221.0,32.0,5.0,249.0,2778.167
2778177.0,212.0,31.0,4.0,242.0,2778.177
2778187.0,219.0,32.0,3.0,252.0,2778.187
2778198.0,227.0,33.0,4.0,257.0,2778.198
2778208.0,220.0,33.0,3.0,251.0,2778.208
2778218.0,221.0,32.0,3.0,251.0,2778.218
2778228.0,216.0,32.0,4.0,247.0,2778.228
2778238.0,224.0,32.0,4.0,256.0,2778.238
2778248.0,226.0,33.0,3.0,257.0,2778.248
2778258.0,220.0,32.0,4.0,250.0,2778.258
2778268.0,221.0,33.0,3.0,251.0,2778.268
2778278.0,218.0,32.0,3.0,248.0,2778.278
2778288.0,223.0,33.0,3.0,254.0,2778.288
2778298.0,228.0,32.0,4.0,255.0,2778.298
2778308.0,219.0,31.0,2.0,248.0,2778.308
2778318.0,220.0,33.0,3.0,249.0,2778.318
2778328.0,213.0,31.0,4.0,242.0,2778.328
2778338.0,222.0,32.0,3.0,252.0,2778.338
2778348.0,227.0,32.0,4.0,254.0,2778.348
2778358.0,219.0,32.0,4.0,249.0,2778.358
2778368.0,223.0,31.0,4.0,250.0,2778.368
2778378.0,214.0,31.0,4.0,244.0,2778.378
2778388.0,223.0,32.0,3.0,256.0,2778.388
2778398.0,227.0,33.0,3.0,256.0,2778.398
2778408.0,219.0,31.0,3.0,250.0,2778.408
2778418.0,222.0,32.0,3.0,252.0,2778.418
2778428.0,218.0,31.0,5.0,247.0,2778.428
2778438.0,225.0,31.0,2.0,259.0,2778.438
2778448.0,229.0,32.0,4.0,257.0,2778.448
2778458.0,223.0,31.0,4.0,253.0,2778.458
2778468.0,225.0,31.0,4.0,254.0,2778.468
2778478.0,221.0,31.0,4.0,254.0,2778.478
2778488.0,229.0,31.0,5.0,262.0,2778.488
2778498.0,228.0,32.0,3.0,260.0,2778.498
2778508.0,218.0,32.0,3.0,253.0,2778.508
2778518.0,221.0,32.0,3.0,252.0,2778.518
2778528.0,217.0,32.0,3.0,252.0,2778.528
2778539.0,223.0,32.0,3.0,263.0,2778.539
2778549.0,224.0,32.0,4.0,264.0,2778.549
2778559.0,216.0,31.0,4.0,255.0,2778.559
2778569.0,219.0,32.0,4.0,257.0,2778.569
2778579.0,224.0,32.0,3.0,265.0,2778.579
2778589.0,224.0,31.0,4.0,264.0,2778.589
2778599.0,226.0,32.0,3.0,259.0,2778.599
2778609.0,216.0,31.0,3.0,253.0,2778.609
2778619.0,224.0,31.0,4.0,258.0,2778.619
2778629.0,225.0,31.0,4.0,260.0,2778.629
2778639.0,230.0,31.0,4.0,264.0,2778.639
2778649.0,226.0,33.0,3.0,261.0,2778.649
2778659.0,214.0,31.0,3.0,249.0,2778.659
2778669.0,219.0,32.0,4.0,252.0,2778.669
2778679.0,218.0,32.0,3.0,252.0,2778.679
2778689.0,223.0,31.0,4.0,257.0,2778.689
2778699.0,224.0,32.0,4.0,257.0,2778.699
2778710.0,216.0,31.0,4.0,247.0,2778.71
2778720.0,220.0,32.0,3.0,254.0,2778.72
2778730.0,223.0,32.0,4.0,259.0,2778.73
2778740.0,220.0,32.0,3.0,256.0,2778.74
2778750.0,220.0,31.0,4.0,255.0,2778.75
2778760.0,213.0,31.0,3.0,249.0,2778.76
2778770.0,218.0,31.0,4.0,255.0,2778.77
2778780.0,225.0,32.0,3.0,259.0,2778.78
2778790.0,223.0,30.0,4.0,255.0,2778.79
2778800.0,225.0,32.0,4.0,256.0,2778.8
2778810.0,217.0,31.0,5.0,247.0,2778.81
2778820.0,221.0,31.0,4.0,255.0,2778.82
2778830.0,224.0,33.0,3.0,262.0,2778.83
2778840.0,220.0,32.0,3.0,257.0,2778.84
2778850.0,222.0,32.0,3.0,255.0,2778.85
2778860.0,214.0,31.0,4.0,246.0,2778.86
2778870.0,219.0,32.0,4.0,254.0,2778.87
2778880.0,223.0,32.0,4.0,258.0,2778.88
2778890.0,222.0,32.0,2.0,258.0,2778.89
2778900.0,222.0,32.0,4.0,256.0,2778.9
2778910.0,214.0,32.0,3.0,248.0,2778.91
2778920.0,218.0,32.0,4.0,256.0,2778.92
2778930.0,227.0,33.0,3.0,262.0,2778.93
2778940.0,225.0,32.0,5.0,257.0,2778.94
2778950.0,224.0,31.0,3.0,255.0,2778.95
2778960.0,219.0,32.0,3.0,247.0,2778.96
2778970.0,223.0,31.0,4.0,255.0,2778.97
2778980.0,227.0,32.0,3.0,262.0,2778.98
2778990.0,224.0,32.0,4.0,257.0,2778.99
2779000.0,224.0,32.0,4.0,255.0,2779.0
2779010.0,215.0,32.0,4.0,248.0,2779.01
2779020.0,220.0,32.0,3.0,254.0,2779.02
2779030.0,226.0,32.0,3.0,260.0,2779.03
2779040.0,222.0,32.0,3.0,257.0,2779.04
2779051.0,223.0,32.0,3.0,253.0,2779.051
2779061.0,215.0,33.0,4.0,247.0,2779.061
2779071.0,226.0,32.0,5.0,257.0,2779.071
2779081.0,227.0,32.0,4.0,260.0,2779.081
2779091.0,218.0,32.0,4.0,250.0,2779.091
2779101.0,223.0,33.0,3.0,253.0,2779.101
2779111.0,215.0,32.0,3.0,246.0,2779.111
2779121.0,223.0,32.0,3.0,258.0,2779.121
2779131.0,229.0,32.0,4.0,259.0,2779.131
2779141.0,223.0,31.0,4.0,254.0,2779.141
2779151.0,222.0,32.0,3.0,253.0,2779.151
2779161.0,216.0,32.0,3.0,247.0,2779.161
2779171.0,224.0,32.0,3.0,255.0,2779.171
2779181.0,229.0,33.0,3.0,255.0,2779.181
2779191.0,222.0,32.0,4.0,247.0,2779.191
2779201.0,224.0,32.0,4.0,247.0,2779.201
2779211.0,216.0,33.0,3.0,243.0,2779.211
2779222.0,229.0,32.0,3.0,253.0,2779.222
2779232.0,232.0,34.0,3.0,252.0,2779.232
2779242.0,224.0,32.0,4.0,245.0,2779.242
2779252.0,225.0,32.0,3.0,247.0,2779.252
2779262.0,227.0,33.0,4.0,251.0,2779.262
2779272.0,228.0,31.0,3.0,251.0,2779.272
2779282.0,230.0,33.0,4.0,250.0,2779.282
2779292.0,222.0,33.0,3.0,245.0,2779.292
2779302.0,225.0,32.0,3.0,245.0,2779.302
2779312.0,222.0,33.0,3.0,247.0,2779.312
2779322.0,229.0,32.0,4.0,253.0,2779.322
2779332.0,231.0,33.0,3.0,252.0,2779.332
2779342.0,219.0,32.0,4.0,243.0,2779.342
2779352.0,225.0,32.0,4.0,248.0,2779.352
2779362.0,222.0,34.0,3.0,248.0,2779.362
2779372.0,226.0,32.0,4.0,250.0,2779.372
2779382.0,228.0,33.0,4.0,249.0,2779.382
2779392.0,222.0,32.0,3.0,245.0,2779.392
2779402.0,224.0,32.0,4.0,248.0,2779.402
2779412.0,224.0,32.0,4.0,249.0,2779.412
2779422.0,226.0,33.0,3.0,251.0,2779.422
2779432.0,227.0,32.0,3.0,247.0,2779.432
2779442.0,219.0,33.0,3.0,243.0,2779.442
2779452.0,224.0,32.0,5.0,242.0,2779.452
2779462.0,223.0,31.0,4.0,244.0,2779.462
2779472.0,224.0,32.0,3.0,245.0,2779.472
2779482.0,228.0,32.0,3.0,245.0,2779.482
2779492.0,219.0,32.0,3.0,238.0,2779.492
2779502.0,223.0,32.0,4.0,244.0,2779.502
2779512.0,222.0,32.0,3.0,249.0,2779.512
2779522.0,225.0,31.0,4.0,255.0,2779.522
2779532.0,228.0,32.0,4.0,255.0,2779.532
2779542.0,218.0,32.0,4.0,246.0,2779.542
2779552.0,223.0,33.0,3.0,250.0,2779.552
2779563.0,227.0,32.0,4.0,254.0,2779.563
2779573.0,227.0,32.0,4.0,254.0,2779.573
2779583.0,230.0,32.0,5.0,251.0,2779.583
2779593.0,218.0,31.0,4.0,244.0,2779.593
2779603.0,224.0,32.0,4.0,253.0,2779.603
2779613.0,227.0,33.0,3.0,259.0,2779.613
2779623.0,225.0,32.0,3.0,257.0,2779.623
2779633.0,227.0,32.0,3.0,256.0,2779.633
2779643.0,218.0,31.0,4.0,248.0,2779.643
2779653.0,222.0,31.0,4.0,253.0,2779.653
2779663.0,228.0,32.0,3.0,261.0,2779.663
2779673.0,226.0,31.0,4.0,259.0,2779.673
2779683.0,227.0,33.0,3.0,259.0,2779.683
2779693.0,220.0,32.0,4.0,253.0,2779.693
2779703.0,223.0,32.0,4.0,256.0,2779.703
2779713.0,229.0,31.0,3.0,262.0,2779.713
2779723.0,224.0,31.0,4.0,258.0,2779.723
2779734.0,225.0,32.0,4.0,254.0,2779.734
2779744.0,215.0,32.0,3.0,246.0,2779.744
2779754.0,224.0,32.0,4.0,256.0,2779.754
2779764.0,233.0,32.0,3.0,258.0,2779.764
2779774.0,223.0,31.0,5.0,250.0,2779.774
2779784.0,225.0,31.0,3.0,251.0,2779.784
2779794.0,215.0,31.0,4.0,244.0,2779.794
2779804.0,223.0,33.0,3.0,254.0,2779.804
2779814.0,227.0,32.0,3.0,253.0,2779.814
2779824.0,221.0,31.0,3.0,250.0,2779.824
2779834.0,221.0,32.0,4.0,248.0,2779.834
2779844.0,214.0,31.0,4.0,243.0,2779.844
2779854.0,221.0,31.0,3.0,252.0,2779.854
2779864.0,225.0,32.0,3.0,255.0,2779.864
2779874.0,221.0,32.0,3.0,251.0,2779.874
2779884.0,222.0,32.0,4.0,249.0,2779.884
2779894.0,215.0,31.0,4.0,243.0,2779.894
2779904.0,220.0,31.0,4.0,248.0,2779.904
2779914.0,226.0,31.0,4.0,255.0,2779.914
2779924.0,221.0,31.0,4.0,251.0,2779.924
2779934.0,224.0,33.0,3.0,252.0,2779.934
2779944.0,217.0,31.0,3.0,247.0,2779.944
2779954.0,217.0,32.0,3.0,254.0,2779.954
2779964.0,223.0,32.0,4.0,256.0,2779.964
2779974.0,214.0,31.0,3.0,248.0,2779.974
2779984.0,217.0,32.0,4.0,249.0,2779.984
2779994.0,209.0,32.0,4.0,241.0,2779.994
2780004.0,217.0,32.0,3.0,247.0,2780.004
2780014.0,223.0,32.0,4.0,248.0,2780.014
2780024.0,215.0,31.0,4.0,240.0,2780.024
2780034.0,219.0,32.0,3.0,244.0,2780.034
2780044.0,210.0,31.0,4.0,238.0,2780.044
2780054.0,218.0,31.0,4.0,249.0,2780.054
2780064.0,223.0,33.0,3.0,252.0,2780.064
2780075.0,213.0,30.0,4.0,242.0,2780.075
2780085.0,218.0,31.0,3.0,245.0,2780.085
2780095.0,220.0,32.0,5.0,249.0,2780.095
2780105.0,224.0,31.0,3.0,254.0,2780.105
2780115.0,225.0,32.0,3.0,257.0,2780.115
2780125.0,217.0,32.0,4.0,249.0,2780.125
2780135.0,219.0,32.0,3.0,249.0,2780.135
2780145.0,219.0,32.0,4.0,250.0,2780.145
2780155.0,223.0,32.0,4.0,254.0,2780.155
2780165.0,228.0,31.0,4.0,255.0,2780.165
2780175.0,218.0,32.0,4.0,245.0,2780.175
2780185.0,222.0,32.0,3.0,251.0,2780.185
2780195.0,226.0,33.0,3.0,254.0,2780.195
2780205.0,227.0,32.0,4.0,257.0,2780.205
2780215.0,229.0,32.0,3.0,256.0,2780.215
2780225.0,220.0,31.0,4.0,248.0,2780.225
2780235.0,225.0,32.0,4.0,250.0,2780.235
2780246.0,226.0,32.0,4.0,255.0,2780.246
2780256.0,226.0,33.0,3.0,256.0,2780.256
2780266.0,227.0,32.0,4.0,252.0,2780.266
2780276.0,216.0,32.0,3.0,244.0,2780.276
2780286.0,218.0,32.0,4.0,253.0,2780.286
2780296.0,222.0,32.0,4.0,256.0,2780.296
2780306.0,221.0,32.0,4.0,256.0,2780.306
2780316.0,220.0,33.0,4.0,253.0,2780.316
2780326.0,211.0,32.0,3.0,243.0,2780.326
2780336.0,219.0,32.0,4.0,250.0,2780.336
2780346.0,222.0,33.0,3.0,256.0,2780.346
2780356.0,223.0,32.0,4.0,253.0,2780.356
2780366.0,222.0,32.0,3.0,252.0,2780.366
2780376.0,217.0,32.0,4.0,245.0,2780.376
2780386.0,221.0,34.0,3.0,250.0,2780.386
2780396.0,223.0,32.0,4.0,252.0,2780.396
2780406.0,219.0,32.0,3.0,247.0,2780.406
2780416.0,222.0,32.0,3.0,246.0,2780.416
2780426.0,215.0,33.0,2.0,238.0,2780.426
2780436.0,219.0,32.0,4.0,243.0,2780.436
2780446.0,224.0,33.0,3.0,252.0,2780.446
2780456.0,221.0,32.0,3.0,248.0,2780.456
2780466.0,224.0,32.0,3.0,251.0,2780.466
2780476.0,214.0,33.0,4.0,244.0,2780.476
2780486.0,219.0,31.0,4.0,251.0,2780.486
2780496.0,224.0,33.0,3.0,256.0,2780.496
2780506.0,221.0,33.0,4.0,256.0,2780.506
2780516.0,222.0,33.0,3.0,256.0,2780.516
2780526.0,213.0,32.0,3.0,244.0,2780.526
2780536.0,217.0,33.0,3.0,252.0,2780.536
2780546.0,220.0,33.0,3.0,254.0,2780.546
2780556.0,221.0,32.0,4.0,253.0,2780.556
2780566.0,221.0,32.0,4.0,252.0,2780.566
2780576.0,210.0,33.0,3.0,244.0,2780.576
2780587.0,217.0,32.0,3.0,250.0,2780.587
2780597.0,224.0,33.0,3.0,256.0,2780.597
2780607.0,220.0,33.0,4.0,250.0,2780.607
2780617.0,220.0,33.0,3.0,250.0,2780.617
2780627.0,214.0,33.0,3.0,245.0,2780.627
2780637.0,220.0,31.0,3.0,253.0,2780.637
2780647.0,225.0,33.0,3.0,256.0,2780.647
2780657.0,218.0,32.0,4.0,252.0,2780.657
2780667.0,220.0,32.0,3.0,253.0,2780.667
2780677.0,212.0,31.0,5.0,244.0,2780.677
2780687.0,220.0,32.0,4.0,254.0,2780.687
2780697.0,226.0,32.0,4.0,257.0,2780.697
2780707.0,218.0,33.0,3.0,250.0,2780.707
2780717.0,222.0,32.0,3.0,251.0,2780.717
2780727.0,213.0,33.0,3.0,242.0,2780.727
2780737.0,222.0,32.0,4.0,255.0,2780.737
2780747.0,226.0,32.0,4.0,257.0,2780.747
2780758.0,218.0,32.0,4.0,248.0,2780.758
2780768.0,221.0,33.0,3.0,251.0,2780.768
2780778.0,218.0,32.0,3.0,249.0,2780.778
2780788.0,223.0,32.0,4.0,254.0,2780.788
2780798.0,225.0,32.0,4.0,251.0,2780.798
2780808.0,218.0,31.0,4.0,246.0,2780.808
2780818.0,220.0,32.0,3.0,248.0,2780.818
2780828.0,218.0,32.0,4.0,249.0,2780.828
2780838.0,222.0,33.0,3.0,254.0,2780.838
2780848.0,226.0,32.0,4.0,255.0,2780.848
2780858.0,216.0,32.0,3.0,248.0,2780.858
2780868.0,221.0,32.0,4.0,250.0,2780.868
2780878.0,218.0,32.0,4.0,251.0,2780.878
2780888.0,221.0,32.0,4.0,254.0,2780.888
2780898.0,226.0,32.0,3.0,256.0,2780.898
2780908.0,216.0,31.0,4.0,247.0,2780.908
2780918.0,219.0,32.0,3.0,249.0,2780.918
2780928.0,214.0,31.0,4.0,244.0,2780.928
2780938.0,222.0,31.0,4.0,253.0,2780.938
2780948.0,224.0,32.0,4.0,253.0,2780.948
2780958.0,215.0,32.0,3.0,245.0,2780.958
2780968.0,219.0,32.0,3.0,247.0,2780.968
2780978.0,214.0,32.0,4.0,246.0,2780.978
2780988.0,222.0,31.0,4.0,254.0,2780.988
2780998.0,226.0,31.0,5.0,252.0,2780.998
2781008.0,215.0,31.0,2.0,245.0,2781.008
2781018.0,220.0,31.0,5.0,249.0,2781.018
2781028.0,216.0,33.0,3.0,248.0,2781.028
2781038.0,222.0,32.0,3.0,254.0,2781.038
2781048.0,225.0,32.0,3.0,253.0,2781.048
2781058.0,216.0,32.0,3.0,248.0,2781.058
2781068.0,219.0,31.0,2.0,249.0,2781.068
2781078.0,217.0,31.0,4.0,249.0,2781.078
2781088.0,222.0,32.0,3.0,256.0,2781.088
2781099.0,223.0,32.0,3.0,252.0,2781.099
2781109.0,212.0,31.0,3.0,244.0,2781.109
2781119.0,217.0,31.0,4.0,248.0,2781.119
2781129.0,222.0,31.0,3.0,255.0,2781.129
2781139.0,219.0,32.0,3.0,253.0,2781.139
2781149.0,224.0,31.0,4.0,252.0,2781.149
2781159.0,213.0,33.0,3.0,246.0,2781.159
2781169.0,218.0,32.0,3.0,250.0,2781.169
2781179.0,224.0,32.0,3.0,255.0,2781.179
2781189.0,223.0,32.0,4.0,254.0,2781.189
2781199.0,225.0,32.0,4.0,252.0,2781.199
2781209.0,214.0,32.0,4.0,244.0,2781.209
2781219.0,219.0,33.0,3.0,251.0,2781.219
2781229.0,221.0,32.0,3.0,253.0,2781.229
2781239.0,223.0,32.0,3.0,255.0,2781.239
2781249.0,225.0,32.0,4.0,253.0,2781.249
2781259.0,215.0,31.0,4.0,244.0,2781.259
2781270.0,220.0,33.0,3.0,252.0,2781.27
2781280.0,226.0,33.0,4.0,258.0,2781.28
2781290.0,220.0,33.0,3.0,254.0,2781.29
2781300.0,222.0,32.0,3.0,252.0,2781.3
2781310.0,213.0,33.0,3.0,247.0,2781.31
2781320.0,220.0,33.0,4.0,252.0,2781.32
2781330.0,225.0,33.0,4.0,257.0,2781.33
2781340.0,219.0,32.0,4.0,252.0,2781.34
2781350.0,220.0,34.0,3.0,252.0,2781.35
2781360.0,213.0,32.0,3.0,244.0,2781.36
2781370.0,219.0,33.0,3.0,253.0,2781.37
2781380.0,228.0,33.0,4.0,257.0,2781.38
2781390.0,219.0,33.0,3.0,251.0,2781.39
2781400.0,223.0,33.0,3.0,252.0,2781.4
2781410.0,213.0,34.0,3.0,245.0,2781.41
2781420.0,221.0,33.0,3.0,253.0,2781.42
2781430.0,227.0,33.0,4.0,257.0,2781.43
2781440.0,222.0,32.0,3.0,254.0,2781.44
2781450.0,223.0,33.0,3.0,253.0,2781.45
2781460.0,213.0,33.0,4.0,245.0,2781.46
2781470.0,221.0,33.0,4.0,256.0,2781.47
2781480.0,226.0,34.0,3.0,259.0,2781.48
2781490.0,221.0,32.0,4.0,255.0,2781.49
2781500.0,221.0,33.0,3.0,253.0,2781.5
2781510.0,213.0,33.0,4.0,246.0,2781.51
2781520.0,222.0,33.0,4.0,256.0,2781.52
2781530.0,226.0,33.0,4.0,257.0,2781.53
2781540.0,221.0,34.0,3.0,253.0,2781.54
2781550.0,222.0,32.0,3.0,251.0,2781.55
2781560.0,214.0,33.0,3.0,246.0,2781.56
2781570.0,220.0,34.0,4.0,252.0,2781.57
2781580.0,226.0,33.0,3.0,257.0,2781.58
2781590.0,218.0,33.0,3.0,253.0,2781.59
2781600.0,221.0,33.0,3.0,253.0,2781.6
2781611.0,214.0,34.0,3.0,248.0,2781.611
2781621.0,222.0,33.0,4.0,257.0,2781.621
2781631.0,225.0,33.0,4.0,257.0,2781.631
2781641.0,217.0,33.0,4.0,250.0,2781.641
2781651.0,218.0,33.0,3.0,251.0,2781.651
2781661.0,216.0,33.0,4.0,249.0,2781.661
2781671.0,222.0,34.0,3.0,257.0,2781.671
2781681.0,225.0,32.0,4.0,255.0,2781.681
2781691.0,215.0,33.0,3.0,248.0,2781.691
2781701.0,220.0,32.0,4.0,251.0,2781.701
2781711.0,215.0,33.0,2.0,250.0,2781.711
2781721.0,223.0,33.0,4.0,257.0,2781.721
2781731.0,225.0,34.0,3.0,256.0,2781.731
2781741.0,217.0,33.0,3.0,252.0,2781.741
2781751.0,220.0,33.0,3.0,251.0,2781.751
2781761.0,216.0,33.0,4.0,250.0,2781.761
2781771.0,222.0,33.0,4.0,257.0,2781.771
2781782.0,226.0,33.0,3.0,254.0,2781.782
2781792.0,215.0,32.0,4.0,247.0,2781.792
2781802.0,218.0,34.0,3.0,248.0,2781.802
2781812.0,223.0,32.0,4.0,254.0,2781.812
2781822.0,220.0,32.0,4.0,254.0,2781.822
2781832.0,223.0,32.0,4.0,252.0,2781.832
2781842.0,213.0,32.0,3.0,246.0,2781.842
2781852.0,216.0,32.0,3.0,250.0,2781.852
2781862.0,222.0,33.0,3.0,257.0,2781.862
2781872.0,222.0,32.0,4.0,256.0,2781.872
2781882.0,222.0,32.0,3.0,253.0,2781.882
2781892.0,213.0,32.0,4.0,245.0,2781.892
2781902.0,217.0,31.0,3.0,251.0,2781.902
2781912.0,219.0,32.0,4.0,252.0,2781.912
2781922.0,222.0,33.0,3.0,256.0,2781.922
2781932.0,223.0,33.0,4.0,254.0,2781.932
2781942.0,213.0,31.0,3.0,247.0,2781.942
2781952.0,217.0,33.0,3.0,251.0,2781.952
2781962.0,220.0,32.0,4.0,255.0,2781.962
2781972.0,221.0,33.0,3.0,257.0,2781.972
2781982.0,222.0,32.0,4.0,253.0,2781.982
2781992.0,213.0,33.0,3.0,247.0,2781.992
2782002.0,218.0,32.0,4.0,250.0,2782.002
2782012.0,221.0,32.0,3.0,256.0,2782.012
2782022.0,222.0,32.0,5.0,257.0,2782.022
2782032.0,221.0,32.0,4.0,254.0,2782.032
2782042.0,214.0,32.0,4.0,249.0,2782.042
2782052.0,217.0,33.0,3.0,251.0,2782.052
2782062.0,221.0,32.0,3.0,256.0,2782.062
2782072.0,221.0,32.0,3.0,256.0,2782.072
2782082.0,223.0,32.0,4.0,254.0,2782.082
2782092.0,215.0,32.0,3.0,249.0,2782.092
2782102.0,218.0,32.0,4.0,252.0,2782.102
2782112.0,222.0,32.0,4.0,258.0,2782.112
2782123.0,220.0,33.0,3.0,256.0,2782.123
2782133.0,220.0,32.0,3.0,253.0,2782.133
2782143.0,211.0,32.0,3.0,245.0,2782.143
2782153.0,220.0,32.0,4.0,254.0,2782.153
2782163.0,224.0,32.0,4.0,257.0,2782.163
2782173.0,221.0,32.0,4.0,255.0,2782.173
2782183.0,220.0,33.0,3.0,253.0,2782.183
2782193.0,212.0,32.0,4.0,244.0,2782.193
2782203.0,220.0,32.0,3.0,256.0,2782.203
2782213.0,224.0,32.0,4.0,258.0,2782.213
2782223.0,219.0,31.0,3.0,255.0,2782.223
2782233.0,220.0,32.0,3.0,253.0,2782.233
2782243.0,212.0,33.0,3.0,248.0,2782.243
2782253.0,217.0,33.0,3.0,253.0,2782.253
2782263.0,224.0,32.0,3.0,259.0,2782.263
2782273.0,220.0,32.0,4.0,255.0,2782.273
2782283.0,221.0,32.0,4.0,253.0,2782.283
2782294.0,213.0,32.0,3.0,248.0,2782.294
2782304.0,223.0,32.0,3.0,260.0,2782.304
2782314.0,225.0,33.0,3.0,259.0,2782.314
2782324.0,217.0,32.0,4.0,252.0,2782.324
2782334.0,220.0,32.0,4.0,253.0,2782.334
2782344.0,214.0,32.0,5.0,249.0,2782.344
2782354.0,222.0,32.0,4.0,259.0,2782.354
2782364.0,225.0,32.0,4.0,258.0,2782.364
2782374.0,216.0,33.0,3.0,252.0,2782.374
2782384.0,220.0,32.0,3.0,254.0,2782.384
2782394.0,214.0,32.0,4.0,251.0,2782.394
2782404.0,222.0,32.0,4.0,260.0,2782.404
2782414.0,225.0,33.0,3.0,258.0,2782.414
2782424.0,218.0,32.0,4.0,255.0,2782.424
2782434.0,219.0,32.0,4.0,255.0,2782.434
2782444.0,215.0,32.0,4.0,253.0,2782.444
2782454.0,222.0,32.0,4.0,261.0,2782.454
2782464.0,225.0,33.0,3.0,261.0,2782.464
2782474.0,219.0,32.0,5.0,255.0,2782.474
2782484.0,220.0,33.0,4.0,255.0,2782.484
2782494.0,217.0,32.0,4.0,255.0,2782.494
2782504.0,223.0,33.0,3.0,263.0,2782.504
2782514.0,223.0,32.0,4.0,260.0,2782.514
2782524.0,217.0,32.0,3.0,254.0,2782.524
2782534.0,219.0,32.0,5.0,254.0,2782.534
2782544.0,217.0,31.0,4.0,255.0,2782.544
2782554.0,220.0,32.0,3.0,260.0,2782.554
2782564.0,225.0,33.0,3.0,260.0,2782.564
2782574.0,215.0,32.0,3.0,253.0,2782.574
2782584.0,218.0,32.0,4.0,253.0,2782.584
2782594.0,213.0,32.0,4.0,250.0,2782.594
2782604.0,221.0,32.0,4.0,257.0,2782.604
2782614.0,224.0,32.0,2.0,257.0,2782.614
2782624.0,216.0,31.0,3.0,251.0,2782.624
2782635.0,218.0,33.0,3.0,253.0,2782.635
2782645.0,219.0,32.0,3.0,254.0,2782.645
2782655.0,221.0,32.0,4.0,258.0,2782.655
2782665.0,222.0,32.0,4.0,254.0,2782.665
2782675.0,212.0,31.0,3.0,248.0,2782.675
2782685.0,218.0,32.0,3.0,253.0,2782.685
2782695.0,219.0,33.0,3.0,258.0,2782.695
2782705.0,222.0,32.0,3.0,258.0,2782.705
2782715.0,221.0,32.0,3.0,254.0,2782.715
2782725.0,215.0,32.0,4.0,250.0,2782.725
2782735.0,218.0,31.0,4.0,253.0,2782.735
2782745.0,221.0,32.0,4.0,257.0,2782.745
2782755.0,222.0,32.0,3.0,259.0,2782.755
2782765.0,223.0,33.0,3.0,256.0,2782.765
2782775.0,215.0,32.0,4.0,249.0,2782.775
2782785.0,217.0,32.0,3.0,253.0,2782.785
2782795.0,223.0,32.0,4.0,258.0,2782.795
2782806.0,222.0,32.0,4.0,257.0,2782.806
2782816.0,220.0,32.0,4.0,254.0,2782.816
2782826.0,213.0,33.0,3.0,248.0,2782.826
2782836.0,220.0,32.0,4.0,256.0,2782.836
2782846.0,224.0,32.0,3.0,260.0,2782.846
2782856.0,222.0,32.0,5.0,257.0,2782.856
2782866.0,220.0,31.0,3.0,254.0,2782.866
2782876.0,212.0,32.0,4.0,247.0,2782.876
2782886.0,220.0,33.0,3.0,259.0,2782.886
2782896.0,223.0,32.0,3.0,259.0,2782.896
2782906.0,221.0,31.0,4.0,256.0,2782.906
2782916.0,221.0,32.0,4.0,254.0,2782.916
2782926.0,213.0,31.0,4.0,247.0,2782.926
2782936.0,218.0,32.0,4.0,253.0,2782.936
2782946.0,224.0,33.0,3.0,260.0,2782.946
2782956.0,222.0,32.0,4.0,256.0,2782.956
2782966.0,221.0,32.0,3.0,254.0,2782.966
2782976.0,215.0,33.0,3.0,249.0,2782.976
2782986.0,220.0,32.0,4.0,255.0,2782.986
2782996.0,225.0,32.0,3.0,260.0,2782.996
2783006.0,221.0,32.0,4.0,256.0,2783.006
2783016.0,221.0,33.0,3.0,256.0,2783.016
2783026.0,214.0,32.0,3.0,248.0,2783.026
2783036.0,219.0,32.0,3.0,257.0,2783.036
2783046.0,225.0,33.0,4.0,260.0,2783.046
2783056.0,221.0,31.0,3.0,255.0,2783.056
2783066.0,222.0,32.0,3.0,254.0,2783.066
2783076.0,215.0,32.0,4.0,247.0,2783.076
2783086.0,219.0,32.0,3.0,256.0,2783.086
2783096.0,225.0,32.0,3.0,260.0,2783.096
2783106.0,221.0,32.0,4.0,257.0,2783.106
2783116.0,221.0,33.0,3.0,255.0,2783.116
2783126.0,213.0,33.0,4.0,247.0,2783.126
2783136.0,221.0,32.0,3.0,257.0,2783.136
2783147.0,225.0,34.0,3.0,260.0,2783.147
2783157.0,219.0,32.0,3.0,254.0,2783.157
2783167.0,220.0,33.0,3.0,255.0,2783.167
2783177.0,217.0,33.0,5.0,254.0,2783.177
2783187.0,224.0,33.0,2.0,262.0,2783.187
2783197.0,226.0,33.0,4.0,260.0,2783.197
2783207.0,219.0,33.0,4.0,255.0,2783.207
2783217.0,220.0,33.0,3.0,254.0,2783.217
2783227.0,218.0,33.0,3.0,254.0,2783.227
2783237.0,223.0,33.0,4.0,259.0,2783.237
2783247.0,226.0,34.0,4.0,259.0,2783.247
2783257.0,220.0,33.0,3.0,252.0,2783.257
2783267.0,220.0,33.0,4.0,252.0,2783.267
2783277.0,214.0,34.0,3.0,248.0,2783.277
2783287.0,223.0,32.0,4.0,257.0,2783.287
2783297.0,225.0,33.0,3.0,257.0,2783.297
2783307.0,220.0,32.0,4.0,250.0,2783.307
2783318.0,220.0,33.0,4.0,251.0,2783.318
2783328.0,220.0,32.0,4.0,253.0,2783.328
2783338.0,224.0,32.0,3.0,257.0,2783.338
2783348.0,223.0,32.0,3.0,252.0,2783.348
2783358.0,216.0,32.0,3.0,246.0,2783.358
2783368.0,220.0,32.0,4.0,251.0,2783.368
2783378.0,221.0,32.0,4.0,254.0,2783.378
2783388.0,224.0,32.0,4.0,256.0,2783.388
2783398.0,223.0,33.0,3.0,254.0,2783.398
2783408.0,218.0,32.0,3.0,250.0,2783.408
2783418.0,219.0,33.0,4.0,251.0,2783.418
2783428.0,221.0,33.0,4.0,256.0,2783.428
2783438.0,224.0,33.0,4.0,257.0,2783.438
2783448.0,226.0,33.0,3.0,257.0,2783.448
2783458.0,218.0,32.0,3.0,249.0,2783.458
2783468.0,220.0,33.0,3.0,251.0,2783.468
2783478.0,224.0,32.0,4.0,256.0,2783.478
2783488.0,225.0,32.0,3.0,258.0,2783.488
2783498.0,227.0,32.0,4.0,255.0,2783.498
2783508.0,218.0,31.0,4.0,248.0,2783.508
2783518.0,220.0,32.0,3.0,250.0,2783.518
2783528.0,225.0,32.0,4.0,257.0,2783.528
2783538.0,225.0,31.0,3.0,257.0,2783.538
2783548.0,225.0,32.0,3.0,253.0,2783.548
2783558.0,217.0,31.0,4.0,245.0,2783.558
2783568.0,221.0,31.0,3.0,250.0,2783.568
2783578.0,221.0,32.0,2.0,252.0,2783.578
2783588.0,225.0,32.0,3.0,256.0,2783.588
2783598.0,224.0,32.0,3.0,253.0,2783.598
2783608.0,218.0,32.0,4.0,245.0,2783.608
2783618.0,221.0,32.0,3.0,251.0,2783.618
2783628.0,222.0,32.0,4.0,253.0,2783.628
2783638.0,226.0,31.0,4.0,256.0,2783.638
2783648.0,224.0,32.0,4.0,253.0,2783.648
2783659.0,217.0,33.0,3.0,247.0,2783.659
2783669.0,221.0,32.0,4.0,252.0,2783.669
2783679.0,227.0,32.0,3.0,257.0,2783.679
2783689.0,225.0,32.0,5.0,253.0,2783.689
2783699.0,223.0,31.0,4.0,251.0,2783.699
2783709.0,216.0,31.0,3.0,245.0,2783.709
2783719.0,221.0,32.0,3.0,253.0,2783.719
2783729.0,226.0,32.0,3.0,258.0,2783.729
2783739.0,223.0,31.0,4.0,253.0,2783.739
2783749.0,222.0,32.0,3.0,253.0,2783.749
2783759.0,216.0,31.0,5.0,245.0,2783.759
2783769.0,221.0,32.0,2.0,255.0,2783.769
2783779.0,227.0,32.0,4.0,258.0,2783.779
2783789.0,224.0,33.0,4.0,256.0,2783.789
2783799.0,223.0,32.0,3.0,252.0,2783.799
2783809.0,216.0,31.0,3.0,245.0,2783.809
2783819.0,222.0,32.0,4.0,254.0,2783.819
2783830.0,227.0,32.0,3.0,258.0,2783.83
2783840.0,222.0,32.0,3.0,252.0,2783.84
2783850.0,222.0,33.0,3.0,253.0,2783.85
2783860.0,218.0,32.0,4.0,249.0,2783.86
2783870.0,226.0,32.0,4.0,257.0,2783.87
2783880.0,227.0,32.0,4.0,258.0,2783.88
2783890.0,222.0,31.0,4.0,253.0,2783.89
2783900.0,222.0,33.0,3.0,252.0,2783.9
2783910.0,220.0,32.0,4.0,251.0,2783.91
2783920.0,224.0,33.0,3.0,256.0,2783.92
2783930.0,228.0,32.0,4.0,257.0,2783.93
2783940.0,222.0,32.0,4.0,251.0,2783.94
2783950.0,224.0,32.0,4.0,251.0,2783.95
2783960.0,216.0,32.0,4.0,246.0,2783.96
2783970.0,225.0,32.0,4.0,258.0,2783.97
2783980.0,228.0,33.0,3.0,259.0,2783.98
2783990.0,221.0,32.0,3.0,251.0,2783.99
2784000.0,223.0,32.0,4.0,253.0,2784.0
2784010.0,217.0,32.0,4.0,247.0,2784.01
2784020.0,226.0,31.0,3.0,257.0,2784.02
2784030.0,226.0,32.0,3.0,257.0,2784.03
2784040.0,222.0,32.0,3.0,249.0,2784.04
2784050.0,223.0,32.0,3.0,251.0,2784.05
2784060.0,217.0,32.0,3.0,246.0,2784.06
2784070.0,225.0,32.0,4.0,256.0,2784.07
2784080.0,228.0,33.0,4.0,255.0,2784.08
2784090.0,222.0,33.0,3.0,251.0,2784.09
2784100.0,222.0,32.0,3.0,250.0,2784.1
2784110.0,217.0,34.0,3.0,248.0,2784.11
2784120.0,225.0,32.0,4.0,254.0,2784.12
2784130.0,226.0,33.0,3.0,257.0,2784.13
2784140.0,223.0,33.0,5.0,250.0,2784.14
2784150.0,222.0,33.0,3.0,250.0,2784.15
2784160.0,219.0,33.0,3.0,248.0,2784.16
2784171.0,226.0,32.0,3.0,256.0,2784.171
2784181.0,226.0,34.0,3.0,253.0,2784.181
2784191.0,219.0,32.0,4.0,246.0,2784.191
2784201.0,221.0,33.0,4.0,249.0,2784.201
2784211.0,225.0,33.0,4.0,254.0,2784.211
2784221.0,226.0,33.0,4.0,256.0,2784.221
2784231.0,226.0,33.0,4.0,252.0,2784.231
2784241.0,218.0,33.0,3.0,246.0,2784.241
2784251.0,220.0,33.0,4.0,247.0,2784.251
2784261.0,221.0,34.0,3.0,250.0,2784.261
2784271.0,227.0,33.0,4.0,255.0,2784.271
2784281.0,224.0,34.0,3.0,252.0,2784.281
2784291.0,217.0,33.0,3.0,245.0,2784.291
2784301.0,220.0,33.0,4.0,249.0,2784.301
2784311.0,220.0,32.0,4.0,251.0,2784.311
2784321.0,225.0,32.0,3.0,255.0,2784.321
2784331.0,224.0,33.0,4.0,252.0,2784.331
2784342.0,216.0,33.0,3.0,246.0,2784.342
2784352.0,219.0,33.0,3.0,251.0,2784.352
2784362.0,225.0,33.0,3.0,258.0,2784.362
2784372.0,223.0,32.0,3.0,255.0,2784.372
2784382.0,222.0,32.0,4.0,253.0,2784.382
2784392.0,217.0,33.0,4.0,247.0,2784.392
2784402.0,221.0,32.0,4.0,253.0,2784.402
2784412.0,227.0,33.0,4.0,258.0,2784.412
2784422.0,224.0,32.0,4.0,254.0,2784.422
2784432.0,224.0,33.0,4.0,253.0,2784.432
2784442.0,218.0,32.0,3.0,246.0,2784.442
2784452.0,221.0,33.0,3.0,254.0,2784.452
2784462.0,227.0,33.0,5.0,258.0,2784.462
2784472.0,225.0,32.0,4.0,256.0,2784.472
2784482.0,223.0,33.0,4.0,253.0,2784.482
2784492.0,217.0,32.0,3.0,246.0,2784.492
2784502.0,223.0,32.0,3.0,252.0,2784.502
2784512.0,226.0,33.0,3.0,256.0,2784.512
2784522.0,227.0,32.0,4.0,255.0,2784.522
2784532.0,224.0,33.0,4.0,252.0,2784.532
2784542.0,217.0,32.0,4.0,243.0,2784.542
2784552.0,224.0,33.0,3.0,254.0,2784.552
2784562.0,227.0,33.0,3.0,256.0,2784.562
2784572.0,225.0,32.0,4.0,253.0,2784.572
2784582.0,224.0,33.0,4.0,252.0,2784.582
2784592.0,217.0,31.0,4.0,246.0,2784.592
2784602.0,221.0,33.0,4.0,252.0,2784.602
2784612.0,227.0,33.0,3.0,257.0,2784.612
2784622.0,225.0,33.0,3.0,257.0,2784.622
2784632.0,224.0,32.0,3.0,253.0,2784.632
2784642.0,218.0,32.0,3.0,247.0,2784.642
2784652.0,221.0,32.0,4.0,253.0,2784.652
2784662.0,226.0,33.0,4.0,257.0,2784.662
2784672.0,224.0,32.0,3.0,253.0,2784.672
2784683.0,223.0,32.0,3.0,252.0,2784.683
2784693.0,216.0,32.0,3.0,246.0,2784.693
2784703.0,226.0,32.0,4.0,258.0,2784.703
2784713.0,227.0,33.0,4.0,257.0,2784.713
2784723.0,221.0,33.0,3.0,249.0,2784.723
2784733.0,221.0,32.0,3.0,251.0,2784.733
2784743.0,216.0,32.0,4.0,247.0,2784.743
2784753.0,226.0,32.0,3.0,259.0,2784.753
2784763.0,227.0,32.0,3.0,256.0,2784.763
2784773.0,222.0,33.0,3.0,254.0,2784.773
2784783.0,223.0,31.0,5.0,252.0,2784.783
2784793.0,216.0,32.0,2.0,249.0,2784.793
2784803.0,225.0,32.0,3.0,257.0,2784.803
2784813.0,227.0,31.0,4.0,257.0,2784.813
2784823.0,222.0,32.0,3.0,251.0,2784.823
2784833.0,222.0,32.0,4.0,251.0,2784.833
2784843.0,217.0,32.0,5.0,249.0,2784.843
2784854.0,227.0,31.0,4.0,258.0,2784.854
2784864.0,226.0,33.0,2.0,255.0,2784.864
2784874.0,218.0,32.0,3.0,247.0,2784.874
2784884.0,219.0,32.0,3.0,250.0,2784.884
2784894.0,223.0,32.0,3.0,254.0,2784.894
2784904.0,225.0,32.0,3.0,256.0,2784.904
2784914.0,226.0,31.0,4.0,254.0,2784.914
2784924.0,218.0,31.0,4.0,246.0,2784.924
2784934.0,220.0,32.0,3.0,249.0,2784.934
2784944.0,220.0,32.0,4.0,250.0,2784.944
2784954.0,225.0,32.0,4.0,254.0,2784.954
2784964.0,224.0,32.0,3.0,252.0,2784.964
2784974.0,217.0,31.0,4.0,245.0,2784.974
2784984.0,221.0,32.0,3.0,249.0,2784.984
2784994.0,220.0,32.0,3.0,251.0,2784.994
2785004.0,224.0,32.0,3.0,256.0,2785.004
2785014.0,223.0,32.0,3.0,252.0,2785.014
2785024.0,219.0,32.0,3.0,249.0,2785.024
2785034.0,221.0,32.0,4.0,250.0,2785.034
2785044.0,222.0,32.0,4.0,253.0,2785.044
2785054.0,224.0,31.0,3.0,257.0,2785.054
2785064.0,223.0,32.0,4.0,252.0,2785.064
2785074.0,218.0,32.0,3.0,249.0,2785.074
2785084.0,220.0,32.0,4.0,250.0,2785.084
2785094.0,221.0,32.0,3.0,255.0,2785.094
2785104.0,225.0,32.0,5.0,256.0,2785.104
2785114.0,225.0,33.0,2.0,256.0,2785.114
2785124.0,218.0,31.0,3.0,248.0,2785.124
2785134.0,220.0,33.0,3.0,251.0,2785.134
2785144.0,223.0,32.0,3.0,254.0,2785.144
2785154.0,225.0,32.0,3.0,257.0,2785.154
2785164.0,225.0,32.0,5.0,254.0,2785.164
2785174.0,217.0,31.0,4.0,248.0,2785.174
2785184.0,220.0,32.0,4.0,250.0,2785.184
2785195.0,223.0,32.0,3.0,256.0,2785.195
2785205.0,223.0,33.0,4.0,256.0,2785.205
2785215.0,223.0,32.0,4.0,253.0,2785.215
2785225.0,215.0,32.0,4.0,245.0,2785.225
2785235.0,222.0,31.0,4.0,255.0,2785.235
2785245.0,223.0,32.0,3.0,257.0,2785.245
2785255.0,223.0,32.0,4.0,255.0,2785.255
2785265.0,222.0,33.0,3.0,254.0,2785.265
2785275.0,214.0,32.0,4.0,244.0,2785.275
2785285.0,219.0,32.0,4.0,250.0,2785.285
2785295.0,225.0,33.0,4.0,257.0,2785.295
2785305.0,222.0,31.0,4.0,254.0,2785.305
2785315.0,221.0,32.0,4.0,251.0,2785.315
2785325.0,214.0,31.0,4.0,245.0,2785.325
2785335.0,218.0,33.0,3.0,250.0,2785.335
2785345.0,225.0,32.0,4.0,258.0,2785.345
2785355.0,221.0,32.0,4.0,253.0,2785.355
2785366.0,223.0,31.0,4.0,252.0,2785.366
2785376.0,214.0,32.0,3.0,245.0,2785.376
2785386.0,222.0,32.0,3.0,256.0,2785.386
2785396.0,226.0,33.0,3.0,256.0,2785.396
2785406.0,218.0,32.0,3.0,249.0,2785.406
2785416.0,221.0,33.0,3.0,251.0,2785.416
2785426.0,215.0,31.0,5.0,244.0,2785.426
2785436.0,222.0,32.0,3.0,256.0,2785.436
2785446.0,225.0,33.0,4.0,255.0,2785.446
2785456.0,218.0,32.0,4.0,252.0,2785.456
2785466.0,219.0,32.0,3.0,251.0,2785.466
2785476.0,214.0,32.0,3.0,247.0,2785.476
2785486.0,222.0,33.0,4.0,257.0,2785.486
2785496.0,225.0,32.0,4.0,257.0,2785.496
2785506.0,218.0,32.0,3.0,253.0,2785.506
2785516.0,220.0,33.0,3.0,253.0,2785.516
2785526.0,215.0,33.0,3.0,251.0,2785.526
2785536.0,220.0,33.0,3.0,257.0,2785.536
2785546.0,225.0,33.0,4.0,259.0,2785.546
2785556.0,219.0,33.0,4.0,253.0,2785.556
2785566.0,220.0,32.0,2.0,253.0,2785.566
2785576.0,217.0,32.0,4.0,251.0,2785.576
2785586.0,220.0,32.0,4.0,256.0,2785.586
2785596.0,226.0,33.0,3.0,258.0,2785.596
2785606.0,219.0,33.0,3.0,252.0,2785.606
2785616.0,221.0,33.0,5.0,251.0,2785.616
2785626.0,214.0,33.0,3.0,245.0,2785.626
2785636.0,222.0,33.0,3.0,255.0,2785.636
2785646.0,225.0,33.0,4.0,257.0,2785.646
2785656.0,217.0,33.0,3.0,249.0,2785.656
2785666.0,221.0,33.0,3.0,252.0,2785.666
2785676.0,213.0,32.0,4.0,245.0,2785.676
2785686.0,222.0,32.0,4.0,255.0,2785.686
2785696.0,225.0,33.0,2.0,257.0,2785.696
2785707.0,217.0,32.0,3.0,249.0,2785.707
2785717.0,219.0,33.0,3.0,251.0,2785.717
2785727.0,219.0,32.0,4.0,252.0,2785.727
2785737.0,222.0,33.0,3.0,257.0,2785.737
2785747.0,225.0,33.0,4.0,254.0,2785.747
2785757.0,216.0,32.0,3.0,250.0,2785.757
2785767.0,220.0,32.0,4.0,250.0,2785.767
2785777.0,220.0,33.0,3.0,255.0,2785.777
2785787.0,222.0,32.0,3.0,257.0,2785.787
2785797.0,226.0,33.0,3.0,257.0,2785.797
2785807.0,217.0,32.0,4.0,249.0,2785.807
2785817.0,220.0,33.0,3.0,251.0,2785.817
2785827.0,222.0,32.0,4.0,255.0,2785.827
2785837.0,224.0,32.0,3.0,258.0,2785.837
2785847.0,226.0,33.0,3.0,255.0,2785.847
2785857.0,216.0,32.0,3.0,249.0,2785.857
2785867.0,218.0,32.0,3.0,251.0,2785.867
2785878.0,223.0,32.0,5.0,256.0,2785.878
2785888.0,221.0,33.0,2.0,256.0,2785.888
2785898.0,223.0,32.0,3.0,253.0,2785.898
2785908.0,213.0,33.0,3.0,245.0,2785.908
2785918.0,220.0,32.0,4.0,251.0,2785.918
2785928.0,223.0,34.0,3.0,255.0,2785.928
2785938.0,222.0,33.0,4.0,253.0,2785.938
2785948.0,222.0,33.0,4.0,250.0,2785.948
2785958.0,212.0,32.0,3.0,241.0,2785.958
2785968.0,218.0,33.0,3.0,248.0,2785.968
2785978.0,223.0,33.0,3.0,254.0,2785.978
2785988.0,221.0,32.0,3.0,252.0,2785.988
2785998.0,222.0,33.0,3.0,250.0,2785.998
2786008.0,214.0,32.0,3.0,244.0,2786.008
2786018.0,218.0,32.0,4.0,249.0,2786.018
2786028.0,224.0,33.0,3.0,256.0,2786.028
2786038.0,219.0,33.0,3.0,253.0,2786.038
2786048.0,222.0,33.0,3.0,253.0,2786.048
2786058.0,213.0,31.0,4.0,245.0,2786.058
2786068.0,219.0,32.0,5.0,251.0,2786.068
2786078.0,224.0,33.0,4.0,257.0,2786.078
2786088.0,220.0,32.0,3.0,253.0,2786.088
2786098.0,223.0,32.0,4.0,254.0,2786.098
2786108.0,213.0,32.0,3.0,246.0,2786.108
2786118.0,219.0,32.0,3.0,252.0,2786.118
2786128.0,225.0,33.0,4.0,258.0,2786.128
2786138.0,221.0,32.0,4.0,256.0,2786.138
2786148.0,222.0,33.0,3.0,253.0,2786.148
2786158.0,213.0,33.0,3.0,245.0,2786.158
2786168.0,219.0,32.0,3.0,253.0,2786.168
2786178.0,223.0,33.0,3.0,256.0,2786.178
2786188.0,221.0,33.0,3.0,254.0,2786.188
2786198.0,223.0,33.0,4.0,251.0,2786.198
2786208.0,212.0,33.0,2.0,243.0,2786.208
2786219.0,220.0,32.0,3.0,252.0,2786.219
2786229.0,225.0,34.0,3.0,256.0,2786.229
2786239.0,218.0,32.0,3.0,250.0,2786.239
2786249.0,220.0,32.0,4.0,250.0,2786.249
2786259.0,217.0,32.0,5.0,248.0,2786.259
2786269.0,220.0,32.0,3.0,255.0,2786.269
2786279.0,225.0,33.0,3.0,256.0,2786.279
2786289.0,217.0,33.0,4.0,250.0,2786.289
2786299.0,221.0,32.0,3.0,250.0,2786.299
2786309.0,213.0,32.0,3.0,245.0,2786.309
2786319.0,221.0,33.0,3.0,254.0,2786.319
2786329.0,226.0,33.0,3.0,255.0,2786.329
2786339.0,216.0,32.0,3.0,250.0,2786.339
2786349.0,221.0,33.0,4.0,252.0,2786.349
2786359.0,211.0,33.0,3.0,247.0,2786.359
2786369.0,221.0,32.0,3.0,258.0,2786.369
2786379.0,226.0,33.0,3.0,257.0,2786.379
2786390.0,218.0,32.0,5.0,251.0,2786.39
2786400.0,219.0,32.0,4.0,252.0,2786.4
2786410.0,217.0,33.0,4.0,252.0,2786.41
2786420.0,222.0,33.0,3.0,258.0,2786.42
2786430.0,223.0,32.0,4.0,254.0,2786.43
2786440.0,216.0,33.0,3.0,250.0,2786.44
2786450.0,218.0,33.0,4.0,250.0,2786.45
2786460.0,220.0,32.0,4.0,253.0,2786.46
2786470.0,222.0,33.0,4.0,256.0,2786.47
2786480.0,225.0,33.0,4.0,257.0,2786.48
2786490.0,216.0,32.0,3.0,250.0,2786.49
2786500.0,218.0,32.0,4.0,251.0,2786.5
2786510.0,220.0,32.0,3.0,255.0,2786.51
2786520.0,222.0,32.0,3.0,257.0,2786.52
2786530.0,224.0,33.0,4.0,256.0,2786.53
2786540.0,215.0,32.0,4.0,249.0,2786.54
2786550.0,218.0,33.0,3.0,251.0,2786.55
2786560.0,216.0,32.0,4.0,252.0,2786.56
2786570.0,224.0,33.0,4.0,259.0,2786.57
2786580.0,226.0,33.0,4.0,256.0,2786.58
2786590.0,215.0,32.0,2.0,248.0,2786.59
2786600.0,218.0,32.0,4.0,250.0,2786.6
2786610.0,218.0,33.0,4.0,251.0,2786.61
2786620.0,223.0,32.0,3.0,256.0,2786.62
2786630.0,222.0,33.0,3.0,254.0,2786.63
2786640.0,212.0,32.0,4.0,246.0,2786.64
2786650.0,217.0,32.0,4.0,250.0,2786.65
2786660.0,215.0,33.0,3.0,251.0,2786.66
2786670.0,221.0,32.0,4.0,256.0,2786.67
2786680.0,221.0,33.0,3.0,254.0,2786.68
2786690.0,216.0,32.0,4.0,249.0,2786.69
2786700.0,217.0,33.0,3.0,250.0,2786.7
2786710.0,220.0,33.0,4.0,251.0,2786.71
2786720.0,222.0,32.0,2.0,255.0,2786.72
2786731.0,222.0,33.0,3.0,252.0,2786.731
2786741.0,213.0,33.0,3.0,245.0,2786.741
2786751.0,217.0,32.0,3.0,248.0,2786.751
2786761.0,224.0,33.0,4.0,255.0,2786.761
2786771.0,221.0,32.0,4.0,253.0,2786.771
2786781.0,222.0,33.0,3.0,253.0,2786.781
2786791.0,214.0,32.0,3.0,245.0,2786.791
2786801.0,219.0,33.0,3.0,252.0,2786.801
2786811.0,225.0,33.0,3.0,257.0,2786.811
2786821.0,222.0,33.0,3.0,254.0,2786.821
2786831.0,221.0,32.0,4.0,251.0,2786.831
2786841.0,214.0,31.0,4.0,243.0,2786.841
2786851.0,218.0,33.0,4.0,251.0,2786.851
2786861.0,223.0,32.0,5.0,254.0,2786.861
2786871.0,222.0,33.0,3.0,255.0,2786.871
2786881.0,222.0,32.0,4.0,253.0,2786.881
2786891.0,213.0,32.0,4.0,244.0,2786.891
2786902.0,221.0,32.0,5.0,253.0,2786.902
2786912.0,226.0,33.0,4.0,257.0,2786.912
2786922.0,221.0,32.0,4.0,251.0,2786.922
2786932.0,221.0,33.0,3.0,253.0,2786.932
2786942.0,216.0,32.0,3.0,248.0,2786.942
2786952.0,221.0,32.0,3.0,256.0,2786.952
2786962.0,226.0,32.0,5.0,257.0,2786.962
2786972.0,221.0,31.0,3.0,251.0,2786.972
2786982.0,221.0,33.0,3.0,252.0,2786.982
2786992.0,214.0,32.0,4.0,245.0,2786.992
2787002.0,221.0,33.0,3.0,255.0,2787.002
2787012.0,226.0,32.0,3.0,256.0,2787.012
2787022.0,220.0,32.0,4.0,250.0,2787.022
2787032.0,222.0,32.0,4.0,252.0,2787.032
2787042.0,214.0,32.0,3.0,244.0,2787.042
2787052.0,222.0,33.0,3.0,255.0,2787.052
2787062.0,226.0,33.0,3.0,257.0,2787.062
2787072.0,222.0,32.0,4.0,252.0,2787.072
2787082.0,223.0,33.0,3.0,251.0,2787.082
2787092.0,215.0,32.0,4.0,245.0,2787.092
2787102.0,223.0,32.0,3.0,255.0,2787.102
2787112.0,226.0,33.0,3.0,256.0,2787.112
2787122.0,222.0,33.0,3.0,252.0,2787.122
2787132.0,222.0,33.0,3.0,251.0,2787.132
2787142.0,215.0,32.0,3.0,246.0,2787.142
2787152.0,224.0,33.0,4.0,256.0,2787.152
2787162.0,226.0,33.0,4.0,256.0,2787.162
2787172.0,220.0,32.0,3.0,251.0,2787.172
2787182.0,221.0,33.0,3.0,252.0,2787.182
2787192.0,216.0,34.0,3.0,249.0,2787.192
2787202.0,221.0,32.0,4.0,253.0,2787.202
2787212.0,226.0,33.0,4.0,256.0,2787.212
2787222.0,221.0,32.0,5.0,251.0,2787.222
2787232.0,221.0,33.0,3.0,252.0,2787.232
2787243.0,216.0,33.0,3.0,249.0,2787.243
2787253.0,224.0,33.0,3.0,257.0,2787.253
2787263.0,225.0,33.0,3.0,253.0,2787.263
2787273.0,218.0,32.0,4.0,246.0,2787.273
2787283.0,219.0,33.0,4.0,248.0,2787.283
2787293.0,219.0,33.0,4.0,249.0,2787.293
2787303.0,224.0,32.0,4.0,255.0,2787.303
2787313.0,225.0,33.0,4.0,253.0,2787.313
2787323.0,217.0,34.0,3.0,245.0,2787.323
2787333.0,221.0,33.0,4.0,249.0,2787.333
2787343.0,219.0,33.0,3.0,250.0,2787.343
2787353.0,225.0,33.0,4.0,255.0,2787.353
2787363.0,224.0,33.0,2.0,252.0,2787.363
2787373.0,219.0,32.0,4.0,247.0,2787.373
2787383.0,219.0,34.0,3.0,250.0,2787.383
2787393.0,218.0,32.0,3.0,250.0,2787.393
2787403.0,223.0,32.0,3.0,255.0,2787.403
2787414.0,223.0,34.0,3.0,253.0,2787.414
2787424.0,215.0,32.0,4.0,245.0,2787.424
2787434.0,218.0,33.0,3.0,249.0,2787.434
2787444.0,224.0,33.0,3.0,257.0,2787.444
2787454.0,221.0,33.0,3.0,252.0,2787.454
2787464.0,223.0,33.0,4.0,252.0,2787.464
2787474.0,214.0,33.0,4.0,243.0,2787.474
2787484.0,220.0,33.0,4.0,250.0,2787.484
2787494.0,225.0,33.0,4.0,256.0,2787.494
2787504.0,224.0,33.0,4.0,255.0,2787.504
2787514.0,222.0,34.0,3.0,253.0,2787.514
2787524.0,215.0,32.0,3.0,244.0,2787.524
2787534.0,220.0,34.0,3.0,252.0,2787.534
2787544.0,223.0,32.0,4.0,254.0,2787.544
2787554.0,223.0,33.0,4.0,255.0,2787.554
2787564.0,222.0,33.0,4.0,251.0,2787.564
2787574.0,215.0,33.0,3.0,243.0,2787.574
2787584.0,219.0,33.0,3.0,249.0,2787.584
2787594.0,223.0,32.0,4.0,255.0,2787.594
2787604.0,224.0,33.0,4.0,254.0,2787.604
2787614.0,223.0,33.0,4.0,252.0,2787.614
2787624.0,214.0,32.0,3.0,245.0,2787.624
2787634.0,220.0,33.0,4.0,250.0,2787.634
2787644.0,224.0,34.0,3.0,257.0,2787.644
2787654.0,223.0,32.0,4.0,255.0,2787.654
2787664.0,223.0,33.0,4.0,253.0,2787.664
2787674.0,217.0,32.0,4.0,247.0,2787.674
2787684.0,220.0,33.0,2.0,252.0,2787.684
2787694.0,226.0,33.0,3.0,258.0,2787.694
2787704.0,223.0,34.0,3.0,256.0,2787.704
2787714.0,224.0,33.0,3.0,254.0,2787.714
2787724.0,216.0,33.0,3.0,247.0,2787.724
2787734.0,220.0,33.0,4.0,253.0,2787.734
2787744.0,226.0,33.0,4.0,260.0,2787.744
2787755.0,221.0,33.0,3.0,255.0,2787.755
2787765.0,221.0,33.0,3.0,255.0,2787.765
2787775.0,214.0,33.0,3.0,248.0,2787.775
2787785.0,223.0,32.0,5.0,258.0,2787.785
2787795.0,226.0,33.0,4.0,259.0,2787.795
2787805.0,222.0,32.0,4.0,255.0,2787.805
