time (ms),signal 0,signal 1,signal 2,signal 3,time (sec)
2764109.0,213.0,32.0,3.0,244.0,2764.109
2764119.0,214.0,31.0,4.0,245.0,2764.119
2764129.0,218.0,32.0,3.0,249.0,2764.129
2764139.0,219.0,32.0,3.0,245.0,2764.139
2764149.0,209.0,31.0,3.0,238.0,2764.149
2764160.0,213.0,32.0,3.0,242.0,2764.16
2764170.0,218.0,32.0,3.0,250.0,2764.17
2764180.0,217.0,31.0,5.0,246.0,2764.18
2764190.0,217.0,32.0,4.0,244.0,2764.19
2764200.0,209.0,32.0,3.0,238.0,2764.2
2764210.0,214.0,32.0,3.0,245.0,2764.21
2764220.0,221.0,32.0,3.0,250.0,2764.22
2764230.0,217.0,31.0,4.0,245.0,2764.23
2764240.0,217.0,32.0,4.0,246.0,2764.24
2764250.0,212.0,30.0,3.0,238.0,2764.25
2764260.0,216.0,31.0,3.0,245.0,2764.26
2764270.0,222.0,31.0,4.0,252.0,2764.27
2764280.0,217.0,33.0,3.0,247.0,2764.28
2764290.0,220.0,32.0,4.0,247.0,2764.29
2764300.0,211.0,32.0,4.0,240.0,2764.3
2764310.0,217.0,31.0,4.0,248.0,2764.31
2764320.0,224.0,32.0,3.0,254.0,2764.32
2764331.0,218.0,32.0,4.0,248.0,2764.331
2764341.0,220.0,32.0,3.0,249.0,2764.341
2764351.0,213.0,32.0,4.0,244.0,2764.351
2764361.0,220.0,32.0,3.0,252.0,2764.361
2764371.0,223.0,32.0,5.0,251.0,2764.371
2764381.0,217.0,31.0,3.0,244.0,2764.381
2764391.0,218.0,31.0,3.0,245.0,2764.391
2764401.0,213.0,32.0,3.0,243.0,2764.401
2764411.0,221.0,32.0,3.0,250.0,2764.411
2764421.0,224.0,32.0,4.0,253.0,2764.421
2764431.0,217.0,32.0,3.0,246.0,2764.431
2764441.0,220.0,31.0,4.0,248.0,2764.441
2764451.0,215.0,32.0,2.0,246.0,2764.451
2764461.0,220.0,31.0,4.0,251.0,2764.461
2764471.0,227.0,32.0,3.0,253.0,2764.471
2764481.0,222.0,31.0,4.0,245.0,2764.481
2764491.0,223.0,31.0,3.0,248.0,2764.491
2764502.0,219.0,31.0,4.0,248.0,2764.502
2764512.0,224.0,31.0,4.0,254.0,2764.512
2764522.0,225.0,32.0,3.0,252.0,2764.522
2764532.0,217.0,32.0,4.0,245.0,2764.532
2764542.0,219.0,31.0,3.0,248.0,2764.542
2764552.0,220.0,31.0,4.0,250.0,2764.552
2764562.0,224.0,31.0,3.0,256.0,2764.562
2764572.0,226.0,31.0,4.0,253.0,2764.572
2764582.0,216.0,31.0,4.0,244.0,2764.582
2764592.0,221.0,32.0,4.0,249.0,2764.592
2764602.0,221.0,32.0,3.0,252.0,2764.602
2764612.0,226.0,30.0,3.0,255.0,2764.612
2764622.0,225.0,32.0,3.0,252.0,2764.622
2764632.0,220.0,31.0,5.0,246.0,2764.632
2764642.0,222.0,31.0,4.0,249.0,2764.642
2764652.0,222.0,31.0,4.0,252.0,2764.652
2764662.0,225.0,30.0,3.0,254.0,2764.662
2764672.0,228.0,32.0,4.0,255.0,2764.672
2764682.0,219.0,31.0,4.0,246.0,2764.682
2764692.0,221.0,32.0,5.0,248.0,2764.692
2764702.0,225.0,31.0,4.0,255.0,2764.702
2764712.0,226.0,32.0,4.0,255.0,2764.712
2764722.0,229.0,33.0,3.0,256.0,2764.722
2764732.0,220.0,32.0,3.0,247.0,2764.732
2764742.0,223.0,32.0,3.0,250.0,2764.742
2764752.0,226.0,32.0,4.0,255.0,2764.752
2764762.0,229.0,31.0,4.0,258.0,2764.762
2764772.0,228.0,32.0,3.0,256.0,2764.772
2764782.0,219.0,32.0,4.0,247.0,2764.782
2764792.0,223.0,33.0,3.0,252.0,2764.792
2764802.0,222.0,32.0,3.0,252.0,2764.802
2764812.0,227.0,31.0,4.0,256.0,2764.812
2764822.0,227.0,33.0,2.0,254.0,2764.822
2764832.0,218.0,31.0,4.0,244.0,2764.832
2764843.0,222.0,31.0,4.0,249.0,2764.843
2764853.0,226.0,33.0,3.0,256.0,2764.853
2764863.0,223.0,32.0,3.0,250.0,2764.863
2764873.0,224.0,32.0,3.0,249.0,2764.873
2764883.0,215.0,32.0,3.0,240.0,2764.883
2764893.0,221.0,32.0,3.0,248.0,2764.893
2764903.0,226.0,32.0,4.0,255.0,2764.903
2764913.0,222.0,32.0,4.0,251.0,2764.913
2764923.0,223.0,33.0,3.0,251.0,2764.923
2764933.0,215.0,32.0,3.0,243.0,2764.933
2764943.0,220.0,32.0,3.0,249.0,2764.943
2764953.0,228.0,32.0,5.0,256.0,2764.953
2764963.0,220.0,31.0,3.0,250.0,2764.963
2764973.0,224.0,32.0,5.0,252.0,2764.973
2764983.0,215.0,32.0,3.0,246.0,2764.983
2764993.0,221.0,32.0,3.0,252.0,2764.993
2765003.0,228.0,32.0,4.0,257.0,2765.003
2765014.0,224.0,32.0,4.0,251.0,2765.014
2765024.0,226.0,31.0,4.0,252.0,2765.024
2765034.0,222.0,32.0,4.0,248.0,2765.034
2765044.0,230.0,33.0,3.0,258.0,2765.044
2765054.0,233.0,32.0,3.0,258.0,2765.054
2765064.0,226.0,32.0,4.0,253.0,2765.064
2765074.0,226.0,32.0,4.0,252.0,2765.074
2765084.0,222.0,31.0,4.0,250.0,2765.084
2765094.0,229.0,31.0,2.0,258.0,2765.094
2765104.0,231.0,31.0,4.0,259.0,2765.104
2765114.0,223.0,32.0,3.0,252.0,2765.114
2765124.0,221.0,32.0,4.0,251.0,2765.124
2765134.0,218.0,32.0,3.0,249.0,2765.134
2765144.0,221.0,32.0,3.0,254.0,2765.144
2765154.0,227.0,31.0,3.0,256.0,2765.154
2765164.0,221.0,32.0,4.0,248.0,2765.164
2765174.0,225.0,32.0,3.0,250.0,2765.174
2765184.0,216.0,32.0,4.0,241.0,2765.184
2765194.0,224.0,32.0,3.0,251.0,2765.194
2765204.0,229.0,33.0,4.0,253.0,2765.204
2765214.0,222.0,31.0,4.0,246.0,2765.214
2765224.0,224.0,32.0,4.0,247.0,2765.224
2765234.0,217.0,31.0,5.0,241.0,2765.234
2765244.0,224.0,33.0,3.0,251.0,2765.244
2765254.0,227.0,32.0,4.0,251.0,2765.254
2765264.0,217.0,31.0,3.0,243.0,2765.264
2765274.0,222.0,32.0,4.0,245.0,2765.274
2765284.0,215.0,31.0,4.0,242.0,2765.284
2765294.0,223.0,32.0,4.0,249.0,2765.294
2765304.0,225.0,32.0,3.0,249.0,2765.304
2765314.0,220.0,31.0,3.0,243.0,2765.314
2765324.0,219.0,32.0,4.0,244.0,2765.324
2765334.0,214.0,32.0,3.0,241.0,2765.334
2765344.0,223.0,31.0,3.0,250.0,2765.344
2765355.0,225.0,32.0,4.0,252.0,2765.355
2765365.0,217.0,31.0,3.0,243.0,2765.365
2765375.0,219.0,32.0,3.0,247.0,2765.375
2765385.0,226.0,32.0,3.0,254.0,2765.385
2765395.0,229.0,31.0,4.0,257.0,2765.395
2765405.0,231.0,32.0,3.0,259.0,2765.405
2765415.0,222.0,31.0,3.0,252.0,2765.415
2765425.0,224.0,31.0,4.0,258.0,2765.425
2765435.0,226.0,33.0,3.0,262.0,2765.435
2765445.0,229.0,31.0,4.0,261.0,2765.445
2765455.0,229.0,32.0,4.0,255.0,2765.455
2765465.0,220.0,31.0,4.0,246.0,2765.465
2765475.0,220.0,31.0,4.0,249.0,2765.475
2765485.0,223.0,32.0,4.0,254.0,2765.485
2765495.0,231.0,32.0,3.0,258.0,2765.495
2765505.0,229.0,32.0,4.0,252.0,2765.505
2765515.0,223.0,32.0,4.0,244.0,2765.515
2765526.0,229.0,31.0,4.0,254.0,2765.526
2765536.0,227.0,31.0,4.0,261.0,2765.536
2765546.0,222.0,31.0,3.0,255.0,2765.546
2765556.0,229.0,32.0,3.0,253.0,2765.556
2765566.0,218.0,32.0,3.0,244.0,2765.566
2765576.0,224.0,32.0,4.0,252.0,2765.576
2765586.0,230.0,32.0,4.0,258.0,2765.586
2765596.0,229.0,32.0,4.0,251.0,2765.596
2765606.0,226.0,32.0,4.0,251.0,2765.606
2765616.0,221.0,31.0,4.0,243.0,2765.616
2765626.0,221.0,33.0,3.0,252.0,2765.626
2765636.0,227.0,32.0,4.0,257.0,2765.636
2765646.0,223.0,32.0,4.0,250.0,2765.646
2765656.0,222.0,32.0,3.0,250.0,2765.656
2765666.0,212.0,31.0,4.0,239.0,2765.666
2765676.0,218.0,32.0,4.0,248.0,2765.676
2765686.0,222.0,32.0,3.0,254.0,2765.686
2765696.0,215.0,32.0,3.0,248.0,2765.696
2765706.0,214.0,32.0,3.0,250.0,2765.706
2765716.0,206.0,32.0,3.0,238.0,2765.716
2765726.0,214.0,31.0,3.0,248.0,2765.726
2765736.0,220.0,32.0,4.0,255.0,2765.736
2765746.0,217.0,31.0,5.0,251.0,2765.746
2765756.0,216.0,32.0,3.0,249.0,2765.756
2765766.0,208.0,31.0,4.0,239.0,2765.766
2765776.0,214.0,32.0,3.0,249.0,2765.776
2765786.0,222.0,31.0,4.0,253.0,2765.786
2765796.0,220.0,31.0,4.0,250.0,2765.796
2765806.0,220.0,31.0,3.0,249.0,2765.806
2765816.0,210.0,32.0,3.0,241.0,2765.816
2765826.0,216.0,31.0,3.0,245.0,2765.826
2765836.0,223.0,31.0,4.0,254.0,2765.836
2765846.0,221.0,31.0,4.0,252.0,2765.846
2765856.0,223.0,31.0,4.0,252.0,2765.856
2765867.0,211.0,32.0,3.0,243.0,2765.867
2765877.0,220.0,32.0,3.0,250.0,2765.877
2765887.0,221.0,32.0,3.0,250.0,2765.887
2765897.0,212.0,30.0,4.0,243.0,2765.897
2765907.0,215.0,31.0,4.0,244.0,2765.907
2765917.0,211.0,32.0,4.0,241.0,2765.917
2765927.0,220.0,31.0,2.0,252.0,2765.927
2765937.0,227.0,32.0,3.0,254.0,2765.937
2765947.0,218.0,32.0,3.0,249.0,2765.947
2765957.0,220.0,31.0,3.0,248.0,2765.957
2765967.0,213.0,31.0,4.0,243.0,2765.967
2765977.0,221.0,32.0,3.0,253.0,2765.977
2765987.0,224.0,31.0,3.0,254.0,2765.987
2765997.0,220.0,31.0,4.0,248.0,2765.997
2766007.0,222.0,31.0,4.0,248.0,2766.007
2766017.0,217.0,32.0,3.0,246.0,2766.017
2766027.0,226.0,32.0,4.0,253.0,2766.027
2766038.0,226.0,31.0,3.0,257.0,2766.038
2766048.0,220.0,31.0,4.0,249.0,2766.048
2766058.0,221.0,31.0,4.0,252.0,2766.058
2766068.0,222.0,31.0,4.0,255.0,2766.068
2766078.0,222.0,32.0,3.0,257.0,2766.078
2766088.0,226.0,32.0,3.0,258.0,2766.088
2766098.0,215.0,31.0,3.0,248.0,2766.098
2766108.0,221.0,31.0,4.0,252.0,2766.108
2766118.0,224.0,31.0,4.0,256.0,2766.118
2766128.0,226.0,32.0,5.0,257.0,2766.128
2766138.0,227.0,33.0,3.0,255.0,2766.138
2766148.0,218.0,31.0,4.0,246.0,2766.148
2766158.0,220.0,31.0,4.0,250.0,2766.158
2766168.0,219.0,32.0,3.0,253.0,2766.168
2766178.0,227.0,31.0,4.0,257.0,2766.178
2766188.0,226.0,32.0,4.0,253.0,2766.188
2766198.0,218.0,32.0,4.0,245.0,2766.198
2766208.0,223.0,32.0,3.0,251.0,2766.208
2766218.0,224.0,32.0,4.0,252.0,2766.218
2766228.0,227.0,31.0,3.0,255.0,2766.228
2766238.0,225.0,32.0,4.0,253.0,2766.238
2766248.0,214.0,31.0,2.0,246.0,2766.248
2766258.0,217.0,32.0,5.0,251.0,2766.258
2766268.0,219.0,33.0,3.0,255.0,2766.268
2766278.0,223.0,32.0,3.0,256.0,2766.278
2766288.0,224.0,32.0,4.0,254.0,2766.288
2766298.0,219.0,32.0,3.0,248.0,2766.298
2766308.0,223.0,31.0,4.0,253.0,2766.308
2766318.0,227.0,32.0,4.0,256.0,2766.318
2766328.0,229.0,32.0,4.0,260.0,2766.328
2766338.0,230.0,32.0,4.0,258.0,2766.338
2766348.0,221.0,32.0,4.0,252.0,2766.348
2766358.0,223.0,32.0,4.0,256.0,2766.358
2766368.0,226.0,31.0,5.0,259.0,2766.368
2766379.0,224.0,32.0,4.0,257.0,2766.379
2766389.0,220.0,32.0,3.0,254.0,2766.389
2766399.0,208.0,33.0,3.0,242.0,2766.399
2766409.0,215.0,32.0,4.0,251.0,2766.409
2766419.0,220.0,32.0,3.0,252.0,2766.419
2766429.0,220.0,32.0,4.0,250.0,2766.429
2766439.0,220.0,31.0,3.0,248.0,2766.439
2766449.0,213.0,32.0,3.0,239.0,2766.449
2766459.0,219.0,32.0,3.0,248.0,2766.459
2766469.0,224.0,32.0,4.0,252.0,2766.469
2766479.0,224.0,32.0,4.0,251.0,2766.479
2766489.0,223.0,32.0,4.0,250.0,2766.489
2766499.0,216.0,31.0,4.0,243.0,2766.499
2766509.0,221.0,32.0,4.0,249.0,2766.509
2766519.0,227.0,32.0,4.0,256.0,2766.519
2766529.0,222.0,32.0,3.0,252.0,2766.529
2766539.0,222.0,32.0,4.0,249.0,2766.539
2766550.0,215.0,31.0,4.0,243.0,2766.55
2766560.0,221.0,31.0,3.0,256.0,2766.56
2766570.0,222.0,32.0,2.0,256.0,2766.57
2766580.0,215.0,32.0,3.0,247.0,2766.58
2766590.0,217.0,33.0,3.0,249.0,2766.59
2766600.0,212.0,32.0,3.0,245.0,2766.6
2766610.0,219.0,32.0,3.0,256.0,2766.61
2766620.0,223.0,32.0,4.0,253.0,2766.62
2766630.0,217.0,31.0,4.0,247.0,2766.63
2766640.0,220.0,32.0,4.0,250.0,2766.64
2766650.0,215.0,32.0,4.0,248.0,2766.65
2766660.0,223.0,33.0,3.0,256.0,2766.66
2766670.0,223.0,32.0,4.0,253.0,2766.67
2766680.0,219.0,32.0,3.0,249.0,2766.68
2766690.0,221.0,31.0,4.0,250.0,2766.69
2766700.0,215.0,32.0,3.0,247.0,2766.7
2766710.0,220.0,32.0,4.0,257.0,2766.71
2766720.0,227.0,32.0,2.0,260.0,2766.72
2766730.0,224.0,32.0,3.0,254.0,2766.73
2766740.0,225.0,32.0,3.0,253.0,2766.74
2766750.0,223.0,32.0,5.0,251.0,2766.75
2766760.0,230.0,31.0,4.0,259.0,2766.76
2766770.0,232.0,32.0,4.0,259.0,2766.77
2766780.0,227.0,33.0,3.0,254.0,2766.78
2766790.0,227.0,32.0,3.0,251.0,2766.79
2766800.0,223.0,32.0,4.0,251.0,2766.8
2766810.0,227.0,32.0,3.0,257.0,2766.81
2766820.0,237.0,31.0,4.0,262.0,2766.82
2766830.0,230.0,31.0,4.0,253.0,2766.83
2766840.0,230.0,32.0,3.0,253.0,2766.84
2766850.0,223.0,32.0,4.0,248.0,2766.85
2766860.0,232.0,32.0,4.0,257.0,2766.86
2766870.0,233.0,33.0,3.0,256.0,2766.87
2766880.0,228.0,32.0,5.0,250.0,2766.88
2766891.0,228.0,32.0,3.0,252.0,2766.891
2766901.0,227.0,33.0,3.0,254.0,2766.901
2766911.0,230.0,33.0,3.0,259.0,2766.911
2766921.0,232.0,32.0,3.0,258.0,2766.921
2766931.0,226.0,32.0,4.0,251.0,2766.931
2766941.0,231.0,32.0,3.0,254.0,2766.941
2766951.0,234.0,33.0,4.0,257.0,2766.951
2766961.0,238.0,32.0,3.0,259.0,2766.961
2766971.0,236.0,33.0,4.0,255.0,2766.971
2766981.0,229.0,32.0,3.0,249.0,2766.981
2766991.0,229.0,32.0,3.0,252.0,2766.991
2767001.0,231.0,32.0,4.0,256.0,2767.001
2767011.0,234.0,31.0,4.0,257.0,2767.011
2767021.0,233.0,33.0,4.0,256.0,2767.021
2767031.0,226.0,32.0,4.0,249.0,2767.031
2767041.0,227.0,33.0,3.0,251.0,2767.041
2767051.0,230.0,32.0,3.0,257.0,2767.051
2767062.0,231.0,32.0,4.0,257.0,2767.062
2767072.0,228.0,33.0,5.0,252.0,2767.072
2767082.0,220.0,32.0,2.0,245.0,2767.082
2767092.0,224.0,32.0,3.0,254.0,2767.092
2767102.0,232.0,34.0,3.0,259.0,2767.102
2767112.0,230.0,33.0,3.0,256.0,2767.112
2767122.0,227.0,33.0,4.0,254.0,2767.122
2767132.0,220.0,32.0,4.0,245.0,2767.132
2767142.0,227.0,32.0,4.0,254.0,2767.142
2767152.0,229.0,33.0,4.0,259.0,2767.152
2767162.0,228.0,33.0,3.0,257.0,2767.162
2767172.0,225.0,34.0,3.0,253.0,2767.172
2767182.0,219.0,32.0,4.0,245.0,2767.182
2767192.0,223.0,33.0,3.0,253.0,2767.192
2767202.0,230.0,33.0,5.0,258.0,2767.202
2767212.0,226.0,33.0,2.0,255.0,2767.212
2767222.0,224.0,33.0,4.0,251.0,2767.222
2767232.0,220.0,33.0,4.0,246.0,2767.232
2767242.0,223.0,33.0,4.0,251.0,2767.242
2767252.0,228.0,33.0,3.0,258.0,2767.252
2767262.0,227.0,33.0,4.0,255.0,2767.262
2767272.0,224.0,33.0,4.0,253.0,2767.272
2767282.0,220.0,33.0,4.0,245.0,2767.282
2767292.0,224.0,33.0,3.0,253.0,2767.292
2767302.0,229.0,34.0,3.0,256.0,2767.302
2767312.0,226.0,32.0,4.0,252.0,2767.312
2767322.0,225.0,33.0,4.0,251.0,2767.322
2767332.0,220.0,32.0,4.0,243.0,2767.332
2767342.0,224.0,33.0,3.0,253.0,2767.342
2767352.0,229.0,33.0,3.0,257.0,2767.352
2767362.0,227.0,34.0,3.0,255.0,2767.362
2767372.0,224.0,32.0,3.0,252.0,2767.372
2767382.0,217.0,33.0,3.0,243.0,2767.382
2767392.0,225.0,33.0,3.0,253.0,2767.392
2767403.0,228.0,32.0,4.0,257.0,2767.403
2767413.0,223.0,34.0,3.0,252.0,2767.413
2767423.0,222.0,34.0,3.0,252.0,2767.423
2767433.0,219.0,32.0,4.0,250.0,2767.433
2767443.0,226.0,33.0,3.0,259.0,2767.443
2767453.0,227.0,33.0,3.0,258.0,2767.453
2767463.0,223.0,32.0,4.0,252.0,2767.463
2767473.0,222.0,33.0,3.0,253.0,2767.473
2767483.0,221.0,32.0,4.0,252.0,2767.483
2767493.0,224.0,33.0,4.0,257.0,2767.493
2767503.0,228.0,32.0,4.0,258.0,2767.503
2767513.0,222.0,32.0,3.0,252.0,2767.513
2767523.0,223.0,33.0,4.0,253.0,2767.523
2767533.0,217.0,33.0,3.0,248.0,2767.533
2767543.0,226.0,32.0,3.0,259.0,2767.543
2767553.0,227.0,34.0,3.0,259.0,2767.553
2767563.0,222.0,32.0,4.0,251.0,2767.563
2767574.0,223.0,32.0,3.0,253.0,2767.574
2767584.0,224.0,33.0,5.0,256.0,2767.584
2767594.0,227.0,33.0,3.0,259.0,2767.594
2767604.0,225.0,32.0,3.0,256.0,2767.604
2767614.0,218.0,33.0,3.0,250.0,2767.614
2767624.0,222.0,33.0,3.0,253.0,2767.624
2767634.0,224.0,32.0,4.0,256.0,2767.634
2767644.0,226.0,32.0,4.0,260.0,2767.644
2767654.0,225.0,33.0,4.0,256.0,2767.654
2767664.0,219.0,32.0,4.0,251.0,2767.664
2767674.0,221.0,32.0,4.0,253.0,2767.674
2767684.0,224.0,33.0,3.0,258.0,2767.684
2767694.0,226.0,32.0,4.0,258.0,2767.694
2767704.0,227.0,33.0,3.0,258.0,2767.704
2767714.0,220.0,32.0,4.0,249.0,2767.714
2767724.0,221.0,32.0,4.0,252.0,2767.724
2767734.0,224.0,33.0,3.0,257.0,2767.734
2767744.0,226.0,32.0,4.0,259.0,2767.744
2767754.0,225.0,32.0,3.0,256.0,2767.754
2767764.0,217.0,32.0,3.0,249.0,2767.764
2767774.0,221.0,32.0,4.0,252.0,2767.774
2767784.0,225.0,33.0,4.0,259.0,2767.784
2767794.0,225.0,32.0,4.0,259.0,2767.794
2767804.0,225.0,33.0,3.0,256.0,2767.804
2767814.0,217.0,33.0,3.0,248.0,2767.814
2767824.0,220.0,32.0,4.0,252.0,2767.824
2767834.0,222.0,33.0,3.0,255.0,2767.834
2767844.0,227.0,32.0,5.0,258.0,2767.844
2767854.0,225.0,33.0,2.0,255.0,2767.854
2767864.0,218.0,32.0,3.0,248.0,2767.864
2767874.0,222.0,32.0,4.0,252.0,2767.874
2767884.0,223.0,32.0,4.0,255.0,2767.884
2767894.0,227.0,32.0,4.0,258.0,2767.894
2767904.0,226.0,32.0,4.0,255.0,2767.904
2767915.0,218.0,31.0,4.0,251.0,2767.915
2767925.0,222.0,33.0,3.0,258.0,2767.925
2767935.0,227.0,33.0,3.0,262.0,2767.935
2767945.0,225.0,32.0,3.0,257.0,2767.945
2767955.0,224.0,32.0,3.0,256.0,2767.955
2767965.0,217.0,32.0,4.0,250.0,2767.965
2767975.0,223.0,31.0,3.0,257.0,2767.975
2767985.0,227.0,33.0,2.0,262.0,2767.985
2767995.0,224.0,32.0,4.0,257.0,2767.995
2768005.0,224.0,33.0,3.0,257.0,2768.005
2768015.0,217.0,32.0,3.0,248.0,2768.015
2768025.0,223.0,32.0,4.0,257.0,2768.025
2768035.0,229.0,33.0,4.0,262.0,2768.035
2768045.0,226.0,32.0,3.0,259.0,2768.045
2768055.0,224.0,32.0,4.0,256.0,2768.055
2768065.0,218.0,33.0,3.0,250.0,2768.065
2768075.0,224.0,32.0,3.0,260.0,2768.075
2768086.0,228.0,33.0,4.0,262.0,2768.086
2768096.0,224.0,32.0,4.0,257.0,2768.096
2768106.0,224.0,31.0,3.0,256.0,2768.106
2768116.0,221.0,34.0,3.0,256.0,2768.116
2768126.0,228.0,33.0,3.0,263.0,2768.126
2768136.0,228.0,33.0,4.0,262.0,2768.136
2768146.0,223.0,32.0,4.0,257.0,2768.146
2768156.0,223.0,33.0,4.0,257.0,2768.156
2768166.0,222.0,33.0,4.0,257.0,2768.166
2768176.0,225.0,33.0,3.0,261.0,2768.176
2768186.0,228.0,33.0,3.0,261.0,2768.186
2768196.0,224.0,33.0,3.0,256.0,2768.196
2768206.0,224.0,32.0,4.0,256.0,2768.206
2768216.0,219.0,33.0,3.0,252.0,2768.216
2768226.0,228.0,32.0,4.0,262.0,2768.226
2768236.0,229.0,33.0,4.0,262.0,2768.236
2768246.0,223.0,32.0,4.0,254.0,2768.246
2768256.0,224.0,33.0,4.0,255.0,2768.256
2768266.0,219.0,33.0,3.0,252.0,2768.266
2768276.0,228.0,33.0,5.0,261.0,2768.276
2768286.0,229.0,33.0,4.0,260.0,2768.286
2768296.0,224.0,32.0,4.0,253.0,2768.296
2768306.0,224.0,33.0,3.0,255.0,2768.306
2768316.0,221.0,32.0,4.0,253.0,2768.316
2768326.0,228.0,34.0,3.0,261.0,2768.326
2768336.0,229.0,32.0,4.0,257.0,2768.336
2768346.0,225.0,33.0,3.0,256.0,2768.346
2768356.0,226.0,32.0,5.0,255.0,2768.356
2768366.0,222.0,32.0,4.0,254.0,2768.366
2768376.0,230.0,32.0,4.0,261.0,2768.376
2768386.0,230.0,32.0,4.0,260.0,2768.386
2768396.0,224.0,32.0,3.0,255.0,2768.396
2768406.0,224.0,32.0,3.0,255.0,2768.406
2768416.0,222.0,32.0,4.0,255.0,2768.416
2768427.0,229.0,31.0,4.0,262.0,2768.427
2768437.0,227.0,33.0,3.0,257.0,2768.437
2768447.0,221.0,32.0,3.0,251.0,2768.447
2768457.0,223.0,32.0,3.0,254.0,2768.457
2768467.0,227.0,32.0,4.0,259.0,2768.467
2768477.0,229.0,33.0,3.0,261.0,2768.477
2768487.0,228.0,31.0,5.0,256.0,2768.487
2768497.0,221.0,32.0,2.0,250.0,2768.497
2768507.0,223.0,32.0,4.0,254.0,2768.507
2768517.0,225.0,32.0,2.0,256.0,2768.517
2768527.0,229.0,32.0,4.0,259.0,2768.527
2768537.0,227.0,32.0,4.0,255.0,2768.537
2768547.0,222.0,31.0,4.0,249.0,2768.547
2768557.0,224.0,31.0,4.0,253.0,2768.557
2768567.0,226.0,31.0,4.0,257.0,2768.567
2768577.0,229.0,32.0,3.0,260.0,2768.577
2768587.0,227.0,32.0,3.0,256.0,2768.587
2768598.0,221.0,31.0,4.0,249.0,2768.598
2768608.0,224.0,32.0,4.0,254.0,2768.608
2768618.0,230.0,31.0,4.0,259.0,2768.618
2768628.0,227.0,32.0,3.0,256.0,2768.628
2768638.0,225.0,31.0,4.0,254.0,2768.638
2768648.0,219.0,31.0,4.0,247.0,2768.648
2768658.0,224.0,30.0,3.0,254.0,2768.658
2768668.0,229.0,32.0,4.0,261.0,2768.668
2768678.0,227.0,31.0,4.0,256.0,2768.678
2768688.0,226.0,31.0,4.0,256.0,2768.688
2768698.0,219.0,31.0,4.0,248.0,2768.698
2768708.0,225.0,32.0,3.0,258.0,2768.708
2768718.0,229.0,32.0,3.0,261.0,2768.718
2768728.0,228.0,31.0,3.0,259.0,2768.728
2768738.0,226.0,31.0,4.0,255.0,2768.738
2768748.0,218.0,31.0,4.0,246.0,2768.748
2768758.0,226.0,32.0,3.0,255.0,2768.758
2768768.0,229.0,32.0,3.0,257.0,2768.768
2768778.0,227.0,32.0,3.0,254.0,2768.778
2768788.0,225.0,32.0,5.0,251.0,2768.788
2768798.0,218.0,31.0,4.0,244.0,2768.798
2768808.0,227.0,31.0,4.0,255.0,2768.808
2768818.0,229.0,32.0,4.0,258.0,2768.818
2768828.0,227.0,31.0,4.0,254.0,2768.828
2768838.0,226.0,33.0,3.0,254.0,2768.838
2768848.0,219.0,32.0,3.0,246.0,2768.848
2768858.0,224.0,33.0,3.0,254.0,2768.858
2768868.0,231.0,32.0,5.0,259.0,2768.868
2768878.0,227.0,31.0,2.0,255.0,2768.878
2768888.0,226.0,32.0,3.0,253.0,2768.888
2768898.0,220.0,31.0,4.0,247.0,2768.898
2768908.0,224.0,32.0,3.0,255.0,2768.908
2768918.0,230.0,32.0,3.0,259.0,2768.918
2768928.0,226.0,32.0,4.0,254.0,2768.928
2768939.0,226.0,33.0,4.0,254.0,2768.939
2768949.0,220.0,32.0,3.0,249.0,2768.949
2768959.0,228.0,32.0,4.0,260.0,2768.959
2768969.0,229.0,33.0,3.0,258.0,2768.969
2768979.0,222.0,32.0,4.0,252.0,2768.979
2768989.0,224.0,33.0,3.0,255.0,2768.989
2768999.0,221.0,32.0,5.0,251.0,2768.999
2769009.0,228.0,32.0,4.0,260.0,2769.009
2769019.0,228.0,33.0,3.0,257.0,2769.019
2769029.0,225.0,32.0,2.0,254.0,2769.029
2769039.0,223.0,33.0,3.0,254.0,2769.039
2769049.0,221.0,32.0,4.0,252.0,2769.049
2769059.0,229.0,32.0,4.0,259.0,2769.059
2769069.0,229.0,33.0,4.0,259.0,2769.069
2769079.0,224.0,32.0,4.0,252.0,2769.079
2769089.0,224.0,33.0,3.0,254.0,2769.089
2769099.0,222.0,33.0,3.0,253.0,2769.099
2769110.0,229.0,32.0,4.0,259.0,2769.11
2769120.0,228.0,33.0,4.0,255.0,2769.12
2769130.0,222.0,31.0,4.0,248.0,2769.13
2769140.0,224.0,32.0,4.0,252.0,2769.14
2769150.0,228.0,32.0,4.0,258.0,2769.15
2769160.0,229.0,32.0,3.0,259.0,2769.16
2769170.0,228.0,32.0,4.0,255.0,2769.17
2769180.0,222.0,32.0,3.0,248.0,2769.18
2769190.0,224.0,32.0,4.0,251.0,2769.19
2769200.0,225.0,32.0,3.0,254.0,2769.2
2769210.0,229.0,32.0,3.0,257.0,2769.21
2769220.0,227.0,33.0,3.0,255.0,2769.22
2769230.0,221.0,32.0,3.0,246.0,2769.23
2769240.0,224.0,33.0,3.0,253.0,2769.24
2769250.0,225.0,32.0,4.0,255.0,2769.25
2769260.0,229.0,32.0,4.0,257.0,2769.26
2769270.0,227.0,33.0,3.0,254.0,2769.27
2769280.0,223.0,31.0,4.0,249.0,2769.28
2769290.0,223.0,33.0,3.0,251.0,2769.29
2769300.0,226.0,32.0,5.0,255.0,2769.3
2769310.0,227.0,32.0,3.0,255.0,2769.31
2769320.0,226.0,33.0,4.0,252.0,2769.32
2769330.0,221.0,32.0,3.0,247.0,2769.33
2769340.0,223.0,33.0,4.0,250.0,2769.34
2769350.0,226.0,33.0,3.0,256.0,2769.35
2769360.0,227.0,32.0,3.0,256.0,2769.36
2769370.0,228.0,33.0,3.0,256.0,2769.37
2769380.0,221.0,32.0,4.0,249.0,2769.38
2769390.0,223.0,33.0,3.0,252.0,2769.39
2769400.0,228.0,33.0,3.0,258.0,2769.4
2769410.0,228.0,33.0,2.0,259.0,2769.41
2769420.0,227.0,33.0,3.0,255.0,2769.42
2769430.0,220.0,32.0,4.0,247.0,2769.43
2769440.0,223.0,32.0,4.0,252.0,2769.44
2769451.0,229.0,33.0,4.0,259.0,2769.451
2769461.0,226.0,32.0,3.0,256.0,2769.461
2769471.0,226.0,32.0,4.0,254.0,2769.471
2769481.0,219.0,33.0,3.0,247.0,2769.481
2769491.0,225.0,33.0,4.0,257.0,2769.491
2769501.0,228.0,34.0,3.0,259.0,2769.501
2769511.0,227.0,32.0,4.0,254.0,2769.511
2769521.0,225.0,32.0,4.0,253.0,2769.521
2769531.0,217.0,33.0,3.0,247.0,2769.531
2769541.0,223.0,33.0,3.0,253.0,2769.541
2769551.0,229.0,32.0,3.0,259.0,2769.551
2769561.0,226.0,32.0,3.0,254.0,2769.561
2769571.0,224.0,32.0,4.0,253.0,2769.571
2769581.0,219.0,32.0,4.0,245.0,2769.581
2769591.0,224.0,33.0,4.0,254.0,2769.591
2769601.0,229.0,32.0,4.0,258.0,2769.601
2769611.0,225.0,34.0,3.0,253.0,2769.611
2769622.0,225.0,32.0,4.0,253.0,2769.622
2769632.0,219.0,33.0,4.0,249.0,2769.632
2769642.0,229.0,32.0,5.0,257.0,2769.642
2769652.0,229.0,33.0,2.0,256.0,2769.652
2769662.0,222.0,32.0,3.0,249.0,2769.662
2769672.0,224.0,33.0,2.0,252.0,2769.672
2769682.0,221.0,32.0,4.0,250.0,2769.682
2769692.0,228.0,32.0,4.0,258.0,2769.692
2769702.0,229.0,33.0,5.0,257.0,2769.702
2769712.0,224.0,32.0,3.0,252.0,2769.712
2769722.0,224.0,33.0,3.0,252.0,2769.722
2769732.0,221.0,33.0,4.0,251.0,2769.732
2769742.0,227.0,32.0,4.0,257.0,2769.742
2769752.0,229.0,33.0,4.0,258.0,2769.752
2769762.0,223.0,32.0,4.0,250.0,2769.762
2769772.0,225.0,32.0,4.0,251.0,2769.772
2769782.0,221.0,32.0,2.0,252.0,2769.782
2769792.0,227.0,32.0,4.0,256.0,2769.792
2769802.0,228.0,34.0,3.0,257.0,2769.802
2769812.0,222.0,32.0,3.0,250.0,2769.812
2769822.0,223.0,33.0,3.0,252.0,2769.822
2769832.0,224.0,33.0,4.0,253.0,2769.832
2769842.0,226.0,32.0,3.0,257.0,2769.842
2769852.0,229.0,32.0,4.0,257.0,2769.852
2769862.0,222.0,33.0,3.0,252.0,2769.862
2769872.0,223.0,32.0,3.0,252.0,2769.872
2769882.0,219.0,33.0,3.0,250.0,2769.882
2769892.0,227.0,33.0,4.0,259.0,2769.892
2769902.0,228.0,33.0,4.0,257.0,2769.902
2769912.0,220.0,33.0,3.0,249.0,2769.912
2769922.0,224.0,33.0,4.0,252.0,2769.922
2769932.0,219.0,34.0,3.0,250.0,2769.932
2769942.0,227.0,32.0,3.0,256.0,2769.942
2769952.0,227.0,33.0,3.0,255.0,2769.952
2769963.0,221.0,32.0,4.0,246.0,2769.963
2769973.0,222.0,32.0,4.0,249.0,2769.973
2769983.0,225.0,33.0,4.0,253.0,2769.983
2769993.0,227.0,33.0,3.0,255.0,2769.993
2770003.0,225.0,33.0,4.0,252.0,2770.003
2770013.0,219.0,33.0,3.0,247.0,2770.013
2770023.0,222.0,33.0,4.0,249.0,2770.023
2770033.0,226.0,33.0,3.0,255.0,2770.033
2770043.0,226.0,33.0,4.0,253.0,2770.043
2770053.0,227.0,33.0,3.0,253.0,2770.053
2770063.0,219.0,33.0,3.0,246.0,2770.063
2770073.0,223.0,32.0,3.0,249.0,2770.073
2770083.0,226.0,33.0,3.0,256.0,2770.083
2770093.0,227.0,32.0,3.0,255.0,2770.093
2770103.0,226.0,33.0,3.0,252.0,2770.103
2770113.0,219.0,33.0,4.0,244.0,2770.113
2770123.0,223.0,33.0,3.0,250.0,2770.123
2770134.0,228.0,32.0,4.0,256.0,2770.134
2770144.0,225.0,33.0,4.0,252.0,2770.144
2770154.0,225.0,33.0,5.0,251.0,2770.154
2770164.0,216.0,33.0,2.0,243.0,2770.164
2770174.0,224.0,32.0,3.0,253.0,2770.174
2770184.0,227.0,33.0,3.0,256.0,2770.184
2770194.0,225.0,32.0,3.0,251.0,2770.194
2770204.0,224.0,32.0,3.0,250.0,2770.204
2770214.0,216.0,32.0,5.0,243.0,2770.214
2770224.0,222.0,32.0,3.0,250.0,2770.224
2770234.0,227.0,33.0,3.0,256.0,2770.234
2770244.0,223.0,32.0,4.0,252.0,2770.244
2770254.0,223.0,33.0,3.0,251.0,2770.254
2770264.0,216.0,32.0,4.0,243.0,2770.264
2770274.0,221.0,33.0,3.0,252.0,2770.274
2770284.0,227.0,33.0,5.0,256.0,2770.284
2770294.0,222.0,32.0,3.0,251.0,2770.294
2770304.0,224.0,32.0,5.0,251.0,2770.304
2770314.0,215.0,33.0,3.0,244.0,2770.314
2770324.0,222.0,32.0,3.0,254.0,2770.324
2770334.0,227.0,32.0,4.0,256.0,2770.334
2770344.0,221.0,32.0,5.0,250.0,2770.344
2770354.0,222.0,32.0,3.0,251.0,2770.354
2770364.0,214.0,32.0,4.0,242.0,2770.364
2770374.0,222.0,32.0,3.0,253.0,2770.374
2770384.0,226.0,33.0,3.0,256.0,2770.384
2770394.0,223.0,32.0,3.0,253.0,2770.394
2770404.0,221.0,32.0,4.0,252.0,2770.404
2770414.0,215.0,31.0,4.0,244.0,2770.414
2770424.0,224.0,32.0,4.0,257.0,2770.424
2770434.0,227.0,32.0,4.0,258.0,2770.434
2770444.0,223.0,33.0,3.0,254.0,2770.444
2770454.0,222.0,32.0,4.0,252.0,2770.454
2770464.0,214.0,32.0,4.0,245.0,2770.464
2770475.0,224.0,32.0,4.0,256.0,2770.475
2770485.0,226.0,32.0,4.0,257.0,2770.485
2770495.0,219.0,32.0,4.0,249.0,2770.495
2770505.0,222.0,33.0,3.0,251.0,2770.505
2770515.0,221.0,32.0,3.0,252.0,2770.515
2770525.0,224.0,33.0,3.0,257.0,2770.525
2770535.0,228.0,33.0,4.0,256.0,2770.535
2770545.0,220.0,31.0,4.0,248.0,2770.545
2770555.0,222.0,32.0,3.0,252.0,2770.555
2770565.0,217.0,31.0,4.0,249.0,2770.565
2770575.0,225.0,33.0,3.0,259.0,2770.575
2770585.0,227.0,32.0,4.0,259.0,2770.585
2770595.0,218.0,32.0,4.0,250.0,2770.595
2770605.0,223.0,32.0,4.0,253.0,2770.605
2770615.0,218.0,33.0,3.0,251.0,2770.615
2770625.0,225.0,32.0,3.0,258.0,2770.625
2770635.0,227.0,34.0,4.0,257.0,2770.635
2770646.0,218.0,32.0,3.0,248.0,2770.646
2770656.0,221.0,32.0,3.0,250.0,2770.656
2770666.0,225.0,32.0,5.0,257.0,2770.666
2770676.0,224.0,33.0,3.0,257.0,2770.676
2770686.0,224.0,33.0,4.0,254.0,2770.686
2770696.0,218.0,33.0,3.0,248.0,2770.696
2770706.0,221.0,33.0,3.0,252.0,2770.706
2770716.0,225.0,32.0,4.0,258.0,2770.716
2770726.0,224.0,33.0,4.0,256.0,2770.726
2770736.0,227.0,33.0,3.0,255.0,2770.736
2770746.0,217.0,33.0,2.0,248.0,2770.746
2770756.0,221.0,33.0,3.0,251.0,2770.756
2770766.0,226.0,34.0,3.0,258.0,2770.766
2770776.0,225.0,32.0,4.0,257.0,2770.776
2770786.0,225.0,33.0,3.0,253.0,2770.786
2770796.0,217.0,32.0,4.0,246.0,2770.796
2770806.0,219.0,33.0,2.0,251.0,2770.806
2770816.0,222.0,33.0,5.0,254.0,2770.816
2770826.0,224.0,33.0,3.0,258.0,2770.826
2770836.0,225.0,32.0,4.0,254.0,2770.836
2770846.0,215.0,32.0,4.0,246.0,2770.846
2770856.0,219.0,32.0,4.0,252.0,2770.856
2770866.0,222.0,32.0,3.0,255.0,2770.866
2770876.0,222.0,33.0,3.0,257.0,2770.876
2770886.0,223.0,33.0,3.0,254.0,2770.886
2770896.0,214.0,33.0,3.0,246.0,2770.896
2770906.0,219.0,33.0,4.0,251.0,2770.906
2770916.0,223.0,33.0,4.0,255.0,2770.916
2770926.0,224.0,32.0,5.0,254.0,2770.926
2770936.0,223.0,33.0,2.0,253.0,2770.936
2770946.0,217.0,33.0,4.0,247.0,2770.946
2770956.0,219.0,34.0,3.0,252.0,2770.956
2770966.0,223.0,32.0,4.0,257.0,2770.966
2770976.0,222.0,33.0,3.0,255.0,2770.976
2770987.0,224.0,33.0,4.0,253.0,2770.987
2770997.0,214.0,33.0,4.0,244.0,2770.997
2771007.0,222.0,33.0,4.0,255.0,2771.007
2771017.0,227.0,33.0,4.0,259.0,2771.017
2771027.0,220.0,32.0,3.0,253.0,2771.027
2771037.0,223.0,33.0,3.0,254.0,2771.037
2771047.0,214.0,32.0,4.0,244.0,2771.047
2771057.0,222.0,33.0,4.0,255.0,2771.057
2771067.0,226.0,33.0,2.0,258.0,2771.067
2771077.0,223.0,32.0,4.0,253.0,2771.077
2771087.0,223.0,34.0,3.0,254.0,2771.087
2771097.0,215.0,33.0,3.0,245.0,2771.097
2771107.0,224.0,32.0,4.0,255.0,2771.107
2771117.0,228.0,33.0,4.0,258.0,2771.117
2771127.0,222.0,33.0,4.0,253.0,2771.127
2771137.0,224.0,33.0,3.0,252.0,2771.137
2771147.0,215.0,33.0,3.0,247.0,2771.147
2771158.0,224.0,32.0,3.0,256.0,2771.158
2771168.0,228.0,32.0,4.0,257.0,2771.168
2771178.0,221.0,32.0,4.0,249.0,2771.178
2771188.0,223.0,31.0,3.0,252.0,2771.188
2771198.0,222.0,32.0,4.0,253.0,2771.198
2771208.0,225.0,32.0,3.0,257.0,2771.208
2771218.0,228.0,32.0,4.0,257.0,2771.218
2771228.0,220.0,32.0,3.0,249.0,2771.228
2771238.0,221.0,32.0,4.0,251.0,2771.238
2771248.0,217.0,32.0,4.0,249.0,2771.248
2771258.0,224.0,32.0,4.0,258.0,2771.258
2771268.0,227.0,32.0,4.0,257.0,2771.268
2771278.0,218.0,33.0,3.0,249.0,2771.278
2771288.0,222.0,32.0,4.0,252.0,2771.288
2771298.0,217.0,32.0,4.0,250.0,2771.298
2771308.0,225.0,32.0,5.0,257.0,2771.308
2771318.0,226.0,32.0,4.0,255.0,2771.318
2771328.0,220.0,32.0,4.0,251.0,2771.328
2771338.0,222.0,33.0,4.0,252.0,2771.338
2771348.0,218.0,33.0,3.0,251.0,2771.348
2771358.0,224.0,32.0,3.0,257.0,2771.358
2771368.0,225.0,32.0,4.0,255.0,2771.368
2771378.0,218.0,32.0,3.0,250.0,2771.378
2771388.0,220.0,32.0,2.0,252.0,2771.388
2771398.0,220.0,32.0,3.0,252.0,2771.398
2771408.0,224.0,33.0,3.0,256.0,2771.408
2771418.0,228.0,33.0,3.0,256.0,2771.418
2771428.0,219.0,32.0,3.0,249.0,2771.428
2771438.0,221.0,33.0,4.0,251.0,2771.438
2771448.0,222.0,32.0,3.0,254.0,2771.448
2771458.0,224.0,32.0,4.0,257.0,2771.458
2771468.0,227.0,33.0,3.0,259.0,2771.468
2771478.0,219.0,32.0,4.0,250.0,2771.478
2771488.0,222.0,32.0,3.0,252.0,2771.488
2771499.0,223.0,32.0,5.0,255.0,2771.499
2771509.0,226.0,31.0,4.0,256.0,2771.509
2771519.0,227.0,32.0,4.0,254.0,2771.519
2771529.0,217.0,32.0,3.0,246.0,2771.529
2771539.0,221.0,33.0,3.0,252.0,2771.539
2771549.0,224.0,32.0,4.0,255.0,2771.549
2771559.0,225.0,32.0,3.0,256.0,2771.559
2771569.0,226.0,32.0,5.0,254.0,2771.569
2771579.0,215.0,32.0,3.0,245.0,2771.579
2771589.0,223.0,31.0,5.0,251.0,2771.589
2771599.0,225.0,33.0,3.0,257.0,2771.599
2771609.0,224.0,32.0,3.0,256.0,2771.609
2771619.0,224.0,32.0,3.0,255.0,2771.619
2771629.0,216.0,32.0,3.0,249.0,2771.629
2771639.0,221.0,32.0,4.0,253.0,2771.639
2771649.0,225.0,32.0,4.0,257.0,2771.649
2771659.0,223.0,32.0,3.0,257.0,2771.659
2771670.0,225.0,32.0,3.0,254.0,2771.67
2771680.0,215.0,32.0,4.0,245.0,2771.68
2771690.0,223.0,32.0,4.0,255.0,2771.69
2771700.0,230.0,31.0,4.0,258.0,2771.7
2771710.0,221.0,32.0,3.0,253.0,2771.71
2771720.0,225.0,32.0,3.0,253.0,2771.72
2771730.0,215.0,31.0,4.0,245.0,2771.73
2771740.0,223.0,32.0,4.0,256.0,2771.74
2771750.0,229.0,32.0,4.0,258.0,2771.75
2771760.0,224.0,31.0,4.0,254.0,2771.76
2771770.0,224.0,31.0,4.0,252.0,2771.77
2771780.0,214.0,31.0,3.0,245.0,2771.78
2771790.0,223.0,32.0,3.0,256.0,2771.79
2771800.0,227.0,32.0,4.0,259.0,2771.8
2771810.0,222.0,32.0,3.0,253.0,2771.81
2771820.0,223.0,32.0,5.0,252.0,2771.82
2771830.0,216.0,31.0,3.0,246.0,2771.83
2771840.0,221.0,33.0,4.0,253.0,2771.84
2771850.0,227.0,32.0,4.0,258.0,2771.85
2771860.0,221.0,32.0,3.0,253.0,2771.86
2771870.0,223.0,32.0,4.0,252.0,2771.87
2771880.0,215.0,32.0,4.0,247.0,2771.88
2771890.0,222.0,32.0,4.0,254.0,2771.89
2771900.0,227.0,32.0,4.0,259.0,2771.9
2771910.0,221.0,32.0,3.0,252.0,2771.91
2771920.0,222.0,33.0,3.0,253.0,2771.92
2771930.0,214.0,32.0,4.0,244.0,2771.93
2771940.0,221.0,33.0,3.0,255.0,2771.94
2771950.0,228.0,33.0,4.0,258.0,2771.95
2771960.0,220.0,31.0,3.0,251.0,2771.96
2771970.0,223.0,33.0,3.0,251.0,2771.97
2771980.0,214.0,32.0,3.0,245.0,2771.98
2771990.0,222.0,32.0,3.0,256.0,2771.99
2772000.0,227.0,32.0,3.0,257.0,2772.0
2772011.0,219.0,32.0,4.0,250.0,2772.011
2772021.0,222.0,31.0,4.0,251.0,2772.021
2772031.0,219.0,32.0,4.0,252.0,2772.031
2772041.0,225.0,32.0,3.0,257.0,2772.041
2772051.0,227.0,33.0,4.0,256.0,2772.051
2772061.0,218.0,32.0,4.0,251.0,2772.061
2772071.0,221.0,32.0,3.0,253.0,2772.071
2772081.0,221.0,31.0,4.0,255.0,2772.081
2772091.0,224.0,32.0,4.0,260.0,2772.091
2772101.0,228.0,33.0,4.0,259.0,2772.101
2772111.0,218.0,33.0,3.0,253.0,2772.111
2772121.0,222.0,32.0,3.0,253.0,2772.121
2772131.0,222.0,32.0,4.0,254.0,2772.131
2772141.0,223.0,32.0,3.0,258.0,2772.141
2772151.0,228.0,32.0,4.0,257.0,2772.151
2772161.0,217.0,32.0,4.0,250.0,2772.161
2772171.0,222.0,32.0,3.0,252.0,2772.171
2772182.0,223.0,33.0,3.0,255.0,2772.182
2772192.0,224.0,31.0,4.0,256.0,2772.192
2772202.0,225.0,32.0,4.0,253.0,2772.202
2772212.0,216.0,31.0,4.0,246.0,2772.212
2772222.0,220.0,32.0,2.0,253.0,2772.222
2772232.0,225.0,31.0,4.0,255.0,2772.232
2772242.0,224.0,32.0,4.0,256.0,2772.242
2772252.0,225.0,32.0,3.0,254.0,2772.252
2772262.0,214.0,32.0,4.0,245.0,2772.262
2772272.0,220.0,32.0,4.0,251.0,2772.272
2772282.0,224.0,31.0,3.0,257.0,2772.282
2772292.0,223.0,32.0,3.0,257.0,2772.292
2772302.0,225.0,32.0,4.0,255.0,2772.302
2772312.0,216.0,32.0,4.0,248.0,2772.312
2772322.0,221.0,32.0,3.0,252.0,2772.322
2772332.0,225.0,33.0,4.0,258.0,2772.332
2772342.0,223.0,31.0,4.0,255.0,2772.342
2772352.0,227.0,32.0,4.0,255.0,2772.352
2772362.0,216.0,32.0,4.0,247.0,2772.362
2772372.0,219.0,33.0,3.0,252.0,2772.372
2772382.0,226.0,32.0,3.0,258.0,2772.382
2772392.0,222.0,32.0,3.0,255.0,2772.392
2772402.0,226.0,32.0,4.0,254.0,2772.402
2772412.0,215.0,32.0,4.0,246.0,2772.412
2772422.0,220.0,32.0,3.0,252.0,2772.422
2772432.0,226.0,32.0,3.0,259.0,2772.432
2772442.0,224.0,32.0,4.0,257.0,2772.442
2772452.0,225.0,32.0,3.0,255.0,2772.452
2772462.0,215.0,32.0,5.0,246.0,2772.462
2772472.0,220.0,33.0,3.0,254.0,2772.472
2772482.0,222.0,32.0,4.0,255.0,2772.482
2772492.0,224.0,33.0,3.0,258.0,2772.492
2772502.0,225.0,33.0,3.0,255.0,2772.502
2772512.0,215.0,33.0,3.0,245.0,2772.512
2772523.0,221.0,33.0,3.0,254.0,2772.523
2772533.0,228.0,33.0,4.0,258.0,2772.533
2772543.0,220.0,33.0,2.0,254.0,2772.543
2772553.0,223.0,33.0,3.0,253.0,2772.553
2772563.0,216.0,33.0,3.0,249.0,2772.563
2772573.0,222.0,33.0,3.0,255.0,2772.573
2772583.0,228.0,34.0,3.0,260.0,2772.583
2772593.0,221.0,33.0,4.0,253.0,2772.593
2772603.0,223.0,33.0,3.0,254.0,2772.603
2772613.0,216.0,33.0,4.0,245.0,2772.613
2772623.0,222.0,33.0,3.0,256.0,2772.623
2772633.0,227.0,34.0,3.0,258.0,2772.633
2772643.0,220.0,32.0,4.0,251.0,2772.643
2772653.0,223.0,33.0,3.0,252.0,2772.653
2772663.0,214.0,33.0,4.0,245.0,2772.663
2772673.0,221.0,34.0,4.0,256.0,2772.673
2772683.0,227.0,33.0,4.0,258.0,2772.683
2772694.0,218.0,34.0,3.0,252.0,2772.694
2772704.0,222.0,32.0,4.0,252.0,2772.704
2772714.0,219.0,33.0,4.0,253.0,2772.714
2772724.0,225.0,33.0,4.0,258.0,2772.724
2772734.0,226.0,33.0,3.0,255.0,2772.734
2772744.0,220.0,33.0,5.0,250.0,2772.744
2772754.0,222.0,32.0,4.0,252.0,2772.754
2772764.0,220.0,32.0,3.0,252.0,2772.764
2772774.0,225.0,32.0,4.0,257.0,2772.774
2772784.0,228.0,33.0,5.0,257.0,2772.784
2772794.0,219.0,32.0,4.0,249.0,2772.794
2772804.0,222.0,32.0,4.0,251.0,2772.804
2772814.0,221.0,33.0,3.0,254.0,2772.814
2772824.0,224.0,32.0,3.0,257.0,2772.824
2772834.0,227.0,33.0,3.0,257.0,2772.834
2772844.0,218.0,32.0,3.0,248.0,2772.844
2772854.0,221.0,33.0,4.0,250.0,2772.854
2772864.0,216.0,32.0,3.0,247.0,2772.864
2772874.0,224.0,32.0,4.0,256.0,2772.874
2772884.0,227.0,33.0,4.0,255.0,2772.884
2772894.0,217.0,32.0,4.0,246.0,2772.894
2772904.0,220.0,32.0,3.0,250.0,2772.904
2772914.0,217.0,32.0,4.0,249.0,2772.914
2772924.0,225.0,31.0,4.0,257.0,2772.924
2772934.0,227.0,32.0,4.0,255.0,2772.934
2772944.0,218.0,33.0,3.0,249.0,2772.944
2772954.0,221.0,32.0,3.0,251.0,2772.954
2772964.0,220.0,32.0,3.0,251.0,2772.964
2772974.0,226.0,32.0,4.0,257.0,2772.974
2772984.0,228.0,33.0,4.0,254.0,2772.984
2772994.0,219.0,32.0,3.0,250.0,2772.994
2773004.0,221.0,33.0,3.0,251.0,2773.004
2773014.0,220.0,33.0,3.0,252.0,2773.014
2773024.0,225.0,32.0,4.0,256.0,2773.024
2773035.0,225.0,32.0,4.0,254.0,2773.035
2773045.0,217.0,32.0,4.0,247.0,2773.045
2773055.0,220.0,32.0,2.0,251.0,2773.055
2773065.0,225.0,32.0,4.0,257.0,2773.065
2773075.0,223.0,33.0,3.0,255.0,2773.075
2773085.0,225.0,32.0,4.0,253.0,2773.085
2773095.0,216.0,32.0,3.0,247.0,2773.095
2773105.0,220.0,33.0,2.0,253.0,2773.105
2773115.0,226.0,33.0,3.0,259.0,2773.115
2773125.0,224.0,32.0,3.0,257.0,2773.125
2773135.0,226.0,32.0,4.0,256.0,2773.135
2773145.0,216.0,33.0,3.0,248.0,2773.145
2773155.0,221.0,32.0,4.0,255.0,2773.155
2773165.0,223.0,32.0,3.0,257.0,2773.165
2773175.0,225.0,31.0,4.0,258.0,2773.175
2773185.0,223.0,33.0,2.0,255.0,2773.185
2773195.0,215.0,32.0,4.0,245.0,2773.195
2773206.0,220.0,33.0,3.0,255.0,2773.206
2773216.0,226.0,32.0,4.0,260.0,2773.216
2773226.0,221.0,32.0,4.0,254.0,2773.226
2773236.0,223.0,32.0,5.0,254.0,2773.236
2773246.0,215.0,32.0,4.0,249.0,2773.246
2773256.0,222.0,32.0,5.0,255.0,2773.256
2773266.0,227.0,32.0,3.0,260.0,2773.266
2773276.0,221.0,32.0,3.0,253.0,2773.276
2773286.0,222.0,32.0,3.0,253.0,2773.286
2773296.0,214.0,32.0,3.0,245.0,2773.296
2773306.0,222.0,33.0,3.0,255.0,2773.306
2773316.0,226.0,32.0,4.0,259.0,2773.316
2773326.0,220.0,32.0,4.0,252.0,2773.326
2773336.0,222.0,32.0,3.0,252.0,2773.336
2773346.0,214.0,32.0,4.0,245.0,2773.346
2773356.0,221.0,32.0,4.0,256.0,2773.356
2773366.0,227.0,32.0,4.0,258.0,2773.366
2773376.0,221.0,32.0,3.0,254.0,2773.376
2773386.0,222.0,32.0,4.0,252.0,2773.386
2773396.0,214.0,33.0,3.0,247.0,2773.396
2773406.0,223.0,32.0,4.0,256.0,2773.406
2773416.0,226.0,33.0,3.0,257.0,2773.416
2773426.0,221.0,32.0,3.0,253.0,2773.426
2773436.0,222.0,31.0,4.0,251.0,2773.436
2773446.0,215.0,32.0,4.0,245.0,2773.446
2773456.0,224.0,33.0,3.0,257.0,2773.456
2773466.0,226.0,33.0,3.0,257.0,2773.466
2773476.0,221.0,32.0,3.0,252.0,2773.476
2773486.0,222.0,32.0,4.0,251.0,2773.486
2773496.0,217.0,31.0,5.0,246.0,2773.496
2773506.0,221.0,33.0,3.0,253.0,2773.506
2773516.0,227.0,33.0,4.0,257.0,2773.516
2773526.0,222.0,33.0,3.0,252.0,2773.526
2773536.0,223.0,32.0,4.0,252.0,2773.536
2773547.0,217.0,32.0,3.0,248.0,2773.547
2773557.0,226.0,32.0,4.0,257.0,2773.557
2773567.0,226.0,33.0,2.0,255.0,2773.567
2773577.0,218.0,32.0,3.0,247.0,2773.577
2773587.0,220.0,33.0,3.0,250.0,2773.587
2773597.0,218.0,32.0,4.0,249.0,2773.597
2773607.0,225.0,32.0,3.0,257.0,2773.607
2773617.0,227.0,33.0,2.0,254.0,2773.617
2773627.0,218.0,31.0,3.0,246.0,2773.627
2773637.0,221.0,33.0,4.0,250.0,2773.637
2773647.0,219.0,32.0,4.0,249.0,2773.647
2773657.0,225.0,33.0,3.0,255.0,2773.657
2773667.0,226.0,32.0,4.0,253.0,2773.667
2773677.0,219.0,33.0,3.0,249.0,2773.677
2773687.0,222.0,32.0,4.0,250.0,2773.687
2773697.0,220.0,33.0,2.0,252.0,2773.697
2773707.0,225.0,32.0,4.0,256.0,2773.707
2773718.0,226.0,33.0,3.0,255.0,2773.718
2773728.0,217.0,32.0,4.0,245.0,2773.728
2773738.0,220.0,31.0,3.0,249.0,2773.738
2773748.0,226.0,32.0,5.0,256.0,2773.748
2773758.0,224.0,31.0,3.0,253.0,2773.758
2773768.0,225.0,32.0,3.0,252.0,2773.768
2773778.0,217.0,32.0,3.0,245.0,2773.778
2773788.0,221.0,32.0,3.0,250.0,2773.788
2773798.0,226.0,32.0,4.0,257.0,2773.798
2773808.0,225.0,32.0,3.0,256.0,2773.808
2773818.0,225.0,32.0,4.0,253.0,2773.818
2773828.0,215.0,32.0,3.0,246.0,2773.828
2773838.0,220.0,32.0,3.0,252.0,2773.838
2773848.0,223.0,32.0,2.0,256.0,2773.848
2773858.0,224.0,32.0,4.0,255.0,2773.858
2773868.0,224.0,32.0,4.0,253.0,2773.868
2773878.0,216.0,32.0,5.0,243.0,2773.878
2773888.0,220.0,32.0,3.0,250.0,2773.888
2773898.0,223.0,32.0,4.0,254.0,2773.898
2773908.0,224.0,33.0,3.0,256.0,2773.908
2773918.0,223.0,33.0,3.0,253.0,2773.918
2773928.0,215.0,33.0,3.0,244.0,2773.928
2773938.0,220.0,33.0,3.0,250.0,2773.938
2773948.0,225.0,33.0,3.0,256.0,2773.948
2773958.0,224.0,33.0,3.0,254.0,2773.958
2773968.0,224.0,33.0,3.0,251.0,2773.968
2773978.0,217.0,33.0,3.0,245.0,2773.978
2773988.0,221.0,32.0,4.0,250.0,2773.988
2773998.0,226.0,33.0,3.0,257.0,2773.998
2774008.0,225.0,32.0,5.0,254.0,2774.008
2774018.0,225.0,33.0,3.0,254.0,2774.018
2774028.0,217.0,33.0,4.0,246.0,2774.028
2774038.0,220.0,34.0,3.0,253.0,2774.038
2774048.0,226.0,33.0,4.0,257.0,2774.048
2774059.0,222.0,33.0,3.0,253.0,2774.059
2774069.0,223.0,34.0,4.0,252.0,2774.069
2774079.0,214.0,32.0,4.0,244.0,2774.079
2774089.0,222.0,33.0,3.0,255.0,2774.089
2774099.0,227.0,33.0,3.0,258.0,2774.099
2774109.0,222.0,33.0,3.0,252.0,2774.109
2774119.0,223.0,33.0,3.0,250.0,2774.119
2774129.0,215.0,32.0,3.0,245.0,2774.129
2774139.0,224.0,32.0,4.0,255.0,2774.139
