time (ms),signal 0,signal 1,signal 2,signal 3,time (sec)
2837523.0,218.0,32.0,4.0,245.0,2837.523
2837533.0,214.0,32.0,3.0,239.0,2837.533
2837543.0,213.0,33.0,3.0,240.0,2837.543
2837553.0,207.0,32.0,4.0,232.0,2837.553
2837563.0,215.0,32.0,4.0,242.0,2837.563
2837573.0,217.0,33.0,4.0,246.0,2837.573
2837583.0,214.0,31.0,4.0,240.0,2837.583
2837593.0,214.0,33.0,3.0,242.0,2837.593
2837603.0,208.0,32.0,3.0,234.0,2837.603
2837613.0,216.0,33.0,3.0,245.0,2837.613
2837623.0,219.0,32.0,4.0,246.0,2837.623
2837633.0,216.0,33.0,3.0,243.0,2837.633
2837643.0,215.0,32.0,5.0,241.0,2837.643
2837653.0,208.0,32.0,3.0,235.0,2837.653
2837663.0,218.0,32.0,4.0,245.0,2837.663
2837673.0,220.0,33.0,3.0,247.0,2837.673
2837683.0,217.0,32.0,3.0,242.0,2837.683
2837693.0,217.0,32.0,4.0,242.0,2837.693
2837703.0,211.0,32.0,4.0,237.0,2837.703
2837713.0,220.0,31.0,4.0,247.0,2837.713
2837723.0,221.0,33.0,4.0,248.0,2837.723
2837733.0,219.0,32.0,4.0,242.0,2837.733
2837743.0,217.0,33.0,3.0,244.0,2837.743
2837753.0,213.0,32.0,4.0,238.0,2837.753
2837763.0,218.0,32.0,3.0,245.0,2837.763
2837773.0,224.0,33.0,4.0,250.0,2837.773
2837783.0,218.0,32.0,3.0,243.0,2837.783
2837793.0,219.0,32.0,4.0,243.0,2837.793
2837803.0,212.0,32.0,2.0,235.0,2837.803
2837813.0,219.0,32.0,3.0,245.0,2837.813
2837823.0,224.0,32.0,4.0,249.0,2837.823
2837833.0,220.0,32.0,4.0,242.0,2837.833
2837843.0,219.0,32.0,4.0,242.0,2837.843
2837853.0,212.0,33.0,4.0,236.0,2837.853
2837863.0,221.0,33.0,4.0,247.0,2837.863
2837873.0,224.0,33.0,3.0,250.0,2837.873
2837883.0,220.0,32.0,4.0,242.0,2837.883
2837893.0,221.0,33.0,3.0,245.0,2837.893
2837903.0,215.0,33.0,3.0,237.0,2837.903
2837913.0,222.0,32.0,4.0,248.0,2837.913
2837923.0,225.0,33.0,4.0,250.0,2837.923
2837933.0,222.0,32.0,4.0,245.0,2837.933
2837943.0,221.0,32.0,4.0,245.0,2837.943
2837953.0,214.0,32.0,4.0,240.0,2837.953
2837963.0,224.0,33.0,3.0,251.0,2837.963
2837974.0,226.0,33.0,3.0,251.0,2837.974
2837984.0,220.0,32.0,3.0,242.0,2837.984
2837994.0,220.0,33.0,3.0,245.0,2837.994
2838004.0,219.0,32.0,3.0,246.0,2838.004
2838014.0,222.0,32.0,3.0,249.0,2838.014
2838024.0,223.0,33.0,3.0,251.0,2838.024
2838034.0,217.0,32.0,4.0,243.0,2838.034
2838044.0,218.0,33.0,2.0,244.0,2838.044
2838054.0,219.0,32.0,4.0,248.0,2838.054
2838064.0,222.0,33.0,3.0,251.0,2838.064
2838074.0,224.0,32.0,4.0,251.0,2838.074
2838084.0,217.0,32.0,4.0,241.0,2838.084
2838094.0,219.0,33.0,4.0,243.0,2838.094
2838104.0,216.0,33.0,3.0,242.0,2838.104
2838114.0,224.0,32.0,4.0,251.0,2838.114
2838124.0,225.0,33.0,3.0,252.0,2838.124
2838134.0,217.0,32.0,4.0,244.0,2838.134
2838144.0,219.0,33.0,3.0,249.0,2838.144
2838154.0,217.0,32.0,4.0,246.0,2838.154
2838164.0,224.0,31.0,4.0,252.0,2838.164
2838174.0,224.0,33.0,4.0,249.0,2838.174
2838184.0,217.0,32.0,3.0,244.0,2838.184
2838194.0,220.0,32.0,3.0,249.0,2838.194
2838204.0,220.0,32.0,4.0,248.0,2838.204
2838214.0,225.0,32.0,4.0,254.0,2838.214
2838224.0,227.0,33.0,4.0,253.0,2838.224
2838234.0,221.0,33.0,3.0,247.0,2838.234
2838244.0,223.0,33.0,3.0,250.0,2838.244
2838254.0,224.0,33.0,3.0,253.0,2838.254
2838264.0,232.0,32.0,4.0,253.0,2838.264
2838274.0,236.0,32.0,3.0,253.0,2838.274
2838284.0,232.0,32.0,4.0,243.0,2838.284
2838294.0,233.0,33.0,3.0,246.0,2838.294
2838304.0,231.0,33.0,3.0,251.0,2838.304
2838315.0,233.0,33.0,3.0,255.0,2838.315
2838325.0,228.0,33.0,3.0,255.0,2838.325
2838335.0,225.0,32.0,4.0,245.0,2838.335
2838345.0,230.0,33.0,5.0,250.0,2838.345
2838355.0,234.0,33.0,4.0,255.0,2838.355
2838365.0,231.0,33.0,4.0,252.0,2838.365
2838375.0,228.0,33.0,3.0,249.0,2838.375
2838385.0,223.0,34.0,3.0,242.0,2838.385
2838395.0,229.0,32.0,3.0,248.0,2838.395
2838405.0,227.0,33.0,3.0,248.0,2838.405
2838415.0,223.0,33.0,5.0,247.0,2838.415
2838425.0,220.0,33.0,4.0,248.0,2838.425
2838435.0,217.0,33.0,3.0,240.0,2838.435
2838445.0,218.0,33.0,3.0,245.0,2838.445
2838455.0,229.0,33.0,3.0,252.0,2838.455
2838465.0,230.0,32.0,4.0,249.0,2838.465
2838475.0,228.0,33.0,4.0,249.0,2838.475
2838486.0,224.0,33.0,4.0,239.0,2838.486
2838496.0,216.0,33.0,3.0,249.0,2838.496
2838506.0,222.0,33.0,3.0,252.0,2838.506
2838516.0,224.0,33.0,3.0,242.0,2838.516
2838526.0,226.0,33.0,3.0,244.0,2838.526
2838536.0,222.0,33.0,3.0,235.0,2838.536
2838546.0,228.0,33.0,4.0,249.0,2838.546
2838556.0,229.0,33.0,4.0,258.0,2838.556
2838566.0,224.0,32.0,4.0,249.0,2838.566
2838576.0,226.0,33.0,2.0,251.0,2838.576
2838586.0,218.0,32.0,4.0,240.0,2838.586
2838596.0,228.0,32.0,3.0,251.0,2838.596
2838606.0,233.0,33.0,4.0,253.0,2838.606
2838616.0,228.0,33.0,3.0,246.0,2838.616
2838626.0,226.0,33.0,3.0,247.0,2838.626
2838636.0,219.0,33.0,3.0,240.0,2838.636
2838646.0,231.0,33.0,3.0,248.0,2838.646
2838656.0,230.0,33.0,4.0,252.0,2838.656
2838666.0,225.0,32.0,4.0,248.0,2838.666
2838676.0,226.0,33.0,3.0,246.0,2838.676
2838686.0,216.0,32.0,4.0,242.0,2838.686
2838696.0,224.0,32.0,4.0,253.0,2838.696
2838706.0,227.0,34.0,3.0,257.0,2838.706
2838716.0,224.0,32.0,4.0,249.0,2838.716
2838726.0,224.0,32.0,4.0,250.0,2838.726
2838736.0,220.0,32.0,4.0,241.0,2838.736
2838746.0,225.0,32.0,3.0,247.0,2838.746
2838756.0,228.0,32.0,4.0,249.0,2838.756
2838766.0,223.0,33.0,3.0,244.0,2838.766
2838776.0,223.0,32.0,3.0,242.0,2838.776
2838786.0,216.0,33.0,3.0,238.0,2838.786
2838796.0,225.0,32.0,4.0,248.0,2838.796
2838806.0,228.0,31.0,3.0,251.0,2838.806
2838816.0,222.0,32.0,4.0,241.0,2838.816
2838827.0,221.0,32.0,4.0,240.0,2838.827
2838837.0,218.0,32.0,3.0,238.0,2838.837
2838847.0,226.0,32.0,4.0,246.0,2838.847
2838857.0,229.0,32.0,4.0,246.0,2838.857
2838867.0,221.0,31.0,4.0,239.0,2838.867
2838877.0,223.0,32.0,4.0,246.0,2838.877
2838887.0,222.0,32.0,3.0,246.0,2838.887
2838897.0,229.0,33.0,3.0,253.0,2838.897
2838907.0,229.0,32.0,3.0,252.0,2838.907
2838917.0,223.0,33.0,3.0,248.0,2838.917
2838927.0,227.0,31.0,4.0,249.0,2838.927
2838937.0,223.0,31.0,3.0,248.0,2838.937
2838947.0,228.0,31.0,3.0,252.0,2838.947
2838957.0,229.0,31.0,4.0,253.0,2838.957
2838967.0,221.0,31.0,3.0,244.0,2838.967
2838977.0,222.0,32.0,4.0,244.0,2838.977
2838987.0,222.0,32.0,4.0,246.0,2838.987
2838998.0,224.0,31.0,4.0,251.0,2838.998
2839008.0,224.0,32.0,3.0,249.0,2839.008
2839018.0,216.0,31.0,3.0,244.0,2839.018
2839028.0,219.0,32.0,3.0,250.0,2839.028
2839038.0,223.0,32.0,3.0,256.0,2839.038
2839048.0,224.0,31.0,3.0,254.0,2839.048
2839058.0,227.0,31.0,4.0,252.0,2839.058
2839068.0,217.0,31.0,4.0,244.0,2839.068
2839078.0,221.0,32.0,4.0,251.0,2839.078
2839088.0,222.0,31.0,2.0,255.0,2839.088
2839098.0,224.0,32.0,4.0,256.0,2839.098
2839108.0,224.0,32.0,3.0,253.0,2839.108
2839118.0,214.0,32.0,4.0,244.0,2839.118
2839128.0,219.0,31.0,4.0,249.0,2839.128
2839138.0,221.0,32.0,3.0,254.0,2839.138
2839148.0,222.0,32.0,3.0,256.0,2839.148
2839158.0,223.0,32.0,4.0,254.0,2839.158
2839168.0,217.0,31.0,3.0,247.0,2839.168
2839178.0,219.0,31.0,4.0,248.0,2839.178
2839188.0,222.0,31.0,4.0,253.0,2839.188
2839198.0,222.0,31.0,4.0,252.0,2839.198
2839208.0,221.0,31.0,4.0,251.0,2839.208
2839218.0,218.0,31.0,4.0,246.0,2839.218
2839228.0,222.0,32.0,3.0,250.0,2839.228
2839238.0,226.0,32.0,3.0,256.0,2839.238
2839248.0,228.0,31.0,4.0,254.0,2839.248
2839258.0,229.0,31.0,3.0,255.0,2839.258
2839268.0,219.0,31.0,4.0,244.0,2839.268
2839278.0,222.0,32.0,3.0,249.0,2839.278
2839288.0,228.0,31.0,4.0,252.0,2839.288
2839298.0,227.0,32.0,4.0,252.0,2839.298
2839308.0,226.0,32.0,4.0,250.0,2839.308
2839318.0,219.0,31.0,4.0,242.0,2839.318
2839328.0,220.0,32.0,3.0,247.0,2839.328
2839339.0,226.0,31.0,4.0,251.0,2839.339
2839349.0,223.0,32.0,3.0,248.0,2839.349
2839359.0,223.0,30.0,4.0,247.0,2839.359
2839369.0,213.0,32.0,4.0,242.0,2839.369
2839379.0,222.0,31.0,5.0,253.0,2839.379
2839389.0,223.0,32.0,3.0,254.0,2839.389
2839399.0,217.0,31.0,3.0,249.0,2839.399
2839409.0,217.0,33.0,3.0,249.0,2839.409
2839419.0,208.0,30.0,4.0,242.0,2839.419
2839429.0,213.0,32.0,3.0,251.0,2839.429
2839439.0,220.0,32.0,4.0,255.0,2839.439
2839449.0,215.0,31.0,4.0,248.0,2839.449
2839459.0,212.0,31.0,4.0,246.0,2839.459
2839469.0,205.0,32.0,4.0,237.0,2839.469
2839479.0,214.0,32.0,3.0,246.0,2839.479
2839489.0,219.0,32.0,4.0,251.0,2839.489
2839499.0,213.0,32.0,4.0,245.0,2839.499
2839510.0,219.0,31.0,4.0,246.0,2839.51
2839520.0,212.0,31.0,4.0,243.0,2839.52
2839530.0,221.0,31.0,3.0,252.0,2839.53
2839540.0,227.0,33.0,3.0,253.0,2839.54
2839550.0,219.0,32.0,3.0,242.0,2839.55
2839560.0,221.0,32.0,3.0,247.0,2839.56
2839570.0,217.0,32.0,5.0,245.0,2839.57
2839580.0,223.0,32.0,3.0,251.0,2839.58
2839590.0,225.0,32.0,4.0,249.0,2839.59
2839600.0,223.0,33.0,3.0,246.0,2839.6
2839610.0,227.0,32.0,3.0,248.0,2839.61
2839620.0,223.0,32.0,3.0,247.0,2839.62
2839630.0,229.0,32.0,4.0,254.0,2839.63
2839640.0,233.0,32.0,4.0,253.0,2839.64
2839650.0,224.0,32.0,3.0,245.0,2839.65
2839660.0,226.0,33.0,4.0,249.0,2839.66
2839670.0,222.0,33.0,3.0,248.0,2839.67
2839680.0,224.0,32.0,4.0,253.0,2839.68
2839690.0,227.0,32.0,4.0,253.0,2839.69
2839700.0,217.0,32.0,4.0,243.0,2839.7
2839710.0,217.0,33.0,2.0,245.0,2839.71
2839720.0,216.0,32.0,4.0,247.0,2839.72
2839730.0,218.0,33.0,2.0,251.0,2839.73
2839740.0,223.0,32.0,3.0,253.0,2839.74
2839750.0,213.0,32.0,3.0,242.0,2839.75
2839760.0,215.0,32.0,4.0,243.0,2839.76
2839770.0,211.0,32.0,4.0,240.0,2839.77
2839780.0,219.0,32.0,4.0,249.0,2839.78
2839790.0,221.0,32.0,3.0,250.0,2839.79
2839800.0,210.0,32.0,3.0,240.0,2839.8
2839810.0,215.0,32.0,3.0,244.0,2839.81
2839820.0,214.0,33.0,4.0,246.0,2839.82
2839830.0,225.0,32.0,4.0,254.0,2839.83
2839840.0,225.0,33.0,4.0,253.0,2839.84
2839851.0,215.0,32.0,3.0,245.0,2839.851
2839861.0,219.0,33.0,3.0,245.0,2839.861
2839871.0,223.0,32.0,3.0,250.0,2839.871
2839881.0,225.0,32.0,4.0,252.0,2839.881
2839891.0,228.0,32.0,5.0,251.0,2839.891
2839901.0,220.0,32.0,2.0,246.0,2839.901
2839911.0,219.0,32.0,4.0,246.0,2839.911
2839921.0,223.0,33.0,4.0,253.0,2839.921
2839931.0,223.0,32.0,4.0,252.0,2839.931
2839941.0,227.0,32.0,4.0,249.0,2839.941
2839951.0,217.0,32.0,4.0,240.0,2839.951
2839961.0,220.0,31.0,4.0,243.0,2839.961
2839971.0,223.0,32.0,3.0,253.0,2839.971
2839981.0,223.0,32.0,4.0,252.0,2839.981
2839991.0,226.0,33.0,3.0,250.0,2839.991
2840001.0,218.0,32.0,4.0,242.0,2840.001
2840011.0,221.0,32.0,4.0,246.0,2840.011
2840022.0,229.0,32.0,4.0,253.0,2840.022
2840032.0,222.0,32.0,4.0,249.0,2840.032
2840042.0,222.0,33.0,3.0,252.0,2840.042
2840052.0,213.0,33.0,3.0,243.0,2840.052
2840062.0,221.0,32.0,4.0,252.0,2840.062
2840072.0,224.0,32.0,3.0,258.0,2840.072
2840082.0,222.0,32.0,4.0,254.0,2840.082
2840092.0,224.0,33.0,4.0,253.0,2840.092
2840102.0,215.0,32.0,3.0,246.0,2840.102
2840112.0,218.0,32.0,4.0,251.0,2840.112
2840122.0,223.0,33.0,3.0,257.0,2840.122
2840132.0,219.0,32.0,4.0,253.0,2840.132
2840142.0,219.0,32.0,4.0,250.0,2840.142
2840152.0,212.0,32.0,4.0,243.0,2840.152
2840162.0,216.0,33.0,2.0,250.0,2840.162
2840172.0,223.0,32.0,4.0,256.0,2840.172
2840182.0,218.0,33.0,3.0,250.0,2840.182
2840192.0,222.0,32.0,3.0,251.0,2840.192
2840202.0,213.0,32.0,4.0,243.0,2840.202
2840212.0,219.0,32.0,5.0,250.0,2840.212
2840222.0,224.0,33.0,4.0,255.0,2840.222
2840232.0,218.0,32.0,3.0,248.0,2840.232
2840242.0,220.0,33.0,3.0,249.0,2840.242
2840252.0,211.0,32.0,3.0,241.0,2840.252
2840262.0,218.0,32.0,3.0,251.0,2840.262
2840272.0,224.0,33.0,4.0,253.0,2840.272
2840282.0,222.0,32.0,4.0,255.0,2840.282
2840292.0,222.0,33.0,4.0,255.0,2840.292
2840302.0,213.0,32.0,4.0,244.0,2840.302
2840312.0,221.0,34.0,3.0,249.0,2840.312
2840322.0,224.0,32.0,4.0,250.0,2840.322
2840332.0,220.0,33.0,4.0,248.0,2840.332
2840342.0,223.0,33.0,4.0,247.0,2840.342
2840352.0,212.0,33.0,2.0,240.0,2840.352
2840363.0,219.0,33.0,4.0,250.0,2840.363
2840373.0,224.0,34.0,3.0,255.0,2840.373
2840383.0,216.0,32.0,4.0,246.0,2840.383
2840393.0,219.0,34.0,3.0,249.0,2840.393
2840403.0,219.0,33.0,4.0,250.0,2840.403
2840413.0,221.0,33.0,4.0,256.0,2840.413
2840423.0,226.0,33.0,3.0,257.0,2840.423
2840433.0,218.0,33.0,4.0,249.0,2840.433
2840443.0,221.0,33.0,4.0,250.0,2840.443
2840453.0,214.0,33.0,3.0,245.0,2840.453
2840463.0,223.0,34.0,3.0,255.0,2840.463
2840473.0,228.0,34.0,5.0,255.0,2840.473
2840483.0,218.0,33.0,4.0,248.0,2840.483
2840493.0,221.0,34.0,5.0,251.0,2840.493
2840503.0,215.0,35.0,3.0,247.0,2840.503
2840513.0,223.0,33.0,3.0,255.0,2840.513
2840523.0,226.0,34.0,3.0,255.0,2840.523
2840534.0,218.0,33.0,5.0,247.0,2840.534
2840544.0,220.0,33.0,3.0,250.0,2840.544
2840554.0,221.0,34.0,3.0,252.0,2840.554
2840564.0,223.0,34.0,4.0,255.0,2840.564
2840574.0,225.0,33.0,4.0,252.0,2840.574
2840584.0,217.0,34.0,3.0,249.0,2840.584
2840594.0,220.0,34.0,4.0,251.0,2840.594
2840604.0,223.0,33.0,3.0,255.0,2840.604
2840614.0,224.0,34.0,3.0,255.0,2840.614
2840624.0,227.0,34.0,4.0,255.0,2840.624
2840634.0,217.0,33.0,3.0,246.0,2840.634
2840644.0,220.0,32.0,4.0,249.0,2840.644
2840654.0,223.0,34.0,3.0,255.0,2840.654
2840664.0,224.0,32.0,4.0,256.0,2840.664
2840674.0,226.0,34.0,2.0,254.0,2840.674
2840684.0,216.0,33.0,4.0,247.0,2840.684
2840694.0,219.0,34.0,3.0,251.0,2840.694
2840704.0,218.0,33.0,4.0,251.0,2840.704
2840714.0,224.0,33.0,4.0,257.0,2840.714
2840724.0,225.0,33.0,4.0,255.0,2840.724
2840734.0,216.0,32.0,4.0,247.0,2840.734
2840744.0,219.0,33.0,3.0,252.0,2840.744
2840754.0,220.0,33.0,3.0,255.0,2840.754
2840764.0,225.0,33.0,3.0,258.0,2840.764
2840774.0,225.0,33.0,3.0,254.0,2840.774
2840784.0,217.0,33.0,4.0,246.0,2840.784
2840794.0,221.0,32.0,4.0,251.0,2840.794
2840804.0,221.0,33.0,2.0,254.0,2840.804
2840814.0,224.0,32.0,3.0,256.0,2840.814
2840824.0,224.0,34.0,3.0,255.0,2840.824
2840834.0,217.0,33.0,3.0,249.0,2840.834
2840844.0,220.0,33.0,3.0,250.0,2840.844
2840854.0,223.0,33.0,5.0,255.0,2840.854
2840864.0,224.0,31.0,4.0,256.0,2840.864
2840875.0,224.0,33.0,4.0,253.0,2840.875
2840885.0,215.0,33.0,3.0,247.0,2840.885
2840895.0,219.0,32.0,3.0,254.0,2840.895
2840905.0,226.0,33.0,4.0,259.0,2840.905
2840915.0,221.0,32.0,4.0,253.0,2840.915
2840925.0,223.0,33.0,3.0,253.0,2840.925
2840935.0,214.0,32.0,4.0,245.0,2840.935
2840945.0,220.0,32.0,4.0,254.0,2840.945
2840955.0,226.0,33.0,3.0,259.0,2840.955
2840965.0,223.0,32.0,3.0,256.0,2840.965
2840975.0,222.0,33.0,3.0,253.0,2840.975
2840985.0,215.0,32.0,4.0,244.0,2840.985
2840995.0,221.0,32.0,3.0,256.0,2840.995
2841005.0,224.0,32.0,5.0,257.0,2841.005
2841015.0,223.0,33.0,3.0,256.0,2841.015
2841025.0,222.0,32.0,3.0,252.0,2841.025
2841035.0,214.0,32.0,3.0,244.0,2841.035
2841046.0,222.0,33.0,4.0,254.0,2841.046
2841056.0,227.0,33.0,3.0,256.0,2841.056
2841066.0,221.0,33.0,3.0,250.0,2841.066
2841076.0,222.0,33.0,3.0,251.0,2841.076
2841086.0,217.0,32.0,3.0,250.0,2841.086
2841096.0,221.0,33.0,3.0,256.0,2841.096
2841106.0,226.0,33.0,4.0,257.0,2841.106
2841116.0,221.0,31.0,4.0,250.0,2841.116
2841126.0,220.0,32.0,4.0,251.0,2841.126
2841136.0,216.0,32.0,4.0,245.0,2841.136
2841146.0,223.0,33.0,3.0,256.0,2841.146
2841156.0,226.0,32.0,4.0,258.0,2841.156
2841166.0,219.0,32.0,3.0,250.0,2841.166
2841176.0,222.0,32.0,3.0,252.0,2841.176
2841186.0,216.0,32.0,2.0,245.0,2841.186
2841196.0,224.0,32.0,4.0,254.0,2841.196
2841206.0,227.0,33.0,3.0,256.0,2841.206
2841216.0,222.0,32.0,4.0,249.0,2841.216
2841226.0,223.0,32.0,5.0,249.0,2841.226
2841236.0,216.0,32.0,4.0,244.0,2841.236
2841246.0,225.0,31.0,3.0,254.0,2841.246
2841256.0,227.0,32.0,4.0,253.0,2841.256
2841266.0,224.0,31.0,4.0,249.0,2841.266
2841276.0,222.0,33.0,3.0,250.0,2841.276
2841286.0,218.0,32.0,3.0,245.0,2841.286
2841296.0,225.0,32.0,4.0,254.0,2841.296
2841306.0,229.0,33.0,4.0,256.0,2841.306
2841316.0,224.0,32.0,2.0,251.0,2841.316
2841326.0,223.0,32.0,4.0,250.0,2841.326
2841336.0,220.0,33.0,3.0,249.0,2841.336
2841346.0,224.0,32.0,3.0,254.0,2841.346
2841356.0,228.0,33.0,3.0,256.0,2841.356
2841366.0,224.0,32.0,5.0,249.0,2841.366
2841376.0,223.0,32.0,3.0,250.0,2841.376
2841387.0,220.0,33.0,4.0,249.0,2841.387
2841397.0,227.0,32.0,3.0,257.0,2841.397
2841407.0,226.0,33.0,3.0,252.0,2841.407
2841417.0,221.0,32.0,4.0,245.0,2841.417
2841427.0,221.0,33.0,4.0,248.0,2841.427
2841437.0,222.0,32.0,4.0,249.0,2841.437
2841447.0,227.0,32.0,4.0,255.0,2841.447
2841457.0,226.0,33.0,4.0,252.0,2841.457
2841467.0,219.0,33.0,3.0,245.0,2841.467
2841477.0,222.0,32.0,4.0,249.0,2841.477
2841487.0,221.0,33.0,4.0,249.0,2841.487
2841497.0,228.0,33.0,5.0,255.0,2841.497
2841507.0,226.0,32.0,4.0,253.0,2841.507
2841517.0,224.0,33.0,4.0,248.0,2841.517
2841527.0,224.0,34.0,3.0,251.0,2841.527
2841537.0,224.0,33.0,3.0,252.0,2841.537
2841547.0,229.0,33.0,3.0,255.0,2841.547
2841558.0,228.0,33.0,4.0,252.0,2841.558
2841568.0,221.0,31.0,4.0,244.0,2841.568
2841578.0,224.0,33.0,3.0,249.0,2841.578
2841588.0,229.0,33.0,3.0,257.0,2841.588
2841598.0,227.0,33.0,3.0,252.0,2841.598
2841608.0,226.0,32.0,3.0,251.0,2841.608
2841618.0,220.0,33.0,3.0,243.0,2841.618
2841628.0,225.0,33.0,4.0,251.0,2841.628
2841638.0,229.0,33.0,2.0,256.0,2841.638
2841648.0,230.0,33.0,5.0,254.0,2841.648
2841658.0,227.0,34.0,3.0,253.0,2841.658
2841668.0,221.0,33.0,4.0,243.0,2841.668
2841678.0,224.0,33.0,3.0,252.0,2841.678
2841688.0,228.0,32.0,3.0,254.0,2841.688
2841698.0,229.0,33.0,3.0,253.0,2841.698
2841708.0,226.0,33.0,4.0,249.0,2841.708
2841718.0,222.0,33.0,3.0,242.0,2841.718
2841728.0,224.0,33.0,3.0,248.0,2841.728
2841738.0,229.0,33.0,4.0,253.0,2841.738
2841748.0,231.0,33.0,4.0,253.0,2841.748
2841758.0,229.0,33.0,4.0,250.0,2841.758
2841768.0,222.0,32.0,4.0,242.0,2841.768
2841778.0,226.0,32.0,4.0,249.0,2841.778
2841788.0,229.0,34.0,3.0,256.0,2841.788
2841798.0,230.0,32.0,4.0,252.0,2841.798
2841808.0,227.0,32.0,3.0,251.0,2841.808
2841818.0,224.0,32.0,3.0,244.0,2841.818
2841828.0,226.0,32.0,3.0,250.0,2841.828
2841838.0,231.0,32.0,4.0,256.0,2841.838
2841848.0,231.0,33.0,3.0,253.0,2841.848
2841858.0,228.0,32.0,3.0,251.0,2841.858
2841868.0,224.0,32.0,3.0,244.0,2841.868
2841878.0,226.0,32.0,4.0,249.0,2841.878
2841888.0,233.0,31.0,3.0,255.0,2841.888
2841899.0,232.0,32.0,4.0,251.0,2841.899
2841909.0,230.0,32.0,4.0,251.0,2841.909
2841919.0,224.0,33.0,3.0,244.0,2841.919
2841929.0,233.0,32.0,5.0,255.0,2841.929
2841939.0,234.0,33.0,4.0,255.0,2841.939
2841949.0,233.0,32.0,3.0,251.0,2841.949
2841959.0,230.0,32.0,2.0,250.0,2841.959
2841969.0,226.0,32.0,4.0,245.0,2841.969
2841979.0,233.0,33.0,3.0,255.0,2841.979
2841989.0,235.0,32.0,3.0,255.0,2841.989
2841999.0,233.0,32.0,3.0,250.0,2841.999
2842009.0,231.0,32.0,5.0,249.0,2842.009
2842019.0,226.0,31.0,4.0,246.0,2842.019
2842029.0,230.0,32.0,4.0,252.0,2842.029
2842039.0,234.0,32.0,3.0,256.0,2842.039
2842049.0,232.0,32.0,3.0,249.0,2842.049
2842059.0,229.0,32.0,3.0,250.0,2842.059
2842070.0,228.0,32.0,4.0,247.0,2842.07
2842080.0,236.0,31.0,4.0,254.0,2842.08
2842090.0,234.0,32.0,4.0,252.0,2842.09
2842100.0,229.0,32.0,4.0,244.0,2842.1
2842110.0,229.0,33.0,3.0,247.0,2842.11
2842120.0,228.0,32.0,3.0,248.0,2842.12
2842130.0,234.0,32.0,4.0,254.0,2842.13
2842140.0,233.0,32.0,4.0,253.0,2842.14
2842150.0,228.0,31.0,4.0,245.0,2842.15
2842160.0,230.0,32.0,4.0,249.0,2842.16
2842170.0,229.0,33.0,3.0,249.0,2842.17
2842180.0,235.0,32.0,4.0,254.0,2842.18
2842190.0,232.0,32.0,4.0,252.0,2842.19
2842200.0,229.0,32.0,3.0,247.0,2842.2
2842210.0,229.0,31.0,4.0,249.0,2842.21
2842220.0,229.0,32.0,3.0,249.0,2842.22
2842230.0,234.0,32.0,3.0,255.0,2842.23
2842240.0,233.0,32.0,4.0,255.0,2842.24
2842250.0,230.0,32.0,3.0,248.0,2842.25
2842260.0,229.0,32.0,3.0,250.0,2842.26
2842270.0,231.0,32.0,4.0,251.0,2842.27
2842280.0,234.0,33.0,3.0,256.0,2842.28
2842290.0,234.0,33.0,3.0,255.0,2842.29
2842300.0,230.0,33.0,3.0,248.0,2842.3
2842310.0,230.0,32.0,3.0,250.0,2842.31
2842320.0,231.0,33.0,3.0,253.0,2842.32
2842330.0,234.0,32.0,4.0,256.0,2842.33
2842340.0,233.0,33.0,3.0,255.0,2842.34
2842350.0,228.0,32.0,4.0,247.0,2842.35
2842360.0,229.0,33.0,3.0,251.0,2842.36
2842370.0,228.0,33.0,3.0,249.0,2842.37
2842380.0,236.0,32.0,3.0,255.0,2842.38
2842390.0,233.0,33.0,4.0,253.0,2842.39
2842400.0,229.0,32.0,4.0,246.0,2842.4
2842411.0,228.0,33.0,2.0,250.0,2842.411
2842421.0,232.0,33.0,4.0,256.0,2842.421
2842431.0,234.0,33.0,3.0,256.0,2842.431
2842441.0,231.0,33.0,3.0,252.0,2842.441
2842451.0,225.0,33.0,4.0,244.0,2842.451
2842461.0,229.0,32.0,4.0,250.0,2842.461
2842471.0,233.0,33.0,2.0,256.0,2842.471
2842481.0,233.0,33.0,3.0,254.0,2842.481
2842491.0,230.0,33.0,3.0,252.0,2842.491
2842501.0,227.0,32.0,4.0,245.0,2842.501
2842511.0,227.0,33.0,4.0,249.0,2842.511
2842521.0,233.0,33.0,5.0,256.0,2842.521
2842531.0,232.0,33.0,4.0,254.0,2842.531
2842541.0,231.0,33.0,4.0,254.0,2842.541
2842551.0,225.0,33.0,4.0,246.0,2842.551
2842561.0,226.0,33.0,3.0,251.0,2842.561
2842571.0,232.0,32.0,3.0,256.0,2842.571
2842582.0,230.0,32.0,3.0,254.0,2842.582
2842592.0,229.0,33.0,4.0,251.0,2842.592
2842602.0,222.0,33.0,3.0,244.0,2842.602
2842612.0,230.0,32.0,4.0,253.0,2842.612
2842622.0,233.0,33.0,3.0,256.0,2842.622
2842632.0,231.0,32.0,4.0,253.0,2842.632
2842642.0,228.0,33.0,3.0,250.0,2842.642
2842652.0,224.0,33.0,5.0,243.0,2842.652
2842662.0,231.0,33.0,4.0,254.0,2842.662
2842672.0,234.0,32.0,4.0,256.0,2842.672
2842682.0,231.0,33.0,3.0,252.0,2842.682
2842692.0,229.0,33.0,3.0,250.0,2842.692
2842702.0,224.0,32.0,4.0,245.0,2842.702
2842712.0,229.0,32.0,3.0,251.0,2842.712
2842722.0,234.0,33.0,4.0,256.0,2842.722
2842732.0,230.0,32.0,4.0,252.0,2842.732
2842742.0,230.0,33.0,4.0,252.0,2842.742
2842752.0,225.0,33.0,2.0,246.0,2842.752
2842762.0,229.0,32.0,3.0,255.0,2842.762
2842772.0,234.0,33.0,3.0,260.0,2842.772
2842782.0,231.0,32.0,5.0,253.0,2842.782
2842792.0,229.0,33.0,3.0,253.0,2842.792
2842802.0,225.0,33.0,5.0,245.0,2842.802
2842812.0,230.0,34.0,3.0,256.0,2842.812
2842822.0,233.0,34.0,3.0,258.0,2842.822
2842832.0,229.0,32.0,4.0,252.0,2842.832
2842842.0,228.0,34.0,4.0,253.0,2842.842
2842852.0,223.0,32.0,4.0,245.0,2842.852
2842862.0,229.0,33.0,3.0,255.0,2842.862
2842872.0,232.0,33.0,3.0,259.0,2842.872
2842882.0,230.0,34.0,3.0,256.0,2842.882
2842892.0,228.0,33.0,4.0,254.0,2842.892
2842902.0,222.0,33.0,4.0,246.0,2842.902
2842912.0,230.0,33.0,5.0,256.0,2842.912
2842923.0,232.0,34.0,2.0,258.0,2842.923
2842933.0,228.0,33.0,4.0,251.0,2842.933
2842943.0,227.0,34.0,3.0,252.0,2842.943
2842953.0,227.0,32.0,4.0,251.0,2842.953
2842963.0,233.0,33.0,3.0,257.0,2842.963
2842973.0,233.0,34.0,3.0,256.0,2842.973
2842983.0,228.0,33.0,4.0,250.0,2842.983
2842993.0,228.0,33.0,3.0,250.0,2842.993
2843003.0,228.0,33.0,3.0,253.0,2843.003
2843013.0,233.0,32.0,4.0,257.0,2843.013
2843023.0,233.0,33.0,4.0,256.0,2843.023
2843033.0,228.0,33.0,4.0,248.0,2843.033
2843043.0,228.0,33.0,4.0,250.0,2843.043
2843053.0,224.0,32.0,4.0,246.0,2843.053
2843063.0,232.0,32.0,4.0,254.0,2843.063
2843073.0,232.0,33.0,3.0,254.0,2843.073
2843083.0,227.0,32.0,3.0,245.0,2843.083
2843094.0,226.0,32.0,3.0,248.0,2843.094
2843104.0,229.0,32.0,5.0,252.0,2843.104
2843114.0,232.0,32.0,4.0,253.0,2843.114
2843124.0,229.0,32.0,3.0,252.0,2843.124
2843134.0,225.0,33.0,3.0,243.0,2843.134
2843144.0,227.0,32.0,4.0,247.0,2843.144
2843154.0,231.0,32.0,3.0,253.0,2843.154
2843164.0,233.0,32.0,4.0,252.0,2843.164
2843174.0,230.0,31.0,4.0,251.0,2843.174
2843184.0,227.0,32.0,3.0,244.0,2843.184
2843194.0,228.0,32.0,4.0,247.0,2843.194
2843204.0,232.0,33.0,3.0,253.0,2843.204
2843214.0,233.0,32.0,3.0,251.0,2843.214
2843224.0,232.0,33.0,3.0,251.0,2843.224
2843234.0,229.0,31.0,4.0,241.0,2843.234
2843244.0,229.0,32.0,3.0,246.0,2843.244
2843254.0,233.0,32.0,4.0,253.0,2843.254
2843264.0,234.0,32.0,3.0,253.0,2843.264
2843274.0,231.0,33.0,3.0,250.0,2843.274
2843284.0,227.0,32.0,3.0,240.0,2843.284
2843294.0,229.0,32.0,5.0,246.0,2843.294
2843304.0,232.0,33.0,4.0,253.0,2843.304
2843314.0,233.0,32.0,4.0,251.0,2843.314
2843324.0,229.0,34.0,3.0,251.0,2843.324
2843334.0,224.0,32.0,3.0,241.0,2843.334
2843344.0,226.0,32.0,3.0,248.0,2843.344
2843354.0,227.0,33.0,4.0,250.0,2843.354
2843364.0,232.0,33.0,4.0,252.0,2843.364
2843374.0,228.0,33.0,3.0,250.0,2843.374
2843384.0,223.0,32.0,3.0,240.0,2843.384
2843394.0,226.0,33.0,3.0,246.0,2843.394
2843404.0,229.0,32.0,4.0,250.0,2843.404
2843414.0,230.0,33.0,3.0,251.0,2843.414
2843424.0,229.0,33.0,4.0,250.0,2843.424
2843435.0,223.0,32.0,4.0,239.0,2843.435
2843445.0,227.0,33.0,4.0,248.0,2843.445
2843455.0,232.0,34.0,3.0,255.0,2843.455
2843465.0,228.0,32.0,4.0,246.0,2843.465
2843475.0,226.0,33.0,3.0,248.0,2843.475
2843485.0,221.0,32.0,4.0,240.0,2843.485
2843495.0,226.0,33.0,2.0,250.0,2843.495
2843505.0,232.0,33.0,3.0,253.0,2843.505
2843515.0,229.0,33.0,3.0,248.0,2843.515
2843525.0,228.0,34.0,3.0,248.0,2843.525
2843535.0,222.0,32.0,4.0,239.0,2843.535
2843545.0,227.0,33.0,3.0,249.0,2843.545
2843555.0,232.0,33.0,4.0,253.0,2843.555
2843565.0,229.0,33.0,3.0,250.0,2843.565
2843575.0,227.0,33.0,3.0,247.0,2843.575
2843585.0,221.0,33.0,3.0,239.0,2843.585
2843595.0,228.0,32.0,4.0,250.0,2843.595
2843606.0,230.0,34.0,4.0,253.0,2843.606
2843616.0,227.0,32.0,5.0,245.0,2843.616
2843626.0,226.0,33.0,4.0,247.0,2843.626
2843636.0,224.0,32.0,3.0,245.0,2843.636
2843646.0,231.0,33.0,3.0,253.0,2843.646
2843656.0,230.0,34.0,3.0,254.0,2843.656
2843666.0,226.0,32.0,4.0,246.0,2843.666
2843676.0,226.0,33.0,4.0,248.0,2843.676
2843686.0,226.0,33.0,3.0,249.0,2843.686
2843696.0,231.0,33.0,4.0,253.0,2843.696
2843706.0,233.0,33.0,4.0,255.0,2843.706
2843716.0,228.0,33.0,3.0,246.0,2843.716
2843726.0,227.0,32.0,4.0,248.0,2843.726
2843736.0,223.0,32.0,3.0,245.0,2843.736
2843746.0,232.0,33.0,4.0,254.0,2843.746
2843756.0,232.0,33.0,2.0,254.0,2843.756
2843766.0,228.0,32.0,3.0,245.0,2843.766
2843776.0,228.0,33.0,3.0,249.0,2843.776
2843786.0,224.0,32.0,4.0,245.0,2843.786
2843796.0,232.0,32.0,4.0,254.0,2843.796
2843806.0,233.0,33.0,5.0,255.0,2843.806
2843816.0,227.0,32.0,3.0,245.0,2843.816
2843826.0,228.0,32.0,5.0,249.0,2843.826
2843836.0,225.0,33.0,4.0,247.0,2843.836
2843846.0,232.0,33.0,3.0,254.0,2843.846
2843856.0,232.0,32.0,4.0,254.0,2843.856
2843866.0,229.0,33.0,3.0,249.0,2843.866
2843876.0,229.0,32.0,4.0,251.0,2843.876
2843886.0,226.0,33.0,3.0,249.0,2843.886
2843896.0,232.0,32.0,4.0,255.0,2843.896
2843906.0,232.0,33.0,2.0,256.0,2843.906
2843916.0,228.0,32.0,3.0,247.0,2843.916
2843926.0,228.0,32.0,3.0,248.0,2843.926
2843936.0,227.0,33.0,5.0,249.0,2843.936
2843947.0,232.0,32.0,2.0,254.0,2843.947
2843957.0,231.0,32.0,3.0,251.0,2843.957
2843967.0,225.0,33.0,3.0,245.0,2843.967
2843977.0,226.0,32.0,4.0,246.0,2843.977
2843987.0,230.0,33.0,3.0,254.0,2843.987
2843997.0,231.0,32.0,4.0,253.0,2843.997
2844007.0,230.0,33.0,2.0,251.0,2844.007
2844017.0,224.0,33.0,3.0,243.0,2844.017
2844027.0,225.0,33.0,3.0,248.0,2844.027
2844037.0,225.0,33.0,3.0,250.0,2844.037
2844047.0,230.0,32.0,4.0,252.0,2844.047
2844057.0,228.0,32.0,3.0,251.0,2844.057
2844067.0,224.0,32.0,4.0,243.0,2844.067
2844077.0,224.0,33.0,3.0,248.0,2844.077
2844087.0,226.0,32.0,4.0,249.0,2844.087
2844097.0,230.0,33.0,3.0,254.0,2844.097
2844107.0,229.0,32.0,4.0,250.0,2844.107
2844118.0,222.0,31.0,3.0,244.0,2844.118
2844128.0,226.0,32.0,4.0,250.0,2844.128
2844138.0,231.0,32.0,4.0,256.0,2844.138
2844148.0,229.0,32.0,4.0,252.0,2844.148
2844158.0,227.0,33.0,3.0,252.0,2844.158
2844168.0,222.0,32.0,3.0,245.0,2844.168
2844178.0,226.0,32.0,4.0,252.0,2844.178
2844188.0,231.0,32.0,3.0,257.0,2844.188
2844198.0,228.0,31.0,4.0,253.0,2844.198
2844208.0,227.0,32.0,4.0,252.0,2844.208
2844218.0,220.0,32.0,4.0,245.0,2844.218
2844228.0,225.0,33.0,4.0,254.0,2844.228
2844238.0,231.0,32.0,3.0,258.0,2844.238
2844248.0,229.0,33.0,3.0,256.0,2844.248
2844258.0,228.0,32.0,4.0,251.0,2844.258
2844268.0,220.0,31.0,4.0,243.0,2844.268
2844278.0,225.0,32.0,3.0,252.0,2844.278
2844288.0,228.0,32.0,3.0,255.0,2844.288
2844298.0,227.0,32.0,3.0,254.0,2844.298
2844308.0,226.0,32.0,3.0,252.0,2844.308
2844318.0,218.0,32.0,4.0,244.0,2844.318
2844328.0,225.0,31.0,4.0,254.0,2844.328
2844338.0,228.0,33.0,4.0,257.0,2844.338
2844348.0,227.0,32.0,4.0,255.0,2844.348
2844358.0,225.0,32.0,3.0,253.0,2844.358
2844368.0,219.0,32.0,3.0,246.0,2844.368
2844378.0,223.0,32.0,3.0,252.0,2844.378
2844388.0,229.0,32.0,4.0,257.0,2844.388
2844398.0,226.0,32.0,4.0,253.0,2844.398
2844408.0,224.0,32.0,4.0,252.0,2844.408
2844418.0,218.0,31.0,4.0,246.0,2844.418
2844428.0,222.0,32.0,4.0,250.0,2844.428
2844438.0,227.0,32.0,4.0,256.0,2844.438
2844448.0,224.0,32.0,5.0,252.0,2844.448
2844459.0,223.0,31.0,4.0,251.0,2844.459
2844469.0,217.0,32.0,3.0,246.0,2844.469
2844479.0,226.0,32.0,3.0,257.0,2844.479
2844489.0,228.0,32.0,3.0,256.0,2844.489
2844499.0,221.0,32.0,4.0,250.0,2844.499
2844509.0,223.0,33.0,3.0,252.0,2844.509
2844519.0,218.0,31.0,4.0,248.0,2844.519
2844529.0,224.0,32.0,2.0,257.0,2844.529
2844539.0,227.0,32.0,4.0,256.0,2844.539
2844549.0,222.0,32.0,3.0,253.0,2844.549
2844559.0,222.0,32.0,4.0,252.0,2844.559
2844569.0,217.0,32.0,3.0,249.0,2844.569
2844579.0,226.0,31.0,5.0,258.0,2844.579
2844589.0,226.0,32.0,3.0,259.0,2844.589
2844599.0,222.0,31.0,3.0,253.0,2844.599
2844609.0,223.0,32.0,3.0,254.0,2844.609
2844619.0,219.0,32.0,4.0,253.0,2844.619
2844630.0,226.0,31.0,3.0,259.0,2844.63
2844640.0,227.0,32.0,5.0,257.0,2844.64
2844650.0,219.0,32.0,3.0,250.0,2844.65
2844660.0,220.0,32.0,3.0,252.0,2844.66
2844670.0,224.0,32.0,3.0,258.0,2844.67
2844680.0,225.0,32.0,3.0,257.0,2844.68
2844690.0,227.0,32.0,3.0,255.0,2844.69
2844700.0,218.0,32.0,3.0,249.0,2844.7
2844710.0,221.0,31.0,4.0,253.0,2844.71
2844720.0,221.0,32.0,4.0,253.0,2844.72
2844730.0,227.0,31.0,4.0,258.0,2844.73
2844740.0,226.0,33.0,3.0,255.0,2844.74
2844750.0,218.0,32.0,4.0,246.0,2844.75
2844760.0,221.0,32.0,3.0,251.0,2844.76
2844770.0,222.0,31.0,5.0,252.0,2844.77
2844780.0,225.0,31.0,3.0,257.0,2844.78
2844790.0,224.0,32.0,4.0,253.0,2844.79
2844800.0,219.0,31.0,4.0,249.0,2844.8
2844810.0,220.0,32.0,3.0,250.0,2844.81
2844820.0,222.0,32.0,3.0,252.0,2844.82
2844830.0,225.0,31.0,4.0,256.0,2844.83
2844840.0,225.0,31.0,4.0,253.0,2844.84
2844850.0,218.0,32.0,4.0,247.0,2844.85
2844860.0,220.0,32.0,3.0,248.0,2844.86
2844870.0,222.0,33.0,3.0,253.0,2844.87
2844880.0,224.0,32.0,4.0,254.0,2844.88
2844890.0,225.0,33.0,3.0,256.0,2844.89
2844900.0,218.0,32.0,4.0,247.0,2844.9
2844910.0,220.0,32.0,4.0,249.0,2844.91
2844920.0,223.0,32.0,4.0,253.0,2844.92
2844930.0,224.0,31.0,2.0,255.0,2844.93
2844940.0,225.0,33.0,3.0,253.0,2844.94
2844950.0,216.0,32.0,3.0,246.0,2844.95
2844960.0,220.0,32.0,4.0,248.0,2844.96
2844971.0,224.0,31.0,4.0,254.0,2844.971
2844981.0,222.0,32.0,4.0,252.0,2844.981
2844991.0,222.0,32.0,3.0,250.0,2844.991
2845001.0,213.0,32.0,3.0,242.0,2845.001
2845011.0,219.0,32.0,4.0,251.0,2845.011
2845021.0,222.0,33.0,3.0,254.0,2845.021
2845031.0,220.0,32.0,3.0,252.0,2845.031
2845041.0,220.0,32.0,4.0,249.0,2845.041
2845051.0,212.0,32.0,4.0,241.0,2845.051
2845061.0,217.0,32.0,4.0,247.0,2845.061
2845071.0,223.0,32.0,3.0,252.0,2845.071
2845081.0,220.0,32.0,3.0,251.0,2845.081
2845091.0,221.0,33.0,4.0,249.0,2845.091
2845101.0,214.0,32.0,3.0,243.0,2845.101
2845111.0,218.0,32.0,4.0,249.0,2845.111
2845121.0,224.0,33.0,3.0,256.0,2845.121
2845131.0,221.0,32.0,3.0,252.0,2845.131
2845142.0,220.0,33.0,3.0,250.0,2845.142
2845152.0,212.0,33.0,4.0,243.0,2845.152
2845162.0,221.0,32.0,4.0,253.0,2845.162
2845172.0,224.0,32.0,4.0,253.0,2845.172
2845182.0,216.0,32.0,3.0,246.0,2845.182
2845192.0,219.0,32.0,3.0,247.0,2845.192
2845202.0,211.0,32.0,3.0,242.0,2845.202
2845212.0,219.0,32.0,3.0,252.0,2845.212
2845222.0,223.0,32.0,4.0,251.0,2845.222
2845232.0,216.0,32.0,3.0,248.0,2845.232
2845242.0,216.0,32.0,3.0,245.0,2845.242
2845252.0,211.0,33.0,3.0,242.0,2845.252
2845262.0,218.0,32.0,3.0,250.0,2845.262
2845272.0,221.0,33.0,3.0,252.0,2845.272
2845282.0,216.0,32.0,4.0,247.0,2845.282
2845292.0,217.0,33.0,3.0,246.0,2845.292
2845302.0,211.0,32.0,3.0,243.0,2845.302
2845312.0,216.0,31.0,2.0,249.0,2845.312
2845322.0,222.0,33.0,3.0,253.0,2845.322
2845332.0,215.0,32.0,3.0,246.0,2845.332
2845342.0,216.0,32.0,5.0,246.0,2845.342
2845352.0,214.0,31.0,4.0,243.0,2845.352
2845362.0,217.0,32.0,4.0,250.0,2845.362
2845372.0,222.0,32.0,4.0,251.0,2845.372
2845382.0,215.0,33.0,3.0,246.0,2845.382
2845392.0,217.0,32.0,4.0,245.0,2845.392
2845402.0,209.0,32.0,3.0,238.0,2845.402
2845412.0,217.0,32.0,5.0,247.0,2845.412
2845422.0,222.0,31.0,4.0,250.0,2845.422
2845432.0,214.0,31.0,4.0,244.0,2845.432
2845442.0,216.0,32.0,3.0,245.0,2845.442
2845452.0,209.0,32.0,3.0,239.0,2845.452
2845462.0,217.0,32.0,4.0,249.0,2845.462
2845472.0,221.0,33.0,3.0,250.0,2845.472
2845483.0,213.0,32.0,4.0,243.0,2845.483
2845493.0,215.0,32.0,4.0,244.0,2845.493
2845503.0,215.0,32.0,3.0,246.0,2845.503
2845513.0,219.0,33.0,3.0,251.0,2845.513
2845523.0,219.0,32.0,4.0,247.0,2845.523
2845533.0,214.0,33.0,3.0,244.0,2845.533
2845543.0,215.0,32.0,4.0,245.0,2845.543
2845553.0,216.0,33.0,2.0,249.0,2845.553
2845563.0,219.0,32.0,3.0,250.0,2845.563
2845573.0,222.0,33.0,3.0,250.0,2845.573
2845583.0,213.0,32.0,3.0,242.0,2845.583
2845593.0,214.0,32.0,4.0,243.0,2845.593
2845603.0,217.0,32.0,4.0,247.0,2845.603
2845613.0,218.0,32.0,3.0,249.0,2845.613
2845623.0,220.0,33.0,4.0,248.0,2845.623
2845633.0,212.0,32.0,3.0,243.0,2845.633
2845643.0,214.0,33.0,3.0,242.0,2845.643
2845654.0,217.0,32.0,4.0,247.0,2845.654
2845664.0,217.0,32.0,4.0,246.0,2845.664
2845674.0,217.0,33.0,4.0,243.0,2845.674
2845684.0,208.0,33.0,3.0,235.0,2845.684
2845694.0,212.0,32.0,4.0,243.0,2845.694
2845704.0,215.0,32.0,4.0,245.0,2845.704
2845714.0,215.0,32.0,3.0,244.0,2845.714
2845724.0,215.0,32.0,3.0,241.0,2845.724
2845734.0,207.0,32.0,4.0,234.0,2845.734
2845744.0,211.0,32.0,4.0,238.0,2845.744
2845754.0,215.0,32.0,4.0,245.0,2845.754
2845764.0,214.0,33.0,3.0,246.0,2845.764
2845774.0,214.0,32.0,3.0,242.0,2845.774
2845784.0,207.0,33.0,3.0,239.0,2845.784
2845794.0,209.0,32.0,4.0,240.0,2845.794
2845804.0,216.0,31.0,4.0,245.0,2845.804
2845814.0,214.0,32.0,4.0,245.0,2845.814
2845824.0,216.0,32.0,4.0,242.0,2845.824
2845834.0,206.0,33.0,3.0,238.0,2845.834
2845844.0,209.0,32.0,3.0,243.0,2845.844
2845854.0,215.0,32.0,3.0,249.0,2845.854
2845864.0,213.0,31.0,5.0,245.0,2845.864
2845874.0,214.0,33.0,3.0,244.0,2845.874
2845884.0,206.0,31.0,4.0,237.0,2845.884
2845894.0,211.0,33.0,3.0,242.0,2845.894
2845904.0,217.0,32.0,4.0,249.0,2845.904
2845914.0,214.0,32.0,3.0,247.0,2845.914
2845924.0,214.0,32.0,4.0,243.0,2845.924
2845934.0,207.0,31.0,4.0,236.0,2845.934
2845944.0,212.0,32.0,3.0,242.0,2845.944
2845954.0,215.0,32.0,4.0,246.0,2845.954
2845964.0,216.0,32.0,3.0,247.0,2845.964
2845974.0,215.0,32.0,4.0,243.0,2845.974
2845984.0,207.0,31.0,4.0,237.0,2845.984
2845995.0,213.0,31.0,4.0,243.0,2845.995
2846005.0,218.0,33.0,4.0,247.0,2846.005
2846015.0,212.0,31.0,4.0,243.0,2846.015
2846025.0,213.0,32.0,3.0,243.0,2846.025
2846035.0,208.0,32.0,4.0,241.0,2846.035
2846045.0,213.0,32.0,4.0,247.0,2846.045
2846055.0,218.0,32.0,3.0,250.0,2846.055
2846065.0,212.0,32.0,4.0,245.0,2846.065
2846075.0,213.0,32.0,3.0,244.0,2846.075
2846085.0,206.0,32.0,3.0,238.0,2846.085
2846095.0,213.0,32.0,4.0,247.0,2846.095
2846105.0,219.0,32.0,4.0,249.0,2846.105
2846115.0,211.0,33.0,4.0,244.0,2846.115
2846125.0,214.0,32.0,4.0,243.0,2846.125
2846135.0,205.0,33.0,3.0,237.0,2846.135
2846145.0,213.0,32.0,4.0,247.0,2846.145
2846155.0,218.0,33.0,3.0,248.0,2846.155
2846166.0,211.0,32.0,4.0,242.0,2846.166
2846176.0,212.0,32.0,3.0,243.0,2846.176
2846186.0,212.0,33.0,3.0,243.0,2846.186
2846196.0,216.0,33.0,2.0,250.0,2846.196
2846206.0,218.0,33.0,4.0,247.0,2846.206
2846216.0,210.0,34.0,3.0,244.0,2846.216
2846226.0,213.0,33.0,4.0,242.0,2846.226
2846236.0,212.0,33.0,3.0,245.0,2846.236
2846246.0,215.0,33.0,4.0,249.0,2846.246
2846256.0,219.0,33.0,3.0,248.0,2846.256
2846266.0,210.0,33.0,3.0,243.0,2846.266
2846276.0,212.0,33.0,3.0,244.0,2846.276
2846286.0,212.0,33.0,3.0,245.0,2846.286
2846296.0,215.0,32.0,4.0,250.0,2846.296
2846306.0,217.0,33.0,4.0,249.0,2846.306
2846316.0,209.0,33.0,4.0,241.0,2846.316
2846326.0,210.0,34.0,2.0,243.0,2846.326
2846336.0,208.0,33.0,4.0,241.0,2846.336
2846346.0,215.0,34.0,3.0,250.0,2846.346
2846356.0,219.0,32.0,4.0,246.0,2846.356
2846366.0,209.0,33.0,3.0,240.0,2846.366
2846376.0,212.0,33.0,4.0,241.0,2846.376
2846386.0,209.0,32.0,2.0,240.0,2846.386
2846396.0,215.0,32.0,4.0,245.0,2846.396
2846406.0,218.0,32.0,4.0,244.0,2846.406
2846416.0,207.0,32.0,3.0,238.0,2846.416
2846426.0,212.0,33.0,4.0,242.0,2846.426
2846436.0,209.0,33.0,3.0,242.0,2846.436
2846446.0,214.0,32.0,4.0,249.0,2846.446
2846456.0,218.0,33.0,3.0,246.0,2846.456
2846466.0,210.0,33.0,4.0,242.0,2846.466
2846476.0,212.0,34.0,4.0,242.0,2846.476
2846486.0,211.0,32.0,4.0,242.0,2846.486
2846496.0,215.0,32.0,4.0,247.0,2846.496
2846507.0,219.0,32.0,5.0,243.0,2846.507
2846517.0,207.0,32.0,3.0,238.0,2846.517
2846527.0,211.0,33.0,3.0,241.0,2846.527
2846537.0,217.0,33.0,3.0,248.0,2846.537
2846547.0,213.0,32.0,4.0,246.0,2846.547
2846557.0,217.0,32.0,4.0,244.0,2846.557
2846567.0,207.0,33.0,4.0,239.0,2846.567
2846577.0,211.0,33.0,3.0,242.0,2846.577
2846587.0,218.0,32.0,3.0,249.0,2846.587
2846597.0,215.0,31.0,4.0,249.0,2846.597
2846607.0,218.0,32.0,3.0,245.0,2846.607
2846617.0,207.0,32.0,4.0,239.0,2846.617
2846627.0,211.0,33.0,4.0,244.0,2846.627
2846637.0,214.0,32.0,4.0,246.0,2846.637
2846647.0,215.0,33.0,3.0,248.0,2846.647
2846657.0,217.0,32.0,4.0,244.0,2846.657
2846667.0,207.0,33.0,3.0,238.0,2846.667
2846678.0,211.0,32.0,4.0,244.0,2846.678
2846688.0,218.0,32.0,4.0,249.0,2846.688
2846698.0,213.0,32.0,5.0,244.0,2846.698
2846708.0,214.0,33.0,2.0,244.0,2846.708
2846718.0,207.0,32.0,4.0,239.0,2846.718
2846728.0,213.0,33.0,3.0,246.0,2846.728
2846738.0,219.0,33.0,3.0,249.0,2846.738
2846748.0,212.0,33.0,3.0,244.0,2846.748
2846758.0,214.0,33.0,4.0,243.0,2846.758
2846768.0,207.0,32.0,3.0,237.0,2846.768
2846778.0,212.0,33.0,4.0,246.0,2846.778
2846788.0,220.0,33.0,4.0,250.0,2846.788
2846798.0,211.0,33.0,3.0,244.0,2846.798
2846808.0,216.0,33.0,3.0,244.0,2846.808
2846818.0,206.0,33.0,4.0,238.0,2846.818
2846828.0,214.0,33.0,4.0,247.0,2846.828
2846838.0,220.0,33.0,2.0,249.0,2846.838
2846848.0,215.0,33.0,5.0,247.0,2846.848
2846858.0,217.0,33.0,3.0,245.0,2846.858
2846868.0,207.0,32.0,3.0,236.0,2846.868
2846878.0,214.0,32.0,3.0,247.0,2846.878
2846888.0,222.0,33.0,5.0,249.0,2846.888
2846898.0,213.0,32.0,4.0,246.0,2846.898
2846908.0,214.0,33.0,4.0,243.0,2846.908
2846918.0,206.0,33.0,4.0,237.0,2846.918
2846928.0,214.0,33.0,3.0,247.0,2846.928
2846938.0,219.0,33.0,4.0,249.0,2846.938
2846948.0,212.0,32.0,4.0,246.0,2846.948
2846958.0,217.0,33.0,4.0,245.0,2846.958
2846968.0,207.0,33.0,2.0,240.0,2846.968
2846978.0,213.0,33.0,4.0,245.0,2846.978
2846988.0,219.0,34.0,3.0,250.0,2846.988
2846998.0,212.0,32.0,4.0,244.0,2846.998
2847008.0,215.0,33.0,3.0,243.0,2847.008
2847019.0,209.0,33.0,3.0,239.0,2847.019
2847029.0,215.0,32.0,3.0,247.0,2847.029
2847039.0,220.0,33.0,4.0,247.0,2847.039
2847049.0,209.0,33.0,3.0,240.0,2847.049
2847059.0,212.0,33.0,3.0,241.0,2847.059
2847069.0,209.0,33.0,3.0,241.0,2847.069
2847079.0,216.0,33.0,4.0,247.0,2847.079
2847089.0,221.0,33.0,3.0,247.0,2847.089
2847099.0,210.0,33.0,3.0,240.0,2847.099
2847109.0,216.0,33.0,4.0,242.0,2847.109
2847119.0,211.0,33.0,3.0,242.0,2847.119
2847129.0,217.0,32.0,3.0,248.0,2847.129
2847139.0,221.0,33.0,4.0,247.0,2847.139
2847149.0,212.0,32.0,3.0,242.0,2847.149
2847159.0,214.0,33.0,3.0,241.0,2847.159
2847169.0,212.0,33.0,4.0,242.0,2847.169
2847179.0,217.0,33.0,3.0,249.0,2847.179
2847190.0,221.0,32.0,4.0,246.0,2847.19
2847200.0,209.0,32.0,3.0,239.0,2847.2
2847210.0,214.0,33.0,5.0,240.0,2847.21
2847220.0,218.0,33.0,4.0,247.0,2847.22
2847230.0,214.0,33.0,3.0,246.0,2847.23
2847240.0,219.0,33.0,4.0,244.0,2847.24
2847250.0,208.0,33.0,3.0,238.0,2847.25
2847260.0,213.0,32.0,3.0,241.0,2847.26
2847270.0,219.0,33.0,4.0,246.0,2847.27
2847280.0,217.0,32.0,4.0,246.0,2847.28
2847290.0,219.0,32.0,3.0,244.0,2847.29
2847300.0,208.0,32.0,4.0,237.0,2847.3
2847310.0,212.0,33.0,3.0,243.0,2847.31
2847320.0,214.0,33.0,4.0,245.0,2847.32
2847330.0,216.0,33.0,3.0,246.0,2847.33
2847340.0,218.0,33.0,4.0,243.0,2847.34
2847350.0,208.0,32.0,2.0,236.0,2847.35
2847360.0,213.0,33.0,4.0,240.0,2847.36
2847370.0,215.0,34.0,3.0,245.0,2847.37
2847380.0,215.0,32.0,3.0,244.0,2847.38
2847390.0,216.0,33.0,3.0,242.0,2847.39
2847400.0,206.0,32.0,4.0,234.0,2847.4
2847410.0,211.0,33.0,3.0,238.0,2847.41
2847420.0,214.0,33.0,3.0,244.0,2847.42
2847430.0,215.0,32.0,3.0,244.0,2847.43
2847440.0,216.0,33.0,3.0,242.0,2847.44
2847450.0,208.0,32.0,4.0,237.0,2847.45
2847460.0,210.0,32.0,4.0,239.0,2847.46
2847470.0,216.0,33.0,4.0,247.0,2847.47
2847480.0,214.0,32.0,4.0,246.0,2847.48
2847490.0,219.0,34.0,4.0,244.0,2847.49
2847500.0,208.0,33.0,3.0,238.0,2847.5
2847510.0,212.0,32.0,3.0,240.0,2847.51
2847520.0,218.0,33.0,3.0,247.0,2847.52
2847531.0,216.0,33.0,4.0,243.0,2847.531
2847541.0,215.0,33.0,3.0,242.0,2847.541
2847551.0,207.0,32.0,4.0,234.0,2847.551
