time (ms),signal 0,signal 1,signal 2,signal 3,time (sec)
2905920.0,220.0,32.0,235.0,248.0,2905.92
2905930.0,220.0,32.0,226.0,245.0,2905.93
2905940.0,212.0,32.0,227.0,239.0,2905.94
2905950.0,217.0,32.0,228.0,245.0,2905.95
2905960.0,223.0,33.0,232.0,250.0,2905.96
2905970.0,220.0,32.0,235.0,247.0,2905.97
2905980.0,219.0,33.0,225.0,244.0,2905.98
2905990.0,213.0,32.0,228.0,238.0,2905.99
2906000.0,217.0,33.0,228.0,245.0,2906.0
2906010.0,223.0,32.0,234.0,250.0,2906.01
2906020.0,219.0,32.0,235.0,246.0,2906.02
2906030.0,221.0,33.0,227.0,245.0,2906.03
2906040.0,213.0,33.0,230.0,239.0,2906.04
2906050.0,218.0,32.0,232.0,246.0,2906.05
2906060.0,224.0,33.0,235.0,250.0,2906.06
2906070.0,222.0,32.0,239.0,249.0,2906.07
2906080.0,221.0,32.0,230.0,246.0,2906.08
2906090.0,213.0,32.0,231.0,239.0,2906.09
2906100.0,221.0,33.0,237.0,253.0,2906.1
2906110.0,226.0,33.0,236.0,252.0,2906.11
2906120.0,222.0,32.0,239.0,249.0,2906.12
2906130.0,221.0,33.0,230.0,247.0,2906.13
2906140.0,214.0,32.0,230.0,239.0,2906.14
2906150.0,220.0,33.0,236.0,249.0,2906.15
2906160.0,224.0,33.0,237.0,252.0,2906.16
2906170.0,222.0,33.0,239.0,250.0,2906.17
2906180.0,221.0,33.0,231.0,247.0,2906.18
2906190.0,213.0,32.0,231.0,240.0,2906.19
2906200.0,220.0,33.0,233.0,247.0,2906.2
2906210.0,225.0,32.0,238.0,253.0,2906.21
2906220.0,223.0,32.0,239.0,248.0,2906.22
2906230.0,221.0,33.0,230.0,248.0,2906.23
2906240.0,216.0,32.0,232.0,240.0,2906.24
2906250.0,220.0,32.0,233.0,247.0,2906.25
2906260.0,225.0,33.0,239.0,254.0,2906.26
2906270.0,222.0,31.0,239.0,248.0,2906.27
2906280.0,222.0,33.0,231.0,247.0,2906.28
2906290.0,215.0,32.0,232.0,241.0,2906.29
2906300.0,220.0,33.0,235.0,250.0,2906.3
2906310.0,227.0,32.0,238.0,253.0,2906.31
2906320.0,222.0,32.0,239.0,248.0,2906.32
2906330.0,224.0,33.0,233.0,249.0,2906.33
2906340.0,215.0,32.0,231.0,241.0,2906.34
2906350.0,222.0,32.0,237.0,249.0,2906.35
2906360.0,227.0,33.0,239.0,255.0,2906.36
2906370.0,223.0,32.0,243.0,251.0,2906.37
2906380.0,223.0,32.0,233.0,249.0,2906.38
2906390.0,216.0,32.0,234.0,241.0,2906.39
2906400.0,223.0,32.0,239.0,251.0,2906.4
2906411.0,227.0,33.0,239.0,254.0,2906.411
2906421.0,222.0,32.0,241.0,248.0,2906.421
2906431.0,222.0,32.0,235.0,248.0,2906.431
2906441.0,221.0,32.0,239.0,248.0,2906.441
2906451.0,227.0,32.0,247.0,255.0,2906.451
2906461.0,229.0,33.0,241.0,255.0,2906.461
2906471.0,222.0,32.0,243.0,248.0,2906.471
2906481.0,223.0,32.0,237.0,248.0,2906.481
2906491.0,222.0,33.0,241.0,250.0,2906.491
2906501.0,226.0,32.0,246.0,254.0,2906.501
2906511.0,229.0,33.0,241.0,255.0,2906.511
2906521.0,223.0,32.0,244.0,248.0,2906.521
2906531.0,223.0,33.0,238.0,249.0,2906.531
2906541.0,218.0,32.0,239.0,245.0,2906.541
2906551.0,228.0,33.0,249.0,257.0,2906.551
2906561.0,229.0,33.0,242.0,256.0,2906.561
2906571.0,222.0,32.0,245.0,248.0,2906.571
2906582.0,224.0,32.0,241.0,250.0,2906.582
2906592.0,226.0,31.0,247.0,253.0,2906.592
2906602.0,227.0,32.0,252.0,255.0,2906.602
2906612.0,227.0,33.0,242.0,252.0,2906.612
2906622.0,219.0,33.0,244.0,245.0,2906.622
2906632.0,223.0,32.0,241.0,249.0,2906.632
2906642.0,225.0,32.0,248.0,254.0,2906.642
2906652.0,229.0,31.0,254.0,255.0,2906.652
2906662.0,226.0,32.0,242.0,251.0,2906.662
2906672.0,220.0,32.0,247.0,246.0,2906.672
2906682.0,222.0,33.0,242.0,251.0,2906.682
2906692.0,225.0,32.0,249.0,256.0,2906.692
2906702.0,229.0,32.0,254.0,256.0,2906.702
2906712.0,231.0,32.0,244.0,255.0,2906.712
2906722.0,222.0,31.0,248.0,248.0,2906.722
2906732.0,226.0,32.0,244.0,251.0,2906.732
2906742.0,228.0,32.0,251.0,259.0,2906.742
2906752.0,229.0,32.0,255.0,258.0,2906.752
2906762.0,229.0,32.0,244.0,255.0,2906.762
2906772.0,221.0,31.0,247.0,248.0,2906.772
2906782.0,223.0,32.0,243.0,252.0,2906.782
2906792.0,228.0,32.0,251.0,259.0,2906.792
2906802.0,230.0,32.0,254.0,259.0,2906.802
2906812.0,230.0,33.0,243.0,256.0,2906.812
2906822.0,221.0,32.0,246.0,248.0,2906.822
2906832.0,224.0,32.0,245.0,254.0,2906.832
2906842.0,229.0,32.0,251.0,258.0,2906.842
2906852.0,230.0,31.0,255.0,259.0,2906.852
2906862.0,227.0,32.0,243.0,255.0,2906.862
2906872.0,219.0,32.0,248.0,250.0,2906.872
2906882.0,227.0,33.0,244.0,254.0,2906.882
2906892.0,229.0,32.0,251.0,258.0,2906.892
2906902.0,228.0,32.0,254.0,258.0,2906.902
2906912.0,228.0,31.0,243.0,253.0,2906.912
2906923.0,219.0,32.0,245.0,247.0,2906.923
2906933.0,223.0,32.0,246.0,253.0,2906.933
2906943.0,229.0,33.0,250.0,258.0,2906.943
2906953.0,224.0,31.0,254.0,253.0,2906.953
2906963.0,225.0,32.0,243.0,250.0,2906.963
2906973.0,220.0,31.0,252.0,246.0,2906.973
2906983.0,228.0,32.0,251.0,252.0,2906.983
2906993.0,234.0,32.0,252.0,255.0,2906.993
2907003.0,227.0,33.0,257.0,251.0,2907.003
2907013.0,227.0,32.0,248.0,249.0,2907.013
2907023.0,219.0,31.0,253.0,244.0,2907.023
2907033.0,227.0,32.0,258.0,253.0,2907.033
2907043.0,230.0,32.0,257.0,255.0,2907.043
2907053.0,225.0,31.0,264.0,251.0,2907.053
2907063.0,227.0,32.0,253.0,249.0,2907.063
2907073.0,221.0,32.0,262.0,247.0,2907.073
2907083.0,226.0,31.0,269.0,259.0,2907.083
2907094.0,234.0,32.0,263.0,260.0,2907.094
2907104.0,233.0,31.0,281.0,263.0,2907.104
2907114.0,235.0,31.0,270.0,266.0,2907.114
2907124.0,229.0,32.0,281.0,273.0,2907.124
2907134.0,227.0,32.0,294.0,285.0,2907.134
2907144.0,225.0,32.0,287.0,289.0,2907.144
2907154.0,219.0,31.0,300.0,274.0,2907.154
2907164.0,225.0,31.0,295.0,272.0,2907.164
2907174.0,222.0,31.0,309.0,273.0,2907.174
2907184.0,225.0,31.0,320.0,268.0,2907.184
2907194.0,228.0,32.0,309.0,263.0,2907.194
2907204.0,222.0,31.0,337.0,256.0,2907.204
2907214.0,217.0,31.0,325.0,256.0,2907.214
2907224.0,212.0,31.0,343.0,254.0,2907.224
2907234.0,216.0,31.0,355.0,261.0,2907.234
2907244.0,220.0,31.0,342.0,256.0,2907.244
2907254.0,219.0,31.0,377.0,255.0,2907.254
2907264.0,225.0,32.0,366.0,256.0,2907.264
2907274.0,221.0,32.0,388.0,253.0,2907.274
2907284.0,228.0,31.0,402.0,267.0,2907.284
2907294.0,230.0,32.0,384.0,264.0,2907.294
2907304.0,224.0,31.0,416.0,257.0,2907.304
2907314.0,230.0,32.0,400.0,259.0,2907.314
2907324.0,227.0,32.0,417.0,256.0,2907.324
2907334.0,231.0,31.0,429.0,262.0,2907.334
2907344.0,235.0,32.0,409.0,259.0,2907.344
2907354.0,234.0,31.0,441.0,257.0,2907.354
2907364.0,237.0,31.0,423.0,258.0,2907.364
2907374.0,236.0,32.0,433.0,259.0,2907.374
2907384.0,239.0,32.0,442.0,267.0,2907.384
2907394.0,239.0,32.0,421.0,269.0,2907.394
2907404.0,231.0,32.0,448.0,260.0,2907.404
2907414.0,235.0,32.0,428.0,257.0,2907.414
2907424.0,234.0,31.0,438.0,257.0,2907.424
2907435.0,233.0,32.0,446.0,259.0,2907.435
2907445.0,231.0,32.0,419.0,253.0,2907.445
2907455.0,220.0,33.0,442.0,246.0,2907.455
2907465.0,221.0,32.0,425.0,244.0,2907.465
2907475.0,227.0,32.0,421.0,250.0,2907.475
2907485.0,225.0,32.0,434.0,249.0,2907.485
2907495.0,224.0,33.0,407.0,247.0,2907.495
2907505.0,217.0,32.0,429.0,243.0,2907.505
2907515.0,220.0,33.0,416.0,254.0,2907.515
2907525.0,220.0,32.0,419.0,258.0,2907.525
2907535.0,213.0,32.0,425.0,254.0,2907.535
2907545.0,215.0,33.0,403.0,252.0,2907.545
2907555.0,211.0,31.0,424.0,247.0,2907.555
2907565.0,214.0,33.0,405.0,253.0,2907.565
2907575.0,218.0,32.0,412.0,257.0,2907.575
2907585.0,218.0,33.0,419.0,257.0,2907.585
2907595.0,216.0,32.0,398.0,258.0,2907.595
2907606.0,205.0,32.0,415.0,248.0,2907.606
2907616.0,210.0,32.0,407.0,255.0,2907.616
2907626.0,214.0,33.0,395.0,256.0,2907.626
2907636.0,208.0,32.0,411.0,250.0,2907.636
2907646.0,211.0,34.0,386.0,246.0,2907.646
2907656.0,205.0,32.0,401.0,240.0,2907.656
2907666.0,213.0,32.0,394.0,250.0,2907.666
2907676.0,219.0,33.0,381.0,253.0,2907.676
2907686.0,216.0,31.0,394.0,246.0,2907.686
2907696.0,220.0,32.0,372.0,244.0,2907.696
2907706.0,213.0,32.0,386.0,236.0,2907.706
2907716.0,222.0,33.0,382.0,251.0,2907.716
2907726.0,227.0,32.0,369.0,251.0,2907.726
2907736.0,221.0,32.0,384.0,249.0,2907.736
2907746.0,221.0,32.0,364.0,245.0,2907.746
2907756.0,216.0,32.0,380.0,244.0,2907.756
2907766.0,225.0,32.0,378.0,258.0,2907.766
2907776.0,229.0,33.0,367.0,261.0,2907.776
2907786.0,223.0,32.0,379.0,254.0,2907.786
2907796.0,223.0,33.0,355.0,246.0,2907.796
2907806.0,216.0,32.0,368.0,243.0,2907.806
2907816.0,220.0,32.0,367.0,255.0,2907.816
2907826.0,223.0,32.0,354.0,254.0,2907.826
2907836.0,217.0,33.0,365.0,252.0,2907.836
2907846.0,219.0,32.0,347.0,249.0,2907.846
2907856.0,212.0,32.0,359.0,253.0,2907.856
2907866.0,213.0,32.0,356.0,261.0,2907.866
2907876.0,224.0,33.0,348.0,266.0,2907.876
2907886.0,215.0,32.0,360.0,258.0,2907.886
2907896.0,217.0,33.0,342.0,256.0,2907.896
2907906.0,210.0,33.0,353.0,248.0,2907.906
2907916.0,218.0,32.0,350.0,257.0,2907.916
2907926.0,223.0,33.0,339.0,260.0,2907.926
2907936.0,216.0,32.0,350.0,251.0,2907.936
2907947.0,216.0,32.0,334.0,254.0,2907.947
2907957.0,213.0,32.0,339.0,250.0,2907.957
2907967.0,219.0,32.0,344.0,258.0,2907.967
2907977.0,221.0,32.0,328.0,254.0,2907.977
2907987.0,213.0,31.0,343.0,252.0,2907.987
2907997.0,214.0,32.0,329.0,258.0,2907.997
2908007.0,213.0,31.0,335.0,258.0,2908.007
2908017.0,218.0,31.0,340.0,266.0,2908.017
2908027.0,221.0,32.0,320.0,261.0,2908.027
2908037.0,216.0,33.0,333.0,260.0,2908.037
2908047.0,220.0,32.0,318.0,258.0,2908.047
2908057.0,216.0,32.0,321.0,259.0,2908.057
2908067.0,221.0,31.0,325.0,263.0,2908.067
2908077.0,224.0,31.0,311.0,264.0,2908.077
2908087.0,218.0,31.0,324.0,260.0,2908.087
2908097.0,222.0,33.0,309.0,259.0,2908.097
2908107.0,224.0,32.0,314.0,260.0,2908.107
2908118.0,225.0,31.0,318.0,262.0,2908.118
2908128.0,226.0,32.0,305.0,260.0,2908.128
2908138.0,220.0,31.0,310.0,252.0,2908.138
2908148.0,223.0,32.0,304.0,257.0,2908.148
2908158.0,230.0,33.0,304.0,263.0,2908.158
2908168.0,226.0,31.0,311.0,262.0,2908.168
2908178.0,227.0,32.0,295.0,261.0,2908.178
2908188.0,218.0,32.0,301.0,252.0,2908.188
2908198.0,225.0,31.0,299.0,262.0,2908.198
2908208.0,230.0,32.0,302.0,271.0,2908.208
2908218.0,229.0,31.0,304.0,264.0,2908.218
2908228.0,228.0,32.0,288.0,258.0,2908.228
2908238.0,218.0,30.0,294.0,248.0,2908.238
2908248.0,223.0,32.0,289.0,255.0,2908.248
2908258.0,234.0,32.0,299.0,273.0,2908.258
2908268.0,232.0,31.0,302.0,271.0,2908.268
2908278.0,229.0,31.0,288.0,266.0,2908.278
2908288.0,221.0,33.0,297.0,264.0,2908.288
2908298.0,222.0,32.0,289.0,268.0,2908.298
2908308.0,229.0,31.0,294.0,274.0,2908.308
2908318.0,226.0,31.0,298.0,269.0,2908.318
2908328.0,225.0,31.0,283.0,266.0,2908.328
2908338.0,221.0,31.0,291.0,259.0,2908.338
2908348.0,222.0,31.0,285.0,263.0,2908.348
2908358.0,227.0,33.0,288.0,266.0,2908.358
2908368.0,225.0,32.0,290.0,256.0,2908.368
2908378.0,227.0,31.0,277.0,258.0,2908.378
2908388.0,219.0,31.0,286.0,250.0,2908.388
2908398.0,223.0,31.0,283.0,259.0,2908.398
2908408.0,229.0,31.0,287.0,268.0,2908.408
2908418.0,226.0,32.0,295.0,268.0,2908.418
2908428.0,231.0,32.0,280.0,262.0,2908.428
2908438.0,220.0,31.0,285.0,251.0,2908.438
2908448.0,226.0,31.0,284.0,258.0,2908.448
2908459.0,232.0,31.0,285.0,261.0,2908.459
2908469.0,225.0,31.0,291.0,256.0,2908.469
2908479.0,227.0,32.0,276.0,254.0,2908.479
2908489.0,217.0,32.0,278.0,246.0,2908.489
2908499.0,225.0,31.0,284.0,254.0,2908.499
2908509.0,229.0,32.0,278.0,256.0,2908.509
2908519.0,221.0,31.0,282.0,251.0,2908.519
2908529.0,222.0,31.0,270.0,250.0,2908.529
2908539.0,219.0,32.0,274.0,248.0,2908.539
2908549.0,225.0,33.0,274.0,254.0,2908.549
2908559.0,225.0,32.0,267.0,253.0,2908.559
2908569.0,214.0,31.0,268.0,245.0,2908.569
2908579.0,218.0,32.0,259.0,246.0,2908.579
2908589.0,209.0,31.0,256.0,239.0,2908.589
2908599.0,218.0,32.0,260.0,251.0,2908.599
2908609.0,223.0,33.0,258.0,253.0,2908.609
2908619.0,215.0,32.0,255.0,246.0,2908.619
2908630.0,217.0,32.0,247.0,247.0,2908.63
2908640.0,215.0,32.0,247.0,248.0,2908.64
2908650.0,221.0,31.0,250.0,254.0,2908.65
2908660.0,221.0,32.0,240.0,249.0,2908.66
2908670.0,216.0,32.0,238.0,244.0,2908.67
2908680.0,221.0,33.0,235.0,247.0,2908.68
2908690.0,221.0,32.0,236.0,250.0,2908.69
2908700.0,224.0,32.0,239.0,254.0,2908.7
2908710.0,225.0,33.0,232.0,251.0,2908.71
2908720.0,218.0,32.0,227.0,247.0,2908.72
2908730.0,221.0,32.0,225.0,248.0,2908.73
2908740.0,221.0,34.0,227.0,253.0,2908.74
2908750.0,224.0,33.0,228.0,254.0,2908.75
2908760.0,225.0,33.0,228.0,255.0,2908.76
2908770.0,216.0,33.0,216.0,246.0,2908.77
2908780.0,219.0,33.0,214.0,248.0,2908.78
2908790.0,222.0,33.0,217.0,252.0,2908.79
2908800.0,223.0,32.0,219.0,256.0,2908.8
2908810.0,226.0,35.0,220.0,255.0,2908.81
2908820.0,217.0,32.0,208.0,247.0,2908.82
2908830.0,219.0,34.0,209.0,250.0,2908.83
2908840.0,223.0,34.0,214.0,255.0,2908.84
2908850.0,224.0,34.0,211.0,256.0,2908.85
2908860.0,227.0,33.0,211.0,252.0,2908.86
2908870.0,216.0,34.0,196.0,243.0,2908.87
2908880.0,219.0,32.0,200.0,244.0,2908.88
2908890.0,220.0,34.0,201.0,247.0,2908.89
2908900.0,225.0,33.0,204.0,253.0,2908.9
2908910.0,225.0,34.0,210.0,251.0,2908.91
2908920.0,218.0,33.0,192.0,245.0,2908.92
2908930.0,222.0,34.0,204.0,249.0,2908.93
2908940.0,221.0,34.0,207.0,253.0,2908.94
2908950.0,225.0,33.0,206.0,256.0,2908.95
2908960.0,225.0,35.0,222.0,253.0,2908.96
2908971.0,217.0,33.0,202.0,246.0,2908.971
2908981.0,220.0,34.0,215.0,249.0,2908.981
2908991.0,225.0,33.0,231.0,257.0,2908.991
2909001.0,222.0,35.0,215.0,253.0,2909.001
2909011.0,222.0,34.0,236.0,251.0,2909.011
2909021.0,213.0,34.0,219.0,245.0,2909.021
2909031.0,220.0,35.0,236.0,251.0,2909.031
2909041.0,225.0,35.0,254.0,258.0,2909.041
2909051.0,222.0,33.0,238.0,253.0,2909.051
2909061.0,224.0,36.0,266.0,255.0,2909.061
2909071.0,215.0,34.0,247.0,244.0,2909.071
2909081.0,221.0,34.0,266.0,252.0,2909.081
2909091.0,228.0,34.0,288.0,257.0,2909.091
2909101.0,226.0,34.0,270.0,254.0,2909.101
2909111.0,225.0,35.0,299.0,253.0,2909.111
2909121.0,217.0,33.0,279.0,243.0,2909.121
2909131.0,223.0,34.0,300.0,254.0,2909.131
2909142.0,229.0,34.0,323.0,258.0,2909.142
2909152.0,223.0,33.0,304.0,252.0,2909.152
2909162.0,225.0,34.0,336.0,253.0,2909.162
2909172.0,220.0,33.0,330.0,250.0,2909.172
2909182.0,227.0,33.0,336.0,257.0,2909.182
2909192.0,231.0,34.0,369.0,259.0,2909.192
2909202.0,225.0,32.0,348.0,250.0,2909.202
2909212.0,225.0,33.0,381.0,251.0,2909.212
2909222.0,222.0,33.0,378.0,249.0,2909.222
2909232.0,226.0,33.0,384.0,254.0,2909.232
2909242.0,231.0,33.0,413.0,257.0,2909.242
2909252.0,224.0,33.0,391.0,250.0,2909.252
2909262.0,225.0,34.0,425.0,250.0,2909.262
2909272.0,219.0,33.0,412.0,245.0,2909.272
2909282.0,227.0,34.0,426.0,255.0,2909.282
2909292.0,232.0,33.0,459.0,257.0,2909.292
2909302.0,224.0,33.0,433.0,248.0,2909.302
2909312.0,226.0,33.0,469.0,252.0,2909.312
2909322.0,219.0,34.0,455.0,246.0,2909.322
2909332.0,229.0,34.0,465.0,255.0,2909.332
2909342.0,230.0,34.0,498.0,258.0,2909.342
2909352.0,224.0,33.0,472.0,248.0,2909.352
2909362.0,226.0,34.0,504.0,252.0,2909.362
2909372.0,221.0,33.0,491.0,247.0,2909.372
2909382.0,229.0,34.0,496.0,256.0,2909.382
2909392.0,231.0,34.0,528.0,256.0,2909.392
2909402.0,226.0,33.0,499.0,250.0,2909.402
2909412.0,226.0,34.0,532.0,251.0,2909.412
2909422.0,222.0,34.0,520.0,248.0,2909.422
2909432.0,230.0,34.0,520.0,256.0,2909.432
2909442.0,232.0,34.0,551.0,256.0,2909.442
2909452.0,227.0,34.0,524.0,250.0,2909.452
2909462.0,226.0,34.0,555.0,251.0,2909.462
2909472.0,223.0,34.0,545.0,249.0,2909.472
2909483.0,231.0,34.0,542.0,255.0,2909.483
2909493.0,230.0,35.0,575.0,255.0,2909.493
2909503.0,223.0,33.0,545.0,246.0,2909.503
2909513.0,226.0,35.0,572.0,250.0,2909.513
2909523.0,230.0,34.0,577.0,256.0,2909.523
2909533.0,231.0,35.0,560.0,256.0,2909.533
2909543.0,232.0,35.0,593.0,254.0,2909.543
2909553.0,224.0,34.0,563.0,246.0,2909.553
2909563.0,226.0,35.0,586.0,249.0,2909.563
2909573.0,227.0,34.0,583.0,252.0,2909.573
2909583.0,233.0,34.0,572.0,256.0,2909.583
2909593.0,231.0,34.0,604.0,254.0,2909.593
2909603.0,223.0,34.0,574.0,246.0,2909.603
2909613.0,228.0,34.0,600.0,251.0,2909.613
2909623.0,228.0,34.0,595.0,254.0,2909.623
2909633.0,231.0,34.0,579.0,256.0,2909.633
2909643.0,230.0,35.0,610.0,255.0,2909.643
2909654.0,223.0,34.0,580.0,245.0,2909.654
2909664.0,226.0,34.0,598.0,251.0,2909.664
2909674.0,233.0,33.0,606.0,258.0,2909.674
2909684.0,229.0,34.0,578.0,252.0,2909.684
2909694.0,229.0,33.0,607.0,252.0,2909.694
2909704.0,222.0,33.0,578.0,246.0,2909.704
2909714.0,227.0,33.0,594.0,252.0,2909.714
2909724.0,232.0,33.0,603.0,258.0,2909.724
2909734.0,229.0,33.0,575.0,251.0,2909.734
2909744.0,229.0,34.0,605.0,253.0,2909.744
2909754.0,221.0,34.0,573.0,243.0,2909.754
2909764.0,227.0,33.0,585.0,252.0,2909.764
2909774.0,234.0,34.0,596.0,256.0,2909.774
2909784.0,231.0,32.0,567.0,252.0,2909.784
2909794.0,229.0,34.0,594.0,250.0,2909.794
2909804.0,222.0,33.0,563.0,241.0,2909.804
2909814.0,228.0,33.0,571.0,252.0,2909.814
2909824.0,231.0,33.0,575.0,255.0,2909.824
2909834.0,229.0,34.0,553.0,253.0,2909.834
2909844.0,228.0,33.0,579.0,252.0,2909.844
2909854.0,220.0,33.0,547.0,244.0,2909.854
2909864.0,229.0,33.0,555.0,253.0,2909.864
2909874.0,232.0,34.0,559.0,257.0,2909.874
2909884.0,228.0,33.0,537.0,253.0,2909.884
2909894.0,228.0,33.0,562.0,252.0,2909.894
2909904.0,221.0,34.0,532.0,244.0,2909.904
2909914.0,226.0,32.0,544.0,251.0,2909.914
2909924.0,231.0,33.0,539.0,257.0,2909.924
2909934.0,229.0,33.0,519.0,253.0,2909.934
2909944.0,227.0,33.0,541.0,252.0,2909.944
2909954.0,222.0,32.0,509.0,243.0,2909.954
2909964.0,227.0,34.0,521.0,252.0,2909.964
2909974.0,232.0,34.0,517.0,257.0,2909.974
2909984.0,227.0,33.0,496.0,253.0,2909.984
2909995.0,228.0,33.0,520.0,252.0,2909.995
2910005.0,221.0,33.0,492.0,247.0,2910.005
2910015.0,229.0,32.0,490.0,257.0,2910.015
2910025.0,231.0,33.0,497.0,257.0,2910.025
2910035.0,223.0,32.0,473.0,248.0,2910.035
2910045.0,226.0,32.0,495.0,252.0,2910.045
2910055.0,221.0,33.0,470.0,249.0,2910.055
2910065.0,231.0,31.0,469.0,257.0,2910.065
2910075.0,230.0,32.0,474.0,257.0,2910.075
2910085.0,225.0,32.0,454.0,251.0,2910.085
2910095.0,225.0,33.0,472.0,253.0,2910.095
2910105.0,223.0,32.0,450.0,250.0,2910.105
2910115.0,229.0,32.0,448.0,257.0,2910.115
2910125.0,233.0,32.0,450.0,259.0,2910.125
2910135.0,224.0,31.0,435.0,250.0,2910.135
2910145.0,226.0,33.0,448.0,252.0,2910.145
2910155.0,224.0,33.0,430.0,252.0,2910.155
2910166.0,231.0,32.0,428.0,256.0,2910.166
2910176.0,230.0,32.0,427.0,255.0,2910.176
2910186.0,224.0,32.0,412.0,246.0,2910.186
2910196.0,226.0,31.0,422.0,250.0,2910.196
2910206.0,230.0,32.0,405.0,256.0,2910.206
2910216.0,230.0,32.0,401.0,257.0,2910.216
2910226.0,229.0,33.0,399.0,253.0,2910.226
2910236.0,222.0,30.0,386.0,245.0,2910.236
2910246.0,224.0,32.0,393.0,250.0,2910.246
2910256.0,226.0,31.0,379.0,253.0,2910.256
2910266.0,230.0,31.0,374.0,256.0,2910.266
2910276.0,229.0,32.0,370.0,253.0,2910.276
2910286.0,221.0,33.0,359.0,246.0,2910.286
2910296.0,225.0,31.0,363.0,250.0,2910.296
2910306.0,227.0,32.0,350.0,255.0,2910.306
2910316.0,230.0,31.0,347.0,257.0,2910.316
2910326.0,229.0,31.0,341.0,254.0,2910.326
2910336.0,224.0,31.0,333.0,249.0,2910.336
2910346.0,226.0,32.0,332.0,252.0,2910.346
2910356.0,228.0,33.0,323.0,257.0,2910.356
2910366.0,229.0,31.0,321.0,257.0,2910.366
2910376.0,228.0,32.0,315.0,254.0,2910.376
2910386.0,224.0,31.0,310.0,248.0,2910.386
2910396.0,226.0,32.0,306.0,250.0,2910.396
2910406.0,230.0,32.0,301.0,257.0,2910.406
2910416.0,229.0,32.0,296.0,257.0,2910.416
2910426.0,230.0,31.0,290.0,254.0,2910.426
2910436.0,221.0,32.0,284.0,248.0,2910.436
2910446.0,225.0,32.0,279.0,251.0,2910.446
2910456.0,230.0,31.0,272.0,257.0,2910.456
2910466.0,229.0,32.0,265.0,257.0,2910.466
2910476.0,229.0,33.0,258.0,256.0,2910.476
2910486.0,221.0,32.0,251.0,247.0,2910.486
2910496.0,224.0,32.0,244.0,253.0,2910.496
2910507.0,229.0,32.0,237.0,258.0,2910.507
2910517.0,229.0,31.0,229.0,256.0,2910.517
2910527.0,227.0,32.0,222.0,254.0,2910.527
2910537.0,220.0,32.0,215.0,247.0,2910.537
2910547.0,229.0,32.0,207.0,258.0,2910.547
2910557.0,231.0,32.0,200.0,260.0,2910.557
2910567.0,228.0,31.0,193.0,257.0,2910.567
2910577.0,227.0,32.0,186.0,255.0,2910.577
2910587.0,220.0,32.0,178.0,248.0,2910.587
2910597.0,225.0,32.0,173.0,253.0,2910.597
2910607.0,230.0,34.0,166.0,260.0,2910.607
2910617.0,227.0,32.0,159.0,254.0,2910.617
2910627.0,226.0,32.0,152.0,253.0,2910.627
2910637.0,221.0,32.0,148.0,246.0,2910.637
2910647.0,227.0,31.0,141.0,254.0,2910.647
2910657.0,232.0,33.0,135.0,259.0,2910.657
2910667.0,227.0,32.0,129.0,253.0,2910.667
2910678.0,227.0,33.0,123.0,254.0,2910.678
2910688.0,223.0,32.0,118.0,251.0,2910.688
2910698.0,230.0,32.0,112.0,259.0,2910.698
2910708.0,232.0,33.0,108.0,257.0,2910.708
2910718.0,223.0,33.0,102.0,249.0,2910.718
2910728.0,226.0,32.0,98.0,252.0,2910.728
2910738.0,224.0,33.0,93.0,251.0,2910.738
2910748.0,231.0,33.0,89.0,258.0,2910.748
2910758.0,231.0,34.0,85.0,257.0,2910.758
2910768.0,226.0,32.0,81.0,252.0,2910.768
2910778.0,226.0,33.0,76.0,253.0,2910.778
2910788.0,225.0,33.0,73.0,252.0,2910.788
2910798.0,231.0,33.0,69.0,259.0,2910.798
2910808.0,232.0,33.0,65.0,258.0,2910.808
2910818.0,225.0,33.0,63.0,252.0,2910.818
2910828.0,226.0,32.0,60.0,252.0,2910.828
2910838.0,226.0,32.0,57.0,253.0,2910.838
2910848.0,229.0,32.0,54.0,257.0,2910.848
2910858.0,231.0,32.0,51.0,257.0,2910.858
2910868.0,224.0,32.0,47.0,249.0,2910.868
2910878.0,226.0,32.0,45.0,251.0,2910.878
2910888.0,227.0,33.0,42.0,254.0,2910.888
2910898.0,230.0,32.0,40.0,257.0,2910.898
2910908.0,231.0,32.0,36.0,256.0,2910.908
2910918.0,225.0,31.0,36.0,248.0,2910.918
2910928.0,226.0,33.0,32.0,251.0,2910.928
2910938.0,223.0,32.0,30.0,248.0,2910.938
2910948.0,231.0,32.0,28.0,258.0,2910.948
2910958.0,232.0,32.0,27.0,255.0,2910.958
2910968.0,224.0,31.0,24.0,248.0,2910.968
2910978.0,227.0,32.0,22.0,251.0,2910.978
2910988.0,224.0,31.0,20.0,251.0,2910.988
2910998.0,230.0,31.0,18.0,258.0,2910.998
2911008.0,230.0,32.0,17.0,255.0,2911.008
2911019.0,223.0,31.0,15.0,248.0,2911.019
2911029.0,225.0,31.0,14.0,251.0,2911.029
2911039.0,228.0,31.0,13.0,256.0,2911.039
2911049.0,229.0,30.0,12.0,256.0,2911.049
2911059.0,228.0,31.0,10.0,253.0,2911.059
2911069.0,223.0,29.0,10.0,248.0,2911.069
2911079.0,224.0,31.0,9.0,251.0,2911.079
2911089.0,230.0,30.0,9.0,256.0,2911.089
2911099.0,229.0,31.0,7.0,254.0,2911.099
2911109.0,229.0,31.0,7.0,253.0,2911.109
2911119.0,221.0,31.0,7.0,247.0,2911.119
2911129.0,224.0,30.0,7.0,250.0,2911.129
2911139.0,230.0,31.0,6.0,258.0,2911.139
2911149.0,229.0,31.0,6.0,257.0,2911.149
2911159.0,229.0,31.0,6.0,254.0,2911.159
2911169.0,221.0,30.0,5.0,246.0,2911.169
2911179.0,224.0,30.0,5.0,252.0,2911.179
2911190.0,230.0,32.0,5.0,258.0,2911.19
2911200.0,227.0,30.0,5.0,254.0,2911.2
2911210.0,226.0,30.0,5.0,252.0,2911.21
2911220.0,219.0,30.0,6.0,246.0,2911.22
2911230.0,226.0,30.0,4.0,258.0,2911.23
2911240.0,229.0,30.0,5.0,259.0,2911.24
2911250.0,226.0,30.0,5.0,256.0,2911.25
2911260.0,225.0,30.0,5.0,253.0,2911.26
2911270.0,219.0,30.0,4.0,249.0,2911.27
2911280.0,225.0,30.0,4.0,254.0,2911.28
2911290.0,230.0,31.0,4.0,259.0,2911.29
2911300.0,226.0,30.0,4.0,253.0,2911.3
2911310.0,225.0,31.0,4.0,254.0,2911.31
2911320.0,219.0,31.0,3.0,246.0,2911.32
2911330.0,226.0,31.0,4.0,255.0,2911.33
2911340.0,230.0,31.0,5.0,259.0,2911.34
2911350.0,225.0,31.0,5.0,253.0,2911.35
2911360.0,226.0,31.0,4.0,254.0,2911.36
2911370.0,218.0,31.0,4.0,245.0,2911.37
2911380.0,226.0,32.0,3.0,257.0,2911.38
2911390.0,230.0,30.0,4.0,258.0,2911.39
2911400.0,224.0,31.0,4.0,252.0,2911.4
2911410.0,226.0,31.0,5.0,253.0,2911.41
2911420.0,219.0,31.0,4.0,245.0,2911.42
2911430.0,227.0,31.0,4.0,255.0,2911.43
2911440.0,231.0,32.0,4.0,257.0,2911.44
2911450.0,227.0,31.0,3.0,253.0,2911.45
2911460.0,226.0,31.0,4.0,252.0,2911.46
2911470.0,220.0,32.0,4.0,246.0,2911.47
2911480.0,228.0,31.0,4.0,255.0,2911.48
2911490.0,230.0,31.0,4.0,257.0,2911.49
2911500.0,226.0,31.0,4.0,252.0,2911.5
2911510.0,227.0,32.0,3.0,253.0,2911.51
2911520.0,220.0,32.0,4.0,246.0,2911.52
2911531.0,228.0,31.0,4.0,256.0,2911.531
2911541.0,232.0,32.0,5.0,256.0,2911.541
2911551.0,223.0,31.0,2.0,248.0,2911.551
2911561.0,225.0,31.0,4.0,249.0,2911.561
2911571.0,226.0,32.0,4.0,254.0,2911.571
2911581.0,229.0,31.0,3.0,256.0,2911.581
2911591.0,231.0,31.0,4.0,254.0,2911.591
2911601.0,223.0,31.0,4.0,247.0,2911.601
2911611.0,225.0,31.0,4.0,250.0,2911.611
2911621.0,222.0,32.0,4.0,249.0,2911.621
2911631.0,229.0,31.0,4.0,257.0,2911.631
2911641.0,231.0,32.0,3.0,254.0,2911.641
2911651.0,222.0,30.0,4.0,246.0,2911.651
2911661.0,225.0,31.0,4.0,249.0,2911.661
2911671.0,223.0,31.0,5.0,249.0,2911.671
2911681.0,228.0,31.0,4.0,255.0,2911.681
2911691.0,230.0,31.0,4.0,253.0,2911.691
2911702.0,221.0,31.0,4.0,247.0,2911.702
2911712.0,224.0,32.0,4.0,250.0,2911.712
2911722.0,228.0,31.0,4.0,256.0,2911.722
2911732.0,227.0,31.0,4.0,255.0,2911.732
2911742.0,225.0,31.0,3.0,252.0,2911.742
2911752.0,219.0,31.0,3.0,245.0,2911.752
2911762.0,222.0,32.0,4.0,251.0,2911.762
2911772.0,227.0,32.0,3.0,257.0,2911.772
2911782.0,225.0,31.0,4.0,254.0,2911.782
2911792.0,225.0,32.0,4.0,253.0,2911.792
2911802.0,218.0,31.0,4.0,245.0,2911.802
2911812.0,221.0,32.0,4.0,251.0,2911.812
2911822.0,227.0,32.0,4.0,257.0,2911.822
2911832.0,226.0,32.0,3.0,256.0,2911.832
2911842.0,226.0,32.0,4.0,254.0,2911.842
2911852.0,216.0,32.0,3.0,245.0,2911.852
2911862.0,223.0,31.0,5.0,253.0,2911.862
2911872.0,224.0,31.0,4.0,256.0,2911.872
2911882.0,225.0,31.0,4.0,256.0,2911.882
2911892.0,225.0,33.0,3.0,253.0,2911.892
2911902.0,216.0,30.0,4.0,244.0,2911.902
2911912.0,222.0,31.0,4.0,253.0,2911.912
2911922.0,226.0,32.0,5.0,255.0,2911.922
2911932.0,226.0,31.0,6.0,254.0,2911.932
2911942.0,225.0,31.0,6.0,252.0,2911.942
2911952.0,217.0,31.0,10.0,243.0,2911.952
2911962.0,222.0,32.0,9.0,249.0,2911.962
2911972.0,227.0,30.0,14.0,254.0,2911.972
2911982.0,226.0,32.0,17.0,252.0,2911.982
2911992.0,226.0,31.0,17.0,250.0,2911.992
2912002.0,218.0,31.0,20.0,243.0,2912.002
2912012.0,222.0,31.0,19.0,247.0,2912.012
2912022.0,227.0,33.0,25.0,255.0,2912.022
2912032.0,224.0,31.0,30.0,250.0,2912.032
2912043.0,224.0,33.0,27.0,251.0,2912.043
2912053.0,215.0,32.0,35.0,242.0,2912.053
2912063.0,223.0,31.0,30.0,253.0,2912.063
2912073.0,227.0,32.0,37.0,256.0,2912.073
2912083.0,219.0,32.0,43.0,248.0,2912.083
2912093.0,222.0,32.0,39.0,249.0,2912.093
2912103.0,215.0,31.0,48.0,243.0,2912.103
2912113.0,224.0,31.0,47.0,252.0,2912.113
2912123.0,228.0,32.0,51.0,253.0,2912.123
2912133.0,223.0,31.0,59.0,248.0,2912.133
2912143.0,223.0,32.0,53.0,248.0,2912.143
2912153.0,216.0,33.0,64.0,243.0,2912.153
2912163.0,224.0,31.0,64.0,252.0,2912.163
2912173.0,227.0,33.0,66.0,254.0,2912.173
2912183.0,221.0,31.0,75.0,247.0,2912.183
2912193.0,222.0,31.0,66.0,247.0,2912.193
2912203.0,215.0,32.0,77.0,243.0,2912.203
2912214.0,224.0,32.0,78.0,253.0,2912.214
2912224.0,227.0,32.0,77.0,252.0,2912.224
2912234.0,217.0,33.0,89.0,244.0,2912.234
2912244.0,221.0,32.0,77.0,245.0,2912.244
2912254.0,222.0,31.0,90.0,250.0,2912.254
2912264.0,224.0,32.0,95.0,251.0,2912.264
2912274.0,226.0,33.0,90.0,250.0,2912.274
2912284.0,216.0,32.0,102.0,242.0,2912.284
2912294.0,219.0,32.0,90.0,244.0,2912.294
2912304.0,217.0,32.0,102.0,245.0,2912.304
2912314.0,225.0,31.0,109.0,250.0,2912.314
2912324.0,224.0,33.0,101.0,249.0,2912.324
2912334.0,215.0,31.0,113.0,241.0,2912.334
2912344.0,219.0,33.0,102.0,246.0,2912.344
2912354.0,217.0,32.0,113.0,246.0,2912.354
2912364.0,222.0,32.0,121.0,250.0,2912.364
2912374.0,223.0,33.0,113.0,248.0,2912.374
2912384.0,216.0,32.0,125.0,242.0,2912.384
2912394.0,218.0,32.0,112.0,243.0,2912.394
2912404.0,218.0,33.0,125.0,246.0,2912.404
2912414.0,222.0,32.0,134.0,248.0,2912.414
2912424.0,222.0,32.0,125.0,245.0,2912.424
2912434.0,215.0,32.0,140.0,239.0,2912.434
2912444.0,219.0,32.0,128.0,241.0,2912.444
2912454.0,219.0,33.0,140.0,245.0,2912.454
2912464.0,221.0,32.0,150.0,246.0,2912.464
2912474.0,224.0,34.0,142.0,248.0,2912.474
2912484.0,214.0,32.0,155.0,238.0,2912.484
2912494.0,217.0,32.0,144.0,241.0,2912.494
2912504.0,220.0,33.0,156.0,245.0,2912.504
2912514.0,221.0,33.0,164.0,247.0,2912.514
2912524.0,224.0,33.0,158.0,245.0,2912.524
2912534.0,214.0,33.0,169.0,237.0,2912.534
2912544.0,217.0,32.0,159.0,239.0,2912.544
2912555.0,220.0,32.0,167.0,245.0,2912.555
2912565.0,220.0,33.0,179.0,243.0,2912.565
2912575.0,220.0,33.0,167.0,241.0,2912.575
2912585.0,211.0,32.0,178.0,233.0,2912.585
2912595.0,218.0,33.0,176.0,243.0,2912.595
2912605.0,221.0,33.0,178.0,245.0,2912.605
2912615.0,219.0,32.0,189.0,242.0,2912.615
2912625.0,219.0,33.0,175.0,241.0,2912.625
2912635.0,211.0,33.0,184.0,233.0,2912.635
2912645.0,215.0,33.0,178.0,239.0,2912.645
2912655.0,221.0,33.0,183.0,245.0,2912.655
2912665.0,218.0,32.0,194.0,243.0,2912.665
2912675.0,219.0,32.0,182.0,240.0,2912.675
2912685.0,211.0,32.0,192.0,234.0,2912.685
2912695.0,216.0,33.0,188.0,240.0,2912.695
2912705.0,222.0,33.0,191.0,246.0,2912.705
2912715.0,218.0,32.0,201.0,241.0,2912.715
2912726.0,219.0,33.0,190.0,242.0,2912.726
2912736.0,211.0,32.0,198.0,235.0,2912.736
2912746.0,219.0,32.0,203.0,245.0,2912.746
2912756.0,223.0,33.0,200.0,247.0,2912.756
2912766.0,215.0,31.0,207.0,238.0,2912.766
2912776.0,218.0,32.0,198.0,240.0,2912.776
2912786.0,211.0,32.0,206.0,236.0,2912.786
2912796.0,219.0,33.0,213.0,246.0,2912.796
2912806.0,223.0,32.0,208.0,246.0,2912.806
2912816.0,216.0,32.0,218.0,241.0,2912.816
2912826.0,218.0,33.0,209.0,241.0,2912.826
2912836.0,210.0,33.0,214.0,238.0,2912.836
2912846.0,218.0,32.0,223.0,245.0,2912.846
2912856.0,222.0,33.0,217.0,248.0,2912.856
2912866.0,214.0,32.0,224.0,240.0,2912.866
2912876.0,216.0,32.0,214.0,239.0,2912.876
2912886.0,212.0,32.0,220.0,238.0,2912.886
2912896.0,216.0,32.0,223.0,243.0,2912.896
2912906.0,220.0,33.0,222.0,247.0,2912.906
2912916.0,214.0,32.0,229.0,241.0,2912.916
2912926.0,215.0,33.0,219.0,241.0,2912.926
2912936.0,212.0,32.0,223.0,240.0,2912.936
2912946.0,216.0,32.0,228.0,245.0,2912.946
2912956.0,221.0,32.0,226.0,247.0,2912.956
2912966.0,212.0,32.0,230.0,241.0,2912.966
2912976.0,214.0,32.0,222.0,241.0,2912.976
2912986.0,208.0,33.0,226.0,237.0,2912.986
2912996.0,216.0,33.0,231.0,244.0,2912.996
2913006.0,220.0,33.0,227.0,247.0,2913.006
2913016.0,212.0,32.0,233.0,239.0,2913.016
2913026.0,216.0,31.0,224.0,242.0,2913.026
2913036.0,208.0,32.0,226.0,237.0,2913.036
2913046.0,216.0,32.0,234.0,247.0,2913.046
2913056.0,219.0,33.0,229.0,247.0,2913.056
2913067.0,211.0,32.0,232.0,237.0,2913.067
2913077.0,213.0,33.0,225.0,239.0,2913.077
2913087.0,215.0,32.0,230.0,243.0,2913.087
2913097.0,216.0,32.0,238.0,245.0,2913.097
2913107.0,218.0,33.0,226.0,243.0,2913.107
2913117.0,211.0,33.0,234.0,238.0,2913.117
2913127.0,214.0,32.0,226.0,238.0,2913.127
2913137.0,217.0,32.0,231.0,243.0,2913.137
2913147.0,218.0,32.0,239.0,243.0,2913.147
2913157.0,220.0,32.0,229.0,243.0,2913.157
2913167.0,211.0,32.0,235.0,236.0,2913.167
2913177.0,213.0,33.0,229.0,239.0,2913.177
2913187.0,217.0,33.0,234.0,244.0,2913.187
2913197.0,218.0,32.0,242.0,244.0,2913.197
2913207.0,219.0,33.0,233.0,243.0,2913.207
2913217.0,210.0,33.0,239.0,236.0,2913.217
2913227.0,213.0,32.0,234.0,238.0,2913.227
2913238.0,217.0,33.0,239.0,245.0,2913.238
2913248.0,216.0,33.0,246.0,243.0,2913.248
2913258.0,216.0,32.0,235.0,241.0,2913.258
2913268.0,207.0,32.0,242.0,233.0,2913.268
2913278.0,215.0,31.0,246.0,243.0,2913.278
2913288.0,218.0,33.0,246.0,245.0,2913.288
2913298.0,215.0,32.0,254.0,241.0,2913.298
2913308.0,216.0,33.0,242.0,241.0,2913.308
2913318.0,208.0,32.0,248.0,232.0,2913.318
2913328.0,213.0,33.0,247.0,238.0,2913.328
2913338.0,220.0,32.0,254.0,244.0,2913.338
2913348.0,216.0,31.0,259.0,241.0,2913.348
2913358.0,216.0,32.0,247.0,239.0,2913.358
2913368.0,209.0,32.0,255.0,233.0,2913.368
2913378.0,214.0,32.0,252.0,239.0,2913.378
2913388.0,220.0,32.0,255.0,244.0,2913.388
2913398.0,214.0,32.0,260.0,239.0,2913.398
2913408.0,218.0,32.0,249.0,239.0,2913.408
2913418.0,208.0,32.0,255.0,232.0,2913.418
2913428.0,215.0,32.0,254.0,240.0,2913.428
2913438.0,221.0,33.0,255.0,246.0,2913.438
2913448.0,214.0,32.0,260.0,240.0,2913.448
2913458.0,217.0,33.0,248.0,241.0,2913.458
2913468.0,209.0,32.0,253.0,232.0,2913.468
2913478.0,214.0,31.0,253.0,242.0,2913.478
2913488.0,220.0,32.0,251.0,245.0,2913.488
2913498.0,216.0,32.0,257.0,244.0,2913.498
2913508.0,216.0,32.0,245.0,240.0,2913.508
2913518.0,207.0,32.0,248.0,233.0,2913.518
2913528.0,214.0,32.0,251.0,242.0,2913.528
2913538.0,219.0,32.0,251.0,244.0,2913.538
2913548.0,214.0,32.0,254.0,242.0,2913.548
2913558.0,216.0,32.0,242.0,239.0,2913.558
2913568.0,208.0,32.0,246.0,233.0,2913.568
2913579.0,216.0,32.0,251.0,243.0,2913.579
2913589.0,220.0,32.0,247.0,244.0,2913.589
2913599.0,212.0,31.0,252.0,239.0,2913.599
2913609.0,214.0,32.0,244.0,239.0,2913.609
2913619.0,213.0,32.0,249.0,240.0,2913.619
2913629.0,217.0,32.0,254.0,246.0,2913.629
2913639.0,220.0,32.0,249.0,246.0,2913.639
2913649.0,211.0,31.0,255.0,240.0,2913.649
2913659.0,214.0,32.0,246.0,241.0,2913.659
2913669.0,208.0,31.0,251.0,237.0,2913.669
2913679.0,216.0,32.0,258.0,245.0,2913.679
2913689.0,221.0,32.0,251.0,247.0,2913.689
2913699.0,211.0,32.0,259.0,238.0,2913.699
2913709.0,216.0,32.0,250.0,240.0,2913.709
2913719.0,210.0,32.0,256.0,237.0,2913.719
2913729.0,218.0,31.0,264.0,245.0,2913.729
2913739.0,220.0,32.0,254.0,245.0,2913.739
2913750.0,211.0,32.0,261.0,237.0,2913.75
2913760.0,213.0,33.0,253.0,239.0,2913.76
2913770.0,216.0,32.0,260.0,243.0,2913.77
2913780.0,217.0,32.0,265.0,243.0,2913.78
2913790.0,218.0,32.0,253.0,240.0,2913.79
2913800.0,210.0,31.0,262.0,236.0,2913.8
2913810.0,213.0,32.0,254.0,237.0,2913.81
2913820.0,216.0,33.0,261.0,245.0,2913.82
2913830.0,217.0,31.0,266.0,242.0,2913.83
2913840.0,220.0,32.0,254.0,242.0,2913.84
2913850.0,210.0,31.0,263.0,235.0,2913.85
2913860.0,213.0,31.0,255.0,238.0,2913.86
2913870.0,216.0,32.0,261.0,245.0,2913.87
2913880.0,217.0,32.0,265.0,245.0,2913.88
2913890.0,219.0,33.0,253.0,243.0,2913.89
2913900.0,209.0,31.0,262.0,235.0,2913.9
2913910.0,211.0,32.0,255.0,238.0,2913.91
2913920.0,213.0,32.0,261.0,242.0,2913.92
2913930.0,218.0,31.0,266.0,244.0,2913.93
2913940.0,218.0,32.0,253.0,241.0,2913.94
2913950.0,210.0,32.0,260.0,234.0,2913.95
2913960.0,213.0,32.0,255.0,239.0,2913.96
2913970.0,215.0,32.0,259.0,243.0,2913.97
2913980.0,217.0,32.0,266.0,245.0,2913.98
2913990.0,218.0,31.0,252.0,242.0,2913.99
2914000.0,208.0,32.0,260.0,236.0,2914.0
2914010.0,212.0,32.0,254.0,241.0,2914.01
2914020.0,215.0,33.0,261.0,245.0,2914.02
2914030.0,216.0,32.0,267.0,246.0,2914.03
2914040.0,216.0,32.0,253.0,243.0,2914.04
2914050.0,211.0,31.0,264.0,238.0,2914.05
2914060.0,212.0,32.0,254.0,240.0,2914.06
2914070.0,216.0,32.0,262.0,245.0,2914.07
2914080.0,216.0,32.0,269.0,246.0,2914.08
2914091.0,216.0,32.0,255.0,243.0,2914.091
2914101.0,208.0,31.0,262.0,235.0,2914.101
2914111.0,214.0,32.0,261.0,243.0,2914.111
2914121.0,219.0,33.0,262.0,247.0,2914.121
2914131.0,214.0,31.0,268.0,242.0,2914.131
2914141.0,216.0,32.0,257.0,242.0,2914.141
2914151.0,207.0,32.0,262.0,235.0,2914.151
2914161.0,215.0,32.0,265.0,243.0,2914.161
2914171.0,219.0,33.0,263.0,247.0,2914.171
2914181.0,216.0,31.0,272.0,245.0,2914.181
2914191.0,215.0,32.0,258.0,242.0,2914.191
2914201.0,208.0,32.0,264.0,236.0,2914.201
2914211.0,216.0,33.0,267.0,246.0,2914.211
2914221.0,219.0,32.0,267.0,247.0,2914.221
2914231.0,216.0,32.0,272.0,244.0,2914.231
2914241.0,217.0,32.0,260.0,242.0,2914.241
2914251.0,208.0,32.0,266.0,237.0,2914.251
2914262.0,217.0,32.0,270.0,246.0,2914.262
2914272.0,221.0,33.0,264.0,249.0,2914.272
2914282.0,214.0,32.0,271.0,241.0,2914.282
2914292.0,215.0,32.0,260.0,242.0,2914.292
2914302.0,214.0,32.0,266.0,243.0,2914.302
2914312.0,218.0,31.0,271.0,248.0,2914.312
2914322.0,221.0,33.0,262.0,247.0,2914.322
2914332.0,213.0,32.0,270.0,242.0,2914.332
2914342.0,215.0,32.0,261.0,241.0,2914.342
2914352.0,211.0,32.0,266.0,240.0,2914.352
2914362.0,218.0,33.0,273.0,248.0,2914.362
2914372.0,221.0,32.0,263.0,247.0,2914.372
2914382.0,212.0,32.0,271.0,242.0,2914.382
2914392.0,215.0,32.0,262.0,243.0,2914.392
2914402.0,211.0,33.0,267.0,243.0,2914.402
2914412.0,218.0,32.0,273.0,250.0,2914.412
2914422.0,220.0,32.0,262.0,247.0,2914.422
2914432.0,215.0,32.0,271.0,243.0,2914.432
2914442.0,215.0,32.0,260.0,243.0,2914.442
2914452.0,213.0,32.0,265.0,242.0,2914.452
2914462.0,219.0,32.0,271.0,248.0,2914.462
2914472.0,219.0,33.0,258.0,246.0,2914.472
2914482.0,214.0,30.0,267.0,244.0,2914.482
2914492.0,214.0,32.0,256.0,243.0,2914.492
2914502.0,213.0,31.0,262.0,244.0,2914.502
2914512.0,218.0,32.0,268.0,249.0,2914.512
2914522.0,220.0,32.0,258.0,249.0,2914.522
2914532.0,213.0,33.0,265.0,243.0,2914.532
2914542.0,215.0,32.0,255.0,242.0,2914.542
2914552.0,214.0,32.0,261.0,244.0,2914.552
2914562.0,219.0,32.0,266.0,248.0,2914.562
2914572.0,220.0,33.0,255.0,248.0,2914.572
2914582.0,213.0,32.0,262.0,242.0,2914.582
2914592.0,215.0,33.0,254.0,244.0,2914.592
2914603.0,216.0,32.0,260.0,246.0,2914.603
2914613.0,219.0,32.0,265.0,250.0,2914.613
2914623.0,218.0,32.0,253.0,244.0,2914.623
2914633.0,210.0,31.0,258.0,239.0,2914.633
2914643.0,214.0,32.0,254.0,243.0,2914.643
2914653.0,217.0,32.0,259.0,247.0,2914.653
2914663.0,218.0,32.0,264.0,249.0,2914.663
2914673.0,217.0,32.0,250.0,245.0,2914.673
2914683.0,209.0,32.0,255.0,239.0,2914.683
2914693.0,214.0,32.0,250.0,243.0,2914.693
2914703.0,217.0,33.0,258.0,249.0,2914.703
2914713.0,218.0,32.0,262.0,249.0,2914.713
2914723.0,217.0,34.0,249.0,246.0,2914.723
2914733.0,212.0,32.0,257.0,242.0,2914.733
2914743.0,213.0,33.0,250.0,244.0,2914.743
2914753.0,219.0,32.0,259.0,249.0,2914.753
2914763.0,219.0,31.0,263.0,250.0,2914.763
2914774.0,217.0,33.0,250.0,245.0,2914.774
2914784.0,209.0,33.0,256.0,239.0,2914.784
2914794.0,217.0,32.0,260.0,249.0,2914.794
2914804.0,221.0,33.0,257.0,250.0,2914.804
2914814.0,215.0,32.0,264.0,246.0,2914.814
2914824.0,217.0,33.0,254.0,245.0,2914.824
2914834.0,209.0,32.0,260.0,239.0,2914.834
2914844.0,218.0,32.0,265.0,250.0,2914.844
2914854.0,221.0,34.0,259.0,251.0,2914.854
2914864.0,217.0,32.0,269.0,249.0,2914.864
2914874.0,216.0,33.0,255.0,245.0,2914.874
2914884.0,211.0,32.0,261.0,240.0,2914.884
2914894.0,218.0,32.0,264.0,250.0,2914.894
2914904.0,221.0,33.0,262.0,251.0,2914.904
2914914.0,217.0,32.0,266.0,249.0,2914.914
2914924.0,216.0,33.0,253.0,245.0,2914.924
2914934.0,210.0,32.0,257.0,242.0,2914.934
2914944.0,215.0,33.0,259.0,247.0,2914.944
2914954.0,221.0,33.0,260.0,252.0,2914.954
2914964.0,216.0,33.0,263.0,248.0,2914.964
2914974.0,216.0,33.0,251.0,246.0,2914.974
2914984.0,210.0,33.0,255.0,244.0,2914.984
2914994.0,215.0,33.0,256.0,249.0,2914.994
2915004.0,221.0,33.0,256.0,252.0,2915.004
2915014.0,217.0,32.0,260.0,248.0,2915.014
2915024.0,216.0,33.0,248.0,246.0,2915.024
2915034.0,209.0,32.0,252.0,239.0,2915.034
2915044.0,216.0,33.0,254.0,250.0,2915.044
2915054.0,222.0,32.0,251.0,250.0,2915.054
2915064.0,215.0,32.0,255.0,246.0,2915.064
2915074.0,217.0,33.0,246.0,245.0,2915.074
2915084.0,209.0,31.0,250.0,241.0,2915.084
2915094.0,216.0,32.0,254.0,250.0,2915.094
2915104.0,221.0,33.0,251.0,252.0,2915.104
2915115.0,214.0,32.0,255.0,247.0,2915.115
2915125.0,215.0,32.0,246.0,246.0,2915.125
2915135.0,213.0,33.0,252.0,248.0,2915.135
2915145.0,219.0,32.0,259.0,253.0,2915.145
2915155.0,219.0,33.0,246.0,249.0,2915.155
2915165.0,214.0,32.0,256.0,248.0,2915.165
2915175.0,215.0,33.0,246.0,247.0,2915.175
2915185.0,215.0,32.0,253.0,246.0,2915.185
2915195.0,220.0,32.0,259.0,252.0,2915.195
2915205.0,222.0,32.0,250.0,250.0,2915.205
2915215.0,213.0,32.0,257.0,246.0,2915.215
2915225.0,215.0,32.0,250.0,246.0,2915.225
2915235.0,216.0,31.0,256.0,249.0,2915.235
2915245.0,218.0,33.0,260.0,252.0,2915.245
2915255.0,220.0,32.0,252.0,250.0,2915.255
2915265.0,212.0,33.0,259.0,246.0,2915.265
2915275.0,215.0,32.0,251.0,245.0,2915.275
2915286.0,216.0,33.0,258.0,249.0,2915.286
2915296.0,218.0,32.0,265.0,251.0,2915.296
2915306.0,217.0,33.0,252.0,248.0,2915.306
2915316.0,209.0,32.0,260.0,242.0,2915.316
2915326.0,213.0,33.0,257.0,247.0,2915.326
2915336.0,217.0,32.0,262.0,250.0,2915.336
2915346.0,216.0,32.0,267.0,252.0,2915.346
2915356.0,216.0,32.0,254.0,247.0,2915.356
2915366.0,209.0,33.0,262.0,241.0,2915.366
2915376.0,214.0,32.0,256.0,244.0,2915.376
2915386.0,218.0,32.0,264.0,250.0,2915.386
2915396.0,218.0,32.0,271.0,251.0,2915.396
2915406.0,216.0,33.0,256.0,247.0,2915.406
2915416.0,210.0,32.0,266.0,243.0,2915.416
2915426.0,213.0,33.0,258.0,245.0,2915.426
2915436.0,218.0,33.0,265.0,252.0,2915.436
2915446.0,217.0,32.0,269.0,250.0,2915.446
2915456.0,218.0,33.0,256.0,248.0,2915.456
2915466.0,211.0,32.0,263.0,242.0,2915.466
2915476.0,213.0,33.0,256.0,245.0,2915.476
2915486.0,219.0,33.0,262.0,251.0,2915.486
2915496.0,217.0,33.0,264.0,250.0,2915.496
2915506.0,218.0,32.0,252.0,247.0,2915.506
2915516.0,211.0,32.0,258.0,242.0,2915.516
2915526.0,215.0,33.0,255.0,247.0,2915.526
2915536.0,220.0,33.0,257.0,252.0,2915.536
2915546.0,219.0,32.0,261.0,250.0,2915.546
2915556.0,218.0,33.0,248.0,247.0,2915.556
2915566.0,210.0,32.0,253.0,240.0,2915.566
2915576.0,215.0,32.0,251.0,246.0,2915.576
2915586.0,217.0,33.0,254.0,250.0,2915.586
2915596.0,219.0,32.0,258.0,250.0,2915.596
2915606.0,218.0,33.0,246.0,247.0,2915.606
2915616.0,209.0,32.0,248.0,240.0,2915.616
2915627.0,216.0,34.0,249.0,249.0,2915.627
2915637.0,221.0,32.0,249.0,252.0,2915.637
2915647.0,216.0,33.0,253.0,248.0,2915.647
2915657.0,217.0,33.0,243.0,247.0,2915.657
2915667.0,212.0,33.0,246.0,244.0,2915.667
2915677.0,216.0,33.0,249.0,249.0,2915.677
2915687.0,221.0,34.0,247.0,253.0,2915.687
2915697.0,215.0,32.0,251.0,246.0,2915.697
2915707.0,216.0,33.0,242.0,245.0,2915.707
2915717.0,209.0,32.0,246.0,240.0,2915.717
2915727.0,217.0,32.0,250.0,249.0,2915.727
2915737.0,222.0,33.0,247.0,249.0,2915.737
2915747.0,215.0,32.0,253.0,246.0,2915.747
2915757.0,216.0,33.0,244.0,245.0,2915.757
2915767.0,210.0,32.0,248.0,240.0,2915.767
2915777.0,217.0,33.0,255.0,249.0,2915.777
2915787.0,222.0,33.0,248.0,249.0,2915.787
2915798.0,215.0,32.0,255.0,244.0,2915.798
2915808.0,215.0,32.0,246.0,243.0,2915.808
2915818.0,215.0,33.0,253.0,246.0,2915.818
2915828.0,219.0,32.0,260.0,249.0,2915.828
2915838.0,219.0,32.0,248.0,246.0,2915.838
2915848.0,214.0,32.0,259.0,243.0,2915.848
2915858.0,214.0,32.0,250.0,244.0,2915.858
2915868.0,215.0,32.0,257.0,247.0,2915.868
2915878.0,218.0,33.0,264.0,252.0,2915.878
2915888.0,220.0,33.0,253.0,250.0,2915.888
2915898.0,213.0,32.0,261.0,244.0,2915.898
2915908.0,214.0,32.0,252.0,245.0,2915.908
2915918.0,216.0,32.0,259.0,249.0,2915.918
2915928.0,218.0,32.0,263.0,252.0,2915.928
2915938.0,219.0,33.0,252.0,249.0,2915.938
2915948.0,211.0,33.0,258.0,243.0,2915.948
