time (ms),signal 0,signal 1,signal 2,signal 3,time (sec)
2851564.0,214.0,31.0,5.0,247.0,2851.564
2851574.0,215.0,32.0,3.0,246.0,2851.574
2851584.0,208.0,32.0,4.0,241.0,2851.584
2851594.0,215.0,32.0,4.0,249.0,2851.594
2851604.0,220.0,33.0,3.0,251.0,2851.604
2851614.0,211.0,32.0,4.0,245.0,2851.614
2851624.0,212.0,32.0,4.0,246.0,2851.624
2851634.0,206.0,32.0,4.0,243.0,2851.634
2851644.0,214.0,32.0,4.0,253.0,2851.644
2851654.0,219.0,32.0,4.0,252.0,2851.654
2851664.0,211.0,33.0,3.0,249.0,2851.664
2851674.0,216.0,32.0,3.0,249.0,2851.674
2851684.0,210.0,32.0,3.0,246.0,2851.684
2851694.0,219.0,32.0,5.0,254.0,2851.694
2851704.0,222.0,33.0,4.0,253.0,2851.704
2851714.0,215.0,32.0,3.0,250.0,2851.714
2851724.0,217.0,33.0,3.0,249.0,2851.724
2851734.0,211.0,32.0,4.0,246.0,2851.734
2851744.0,219.0,32.0,4.0,255.0,2851.744
2851755.0,222.0,32.0,4.0,253.0,2851.755
2851765.0,213.0,31.0,3.0,248.0,2851.765
2851775.0,215.0,33.0,3.0,249.0,2851.775
2851785.0,218.0,33.0,3.0,254.0,2851.785
2851795.0,219.0,33.0,3.0,256.0,2851.795
2851805.0,223.0,32.0,3.0,253.0,2851.805
2851815.0,213.0,32.0,4.0,247.0,2851.815
2851825.0,217.0,32.0,4.0,250.0,2851.825
2851835.0,219.0,32.0,3.0,255.0,2851.835
2851845.0,220.0,33.0,3.0,257.0,2851.845
2851855.0,223.0,34.0,3.0,255.0,2851.855
2851865.0,213.0,32.0,4.0,247.0,2851.865
2851875.0,217.0,32.0,4.0,250.0,2851.875
2851885.0,215.0,32.0,3.0,252.0,2851.885
2851895.0,219.0,31.0,4.0,259.0,2851.895
2851905.0,221.0,33.0,3.0,254.0,2851.905
2851915.0,211.0,33.0,3.0,249.0,2851.915
2851926.0,216.0,33.0,3.0,254.0,2851.926
2851936.0,224.0,32.0,4.0,261.0,2851.936
2851946.0,223.0,32.0,4.0,262.0,2851.946
2851956.0,224.0,33.0,4.0,259.0,2851.956
2851966.0,221.0,32.0,4.0,258.0,2851.966
2851976.0,226.0,32.0,4.0,262.0,2851.976
2851986.0,230.0,34.0,3.0,269.0,2851.986
2851996.0,224.0,32.0,3.0,266.0,2851.996
2852006.0,225.0,32.0,3.0,263.0,2852.006
2852016.0,221.0,32.0,4.0,258.0,2852.016
2852026.0,224.0,32.0,4.0,262.0,2852.026
2852036.0,233.0,32.0,3.0,268.0,2852.036
2852046.0,227.0,32.0,3.0,267.0,2852.046
2852056.0,228.0,32.0,3.0,263.0,2852.056
2852066.0,223.0,32.0,3.0,259.0,2852.066
2852076.0,231.0,32.0,4.0,262.0,2852.076
2852086.0,231.0,31.0,4.0,264.0,2852.086
2852096.0,229.0,31.0,4.0,260.0,2852.096
2852106.0,232.0,32.0,3.0,255.0,2852.106
2852116.0,228.0,32.0,3.0,258.0,2852.116
2852126.0,230.0,30.0,4.0,266.0,2852.126
2852136.0,252.0,32.0,4.0,278.0,2852.136
2852146.0,242.0,30.0,4.0,286.0,2852.146
2852156.0,230.0,31.0,4.0,306.0,2852.156
2852166.0,223.0,31.0,4.0,325.0,2852.166
2852176.0,245.0,32.0,3.0,322.0,2852.176
2852186.0,271.0,32.0,4.0,322.0,2852.186
2852196.0,279.0,31.0,4.0,324.0,2852.196
2852206.0,288.0,32.0,4.0,320.0,2852.206
2852216.0,284.0,31.0,4.0,306.0,2852.216
2852226.0,288.0,32.0,3.0,304.0,2852.226
2852236.0,304.0,32.0,3.0,317.0,2852.236
2852246.0,306.0,32.0,3.0,301.0,2852.246
2852256.0,315.0,32.0,4.0,302.0,2852.256
2852267.0,301.0,32.0,4.0,301.0,2852.267
2852277.0,290.0,31.0,4.0,303.0,2852.277
2852287.0,304.0,33.0,2.0,301.0,2852.287
2852297.0,292.0,32.0,3.0,285.0,2852.297
2852307.0,297.0,33.0,3.0,288.0,2852.307
2852317.0,289.0,32.0,4.0,292.0,2852.317
2852327.0,282.0,32.0,3.0,309.0,2852.327
2852337.0,278.0,33.0,4.0,305.0,2852.337
2852347.0,274.0,31.0,3.0,304.0,2852.347
2852357.0,277.0,32.0,5.0,312.0,2852.357
2852367.0,275.0,33.0,3.0,301.0,2852.367
2852377.0,282.0,32.0,3.0,290.0,2852.377
2852387.0,296.0,33.0,3.0,283.0,2852.387
2852397.0,282.0,32.0,4.0,267.0,2852.397
2852407.0,276.0,31.0,3.0,273.0,2852.407
2852417.0,268.0,31.0,4.0,269.0,2852.417
2852427.0,276.0,32.0,3.0,282.0,2852.427
2852438.0,273.0,33.0,3.0,280.0,2852.438
2852448.0,261.0,32.0,4.0,277.0,2852.448
2852458.0,249.0,32.0,4.0,287.0,2852.458
2852468.0,250.0,32.0,4.0,274.0,2852.468
2852478.0,258.0,32.0,2.0,285.0,2852.478
2852488.0,262.0,32.0,4.0,285.0,2852.488
2852498.0,245.0,33.0,3.0,274.0,2852.498
2852508.0,246.0,32.0,3.0,270.0,2852.508
2852518.0,246.0,33.0,3.0,275.0,2852.518
2852528.0,247.0,32.0,3.0,278.0,2852.528
2852538.0,248.0,32.0,4.0,280.0,2852.538
2852548.0,236.0,32.0,3.0,272.0,2852.548
2852558.0,235.0,32.0,3.0,274.0,2852.558
2852568.0,231.0,33.0,3.0,277.0,2852.568
2852578.0,237.0,32.0,4.0,281.0,2852.578
2852588.0,246.0,32.0,4.0,296.0,2852.588
2852598.0,232.0,32.0,4.0,280.0,2852.598
2852608.0,233.0,32.0,4.0,279.0,2852.608
2852618.0,229.0,32.0,3.0,271.0,2852.618
2852628.0,234.0,33.0,3.0,273.0,2852.628
2852638.0,238.0,32.0,4.0,278.0,2852.638
2852648.0,233.0,32.0,3.0,269.0,2852.648
2852658.0,239.0,32.0,3.0,272.0,2852.658
2852668.0,236.0,31.0,4.0,273.0,2852.668
2852678.0,232.0,32.0,3.0,268.0,2852.678
2852688.0,227.0,32.0,3.0,264.0,2852.688
2852698.0,223.0,32.0,3.0,251.0,2852.698
2852708.0,226.0,32.0,4.0,255.0,2852.708
2852718.0,225.0,32.0,4.0,267.0,2852.718
2852728.0,228.0,31.0,4.0,265.0,2852.728
2852738.0,231.0,32.0,4.0,264.0,2852.738
2852748.0,223.0,32.0,4.0,251.0,2852.748
2852758.0,225.0,32.0,3.0,255.0,2852.758
2852768.0,236.0,32.0,3.0,264.0,2852.768
2852779.0,237.0,32.0,4.0,258.0,2852.779
2852789.0,236.0,33.0,4.0,257.0,2852.789
2852799.0,226.0,32.0,4.0,251.0,2852.799
2852809.0,227.0,33.0,3.0,255.0,2852.809
2852819.0,232.0,33.0,3.0,263.0,2852.819
2852829.0,233.0,32.0,4.0,253.0,2852.829
2852839.0,235.0,32.0,3.0,251.0,2852.839
2852849.0,225.0,32.0,4.0,244.0,2852.849
2852859.0,228.0,31.0,3.0,251.0,2852.859
2852869.0,237.0,32.0,4.0,262.0,2852.869
2852879.0,233.0,32.0,4.0,257.0,2852.879
2852889.0,230.0,33.0,3.0,256.0,2852.889
2852899.0,224.0,32.0,3.0,249.0,2852.899
2852909.0,221.0,32.0,3.0,254.0,2852.909
2852919.0,226.0,31.0,4.0,266.0,2852.919
2852929.0,224.0,32.0,3.0,265.0,2852.929
2852939.0,225.0,32.0,4.0,268.0,2852.939
2852950.0,221.0,33.0,3.0,259.0,2852.95
2852960.0,227.0,32.0,4.0,268.0,2852.96
2852970.0,231.0,33.0,3.0,271.0,2852.97
2852980.0,223.0,33.0,4.0,261.0,2852.98
2852990.0,228.0,32.0,2.0,265.0,2852.99
2853000.0,219.0,32.0,4.0,256.0,2853.0
2853010.0,227.0,33.0,4.0,261.0,2853.01
2853020.0,235.0,33.0,3.0,268.0,2853.02
2853030.0,226.0,32.0,4.0,261.0,2853.03
2853040.0,229.0,33.0,4.0,264.0,2853.04
2853050.0,221.0,33.0,4.0,256.0,2853.05
2853060.0,230.0,32.0,2.0,266.0,2853.06
2853070.0,241.0,33.0,3.0,266.0,2853.07
2853080.0,234.0,33.0,3.0,260.0,2853.08
2853090.0,233.0,32.0,3.0,256.0,2853.09
2853100.0,224.0,32.0,4.0,248.0,2853.1
2853110.0,237.0,32.0,4.0,261.0,2853.11
2853120.0,239.0,32.0,3.0,261.0,2853.12
2853130.0,230.0,32.0,3.0,260.0,2853.13
2853140.0,225.0,33.0,3.0,259.0,2853.14
2853150.0,215.0,32.0,3.0,252.0,2853.15
2853160.0,222.0,32.0,3.0,262.0,2853.16
2853170.0,225.0,32.0,3.0,260.0,2853.17
2853180.0,217.0,31.0,3.0,258.0,2853.18
2853190.0,217.0,33.0,3.0,261.0,2853.19
2853200.0,217.0,33.0,3.0,259.0,2853.2
2853210.0,222.0,32.0,3.0,261.0,2853.21
2853220.0,225.0,32.0,4.0,261.0,2853.22
2853230.0,218.0,32.0,3.0,256.0,2853.23
2853240.0,220.0,32.0,4.0,257.0,2853.24
2853250.0,211.0,32.0,4.0,255.0,2853.25
2853260.0,224.0,32.0,3.0,267.0,2853.26
2853270.0,225.0,33.0,3.0,270.0,2853.27
2853280.0,215.0,32.0,4.0,258.0,2853.28
2853291.0,221.0,32.0,3.0,262.0,2853.291
2853301.0,223.0,33.0,5.0,263.0,2853.301
2853311.0,227.0,32.0,4.0,268.0,2853.311
2853321.0,227.0,32.0,4.0,263.0,2853.321
2853331.0,219.0,33.0,3.0,259.0,2853.331
2853341.0,221.0,32.0,3.0,261.0,2853.341
2853351.0,224.0,32.0,4.0,263.0,2853.351
2853361.0,227.0,32.0,5.0,266.0,2853.361
2853371.0,229.0,33.0,4.0,261.0,2853.371
2853381.0,224.0,33.0,4.0,259.0,2853.381
2853391.0,227.0,32.0,4.0,259.0,2853.391
2853401.0,227.0,33.0,3.0,262.0,2853.401
2853411.0,232.0,32.0,3.0,260.0,2853.411
2853421.0,225.0,32.0,4.0,259.0,2853.421
2853431.0,213.0,32.0,4.0,251.0,2853.431
2853441.0,217.0,33.0,4.0,256.0,2853.441
2853451.0,220.0,33.0,3.0,264.0,2853.451
2853462.0,224.0,33.0,3.0,266.0,2853.462
2853472.0,224.0,33.0,4.0,262.0,2853.472
2853482.0,215.0,33.0,3.0,252.0,2853.482
2853492.0,216.0,33.0,5.0,256.0,2853.492
2853502.0,220.0,33.0,3.0,261.0,2853.502
2853512.0,219.0,32.0,4.0,261.0,2853.512
2853522.0,214.0,33.0,3.0,261.0,2853.522
2853532.0,204.0,32.0,3.0,247.0,2853.532
2853542.0,211.0,32.0,4.0,262.0,2853.542
2853552.0,216.0,33.0,5.0,264.0,2853.552
2853562.0,217.0,32.0,4.0,263.0,2853.562
2853572.0,212.0,33.0,3.0,257.0,2853.572
2853582.0,210.0,32.0,4.0,248.0,2853.582
2853592.0,219.0,34.0,3.0,257.0,2853.592
2853602.0,226.0,33.0,4.0,259.0,2853.602
2853612.0,229.0,32.0,3.0,258.0,2853.612
2853622.0,234.0,33.0,5.0,253.0,2853.622
2853632.0,224.0,33.0,3.0,246.0,2853.632
2853642.0,228.0,33.0,4.0,249.0,2853.642
2853652.0,236.0,34.0,3.0,262.0,2853.652
2853662.0,233.0,32.0,3.0,260.0,2853.662
2853672.0,233.0,33.0,3.0,259.0,2853.672
2853682.0,221.0,33.0,4.0,252.0,2853.682
2853692.0,225.0,33.0,4.0,255.0,2853.692
2853702.0,231.0,33.0,3.0,261.0,2853.702
2853712.0,229.0,33.0,4.0,263.0,2853.712
2853722.0,230.0,34.0,3.0,261.0,2853.722
2853732.0,221.0,32.0,4.0,251.0,2853.732
2853742.0,232.0,33.0,3.0,260.0,2853.742
2853752.0,243.0,33.0,5.0,266.0,2853.752
2853762.0,238.0,32.0,3.0,263.0,2853.762
2853772.0,234.0,33.0,3.0,256.0,2853.772
2853782.0,222.0,33.0,3.0,246.0,2853.782
2853792.0,225.0,32.0,3.0,251.0,2853.792
2853803.0,232.0,32.0,3.0,255.0,2853.803
2853813.0,225.0,33.0,4.0,248.0,2853.813
2853823.0,222.0,32.0,4.0,248.0,2853.823
2853833.0,219.0,33.0,3.0,244.0,2853.833
2853843.0,220.0,32.0,4.0,256.0,2853.843
2853853.0,223.0,33.0,3.0,259.0,2853.853
2853863.0,216.0,32.0,3.0,252.0,2853.863
2853873.0,218.0,32.0,4.0,247.0,2853.873
2853883.0,212.0,31.0,4.0,244.0,2853.883
2853893.0,213.0,32.0,3.0,249.0,2853.893
2853903.0,219.0,32.0,4.0,256.0,2853.903
2853913.0,211.0,33.0,3.0,245.0,2853.913
2853923.0,208.0,32.0,4.0,246.0,2853.923
2853933.0,203.0,33.0,3.0,245.0,2853.933
2853943.0,215.0,32.0,4.0,257.0,2853.943
2853953.0,222.0,32.0,4.0,262.0,2853.953
2853963.0,219.0,32.0,4.0,257.0,2853.963
2853974.0,223.0,33.0,3.0,257.0,2853.974
2853984.0,224.0,32.0,3.0,257.0,2853.984
2853994.0,238.0,32.0,3.0,265.0,2853.994
2854004.0,236.0,32.0,4.0,262.0,2854.004
2854014.0,224.0,32.0,4.0,248.0,2854.014
2854024.0,226.0,32.0,4.0,252.0,2854.024
2854034.0,223.0,32.0,4.0,257.0,2854.034
2854044.0,229.0,32.0,3.0,261.0,2854.044
2854054.0,229.0,32.0,4.0,258.0,2854.054
2854064.0,224.0,32.0,3.0,251.0,2854.064
2854074.0,227.0,32.0,5.0,253.0,2854.074
2854084.0,227.0,32.0,2.0,258.0,2854.084
2854094.0,231.0,32.0,4.0,263.0,2854.094
2854104.0,237.0,32.0,2.0,264.0,2854.104
2854114.0,227.0,32.0,3.0,257.0,2854.114
2854124.0,232.0,33.0,3.0,259.0,2854.124
2854134.0,233.0,32.0,5.0,261.0,2854.134
2854144.0,235.0,32.0,3.0,268.0,2854.144
2854154.0,240.0,32.0,3.0,267.0,2854.154
2854164.0,229.0,32.0,3.0,257.0,2854.164
2854174.0,229.0,32.0,3.0,258.0,2854.174
2854184.0,229.0,32.0,3.0,261.0,2854.184
2854194.0,230.0,33.0,4.0,263.0,2854.194
2854204.0,234.0,32.0,4.0,262.0,2854.204
2854214.0,222.0,32.0,2.0,252.0,2854.214
2854224.0,225.0,32.0,3.0,256.0,2854.224
2854234.0,222.0,33.0,3.0,255.0,2854.234
2854244.0,228.0,32.0,3.0,258.0,2854.244
2854254.0,232.0,32.0,4.0,263.0,2854.254
2854264.0,222.0,32.0,5.0,250.0,2854.264
2854274.0,225.0,32.0,4.0,255.0,2854.274
2854284.0,222.0,33.0,3.0,255.0,2854.284
2854294.0,225.0,33.0,3.0,258.0,2854.294
2854304.0,227.0,33.0,3.0,256.0,2854.304
2854315.0,218.0,32.0,4.0,248.0,2854.315
2854325.0,224.0,32.0,4.0,255.0,2854.325
2854335.0,232.0,33.0,3.0,259.0,2854.335
2854345.0,227.0,31.0,3.0,255.0,2854.345
2854355.0,227.0,33.0,3.0,255.0,2854.355
2854365.0,219.0,33.0,3.0,247.0,2854.365
2854375.0,223.0,32.0,3.0,252.0,2854.375
2854385.0,228.0,33.0,3.0,259.0,2854.385
2854395.0,224.0,32.0,4.0,254.0,2854.395
2854405.0,227.0,32.0,2.0,256.0,2854.405
2854415.0,217.0,32.0,4.0,245.0,2854.415
2854425.0,220.0,33.0,3.0,254.0,2854.425
2854435.0,227.0,32.0,3.0,260.0,2854.435
2854445.0,222.0,33.0,3.0,258.0,2854.445
2854455.0,224.0,32.0,4.0,255.0,2854.455
2854465.0,214.0,32.0,4.0,244.0,2854.465
2854475.0,220.0,33.0,4.0,251.0,2854.475
2854486.0,227.0,33.0,3.0,258.0,2854.486
2854496.0,222.0,32.0,3.0,250.0,2854.496
2854506.0,224.0,32.0,4.0,251.0,2854.506
2854516.0,216.0,32.0,4.0,246.0,2854.516
2854526.0,224.0,31.0,4.0,254.0,2854.526
2854536.0,227.0,33.0,4.0,257.0,2854.536
2854546.0,220.0,32.0,3.0,250.0,2854.546
2854556.0,221.0,34.0,3.0,251.0,2854.556
2854566.0,216.0,32.0,4.0,247.0,2854.566
2854576.0,221.0,33.0,3.0,254.0,2854.576
2854586.0,227.0,33.0,4.0,258.0,2854.586
2854596.0,220.0,32.0,2.0,251.0,2854.596
2854606.0,222.0,32.0,3.0,252.0,2854.606
2854616.0,213.0,32.0,4.0,244.0,2854.616
2854626.0,222.0,32.0,3.0,256.0,2854.626
2854636.0,226.0,33.0,3.0,258.0,2854.636
2854646.0,219.0,32.0,4.0,250.0,2854.646
2854656.0,222.0,32.0,4.0,252.0,2854.656
2854666.0,213.0,32.0,4.0,244.0,2854.666
2854676.0,223.0,32.0,4.0,254.0,2854.676
2854686.0,227.0,33.0,3.0,258.0,2854.686
2854696.0,221.0,32.0,3.0,249.0,2854.696
2854706.0,223.0,33.0,3.0,252.0,2854.706
2854716.0,216.0,32.0,4.0,245.0,2854.716
2854726.0,225.0,32.0,4.0,257.0,2854.726
2854736.0,228.0,32.0,3.0,257.0,2854.736
2854746.0,222.0,32.0,4.0,251.0,2854.746
2854756.0,222.0,32.0,3.0,252.0,2854.756
2854766.0,215.0,32.0,4.0,246.0,2854.766
2854776.0,225.0,33.0,4.0,257.0,2854.776
2854786.0,227.0,33.0,4.0,257.0,2854.786
2854796.0,221.0,33.0,3.0,251.0,2854.796
2854806.0,222.0,33.0,4.0,252.0,2854.806
2854816.0,216.0,32.0,4.0,247.0,2854.816
2854827.0,225.0,32.0,4.0,256.0,2854.827
2854837.0,227.0,33.0,4.0,256.0,2854.837
2854847.0,218.0,32.0,4.0,246.0,2854.847
2854857.0,220.0,32.0,3.0,248.0,2854.857
2854867.0,223.0,33.0,4.0,253.0,2854.867
2854877.0,226.0,33.0,3.0,256.0,2854.877
2854887.0,229.0,32.0,4.0,255.0,2854.887
2854897.0,219.0,32.0,3.0,247.0,2854.897
2854907.0,222.0,33.0,4.0,249.0,2854.907
2854917.0,218.0,33.0,3.0,250.0,2854.917
2854927.0,225.0,32.0,3.0,257.0,2854.927
2854937.0,227.0,33.0,3.0,257.0,2854.937
2854947.0,218.0,32.0,4.0,247.0,2854.947
2854957.0,222.0,33.0,3.0,252.0,2854.957
2854967.0,220.0,32.0,4.0,251.0,2854.967
2854977.0,225.0,32.0,3.0,257.0,2854.977
2854987.0,227.0,33.0,3.0,255.0,2854.987
2854998.0,217.0,32.0,4.0,247.0,2854.998
2855008.0,221.0,32.0,4.0,250.0,2855.008
2855018.0,226.0,32.0,4.0,258.0,2855.018
2855028.0,224.0,33.0,4.0,255.0,2855.028
2855038.0,225.0,33.0,4.0,253.0,2855.038
2855048.0,217.0,32.0,2.0,246.0,2855.048
2855058.0,221.0,32.0,4.0,252.0,2855.058
2855068.0,227.0,33.0,3.0,260.0,2855.068
2855078.0,224.0,32.0,4.0,255.0,2855.078
2855088.0,225.0,32.0,4.0,255.0,2855.088
2855098.0,217.0,32.0,5.0,246.0,2855.098
2855108.0,220.0,32.0,4.0,253.0,2855.108
2855118.0,226.0,33.0,4.0,258.0,2855.118
2855128.0,224.0,33.0,4.0,257.0,2855.128
2855138.0,225.0,32.0,3.0,254.0,2855.138
2855148.0,216.0,32.0,3.0,245.0,2855.148
2855158.0,220.0,33.0,4.0,253.0,2855.158
2855168.0,223.0,32.0,4.0,256.0,2855.168
2855178.0,224.0,33.0,3.0,256.0,2855.178
2855188.0,224.0,32.0,3.0,256.0,2855.188
2855198.0,215.0,33.0,3.0,246.0,2855.198
2855208.0,221.0,32.0,4.0,255.0,2855.208
2855218.0,223.0,33.0,3.0,259.0,2855.218
2855228.0,223.0,32.0,4.0,257.0,2855.228
2855238.0,224.0,33.0,3.0,255.0,2855.238
2855248.0,215.0,32.0,3.0,245.0,2855.248
2855258.0,220.0,32.0,4.0,252.0,2855.258
2855268.0,225.0,32.0,4.0,258.0,2855.268
2855278.0,224.0,32.0,3.0,256.0,2855.278
2855288.0,224.0,32.0,4.0,255.0,2855.288
2855298.0,218.0,32.0,4.0,249.0,2855.298
2855308.0,220.0,33.0,3.0,253.0,2855.308
2855318.0,225.0,33.0,3.0,260.0,2855.318
2855328.0,223.0,32.0,3.0,256.0,2855.328
2855339.0,224.0,32.0,3.0,255.0,2855.339
2855349.0,215.0,32.0,4.0,246.0,2855.349
2855359.0,224.0,31.0,5.0,257.0,2855.359
2855369.0,226.0,32.0,4.0,260.0,2855.369
2855379.0,219.0,32.0,4.0,253.0,2855.379
2855389.0,222.0,33.0,3.0,256.0,2855.389
2855399.0,214.0,32.0,4.0,247.0,2855.399
2855409.0,222.0,32.0,3.0,259.0,2855.409
2855419.0,227.0,33.0,4.0,262.0,2855.419
2855429.0,221.0,32.0,3.0,256.0,2855.429
2855439.0,222.0,32.0,3.0,256.0,2855.439
2855449.0,215.0,32.0,4.0,251.0,2855.449
2855459.0,223.0,32.0,4.0,260.0,2855.459
2855469.0,227.0,32.0,4.0,262.0,2855.469
2855479.0,222.0,32.0,5.0,256.0,2855.479
2855489.0,222.0,32.0,4.0,256.0,2855.489
2855499.0,216.0,32.0,3.0,251.0,2855.499
2855510.0,225.0,32.0,3.0,261.0,2855.51
2855520.0,227.0,32.0,3.0,260.0,2855.52
2855530.0,218.0,32.0,4.0,252.0,2855.53
2855540.0,220.0,32.0,3.0,254.0,2855.54
2855550.0,223.0,32.0,4.0,257.0,2855.55
2855560.0,224.0,32.0,2.0,260.0,2855.56
2855570.0,227.0,32.0,3.0,259.0,2855.57
2855580.0,219.0,33.0,3.0,252.0,2855.58
2855590.0,221.0,32.0,4.0,252.0,2855.59
2855600.0,218.0,32.0,3.0,252.0,2855.6
2855610.0,225.0,32.0,4.0,260.0,2855.61
2855620.0,227.0,31.0,4.0,258.0,2855.62
2855630.0,218.0,32.0,3.0,250.0,2855.63
2855640.0,221.0,32.0,4.0,255.0,2855.64
2855650.0,218.0,33.0,3.0,253.0,2855.65
2855660.0,225.0,32.0,4.0,259.0,2855.66
2855670.0,226.0,32.0,4.0,256.0,2855.67
2855680.0,220.0,32.0,3.0,250.0,2855.68
2855690.0,221.0,32.0,3.0,252.0,2855.69
2855700.0,220.0,32.0,4.0,253.0,2855.7
2855710.0,225.0,33.0,3.0,258.0,2855.71
2855720.0,225.0,32.0,3.0,256.0,2855.72
2855730.0,218.0,32.0,3.0,252.0,2855.73
2855740.0,221.0,32.0,4.0,253.0,2855.74
2855750.0,221.0,31.0,3.0,255.0,2855.75
2855760.0,225.0,32.0,3.0,258.0,2855.76
2855770.0,229.0,33.0,3.0,260.0,2855.77
2855780.0,219.0,32.0,3.0,250.0,2855.78
2855790.0,222.0,32.0,3.0,251.0,2855.79
2855800.0,224.0,32.0,4.0,255.0,2855.8
2855810.0,226.0,31.0,4.0,258.0,2855.81
2855820.0,229.0,32.0,4.0,258.0,2855.82
2855830.0,219.0,32.0,4.0,249.0,2855.83
2855840.0,222.0,33.0,3.0,252.0,2855.84
2855851.0,224.0,32.0,4.0,255.0,2855.851
2855861.0,225.0,32.0,3.0,255.0,2855.861
2855871.0,226.0,32.0,4.0,254.0,2855.871
2855881.0,216.0,32.0,4.0,245.0,2855.881
2855891.0,222.0,32.0,4.0,253.0,2855.891
2855901.0,224.0,33.0,2.0,256.0,2855.901
2855911.0,226.0,32.0,3.0,256.0,2855.911
2855921.0,225.0,32.0,3.0,254.0,2855.921
2855931.0,217.0,32.0,4.0,245.0,2855.931
2855941.0,222.0,31.0,4.0,251.0,2855.941
2855951.0,226.0,32.0,3.0,257.0,2855.951
2855961.0,225.0,33.0,3.0,257.0,2855.961
2855971.0,225.0,32.0,3.0,254.0,2855.971
2855981.0,218.0,32.0,3.0,247.0,2855.981
2855991.0,221.0,32.0,3.0,253.0,2855.991
2856001.0,226.0,32.0,3.0,259.0,2856.001
2856011.0,224.0,32.0,2.0,256.0,2856.011
2856022.0,224.0,33.0,3.0,255.0,2856.022
2856032.0,216.0,33.0,3.0,246.0,2856.032
2856042.0,224.0,32.0,3.0,256.0,2856.042
2856052.0,228.0,32.0,4.0,260.0,2856.052
2856062.0,223.0,32.0,4.0,251.0,2856.062
2856072.0,225.0,33.0,3.0,254.0,2856.072
2856082.0,216.0,32.0,3.0,246.0,2856.082
2856092.0,225.0,33.0,3.0,259.0,2856.092
2856102.0,229.0,32.0,3.0,260.0,2856.102
2856112.0,224.0,32.0,3.0,256.0,2856.112
2856122.0,224.0,32.0,4.0,255.0,2856.122
2856132.0,216.0,31.0,3.0,248.0,2856.132
2856142.0,226.0,32.0,3.0,260.0,2856.142
2856152.0,229.0,31.0,4.0,260.0,2856.152
2856162.0,223.0,33.0,3.0,255.0,2856.162
2856172.0,224.0,32.0,3.0,254.0,2856.172
2856182.0,217.0,32.0,4.0,249.0,2856.182
2856192.0,222.0,32.0,3.0,254.0,2856.192
2856202.0,228.0,32.0,3.0,260.0,2856.202
2856212.0,223.0,31.0,3.0,253.0,2856.212
2856222.0,223.0,32.0,3.0,255.0,2856.222
2856232.0,218.0,32.0,3.0,250.0,2856.232
2856242.0,224.0,32.0,3.0,256.0,2856.242
2856252.0,230.0,32.0,5.0,260.0,2856.252
2856262.0,223.0,32.0,4.0,253.0,2856.262
2856272.0,224.0,32.0,3.0,253.0,2856.272
2856282.0,217.0,31.0,4.0,245.0,2856.282
2856292.0,225.0,32.0,3.0,256.0,2856.292
2856302.0,230.0,32.0,4.0,259.0,2856.302
2856312.0,223.0,31.0,4.0,252.0,2856.312
2856322.0,227.0,32.0,4.0,256.0,2856.322
2856332.0,218.0,32.0,2.0,248.0,2856.332
2856342.0,226.0,32.0,4.0,258.0,2856.342
2856352.0,230.0,32.0,3.0,260.0,2856.352
2856363.0,223.0,32.0,3.0,252.0,2856.363
2856373.0,224.0,32.0,3.0,254.0,2856.373
2856383.0,222.0,32.0,5.0,253.0,2856.383
2856393.0,226.0,31.0,3.0,259.0,2856.393
2856403.0,228.0,33.0,3.0,256.0,2856.403
2856413.0,221.0,31.0,3.0,251.0,2856.413
2856423.0,223.0,32.0,3.0,252.0,2856.423
2856433.0,222.0,32.0,3.0,253.0,2856.433
2856443.0,227.0,32.0,5.0,257.0,2856.443
2856453.0,230.0,32.0,4.0,258.0,2856.453
2856463.0,221.0,31.0,4.0,250.0,2856.463
2856473.0,223.0,32.0,4.0,252.0,2856.473
2856483.0,223.0,33.0,3.0,254.0,2856.483
2856493.0,226.0,32.0,3.0,257.0,2856.493
2856503.0,230.0,32.0,4.0,256.0,2856.503
2856513.0,221.0,31.0,5.0,248.0,2856.513
2856523.0,222.0,32.0,4.0,250.0,2856.523
2856534.0,225.0,32.0,4.0,253.0,2856.534
2856544.0,226.0,32.0,3.0,256.0,2856.544
2856554.0,226.0,32.0,4.0,254.0,2856.554
2856564.0,217.0,32.0,4.0,245.0,2856.564
2856574.0,223.0,32.0,5.0,251.0,2856.574
2856584.0,225.0,31.0,4.0,255.0,2856.584
2856594.0,225.0,32.0,3.0,255.0,2856.594
2856604.0,226.0,33.0,3.0,254.0,2856.604
2856614.0,217.0,32.0,3.0,244.0,2856.614
2856624.0,222.0,32.0,3.0,250.0,2856.624
2856634.0,225.0,32.0,4.0,256.0,2856.634
2856644.0,226.0,31.0,4.0,255.0,2856.644
2856654.0,226.0,33.0,4.0,254.0,2856.654
2856664.0,219.0,32.0,4.0,247.0,2856.664
2856674.0,223.0,33.0,4.0,252.0,2856.674
2856684.0,228.0,32.0,4.0,258.0,2856.684
2856694.0,226.0,32.0,3.0,256.0,2856.694
2856704.0,228.0,32.0,3.0,256.0,2856.704
2856714.0,218.0,32.0,3.0,248.0,2856.714
2856724.0,223.0,32.0,4.0,252.0,2856.724
2856734.0,227.0,34.0,3.0,260.0,2856.734
2856744.0,226.0,32.0,3.0,256.0,2856.744
2856754.0,228.0,32.0,4.0,255.0,2856.754
2856764.0,218.0,32.0,4.0,247.0,2856.764
2856774.0,222.0,32.0,4.0,252.0,2856.774
2856784.0,228.0,33.0,4.0,258.0,2856.784
2856794.0,227.0,32.0,4.0,258.0,2856.794
2856804.0,227.0,34.0,3.0,255.0,2856.804
2856814.0,217.0,32.0,4.0,247.0,2856.814
2856824.0,221.0,33.0,3.0,254.0,2856.824
2856834.0,223.0,32.0,4.0,257.0,2856.834
2856844.0,224.0,33.0,3.0,257.0,2856.844
2856854.0,224.0,33.0,3.0,255.0,2856.854
2856864.0,216.0,32.0,3.0,247.0,2856.864
2856875.0,222.0,33.0,3.0,253.0,2856.875
2856885.0,228.0,33.0,4.0,259.0,2856.885
2856895.0,223.0,33.0,5.0,253.0,2856.895
2856905.0,224.0,33.0,2.0,253.0,2856.905
2856915.0,217.0,33.0,3.0,248.0,2856.915
2856925.0,223.0,33.0,3.0,256.0,2856.925
2856935.0,229.0,34.0,3.0,260.0,2856.935
2856945.0,223.0,32.0,4.0,254.0,2856.945
2856955.0,224.0,33.0,3.0,254.0,2856.955
2856965.0,218.0,33.0,4.0,246.0,2856.965
2856975.0,224.0,33.0,2.0,256.0,2856.975
2856985.0,230.0,33.0,3.0,259.0,2856.985
2856995.0,223.0,33.0,3.0,253.0,2856.995
2857005.0,226.0,32.0,4.0,254.0,2857.005
2857015.0,217.0,33.0,3.0,246.0,2857.015
2857025.0,225.0,32.0,5.0,256.0,2857.025
2857035.0,230.0,33.0,2.0,260.0,2857.035
2857046.0,223.0,32.0,4.0,253.0,2857.046
2857056.0,224.0,32.0,4.0,254.0,2857.056
2857066.0,221.0,32.0,4.0,252.0,2857.066
2857076.0,227.0,32.0,3.0,259.0,2857.076
2857086.0,229.0,33.0,4.0,258.0,2857.086
2857096.0,222.0,32.0,4.0,252.0,2857.096
2857106.0,224.0,32.0,4.0,254.0,2857.106
2857116.0,223.0,33.0,3.0,256.0,2857.116
2857126.0,227.0,33.0,3.0,259.0,2857.126
2857136.0,230.0,32.0,4.0,260.0,2857.136
2857146.0,221.0,32.0,3.0,252.0,2857.146
2857156.0,225.0,32.0,4.0,253.0,2857.156
2857166.0,223.0,33.0,2.0,257.0,2857.166
2857176.0,227.0,31.0,3.0,261.0,2857.176
2857186.0,230.0,33.0,3.0,261.0,2857.186
2857196.0,221.0,32.0,4.0,251.0,2857.196
2857206.0,224.0,32.0,3.0,252.0,2857.206
2857216.0,219.0,32.0,4.0,250.0,2857.216
2857226.0,227.0,31.0,3.0,259.0,2857.226
2857236.0,230.0,33.0,4.0,260.0,2857.236
2857246.0,220.0,32.0,4.0,253.0,2857.246
2857256.0,223.0,32.0,3.0,254.0,2857.256
2857266.0,220.0,32.0,3.0,253.0,2857.266
2857276.0,227.0,32.0,4.0,260.0,2857.276
2857286.0,230.0,32.0,4.0,259.0,2857.286
2857296.0,220.0,32.0,4.0,250.0,2857.296
2857306.0,225.0,33.0,4.0,255.0,2857.306
2857316.0,222.0,33.0,3.0,255.0,2857.316
2857326.0,228.0,32.0,4.0,260.0,2857.326
2857336.0,230.0,33.0,3.0,260.0,2857.336
2857346.0,222.0,32.0,3.0,254.0,2857.346
2857356.0,224.0,31.0,4.0,255.0,2857.356
2857366.0,222.0,32.0,3.0,255.0,2857.366
2857376.0,228.0,32.0,3.0,261.0,2857.376
2857387.0,229.0,32.0,4.0,258.0,2857.387
2857397.0,219.0,32.0,3.0,251.0,2857.397
2857407.0,222.0,32.0,4.0,255.0,2857.407
2857417.0,227.0,33.0,3.0,262.0,2857.417
2857427.0,226.0,32.0,4.0,259.0,2857.427
2857437.0,228.0,32.0,3.0,259.0,2857.437
2857447.0,219.0,32.0,3.0,250.0,2857.447
2857457.0,222.0,32.0,4.0,254.0,2857.457
2857467.0,229.0,32.0,3.0,260.0,2857.467
2857477.0,226.0,32.0,4.0,258.0,2857.477
2857487.0,226.0,33.0,2.0,257.0,2857.487
2857497.0,218.0,31.0,4.0,247.0,2857.497
2857507.0,223.0,33.0,3.0,254.0,2857.507
2857517.0,225.0,32.0,4.0,256.0,2857.517
2857527.0,226.0,32.0,3.0,258.0,2857.527
2857537.0,227.0,32.0,5.0,255.0,2857.537
2857547.0,218.0,31.0,4.0,247.0,2857.547
2857558.0,222.0,32.0,4.0,253.0,2857.558
2857568.0,228.0,32.0,4.0,260.0,2857.568
2857578.0,223.0,32.0,3.0,255.0,2857.578
2857588.0,224.0,32.0,4.0,254.0,2857.588
2857598.0,216.0,32.0,4.0,249.0,2857.598
2857608.0,223.0,31.0,3.0,255.0,2857.608
2857618.0,228.0,32.0,3.0,260.0,2857.618
2857628.0,223.0,32.0,4.0,255.0,2857.628
2857638.0,223.0,32.0,3.0,255.0,2857.638
2857648.0,217.0,32.0,4.0,247.0,2857.648
2857658.0,224.0,32.0,4.0,258.0,2857.658
2857668.0,231.0,32.0,5.0,261.0,2857.668
2857678.0,224.0,32.0,4.0,254.0,2857.678
2857688.0,227.0,33.0,4.0,255.0,2857.688
2857698.0,217.0,33.0,3.0,249.0,2857.698
2857708.0,225.0,32.0,3.0,259.0,2857.708
2857718.0,230.0,32.0,4.0,261.0,2857.718
2857728.0,225.0,32.0,4.0,258.0,2857.728
2857738.0,225.0,33.0,3.0,255.0,2857.738
2857748.0,217.0,32.0,4.0,248.0,2857.748
2857758.0,225.0,32.0,4.0,260.0,2857.758
2857768.0,230.0,33.0,3.0,260.0,2857.768
2857778.0,226.0,32.0,4.0,258.0,2857.778
2857788.0,225.0,33.0,3.0,255.0,2857.788
2857798.0,218.0,32.0,4.0,250.0,2857.798
2857808.0,226.0,33.0,2.0,261.0,2857.808
2857818.0,231.0,32.0,5.0,262.0,2857.818
2857828.0,225.0,33.0,3.0,259.0,2857.828
2857838.0,224.0,32.0,3.0,258.0,2857.838
2857848.0,217.0,32.0,3.0,253.0,2857.848
2857858.0,222.0,32.0,3.0,260.0,2857.858
2857868.0,228.0,33.0,4.0,264.0,2857.868
2857878.0,223.0,32.0,4.0,260.0,2857.878
2857888.0,223.0,33.0,3.0,259.0,2857.888
2857899.0,217.0,32.0,3.0,254.0,2857.899
2857909.0,227.0,32.0,3.0,264.0,2857.909
2857919.0,229.0,33.0,4.0,264.0,2857.919
2857929.0,221.0,32.0,4.0,256.0,2857.929
2857939.0,222.0,33.0,4.0,257.0,2857.939
2857949.0,220.0,33.0,3.0,255.0,2857.949
2857959.0,227.0,34.0,3.0,263.0,2857.959
2857969.0,229.0,32.0,3.0,261.0,2857.969
2857979.0,220.0,33.0,3.0,254.0,2857.979
2857989.0,225.0,33.0,5.0,257.0,2857.989
2857999.0,220.0,33.0,4.0,255.0,2857.999
2858009.0,227.0,32.0,4.0,263.0,2858.009
2858019.0,229.0,34.0,3.0,261.0,2858.019
2858029.0,222.0,33.0,4.0,255.0,2858.029
2858039.0,224.0,32.0,4.0,256.0,2858.039
2858049.0,221.0,33.0,3.0,256.0,2858.049
2858059.0,228.0,33.0,4.0,261.0,2858.059
2858070.0,228.0,33.0,3.0,258.0,2858.07
2858080.0,220.0,32.0,3.0,252.0,2858.08
2858090.0,223.0,33.0,3.0,255.0,2858.09
2858100.0,227.0,32.0,4.0,263.0,2858.1
2858110.0,225.0,33.0,4.0,261.0,2858.11
2858120.0,229.0,33.0,4.0,259.0,2858.12
2858130.0,218.0,33.0,3.0,253.0,2858.13
2858140.0,221.0,33.0,4.0,257.0,2858.14
2858150.0,227.0,33.0,3.0,263.0,2858.15
2858160.0,227.0,32.0,4.0,262.0,2858.16
2858170.0,226.0,33.0,3.0,259.0,2858.17
2858180.0,220.0,33.0,4.0,251.0,2858.18
2858190.0,223.0,32.0,4.0,257.0,2858.19
2858200.0,224.0,33.0,3.0,259.0,2858.2
2858210.0,227.0,33.0,3.0,262.0,2858.21
2858220.0,227.0,33.0,3.0,258.0,2858.22
2858230.0,219.0,32.0,3.0,251.0,2858.23
2858240.0,224.0,32.0,3.0,255.0,2858.24
2858250.0,227.0,33.0,4.0,260.0,2858.25
2858260.0,227.0,33.0,3.0,261.0,2858.26
2858270.0,228.0,33.0,4.0,257.0,2858.27
2858280.0,219.0,33.0,3.0,250.0,2858.28
2858290.0,223.0,32.0,4.0,254.0,2858.29
2858300.0,226.0,33.0,4.0,260.0,2858.3
2858310.0,227.0,33.0,5.0,259.0,2858.31
2858320.0,227.0,32.0,3.0,257.0,2858.32
2858330.0,220.0,33.0,4.0,252.0,2858.33
2858340.0,223.0,33.0,3.0,256.0,2858.34
2858350.0,227.0,33.0,3.0,262.0,2858.35
2858360.0,227.0,32.0,3.0,260.0,2858.36
2858370.0,229.0,33.0,3.0,259.0,2858.37
2858380.0,220.0,33.0,4.0,253.0,2858.38
2858390.0,222.0,33.0,3.0,256.0,2858.39
2858400.0,228.0,33.0,3.0,264.0,2858.4
2858411.0,226.0,33.0,3.0,259.0,2858.411
2858421.0,226.0,32.0,3.0,258.0,2858.421
2858431.0,217.0,33.0,4.0,249.0,2858.431
2858441.0,226.0,33.0,4.0,259.0,2858.441
2858451.0,229.0,33.0,3.0,262.0,2858.451
2858461.0,226.0,32.0,4.0,258.0,2858.461
2858471.0,225.0,33.0,3.0,257.0,2858.471
2858481.0,218.0,32.0,4.0,250.0,2858.481
2858491.0,225.0,33.0,3.0,260.0,2858.491
2858501.0,230.0,32.0,5.0,262.0,2858.501
2858511.0,225.0,33.0,4.0,258.0,2858.511
2858521.0,225.0,32.0,4.0,257.0,2858.521
2858531.0,217.0,33.0,3.0,253.0,2858.531
2858541.0,223.0,32.0,3.0,258.0,2858.541
2858551.0,229.0,32.0,4.0,262.0,2858.551
2858561.0,224.0,33.0,4.0,259.0,2858.561
2858571.0,225.0,31.0,3.0,257.0,2858.571
2858582.0,218.0,32.0,3.0,253.0,2858.582
2858592.0,226.0,32.0,3.0,263.0,2858.592
2858602.0,230.0,33.0,3.0,261.0,2858.602
2858612.0,222.0,31.0,3.0,254.0,2858.612
2858622.0,223.0,32.0,4.0,255.0,2858.622
2858632.0,220.0,31.0,4.0,253.0,2858.632
2858642.0,228.0,32.0,3.0,262.0,2858.642
2858652.0,229.0,32.0,4.0,261.0,2858.652
2858662.0,222.0,32.0,3.0,256.0,2858.662
2858672.0,224.0,32.0,4.0,257.0,2858.672
2858682.0,221.0,32.0,4.0,255.0,2858.682
2858692.0,228.0,32.0,5.0,264.0,2858.692
2858702.0,230.0,31.0,4.0,262.0,2858.702
2858712.0,224.0,32.0,4.0,259.0,2858.712
2858722.0,224.0,32.0,3.0,259.0,2858.722
2858732.0,222.0,32.0,3.0,259.0,2858.732
2858742.0,228.0,32.0,3.0,264.0,2858.742
2858752.0,230.0,32.0,3.0,264.0,2858.752
2858762.0,225.0,31.0,4.0,258.0,2858.762
2858772.0,224.0,32.0,4.0,258.0,2858.772
2858782.0,223.0,32.0,4.0,259.0,2858.782
2858792.0,229.0,32.0,3.0,265.0,2858.792
2858802.0,231.0,32.0,3.0,264.0,2858.802
2858812.0,223.0,32.0,3.0,257.0,2858.812
2858822.0,225.0,32.0,4.0,257.0,2858.822
2858832.0,225.0,31.0,4.0,259.0,2858.832
2858842.0,227.0,32.0,4.0,262.0,2858.842
2858852.0,230.0,33.0,3.0,263.0,2858.852
2858862.0,223.0,32.0,3.0,256.0,2858.862
2858872.0,224.0,32.0,3.0,256.0,2858.872
2858882.0,221.0,32.0,4.0,253.0,2858.882
2858892.0,230.0,31.0,4.0,262.0,2858.892
2858902.0,230.0,33.0,3.0,261.0,2858.902
2858912.0,224.0,32.0,4.0,254.0,2858.912
2858923.0,225.0,33.0,3.0,256.0,2858.923
2858933.0,226.0,32.0,3.0,259.0,2858.933
2858943.0,229.0,31.0,3.0,260.0,2858.943
2858953.0,229.0,32.0,5.0,256.0,2858.953
2858963.0,221.0,31.0,4.0,249.0,2858.963
2858973.0,225.0,32.0,5.0,253.0,2858.973
2858983.0,226.0,33.0,3.0,260.0,2858.983
2858993.0,228.0,32.0,3.0,260.0,2858.993
2859003.0,227.0,32.0,3.0,258.0,2859.003
2859013.0,222.0,32.0,5.0,253.0,2859.013
2859023.0,223.0,31.0,4.0,254.0,2859.023
2859033.0,227.0,32.0,3.0,261.0,2859.033
2859043.0,227.0,32.0,4.0,259.0,2859.043
2859053.0,228.0,33.0,3.0,259.0,2859.053
2859063.0,220.0,32.0,4.0,252.0,2859.063
2859073.0,223.0,32.0,3.0,255.0,2859.073
2859083.0,229.0,33.0,4.0,262.0,2859.083
2859094.0,227.0,32.0,3.0,260.0,2859.094
2859104.0,227.0,33.0,3.0,257.0,2859.104
2859114.0,219.0,33.0,3.0,250.0,2859.114
2859124.0,227.0,32.0,4.0,259.0,2859.124
2859134.0,231.0,33.0,4.0,262.0,2859.134
2859144.0,229.0,32.0,4.0,258.0,2859.144
2859154.0,227.0,33.0,3.0,257.0,2859.154
2859164.0,219.0,32.0,3.0,249.0,2859.164
2859174.0,227.0,33.0,3.0,261.0,2859.174
2859184.0,230.0,32.0,3.0,261.0,2859.184
2859194.0,228.0,32.0,3.0,257.0,2859.194
2859204.0,227.0,32.0,4.0,255.0,2859.204
2859214.0,220.0,31.0,4.0,247.0,2859.214
2859224.0,225.0,33.0,3.0,254.0,2859.224
2859234.0,231.0,32.0,4.0,259.0,2859.234
2859244.0,227.0,33.0,3.0,255.0,2859.244
2859254.0,227.0,32.0,3.0,254.0,2859.254
2859264.0,221.0,33.0,3.0,247.0,2859.264
2859274.0,226.0,32.0,4.0,254.0,2859.274
2859284.0,230.0,32.0,4.0,260.0,2859.284
2859294.0,227.0,32.0,3.0,254.0,2859.294
2859304.0,226.0,33.0,3.0,255.0,2859.304
2859314.0,219.0,32.0,4.0,245.0,2859.314
2859324.0,226.0,32.0,4.0,255.0,2859.324
2859334.0,231.0,33.0,4.0,260.0,2859.334
2859344.0,226.0,32.0,4.0,254.0,2859.344
2859354.0,226.0,33.0,3.0,254.0,2859.354
2859364.0,219.0,32.0,4.0,247.0,2859.364
2859374.0,226.0,33.0,3.0,257.0,2859.374
2859384.0,231.0,32.0,4.0,260.0,2859.384
2859394.0,228.0,33.0,4.0,257.0,2859.394
2859404.0,228.0,32.0,4.0,255.0,2859.404
2859414.0,220.0,33.0,2.0,247.0,2859.414
2859424.0,227.0,32.0,3.0,257.0,2859.424
2859435.0,231.0,34.0,3.0,261.0,2859.435
2859445.0,226.0,32.0,3.0,252.0,2859.445
2859455.0,228.0,33.0,4.0,253.0,2859.455
2859465.0,225.0,33.0,4.0,253.0,2859.465
2859475.0,231.0,32.0,4.0,259.0,2859.475
2859485.0,231.0,33.0,3.0,260.0,2859.485
2859495.0,224.0,33.0,3.0,253.0,2859.495
2859505.0,226.0,33.0,3.0,253.0,2859.505
2859515.0,226.0,32.0,3.0,253.0,2859.515
2859525.0,229.0,32.0,4.0,256.0,2859.525
2859535.0,233.0,33.0,4.0,258.0,2859.535
2859545.0,224.0,32.0,4.0,251.0,2859.545
2859555.0,225.0,33.0,3.0,253.0,2859.555
2859565.0,221.0,33.0,3.0,249.0,2859.565
2859575.0,229.0,32.0,3.0,258.0,2859.575
2859585.0,231.0,33.0,4.0,258.0,2859.585
2859595.0,225.0,32.0,4.0,251.0,2859.595
2859606.0,225.0,33.0,2.0,253.0,2859.606
2859616.0,227.0,32.0,4.0,257.0,2859.616
2859626.0,229.0,33.0,3.0,260.0,2859.626
2859636.0,229.0,32.0,3.0,257.0,2859.636
2859646.0,222.0,33.0,4.0,248.0,2859.646
2859656.0,226.0,32.0,3.0,253.0,2859.656
2859666.0,228.0,32.0,4.0,258.0,2859.666
2859676.0,229.0,33.0,3.0,259.0,2859.676
2859686.0,228.0,33.0,3.0,258.0,2859.686
2859696.0,222.0,32.0,4.0,250.0,2859.696
2859706.0,224.0,32.0,4.0,253.0,2859.706
2859716.0,228.0,33.0,4.0,258.0,2859.716
2859726.0,229.0,33.0,3.0,257.0,2859.726
2859736.0,230.0,33.0,4.0,257.0,2859.736
2859746.0,221.0,32.0,4.0,249.0,2859.746
2859756.0,224.0,33.0,3.0,253.0,2859.756
2859766.0,229.0,32.0,3.0,258.0,2859.766
2859776.0,228.0,34.0,3.0,259.0,2859.776
2859786.0,229.0,33.0,5.0,256.0,2859.786
2859796.0,221.0,32.0,3.0,248.0,2859.796
2859806.0,222.0,34.0,3.0,254.0,2859.806
2859816.0,227.0,33.0,4.0,262.0,2859.816
2859826.0,227.0,33.0,3.0,260.0,2859.826
2859836.0,228.0,33.0,3.0,258.0,2859.836
2859846.0,219.0,33.0,4.0,250.0,2859.846
2859856.0,223.0,33.0,3.0,255.0,2859.856
2859866.0,224.0,33.0,3.0,258.0,2859.866
2859876.0,227.0,33.0,4.0,259.0,2859.876
2859886.0,227.0,33.0,3.0,257.0,2859.886
2859896.0,218.0,32.0,3.0,248.0,2859.896
2859906.0,223.0,33.0,3.0,253.0,2859.906
2859916.0,226.0,33.0,4.0,258.0,2859.916
2859926.0,226.0,32.0,4.0,259.0,2859.926
2859936.0,226.0,32.0,4.0,256.0,2859.936
2859947.0,217.0,33.0,3.0,248.0,2859.947
2859957.0,222.0,32.0,3.0,255.0,2859.957
2859967.0,229.0,33.0,3.0,260.0,2859.967
2859977.0,224.0,33.0,4.0,256.0,2859.977
2859987.0,224.0,32.0,3.0,255.0,2859.987
2859997.0,216.0,32.0,3.0,247.0,2859.997
2860007.0,223.0,33.0,3.0,257.0,2860.007
2860017.0,229.0,32.0,3.0,260.0,2860.017
2860027.0,222.0,32.0,4.0,254.0,2860.027
2860037.0,224.0,33.0,4.0,255.0,2860.037
2860047.0,217.0,32.0,4.0,246.0,2860.047
2860057.0,222.0,33.0,3.0,256.0,2860.057
2860067.0,228.0,33.0,3.0,260.0,2860.067
2860077.0,224.0,32.0,2.0,257.0,2860.077
2860087.0,225.0,32.0,3.0,256.0,2860.087
2860097.0,216.0,32.0,4.0,247.0,2860.097
2860107.0,224.0,32.0,5.0,257.0,2860.107
2860118.0,228.0,33.0,4.0,260.0,2860.118
2860128.0,221.0,32.0,3.0,251.0,2860.128
2860138.0,222.0,33.0,3.0,253.0,2860.138
2860148.0,219.0,32.0,3.0,250.0,2860.148
2860158.0,227.0,32.0,4.0,257.0,2860.158
2860168.0,229.0,33.0,4.0,256.0,2860.168
2860178.0,221.0,31.0,4.0,248.0,2860.178
2860188.0,222.0,33.0,3.0,249.0,2860.188
2860198.0,220.0,32.0,4.0,250.0,2860.198
2860208.0,223.0,33.0,3.0,255.0,2860.208
2860218.0,226.0,32.0,4.0,255.0,2860.218
2860228.0,217.0,33.0,4.0,247.0,2860.228
2860238.0,221.0,32.0,4.0,249.0,2860.238
2860248.0,214.0,33.0,2.0,245.0,2860.248
2860258.0,223.0,32.0,3.0,255.0,2860.258
2860268.0,225.0,33.0,3.0,256.0,2860.268
2860278.0,217.0,32.0,4.0,246.0,2860.278
2860288.0,220.0,34.0,3.0,250.0,2860.288
2860298.0,215.0,33.0,4.0,245.0,2860.298
2860308.0,223.0,32.0,4.0,254.0,2860.308
2860318.0,226.0,34.0,3.0,255.0,2860.318
2860328.0,216.0,33.0,3.0,246.0,2860.328
2860338.0,220.0,33.0,4.0,249.0,2860.338
2860348.0,216.0,32.0,3.0,246.0,2860.348
2860358.0,223.0,32.0,4.0,253.0,2860.358
2860368.0,226.0,32.0,4.0,252.0,2860.368
2860378.0,218.0,32.0,4.0,246.0,2860.378
2860388.0,220.0,32.0,4.0,247.0,2860.388
2860398.0,217.0,33.0,3.0,248.0,2860.398
2860408.0,223.0,32.0,3.0,253.0,2860.408
2860418.0,226.0,34.0,3.0,254.0,2860.418
2860428.0,218.0,33.0,5.0,245.0,2860.428
2860438.0,220.0,33.0,4.0,248.0,2860.438
2860448.0,218.0,33.0,3.0,247.0,2860.448
2860459.0,223.0,33.0,3.0,253.0,2860.459
2860469.0,224.0,33.0,3.0,250.0,2860.469
2860479.0,214.0,32.0,3.0,242.0,2860.479
2860489.0,219.0,33.0,4.0,247.0,2860.489
2860499.0,223.0,32.0,4.0,254.0,2860.499
2860509.0,223.0,33.0,4.0,252.0,2860.509
2860519.0,224.0,33.0,3.0,251.0,2860.519
2860529.0,215.0,33.0,3.0,241.0,2860.529
2860539.0,218.0,32.0,3.0,245.0,2860.539
2860549.0,220.0,32.0,3.0,248.0,2860.549
2860559.0,224.0,32.0,5.0,250.0,2860.559
2860569.0,223.0,33.0,2.0,249.0,2860.569
2860579.0,214.0,33.0,4.0,239.0,2860.579
2860589.0,219.0,34.0,3.0,246.0,2860.589
2860599.0,221.0,32.0,3.0,250.0,2860.599
2860609.0,223.0,32.0,4.0,251.0,2860.609
2860619.0,224.0,33.0,5.0,247.0,2860.619
2860630.0,214.0,32.0,4.0,238.0,2860.63
2860640.0,219.0,33.0,3.0,246.0,2860.64
2860650.0,225.0,33.0,3.0,253.0,2860.65
2860660.0,219.0,32.0,3.0,246.0,2860.66
2860670.0,222.0,32.0,3.0,247.0,2860.67
2860680.0,213.0,32.0,4.0,239.0,2860.68
2860690.0,219.0,31.0,4.0,248.0,2860.69
2860700.0,224.0,33.0,3.0,253.0,2860.7
2860710.0,219.0,32.0,3.0,247.0,2860.71
2860720.0,222.0,33.0,3.0,248.0,2860.72
2860730.0,213.0,32.0,4.0,238.0,2860.73
2860740.0,219.0,32.0,3.0,249.0,2860.74
2860750.0,226.0,32.0,4.0,253.0,2860.75
2860760.0,220.0,32.0,4.0,250.0,2860.76
2860770.0,221.0,32.0,3.0,248.0,2860.77
2860780.0,212.0,33.0,3.0,241.0,2860.78
2860790.0,220.0,32.0,3.0,252.0,2860.79
2860800.0,225.0,32.0,3.0,253.0,2860.8
2860810.0,221.0,32.0,4.0,250.0,2860.81
2860820.0,222.0,31.0,3.0,249.0,2860.82
2860830.0,213.0,32.0,3.0,240.0,2860.83
2860840.0,222.0,32.0,4.0,250.0,2860.84
2860850.0,225.0,32.0,3.0,253.0,2860.85
2860860.0,220.0,32.0,3.0,248.0,2860.86
2860870.0,221.0,32.0,4.0,248.0,2860.87
2860880.0,214.0,32.0,3.0,241.0,2860.88
2860890.0,219.0,31.0,4.0,247.0,2860.89
2860900.0,225.0,32.0,4.0,253.0,2860.9
2860910.0,219.0,33.0,3.0,248.0,2860.91
2860920.0,221.0,32.0,3.0,247.0,2860.92
2860930.0,213.0,33.0,3.0,240.0,2860.93
2860940.0,218.0,32.0,5.0,248.0,2860.94
2860950.0,225.0,33.0,4.0,253.0,2860.95
2860960.0,218.0,32.0,4.0,247.0,2860.96
2860971.0,220.0,33.0,4.0,247.0,2860.971
2860981.0,213.0,32.0,3.0,242.0,2860.981
2860991.0,221.0,32.0,4.0,250.0,2860.991
2861001.0,225.0,32.0,4.0,250.0,2861.001
2861011.0,216.0,31.0,3.0,240.0,2861.011
2861021.0,220.0,33.0,4.0,246.0,2861.021
2861031.0,214.0,32.0,4.0,241.0,2861.031
2861041.0,221.0,33.0,3.0,249.0,2861.041
2861051.0,224.0,32.0,3.0,249.0,2861.051
2861061.0,218.0,33.0,3.0,245.0,2861.061
2861071.0,221.0,33.0,4.0,245.0,2861.071
2861081.0,216.0,32.0,4.0,243.0,2861.081
2861091.0,223.0,32.0,4.0,249.0,2861.091
2861101.0,226.0,33.0,2.0,251.0,2861.101
2861111.0,218.0,32.0,3.0,243.0,2861.111
2861121.0,220.0,32.0,3.0,246.0,2861.121
2861131.0,217.0,32.0,4.0,245.0,2861.131
2861142.0,223.0,31.0,3.0,251.0,2861.142
2861152.0,224.0,32.0,4.0,250.0,2861.152
2861162.0,215.0,32.0,4.0,242.0,2861.162
2861172.0,218.0,32.0,3.0,245.0,2861.172
2861182.0,223.0,32.0,3.0,251.0,2861.182
2861192.0,221.0,32.0,3.0,250.0,2861.192
2861202.0,225.0,33.0,4.0,249.0,2861.202
2861212.0,214.0,32.0,3.0,240.0,2861.212
2861222.0,218.0,32.0,3.0,245.0,2861.222
2861232.0,220.0,32.0,4.0,247.0,2861.232
2861242.0,222.0,32.0,3.0,250.0,2861.242
2861252.0,224.0,32.0,4.0,248.0,2861.252
2861262.0,214.0,32.0,5.0,240.0,2861.262
2861272.0,219.0,31.0,4.0,245.0,2861.272
2861282.0,220.0,32.0,3.0,248.0,2861.282
2861292.0,221.0,32.0,3.0,250.0,2861.292
2861302.0,222.0,32.0,3.0,248.0,2861.302
2861312.0,214.0,32.0,4.0,242.0,2861.312
2861322.0,217.0,32.0,3.0,244.0,2861.322
2861332.0,220.0,31.0,4.0,248.0,2861.332
2861342.0,220.0,31.0,3.0,248.0,2861.342
2861352.0,221.0,32.0,4.0,247.0,2861.352
2861362.0,214.0,32.0,3.0,240.0,2861.362
2861372.0,217.0,31.0,3.0,243.0,2861.372
2861382.0,220.0,31.0,4.0,249.0,2861.382
2861392.0,221.0,31.0,5.0,246.0,2861.392
2861402.0,224.0,31.0,2.0,247.0,2861.402
2861412.0,214.0,31.0,4.0,238.0,2861.412
2861422.0,217.0,32.0,3.0,243.0,2861.422
2861432.0,222.0,31.0,4.0,248.0,2861.432
2861442.0,222.0,31.0,3.0,248.0,2861.442
2861452.0,224.0,32.0,4.0,248.0,2861.452
2861462.0,214.0,31.0,3.0,239.0,2861.462
2861472.0,218.0,31.0,4.0,243.0,2861.472
2861483.0,223.0,31.0,3.0,252.0,2861.483
2861493.0,221.0,31.0,3.0,248.0,2861.493
2861503.0,221.0,30.0,4.0,247.0,2861.503
2861513.0,212.0,31.0,4.0,239.0,2861.513
2861523.0,220.0,31.0,4.0,248.0,2861.523
2861533.0,223.0,31.0,3.0,252.0,2861.533
2861543.0,220.0,31.0,4.0,248.0,2861.543
2861553.0,220.0,32.0,3.0,248.0,2861.553
2861563.0,211.0,30.0,4.0,240.0,2861.563
2861573.0,217.0,32.0,3.0,247.0,2861.573
2861583.0,224.0,32.0,4.0,253.0,2861.583
2861593.0,219.0,31.0,4.0,248.0,2861.593
