time (ms),signal 0,signal 1,signal 2,signal 3,time (sec)
2974058.0,215.0,32.0,3.0,239.0,2974.058
2974068.0,218.0,33.0,3.0,241.0,2974.068
2974078.0,219.0,32.0,3.0,242.0,2974.078
2974088.0,222.0,32.0,4.0,245.0,2974.088
2974098.0,224.0,32.0,4.0,244.0,2974.098
2974108.0,216.0,31.0,4.0,237.0,2974.108
2974118.0,218.0,32.0,4.0,238.0,2974.118
2974128.0,216.0,32.0,4.0,238.0,2974.128
2974138.0,222.0,32.0,3.0,245.0,2974.138
2974148.0,223.0,32.0,4.0,243.0,2974.148
2974158.0,216.0,32.0,4.0,237.0,2974.158
2974168.0,219.0,32.0,4.0,240.0,2974.168
2974178.0,216.0,32.0,4.0,241.0,2974.178
2974188.0,223.0,32.0,4.0,247.0,2974.188
2974198.0,223.0,34.0,3.0,246.0,2974.198
2974208.0,218.0,32.0,4.0,241.0,2974.208
2974218.0,218.0,32.0,3.0,242.0,2974.218
2974228.0,218.0,33.0,4.0,243.0,2974.228
2974238.0,224.0,32.0,4.0,248.0,2974.238
2974248.0,223.0,33.0,3.0,245.0,2974.248
2974258.0,218.0,31.0,4.0,242.0,2974.258
2974268.0,219.0,32.0,3.0,243.0,2974.268
2974278.0,219.0,32.0,3.0,246.0,2974.278
2974288.0,224.0,32.0,4.0,250.0,2974.288
2974298.0,225.0,32.0,4.0,251.0,2974.298
2974308.0,217.0,32.0,4.0,244.0,2974.308
2974318.0,219.0,32.0,4.0,245.0,2974.318
2974328.0,221.0,33.0,3.0,247.0,2974.328
2974338.0,223.0,32.0,3.0,251.0,2974.338
2974348.0,226.0,32.0,4.0,249.0,2974.348
2974358.0,219.0,32.0,4.0,243.0,2974.358
2974368.0,220.0,32.0,2.0,244.0,2974.368
2974379.0,224.0,32.0,4.0,249.0,2974.379
2974389.0,225.0,33.0,3.0,251.0,2974.389
2974399.0,225.0,32.0,4.0,247.0,2974.399
2974409.0,217.0,31.0,3.0,241.0,2974.409
2974419.0,223.0,32.0,5.0,249.0,2974.419
2974429.0,225.0,32.0,3.0,253.0,2974.429
2974439.0,226.0,32.0,4.0,252.0,2974.439
2974449.0,226.0,31.0,4.0,250.0,2974.449
2974459.0,217.0,31.0,3.0,242.0,2974.459
2974469.0,223.0,32.0,4.0,247.0,2974.469
2974479.0,227.0,32.0,4.0,253.0,2974.479
2974489.0,227.0,31.0,5.0,252.0,2974.489
2974499.0,224.0,32.0,4.0,250.0,2974.499
2974509.0,221.0,31.0,4.0,246.0,2974.509
2974519.0,225.0,31.0,3.0,251.0,2974.519
2974529.0,233.0,30.0,4.0,260.0,2974.529
2974539.0,231.0,31.0,4.0,256.0,2974.539
2974550.0,230.0,31.0,5.0,253.0,2974.55
2974560.0,220.0,31.0,4.0,246.0,2974.56
2974570.0,228.0,31.0,3.0,256.0,2974.57
2974580.0,232.0,32.0,3.0,258.0,2974.58
2974590.0,225.0,30.0,3.0,251.0,2974.59
2974600.0,227.0,32.0,3.0,252.0,2974.6
2974610.0,219.0,32.0,4.0,245.0,2974.61
2974620.0,228.0,31.0,4.0,255.0,2974.62
2974630.0,230.0,32.0,4.0,256.0,2974.63
2974640.0,227.0,31.0,3.0,253.0,2974.64
2974650.0,225.0,32.0,3.0,251.0,2974.65
2974660.0,219.0,31.0,3.0,247.0,2974.66
2974670.0,228.0,31.0,3.0,258.0,2974.67
2974680.0,231.0,30.0,4.0,258.0,2974.68
2974690.0,227.0,31.0,4.0,254.0,2974.69
2974700.0,226.0,32.0,4.0,252.0,2974.7
2974710.0,220.0,32.0,4.0,251.0,2974.71
2974720.0,226.0,32.0,3.0,257.0,2974.72
2974730.0,230.0,32.0,4.0,258.0,2974.73
2974740.0,225.0,31.0,5.0,253.0,2974.74
2974750.0,225.0,31.0,3.0,252.0,2974.75
2974760.0,220.0,31.0,3.0,251.0,2974.76
2974770.0,227.0,31.0,3.0,257.0,2974.77
2974780.0,229.0,33.0,3.0,258.0,2974.78
2974790.0,224.0,30.0,4.0,252.0,2974.79
2974800.0,224.0,32.0,4.0,251.0,2974.8
2974810.0,218.0,32.0,4.0,245.0,2974.81
2974820.0,226.0,31.0,4.0,258.0,2974.82
2974830.0,230.0,32.0,4.0,256.0,2974.83
2974840.0,223.0,32.0,3.0,250.0,2974.84
2974850.0,226.0,32.0,4.0,251.0,2974.85
2974860.0,218.0,31.0,3.0,246.0,2974.86
2974870.0,228.0,32.0,4.0,258.0,2974.87
2974880.0,230.0,31.0,4.0,257.0,2974.88
2974891.0,223.0,32.0,4.0,252.0,2974.891
2974901.0,224.0,33.0,3.0,253.0,2974.901
2974911.0,224.0,32.0,3.0,254.0,2974.911
2974921.0,229.0,32.0,4.0,258.0,2974.921
2974931.0,228.0,32.0,4.0,254.0,2974.931
2974941.0,222.0,32.0,4.0,250.0,2974.941
2974951.0,224.0,32.0,4.0,252.0,2974.951
2974961.0,226.0,32.0,4.0,255.0,2974.961
2974971.0,228.0,32.0,3.0,258.0,2974.971
2974981.0,230.0,32.0,4.0,256.0,2974.981
2974991.0,221.0,32.0,3.0,250.0,2974.991
2975001.0,224.0,32.0,4.0,251.0,2975.001
2975011.0,226.0,33.0,4.0,255.0,2975.011
2975021.0,227.0,32.0,4.0,258.0,2975.021
2975031.0,229.0,33.0,3.0,256.0,2975.031
2975041.0,221.0,32.0,3.0,249.0,2975.041
2975051.0,223.0,32.0,3.0,250.0,2975.051
2975062.0,227.0,32.0,4.0,256.0,2975.062
2975072.0,228.0,31.0,3.0,256.0,2975.072
2975082.0,226.0,32.0,4.0,252.0,2975.082
2975092.0,218.0,32.0,4.0,245.0,2975.092
2975102.0,223.0,33.0,3.0,253.0,2975.102
2975112.0,227.0,32.0,4.0,256.0,2975.112
2975122.0,226.0,32.0,3.0,255.0,2975.122
2975132.0,226.0,33.0,5.0,251.0,2975.132
2975142.0,218.0,32.0,4.0,245.0,2975.142
2975152.0,223.0,32.0,3.0,252.0,2975.152
2975162.0,227.0,34.0,3.0,258.0,2975.162
2975172.0,226.0,32.0,4.0,256.0,2975.172
2975182.0,225.0,32.0,3.0,254.0,2975.182
2975192.0,220.0,32.0,4.0,249.0,2975.192
2975202.0,224.0,33.0,2.0,254.0,2975.202
2975212.0,230.0,33.0,3.0,259.0,2975.212
2975222.0,232.0,33.0,4.0,259.0,2975.222
2975232.0,234.0,33.0,3.0,257.0,2975.232
2975242.0,224.0,32.0,4.0,248.0,2975.242
2975252.0,229.0,33.0,4.0,258.0,2975.252
2975262.0,238.0,33.0,4.0,264.0,2975.262
2975272.0,231.0,33.0,2.0,258.0,2975.272
2975282.0,232.0,33.0,5.0,253.0,2975.282
2975292.0,221.0,33.0,3.0,247.0,2975.292
2975302.0,225.0,32.0,4.0,251.0,2975.302
2975312.0,229.0,33.0,3.0,257.0,2975.312
2975322.0,229.0,32.0,5.0,257.0,2975.322
2975332.0,226.0,33.0,3.0,252.0,2975.332
2975342.0,218.0,32.0,3.0,246.0,2975.342
2975352.0,224.0,33.0,3.0,257.0,2975.352
2975362.0,229.0,33.0,3.0,260.0,2975.362
2975372.0,229.0,32.0,4.0,261.0,2975.372
2975382.0,231.0,33.0,4.0,257.0,2975.382
2975392.0,222.0,33.0,4.0,250.0,2975.392
2975403.0,228.0,33.0,3.0,261.0,2975.403
2975413.0,233.0,33.0,3.0,264.0,2975.413
2975423.0,223.0,33.0,3.0,259.0,2975.423
2975433.0,226.0,32.0,4.0,257.0,2975.433
2975443.0,221.0,32.0,3.0,256.0,2975.443
2975453.0,224.0,32.0,4.0,260.0,2975.453
2975463.0,228.0,33.0,4.0,261.0,2975.463
2975473.0,223.0,32.0,3.0,253.0,2975.473
2975483.0,229.0,33.0,3.0,252.0,2975.483
2975493.0,232.0,33.0,3.0,249.0,2975.493
2975503.0,238.0,32.0,3.0,259.0,2975.503
2975513.0,239.0,32.0,4.0,258.0,2975.513
2975523.0,229.0,32.0,4.0,254.0,2975.523
2975533.0,231.0,33.0,4.0,253.0,2975.533
2975543.0,222.0,32.0,4.0,250.0,2975.543
2975553.0,231.0,33.0,3.0,261.0,2975.553
2975563.0,237.0,34.0,4.0,258.0,2975.563
2975574.0,227.0,32.0,4.0,252.0,2975.574
2975584.0,229.0,33.0,4.0,249.0,2975.584
2975594.0,226.0,33.0,2.0,252.0,2975.594
2975604.0,224.0,33.0,4.0,258.0,2975.604
2975614.0,227.0,33.0,3.0,252.0,2975.614
2975624.0,220.0,32.0,4.0,249.0,2975.624
2975634.0,225.0,33.0,4.0,253.0,2975.634
2975644.0,227.0,33.0,4.0,257.0,2975.644
2975654.0,228.0,32.0,4.0,259.0,2975.654
2975664.0,231.0,33.0,5.0,259.0,2975.664
2975674.0,220.0,33.0,3.0,252.0,2975.674
2975684.0,230.0,32.0,3.0,254.0,2975.684
2975694.0,233.0,32.0,4.0,260.0,2975.694
2975704.0,233.0,33.0,4.0,262.0,2975.704
2975714.0,235.0,33.0,4.0,255.0,2975.714
2975724.0,222.0,33.0,3.0,249.0,2975.724
2975734.0,222.0,33.0,4.0,249.0,2975.734
2975744.0,222.0,33.0,3.0,250.0,2975.744
2975754.0,229.0,32.0,3.0,255.0,2975.754
2975764.0,229.0,33.0,4.0,251.0,2975.764
2975774.0,221.0,32.0,4.0,246.0,2975.774
2975784.0,223.0,33.0,2.0,248.0,2975.784
2975794.0,224.0,33.0,5.0,248.0,2975.794
2975804.0,229.0,33.0,4.0,253.0,2975.804
2975814.0,230.0,32.0,3.0,248.0,2975.814
2975824.0,221.0,33.0,3.0,244.0,2975.824
2975834.0,228.0,32.0,4.0,248.0,2975.834
2975844.0,229.0,33.0,4.0,251.0,2975.844
2975854.0,226.0,32.0,3.0,253.0,2975.854
2975864.0,227.0,33.0,4.0,250.0,2975.864
2975874.0,222.0,33.0,3.0,246.0,2975.874
2975884.0,227.0,32.0,4.0,246.0,2975.884
2975894.0,226.0,33.0,3.0,251.0,2975.894
2975904.0,228.0,33.0,4.0,253.0,2975.904
2975915.0,231.0,34.0,2.0,250.0,2975.915
2975925.0,225.0,32.0,4.0,241.0,2975.925
2975935.0,231.0,34.0,3.0,249.0,2975.935
2975945.0,234.0,33.0,3.0,254.0,2975.945
2975955.0,226.0,33.0,4.0,250.0,2975.955
2975965.0,229.0,33.0,5.0,250.0,2975.965
2975975.0,219.0,33.0,4.0,242.0,2975.975
2975985.0,222.0,33.0,3.0,250.0,2975.985
2975995.0,229.0,34.0,3.0,254.0,2975.995
2976005.0,227.0,33.0,3.0,250.0,2976.005
2976015.0,229.0,33.0,4.0,246.0,2976.015
2976025.0,219.0,32.0,4.0,238.0,2976.025
2976035.0,233.0,33.0,4.0,249.0,2976.035
2976045.0,234.0,33.0,4.0,251.0,2976.045
2976055.0,228.0,33.0,4.0,248.0,2976.055
2976065.0,227.0,34.0,3.0,246.0,2976.065
2976075.0,218.0,32.0,4.0,239.0,2976.075
2976086.0,225.0,33.0,4.0,249.0,2976.086
2976096.0,232.0,33.0,4.0,250.0,2976.096
2976106.0,224.0,33.0,4.0,244.0,2976.106
2976116.0,226.0,33.0,4.0,245.0,2976.116
2976126.0,222.0,34.0,3.0,246.0,2976.126
2976136.0,225.0,32.0,4.0,248.0,2976.136
2976146.0,231.0,33.0,3.0,252.0,2976.146
2976156.0,222.0,32.0,5.0,245.0,2976.156
2976166.0,227.0,33.0,4.0,246.0,2976.166
2976176.0,221.0,32.0,4.0,242.0,2976.176
2976186.0,230.0,32.0,4.0,254.0,2976.186
2976196.0,234.0,34.0,3.0,254.0,2976.196
2976206.0,224.0,32.0,4.0,245.0,2976.206
2976216.0,227.0,34.0,3.0,248.0,2976.216
2976226.0,226.0,33.0,4.0,243.0,2976.226
2976236.0,230.0,32.0,4.0,252.0,2976.236
2976246.0,232.0,33.0,4.0,252.0,2976.246
2976256.0,224.0,32.0,4.0,247.0,2976.256
2976266.0,224.0,32.0,4.0,246.0,2976.266
2976276.0,219.0,32.0,4.0,245.0,2976.276
2976286.0,224.0,33.0,4.0,253.0,2976.286
2976296.0,230.0,32.0,4.0,251.0,2976.296
2976306.0,222.0,32.0,4.0,247.0,2976.306
2976316.0,224.0,33.0,4.0,248.0,2976.316
2976326.0,218.0,32.0,3.0,246.0,2976.326
2976336.0,226.0,32.0,3.0,254.0,2976.336
2976346.0,228.0,33.0,4.0,254.0,2976.346
2976356.0,221.0,31.0,4.0,246.0,2976.356
2976366.0,222.0,32.0,4.0,246.0,2976.366
2976376.0,223.0,32.0,4.0,247.0,2976.376
2976386.0,226.0,32.0,3.0,251.0,2976.386
2976396.0,226.0,32.0,3.0,250.0,2976.396
2976406.0,216.0,32.0,4.0,242.0,2976.406
2976416.0,218.0,31.0,5.0,242.0,2976.416
2976427.0,220.0,32.0,4.0,243.0,2976.427
2976437.0,223.0,32.0,3.0,247.0,2976.437
2976447.0,225.0,33.0,3.0,246.0,2976.447
2976457.0,215.0,32.0,3.0,238.0,2976.457
2976467.0,219.0,32.0,3.0,244.0,2976.467
2976477.0,221.0,32.0,3.0,246.0,2976.477
2976487.0,223.0,31.0,4.0,249.0,2976.487
2976497.0,224.0,32.0,4.0,245.0,2976.497
2976507.0,214.0,32.0,3.0,238.0,2976.507
2976517.0,219.0,32.0,3.0,243.0,2976.517
2976527.0,225.0,32.0,4.0,247.0,2976.527
2976537.0,224.0,31.0,4.0,250.0,2976.537
2976547.0,226.0,31.0,5.0,246.0,2976.547
2976557.0,217.0,31.0,3.0,242.0,2976.557
2976567.0,222.0,31.0,4.0,245.0,2976.567
2976577.0,225.0,32.0,3.0,253.0,2976.577
2976587.0,227.0,32.0,4.0,252.0,2976.587
2976598.0,227.0,32.0,3.0,250.0,2976.598
2976608.0,217.0,32.0,5.0,241.0,2976.608
2976618.0,223.0,31.0,2.0,250.0,2976.618
2976628.0,231.0,32.0,3.0,254.0,2976.628
2976638.0,224.0,32.0,3.0,250.0,2976.638
2976648.0,229.0,32.0,3.0,249.0,2976.648
2976658.0,219.0,32.0,4.0,242.0,2976.658
2976668.0,226.0,32.0,4.0,251.0,2976.668
2976678.0,232.0,31.0,4.0,254.0,2976.678
2976688.0,225.0,32.0,4.0,251.0,2976.688
2976698.0,223.0,32.0,3.0,248.0,2976.698
2976708.0,212.0,33.0,3.0,241.0,2976.708
2976718.0,223.0,32.0,4.0,250.0,2976.718
2976728.0,226.0,33.0,3.0,254.0,2976.728
2976738.0,223.0,32.0,4.0,250.0,2976.738
2976748.0,223.0,32.0,2.0,248.0,2976.748
2976758.0,214.0,32.0,3.0,241.0,2976.758
2976768.0,220.0,31.0,3.0,247.0,2976.768
2976778.0,225.0,32.0,3.0,252.0,2976.778
2976788.0,221.0,31.0,4.0,247.0,2976.788
2976798.0,221.0,32.0,4.0,246.0,2976.798
2976808.0,211.0,31.0,3.0,240.0,2976.808
2976818.0,217.0,32.0,4.0,246.0,2976.818
2976828.0,223.0,32.0,4.0,251.0,2976.828
2976838.0,218.0,32.0,3.0,246.0,2976.838
2976848.0,220.0,32.0,4.0,244.0,2976.848
2976858.0,212.0,32.0,4.0,237.0,2976.858
2976868.0,219.0,32.0,5.0,246.0,2976.868
2976878.0,224.0,33.0,4.0,251.0,2976.878
2976888.0,218.0,32.0,4.0,245.0,2976.888
2976898.0,220.0,32.0,3.0,248.0,2976.898
2976908.0,211.0,32.0,4.0,240.0,2976.908
2976918.0,219.0,33.0,4.0,250.0,2976.918
2976928.0,225.0,33.0,4.0,252.0,2976.928
2976939.0,217.0,32.0,4.0,246.0,2976.939
2976949.0,220.0,33.0,4.0,246.0,2976.949
2976959.0,216.0,33.0,4.0,245.0,2976.959
2976969.0,222.0,33.0,3.0,250.0,2976.969
2976979.0,225.0,32.0,4.0,249.0,2976.979
2976989.0,219.0,33.0,3.0,245.0,2976.989
2976999.0,222.0,33.0,4.0,247.0,2976.999
2977009.0,218.0,33.0,2.0,246.0,2977.009
2977019.0,223.0,32.0,4.0,251.0,2977.019
2977029.0,226.0,33.0,4.0,253.0,2977.029
2977039.0,218.0,32.0,4.0,244.0,2977.039
2977049.0,220.0,33.0,3.0,246.0,2977.049
2977059.0,220.0,32.0,5.0,247.0,2977.059
2977069.0,222.0,32.0,4.0,251.0,2977.069
2977079.0,226.0,33.0,3.0,251.0,2977.079
2977089.0,216.0,33.0,3.0,244.0,2977.089
2977099.0,218.0,32.0,4.0,242.0,2977.099
2977110.0,218.0,32.0,4.0,245.0,2977.11
2977120.0,220.0,33.0,4.0,248.0,2977.12
2977130.0,222.0,33.0,4.0,246.0,2977.13
2977140.0,212.0,32.0,4.0,237.0,2977.14
2977150.0,216.0,33.0,3.0,244.0,2977.15
2977160.0,219.0,33.0,4.0,247.0,2977.16
2977170.0,221.0,32.0,3.0,249.0,2977.17
2977180.0,220.0,33.0,3.0,247.0,2977.18
2977190.0,212.0,32.0,5.0,239.0,2977.19
2977200.0,216.0,32.0,4.0,244.0,2977.2
2977210.0,219.0,33.0,3.0,249.0,2977.21
2977220.0,220.0,33.0,3.0,249.0,2977.22
2977230.0,221.0,32.0,4.0,246.0,2977.23
2977240.0,214.0,33.0,3.0,241.0,2977.24
2977250.0,217.0,32.0,4.0,243.0,2977.25
2977260.0,220.0,33.0,4.0,248.0,2977.26
2977270.0,220.0,32.0,4.0,246.0,2977.27
2977280.0,223.0,33.0,3.0,247.0,2977.28
2977290.0,213.0,33.0,3.0,238.0,2977.29
2977300.0,217.0,32.0,3.0,242.0,2977.3
2977310.0,221.0,33.0,3.0,248.0,2977.31
2977320.0,219.0,31.0,4.0,244.0,2977.32
2977330.0,220.0,33.0,3.0,244.0,2977.33
2977340.0,212.0,32.0,4.0,234.0,2977.34
2977350.0,214.0,33.0,3.0,241.0,2977.35
2977360.0,221.0,32.0,3.0,247.0,2977.36
2977370.0,220.0,32.0,4.0,246.0,2977.37
2977380.0,221.0,32.0,4.0,244.0,2977.38
2977390.0,212.0,32.0,2.0,235.0,2977.39
2977400.0,218.0,32.0,3.0,241.0,2977.4
2977410.0,220.0,31.0,4.0,245.0,2977.41
2977420.0,221.0,32.0,3.0,246.0,2977.42
2977430.0,222.0,32.0,3.0,245.0,2977.43
2977440.0,213.0,32.0,4.0,236.0,2977.44
2977451.0,219.0,31.0,4.0,244.0,2977.451
2977461.0,224.0,33.0,4.0,249.0,2977.461
2977471.0,220.0,32.0,4.0,245.0,2977.471
2977481.0,219.0,33.0,3.0,248.0,2977.481
2977491.0,213.0,32.0,4.0,241.0,2977.491
2977501.0,218.0,33.0,3.0,250.0,2977.501
2977511.0,225.0,31.0,4.0,254.0,2977.511
2977521.0,218.0,31.0,2.0,246.0,2977.521
2977531.0,219.0,31.0,4.0,247.0,2977.531
2977541.0,212.0,31.0,4.0,238.0,2977.541
2977551.0,219.0,32.0,3.0,247.0,2977.551
2977561.0,224.0,31.0,5.0,252.0,2977.561
2977571.0,219.0,32.0,5.0,246.0,2977.571
2977581.0,221.0,32.0,3.0,248.0,2977.581
2977591.0,214.0,32.0,3.0,239.0,2977.591
2977601.0,221.0,32.0,4.0,250.0,2977.601
2977611.0,225.0,33.0,3.0,254.0,2977.611
2977622.0,219.0,32.0,3.0,247.0,2977.622
2977632.0,220.0,32.0,4.0,248.0,2977.632
2977642.0,218.0,31.0,4.0,247.0,2977.642
2977652.0,222.0,32.0,3.0,252.0,2977.652
2977662.0,224.0,32.0,4.0,251.0,2977.662
2977672.0,219.0,32.0,4.0,243.0,2977.672
2977682.0,220.0,32.0,4.0,246.0,2977.682
2977692.0,219.0,32.0,4.0,247.0,2977.692
2977702.0,225.0,32.0,5.0,250.0,2977.702
2977712.0,226.0,32.0,3.0,251.0,2977.712
2977722.0,218.0,32.0,4.0,241.0,2977.722
2977732.0,220.0,33.0,3.0,245.0,2977.732
2977742.0,221.0,32.0,3.0,246.0,2977.742
2977752.0,224.0,32.0,3.0,250.0,2977.752
2977762.0,228.0,32.0,4.0,250.0,2977.762
2977772.0,219.0,31.0,4.0,242.0,2977.772
2977782.0,220.0,32.0,4.0,245.0,2977.782
2977792.0,218.0,31.0,4.0,243.0,2977.792
2977802.0,224.0,33.0,3.0,252.0,2977.802
2977812.0,227.0,32.0,3.0,251.0,2977.812
2977822.0,218.0,32.0,4.0,242.0,2977.822
2977832.0,222.0,31.0,4.0,245.0,2977.832
2977842.0,218.0,32.0,4.0,244.0,2977.842
2977852.0,225.0,32.0,4.0,251.0,2977.852
2977862.0,227.0,33.0,3.0,252.0,2977.862
2977872.0,217.0,32.0,3.0,243.0,2977.872
2977882.0,221.0,32.0,3.0,248.0,2977.882
2977892.0,219.0,32.0,4.0,248.0,2977.892
2977902.0,225.0,31.0,3.0,253.0,2977.902
2977912.0,226.0,32.0,4.0,251.0,2977.912
2977922.0,219.0,32.0,4.0,246.0,2977.922
2977932.0,221.0,32.0,3.0,247.0,2977.932
2977942.0,220.0,32.0,4.0,247.0,2977.942
2977952.0,224.0,32.0,3.0,252.0,2977.952
2977963.0,225.0,32.0,4.0,250.0,2977.963
2977973.0,214.0,32.0,2.0,242.0,2977.973
2977983.0,218.0,32.0,4.0,246.0,2977.983
2977993.0,224.0,33.0,3.0,253.0,2977.993
2978003.0,222.0,32.0,4.0,249.0,2978.003
2978013.0,223.0,33.0,3.0,249.0,2978.013
2978023.0,215.0,32.0,5.0,241.0,2978.023
2978033.0,219.0,31.0,4.0,247.0,2978.033
2978043.0,224.0,32.0,3.0,253.0,2978.043
2978053.0,222.0,31.0,4.0,251.0,2978.053
2978063.0,223.0,32.0,3.0,248.0,2978.063
2978073.0,215.0,31.0,5.0,240.0,2978.073
2978083.0,218.0,32.0,4.0,248.0,2978.083
2978093.0,222.0,32.0,4.0,251.0,2978.093
2978103.0,222.0,32.0,4.0,251.0,2978.103
2978113.0,223.0,32.0,4.0,248.0,2978.113
2978123.0,214.0,32.0,3.0,241.0,2978.123
2978134.0,220.0,32.0,4.0,248.0,2978.134
2978144.0,227.0,32.0,4.0,253.0,2978.144
2978154.0,221.0,31.0,4.0,248.0,2978.154
2978164.0,222.0,32.0,3.0,247.0,2978.164
2978174.0,216.0,31.0,4.0,243.0,2978.174
2978184.0,222.0,31.0,3.0,249.0,2978.184
2978194.0,226.0,32.0,3.0,253.0,2978.194
2978204.0,220.0,31.0,3.0,247.0,2978.204
2978214.0,221.0,32.0,4.0,247.0,2978.214
2978224.0,214.0,31.0,4.0,241.0,2978.224
2978234.0,222.0,32.0,4.0,251.0,2978.234
2978244.0,226.0,32.0,3.0,254.0,2978.244
2978254.0,219.0,32.0,3.0,246.0,2978.254
2978264.0,222.0,32.0,3.0,249.0,2978.264
2978274.0,213.0,32.0,3.0,242.0,2978.274
2978284.0,222.0,31.0,4.0,251.0,2978.284
2978294.0,226.0,32.0,4.0,253.0,2978.294
2978304.0,221.0,32.0,4.0,250.0,2978.304
2978314.0,221.0,33.0,3.0,249.0,2978.314
2978324.0,213.0,32.0,3.0,242.0,2978.324
2978334.0,221.0,31.0,3.0,253.0,2978.334
2978344.0,226.0,32.0,4.0,254.0,2978.344
2978354.0,220.0,31.0,4.0,250.0,2978.354
2978364.0,221.0,32.0,3.0,249.0,2978.364
2978374.0,213.0,33.0,3.0,246.0,2978.374
2978384.0,222.0,32.0,3.0,254.0,2978.384
2978394.0,225.0,32.0,4.0,255.0,2978.394
2978404.0,219.0,32.0,4.0,249.0,2978.404
2978414.0,220.0,31.0,4.0,249.0,2978.414
2978424.0,214.0,32.0,4.0,247.0,2978.424
2978434.0,221.0,32.0,4.0,251.0,2978.434
2978444.0,226.0,33.0,3.0,255.0,2978.444
2978454.0,219.0,32.0,4.0,250.0,2978.454
2978464.0,220.0,32.0,3.0,250.0,2978.464
2978475.0,217.0,32.0,4.0,248.0,2978.475
2978485.0,223.0,31.0,3.0,255.0,2978.485
2978495.0,226.0,32.0,3.0,252.0,2978.495
2978505.0,215.0,32.0,3.0,246.0,2978.505
2978515.0,219.0,32.0,3.0,248.0,2978.515
2978525.0,217.0,32.0,4.0,249.0,2978.525
2978535.0,223.0,32.0,5.0,255.0,2978.535
2978545.0,227.0,31.0,4.0,251.0,2978.545
2978555.0,215.0,32.0,4.0,244.0,2978.555
2978565.0,221.0,31.0,4.0,248.0,2978.565
2978575.0,219.0,33.0,3.0,249.0,2978.575
2978585.0,224.0,32.0,5.0,254.0,2978.585
2978595.0,225.0,33.0,4.0,250.0,2978.595
2978605.0,218.0,32.0,4.0,247.0,2978.605
2978615.0,220.0,31.0,4.0,248.0,2978.615
2978625.0,220.0,32.0,4.0,251.0,2978.625
2978635.0,223.0,33.0,3.0,255.0,2978.635
2978646.0,225.0,32.0,4.0,251.0,2978.646
2978656.0,215.0,31.0,4.0,244.0,2978.656
2978666.0,220.0,32.0,5.0,250.0,2978.666
2978676.0,225.0,31.0,2.0,256.0,2978.676
2978686.0,221.0,32.0,3.0,253.0,2978.686
2978696.0,224.0,31.0,4.0,252.0,2978.696
2978706.0,213.0,32.0,3.0,244.0,2978.706
2978716.0,218.0,32.0,4.0,251.0,2978.716
2978726.0,225.0,32.0,4.0,256.0,2978.726
2978736.0,222.0,32.0,3.0,253.0,2978.736
2978746.0,223.0,32.0,4.0,250.0,2978.746
2978756.0,214.0,32.0,4.0,242.0,2978.756
2978766.0,221.0,32.0,3.0,250.0,2978.766
2978776.0,224.0,32.0,4.0,253.0,2978.776
2978786.0,221.0,32.0,3.0,252.0,2978.786
2978796.0,224.0,32.0,5.0,250.0,2978.796
2978806.0,213.0,31.0,4.0,241.0,2978.806
2978816.0,220.0,32.0,5.0,246.0,2978.816
2978826.0,224.0,33.0,3.0,253.0,2978.826
2978836.0,222.0,32.0,4.0,250.0,2978.836
2978846.0,222.0,32.0,4.0,249.0,2978.846
2978856.0,213.0,32.0,4.0,241.0,2978.856
2978866.0,219.0,32.0,4.0,247.0,2978.866
2978876.0,225.0,33.0,4.0,253.0,2978.876
2978886.0,221.0,32.0,4.0,251.0,2978.886
2978896.0,223.0,33.0,3.0,248.0,2978.896
2978906.0,215.0,32.0,4.0,243.0,2978.906
2978916.0,219.0,32.0,4.0,247.0,2978.916
2978926.0,226.0,33.0,3.0,253.0,2978.926
2978936.0,220.0,33.0,4.0,250.0,2978.936
2978946.0,225.0,33.0,5.0,249.0,2978.946
2978956.0,214.0,34.0,3.0,243.0,2978.956
2978966.0,219.0,32.0,3.0,248.0,2978.966
2978976.0,226.0,33.0,3.0,253.0,2978.976
2978987.0,220.0,33.0,4.0,249.0,2978.987
2978997.0,222.0,33.0,4.0,248.0,2978.997
2979007.0,213.0,33.0,4.0,243.0,2979.007
2979017.0,221.0,33.0,4.0,254.0,2979.017
2979027.0,226.0,34.0,3.0,252.0,2979.027
2979037.0,218.0,33.0,4.0,249.0,2979.037
2979047.0,221.0,33.0,4.0,248.0,2979.047
2979057.0,215.0,33.0,4.0,243.0,2979.057
2979067.0,222.0,33.0,4.0,253.0,2979.067
2979077.0,226.0,33.0,4.0,253.0,2979.077
2979087.0,219.0,34.0,3.0,248.0,2979.087
2979097.0,221.0,32.0,4.0,248.0,2979.097
2979107.0,216.0,33.0,4.0,246.0,2979.107
2979117.0,221.0,34.0,4.0,250.0,2979.117
2979127.0,227.0,33.0,4.0,254.0,2979.127
2979137.0,218.0,33.0,3.0,247.0,2979.137
2979147.0,221.0,34.0,3.0,248.0,2979.147
2979158.0,218.0,33.0,4.0,246.0,2979.158
2979168.0,224.0,32.0,3.0,253.0,2979.168
2979178.0,227.0,34.0,5.0,250.0,2979.178
2979188.0,216.0,33.0,4.0,243.0,2979.188
2979198.0,220.0,33.0,4.0,246.0,2979.198
2979208.0,219.0,33.0,3.0,248.0,2979.208
2979218.0,223.0,34.0,3.0,252.0,2979.218
2979228.0,226.0,33.0,3.0,250.0,2979.228
2979238.0,216.0,32.0,4.0,242.0,2979.238
2979248.0,221.0,32.0,4.0,246.0,2979.248
2979258.0,220.0,33.0,2.0,248.0,2979.258
2979268.0,224.0,32.0,4.0,251.0,2979.268
2979278.0,226.0,34.0,3.0,249.0,2979.278
2979288.0,218.0,32.0,4.0,244.0,2979.288
2979298.0,221.0,33.0,4.0,246.0,2979.298
2979308.0,221.0,33.0,4.0,249.0,2979.308
2979318.0,222.0,33.0,3.0,252.0,2979.318
2979328.0,227.0,33.0,4.0,251.0,2979.328
2979338.0,216.0,33.0,3.0,244.0,2979.338
2979348.0,220.0,33.0,4.0,246.0,2979.348
2979358.0,223.0,33.0,3.0,251.0,2979.358
2979368.0,223.0,33.0,4.0,252.0,2979.368
2979378.0,227.0,32.0,4.0,252.0,2979.378
2979388.0,216.0,33.0,3.0,245.0,2979.388
2979398.0,220.0,33.0,4.0,247.0,2979.398
2979408.0,222.0,34.0,3.0,253.0,2979.408
2979418.0,223.0,33.0,4.0,253.0,2979.418
2979428.0,226.0,33.0,3.0,251.0,2979.428
2979438.0,216.0,32.0,5.0,243.0,2979.438
2979448.0,219.0,33.0,4.0,247.0,2979.448
2979458.0,220.0,33.0,4.0,248.0,2979.458
2979468.0,224.0,33.0,3.0,253.0,2979.468
2979478.0,225.0,33.0,3.0,250.0,2979.478
2979488.0,215.0,32.0,4.0,242.0,2979.488
2979499.0,219.0,33.0,4.0,246.0,2979.499
2979509.0,226.0,33.0,4.0,252.0,2979.509
2979519.0,222.0,32.0,4.0,249.0,2979.519
2979529.0,222.0,33.0,4.0,248.0,2979.529
2979539.0,213.0,33.0,3.0,240.0,2979.539
2979549.0,219.0,33.0,4.0,247.0,2979.549
2979559.0,225.0,33.0,3.0,252.0,2979.559
2979569.0,222.0,33.0,5.0,248.0,2979.569
2979579.0,222.0,34.0,2.0,247.0,2979.579
2979589.0,215.0,33.0,5.0,240.0,2979.589
2979599.0,219.0,34.0,3.0,248.0,2979.599
2979609.0,225.0,32.0,4.0,253.0,2979.609
2979619.0,220.0,33.0,3.0,247.0,2979.619
2979629.0,223.0,32.0,4.0,248.0,2979.629
2979639.0,214.0,33.0,3.0,241.0,2979.639
2979649.0,220.0,33.0,3.0,248.0,2979.649
2979659.0,226.0,33.0,3.0,254.0,2979.659
2979670.0,219.0,34.0,3.0,247.0,2979.67
2979680.0,221.0,34.0,3.0,246.0,2979.68
2979690.0,214.0,33.0,4.0,242.0,2979.69
2979700.0,224.0,33.0,4.0,252.0,2979.7
2979710.0,226.0,34.0,3.0,251.0,2979.71
2979720.0,220.0,33.0,3.0,245.0,2979.72
2979730.0,222.0,34.0,3.0,247.0,2979.73
2979740.0,217.0,32.0,4.0,243.0,2979.74
2979750.0,224.0,33.0,3.0,252.0,2979.75
2979760.0,227.0,33.0,4.0,253.0,2979.76
2979770.0,219.0,33.0,3.0,245.0,2979.77
2979780.0,221.0,33.0,4.0,245.0,2979.78
2979790.0,217.0,33.0,3.0,245.0,2979.79
2979800.0,222.0,33.0,3.0,250.0,2979.8
2979810.0,226.0,33.0,4.0,252.0,2979.81
2979820.0,218.0,33.0,4.0,244.0,2979.82
2979830.0,221.0,33.0,4.0,245.0,2979.83
2979840.0,213.0,33.0,4.0,239.0,2979.84
2979850.0,222.0,33.0,3.0,249.0,2979.85
2979860.0,226.0,34.0,3.0,252.0,2979.86
2979870.0,218.0,32.0,4.0,243.0,2979.87
2979880.0,220.0,33.0,3.0,245.0,2979.88
2979890.0,214.0,32.0,3.0,241.0,2979.89
2979900.0,222.0,32.0,2.0,251.0,2979.9
2979910.0,226.0,33.0,3.0,251.0,2979.91
2979920.0,217.0,33.0,3.0,244.0,2979.92
2979930.0,221.0,33.0,4.0,247.0,2979.93
2979940.0,216.0,32.0,4.0,243.0,2979.94
2979950.0,224.0,32.0,4.0,252.0,2979.95
2979960.0,226.0,32.0,4.0,252.0,2979.96
2979970.0,220.0,32.0,4.0,247.0,2979.97
2979980.0,222.0,33.0,4.0,247.0,2979.98
2979990.0,217.0,33.0,3.0,244.0,2979.99
2980000.0,224.0,32.0,3.0,252.0,2980.0
2980011.0,225.0,33.0,4.0,251.0,2980.011
2980021.0,218.0,33.0,4.0,242.0,2980.021
2980031.0,220.0,32.0,4.0,245.0,2980.031
2980041.0,223.0,33.0,3.0,251.0,2980.041
2980051.0,223.0,34.0,3.0,250.0,2980.051
2980061.0,225.0,33.0,3.0,249.0,2980.061
2980071.0,216.0,32.0,4.0,240.0,2980.071
2980081.0,221.0,32.0,5.0,243.0,2980.081
2980091.0,224.0,33.0,4.0,250.0,2980.091
2980101.0,224.0,33.0,4.0,250.0,2980.101
2980111.0,225.0,33.0,3.0,249.0,2980.111
2980121.0,216.0,33.0,3.0,240.0,2980.121
2980131.0,220.0,32.0,4.0,244.0,2980.131
2980141.0,221.0,33.0,3.0,247.0,2980.141
2980151.0,225.0,33.0,3.0,251.0,2980.151
2980161.0,224.0,33.0,4.0,248.0,2980.161
2980171.0,216.0,33.0,3.0,240.0,2980.171
2980182.0,220.0,34.0,3.0,246.0,2980.182
2980192.0,226.0,32.0,4.0,251.0,2980.192
2980202.0,222.0,33.0,3.0,248.0,2980.202
2980212.0,223.0,32.0,4.0,246.0,2980.212
2980222.0,216.0,32.0,4.0,239.0,2980.222
2980232.0,222.0,33.0,4.0,247.0,2980.232
2980242.0,227.0,33.0,3.0,252.0,2980.242
2980252.0,223.0,32.0,3.0,246.0,2980.252
2980262.0,223.0,32.0,4.0,246.0,2980.262
2980272.0,215.0,32.0,3.0,238.0,2980.272
2980282.0,221.0,32.0,4.0,246.0,2980.282
2980292.0,226.0,33.0,4.0,251.0,2980.292
2980302.0,222.0,33.0,3.0,246.0,2980.302
2980312.0,224.0,34.0,3.0,247.0,2980.312
2980322.0,215.0,32.0,4.0,238.0,2980.322
2980332.0,221.0,33.0,3.0,247.0,2980.332
2980342.0,228.0,33.0,4.0,252.0,2980.342
2980352.0,224.0,33.0,3.0,248.0,2980.352
2980362.0,224.0,33.0,3.0,247.0,2980.362
2980372.0,216.0,33.0,3.0,239.0,2980.372
2980382.0,223.0,32.0,4.0,248.0,2980.382
2980392.0,227.0,33.0,4.0,251.0,2980.392
2980402.0,223.0,32.0,4.0,248.0,2980.402
2980412.0,222.0,32.0,3.0,247.0,2980.412
2980422.0,214.0,32.0,4.0,239.0,2980.422
2980432.0,222.0,33.0,3.0,250.0,2980.432
2980442.0,225.0,32.0,4.0,252.0,2980.442
2980452.0,223.0,32.0,3.0,248.0,2980.452
2980462.0,222.0,32.0,3.0,247.0,2980.462
2980472.0,215.0,31.0,4.0,239.0,2980.472
2980482.0,220.0,32.0,4.0,246.0,2980.482
2980492.0,227.0,32.0,4.0,252.0,2980.492
2980502.0,223.0,33.0,3.0,247.0,2980.502
2980512.0,223.0,32.0,4.0,246.0,2980.512
2980523.0,216.0,32.0,3.0,241.0,2980.523
2980533.0,225.0,33.0,4.0,251.0,2980.533
2980543.0,228.0,33.0,2.0,251.0,2980.543
2980553.0,220.0,32.0,3.0,243.0,2980.553
2980563.0,223.0,33.0,3.0,246.0,2980.563
2980573.0,218.0,32.0,4.0,242.0,2980.573
2980583.0,225.0,32.0,4.0,252.0,2980.583
2980593.0,228.0,33.0,4.0,251.0,2980.593
2980603.0,220.0,31.0,4.0,244.0,2980.603
2980613.0,223.0,33.0,4.0,247.0,2980.613
2980623.0,219.0,32.0,4.0,246.0,2980.623
2980633.0,225.0,33.0,3.0,254.0,2980.633
2980643.0,228.0,32.0,3.0,252.0,2980.643
2980653.0,222.0,33.0,3.0,248.0,2980.653
2980663.0,223.0,32.0,4.0,248.0,2980.663
2980673.0,220.0,32.0,2.0,246.0,2980.673
2980683.0,226.0,32.0,3.0,253.0,2980.683
2980694.0,227.0,34.0,3.0,251.0,2980.694
2980704.0,219.0,32.0,4.0,242.0,2980.704
2980714.0,221.0,32.0,4.0,246.0,2980.714
2980724.0,225.0,32.0,5.0,251.0,2980.724
2980734.0,224.0,32.0,4.0,251.0,2980.734
2980744.0,226.0,33.0,4.0,250.0,2980.744
2980754.0,218.0,33.0,3.0,242.0,2980.754
2980764.0,221.0,32.0,3.0,245.0,2980.764
2980774.0,226.0,32.0,3.0,252.0,2980.774
2980784.0,226.0,32.0,3.0,251.0,2980.784
2980794.0,226.0,32.0,4.0,249.0,2980.794
2980804.0,217.0,32.0,4.0,241.0,2980.804
2980814.0,220.0,32.0,4.0,246.0,2980.814
2980824.0,221.0,33.0,3.0,250.0,2980.824
2980834.0,225.0,32.0,4.0,250.0,2980.834
2980844.0,224.0,33.0,3.0,248.0,2980.844
2980854.0,216.0,32.0,5.0,240.0,2980.854
2980864.0,220.0,32.0,4.0,245.0,2980.864
2980874.0,222.0,33.0,4.0,249.0,2980.874
2980884.0,224.0,33.0,3.0,252.0,2980.884
2980894.0,223.0,32.0,4.0,248.0,2980.894
2980904.0,215.0,32.0,3.0,240.0,2980.904
2980914.0,220.0,32.0,3.0,244.0,2980.914
2980924.0,224.0,32.0,4.0,249.0,2980.924
2980934.0,224.0,32.0,4.0,249.0,2980.934
2980944.0,224.0,32.0,4.0,247.0,2980.944
2980954.0,217.0,32.0,4.0,240.0,2980.954
2980964.0,220.0,32.0,4.0,244.0,2980.964
2980974.0,225.0,32.0,3.0,251.0,2980.974
2980984.0,224.0,32.0,4.0,249.0,2980.984
2980994.0,225.0,33.0,3.0,248.0,2980.994
2981004.0,216.0,32.0,4.0,240.0,2981.004
2981014.0,220.0,33.0,3.0,245.0,2981.014
2981024.0,225.0,32.0,4.0,251.0,2981.024
2981035.0,223.0,32.0,3.0,249.0,2981.035
2981045.0,223.0,33.0,5.0,247.0,2981.045
2981055.0,214.0,32.0,4.0,240.0,2981.055
2981065.0,222.0,33.0,4.0,251.0,2981.065
2981075.0,227.0,34.0,3.0,255.0,2981.075
2981085.0,222.0,32.0,4.0,249.0,2981.085
2981095.0,222.0,33.0,3.0,248.0,2981.095
2981105.0,213.0,32.0,4.0,241.0,2981.105
2981115.0,224.0,31.0,4.0,252.0,2981.115
2981125.0,226.0,33.0,3.0,253.0,2981.125
2981135.0,222.0,32.0,4.0,248.0,2981.135
2981145.0,223.0,33.0,3.0,247.0,2981.145
2981155.0,216.0,32.0,4.0,241.0,2981.155
2981165.0,221.0,33.0,3.0,249.0,2981.165
2981175.0,228.0,32.0,4.0,253.0,2981.175
2981185.0,222.0,33.0,3.0,247.0,2981.185
2981195.0,223.0,32.0,4.0,247.0,2981.195
2981206.0,216.0,33.0,3.0,244.0,2981.206
2981216.0,223.0,32.0,3.0,251.0,2981.216
2981226.0,227.0,32.0,3.0,252.0,2981.226
2981236.0,218.0,32.0,4.0,245.0,2981.236
2981246.0,220.0,31.0,4.0,246.0,2981.246
2981256.0,217.0,32.0,3.0,245.0,2981.256
2981266.0,225.0,32.0,4.0,253.0,2981.266
2981276.0,226.0,33.0,3.0,250.0,2981.276
2981286.0,218.0,32.0,4.0,243.0,2981.286
2981296.0,222.0,34.0,4.0,246.0,2981.296
2981306.0,220.0,32.0,5.0,246.0,2981.306
2981316.0,225.0,33.0,4.0,253.0,2981.316
2981326.0,225.0,33.0,4.0,249.0,2981.326
2981336.0,220.0,33.0,3.0,247.0,2981.336
2981346.0,222.0,33.0,3.0,247.0,2981.346
2981356.0,220.0,32.0,3.0,247.0,2981.356
2981366.0,226.0,32.0,5.0,253.0,2981.366
2981376.0,228.0,32.0,3.0,253.0,2981.376
2981386.0,220.0,32.0,3.0,246.0,2981.386
2981396.0,222.0,33.0,3.0,248.0,2981.396
2981406.0,221.0,33.0,3.0,250.0,2981.406
2981416.0,226.0,32.0,4.0,254.0,2981.416
2981426.0,227.0,33.0,3.0,254.0,2981.426
2981436.0,221.0,31.0,4.0,247.0,2981.436
2981446.0,220.0,33.0,3.0,248.0,2981.446
2981456.0,222.0,32.0,4.0,251.0,2981.456
2981466.0,226.0,32.0,4.0,255.0,2981.466
2981476.0,227.0,32.0,3.0,253.0,2981.476
2981486.0,219.0,32.0,3.0,245.0,2981.486
2981496.0,221.0,32.0,5.0,246.0,2981.496
2981506.0,218.0,32.0,4.0,246.0,2981.506
2981516.0,225.0,33.0,3.0,253.0,2981.516
2981526.0,227.0,33.0,3.0,253.0,2981.526
2981536.0,219.0,32.0,3.0,244.0,2981.536
2981547.0,221.0,32.0,3.0,247.0,2981.547
2981557.0,224.0,33.0,5.0,253.0,2981.557
2981567.0,225.0,33.0,4.0,252.0,2981.567
2981577.0,224.0,33.0,3.0,249.0,2981.577
2981587.0,217.0,32.0,4.0,241.0,2981.587
2981597.0,221.0,34.0,3.0,247.0,2981.597
2981607.0,225.0,32.0,4.0,253.0,2981.607
2981617.0,225.0,33.0,3.0,251.0,2981.617
2981627.0,225.0,33.0,4.0,248.0,2981.627
2981637.0,218.0,32.0,4.0,242.0,2981.637
2981647.0,221.0,33.0,4.0,246.0,2981.647
2981657.0,227.0,34.0,3.0,253.0,2981.657
2981667.0,226.0,32.0,3.0,249.0,2981.667
2981677.0,227.0,33.0,3.0,249.0,2981.677
2981687.0,218.0,32.0,3.0,241.0,2981.687
2981697.0,222.0,33.0,3.0,247.0,2981.697
2981707.0,227.0,33.0,4.0,252.0,2981.707
2981718.0,225.0,33.0,4.0,249.0,2981.718
2981728.0,224.0,33.0,3.0,248.0,2981.728
2981738.0,218.0,32.0,4.0,241.0,2981.738
2981748.0,225.0,32.0,4.0,251.0,2981.748
2981758.0,229.0,33.0,4.0,254.0,2981.758
2981768.0,224.0,33.0,4.0,249.0,2981.768
2981778.0,224.0,33.0,3.0,248.0,2981.778
2981788.0,217.0,34.0,3.0,244.0,2981.788
2981798.0,225.0,32.0,4.0,253.0,2981.798
2981808.0,228.0,34.0,3.0,255.0,2981.808
2981818.0,225.0,32.0,5.0,248.0,2981.818
2981828.0,224.0,33.0,2.0,248.0,2981.828
2981838.0,219.0,32.0,4.0,244.0,2981.838
2981848.0,224.0,33.0,4.0,250.0,2981.848
2981858.0,229.0,32.0,3.0,254.0,2981.858
2981868.0,224.0,32.0,3.0,248.0,2981.868
2981878.0,224.0,32.0,5.0,247.0,2981.878
2981888.0,218.0,32.0,4.0,240.0,2981.888
2981898.0,224.0,32.0,4.0,251.0,2981.898
2981908.0,229.0,32.0,4.0,254.0,2981.908
2981918.0,223.0,33.0,3.0,247.0,2981.918
2981928.0,224.0,32.0,4.0,248.0,2981.928
2981938.0,217.0,33.0,3.0,242.0,2981.938
2981948.0,226.0,32.0,5.0,252.0,2981.948
2981958.0,229.0,32.0,4.0,254.0,2981.958
2981968.0,222.0,32.0,3.0,247.0,2981.968
2981978.0,224.0,33.0,4.0,249.0,2981.978
2981988.0,216.0,32.0,4.0,242.0,2981.988
2981998.0,225.0,32.0,4.0,252.0,2981.998
2982008.0,228.0,33.0,4.0,254.0,2982.008
2982018.0,224.0,32.0,3.0,249.0,2982.018
2982028.0,223.0,32.0,4.0,248.0,2982.028
2982038.0,217.0,33.0,3.0,244.0,2982.038
2982048.0,226.0,32.0,3.0,254.0,2982.048
2982059.0,229.0,32.0,3.0,254.0,2982.059
2982069.0,221.0,32.0,4.0,245.0,2982.069
2982079.0,224.0,31.0,5.0,247.0,2982.079
2982089.0,224.0,33.0,3.0,250.0,2982.089
2982099.0,227.0,32.0,3.0,252.0,2982.099
2982109.0,228.0,32.0,4.0,251.0,2982.109
2982119.0,222.0,32.0,4.0,244.0,2982.119
2982129.0,223.0,32.0,4.0,247.0,2982.129
2982139.0,226.0,32.0,5.0,251.0,2982.139
2982149.0,228.0,32.0,4.0,253.0,2982.149
2982159.0,228.0,32.0,4.0,251.0,2982.159
2982169.0,221.0,32.0,3.0,244.0,2982.169
2982179.0,222.0,32.0,3.0,246.0,2982.179
2982189.0,221.0,33.0,4.0,247.0,2982.189
2982199.0,227.0,32.0,2.0,253.0,2982.199
2982209.0,228.0,33.0,4.0,250.0,2982.209
2982219.0,220.0,32.0,3.0,242.0,2982.219
2982230.0,223.0,33.0,3.0,246.0,2982.23
2982240.0,227.0,33.0,3.0,252.0,2982.24
2982250.0,227.0,32.0,4.0,250.0,2982.25
2982260.0,226.0,32.0,3.0,248.0,2982.26
2982270.0,220.0,31.0,4.0,241.0,2982.27
2982280.0,222.0,32.0,4.0,247.0,2982.28
2982290.0,228.0,33.0,3.0,253.0,2982.29
2982300.0,228.0,33.0,3.0,252.0,2982.3
2982310.0,225.0,32.0,4.0,248.0,2982.31
2982320.0,220.0,31.0,3.0,242.0,2982.32
2982330.0,223.0,32.0,5.0,247.0,2982.33
2982340.0,229.0,31.0,4.0,253.0,2982.34
2982350.0,227.0,32.0,3.0,249.0,2982.35
2982360.0,227.0,33.0,4.0,249.0,2982.36
2982370.0,221.0,33.0,3.0,242.0,2982.37
2982380.0,224.0,32.0,4.0,247.0,2982.38
2982390.0,230.0,32.0,4.0,253.0,2982.39
2982400.0,230.0,31.0,4.0,251.0,2982.4
2982410.0,226.0,32.0,3.0,249.0,2982.41
2982420.0,220.0,32.0,4.0,240.0,2982.42
2982430.0,225.0,33.0,3.0,249.0,2982.43
2982440.0,231.0,32.0,4.0,252.0,2982.44
2982450.0,230.0,33.0,3.0,250.0,2982.45
2982460.0,228.0,32.0,4.0,248.0,2982.46
2982470.0,222.0,31.0,4.0,240.0,2982.47
2982480.0,227.0,32.0,4.0,249.0,2982.48
2982490.0,230.0,31.0,3.0,252.0,2982.49
2982500.0,230.0,32.0,3.0,250.0,2982.5
2982510.0,228.0,32.0,4.0,247.0,2982.51
2982520.0,221.0,32.0,4.0,240.0,2982.52
2982530.0,226.0,32.0,3.0,246.0,2982.53
2982540.0,231.0,32.0,2.0,253.0,2982.54
2982550.0,229.0,32.0,3.0,250.0,2982.55
2982560.0,227.0,32.0,3.0,249.0,2982.56
2982571.0,221.0,32.0,4.0,241.0,2982.571
2982581.0,228.0,32.0,3.0,252.0,2982.581
2982591.0,232.0,32.0,4.0,254.0,2982.591
2982601.0,226.0,31.0,2.0,248.0,2982.601
2982611.0,226.0,32.0,3.0,248.0,2982.611
2982621.0,221.0,31.0,4.0,244.0,2982.621
2982631.0,228.0,32.0,4.0,254.0,2982.631
2982641.0,231.0,32.0,3.0,254.0,2982.641
2982651.0,226.0,32.0,4.0,248.0,2982.651
2982661.0,227.0,31.0,3.0,250.0,2982.661
2982671.0,220.0,32.0,4.0,245.0,2982.671
2982681.0,229.0,32.0,3.0,255.0,2982.681
2982691.0,230.0,32.0,3.0,255.0,2982.691
2982701.0,228.0,31.0,4.0,251.0,2982.701
2982711.0,226.0,31.0,4.0,250.0,2982.711
2982721.0,222.0,31.0,5.0,247.0,2982.721
2982731.0,230.0,31.0,4.0,256.0,2982.731
2982742.0,231.0,32.0,4.0,255.0,2982.742
2982752.0,224.0,32.0,4.0,248.0,2982.752
2982762.0,224.0,31.0,4.0,250.0,2982.762
2982772.0,226.0,31.0,3.0,253.0,2982.772
2982782.0,230.0,31.0,5.0,255.0,2982.782
2982792.0,230.0,31.0,3.0,253.0,2982.792
2982802.0,224.0,31.0,4.0,245.0,2982.802
2982812.0,225.0,32.0,3.0,249.0,2982.812
2982822.0,227.0,32.0,3.0,253.0,2982.822
2982832.0,230.0,31.0,3.0,256.0,2982.832
2982842.0,229.0,31.0,4.0,252.0,2982.842
2982852.0,223.0,30.0,4.0,246.0,2982.852
2982862.0,224.0,31.0,3.0,249.0,2982.862
2982872.0,225.0,31.0,4.0,251.0,2982.872
2982882.0,230.0,32.0,3.0,256.0,2982.882
2982892.0,229.0,30.0,4.0,252.0,2982.892
2982902.0,223.0,31.0,4.0,245.0,2982.902
2982912.0,226.0,30.0,4.0,248.0,2982.912
2982922.0,226.0,31.0,3.0,251.0,2982.922
2982932.0,231.0,30.0,4.0,254.0,2982.932
2982942.0,229.0,32.0,3.0,252.0,2982.942
2982952.0,223.0,30.0,3.0,244.0,2982.952
2982962.0,226.0,32.0,4.0,249.0,2982.962
2982972.0,227.0,32.0,4.0,251.0,2982.972
2982982.0,230.0,31.0,4.0,254.0,2982.982
2982992.0,228.0,32.0,3.0,251.0,2982.992
2983002.0,225.0,31.0,3.0,246.0,2983.002
2983012.0,225.0,31.0,3.0,248.0,2983.012
2983022.0,229.0,30.0,4.0,252.0,2983.022
2983032.0,229.0,31.0,4.0,253.0,2983.032
2983042.0,231.0,31.0,5.0,251.0,2983.042
2983052.0,224.0,31.0,4.0,244.0,2983.052
2983062.0,225.0,32.0,3.0,248.0,2983.062
2983072.0,228.0,32.0,3.0,254.0,2983.072
2983083.0,229.0,30.0,4.0,252.0,2983.083
2983093.0,227.0,31.0,3.0,249.0,2983.093
2983103.0,222.0,31.0,5.0,241.0,2983.103
2983113.0,226.0,31.0,4.0,250.0,2983.113
2983123.0,231.0,31.0,4.0,254.0,2983.123
2983133.0,230.0,30.0,4.0,252.0,2983.133
2983143.0,227.0,32.0,4.0,250.0,2983.143
2983153.0,222.0,30.0,4.0,241.0,2983.153
2983163.0,228.0,31.0,4.0,251.0,2983.163
2983173.0,230.0,31.0,4.0,253.0,2983.173
2983183.0,229.0,31.0,2.0,251.0,2983.183
2983193.0,228.0,31.0,4.0,249.0,2983.193
2983203.0,221.0,32.0,3.0,242.0,2983.203
2983213.0,225.0,31.0,4.0,248.0,2983.213
2983223.0,231.0,31.0,3.0,254.0,2983.223
2983233.0,230.0,31.0,5.0,249.0,2983.233
2983243.0,227.0,31.0,3.0,248.0,2983.243
2983254.0,221.0,31.0,3.0,242.0,2983.254
2983264.0,228.0,32.0,3.0,253.0,2983.264
2983274.0,231.0,32.0,4.0,253.0,2983.274
2983284.0,227.0,31.0,4.0,245.0,2983.284
2983294.0,227.0,32.0,4.0,247.0,2983.294
2983304.0,221.0,31.0,4.0,243.0,2983.304
2983314.0,230.0,31.0,4.0,253.0,2983.314
2983324.0,231.0,32.0,3.0,253.0,2983.324
2983334.0,226.0,32.0,4.0,246.0,2983.334
2983344.0,227.0,31.0,4.0,248.0,2983.344
2983354.0,222.0,32.0,4.0,244.0,2983.354
2983364.0,231.0,31.0,4.0,251.0,2983.364
2983374.0,231.0,32.0,4.0,251.0,2983.374
2983384.0,229.0,31.0,4.0,246.0,2983.384
2983394.0,227.0,33.0,3.0,247.0,2983.394
2983404.0,224.0,32.0,3.0,244.0,2983.404
2983414.0,232.0,31.0,4.0,252.0,2983.414
2983424.0,232.0,32.0,3.0,252.0,2983.424
2983434.0,227.0,31.0,4.0,246.0,2983.434
2983444.0,226.0,33.0,3.0,247.0,2983.444
2983454.0,224.0,33.0,3.0,248.0,2983.454
2983464.0,231.0,33.0,3.0,254.0,2983.464
2983474.0,232.0,33.0,4.0,255.0,2983.474
2983484.0,227.0,32.0,4.0,246.0,2983.484
2983494.0,228.0,33.0,4.0,247.0,2983.494
2983504.0,226.0,32.0,4.0,248.0,2983.504
2983514.0,230.0,31.0,4.0,253.0,2983.514
2983524.0,232.0,34.0,3.0,254.0,2983.524
2983534.0,226.0,32.0,4.0,246.0,2983.534
2983544.0,226.0,32.0,3.0,248.0,2983.544
2983554.0,222.0,32.0,4.0,244.0,2983.554
2983564.0,230.0,33.0,2.0,254.0,2983.564
2983574.0,231.0,33.0,3.0,254.0,2983.574
2983584.0,225.0,33.0,3.0,245.0,2983.584
2983595.0,225.0,32.0,3.0,246.0,2983.595
2983605.0,227.0,33.0,4.0,249.0,2983.605
2983615.0,230.0,32.0,4.0,251.0,2983.615
2983625.0,228.0,33.0,3.0,249.0,2983.625
2983635.0,221.0,32.0,3.0,241.0,2983.635
2983645.0,225.0,32.0,4.0,247.0,2983.645
2983655.0,226.0,33.0,3.0,250.0,2983.655
2983665.0,228.0,32.0,4.0,252.0,2983.665
2983675.0,225.0,33.0,4.0,249.0,2983.675
2983685.0,222.0,32.0,4.0,243.0,2983.685
2983695.0,223.0,32.0,4.0,247.0,2983.695
2983705.0,227.0,32.0,4.0,252.0,2983.705
2983715.0,227.0,33.0,3.0,253.0,2983.715
2983725.0,228.0,33.0,4.0,251.0,2983.725
2983735.0,221.0,32.0,3.0,245.0,2983.735
2983745.0,223.0,32.0,4.0,247.0,2983.745
2983755.0,228.0,31.0,4.0,254.0,2983.755
2983766.0,227.0,33.0,3.0,253.0,2983.766
2983776.0,225.0,33.0,4.0,250.0,2983.776
2983786.0,218.0,32.0,4.0,241.0,2983.786
2983796.0,225.0,32.0,4.0,251.0,2983.796
2983806.0,229.0,32.0,4.0,255.0,2983.806
2983816.0,226.0,32.0,4.0,251.0,2983.816
2983826.0,224.0,32.0,4.0,249.0,2983.826
2983836.0,217.0,31.0,4.0,242.0,2983.836
2983846.0,226.0,32.0,3.0,252.0,2983.846
2983856.0,229.0,32.0,3.0,254.0,2983.856
2983866.0,226.0,32.0,3.0,251.0,2983.866
2983876.0,226.0,32.0,5.0,249.0,2983.876
2983886.0,218.0,32.0,4.0,242.0,2983.886
2983896.0,224.0,32.0,5.0,249.0,2983.896
2983906.0,229.0,32.0,3.0,255.0,2983.906
2983916.0,225.0,32.0,3.0,250.0,2983.916
2983926.0,225.0,32.0,4.0,249.0,2983.926
2983936.0,218.0,32.0,3.0,242.0,2983.936
2983946.0,223.0,31.0,4.0,251.0,2983.946
2983956.0,228.0,32.0,4.0,255.0,2983.956
2983966.0,224.0,32.0,3.0,251.0,2983.966
2983976.0,223.0,33.0,3.0,250.0,2983.976
2983986.0,217.0,32.0,3.0,243.0,2983.986
2983996.0,223.0,32.0,3.0,252.0,2983.996
2984006.0,229.0,32.0,5.0,255.0,2984.006
2984016.0,223.0,32.0,4.0,248.0,2984.016
2984026.0,225.0,32.0,5.0,250.0,2984.026
2984036.0,216.0,33.0,3.0,244.0,2984.036
2984046.0,223.0,32.0,4.0,252.0,2984.046
2984056.0,229.0,32.0,4.0,255.0,2984.056
2984066.0,225.0,32.0,3.0,251.0,2984.066
2984076.0,224.0,33.0,3.0,249.0,2984.076
2984086.0,217.0,33.0,3.0,242.0,2984.086
