time (ms),signal 0,signal 1,signal 2,signal 3,time (sec)
2988295.0,222.0,32.0,4.0,245.0,2988.295
2988305.0,221.0,33.0,4.0,242.0,2988.305
2988315.0,213.0,32.0,4.0,234.0,2988.315
2988325.0,218.0,32.0,3.0,242.0,2988.325
2988335.0,219.0,33.0,2.0,245.0,2988.335
2988345.0,221.0,32.0,4.0,244.0,2988.345
2988355.0,220.0,32.0,4.0,242.0,2988.355
2988365.0,214.0,32.0,5.0,233.0,2988.365
2988375.0,216.0,33.0,3.0,238.0,2988.375
2988385.0,221.0,32.0,3.0,245.0,2988.385
2988395.0,221.0,33.0,3.0,245.0,2988.395
2988405.0,219.0,32.0,3.0,241.0,2988.405
2988416.0,213.0,32.0,4.0,234.0,2988.416
2988426.0,220.0,33.0,4.0,244.0,2988.426
2988436.0,225.0,33.0,3.0,248.0,2988.436
2988446.0,219.0,33.0,3.0,241.0,2988.446
2988456.0,219.0,33.0,4.0,242.0,2988.456
2988466.0,213.0,33.0,3.0,236.0,2988.466
2988476.0,221.0,32.0,4.0,246.0,2988.476
2988486.0,225.0,33.0,4.0,248.0,2988.486
2988496.0,221.0,32.0,4.0,242.0,2988.496
2988506.0,221.0,33.0,4.0,244.0,2988.506
2988516.0,214.0,32.0,4.0,237.0,2988.516
2988526.0,223.0,33.0,3.0,248.0,2988.526
2988536.0,226.0,32.0,4.0,249.0,2988.536
2988546.0,222.0,32.0,3.0,246.0,2988.546
2988556.0,222.0,32.0,5.0,244.0,2988.556
2988566.0,214.0,33.0,4.0,239.0,2988.566
2988576.0,223.0,33.0,4.0,249.0,2988.576
2988587.0,226.0,33.0,3.0,251.0,2988.587
2988597.0,220.0,32.0,3.0,243.0,2988.597
2988607.0,221.0,32.0,4.0,245.0,2988.607
2988617.0,221.0,33.0,3.0,247.0,2988.617
2988627.0,225.0,33.0,4.0,251.0,2988.627
2988637.0,226.0,33.0,3.0,251.0,2988.637
2988647.0,220.0,32.0,4.0,244.0,2988.647
2988657.0,222.0,32.0,4.0,245.0,2988.657
2988667.0,224.0,33.0,4.0,248.0,2988.667
2988677.0,226.0,33.0,3.0,252.0,2988.677
2988687.0,228.0,33.0,5.0,251.0,2988.687
2988697.0,220.0,33.0,2.0,244.0,2988.697
2988707.0,221.0,32.0,4.0,245.0,2988.707
2988717.0,219.0,33.0,4.0,246.0,2988.717
2988727.0,226.0,32.0,4.0,252.0,2988.727
2988737.0,227.0,32.0,4.0,250.0,2988.737
2988747.0,220.0,32.0,4.0,243.0,2988.747
2988758.0,222.0,31.0,4.0,245.0,2988.758
2988768.0,225.0,33.0,3.0,251.0,2988.768
2988778.0,226.0,32.0,3.0,251.0,2988.778
2988788.0,224.0,33.0,3.0,249.0,2988.788
2988798.0,217.0,32.0,4.0,239.0,2988.798
2988808.0,221.0,32.0,4.0,246.0,2988.808
2988818.0,227.0,33.0,4.0,252.0,2988.818
2988828.0,226.0,32.0,4.0,250.0,2988.828
2988838.0,225.0,32.0,4.0,247.0,2988.838
2988848.0,220.0,32.0,3.0,242.0,2988.848
2988858.0,222.0,32.0,4.0,246.0,2988.858
2988868.0,228.0,32.0,3.0,253.0,2988.868
2988878.0,227.0,32.0,5.0,250.0,2988.878
2988888.0,227.0,32.0,4.0,249.0,2988.888
2988898.0,219.0,32.0,4.0,242.0,2988.898
2988908.0,223.0,32.0,3.0,248.0,2988.908
2988918.0,229.0,32.0,3.0,254.0,2988.918
2988928.0,228.0,32.0,3.0,253.0,2988.928
2988938.0,226.0,32.0,4.0,248.0,2988.938
2988948.0,219.0,31.0,4.0,242.0,2988.948
2988958.0,223.0,32.0,3.0,248.0,2988.958
2988968.0,229.0,32.0,4.0,253.0,2988.968
2988978.0,226.0,31.0,3.0,251.0,2988.978
2988988.0,225.0,32.0,3.0,249.0,2988.988
2988998.0,217.0,32.0,4.0,240.0,2988.998
2989008.0,224.0,31.0,4.0,250.0,2989.008
2989018.0,226.0,31.0,3.0,252.0,2989.018
2989028.0,226.0,31.0,4.0,250.0,2989.028
2989038.0,225.0,32.0,4.0,249.0,2989.038
2989048.0,217.0,32.0,3.0,241.0,2989.048
2989058.0,222.0,33.0,3.0,248.0,2989.058
2989068.0,228.0,32.0,4.0,253.0,2989.068
2989078.0,226.0,31.0,4.0,251.0,2989.078
2989088.0,224.0,32.0,2.0,250.0,2989.088
2989099.0,217.0,32.0,4.0,242.0,2989.099
2989109.0,225.0,33.0,3.0,252.0,2989.109
2989119.0,229.0,32.0,4.0,254.0,2989.119
2989129.0,223.0,31.0,4.0,248.0,2989.129
2989139.0,225.0,31.0,5.0,249.0,2989.139
2989149.0,217.0,32.0,3.0,243.0,2989.149
2989159.0,225.0,31.0,4.0,253.0,2989.159
2989169.0,228.0,32.0,3.0,255.0,2989.169
2989179.0,222.0,31.0,3.0,247.0,2989.179
2989189.0,224.0,32.0,3.0,249.0,2989.189
2989199.0,218.0,32.0,5.0,243.0,2989.199
2989209.0,226.0,32.0,4.0,253.0,2989.209
2989219.0,228.0,32.0,3.0,253.0,2989.219
2989229.0,224.0,31.0,4.0,249.0,2989.229
2989239.0,224.0,32.0,3.0,249.0,2989.239
2989249.0,218.0,31.0,4.0,244.0,2989.249
2989259.0,225.0,32.0,4.0,253.0,2989.259
2989270.0,228.0,31.0,4.0,253.0,2989.27
2989280.0,220.0,31.0,2.0,246.0,2989.28
2989290.0,223.0,31.0,4.0,248.0,2989.29
2989300.0,225.0,32.0,3.0,252.0,2989.3
2989310.0,226.0,32.0,3.0,252.0,2989.31
2989320.0,228.0,32.0,3.0,253.0,2989.32
2989330.0,221.0,31.0,3.0,244.0,2989.33
2989340.0,222.0,31.0,3.0,246.0,2989.34
2989350.0,225.0,31.0,4.0,251.0,2989.35
2989360.0,226.0,32.0,3.0,253.0,2989.36
2989370.0,227.0,32.0,3.0,250.0,2989.37
2989380.0,219.0,31.0,3.0,244.0,2989.38
2989390.0,221.0,31.0,4.0,246.0,2989.39
2989400.0,220.0,31.0,4.0,248.0,2989.4
2989410.0,225.0,32.0,3.0,255.0,2989.41
2989420.0,226.0,32.0,4.0,252.0,2989.42
2989430.0,218.0,32.0,3.0,244.0,2989.43
2989440.0,222.0,31.0,4.0,248.0,2989.44
2989450.0,221.0,32.0,4.0,249.0,2989.45
2989460.0,227.0,32.0,5.0,253.0,2989.46
2989470.0,226.0,32.0,2.0,251.0,2989.47
2989480.0,218.0,31.0,4.0,243.0,2989.48
2989490.0,222.0,32.0,2.0,247.0,2989.49
2989500.0,222.0,32.0,3.0,249.0,2989.5
2989510.0,226.0,32.0,4.0,253.0,2989.51
2989520.0,225.0,32.0,4.0,250.0,2989.52
2989530.0,221.0,31.0,3.0,244.0,2989.53
2989540.0,222.0,32.0,4.0,247.0,2989.54
2989550.0,224.0,32.0,4.0,252.0,2989.55
2989560.0,226.0,33.0,3.0,252.0,2989.56
2989570.0,226.0,33.0,3.0,251.0,2989.57
2989580.0,218.0,32.0,4.0,244.0,2989.58
2989590.0,221.0,31.0,4.0,248.0,2989.59
2989600.0,224.0,32.0,4.0,253.0,2989.6
2989611.0,224.0,32.0,4.0,253.0,2989.611
2989621.0,225.0,33.0,4.0,254.0,2989.621
2989631.0,216.0,32.0,4.0,244.0,2989.631
2989641.0,222.0,33.0,3.0,253.0,2989.641
2989651.0,227.0,32.0,5.0,258.0,2989.651
2989661.0,222.0,32.0,4.0,256.0,2989.661
2989671.0,223.0,32.0,4.0,256.0,2989.671
2989681.0,215.0,33.0,3.0,249.0,2989.681
2989691.0,224.0,32.0,4.0,261.0,2989.691
2989701.0,229.0,32.0,3.0,262.0,2989.701
2989711.0,230.0,32.0,4.0,263.0,2989.711
2989721.0,230.0,31.0,4.0,261.0,2989.721
2989731.0,221.0,32.0,3.0,253.0,2989.731
2989741.0,226.0,32.0,3.0,259.0,2989.741
2989751.0,231.0,33.0,3.0,265.0,2989.751
2989761.0,230.0,32.0,3.0,260.0,2989.761
2989771.0,227.0,33.0,3.0,256.0,2989.771
2989782.0,221.0,32.0,5.0,247.0,2989.782
2989792.0,222.0,32.0,4.0,258.0,2989.792
2989802.0,226.0,32.0,3.0,260.0,2989.802
2989812.0,217.0,33.0,3.0,253.0,2989.812
2989822.0,216.0,32.0,3.0,251.0,2989.822
2989832.0,209.0,32.0,4.0,247.0,2989.832
2989842.0,218.0,32.0,2.0,252.0,2989.842
2989852.0,225.0,31.0,4.0,253.0,2989.852
2989862.0,218.0,31.0,4.0,246.0,2989.862
2989872.0,223.0,31.0,4.0,248.0,2989.872
2989882.0,216.0,32.0,3.0,246.0,2989.882
2989892.0,223.0,32.0,4.0,255.0,2989.892
2989902.0,229.0,32.0,4.0,252.0,2989.902
2989912.0,232.0,31.0,4.0,251.0,2989.912
2989922.0,230.0,32.0,2.0,250.0,2989.922
2989932.0,227.0,32.0,4.0,247.0,2989.932
2989942.0,228.0,33.0,3.0,257.0,2989.942
2989952.0,232.0,32.0,3.0,259.0,2989.952
2989962.0,223.0,32.0,4.0,256.0,2989.962
2989972.0,225.0,33.0,5.0,254.0,2989.972
2989982.0,222.0,32.0,4.0,254.0,2989.982
2989992.0,228.0,32.0,3.0,260.0,2989.992
2990002.0,228.0,32.0,4.0,260.0,2990.002
2990012.0,221.0,32.0,3.0,256.0,2990.012
2990022.0,228.0,32.0,3.0,254.0,2990.022
2990032.0,226.0,33.0,4.0,256.0,2990.032
2990042.0,229.0,33.0,4.0,260.0,2990.042
2990052.0,231.0,32.0,4.0,258.0,2990.052
2990062.0,225.0,33.0,3.0,252.0,2990.062
2990072.0,225.0,34.0,3.0,250.0,2990.072
2990082.0,220.0,33.0,3.0,246.0,2990.082
2990092.0,233.0,32.0,3.0,256.0,2990.092
2990102.0,234.0,33.0,5.0,254.0,2990.102
2990112.0,224.0,33.0,4.0,248.0,2990.112
2990123.0,228.0,33.0,3.0,247.0,2990.123
2990133.0,229.0,33.0,3.0,251.0,2990.133
2990143.0,233.0,32.0,3.0,254.0,2990.143
2990153.0,234.0,33.0,3.0,250.0,2990.153
2990163.0,225.0,33.0,4.0,245.0,2990.163
2990173.0,234.0,33.0,3.0,251.0,2990.173
2990183.0,238.0,33.0,3.0,257.0,2990.183
2990193.0,240.0,33.0,4.0,261.0,2990.193
2990203.0,239.0,34.0,4.0,254.0,2990.203
2990213.0,231.0,32.0,4.0,252.0,2990.213
2990223.0,229.0,33.0,3.0,251.0,2990.223
2990233.0,232.0,33.0,4.0,256.0,2990.233
2990243.0,231.0,33.0,4.0,257.0,2990.243
2990253.0,231.0,33.0,5.0,251.0,2990.253
2990263.0,223.0,34.0,3.0,247.0,2990.263
2990273.0,222.0,32.0,4.0,248.0,2990.273
2990283.0,227.0,33.0,3.0,254.0,2990.283
2990294.0,230.0,33.0,4.0,255.0,2990.294
2990304.0,226.0,33.0,2.0,250.0,2990.304
2990314.0,220.0,32.0,4.0,245.0,2990.314
2990324.0,227.0,33.0,3.0,255.0,2990.324
2990334.0,228.0,33.0,3.0,256.0,2990.334
2990344.0,227.0,32.0,4.0,254.0,2990.344
2990354.0,226.0,33.0,2.0,251.0,2990.354
2990364.0,220.0,33.0,4.0,243.0,2990.364
2990374.0,226.0,33.0,3.0,252.0,2990.374
2990384.0,229.0,33.0,4.0,253.0,2990.384
2990394.0,230.0,33.0,3.0,252.0,2990.394
2990404.0,227.0,32.0,3.0,247.0,2990.404
2990414.0,221.0,33.0,4.0,241.0,2990.414
2990424.0,227.0,32.0,3.0,246.0,2990.424
2990434.0,234.0,33.0,4.0,252.0,2990.434
2990444.0,231.0,32.0,4.0,250.0,2990.444
2990454.0,230.0,34.0,3.0,250.0,2990.454
2990464.0,224.0,33.0,3.0,242.0,2990.464
2990474.0,226.0,32.0,4.0,247.0,2990.474
2990484.0,237.0,32.0,4.0,253.0,2990.484
2990494.0,237.0,31.0,4.0,249.0,2990.494
2990504.0,232.0,33.0,3.0,247.0,2990.504
2990514.0,225.0,32.0,4.0,241.0,2990.514
2990524.0,231.0,33.0,3.0,250.0,2990.524
2990534.0,232.0,32.0,4.0,252.0,2990.534
2990544.0,229.0,32.0,4.0,247.0,2990.544
2990554.0,229.0,32.0,4.0,248.0,2990.554
2990564.0,220.0,32.0,2.0,240.0,2990.564
2990574.0,228.0,32.0,4.0,247.0,2990.574
2990584.0,233.0,33.0,3.0,251.0,2990.584
2990594.0,234.0,32.0,4.0,249.0,2990.594
2990604.0,231.0,32.0,3.0,248.0,2990.604
2990614.0,223.0,32.0,5.0,240.0,2990.614
2990624.0,229.0,33.0,3.0,251.0,2990.624
2990635.0,232.0,32.0,4.0,253.0,2990.635
2990645.0,222.0,33.0,4.0,247.0,2990.645
2990655.0,226.0,32.0,3.0,247.0,2990.655
2990665.0,223.0,33.0,3.0,248.0,2990.665
2990675.0,228.0,32.0,4.0,254.0,2990.675
2990685.0,227.0,32.0,4.0,254.0,2990.685
2990695.0,222.0,32.0,3.0,246.0,2990.695
2990705.0,228.0,33.0,3.0,246.0,2990.705
2990715.0,232.0,34.0,3.0,248.0,2990.715
2990725.0,234.0,32.0,4.0,248.0,2990.725
2990735.0,236.0,33.0,3.0,249.0,2990.735
2990745.0,227.0,32.0,5.0,241.0,2990.745
2990755.0,228.0,33.0,4.0,244.0,2990.755
2990765.0,226.0,32.0,5.0,241.0,2990.765
2990775.0,233.0,33.0,3.0,252.0,2990.775
2990785.0,235.0,32.0,3.0,250.0,2990.785
2990795.0,227.0,32.0,3.0,243.0,2990.795
2990806.0,225.0,32.0,5.0,245.0,2990.806
2990816.0,229.0,32.0,3.0,248.0,2990.816
2990826.0,230.0,33.0,3.0,251.0,2990.826
2990836.0,234.0,32.0,4.0,249.0,2990.836
2990846.0,226.0,33.0,3.0,242.0,2990.846
2990856.0,228.0,33.0,3.0,247.0,2990.856
2990866.0,232.0,32.0,4.0,251.0,2990.866
2990876.0,238.0,32.0,4.0,250.0,2990.876
2990886.0,234.0,33.0,2.0,247.0,2990.886
2990896.0,230.0,32.0,5.0,242.0,2990.896
2990906.0,231.0,33.0,3.0,246.0,2990.906
2990916.0,233.0,32.0,4.0,250.0,2990.916
2990926.0,231.0,32.0,3.0,249.0,2990.926
2990936.0,234.0,32.0,4.0,247.0,2990.936
2990946.0,228.0,31.0,4.0,240.0,2990.946
2990956.0,232.0,32.0,3.0,245.0,2990.956
2990966.0,237.0,33.0,3.0,253.0,2990.966
2990976.0,235.0,32.0,3.0,251.0,2990.976
2990986.0,237.0,32.0,4.0,250.0,2990.986
2990996.0,227.0,32.0,4.0,242.0,2990.996
2991006.0,229.0,31.0,4.0,247.0,2991.006
2991016.0,234.0,32.0,4.0,252.0,2991.016
2991026.0,232.0,32.0,4.0,252.0,2991.026
2991036.0,231.0,32.0,4.0,248.0,2991.036
2991046.0,222.0,31.0,3.0,241.0,2991.046
2991056.0,223.0,32.0,4.0,246.0,2991.056
2991066.0,227.0,32.0,4.0,250.0,2991.066
2991076.0,228.0,31.0,4.0,252.0,2991.076
2991086.0,227.0,32.0,4.0,249.0,2991.086
2991096.0,218.0,32.0,3.0,242.0,2991.096
2991106.0,221.0,32.0,3.0,246.0,2991.106
2991116.0,224.0,32.0,3.0,252.0,2991.116
2991126.0,225.0,32.0,4.0,252.0,2991.126
2991136.0,231.0,31.0,4.0,248.0,2991.136
2991147.0,222.0,31.0,3.0,241.0,2991.147
2991157.0,227.0,31.0,4.0,249.0,2991.157
2991167.0,230.0,31.0,3.0,253.0,2991.167
2991177.0,225.0,30.0,4.0,247.0,2991.177
2991187.0,224.0,31.0,3.0,246.0,2991.187
2991197.0,217.0,30.0,3.0,241.0,2991.197
2991207.0,223.0,31.0,3.0,250.0,2991.207
2991217.0,227.0,32.0,3.0,252.0,2991.217
2991227.0,221.0,32.0,3.0,248.0,2991.227
2991237.0,223.0,31.0,4.0,247.0,2991.237
2991247.0,214.0,31.0,3.0,241.0,2991.247
2991257.0,223.0,31.0,4.0,251.0,2991.257
2991267.0,227.0,31.0,4.0,254.0,2991.267
2991277.0,222.0,31.0,3.0,249.0,2991.277
2991287.0,223.0,31.0,4.0,247.0,2991.287
2991297.0,215.0,32.0,3.0,240.0,2991.297
2991307.0,223.0,30.0,3.0,250.0,2991.307
2991318.0,226.0,31.0,4.0,251.0,2991.318
2991328.0,219.0,31.0,4.0,243.0,2991.328
2991338.0,220.0,31.0,4.0,245.0,2991.338
2991348.0,219.0,31.0,3.0,246.0,2991.348
2991358.0,223.0,32.0,3.0,252.0,2991.358
2991368.0,225.0,30.0,4.0,251.0,2991.368
2991378.0,217.0,31.0,4.0,244.0,2991.378
2991388.0,220.0,31.0,4.0,245.0,2991.388
2991398.0,219.0,31.0,4.0,249.0,2991.398
2991408.0,223.0,31.0,5.0,252.0,2991.408
2991418.0,224.0,32.0,3.0,250.0,2991.418
2991428.0,217.0,31.0,3.0,246.0,2991.428
2991438.0,219.0,31.0,4.0,249.0,2991.438
2991448.0,215.0,31.0,4.0,246.0,2991.448
2991458.0,223.0,31.0,4.0,255.0,2991.458
2991468.0,224.0,32.0,4.0,251.0,2991.468
2991478.0,215.0,31.0,4.0,242.0,2991.478
2991488.0,218.0,32.0,4.0,243.0,2991.488
2991498.0,216.0,32.0,3.0,250.0,2991.498
2991508.0,224.0,32.0,3.0,258.0,2991.508
2991518.0,226.0,33.0,5.0,260.0,2991.518
2991528.0,216.0,31.0,4.0,248.0,2991.528
2991538.0,218.0,32.0,4.0,251.0,2991.538
2991548.0,217.0,33.0,3.0,252.0,2991.548
2991558.0,223.0,32.0,4.0,254.0,2991.558
2991568.0,222.0,32.0,3.0,253.0,2991.568
2991578.0,217.0,32.0,4.0,247.0,2991.578
2991588.0,218.0,31.0,4.0,249.0,2991.588
2991598.0,218.0,32.0,4.0,248.0,2991.598
2991608.0,220.0,32.0,3.0,244.0,2991.608
2991618.0,222.0,33.0,3.0,246.0,2991.618
2991628.0,215.0,32.0,4.0,245.0,2991.628
2991638.0,217.0,32.0,4.0,253.0,2991.638
2991648.0,219.0,31.0,4.0,255.0,2991.648
2991659.0,221.0,32.0,3.0,254.0,2991.659
2991669.0,221.0,32.0,4.0,252.0,2991.669
2991679.0,211.0,33.0,3.0,243.0,2991.679
2991689.0,217.0,32.0,4.0,248.0,2991.689
2991699.0,223.0,32.0,4.0,255.0,2991.699
2991709.0,222.0,32.0,4.0,255.0,2991.709
2991719.0,222.0,32.0,3.0,255.0,2991.719
2991729.0,213.0,33.0,3.0,244.0,2991.729
2991739.0,218.0,33.0,3.0,252.0,2991.739
2991749.0,221.0,32.0,3.0,253.0,2991.749
2991759.0,222.0,32.0,4.0,251.0,2991.759
2991769.0,221.0,32.0,4.0,249.0,2991.769
2991779.0,214.0,31.0,4.0,240.0,2991.779
2991789.0,218.0,32.0,2.0,246.0,2991.789
2991799.0,222.0,32.0,4.0,252.0,2991.799
2991809.0,221.0,33.0,3.0,250.0,2991.809
2991819.0,220.0,32.0,4.0,247.0,2991.819
2991830.0,212.0,32.0,4.0,239.0,2991.83
2991840.0,219.0,32.0,5.0,243.0,2991.84
2991850.0,223.0,33.0,2.0,248.0,2991.85
2991860.0,217.0,32.0,4.0,241.0,2991.86
2991870.0,218.0,33.0,3.0,243.0,2991.87
2991880.0,213.0,32.0,4.0,238.0,2991.88
2991890.0,220.0,32.0,3.0,249.0,2991.89
2991900.0,225.0,32.0,5.0,250.0,2991.9
2991910.0,218.0,33.0,3.0,243.0,2991.91
2991920.0,220.0,33.0,3.0,245.0,2991.92
2991930.0,212.0,32.0,3.0,239.0,2991.93
2991940.0,221.0,33.0,4.0,248.0,2991.94
2991950.0,225.0,32.0,4.0,251.0,2991.95
2991960.0,220.0,33.0,3.0,247.0,2991.96
2991970.0,221.0,33.0,4.0,246.0,2991.97
2991980.0,213.0,33.0,4.0,241.0,2991.98
2991990.0,222.0,32.0,4.0,252.0,2991.99
2992000.0,224.0,33.0,3.0,255.0,2992.0
2992010.0,220.0,32.0,4.0,248.0,2992.01
2992020.0,220.0,33.0,4.0,248.0,2992.02
2992030.0,215.0,33.0,5.0,244.0,2992.03
2992040.0,222.0,33.0,4.0,252.0,2992.04
2992050.0,225.0,33.0,4.0,253.0,2992.05
2992060.0,218.0,33.0,3.0,246.0,2992.06
2992070.0,219.0,33.0,3.0,246.0,2992.07
2992080.0,215.0,33.0,5.0,243.0,2992.08
2992090.0,220.0,33.0,3.0,248.0,2992.09
2992100.0,225.0,33.0,4.0,253.0,2992.1
2992110.0,218.0,32.0,4.0,244.0,2992.11
2992120.0,219.0,33.0,3.0,245.0,2992.12
2992130.0,212.0,33.0,4.0,238.0,2992.13
2992140.0,221.0,32.0,4.0,248.0,2992.14
2992150.0,224.0,33.0,4.0,252.0,2992.15
2992160.0,218.0,33.0,4.0,243.0,2992.16
2992171.0,218.0,33.0,2.0,245.0,2992.171
2992181.0,217.0,33.0,3.0,245.0,2992.181
2992191.0,223.0,34.0,3.0,252.0,2992.191
2992201.0,223.0,32.0,3.0,249.0,2992.201
2992211.0,216.0,32.0,4.0,241.0,2992.211
2992221.0,220.0,32.0,3.0,246.0,2992.221
2992231.0,220.0,33.0,4.0,247.0,2992.231
2992241.0,224.0,33.0,4.0,249.0,2992.241
2992251.0,223.0,33.0,3.0,248.0,2992.251
2992261.0,218.0,32.0,3.0,242.0,2992.261
2992271.0,220.0,32.0,3.0,244.0,2992.271
2992281.0,221.0,32.0,4.0,247.0,2992.281
2992291.0,225.0,33.0,4.0,249.0,2992.291
2992301.0,225.0,32.0,4.0,250.0,2992.301
2992311.0,217.0,32.0,4.0,241.0,2992.311
2992321.0,219.0,33.0,3.0,244.0,2992.321
2992331.0,222.0,32.0,4.0,248.0,2992.331
2992342.0,223.0,33.0,3.0,249.0,2992.342
2992352.0,223.0,33.0,5.0,247.0,2992.352
2992362.0,214.0,32.0,4.0,238.0,2992.362
2992372.0,220.0,32.0,3.0,246.0,2992.372
2992382.0,225.0,33.0,3.0,252.0,2992.382
2992392.0,223.0,32.0,4.0,248.0,2992.392
2992402.0,223.0,32.0,3.0,247.0,2992.402
2992412.0,213.0,33.0,3.0,237.0,2992.412
2992422.0,220.0,33.0,4.0,246.0,2992.422
2992432.0,223.0,33.0,4.0,250.0,2992.432
2992442.0,222.0,32.0,4.0,247.0,2992.442
2992452.0,221.0,34.0,3.0,246.0,2992.452
2992462.0,213.0,32.0,4.0,236.0,2992.462
2992472.0,217.0,32.0,4.0,243.0,2992.472
2992482.0,224.0,32.0,5.0,250.0,2992.482
2992492.0,220.0,32.0,4.0,245.0,2992.492
2992502.0,220.0,32.0,4.0,245.0,2992.502
2992512.0,214.0,32.0,2.0,237.0,2992.512
2992522.0,218.0,32.0,3.0,242.0,2992.522
2992532.0,224.0,32.0,4.0,249.0,2992.532
2992542.0,221.0,32.0,5.0,244.0,2992.542
2992552.0,220.0,31.0,4.0,243.0,2992.552
2992562.0,213.0,33.0,4.0,235.0,2992.562
2992572.0,219.0,32.0,4.0,243.0,2992.572
2992582.0,225.0,33.0,3.0,248.0,2992.582
2992592.0,221.0,32.0,4.0,242.0,2992.592
2992602.0,222.0,32.0,4.0,244.0,2992.602
2992612.0,216.0,31.0,5.0,235.0,2992.612
2992622.0,220.0,32.0,3.0,244.0,2992.622
2992632.0,225.0,32.0,4.0,249.0,2992.632
2992642.0,222.0,31.0,3.0,246.0,2992.642
2992652.0,222.0,32.0,3.0,245.0,2992.652
2992662.0,214.0,31.0,4.0,236.0,2992.662
2992672.0,221.0,32.0,4.0,245.0,2992.672
2992683.0,226.0,31.0,3.0,250.0,2992.683
2992693.0,220.0,32.0,3.0,241.0,2992.693
2992703.0,221.0,32.0,4.0,244.0,2992.703
2992713.0,217.0,32.0,3.0,240.0,2992.713
2992723.0,224.0,32.0,3.0,248.0,2992.723
2992733.0,227.0,32.0,4.0,249.0,2992.733
2992743.0,221.0,31.0,4.0,241.0,2992.743
2992753.0,220.0,32.0,2.0,244.0,2992.753
2992763.0,217.0,31.0,4.0,241.0,2992.763
2992773.0,222.0,31.0,2.0,246.0,2992.773
2992783.0,225.0,32.0,4.0,249.0,2992.783
2992793.0,218.0,31.0,3.0,240.0,2992.793
2992803.0,221.0,31.0,5.0,243.0,2992.803
2992813.0,212.0,31.0,4.0,237.0,2992.813
2992823.0,221.0,31.0,4.0,247.0,2992.823
2992833.0,225.0,32.0,3.0,251.0,2992.833
2992843.0,217.0,31.0,3.0,240.0,2992.843
2992854.0,219.0,32.0,3.0,242.0,2992.854
2992864.0,219.0,32.0,4.0,244.0,2992.864
2992874.0,223.0,31.0,4.0,247.0,2992.874
2992884.0,222.0,32.0,4.0,245.0,2992.884
2992894.0,214.0,32.0,4.0,236.0,2992.894
2992904.0,218.0,32.0,4.0,241.0,2992.904
2992914.0,221.0,32.0,4.0,244.0,2992.914
2992924.0,223.0,32.0,4.0,245.0,2992.924
2992934.0,224.0,32.0,4.0,244.0,2992.934
2992944.0,217.0,32.0,4.0,237.0,2992.944
2992954.0,219.0,32.0,4.0,239.0,2992.954
2992964.0,221.0,33.0,3.0,247.0,2992.964
2992974.0,222.0,32.0,4.0,244.0,2992.974
2992984.0,225.0,33.0,3.0,247.0,2992.984
2992994.0,216.0,32.0,3.0,236.0,2992.994
2993004.0,218.0,32.0,2.0,241.0,2993.004
2993014.0,222.0,32.0,3.0,246.0,2993.014
2993024.0,224.0,31.0,4.0,247.0,2993.024
2993034.0,224.0,33.0,4.0,245.0,2993.034
2993044.0,216.0,32.0,3.0,237.0,2993.044
2993054.0,218.0,32.0,4.0,241.0,2993.054
2993064.0,224.0,32.0,4.0,248.0,2993.064
2993074.0,223.0,32.0,4.0,247.0,2993.074
2993084.0,223.0,32.0,4.0,245.0,2993.084
2993094.0,215.0,33.0,3.0,237.0,2993.094
2993104.0,218.0,33.0,4.0,241.0,2993.104
2993114.0,220.0,32.0,4.0,244.0,2993.114
2993124.0,224.0,32.0,5.0,246.0,2993.124
2993134.0,223.0,32.0,4.0,246.0,2993.134
2993144.0,214.0,33.0,3.0,236.0,2993.144
2993154.0,219.0,33.0,4.0,243.0,2993.154
2993164.0,220.0,32.0,3.0,245.0,2993.164
2993174.0,223.0,32.0,3.0,247.0,2993.174
2993184.0,222.0,32.0,4.0,246.0,2993.184
2993195.0,214.0,33.0,4.0,236.0,2993.195
2993205.0,218.0,32.0,4.0,243.0,2993.205
2993215.0,225.0,32.0,3.0,249.0,2993.215
2993225.0,219.0,33.0,3.0,243.0,2993.225
2993235.0,220.0,32.0,4.0,244.0,2993.235
2993245.0,213.0,33.0,3.0,235.0,2993.245
2993255.0,218.0,33.0,5.0,243.0,2993.255
2993265.0,224.0,33.0,4.0,249.0,2993.265
2993275.0,218.0,32.0,4.0,241.0,2993.275
2993285.0,221.0,33.0,3.0,245.0,2993.285
2993295.0,213.0,32.0,4.0,234.0,2993.295
2993305.0,219.0,32.0,4.0,244.0,2993.305
2993315.0,225.0,33.0,4.0,249.0,2993.315
2993325.0,221.0,32.0,4.0,244.0,2993.325
2993335.0,221.0,33.0,3.0,243.0,2993.335
2993345.0,212.0,33.0,3.0,235.0,2993.345
2993355.0,221.0,33.0,3.0,246.0,2993.355
2993366.0,225.0,34.0,4.0,248.0,2993.366
2993376.0,218.0,33.0,3.0,240.0,2993.376
2993386.0,220.0,33.0,4.0,242.0,2993.386
2993396.0,216.0,33.0,4.0,241.0,2993.396
2993406.0,223.0,32.0,4.0,248.0,2993.406
2993416.0,225.0,32.0,3.0,250.0,2993.416
2993426.0,218.0,32.0,4.0,240.0,2993.426
2993436.0,219.0,33.0,4.0,243.0,2993.436
2993446.0,219.0,33.0,5.0,243.0,2993.446
2993456.0,221.0,33.0,4.0,247.0,2993.456
2993466.0,224.0,32.0,4.0,249.0,2993.466
2993476.0,216.0,33.0,3.0,241.0,2993.476
2993486.0,218.0,33.0,3.0,242.0,2993.486
2993496.0,213.0,33.0,3.0,239.0,2993.496
2993506.0,221.0,32.0,4.0,248.0,2993.506
2993516.0,225.0,33.0,4.0,249.0,2993.516
2993526.0,216.0,32.0,3.0,240.0,2993.526
2993536.0,221.0,33.0,4.0,244.0,2993.536
2993546.0,215.0,33.0,3.0,241.0,2993.546
2993556.0,223.0,32.0,4.0,248.0,2993.556
2993566.0,224.0,33.0,3.0,249.0,2993.566
2993576.0,218.0,32.0,4.0,239.0,2993.576
2993586.0,220.0,33.0,4.0,243.0,2993.586
2993596.0,216.0,33.0,3.0,241.0,2993.596
2993606.0,224.0,33.0,3.0,249.0,2993.606
2993616.0,225.0,34.0,3.0,246.0,2993.616
2993626.0,220.0,33.0,3.0,242.0,2993.626
2993636.0,221.0,33.0,4.0,243.0,2993.636
2993646.0,219.0,33.0,4.0,243.0,2993.646
2993656.0,224.0,32.0,4.0,248.0,2993.656
2993666.0,226.0,31.0,4.0,250.0,2993.666
2993676.0,219.0,33.0,3.0,242.0,2993.676
2993686.0,220.0,32.0,4.0,244.0,2993.686
2993696.0,220.0,32.0,4.0,246.0,2993.696
2993707.0,226.0,31.0,4.0,248.0,2993.707
2993717.0,224.0,32.0,3.0,247.0,2993.717
2993727.0,216.0,32.0,4.0,237.0,2993.727
2993737.0,219.0,33.0,3.0,244.0,2993.737
2993747.0,224.0,32.0,4.0,250.0,2993.747
2993757.0,224.0,32.0,4.0,248.0,2993.757
2993767.0,224.0,33.0,4.0,246.0,2993.767
2993777.0,215.0,32.0,2.0,238.0,2993.777
2993787.0,218.0,33.0,4.0,244.0,2993.787
2993797.0,222.0,32.0,4.0,247.0,2993.797
2993807.0,223.0,33.0,3.0,248.0,2993.807
2993817.0,223.0,32.0,4.0,246.0,2993.817
2993827.0,214.0,32.0,4.0,238.0,2993.827
2993837.0,219.0,33.0,4.0,242.0,2993.837
2993847.0,222.0,33.0,4.0,248.0,2993.847
2993857.0,222.0,33.0,3.0,248.0,2993.857
2993867.0,222.0,34.0,3.0,246.0,2993.867
2993878.0,214.0,32.0,4.0,237.0,2993.878
2993888.0,220.0,32.0,4.0,246.0,2993.888
2993898.0,226.0,32.0,5.0,251.0,2993.898
2993908.0,219.0,32.0,4.0,245.0,2993.908
2993918.0,220.0,33.0,3.0,245.0,2993.918
2993928.0,214.0,33.0,3.0,238.0,2993.928
2993938.0,220.0,32.0,3.0,246.0,2993.938
2993948.0,225.0,32.0,3.0,252.0,2993.948
2993958.0,220.0,32.0,5.0,243.0,2993.958
2993968.0,222.0,32.0,4.0,244.0,2993.968
2993978.0,213.0,33.0,3.0,237.0,2993.978
2993988.0,221.0,33.0,3.0,247.0,2993.988
2993998.0,225.0,33.0,3.0,250.0,2993.998
2994008.0,222.0,32.0,4.0,245.0,2994.008
2994018.0,221.0,33.0,3.0,245.0,2994.018
2994028.0,214.0,33.0,4.0,238.0,2994.028
2994038.0,222.0,33.0,3.0,247.0,2994.038
2994048.0,226.0,32.0,5.0,249.0,2994.048
2994058.0,220.0,33.0,3.0,245.0,2994.058
2994068.0,221.0,32.0,3.0,245.0,2994.068
2994078.0,214.0,32.0,4.0,238.0,2994.078
2994088.0,223.0,32.0,5.0,248.0,2994.088
2994098.0,225.0,32.0,4.0,249.0,2994.098
2994108.0,220.0,32.0,3.0,243.0,2994.108
2994118.0,220.0,33.0,4.0,245.0,2994.118
2994128.0,214.0,32.0,3.0,239.0,2994.128
2994138.0,219.0,32.0,4.0,246.0,2994.138
2994148.0,224.0,33.0,4.0,251.0,2994.148
2994158.0,220.0,31.0,4.0,244.0,2994.158
2994168.0,220.0,32.0,4.0,245.0,2994.168
2994178.0,214.0,32.0,4.0,237.0,2994.178
2994188.0,221.0,33.0,3.0,248.0,2994.188
2994198.0,225.0,32.0,3.0,250.0,2994.198
2994208.0,218.0,32.0,3.0,243.0,2994.208
2994219.0,221.0,32.0,5.0,244.0,2994.219
2994229.0,217.0,33.0,4.0,242.0,2994.229
2994239.0,224.0,32.0,3.0,249.0,2994.239
2994249.0,225.0,34.0,3.0,249.0,2994.249
2994259.0,215.0,32.0,3.0,240.0,2994.259
2994269.0,219.0,33.0,4.0,245.0,2994.269
2994279.0,218.0,33.0,4.0,244.0,2994.279
2994289.0,223.0,32.0,4.0,249.0,2994.289
2994299.0,224.0,33.0,3.0,247.0,2994.299
2994309.0,218.0,33.0,3.0,242.0,2994.309
2994319.0,219.0,33.0,3.0,244.0,2994.319
2994329.0,219.0,32.0,4.0,245.0,2994.329
2994339.0,222.0,32.0,4.0,249.0,2994.339
2994349.0,225.0,32.0,4.0,250.0,2994.349
2994359.0,216.0,32.0,4.0,243.0,2994.359
2994369.0,219.0,32.0,4.0,244.0,2994.369
2994379.0,219.0,33.0,3.0,248.0,2994.379
2994390.0,223.0,32.0,4.0,250.0,2994.39
2994400.0,222.0,33.0,3.0,248.0,2994.4
2994410.0,214.0,33.0,4.0,239.0,2994.41
2994420.0,218.0,32.0,4.0,247.0,2994.42
2994430.0,224.0,32.0,4.0,252.0,2994.43
2994440.0,222.0,32.0,3.0,250.0,2994.44
2994450.0,222.0,33.0,3.0,248.0,2994.45
2994460.0,214.0,32.0,4.0,240.0,2994.46
2994470.0,219.0,33.0,4.0,247.0,2994.47
2994480.0,222.0,33.0,4.0,250.0,2994.48
2994490.0,222.0,33.0,4.0,249.0,2994.49
2994500.0,222.0,33.0,4.0,248.0,2994.5
2994510.0,214.0,33.0,3.0,239.0,2994.51
2994520.0,218.0,32.0,4.0,244.0,2994.52
2994530.0,222.0,33.0,4.0,251.0,2994.53
2994540.0,223.0,32.0,5.0,248.0,2994.54
2994550.0,222.0,33.0,4.0,247.0,2994.55
2994560.0,216.0,32.0,5.0,240.0,2994.56
2994570.0,218.0,34.0,3.0,245.0,2994.57
2994580.0,223.0,33.0,4.0,250.0,2994.58
2994590.0,222.0,33.0,3.0,247.0,2994.59
2994600.0,221.0,33.0,4.0,246.0,2994.6
2994610.0,215.0,32.0,4.0,239.0,2994.61
2994620.0,218.0,33.0,4.0,245.0,2994.62
2994630.0,225.0,33.0,4.0,250.0,2994.63
2994640.0,221.0,33.0,3.0,247.0,2994.64
2994650.0,222.0,33.0,4.0,247.0,2994.65
2994660.0,214.0,32.0,4.0,239.0,2994.66
2994670.0,219.0,32.0,4.0,246.0,2994.67
2994680.0,224.0,33.0,4.0,252.0,2994.68
2994690.0,223.0,33.0,5.0,249.0,2994.69
2994700.0,222.0,34.0,4.0,248.0,2994.7
2994710.0,214.0,32.0,3.0,238.0,2994.71
2994720.0,219.0,33.0,4.0,248.0,2994.72
2994731.0,225.0,34.0,4.0,251.0,2994.731
2994741.0,220.0,32.0,4.0,246.0,2994.741
2994751.0,220.0,33.0,3.0,245.0,2994.751
2994761.0,215.0,33.0,3.0,243.0,2994.761
2994771.0,224.0,34.0,3.0,251.0,2994.771
2994781.0,225.0,34.0,3.0,251.0,2994.781
2994791.0,220.0,33.0,4.0,244.0,2994.791
2994801.0,222.0,33.0,4.0,245.0,2994.801
2994811.0,216.0,33.0,4.0,241.0,2994.811
2994821.0,223.0,33.0,5.0,248.0,2994.821
2994831.0,225.0,33.0,3.0,249.0,2994.831
2994841.0,219.0,34.0,3.0,243.0,2994.841
2994851.0,219.0,34.0,3.0,244.0,2994.851
2994861.0,213.0,34.0,4.0,237.0,2994.861
2994871.0,222.0,33.0,4.0,249.0,2994.871
2994881.0,226.0,33.0,4.0,249.0,2994.881
2994891.0,219.0,33.0,3.0,243.0,2994.891
2994902.0,219.0,34.0,3.0,243.0,2994.902
2994912.0,217.0,33.0,4.0,244.0,2994.912
2994922.0,223.0,33.0,4.0,249.0,2994.922
2994932.0,224.0,33.0,4.0,247.0,2994.932
2994942.0,214.0,33.0,3.0,239.0,2994.942
2994952.0,219.0,33.0,4.0,244.0,2994.952
2994962.0,219.0,33.0,3.0,246.0,2994.962
2994972.0,223.0,32.0,4.0,249.0,2994.972
2994982.0,223.0,33.0,3.0,247.0,2994.982
2994992.0,217.0,33.0,3.0,241.0,2994.992
2995002.0,218.0,34.0,4.0,243.0,2995.002
2995012.0,221.0,33.0,4.0,245.0,2995.012
2995022.0,223.0,34.0,3.0,248.0,2995.022
2995032.0,225.0,33.0,4.0,250.0,2995.032
2995042.0,217.0,33.0,3.0,240.0,2995.042
2995052.0,220.0,33.0,5.0,242.0,2995.052
2995062.0,221.0,33.0,4.0,247.0,2995.062
2995072.0,224.0,33.0,4.0,248.0,2995.072
2995082.0,225.0,33.0,3.0,247.0,2995.082
2995092.0,216.0,33.0,3.0,239.0,2995.092
2995102.0,219.0,32.0,4.0,242.0,2995.102
2995112.0,221.0,33.0,4.0,247.0,2995.112
2995122.0,223.0,32.0,5.0,248.0,2995.122
2995132.0,222.0,33.0,4.0,247.0,2995.132
2995142.0,215.0,32.0,4.0,239.0,2995.142
2995152.0,218.0,34.0,3.0,244.0,2995.152
2995162.0,218.0,32.0,4.0,245.0,2995.162
2995172.0,223.0,32.0,3.0,249.0,2995.172
2995182.0,223.0,33.0,5.0,248.0,2995.182
2995192.0,214.0,32.0,4.0,240.0,2995.192
2995202.0,218.0,33.0,4.0,245.0,2995.202
2995212.0,219.0,33.0,3.0,248.0,2995.212
2995222.0,222.0,33.0,3.0,250.0,2995.222
2995232.0,222.0,32.0,4.0,247.0,2995.232
2995243.0,214.0,33.0,4.0,238.0,2995.243
2995253.0,219.0,33.0,4.0,243.0,2995.253
2995263.0,224.0,33.0,3.0,250.0,2995.263
2995273.0,221.0,32.0,3.0,246.0,2995.273
2995283.0,221.0,33.0,3.0,244.0,2995.283
2995293.0,214.0,32.0,4.0,236.0,2995.293
2995303.0,219.0,33.0,3.0,244.0,2995.303
2995313.0,226.0,33.0,5.0,250.0,2995.313
2995323.0,220.0,33.0,4.0,245.0,2995.323
2995333.0,223.0,33.0,5.0,246.0,2995.333
2995343.0,213.0,32.0,4.0,236.0,2995.343
2995353.0,219.0,32.0,4.0,245.0,2995.353
2995363.0,225.0,33.0,3.0,250.0,2995.363
2995373.0,222.0,32.0,3.0,248.0,2995.373
2995383.0,221.0,33.0,4.0,246.0,2995.383
2995393.0,214.0,32.0,3.0,237.0,2995.393
2995403.0,220.0,33.0,4.0,247.0,2995.403
2995414.0,225.0,32.0,3.0,251.0,2995.414
2995424.0,220.0,32.0,4.0,242.0,2995.424
2995434.0,220.0,32.0,4.0,243.0,2995.434
2995444.0,217.0,32.0,4.0,241.0,2995.444
2995454.0,224.0,32.0,3.0,248.0,2995.454
2995464.0,227.0,32.0,5.0,248.0,2995.464
2995474.0,219.0,33.0,3.0,241.0,2995.474
2995484.0,221.0,32.0,4.0,242.0,2995.484
2995494.0,218.0,32.0,4.0,242.0,2995.494
2995504.0,222.0,32.0,3.0,246.0,2995.504
2995514.0,226.0,33.0,4.0,249.0,2995.514
2995524.0,219.0,32.0,3.0,241.0,2995.524
2995534.0,220.0,33.0,4.0,242.0,2995.534
2995544.0,214.0,33.0,3.0,238.0,2995.544
2995554.0,222.0,32.0,3.0,248.0,2995.554
2995564.0,225.0,33.0,4.0,249.0,2995.564
2995574.0,217.0,31.0,3.0,241.0,2995.574
2995584.0,220.0,32.0,4.0,244.0,2995.584
2995594.0,215.0,32.0,4.0,239.0,2995.594
2995604.0,223.0,33.0,3.0,250.0,2995.604
2995614.0,224.0,32.0,4.0,249.0,2995.614
2995624.0,216.0,32.0,3.0,240.0,2995.624
2995634.0,220.0,32.0,3.0,244.0,2995.634
2995644.0,216.0,32.0,2.0,242.0,2995.644
2995654.0,223.0,32.0,4.0,250.0,2995.654
2995664.0,225.0,33.0,3.0,250.0,2995.664
2995674.0,219.0,32.0,4.0,243.0,2995.674
2995684.0,220.0,32.0,4.0,244.0,2995.684
2995694.0,217.0,32.0,5.0,243.0,2995.694
2995704.0,224.0,33.0,4.0,250.0,2995.704
2995714.0,225.0,33.0,4.0,251.0,2995.714
2995724.0,219.0,32.0,3.0,243.0,2995.724
2995734.0,220.0,33.0,3.0,244.0,2995.734
2995744.0,219.0,32.0,4.0,244.0,2995.744
2995755.0,224.0,32.0,4.0,249.0,2995.755
2995765.0,225.0,32.0,4.0,247.0,2995.765
2995775.0,215.0,32.0,2.0,240.0,2995.775
2995785.0,218.0,32.0,4.0,244.0,2995.785
2995795.0,223.0,33.0,3.0,251.0,2995.795
2995805.0,223.0,32.0,4.0,249.0,2995.805
2995815.0,223.0,32.0,3.0,247.0,2995.815
2995825.0,215.0,32.0,4.0,240.0,2995.825
2995835.0,218.0,32.0,4.0,245.0,2995.835
2995845.0,220.0,32.0,5.0,247.0,2995.845
2995855.0,222.0,32.0,4.0,250.0,2995.855
2995865.0,222.0,33.0,3.0,247.0,2995.865
2995875.0,213.0,32.0,3.0,240.0,2995.875
2995885.0,218.0,33.0,3.0,246.0,2995.885
2995895.0,221.0,32.0,4.0,250.0,2995.895
2995905.0,222.0,32.0,4.0,252.0,2995.905
2995915.0,221.0,32.0,4.0,249.0,2995.915
2995926.0,213.0,33.0,3.0,242.0,2995.926
2995936.0,219.0,32.0,4.0,247.0,2995.936
2995946.0,225.0,32.0,4.0,252.0,2995.946
2995956.0,221.0,32.0,4.0,247.0,2995.956
2995966.0,220.0,32.0,4.0,247.0,2995.966
2995976.0,214.0,32.0,5.0,239.0,2995.976
2995986.0,220.0,33.0,3.0,248.0,2995.986
2995996.0,225.0,32.0,3.0,252.0,2995.996
2996006.0,220.0,32.0,3.0,246.0,2996.006
2996016.0,222.0,32.0,3.0,247.0,2996.016
2996026.0,214.0,31.0,4.0,239.0,2996.026
2996036.0,220.0,33.0,3.0,248.0,2996.036
2996046.0,225.0,32.0,4.0,251.0,2996.046
2996056.0,222.0,32.0,4.0,248.0,2996.056
2996066.0,221.0,32.0,3.0,246.0,2996.066
2996076.0,213.0,32.0,4.0,239.0,2996.076
2996086.0,222.0,31.0,5.0,250.0,2996.086
2996096.0,224.0,33.0,3.0,252.0,2996.096
2996106.0,221.0,31.0,4.0,249.0,2996.106
2996116.0,221.0,33.0,3.0,248.0,2996.116
2996126.0,212.0,32.0,4.0,242.0,2996.126
2996136.0,221.0,32.0,3.0,252.0,2996.136
2996146.0,224.0,32.0,4.0,253.0,2996.146
2996156.0,221.0,31.0,4.0,248.0,2996.156
2996166.0,220.0,32.0,3.0,247.0,2996.166
2996176.0,213.0,33.0,3.0,242.0,2996.176
2996186.0,218.0,33.0,3.0,247.0,2996.186
2996196.0,224.0,32.0,3.0,252.0,2996.196
2996206.0,220.0,31.0,3.0,246.0,2996.206
2996216.0,222.0,32.0,5.0,245.0,2996.216
2996226.0,213.0,32.0,4.0,238.0,2996.226
2996236.0,221.0,32.0,4.0,247.0,2996.236
2996246.0,226.0,33.0,3.0,252.0,2996.246
2996256.0,220.0,32.0,3.0,244.0,2996.256
2996267.0,221.0,32.0,4.0,245.0,2996.267
2996277.0,217.0,32.0,4.0,243.0,2996.277
2996287.0,224.0,33.0,4.0,250.0,2996.287
2996297.0,225.0,33.0,3.0,249.0,2996.297
2996307.0,216.0,33.0,3.0,242.0,2996.307
2996317.0,219.0,33.0,4.0,244.0,2996.317
2996327.0,217.0,33.0,3.0,244.0,2996.327
2996337.0,224.0,33.0,4.0,249.0,2996.337
2996347.0,225.0,33.0,4.0,247.0,2996.347
2996357.0,219.0,32.0,4.0,243.0,2996.357
2996367.0,220.0,33.0,4.0,245.0,2996.367
2996377.0,219.0,34.0,3.0,247.0,2996.377
2996387.0,224.0,32.0,4.0,251.0,2996.387
2996397.0,226.0,34.0,3.0,252.0,2996.397
2996407.0,219.0,32.0,4.0,244.0,2996.407
2996417.0,220.0,33.0,3.0,246.0,2996.417
2996427.0,220.0,33.0,4.0,248.0,2996.427
2996438.0,224.0,33.0,3.0,252.0,2996.438
2996448.0,224.0,32.0,4.0,248.0,2996.448
2996458.0,216.0,32.0,3.0,240.0,2996.458
2996468.0,220.0,33.0,4.0,246.0,2996.468
2996478.0,225.0,33.0,2.0,252.0,2996.478
2996488.0,223.0,33.0,5.0,251.0,2996.488
2996498.0,222.0,33.0,4.0,249.0,2996.498
2996508.0,214.0,33.0,3.0,240.0,2996.508
2996518.0,218.0,32.0,4.0,247.0,2996.518
2996528.0,222.0,33.0,3.0,250.0,2996.528
2996538.0,224.0,32.0,4.0,251.0,2996.538
2996548.0,222.0,32.0,2.0,248.0,2996.548
2996558.0,215.0,32.0,3.0,240.0,2996.558
2996568.0,219.0,32.0,2.0,246.0,2996.568
2996578.0,223.0,32.0,4.0,250.0,2996.578
2996588.0,223.0,32.0,4.0,250.0,2996.588
2996598.0,223.0,32.0,5.0,248.0,2996.598
2996608.0,217.0,31.0,4.0,242.0,2996.608
2996618.0,220.0,32.0,3.0,245.0,2996.618
2996628.0,224.0,32.0,4.0,253.0,2996.628
2996638.0,223.0,32.0,3.0,249.0,2996.638
2996648.0,222.0,32.0,3.0,248.0,2996.648
2996658.0,217.0,32.0,3.0,241.0,2996.658
2996668.0,221.0,31.0,4.0,246.0,2996.668
2996678.0,226.0,32.0,3.0,252.0,2996.678
2996688.0,224.0,31.0,3.0,249.0,2996.688
2996698.0,224.0,32.0,4.0,248.0,2996.698
2996708.0,216.0,32.0,3.0,240.0,2996.708
2996718.0,221.0,31.0,4.0,246.0,2996.718
2996728.0,226.0,32.0,4.0,251.0,2996.728
2996738.0,224.0,31.0,4.0,250.0,2996.738
2996748.0,224.0,32.0,3.0,248.0,2996.748
2996758.0,215.0,32.0,3.0,241.0,2996.758
2996768.0,221.0,31.0,3.0,246.0,2996.768
2996779.0,226.0,32.0,4.0,251.0,2996.779
2996789.0,222.0,31.0,4.0,247.0,2996.789
2996799.0,221.0,31.0,4.0,246.0,2996.799
2996809.0,214.0,31.0,3.0,241.0,2996.809
2996819.0,223.0,32.0,3.0,251.0,2996.819
2996829.0,226.0,31.0,4.0,252.0,2996.829
2996839.0,221.0,30.0,3.0,247.0,2996.839
2996849.0,220.0,31.0,4.0,246.0,2996.849
2996859.0,217.0,31.0,4.0,243.0,2996.859
2996869.0,221.0,31.0,4.0,250.0,2996.869
2996879.0,226.0,31.0,4.0,253.0,2996.879
2996889.0,221.0,31.0,3.0,248.0,2996.889
2996899.0,220.0,30.0,4.0,247.0,2996.899
2996909.0,214.0,32.0,3.0,241.0,2996.909
2996919.0,223.0,31.0,5.0,251.0,2996.919
2996929.0,226.0,31.0,4.0,254.0,2996.929
2996939.0,220.0,31.0,3.0,247.0,2996.939
2996950.0,220.0,32.0,3.0,248.0,2996.95
2996960.0,218.0,31.0,4.0,247.0,2996.96
2996970.0,224.0,31.0,3.0,254.0,2996.97
2996980.0,224.0,31.0,4.0,251.0,2996.98
2996990.0,217.0,31.0,3.0,244.0,2996.99
2997000.0,220.0,31.0,4.0,248.0,2997.0
2997010.0,220.0,31.0,4.0,250.0,2997.01
2997020.0,225.0,32.0,3.0,254.0,2997.02
2997030.0,224.0,30.0,4.0,251.0,2997.03
2997040.0,218.0,31.0,3.0,247.0,2997.04
2997050.0,221.0,31.0,5.0,248.0,2997.05
2997060.0,221.0,31.0,4.0,250.0,2997.06
2997070.0,225.0,31.0,3.0,253.0,2997.07
2997080.0,226.0,32.0,3.0,254.0,2997.08
2997090.0,218.0,31.0,4.0,246.0,2997.09
2997100.0,220.0,31.0,4.0,248.0,2997.1
2997110.0,222.0,31.0,4.0,251.0,2997.11
2997120.0,225.0,31.0,3.0,254.0,2997.12
2997130.0,226.0,31.0,2.0,253.0,2997.13
2997140.0,218.0,31.0,4.0,246.0,2997.14
2997150.0,219.0,31.0,3.0,248.0,2997.15
2997160.0,223.0,30.0,4.0,253.0,2997.16
2997170.0,224.0,31.0,3.0,255.0,2997.17
2997180.0,225.0,31.0,5.0,252.0,2997.18
2997190.0,217.0,31.0,3.0,245.0,2997.19
2997200.0,219.0,31.0,3.0,247.0,2997.2
2997210.0,219.0,31.0,4.0,249.0,2997.21
2997220.0,223.0,30.0,4.0,254.0,2997.22
2997230.0,225.0,31.0,5.0,251.0,2997.23
2997240.0,216.0,31.0,4.0,245.0,2997.24
2997250.0,219.0,30.0,4.0,248.0,2997.25
2997260.0,220.0,31.0,3.0,250.0,2997.26
2997270.0,223.0,31.0,3.0,255.0,2997.27
2997280.0,223.0,32.0,3.0,250.0,2997.28
2997291.0,215.0,30.0,4.0,243.0,2997.291
2997301.0,217.0,31.0,4.0,248.0,2997.301
2997311.0,225.0,31.0,4.0,254.0,2997.311
2997321.0,222.0,30.0,4.0,252.0,2997.321
2997331.0,221.0,31.0,4.0,249.0,2997.331
2997341.0,214.0,31.0,4.0,244.0,2997.341
2997351.0,219.0,30.0,4.0,250.0,2997.351
2997361.0,225.0,31.0,3.0,255.0,2997.361
2997371.0,222.0,31.0,4.0,252.0,2997.371
2997381.0,223.0,31.0,4.0,251.0,2997.381
2997391.0,215.0,31.0,3.0,245.0,2997.391
2997401.0,220.0,32.0,3.0,251.0,2997.401
2997411.0,225.0,31.0,3.0,256.0,2997.411
2997421.0,223.0,31.0,4.0,253.0,2997.421
2997431.0,223.0,32.0,4.0,250.0,2997.431
2997441.0,215.0,31.0,4.0,242.0,2997.441
2997451.0,220.0,31.0,4.0,250.0,2997.451
2997462.0,225.0,32.0,4.0,254.0,2997.462
2997472.0,220.0,31.0,3.0,248.0,2997.472
2997482.0,221.0,31.0,3.0,247.0,2997.482
2997492.0,216.0,31.0,4.0,245.0,2997.492
2997502.0,224.0,31.0,4.0,253.0,2997.502
2997512.0,224.0,32.0,2.0,254.0,2997.512
2997522.0,219.0,31.0,3.0,247.0,2997.522
2997532.0,219.0,33.0,3.0,249.0,2997.532
2997542.0,217.0,32.0,4.0,246.0,2997.542
2997552.0,221.0,33.0,3.0,252.0,2997.552
2997562.0,225.0,32.0,5.0,253.0,2997.562
2997572.0,218.0,31.0,3.0,246.0,2997.572
2997582.0,220.0,32.0,3.0,247.0,2997.582
2997592.0,213.0,32.0,3.0,243.0,2997.592
2997602.0,222.0,33.0,3.0,252.0,2997.602
2997612.0,226.0,33.0,4.0,253.0,2997.612
2997622.0,217.0,32.0,3.0,247.0,2997.622
2997632.0,220.0,32.0,4.0,248.0,2997.632
2997642.0,214.0,32.0,4.0,244.0,2997.642
2997652.0,222.0,32.0,4.0,253.0,2997.652
2997662.0,225.0,34.0,3.0,254.0,2997.662
2997672.0,217.0,32.0,4.0,246.0,2997.672
2997682.0,221.0,33.0,3.0,249.0,2997.682
2997692.0,217.0,33.0,5.0,245.0,2997.692
2997702.0,223.0,33.0,4.0,253.0,2997.702
2997712.0,225.0,33.0,3.0,252.0,2997.712
2997722.0,220.0,33.0,3.0,249.0,2997.722
2997732.0,220.0,33.0,3.0,248.0,2997.732
2997742.0,218.0,32.0,4.0,246.0,2997.742
2997752.0,224.0,33.0,4.0,254.0,2997.752
2997762.0,226.0,33.0,3.0,253.0,2997.762
2997772.0,218.0,33.0,3.0,247.0,2997.772
2997782.0,220.0,33.0,4.0,247.0,2997.782
2997792.0,218.0,33.0,3.0,247.0,2997.792
2997803.0,224.0,32.0,4.0,252.0,2997.803
2997813.0,224.0,33.0,4.0,250.0,2997.813
2997823.0,217.0,33.0,3.0,243.0,2997.823
2997833.0,219.0,33.0,2.0,247.0,2997.833
2997843.0,223.0,33.0,4.0,252.0,2997.843
2997853.0,224.0,33.0,2.0,252.0,2997.853
2997863.0,223.0,32.0,4.0,250.0,2997.863
2997873.0,215.0,32.0,3.0,242.0,2997.873
2997883.0,218.0,33.0,5.0,247.0,2997.883
2997893.0,220.0,34.0,4.0,250.0,2997.893
2997903.0,223.0,33.0,3.0,253.0,2997.903
2997913.0,223.0,33.0,3.0,251.0,2997.913
2997923.0,215.0,33.0,3.0,243.0,2997.923
2997933.0,219.0,33.0,3.0,248.0,2997.933
2997943.0,220.0,34.0,4.0,251.0,2997.943
2997953.0,223.0,33.0,4.0,253.0,2997.953
2997963.0,222.0,34.0,2.0,250.0,2997.963
2997974.0,214.0,33.0,4.0,243.0,2997.974
2997984.0,219.0,34.0,3.0,250.0,2997.984
2997994.0,225.0,32.0,4.0,254.0,2997.994
2998004.0,220.0,33.0,3.0,250.0,2998.004
2998014.0,222.0,33.0,5.0,249.0,2998.014
2998024.0,213.0,33.0,3.0,243.0,2998.024
2998034.0,219.0,33.0,4.0,250.0,2998.034
2998044.0,225.0,34.0,3.0,255.0,2998.044
2998054.0,219.0,32.0,4.0,248.0,2998.054
2998064.0,221.0,33.0,4.0,250.0,2998.064
2998074.0,213.0,33.0,4.0,242.0,2998.074
2998084.0,221.0,33.0,4.0,251.0,2998.084
2998094.0,225.0,33.0,3.0,255.0,2998.094
2998104.0,223.0,33.0,4.0,252.0,2998.104
2998114.0,221.0,34.0,3.0,250.0,2998.114
2998124.0,213.0,32.0,4.0,242.0,2998.124
2998134.0,220.0,33.0,3.0,252.0,2998.134
2998144.0,223.0,32.0,4.0,254.0,2998.144
2998154.0,220.0,33.0,4.0,251.0,2998.154
2998164.0,220.0,33.0,3.0,249.0,2998.164
2998174.0,212.0,34.0,3.0,243.0,2998.174
2998184.0,220.0,33.0,3.0,252.0,2998.184
2998194.0,223.0,33.0,4.0,254.0,2998.194
2998204.0,220.0,33.0,5.0,250.0,2998.204
2998214.0,219.0,33.0,4.0,248.0,2998.214
2998224.0,213.0,33.0,4.0,241.0,2998.224
2998234.0,218.0,33.0,4.0,248.0,2998.234
2998244.0,223.0,34.0,3.0,253.0,2998.244
2998254.0,220.0,32.0,4.0,248.0,2998.254
2998264.0,220.0,33.0,3.0,248.0,2998.264
2998274.0,214.0,33.0,4.0,241.0,2998.274
2998284.0,220.0,33.0,3.0,250.0,2998.284
2998294.0,224.0,33.0,4.0,253.0,2998.294
2998304.0,219.0,33.0,3.0,249.0,2998.304
2998315.0,219.0,32.0,4.0,248.0,2998.315
2998325.0,215.0,32.0,4.0,246.0,2998.325
