time (ms),signal 0,signal 1,signal 2,signal 3,time (sec)
2960496.0,221.0,32.0,4.0,247.0,2960.496
2960506.0,223.0,32.0,3.0,248.0,2960.506
2960516.0,218.0,32.0,3.0,243.0,2960.516
2960526.0,218.0,31.0,4.0,241.0,2960.526
2960536.0,212.0,31.0,4.0,238.0,2960.536
2960546.0,220.0,31.0,4.0,247.0,2960.546
2960556.0,222.0,31.0,4.0,247.0,2960.556
2960566.0,219.0,31.0,4.0,243.0,2960.566
2960576.0,218.0,33.0,3.0,243.0,2960.576
2960586.0,213.0,31.0,3.0,238.0,2960.586
2960596.0,221.0,31.0,3.0,247.0,2960.596
2960606.0,223.0,32.0,4.0,248.0,2960.606
2960616.0,218.0,31.0,3.0,244.0,2960.616
2960626.0,218.0,31.0,3.0,242.0,2960.626
2960636.0,214.0,32.0,3.0,242.0,2960.636
2960646.0,220.0,31.0,4.0,248.0,2960.646
2960656.0,224.0,32.0,3.0,249.0,2960.656
2960666.0,221.0,31.0,4.0,245.0,2960.666
2960676.0,221.0,31.0,4.0,245.0,2960.676
2960686.0,214.0,32.0,4.0,239.0,2960.686
2960696.0,221.0,32.0,3.0,249.0,2960.696
2960706.0,225.0,32.0,3.0,251.0,2960.706
2960716.0,221.0,30.0,4.0,246.0,2960.716
2960726.0,221.0,32.0,3.0,247.0,2960.726
2960736.0,217.0,31.0,3.0,242.0,2960.736
2960746.0,224.0,31.0,4.0,252.0,2960.746
2960756.0,228.0,31.0,4.0,253.0,2960.756
2960766.0,222.0,32.0,3.0,249.0,2960.766
2960776.0,224.0,31.0,4.0,249.0,2960.776
2960786.0,217.0,31.0,3.0,244.0,2960.786
2960796.0,227.0,31.0,4.0,253.0,2960.796
2960806.0,229.0,31.0,4.0,253.0,2960.806
2960816.0,225.0,31.0,4.0,249.0,2960.816
2960826.0,225.0,32.0,3.0,249.0,2960.826
2960836.0,219.0,31.0,3.0,244.0,2960.836
2960846.0,228.0,31.0,3.0,254.0,2960.846
2960856.0,229.0,32.0,3.0,255.0,2960.856
2960866.0,226.0,31.0,5.0,249.0,2960.866
2960876.0,224.0,31.0,2.0,249.0,2960.876
2960886.0,220.0,31.0,4.0,246.0,2960.886
2960896.0,224.0,31.0,2.0,252.0,2960.896
2960906.0,229.0,31.0,3.0,255.0,2960.906
2960916.0,225.0,31.0,3.0,250.0,2960.916
2960926.0,226.0,31.0,5.0,249.0,2960.926
2960936.0,222.0,31.0,4.0,248.0,2960.936
2960946.0,228.0,31.0,4.0,255.0,2960.946
2960956.0,230.0,32.0,4.0,257.0,2960.956
2960966.0,225.0,31.0,3.0,250.0,2960.966
2960976.0,225.0,31.0,3.0,249.0,2960.976
2960986.0,218.0,32.0,3.0,242.0,2960.986
2960996.0,227.0,31.0,4.0,254.0,2960.996
2961006.0,230.0,32.0,3.0,255.0,2961.006
2961016.0,224.0,30.0,4.0,249.0,2961.016
2961026.0,225.0,32.0,2.0,249.0,2961.026
2961036.0,219.0,30.0,4.0,244.0,2961.036
2961046.0,228.0,31.0,3.0,251.0,2961.046
2961056.0,231.0,31.0,5.0,251.0,2961.056
2961067.0,224.0,31.0,3.0,247.0,2961.067
2961077.0,226.0,31.0,4.0,248.0,2961.077
2961087.0,226.0,32.0,3.0,252.0,2961.087
2961097.0,231.0,31.0,4.0,259.0,2961.097
2961107.0,233.0,31.0,4.0,259.0,2961.107
2961117.0,226.0,31.0,4.0,252.0,2961.117
2961127.0,227.0,31.0,4.0,253.0,2961.127
2961137.0,228.0,31.0,4.0,256.0,2961.137
2961147.0,234.0,32.0,3.0,263.0,2961.147
2961157.0,237.0,32.0,3.0,262.0,2961.157
2961167.0,230.0,31.0,4.0,260.0,2961.167
2961177.0,231.0,32.0,3.0,262.0,2961.177
2961187.0,234.0,32.0,4.0,263.0,2961.187
2961197.0,236.0,31.0,4.0,266.0,2961.197
2961207.0,236.0,32.0,4.0,260.0,2961.207
2961217.0,232.0,33.0,3.0,261.0,2961.217
2961227.0,235.0,31.0,4.0,259.0,2961.227
2961238.0,237.0,32.0,3.0,266.0,2961.238
2961248.0,239.0,32.0,5.0,272.0,2961.248
2961258.0,236.0,31.0,4.0,266.0,2961.258
2961268.0,227.0,32.0,4.0,267.0,2961.268
2961278.0,235.0,32.0,3.0,277.0,2961.278
2961288.0,239.0,32.0,4.0,279.0,2961.288
2961298.0,242.0,32.0,4.0,278.0,2961.298
2961308.0,237.0,32.0,4.0,274.0,2961.308
2961318.0,231.0,31.0,4.0,261.0,2961.318
2961328.0,225.0,33.0,4.0,273.0,2961.328
2961338.0,237.0,33.0,4.0,281.0,2961.338
2961348.0,232.0,33.0,3.0,281.0,2961.348
2961358.0,236.0,32.0,4.0,279.0,2961.358
2961368.0,225.0,34.0,3.0,271.0,2961.368
2961378.0,228.0,33.0,4.0,267.0,2961.378
2961388.0,231.0,33.0,4.0,277.0,2961.388
2961398.0,220.0,32.0,4.0,270.0,2961.398
2961408.0,222.0,33.0,4.0,274.0,2961.408
2961418.0,215.0,32.0,3.0,272.0,2961.418
2961428.0,221.0,33.0,3.0,287.0,2961.428
2961438.0,229.0,33.0,5.0,300.0,2961.438
2961448.0,226.0,33.0,3.0,298.0,2961.448
2961458.0,229.0,33.0,4.0,305.0,2961.458
2961468.0,222.0,33.0,4.0,290.0,2961.468
2961478.0,226.0,33.0,3.0,284.0,2961.478
2961488.0,228.0,32.0,4.0,281.0,2961.488
2961498.0,224.0,33.0,3.0,272.0,2961.498
2961508.0,222.0,33.0,5.0,264.0,2961.508
2961518.0,216.0,33.0,4.0,265.0,2961.518
2961528.0,222.0,33.0,3.0,280.0,2961.528
2961538.0,224.0,33.0,4.0,281.0,2961.538
2961548.0,220.0,32.0,4.0,275.0,2961.548
2961558.0,221.0,33.0,4.0,271.0,2961.558
2961568.0,213.0,33.0,3.0,261.0,2961.568
2961579.0,222.0,32.0,4.0,283.0,2961.579
2961589.0,225.0,33.0,3.0,284.0,2961.589
2961599.0,224.0,33.0,3.0,270.0,2961.599
2961609.0,223.0,34.0,3.0,268.0,2961.609
2961619.0,218.0,33.0,3.0,267.0,2961.619
2961629.0,228.0,33.0,3.0,270.0,2961.629
2961639.0,231.0,33.0,4.0,261.0,2961.639
2961649.0,225.0,33.0,3.0,252.0,2961.649
2961659.0,221.0,33.0,3.0,248.0,2961.659
2961669.0,216.0,33.0,4.0,239.0,2961.669
2961679.0,221.0,32.0,4.0,250.0,2961.679
2961689.0,223.0,33.0,3.0,269.0,2961.689
2961699.0,222.0,33.0,4.0,264.0,2961.699
2961709.0,223.0,33.0,4.0,262.0,2961.709
2961719.0,217.0,32.0,4.0,256.0,2961.719
2961729.0,223.0,33.0,3.0,264.0,2961.729
2961739.0,227.0,32.0,3.0,257.0,2961.739
2961750.0,221.0,32.0,4.0,253.0,2961.75
2961760.0,225.0,33.0,4.0,259.0,2961.76
2961770.0,226.0,33.0,2.0,267.0,2961.77
2961780.0,236.0,33.0,4.0,272.0,2961.78
2961790.0,236.0,32.0,3.0,280.0,2961.79
2961800.0,229.0,33.0,3.0,270.0,2961.8
2961810.0,233.0,32.0,4.0,269.0,2961.81
2961820.0,236.0,32.0,4.0,274.0,2961.82
2961830.0,238.0,31.0,3.0,267.0,2961.83
2961840.0,237.0,33.0,4.0,264.0,2961.84
2961850.0,228.0,32.0,3.0,252.0,2961.85
2961860.0,228.0,33.0,3.0,256.0,2961.86
2961870.0,233.0,32.0,3.0,268.0,2961.87
2961880.0,235.0,33.0,3.0,267.0,2961.88
2961890.0,236.0,33.0,4.0,258.0,2961.89
2961900.0,226.0,31.0,4.0,248.0,2961.9
2961910.0,229.0,32.0,3.0,253.0,2961.91
2961920.0,227.0,33.0,3.0,250.0,2961.92
2961930.0,233.0,32.0,3.0,260.0,2961.93
2961940.0,234.0,32.0,4.0,259.0,2961.94
2961950.0,224.0,32.0,4.0,248.0,2961.95
2961960.0,224.0,31.0,4.0,246.0,2961.96
2961970.0,226.0,32.0,4.0,245.0,2961.97
2961980.0,229.0,32.0,3.0,245.0,2961.98
2961990.0,233.0,32.0,3.0,242.0,2961.99
2962000.0,223.0,32.0,4.0,229.0,2962.0
2962010.0,227.0,33.0,3.0,237.0,2962.01
2962020.0,230.0,32.0,5.0,249.0,2962.02
2962030.0,232.0,32.0,3.0,246.0,2962.03
2962040.0,228.0,32.0,3.0,242.0,2962.04
2962050.0,223.0,31.0,4.0,234.0,2962.05
2962060.0,222.0,32.0,3.0,231.0,2962.06
2962070.0,222.0,32.0,4.0,236.0,2962.07
2962080.0,226.0,32.0,4.0,245.0,2962.08
2962091.0,226.0,32.0,4.0,247.0,2962.091
2962101.0,219.0,32.0,4.0,244.0,2962.101
2962111.0,225.0,32.0,4.0,251.0,2962.111
2962121.0,231.0,32.0,3.0,255.0,2962.121
2962131.0,224.0,30.0,4.0,253.0,2962.131
2962141.0,226.0,33.0,3.0,258.0,2962.141
2962151.0,218.0,31.0,3.0,256.0,2962.151
2962161.0,220.0,32.0,3.0,269.0,2962.161
2962171.0,226.0,32.0,3.0,267.0,2962.171
2962181.0,220.0,31.0,2.0,257.0,2962.181
2962191.0,222.0,32.0,4.0,247.0,2962.191
2962201.0,215.0,32.0,3.0,233.0,2962.201
2962211.0,223.0,31.0,4.0,253.0,2962.211
2962221.0,226.0,32.0,4.0,259.0,2962.221
2962231.0,224.0,32.0,3.0,260.0,2962.231
2962241.0,226.0,32.0,4.0,265.0,2962.241
2962251.0,223.0,32.0,3.0,272.0,2962.251
2962262.0,230.0,32.0,3.0,275.0,2962.262
2962272.0,232.0,33.0,4.0,281.0,2962.272
2962282.0,229.0,32.0,4.0,267.0,2962.282
2962292.0,228.0,32.0,3.0,259.0,2962.292
2962302.0,224.0,32.0,4.0,249.0,2962.302
2962312.0,228.0,32.0,2.0,248.0,2962.312
2962322.0,230.0,32.0,4.0,250.0,2962.322
2962332.0,224.0,32.0,4.0,247.0,2962.332
2962342.0,223.0,32.0,4.0,253.0,2962.342
2962352.0,217.0,32.0,4.0,248.0,2962.352
2962362.0,223.0,32.0,3.0,251.0,2962.362
2962372.0,228.0,33.0,3.0,249.0,2962.372
2962382.0,223.0,32.0,4.0,241.0,2962.382
2962392.0,225.0,32.0,3.0,245.0,2962.392
2962402.0,217.0,32.0,2.0,239.0,2962.402
2962412.0,224.0,31.0,4.0,250.0,2962.412
2962422.0,226.0,33.0,3.0,257.0,2962.422
2962432.0,222.0,31.0,4.0,252.0,2962.432
2962442.0,224.0,33.0,3.0,246.0,2962.442
2962452.0,222.0,32.0,4.0,249.0,2962.452
2962462.0,228.0,32.0,4.0,258.0,2962.462
2962472.0,232.0,32.0,5.0,262.0,2962.472
2962482.0,224.0,31.0,4.0,255.0,2962.482
2962492.0,225.0,31.0,4.0,263.0,2962.492
2962502.0,218.0,33.0,3.0,256.0,2962.502
2962512.0,224.0,32.0,3.0,258.0,2962.512
2962522.0,226.0,33.0,3.0,259.0,2962.522
2962532.0,223.0,32.0,4.0,251.0,2962.532
2962542.0,223.0,31.0,4.0,255.0,2962.542
2962552.0,221.0,32.0,3.0,262.0,2962.552
2962562.0,226.0,31.0,4.0,270.0,2962.562
2962572.0,230.0,32.0,3.0,276.0,2962.572
2962582.0,221.0,32.0,4.0,267.0,2962.582
2962592.0,225.0,32.0,4.0,264.0,2962.592
2962603.0,223.0,32.0,4.0,251.0,2962.603
2962613.0,224.0,32.0,2.0,251.0,2962.613
2962623.0,225.0,32.0,4.0,247.0,2962.623
2962633.0,216.0,33.0,3.0,244.0,2962.633
2962643.0,227.0,32.0,4.0,245.0,2962.643
2962653.0,227.0,33.0,3.0,254.0,2962.653
2962663.0,231.0,32.0,5.0,253.0,2962.663
2962673.0,228.0,32.0,4.0,246.0,2962.673
2962683.0,217.0,32.0,4.0,230.0,2962.683
2962693.0,222.0,32.0,4.0,239.0,2962.693
2962703.0,223.0,32.0,3.0,246.0,2962.703
2962713.0,225.0,32.0,3.0,246.0,2962.713
2962723.0,224.0,33.0,4.0,246.0,2962.723
2962733.0,220.0,32.0,3.0,238.0,2962.733
2962743.0,222.0,33.0,4.0,241.0,2962.743
2962753.0,225.0,32.0,4.0,246.0,2962.753
2962763.0,226.0,33.0,3.0,247.0,2962.763
2962774.0,224.0,32.0,4.0,244.0,2962.774
2962784.0,216.0,32.0,4.0,235.0,2962.784
2962794.0,221.0,32.0,5.0,243.0,2962.794
2962804.0,226.0,33.0,2.0,251.0,2962.804
2962814.0,220.0,33.0,3.0,244.0,2962.814
2962824.0,223.0,33.0,4.0,246.0,2962.824
2962834.0,215.0,32.0,3.0,238.0,2962.834
2962844.0,221.0,33.0,3.0,247.0,2962.844
2962854.0,227.0,33.0,4.0,251.0,2962.854
2962864.0,222.0,33.0,3.0,247.0,2962.864
2962874.0,222.0,33.0,3.0,246.0,2962.874
2962884.0,214.0,33.0,4.0,237.0,2962.884
2962894.0,222.0,33.0,3.0,249.0,2962.894
2962904.0,224.0,33.0,3.0,251.0,2962.904
2962914.0,222.0,32.0,4.0,248.0,2962.914
2962924.0,222.0,32.0,4.0,249.0,2962.924
2962934.0,214.0,33.0,3.0,243.0,2962.934
2962944.0,221.0,32.0,5.0,251.0,2962.944
2962954.0,225.0,34.0,3.0,258.0,2962.954
2962964.0,221.0,32.0,4.0,250.0,2962.964
2962974.0,221.0,33.0,3.0,250.0,2962.974
2962984.0,215.0,33.0,4.0,243.0,2962.984
2962994.0,220.0,32.0,4.0,250.0,2962.994
2963004.0,225.0,33.0,3.0,255.0,2963.004
2963014.0,222.0,33.0,4.0,250.0,2963.014
2963024.0,221.0,33.0,3.0,249.0,2963.024
2963034.0,216.0,32.0,4.0,240.0,2963.034
2963044.0,221.0,32.0,3.0,249.0,2963.044
2963054.0,230.0,32.0,4.0,257.0,2963.054
2963064.0,226.0,32.0,3.0,258.0,2963.064
2963074.0,229.0,32.0,3.0,259.0,2963.074
2963084.0,219.0,33.0,3.0,245.0,2963.084
2963094.0,226.0,32.0,4.0,254.0,2963.094
2963104.0,232.0,33.0,4.0,259.0,2963.104
2963115.0,227.0,32.0,4.0,250.0,2963.115
2963125.0,224.0,33.0,4.0,251.0,2963.125
2963135.0,221.0,32.0,3.0,247.0,2963.135
2963145.0,228.0,33.0,3.0,254.0,2963.145
2963155.0,229.0,33.0,4.0,253.0,2963.155
2963165.0,225.0,32.0,4.0,247.0,2963.165
2963175.0,225.0,33.0,4.0,249.0,2963.175
2963185.0,222.0,32.0,4.0,247.0,2963.185
2963195.0,229.0,32.0,4.0,253.0,2963.195
2963205.0,230.0,33.0,4.0,255.0,2963.205
2963215.0,225.0,32.0,3.0,246.0,2963.215
2963225.0,225.0,32.0,4.0,247.0,2963.225
2963235.0,224.0,32.0,4.0,246.0,2963.235
2963245.0,228.0,32.0,4.0,252.0,2963.245
2963255.0,231.0,33.0,2.0,254.0,2963.255
2963265.0,226.0,32.0,4.0,245.0,2963.265
2963275.0,227.0,33.0,3.0,247.0,2963.275
2963286.0,227.0,32.0,4.0,247.0,2963.286
2963296.0,232.0,32.0,3.0,251.0,2963.296
2963306.0,229.0,33.0,5.0,249.0,2963.306
2963316.0,224.0,33.0,3.0,241.0,2963.316
2963326.0,226.0,32.0,4.0,246.0,2963.326
2963336.0,228.0,32.0,3.0,249.0,2963.336
2963346.0,233.0,33.0,3.0,250.0,2963.346
2963356.0,231.0,32.0,3.0,249.0,2963.356
2963366.0,226.0,32.0,4.0,239.0,2963.366
2963376.0,229.0,32.0,4.0,242.0,2963.376
2963386.0,231.0,33.0,4.0,246.0,2963.386
2963396.0,235.0,32.0,4.0,247.0,2963.396
2963406.0,232.0,33.0,3.0,246.0,2963.406
2963416.0,229.0,32.0,3.0,244.0,2963.416
2963426.0,229.0,33.0,4.0,247.0,2963.426
2963436.0,233.0,33.0,5.0,251.0,2963.436
2963446.0,234.0,33.0,3.0,251.0,2963.446
2963456.0,234.0,33.0,4.0,251.0,2963.456
2963466.0,228.0,33.0,3.0,244.0,2963.466
2963476.0,229.0,32.0,3.0,246.0,2963.476
2963486.0,233.0,32.0,3.0,252.0,2963.486
2963496.0,234.0,33.0,4.0,251.0,2963.496
2963506.0,233.0,32.0,4.0,252.0,2963.506
2963516.0,227.0,32.0,4.0,242.0,2963.516
2963526.0,228.0,33.0,3.0,248.0,2963.526
2963536.0,233.0,33.0,3.0,254.0,2963.536
2963546.0,233.0,32.0,4.0,253.0,2963.546
2963556.0,231.0,32.0,3.0,251.0,2963.556
2963566.0,226.0,31.0,3.0,242.0,2963.566
2963576.0,226.0,32.0,3.0,246.0,2963.576
2963586.0,230.0,32.0,4.0,249.0,2963.586
2963596.0,233.0,33.0,3.0,252.0,2963.596
2963606.0,230.0,32.0,4.0,248.0,2963.606
2963616.0,224.0,31.0,3.0,239.0,2963.616
2963627.0,228.0,32.0,4.0,246.0,2963.627
2963637.0,233.0,31.0,4.0,251.0,2963.637
2963647.0,229.0,32.0,3.0,247.0,2963.647
2963657.0,227.0,33.0,3.0,247.0,2963.657
2963667.0,221.0,32.0,3.0,240.0,2963.667
2963677.0,226.0,32.0,4.0,247.0,2963.677
2963687.0,231.0,32.0,4.0,252.0,2963.687
2963697.0,229.0,31.0,4.0,247.0,2963.697
2963707.0,226.0,32.0,3.0,246.0,2963.707
2963717.0,221.0,31.0,4.0,239.0,2963.717
2963727.0,226.0,33.0,3.0,247.0,2963.727
2963737.0,231.0,32.0,4.0,251.0,2963.737
2963747.0,227.0,32.0,3.0,245.0,2963.747
2963757.0,227.0,32.0,4.0,245.0,2963.757
2963767.0,220.0,31.0,4.0,237.0,2963.767
2963777.0,227.0,31.0,3.0,247.0,2963.777
2963787.0,230.0,33.0,3.0,251.0,2963.787
2963798.0,225.0,31.0,3.0,245.0,2963.798
2963808.0,225.0,32.0,3.0,245.0,2963.808
2963818.0,222.0,32.0,4.0,244.0,2963.818
2963828.0,229.0,31.0,4.0,252.0,2963.828
2963838.0,229.0,32.0,4.0,251.0,2963.838
2963848.0,225.0,31.0,3.0,247.0,2963.848
2963858.0,224.0,32.0,3.0,247.0,2963.858
2963868.0,222.0,32.0,4.0,246.0,2963.868
2963878.0,228.0,32.0,3.0,253.0,2963.878
2963888.0,230.0,32.0,3.0,252.0,2963.888
2963898.0,222.0,32.0,3.0,244.0,2963.898
2963908.0,223.0,32.0,4.0,245.0,2963.908
2963918.0,222.0,33.0,3.0,249.0,2963.918
2963928.0,226.0,32.0,4.0,253.0,2963.928
2963938.0,229.0,32.0,4.0,253.0,2963.938
2963948.0,222.0,32.0,5.0,247.0,2963.948
2963958.0,222.0,32.0,4.0,247.0,2963.958
2963968.0,219.0,32.0,5.0,243.0,2963.968
2963978.0,226.0,32.0,3.0,252.0,2963.978
2963988.0,227.0,32.0,3.0,250.0,2963.988
2963998.0,220.0,32.0,4.0,243.0,2963.998
2964008.0,221.0,32.0,4.0,245.0,2964.008
2964018.0,218.0,32.0,4.0,243.0,2964.018
2964028.0,225.0,32.0,3.0,252.0,2964.028
2964038.0,227.0,32.0,4.0,250.0,2964.038
2964048.0,219.0,33.0,3.0,243.0,2964.048
2964058.0,222.0,32.0,4.0,245.0,2964.058
2964068.0,219.0,32.0,4.0,245.0,2964.068
2964078.0,226.0,31.0,5.0,251.0,2964.078
2964088.0,226.0,32.0,4.0,249.0,2964.088
2964098.0,220.0,32.0,3.0,246.0,2964.098
2964108.0,220.0,33.0,4.0,246.0,2964.108
2964118.0,218.0,32.0,3.0,244.0,2964.118
2964128.0,224.0,32.0,3.0,249.0,2964.128
2964139.0,225.0,32.0,4.0,247.0,2964.139
2964149.0,217.0,31.0,4.0,240.0,2964.149
2964159.0,219.0,32.0,4.0,242.0,2964.159
2964169.0,224.0,33.0,3.0,251.0,2964.169
2964179.0,223.0,33.0,3.0,248.0,2964.179
2964189.0,224.0,32.0,4.0,247.0,2964.189
2964199.0,215.0,32.0,4.0,240.0,2964.199
2964209.0,220.0,31.0,5.0,245.0,2964.209
2964219.0,224.0,32.0,4.0,251.0,2964.219
2964229.0,225.0,32.0,5.0,250.0,2964.229
2964239.0,224.0,33.0,3.0,248.0,2964.239
2964249.0,215.0,32.0,3.0,240.0,2964.249
2964259.0,219.0,33.0,3.0,246.0,2964.259
2964269.0,221.0,32.0,3.0,248.0,2964.269
2964279.0,223.0,31.0,4.0,250.0,2964.279
2964289.0,223.0,33.0,3.0,247.0,2964.289
2964299.0,214.0,33.0,4.0,239.0,2964.299
2964310.0,219.0,32.0,3.0,246.0,2964.31
2964320.0,225.0,32.0,4.0,251.0,2964.32
2964330.0,221.0,32.0,4.0,246.0,2964.33
2964340.0,221.0,32.0,4.0,245.0,2964.34
2964350.0,214.0,33.0,3.0,241.0,2964.35
2964360.0,221.0,32.0,4.0,246.0,2964.36
2964370.0,225.0,33.0,3.0,251.0,2964.37
2964380.0,220.0,32.0,3.0,245.0,2964.38
2964390.0,221.0,32.0,4.0,244.0,2964.39
2964400.0,214.0,32.0,3.0,237.0,2964.4
2964410.0,221.0,31.0,4.0,246.0,2964.41
2964420.0,227.0,32.0,4.0,249.0,2964.42
2964430.0,220.0,33.0,3.0,246.0,2964.43
2964440.0,223.0,32.0,3.0,245.0,2964.44
2964450.0,214.0,32.0,4.0,238.0,2964.45
2964460.0,222.0,32.0,4.0,248.0,2964.46
2964470.0,226.0,33.0,4.0,250.0,2964.47
2964480.0,221.0,32.0,4.0,248.0,2964.48
2964490.0,221.0,32.0,4.0,246.0,2964.49
2964500.0,213.0,33.0,3.0,239.0,2964.5
2964510.0,222.0,32.0,4.0,249.0,2964.51
2964520.0,226.0,32.0,4.0,251.0,2964.52
2964530.0,220.0,32.0,4.0,248.0,2964.53
2964540.0,221.0,32.0,4.0,247.0,2964.54
2964550.0,213.0,32.0,4.0,241.0,2964.55
2964560.0,222.0,33.0,3.0,251.0,2964.56
2964570.0,226.0,33.0,3.0,252.0,2964.57
2964580.0,221.0,32.0,4.0,247.0,2964.58
2964590.0,221.0,32.0,5.0,245.0,2964.59
2964600.0,215.0,31.0,4.0,241.0,2964.6
2964610.0,220.0,32.0,5.0,247.0,2964.61
2964620.0,226.0,33.0,3.0,252.0,2964.62
2964630.0,221.0,32.0,3.0,246.0,2964.63
2964640.0,221.0,32.0,3.0,246.0,2964.64
2964651.0,215.0,32.0,4.0,242.0,2964.651
2964661.0,224.0,31.0,4.0,251.0,2964.661
2964671.0,225.0,33.0,4.0,250.0,2964.671
2964681.0,217.0,32.0,4.0,242.0,2964.681
2964691.0,219.0,33.0,3.0,244.0,2964.691
2964701.0,217.0,32.0,4.0,243.0,2964.701
2964711.0,224.0,32.0,4.0,250.0,2964.711
2964721.0,226.0,32.0,5.0,248.0,2964.721
2964731.0,216.0,31.0,4.0,242.0,2964.731
2964741.0,220.0,33.0,5.0,245.0,2964.741
2964751.0,217.0,33.0,3.0,245.0,2964.751
2964761.0,223.0,32.0,4.0,252.0,2964.761
2964771.0,225.0,33.0,3.0,249.0,2964.771
2964781.0,218.0,32.0,3.0,244.0,2964.781
2964791.0,220.0,32.0,3.0,244.0,2964.791
2964801.0,218.0,33.0,3.0,246.0,2964.801
2964811.0,223.0,32.0,4.0,249.0,2964.811
2964822.0,224.0,33.0,3.0,248.0,2964.822
2964832.0,215.0,32.0,3.0,240.0,2964.832
2964842.0,217.0,32.0,4.0,243.0,2964.842
2964852.0,224.0,33.0,4.0,248.0,2964.852
2964862.0,221.0,33.0,3.0,246.0,2964.862
2964872.0,226.0,33.0,4.0,244.0,2964.872
2964882.0,214.0,33.0,3.0,236.0,2964.882
2964892.0,219.0,32.0,4.0,240.0,2964.892
2964902.0,225.0,33.0,3.0,247.0,2964.902
2964912.0,222.0,32.0,3.0,246.0,2964.912
2964922.0,223.0,33.0,4.0,243.0,2964.922
2964932.0,214.0,32.0,3.0,236.0,2964.932
2964942.0,218.0,33.0,3.0,243.0,2964.942
2964952.0,221.0,32.0,4.0,245.0,2964.952
2964962.0,222.0,32.0,4.0,245.0,2964.962
2964972.0,223.0,33.0,3.0,243.0,2964.972
2964982.0,213.0,31.0,3.0,235.0,2964.982
2964992.0,217.0,32.0,3.0,241.0,2964.992
2965002.0,221.0,32.0,4.0,246.0,2965.002
2965012.0,220.0,33.0,3.0,246.0,2965.012
2965022.0,222.0,32.0,4.0,242.0,2965.022
2965032.0,212.0,32.0,4.0,235.0,2965.032
2965042.0,218.0,32.0,4.0,240.0,2965.042
2965052.0,223.0,33.0,4.0,246.0,2965.052
2965062.0,220.0,32.0,3.0,244.0,2965.062
2965072.0,222.0,33.0,3.0,243.0,2965.072
2965082.0,213.0,32.0,3.0,237.0,2965.082
2965092.0,217.0,32.0,4.0,240.0,2965.092
2965102.0,221.0,33.0,4.0,246.0,2965.102
2965112.0,219.0,32.0,3.0,244.0,2965.112
2965122.0,222.0,33.0,3.0,244.0,2965.122
2965132.0,212.0,32.0,3.0,236.0,2965.132
2965142.0,215.0,33.0,3.0,241.0,2965.142
2965152.0,222.0,33.0,4.0,246.0,2965.152
2965163.0,217.0,32.0,4.0,243.0,2965.163
2965173.0,220.0,33.0,4.0,241.0,2965.173
2965183.0,210.0,32.0,3.0,235.0,2965.183
2965193.0,219.0,32.0,4.0,244.0,2965.193
2965203.0,224.0,34.0,3.0,247.0,2965.203
2965213.0,217.0,32.0,4.0,241.0,2965.213
2965223.0,219.0,32.0,4.0,240.0,2965.223
2965233.0,212.0,33.0,4.0,236.0,2965.233
2965243.0,219.0,33.0,3.0,246.0,2965.243
2965253.0,224.0,33.0,4.0,248.0,2965.253
2965263.0,217.0,32.0,3.0,243.0,2965.263
2965273.0,219.0,33.0,3.0,241.0,2965.273
2965283.0,211.0,32.0,4.0,238.0,2965.283
2965293.0,218.0,33.0,3.0,243.0,2965.293
2965303.0,225.0,33.0,5.0,247.0,2965.303
2965313.0,216.0,33.0,4.0,242.0,2965.313
2965323.0,218.0,33.0,4.0,241.0,2965.323
2965334.0,212.0,34.0,3.0,240.0,2965.334
2965344.0,221.0,32.0,4.0,246.0,2965.344
2965354.0,223.0,33.0,3.0,245.0,2965.354
2965364.0,213.0,32.0,5.0,239.0,2965.364
2965374.0,215.0,32.0,4.0,239.0,2965.374
2965384.0,213.0,32.0,4.0,239.0,2965.384
2965394.0,220.0,33.0,3.0,247.0,2965.394
2965404.0,222.0,33.0,4.0,244.0,2965.404
2965414.0,211.0,32.0,4.0,238.0,2965.414
2965424.0,216.0,33.0,4.0,241.0,2965.424
2965434.0,214.0,32.0,4.0,241.0,2965.434
2965444.0,220.0,32.0,3.0,246.0,2965.444
2965454.0,221.0,32.0,4.0,244.0,2965.454
2965464.0,214.0,32.0,2.0,240.0,2965.464
2965474.0,216.0,32.0,3.0,240.0,2965.474
2965484.0,215.0,33.0,3.0,242.0,2965.484
2965494.0,220.0,32.0,4.0,247.0,2965.494
2965504.0,221.0,33.0,4.0,246.0,2965.504
2965514.0,213.0,32.0,3.0,240.0,2965.514
2965524.0,215.0,33.0,3.0,241.0,2965.524
2965534.0,216.0,33.0,3.0,243.0,2965.534
2965544.0,218.0,32.0,4.0,246.0,2965.544
2965554.0,222.0,34.0,3.0,246.0,2965.554
2965564.0,213.0,33.0,3.0,239.0,2965.564
2965574.0,215.0,33.0,4.0,239.0,2965.574
2965584.0,217.0,33.0,4.0,245.0,2965.584
2965594.0,219.0,32.0,4.0,247.0,2965.594
2965604.0,222.0,32.0,4.0,245.0,2965.604
2965614.0,212.0,32.0,4.0,238.0,2965.614
2965624.0,215.0,32.0,4.0,239.0,2965.624
2965634.0,212.0,33.0,3.0,239.0,2965.634
2965644.0,219.0,32.0,4.0,245.0,2965.644
2965654.0,221.0,34.0,3.0,243.0,2965.654
2965664.0,211.0,33.0,4.0,236.0,2965.664
2965675.0,214.0,32.0,4.0,239.0,2965.675
2965685.0,219.0,33.0,4.0,244.0,2965.685
2965695.0,218.0,32.0,4.0,244.0,2965.695
2965705.0,217.0,33.0,4.0,241.0,2965.705
2965715.0,209.0,33.0,3.0,234.0,2965.715
2965725.0,214.0,33.0,3.0,238.0,2965.725
2965735.0,219.0,32.0,4.0,245.0,2965.735
2965745.0,217.0,32.0,4.0,243.0,2965.745
2965755.0,218.0,33.0,4.0,240.0,2965.755
2965765.0,210.0,33.0,2.0,235.0,2965.765
2965775.0,214.0,32.0,4.0,239.0,2965.775
2965785.0,219.0,34.0,3.0,246.0,2965.785
2965795.0,218.0,32.0,3.0,244.0,2965.795
2965805.0,219.0,33.0,3.0,243.0,2965.805
2965815.0,211.0,32.0,4.0,236.0,2965.815
2965825.0,214.0,33.0,2.0,241.0,2965.825
2965835.0,220.0,32.0,4.0,246.0,2965.835
2965846.0,216.0,33.0,3.0,244.0,2965.846
2965856.0,217.0,32.0,4.0,241.0,2965.856
2965866.0,209.0,32.0,4.0,235.0,2965.866
2965876.0,218.0,32.0,4.0,245.0,2965.876
2965886.0,222.0,32.0,4.0,245.0,2965.886
2965896.0,217.0,32.0,5.0,242.0,2965.896
2965906.0,216.0,33.0,3.0,241.0,2965.906
2965916.0,210.0,32.0,3.0,237.0,2965.916
2965926.0,218.0,32.0,3.0,246.0,2965.926
2965936.0,221.0,33.0,4.0,247.0,2965.936
2965946.0,217.0,31.0,4.0,243.0,2965.946
2965956.0,218.0,32.0,4.0,241.0,2965.956
2965966.0,212.0,32.0,4.0,237.0,2965.966
2965976.0,217.0,33.0,3.0,243.0,2965.976
2965986.0,222.0,32.0,4.0,246.0,2965.986
2965996.0,216.0,32.0,3.0,242.0,2965.996
2966006.0,218.0,32.0,5.0,240.0,2966.006
2966016.0,210.0,32.0,3.0,234.0,2966.016
2966026.0,218.0,32.0,3.0,243.0,2966.026
2966036.0,222.0,33.0,3.0,247.0,2966.036
2966046.0,215.0,32.0,3.0,240.0,2966.046
2966056.0,216.0,32.0,4.0,240.0,2966.056
2966066.0,209.0,33.0,3.0,235.0,2966.066
2966076.0,219.0,31.0,4.0,244.0,2966.076
2966086.0,221.0,33.0,2.0,246.0,2966.086
2966096.0,215.0,32.0,4.0,239.0,2966.096
2966106.0,216.0,33.0,3.0,240.0,2966.106
2966116.0,210.0,32.0,3.0,236.0,2966.116
2966126.0,218.0,32.0,4.0,245.0,2966.126
2966136.0,223.0,33.0,4.0,246.0,2966.136
2966146.0,217.0,33.0,3.0,242.0,2966.146
2966156.0,218.0,33.0,4.0,240.0,2966.156
2966166.0,212.0,33.0,3.0,237.0,2966.166
2966176.0,219.0,33.0,3.0,246.0,2966.176
2966187.0,223.0,33.0,3.0,245.0,2966.187
2966197.0,215.0,32.0,4.0,239.0,2966.197
2966207.0,217.0,33.0,4.0,239.0,2966.207
2966217.0,218.0,33.0,4.0,244.0,2966.217
2966227.0,220.0,32.0,3.0,246.0,2966.227
2966237.0,222.0,33.0,4.0,245.0,2966.237
2966247.0,214.0,32.0,4.0,238.0,2966.247
2966257.0,215.0,32.0,4.0,239.0,2966.257
2966267.0,219.0,33.0,5.0,243.0,2966.267
2966277.0,220.0,33.0,4.0,245.0,2966.277
2966287.0,221.0,33.0,4.0,243.0,2966.287
2966297.0,213.0,33.0,3.0,238.0,2966.297
2966307.0,215.0,32.0,3.0,238.0,2966.307
2966317.0,215.0,32.0,3.0,239.0,2966.317
2966327.0,221.0,32.0,5.0,243.0,2966.327
2966337.0,221.0,33.0,3.0,241.0,2966.337
2966347.0,214.0,33.0,3.0,235.0,2966.347
2966358.0,216.0,33.0,3.0,238.0,2966.358
2966368.0,221.0,33.0,3.0,243.0,2966.368
2966378.0,221.0,32.0,3.0,243.0,2966.378
2966388.0,219.0,33.0,4.0,240.0,2966.388
2966398.0,213.0,31.0,4.0,233.0,2966.398
2966408.0,215.0,33.0,2.0,239.0,2966.408
2966418.0,222.0,32.0,4.0,244.0,2966.418
2966428.0,221.0,33.0,3.0,243.0,2966.428
2966438.0,219.0,32.0,3.0,240.0,2966.438
2966448.0,214.0,34.0,3.0,236.0,2966.448
2966458.0,218.0,32.0,5.0,240.0,2966.458
2966468.0,222.0,32.0,4.0,246.0,2966.468
2966478.0,220.0,32.0,4.0,243.0,2966.478
2966488.0,220.0,33.0,4.0,242.0,2966.488
2966498.0,213.0,32.0,3.0,236.0,2966.498
2966508.0,217.0,32.0,4.0,241.0,2966.508
2966518.0,223.0,32.0,4.0,246.0,2966.518
2966528.0,222.0,33.0,4.0,246.0,2966.528
2966538.0,220.0,33.0,3.0,242.0,2966.538
2966548.0,213.0,33.0,4.0,236.0,2966.548
2966558.0,217.0,33.0,3.0,242.0,2966.558
2966568.0,223.0,32.0,3.0,246.0,2966.568
2966578.0,221.0,33.0,3.0,245.0,2966.578
2966588.0,220.0,32.0,5.0,242.0,2966.588
2966598.0,212.0,33.0,2.0,236.0,2966.598
2966608.0,218.0,33.0,3.0,243.0,2966.608
2966618.0,221.0,33.0,2.0,246.0,2966.618
2966628.0,221.0,32.0,4.0,244.0,2966.628
2966638.0,219.0,32.0,3.0,241.0,2966.638
2966648.0,211.0,33.0,4.0,235.0,2966.648
2966658.0,216.0,32.0,3.0,240.0,2966.658
2966668.0,221.0,32.0,4.0,247.0,2966.668
2966678.0,220.0,33.0,3.0,245.0,2966.678
2966688.0,218.0,32.0,3.0,241.0,2966.688
2966699.0,211.0,32.0,4.0,235.0,2966.699
2966709.0,218.0,32.0,4.0,246.0,2966.709
2966719.0,223.0,33.0,4.0,247.0,2966.719
2966729.0,216.0,32.0,4.0,241.0,2966.729
2966739.0,217.0,32.0,4.0,241.0,2966.739
2966749.0,210.0,32.0,3.0,237.0,2966.749
2966759.0,219.0,32.0,3.0,246.0,2966.759
2966769.0,221.0,33.0,3.0,247.0,2966.769
2966779.0,217.0,31.0,5.0,241.0,2966.779
2966789.0,217.0,32.0,4.0,241.0,2966.789
2966799.0,211.0,32.0,3.0,237.0,2966.799
2966809.0,220.0,33.0,3.0,246.0,2966.809
2966819.0,222.0,33.0,3.0,244.0,2966.819
2966829.0,218.0,32.0,3.0,243.0,2966.829
2966839.0,217.0,33.0,4.0,241.0,2966.839
2966849.0,212.0,33.0,3.0,238.0,2966.849
2966859.0,220.0,33.0,3.0,246.0,2966.859
2966870.0,222.0,33.0,4.0,246.0,2966.87
2966880.0,213.0,32.0,3.0,241.0,2966.88
2966890.0,216.0,32.0,4.0,241.0,2966.89
2966900.0,217.0,32.0,4.0,245.0,2966.9
2966910.0,220.0,31.0,4.0,246.0,2966.91
2966920.0,221.0,32.0,4.0,246.0,2966.92
2966930.0,213.0,32.0,4.0,239.0,2966.93
2966940.0,215.0,33.0,3.0,242.0,2966.94
2966950.0,218.0,32.0,4.0,246.0,2966.95
2966960.0,219.0,33.0,3.0,249.0,2966.96
2966970.0,221.0,33.0,5.0,245.0,2966.97
2966980.0,213.0,31.0,4.0,239.0,2966.98
2966990.0,215.0,32.0,3.0,241.0,2966.99
2967000.0,215.0,32.0,4.0,243.0,2967.0
2967010.0,219.0,33.0,3.0,247.0,2967.01
2967020.0,221.0,32.0,4.0,243.0,2967.02
2967030.0,212.0,32.0,4.0,237.0,2967.03
2967040.0,217.0,32.0,5.0,240.0,2967.04
2967050.0,215.0,32.0,4.0,241.0,2967.05
2967060.0,220.0,32.0,4.0,245.0,2967.06
2967070.0,221.0,33.0,3.0,242.0,2967.07
2967080.0,213.0,32.0,4.0,235.0,2967.08
2967090.0,216.0,32.0,4.0,240.0,2967.09
2967100.0,219.0,32.0,4.0,243.0,2967.1
2967110.0,220.0,31.0,4.0,246.0,2967.11
2967120.0,220.0,32.0,3.0,242.0,2967.12
2967130.0,214.0,31.0,2.0,239.0,2967.13
2967140.0,217.0,32.0,3.0,240.0,2967.14
2967150.0,219.0,32.0,4.0,244.0,2967.15
2967160.0,220.0,32.0,4.0,246.0,2967.16
2967170.0,222.0,31.0,4.0,245.0,2967.17
2967180.0,213.0,32.0,3.0,238.0,2967.18
2967190.0,215.0,32.0,4.0,239.0,2967.19
2967200.0,219.0,33.0,3.0,246.0,2967.2
2967211.0,219.0,32.0,3.0,245.0,2967.211
2967221.0,219.0,32.0,4.0,242.0,2967.221
2967231.0,212.0,31.0,4.0,235.0,2967.231
2967241.0,216.0,33.0,2.0,243.0,2967.241
2967251.0,222.0,32.0,4.0,246.0,2967.251
2967261.0,218.0,31.0,4.0,244.0,2967.261
2967271.0,217.0,32.0,3.0,240.0,2967.271
2967281.0,209.0,31.0,4.0,233.0,2967.281
2967291.0,217.0,32.0,4.0,242.0,2967.291
2967301.0,219.0,32.0,3.0,245.0,2967.301
2967311.0,218.0,32.0,3.0,241.0,2967.311
2967321.0,217.0,33.0,3.0,240.0,2967.321
2967331.0,209.0,32.0,3.0,232.0,2967.331
2967341.0,215.0,32.0,4.0,238.0,2967.341
2967351.0,220.0,32.0,4.0,244.0,2967.351
2967361.0,219.0,31.0,5.0,241.0,2967.361
2967371.0,216.0,32.0,2.0,240.0,2967.371
2967382.0,210.0,31.0,4.0,232.0,2967.382
2967392.0,218.0,32.0,3.0,242.0,2967.392
2967402.0,221.0,32.0,3.0,244.0,2967.402
2967412.0,216.0,31.0,4.0,238.0,2967.412
2967422.0,217.0,32.0,4.0,238.0,2967.422
2967432.0,211.0,32.0,3.0,234.0,2967.432
2967442.0,220.0,32.0,4.0,244.0,2967.442
2967452.0,222.0,33.0,3.0,245.0,2967.452
2967462.0,215.0,32.0,3.0,238.0,2967.462
2967472.0,217.0,32.0,4.0,239.0,2967.472
2967482.0,212.0,32.0,4.0,235.0,2967.482
2967492.0,221.0,31.0,3.0,244.0,2967.492
2967502.0,222.0,32.0,4.0,243.0,2967.502
2967512.0,219.0,31.0,4.0,239.0,2967.512
2967522.0,218.0,33.0,3.0,239.0,2967.522
2967532.0,214.0,32.0,4.0,236.0,2967.532
2967542.0,221.0,32.0,3.0,244.0,2967.542
2967552.0,222.0,32.0,5.0,243.0,2967.552
2967562.0,218.0,31.0,4.0,239.0,2967.562
2967572.0,217.0,33.0,3.0,239.0,2967.572
2967582.0,214.0,33.0,3.0,239.0,2967.582
2967592.0,221.0,32.0,4.0,244.0,2967.592
2967602.0,222.0,32.0,4.0,244.0,2967.602
2967612.0,217.0,32.0,4.0,239.0,2967.612
2967622.0,217.0,31.0,4.0,239.0,2967.622
2967632.0,215.0,32.0,4.0,239.0,2967.632
2967642.0,219.0,32.0,4.0,243.0,2967.642
2967652.0,222.0,33.0,3.0,244.0,2967.652
2967662.0,217.0,31.0,3.0,238.0,2967.662
2967672.0,217.0,33.0,3.0,239.0,2967.672
2967682.0,213.0,33.0,4.0,235.0,2967.682
2967692.0,221.0,32.0,4.0,244.0,2967.692
2967702.0,223.0,32.0,4.0,244.0,2967.702
2967712.0,217.0,33.0,3.0,237.0,2967.712
2967723.0,218.0,32.0,3.0,237.0,2967.723
2967733.0,219.0,32.0,4.0,240.0,2967.733
2967743.0,222.0,32.0,3.0,243.0,2967.743
2967753.0,221.0,32.0,2.0,241.0,2967.753
2967763.0,214.0,32.0,3.0,234.0,2967.763
2967773.0,217.0,33.0,4.0,238.0,2967.773
2967783.0,219.0,32.0,3.0,241.0,2967.783
2967793.0,221.0,32.0,4.0,243.0,2967.793
2967803.0,220.0,33.0,4.0,240.0,2967.803
2967813.0,215.0,32.0,4.0,235.0,2967.813
2967823.0,216.0,33.0,4.0,237.0,2967.823
2967833.0,220.0,32.0,4.0,241.0,2967.833
2967843.0,221.0,33.0,3.0,241.0,2967.843
2967853.0,221.0,33.0,3.0,241.0,2967.853
2967863.0,215.0,33.0,4.0,233.0,2967.863
2967873.0,217.0,33.0,4.0,235.0,2967.873
2967883.0,220.0,33.0,2.0,241.0,2967.883
2967894.0,220.0,32.0,4.0,240.0,2967.894
2967904.0,218.0,34.0,3.0,239.0,2967.904
2967914.0,211.0,32.0,4.0,230.0,2967.914
2967924.0,217.0,32.0,3.0,240.0,2967.924
2967934.0,223.0,33.0,4.0,243.0,2967.934
2967944.0,221.0,32.0,4.0,240.0,2967.944
2967954.0,219.0,32.0,4.0,238.0,2967.954
2967964.0,212.0,33.0,4.0,231.0,2967.964
2967974.0,218.0,33.0,3.0,240.0,2967.974
2967984.0,222.0,32.0,3.0,243.0,2967.984
2967994.0,220.0,33.0,3.0,240.0,2967.994
2968004.0,219.0,33.0,4.0,238.0,2968.004
2968014.0,212.0,32.0,3.0,231.0,2968.014
2968024.0,217.0,33.0,4.0,237.0,2968.024
2968034.0,222.0,33.0,3.0,243.0,2968.034
2968044.0,221.0,32.0,4.0,238.0,2968.044
2968054.0,219.0,32.0,3.0,237.0,2968.054
2968064.0,213.0,33.0,4.0,230.0,2968.064
2968074.0,218.0,33.0,3.0,237.0,2968.074
2968084.0,223.0,33.0,4.0,242.0,2968.084
2968094.0,220.0,33.0,3.0,238.0,2968.094
2968104.0,219.0,32.0,4.0,237.0,2968.104
2968114.0,213.0,32.0,4.0,231.0,2968.114
2968124.0,219.0,32.0,4.0,239.0,2968.124
2968134.0,224.0,31.0,4.0,243.0,2968.134
2968144.0,220.0,33.0,3.0,237.0,2968.144
2968154.0,220.0,33.0,4.0,238.0,2968.154
2968164.0,213.0,33.0,3.0,232.0,2968.164
2968174.0,219.0,32.0,4.0,240.0,2968.174
2968184.0,224.0,33.0,3.0,243.0,2968.184
2968194.0,222.0,32.0,3.0,240.0,2968.194
2968204.0,220.0,32.0,2.0,238.0,2968.204
2968214.0,214.0,32.0,4.0,231.0,2968.214
2968224.0,220.0,34.0,3.0,240.0,2968.224
2968235.0,223.0,33.0,4.0,243.0,2968.235
2968245.0,220.0,32.0,3.0,236.0,2968.245
2968255.0,218.0,33.0,4.0,236.0,2968.255
2968265.0,217.0,33.0,4.0,236.0,2968.265
2968275.0,223.0,33.0,4.0,241.0,2968.275
2968285.0,224.0,33.0,3.0,243.0,2968.285
2968295.0,218.0,33.0,3.0,235.0,2968.295
2968305.0,218.0,32.0,4.0,236.0,2968.305
2968315.0,217.0,33.0,4.0,236.0,2968.315
2968325.0,223.0,32.0,5.0,240.0,2968.325
2968335.0,224.0,33.0,4.0,242.0,2968.335
2968345.0,217.0,32.0,4.0,233.0,2968.345
2968355.0,218.0,34.0,3.0,236.0,2968.355
2968365.0,213.0,33.0,4.0,231.0,2968.365
2968375.0,221.0,32.0,4.0,241.0,2968.375
2968385.0,224.0,33.0,5.0,241.0,2968.385
2968395.0,217.0,31.0,4.0,233.0,2968.395
2968406.0,217.0,32.0,4.0,235.0,2968.406
2968416.0,219.0,33.0,3.0,239.0,2968.416
2968426.0,221.0,33.0,3.0,239.0,2968.426
2968436.0,220.0,32.0,3.0,236.0,2968.436
2968446.0,213.0,33.0,4.0,230.0,2968.446
2968456.0,217.0,32.0,4.0,235.0,2968.456
2968466.0,220.0,32.0,2.0,238.0,2968.466
2968476.0,221.0,32.0,4.0,239.0,2968.476
2968486.0,219.0,34.0,3.0,238.0,2968.486
2968496.0,215.0,32.0,4.0,233.0,2968.496
2968506.0,217.0,32.0,3.0,235.0,2968.506
2968516.0,221.0,33.0,4.0,241.0,2968.516
2968526.0,220.0,33.0,4.0,239.0,2968.526
2968536.0,222.0,33.0,4.0,238.0,2968.536
2968546.0,214.0,33.0,3.0,232.0,2968.546
2968556.0,216.0,32.0,4.0,234.0,2968.556
2968566.0,221.0,33.0,3.0,241.0,2968.566
2968576.0,220.0,32.0,3.0,239.0,2968.576
2968586.0,221.0,33.0,4.0,238.0,2968.586
2968596.0,213.0,33.0,3.0,229.0,2968.596
2968606.0,214.0,33.0,4.0,234.0,2968.606
2968616.0,220.0,33.0,3.0,241.0,2968.616
2968626.0,220.0,33.0,4.0,240.0,2968.626
2968636.0,219.0,33.0,4.0,238.0,2968.636
2968646.0,213.0,33.0,5.0,230.0,2968.646
2968656.0,214.0,33.0,4.0,235.0,2968.656
2968666.0,217.0,33.0,4.0,237.0,2968.666
2968676.0,220.0,33.0,3.0,240.0,2968.676
2968686.0,219.0,32.0,4.0,237.0,2968.686
2968696.0,212.0,32.0,4.0,229.0,2968.696
2968706.0,216.0,33.0,5.0,234.0,2968.706
2968716.0,218.0,33.0,4.0,239.0,2968.716
2968726.0,220.0,33.0,4.0,240.0,2968.726
2968736.0,218.0,33.0,4.0,239.0,2968.736
2968747.0,211.0,33.0,3.0,230.0,2968.747
2968757.0,216.0,33.0,3.0,237.0,2968.757
2968767.0,221.0,33.0,4.0,242.0,2968.767
2968777.0,218.0,33.0,4.0,235.0,2968.777
2968787.0,218.0,33.0,4.0,236.0,2968.787
2968797.0,211.0,33.0,4.0,228.0,2968.797
2968807.0,217.0,34.0,3.0,236.0,2968.807
2968817.0,223.0,32.0,4.0,240.0,2968.817
2968827.0,217.0,33.0,3.0,234.0,2968.827
2968837.0,220.0,33.0,4.0,236.0,2968.837
2968847.0,211.0,33.0,4.0,228.0,2968.847
2968857.0,218.0,33.0,4.0,236.0,2968.857
2968867.0,223.0,33.0,3.0,241.0,2968.867
2968877.0,219.0,33.0,3.0,236.0,2968.877
2968887.0,218.0,32.0,4.0,235.0,2968.887
2968897.0,211.0,32.0,5.0,227.0,2968.897
2968907.0,219.0,33.0,3.0,237.0,2968.907
2968918.0,223.0,33.0,4.0,241.0,2968.918
2968928.0,217.0,33.0,4.0,233.0,2968.928
2968938.0,217.0,33.0,3.0,234.0,2968.938
2968948.0,216.0,32.0,4.0,234.0,2968.948
2968958.0,222.0,33.0,3.0,239.0,2968.958
2968968.0,224.0,33.0,5.0,241.0,2968.968
2968978.0,216.0,33.0,2.0,233.0,2968.978
2968988.0,218.0,32.0,4.0,234.0,2968.988
2968998.0,217.0,34.0,3.0,237.0,2968.998
2969008.0,220.0,32.0,3.0,240.0,2969.008
2969018.0,222.0,32.0,4.0,241.0,2969.018
2969028.0,216.0,32.0,4.0,233.0,2969.028
2969038.0,216.0,33.0,3.0,234.0,2969.038
2969048.0,213.0,33.0,3.0,231.0,2969.048
2969058.0,221.0,33.0,3.0,240.0,2969.058
2969068.0,223.0,33.0,3.0,240.0,2969.068
2969078.0,215.0,32.0,3.0,231.0,2969.078
2969088.0,218.0,33.0,3.0,235.0,2969.088
2969098.0,215.0,32.0,4.0,232.0,2969.098
2969108.0,221.0,32.0,4.0,239.0,2969.108
2969118.0,223.0,33.0,4.0,240.0,2969.118
2969128.0,215.0,33.0,3.0,232.0,2969.128
2969138.0,217.0,32.0,3.0,234.0,2969.138
2969148.0,215.0,33.0,3.0,234.0,2969.148
2969158.0,223.0,32.0,4.0,239.0,2969.158
2969168.0,223.0,33.0,4.0,238.0,2969.168
2969178.0,216.0,33.0,3.0,232.0,2969.178
2969188.0,217.0,33.0,4.0,235.0,2969.188
2969198.0,215.0,33.0,3.0,234.0,2969.198
2969208.0,220.0,32.0,4.0,239.0,2969.208
2969218.0,222.0,33.0,4.0,241.0,2969.218
2969228.0,215.0,32.0,4.0,232.0,2969.228
2969238.0,215.0,33.0,4.0,235.0,2969.238
2969248.0,216.0,33.0,4.0,237.0,2969.248
2969259.0,219.0,34.0,3.0,240.0,2969.259
2969269.0,219.0,33.0,3.0,238.0,2969.269
2969279.0,212.0,33.0,4.0,230.0,2969.279
2969289.0,215.0,33.0,5.0,235.0,2969.289
2969299.0,220.0,33.0,3.0,241.0,2969.299
2969309.0,220.0,33.0,3.0,239.0,2969.309
2969319.0,218.0,34.0,3.0,239.0,2969.319
2969329.0,211.0,32.0,3.0,228.0,2969.329
2969339.0,214.0,33.0,3.0,235.0,2969.339
2969349.0,217.0,33.0,5.0,238.0,2969.349
2969359.0,219.0,31.0,4.0,239.0,2969.359
2969369.0,217.0,33.0,4.0,238.0,2969.369
2969379.0,210.0,32.0,3.0,229.0,2969.379
2969389.0,214.0,33.0,3.0,233.0,2969.389
2969399.0,218.0,32.0,4.0,239.0,2969.399
2969409.0,219.0,32.0,4.0,238.0,2969.409
2969419.0,218.0,31.0,4.0,236.0,2969.419
2969430.0,210.0,32.0,2.0,227.0,2969.43
2969440.0,216.0,32.0,4.0,235.0,2969.44
2969450.0,221.0,33.0,3.0,241.0,2969.45
2969460.0,216.0,32.0,4.0,234.0,2969.46
2969470.0,217.0,31.0,4.0,234.0,2969.47
2969480.0,211.0,32.0,5.0,226.0,2969.48
2969490.0,217.0,31.0,4.0,236.0,2969.49
2969500.0,221.0,32.0,4.0,240.0,2969.5
2969510.0,216.0,32.0,3.0,233.0,2969.51
2969520.0,218.0,31.0,3.0,234.0,2969.52
2969530.0,210.0,31.0,3.0,226.0,2969.53
2969540.0,217.0,31.0,4.0,236.0,2969.54
2969550.0,222.0,31.0,3.0,240.0,2969.55
2969560.0,217.0,31.0,4.0,234.0,2969.56
2969570.0,216.0,31.0,3.0,235.0,2969.57
2969580.0,208.0,32.0,3.0,227.0,2969.58
2969590.0,217.0,31.0,3.0,238.0,2969.59
2969600.0,220.0,31.0,4.0,239.0,2969.6
2969610.0,217.0,31.0,5.0,234.0,2969.61
2969620.0,216.0,31.0,4.0,235.0,2969.62
2969630.0,209.0,31.0,3.0,229.0,2969.63
2969640.0,218.0,32.0,4.0,239.0,2969.64
2969650.0,222.0,31.0,4.0,239.0,2969.65
2969660.0,217.0,31.0,3.0,233.0,2969.66
2969670.0,217.0,31.0,5.0,234.0,2969.67
2969680.0,211.0,31.0,4.0,229.0,2969.68
2969690.0,216.0,31.0,4.0,234.0,2969.69
2969700.0,222.0,31.0,4.0,240.0,2969.7
2969710.0,216.0,32.0,3.0,233.0,2969.71
2969720.0,217.0,31.0,4.0,234.0,2969.72
2969730.0,209.0,32.0,3.0,228.0,2969.73
2969740.0,217.0,31.0,4.0,237.0,2969.74
2969750.0,222.0,31.0,4.0,240.0,2969.75
2969760.0,215.0,31.0,4.0,233.0,2969.76
2969771.0,216.0,33.0,3.0,235.0,2969.771
2969781.0,212.0,30.0,4.0,232.0,2969.781
2969791.0,219.0,31.0,3.0,240.0,2969.791
2969801.0,222.0,32.0,5.0,238.0,2969.801
2969811.0,212.0,31.0,4.0,231.0,2969.811
2969821.0,216.0,32.0,4.0,234.0,2969.821
2969831.0,214.0,33.0,3.0,235.0,2969.831
2969841.0,220.0,32.0,3.0,239.0,2969.841
2969851.0,221.0,32.0,4.0,238.0,2969.851
2969861.0,215.0,31.0,3.0,232.0,2969.861
2969871.0,217.0,31.0,4.0,233.0,2969.871
2969881.0,215.0,32.0,2.0,236.0,2969.881
2969891.0,220.0,32.0,4.0,239.0,2969.891
2969901.0,221.0,32.0,4.0,241.0,2969.901
2969911.0,215.0,30.0,4.0,232.0,2969.911
2969921.0,215.0,31.0,4.0,234.0,2969.921
2969931.0,217.0,32.0,5.0,237.0,2969.931
2969942.0,219.0,32.0,4.0,239.0,2969.942
2969952.0,219.0,32.0,4.0,237.0,2969.952
2969962.0,211.0,32.0,3.0,231.0,2969.962
2969972.0,214.0,32.0,3.0,235.0,2969.972
2969982.0,221.0,32.0,4.0,242.0,2969.982
2969992.0,218.0,32.0,3.0,239.0,2969.992
2970002.0,219.0,31.0,4.0,237.0,2970.002
2970012.0,210.0,31.0,4.0,229.0,2970.012
2970022.0,215.0,32.0,4.0,236.0,2970.022
2970032.0,218.0,32.0,3.0,238.0,2970.032
2970042.0,219.0,32.0,3.0,238.0,2970.042
2970052.0,218.0,32.0,3.0,237.0,2970.052
2970062.0,210.0,32.0,5.0,227.0,2970.062
2970072.0,213.0,32.0,3.0,234.0,2970.072
2970082.0,217.0,32.0,3.0,239.0,2970.082
2970092.0,217.0,32.0,3.0,239.0,2970.092
2970102.0,217.0,32.0,3.0,236.0,2970.102
2970112.0,210.0,33.0,3.0,231.0,2970.112
2970122.0,214.0,32.0,5.0,234.0,2970.122
2970132.0,219.0,32.0,4.0,240.0,2970.132
2970142.0,217.0,33.0,4.0,237.0,2970.142
2970152.0,217.0,33.0,3.0,236.0,2970.152
2970162.0,210.0,32.0,4.0,229.0,2970.162
2970172.0,214.0,32.0,3.0,234.0,2970.172
2970182.0,220.0,32.0,4.0,240.0,2970.182
2970192.0,216.0,31.0,4.0,236.0,2970.192
2970202.0,218.0,33.0,4.0,237.0,2970.202
2970212.0,209.0,33.0,3.0,230.0,2970.212
2970222.0,214.0,34.0,3.0,235.0,2970.222
2970232.0,221.0,32.0,3.0,241.0,2970.232
2970242.0,218.0,34.0,3.0,240.0,2970.242
2970252.0,219.0,33.0,5.0,237.0,2970.252
2970262.0,210.0,32.0,4.0,231.0,2970.262
2970272.0,214.0,32.0,4.0,238.0,2970.272
2970283.0,221.0,33.0,3.0,244.0,2970.283
2970293.0,215.0,32.0,4.0,238.0,2970.293
2970303.0,215.0,32.0,3.0,238.0,2970.303
2970313.0,209.0,32.0,5.0,233.0,2970.313
2970323.0,217.0,33.0,4.0,242.0,2970.323
2970333.0,220.0,33.0,4.0,243.0,2970.333
2970343.0,214.0,33.0,3.0,238.0,2970.343
2970353.0,216.0,34.0,3.0,237.0,2970.353
2970363.0,210.0,33.0,3.0,233.0,2970.363
2970373.0,216.0,33.0,3.0,239.0,2970.373
2970383.0,222.0,33.0,4.0,242.0,2970.383
2970393.0,214.0,32.0,3.0,236.0,2970.393
2970403.0,216.0,32.0,4.0,236.0,2970.403
2970413.0,208.0,33.0,2.0,230.0,2970.413
2970423.0,216.0,32.0,4.0,240.0,2970.423
2970433.0,220.0,33.0,3.0,242.0,2970.433
2970443.0,213.0,33.0,4.0,235.0,2970.443
2970454.0,215.0,33.0,2.0,236.0,2970.454
2970464.0,212.0,33.0,3.0,235.0,2970.464
2970474.0,218.0,33.0,4.0,242.0,2970.474
2970484.0,220.0,33.0,4.0,239.0,2970.484
2970494.0,210.0,32.0,3.0,232.0,2970.494
2970504.0,214.0,33.0,3.0,236.0,2970.504
2970514.0,214.0,33.0,4.0,237.0,2970.514
2970524.0,218.0,33.0,4.0,240.0,2970.524
