time (ms),signal 0,signal 1,signal 2,signal 3,time (sec)
3016549.0,213.0,31.0,4.0,241.0,3016.549
3016559.0,219.0,32.0,3.0,246.0,3016.559
3016569.0,216.0,32.0,4.0,241.0,3016.569
3016579.0,218.0,32.0,4.0,244.0,3016.579
3016589.0,209.0,32.0,3.0,235.0,3016.589
3016599.0,213.0,32.0,4.0,240.0,3016.599
3016609.0,220.0,33.0,4.0,247.0,3016.609
3016619.0,217.0,32.0,3.0,246.0,3016.619
3016629.0,218.0,32.0,3.0,244.0,3016.629
3016639.0,209.0,33.0,3.0,236.0,3016.639
3016649.0,213.0,32.0,3.0,244.0,3016.649
3016659.0,220.0,32.0,3.0,249.0,3016.659
3016669.0,217.0,32.0,4.0,246.0,3016.669
3016679.0,219.0,32.0,3.0,245.0,3016.679
3016689.0,210.0,32.0,4.0,237.0,3016.689
3016699.0,216.0,32.0,4.0,244.0,3016.699
3016709.0,219.0,33.0,3.0,249.0,3016.709
3016719.0,218.0,32.0,3.0,246.0,3016.719
3016729.0,218.0,32.0,3.0,245.0,3016.729
3016739.0,211.0,32.0,5.0,235.0,3016.739
3016749.0,214.0,31.0,2.0,242.0,3016.749
3016759.0,220.0,32.0,4.0,248.0,3016.759
3016769.0,218.0,32.0,3.0,246.0,3016.769
3016779.0,218.0,32.0,3.0,245.0,3016.779
3016790.0,211.0,32.0,3.0,237.0,3016.79
3016800.0,218.0,32.0,4.0,247.0,3016.8
3016810.0,223.0,31.0,4.0,250.0,3016.81
3016820.0,216.0,32.0,3.0,242.0,3016.82
3016830.0,218.0,33.0,3.0,244.0,3016.83
3016840.0,212.0,33.0,3.0,238.0,3016.84
3016850.0,221.0,32.0,4.0,249.0,3016.85
3016860.0,224.0,32.0,3.0,252.0,3016.86
3016870.0,219.0,31.0,5.0,243.0,3016.87
3016880.0,220.0,33.0,2.0,247.0,3016.88
3016890.0,214.0,32.0,3.0,240.0,3016.89
3016900.0,223.0,33.0,3.0,252.0,3016.9
3016910.0,226.0,32.0,3.0,254.0,3016.91
3016920.0,222.0,31.0,4.0,247.0,3016.92
3016930.0,222.0,33.0,4.0,249.0,3016.93
3016940.0,217.0,31.0,4.0,243.0,3016.94
3016950.0,225.0,32.0,3.0,253.0,3016.95
3016960.0,228.0,33.0,3.0,254.0,3016.96
3016970.0,222.0,33.0,3.0,247.0,3016.97
3016980.0,222.0,32.0,4.0,247.0,3016.98
3016990.0,217.0,33.0,3.0,245.0,3016.99
3017000.0,227.0,33.0,4.0,253.0,3017.0
3017010.0,227.0,32.0,4.0,255.0,3017.01
3017020.0,222.0,32.0,3.0,247.0,3017.02
3017030.0,222.0,33.0,3.0,249.0,3017.03
3017040.0,219.0,33.0,3.0,246.0,3017.04
3017050.0,224.0,33.0,3.0,253.0,3017.05
3017060.0,228.0,32.0,4.0,255.0,3017.06
3017070.0,221.0,32.0,2.0,247.0,3017.07
3017080.0,222.0,32.0,3.0,249.0,3017.08
3017090.0,216.0,33.0,3.0,243.0,3017.09
3017100.0,224.0,32.0,3.0,254.0,3017.1
3017110.0,228.0,32.0,4.0,256.0,3017.11
3017120.0,221.0,32.0,4.0,247.0,3017.12
3017131.0,224.0,33.0,4.0,249.0,3017.131
3017141.0,222.0,33.0,4.0,251.0,3017.141
3017151.0,227.0,32.0,4.0,254.0,3017.151
3017161.0,226.0,34.0,3.0,252.0,3017.161
3017171.0,218.0,32.0,4.0,243.0,3017.171
3017181.0,222.0,33.0,3.0,248.0,3017.181
3017191.0,225.0,32.0,5.0,252.0,3017.191
3017201.0,227.0,32.0,4.0,255.0,3017.201
3017211.0,226.0,32.0,4.0,252.0,3017.211
3017221.0,221.0,33.0,3.0,246.0,3017.221
3017231.0,222.0,32.0,4.0,248.0,3017.231
3017241.0,225.0,33.0,4.0,253.0,3017.241
3017251.0,228.0,32.0,5.0,252.0,3017.251
3017261.0,228.0,33.0,4.0,254.0,3017.261
3017271.0,220.0,32.0,4.0,244.0,3017.271
3017281.0,223.0,34.0,3.0,249.0,3017.281
3017291.0,226.0,33.0,3.0,253.0,3017.291
3017302.0,227.0,32.0,3.0,253.0,3017.302
3017312.0,226.0,32.0,4.0,253.0,3017.312
3017322.0,219.0,32.0,4.0,242.0,3017.322
3017332.0,223.0,33.0,4.0,252.0,3017.332
3017342.0,230.0,33.0,3.0,257.0,3017.342
3017352.0,227.0,33.0,3.0,253.0,3017.352
3017362.0,226.0,32.0,4.0,251.0,3017.362
3017372.0,217.0,32.0,3.0,243.0,3017.372
3017382.0,226.0,33.0,5.0,253.0,3017.382
3017392.0,228.0,32.0,4.0,255.0,3017.392
3017402.0,226.0,33.0,3.0,249.0,3017.402
3017412.0,225.0,33.0,4.0,248.0,3017.412
3017422.0,217.0,33.0,3.0,241.0,3017.422
3017432.0,223.0,32.0,4.0,248.0,3017.432
3017442.0,230.0,33.0,4.0,254.0,3017.442
3017452.0,227.0,31.0,4.0,250.0,3017.452
3017462.0,224.0,33.0,3.0,249.0,3017.462
3017472.0,220.0,32.0,5.0,241.0,3017.472
3017482.0,223.0,34.0,3.0,248.0,3017.482
3017492.0,228.0,32.0,4.0,252.0,3017.492
3017502.0,225.0,32.0,3.0,247.0,3017.502
3017512.0,225.0,32.0,5.0,247.0,3017.512
3017522.0,218.0,33.0,3.0,240.0,3017.522
3017532.0,224.0,33.0,4.0,249.0,3017.532
3017542.0,229.0,33.0,3.0,253.0,3017.542
3017552.0,224.0,32.0,4.0,247.0,3017.552
3017562.0,225.0,32.0,4.0,249.0,3017.562
3017572.0,217.0,32.0,5.0,239.0,3017.572
3017582.0,224.0,33.0,4.0,252.0,3017.582
3017592.0,228.0,33.0,3.0,255.0,3017.592
3017602.0,225.0,32.0,3.0,251.0,3017.602
3017612.0,224.0,33.0,3.0,250.0,3017.612
3017622.0,218.0,32.0,4.0,240.0,3017.622
3017632.0,225.0,32.0,4.0,251.0,3017.632
3017643.0,230.0,32.0,4.0,254.0,3017.643
3017653.0,224.0,32.0,3.0,249.0,3017.653
3017663.0,225.0,32.0,4.0,250.0,3017.663
3017673.0,223.0,33.0,3.0,250.0,3017.673
3017683.0,230.0,32.0,4.0,258.0,3017.683
3017693.0,231.0,33.0,3.0,262.0,3017.693
3017703.0,225.0,32.0,5.0,251.0,3017.703
3017713.0,226.0,33.0,4.0,254.0,3017.713
3017723.0,226.0,32.0,3.0,253.0,3017.723
3017733.0,231.0,32.0,4.0,255.0,3017.733
3017743.0,230.0,33.0,3.0,251.0,3017.743
3017753.0,223.0,32.0,3.0,244.0,3017.753
3017763.0,224.0,32.0,4.0,250.0,3017.763
3017773.0,224.0,31.0,4.0,244.0,3017.773
3017783.0,233.0,32.0,2.0,250.0,3017.783
3017793.0,236.0,32.0,4.0,251.0,3017.793
3017803.0,228.0,33.0,3.0,246.0,3017.803
3017814.0,227.0,32.0,3.0,251.0,3017.814
3017824.0,227.0,32.0,3.0,252.0,3017.824
3017834.0,228.0,32.0,5.0,258.0,3017.834
3017844.0,224.0,32.0,4.0,255.0,3017.844
3017854.0,216.0,32.0,4.0,247.0,3017.854
3017864.0,222.0,33.0,3.0,254.0,3017.864
3017874.0,227.0,32.0,4.0,261.0,3017.874
3017884.0,226.0,32.0,4.0,256.0,3017.884
3017894.0,223.0,32.0,5.0,251.0,3017.894
3017904.0,219.0,31.0,4.0,253.0,3017.904
3017914.0,220.0,33.0,3.0,255.0,3017.914
3017924.0,227.0,32.0,4.0,274.0,3017.924
3017934.0,229.0,33.0,3.0,270.0,3017.934
3017944.0,235.0,32.0,4.0,271.0,3017.944
3017954.0,231.0,31.0,4.0,259.0,3017.954
3017964.0,230.0,31.0,4.0,257.0,3017.964
3017974.0,232.0,32.0,4.0,260.0,3017.974
3017984.0,234.0,31.0,5.0,255.0,3017.984
3017994.0,232.0,33.0,3.0,254.0,3017.994
3018004.0,230.0,32.0,4.0,270.0,3018.004
3018014.0,230.0,32.0,4.0,267.0,3018.014
3018024.0,237.0,32.0,5.0,270.0,3018.024
3018034.0,241.0,31.0,3.0,270.0,3018.034
3018044.0,241.0,32.0,4.0,266.0,3018.044
3018054.0,230.0,33.0,3.0,257.0,3018.054
3018064.0,232.0,32.0,3.0,266.0,3018.064
3018074.0,236.0,32.0,4.0,272.0,3018.074
3018084.0,237.0,32.0,4.0,274.0,3018.084
3018094.0,235.0,32.0,4.0,283.0,3018.094
3018104.0,222.0,32.0,3.0,262.0,3018.104
3018114.0,229.0,32.0,4.0,264.0,3018.114
3018124.0,233.0,33.0,3.0,269.0,3018.124
3018134.0,239.0,32.0,3.0,283.0,3018.134
3018144.0,239.0,32.0,4.0,291.0,3018.144
3018155.0,228.0,31.0,5.0,272.0,3018.155
3018165.0,238.0,31.0,3.0,276.0,3018.165
3018175.0,241.0,32.0,4.0,270.0,3018.175
3018185.0,237.0,33.0,3.0,271.0,3018.185
3018195.0,241.0,33.0,3.0,275.0,3018.195
3018205.0,232.0,32.0,4.0,261.0,3018.205
3018215.0,239.0,32.0,4.0,270.0,3018.215
3018225.0,246.0,31.0,4.0,278.0,3018.225
3018235.0,239.0,32.0,3.0,275.0,3018.235
3018245.0,244.0,32.0,4.0,281.0,3018.245
3018255.0,234.0,33.0,3.0,268.0,3018.255
3018265.0,245.0,32.0,4.0,275.0,3018.265
3018275.0,248.0,32.0,4.0,273.0,3018.275
3018285.0,243.0,32.0,5.0,261.0,3018.285
3018295.0,237.0,33.0,2.0,261.0,3018.295
3018305.0,226.0,32.0,3.0,253.0,3018.305
3018315.0,235.0,33.0,3.0,258.0,3018.315
3018326.0,237.0,32.0,4.0,259.0,3018.326
3018336.0,227.0,32.0,3.0,245.0,3018.336
3018346.0,230.0,32.0,4.0,248.0,3018.346
3018356.0,231.0,31.0,4.0,255.0,3018.356
3018366.0,241.0,32.0,4.0,264.0,3018.366
3018376.0,244.0,33.0,4.0,265.0,3018.376
3018386.0,233.0,32.0,3.0,256.0,3018.386
3018396.0,232.0,32.0,4.0,260.0,3018.396
3018406.0,232.0,33.0,4.0,261.0,3018.406
3018416.0,230.0,32.0,4.0,268.0,3018.416
3018426.0,236.0,33.0,3.0,277.0,3018.426
3018436.0,225.0,33.0,4.0,261.0,3018.436
3018446.0,222.0,33.0,3.0,265.0,3018.446
3018456.0,219.0,32.0,4.0,268.0,3018.456
3018466.0,226.0,32.0,4.0,266.0,3018.466
3018476.0,234.0,33.0,5.0,273.0,3018.476
3018486.0,222.0,33.0,2.0,260.0,3018.486
3018496.0,229.0,32.0,5.0,261.0,3018.496
3018506.0,222.0,33.0,4.0,254.0,3018.506
3018516.0,225.0,33.0,3.0,261.0,3018.516
3018526.0,232.0,33.0,4.0,265.0,3018.526
3018536.0,222.0,33.0,4.0,259.0,3018.536
3018546.0,228.0,33.0,3.0,264.0,3018.546
3018556.0,224.0,32.0,3.0,256.0,3018.556
3018566.0,232.0,32.0,3.0,261.0,3018.566
3018576.0,230.0,34.0,3.0,257.0,3018.576
3018586.0,225.0,32.0,4.0,252.0,3018.586
3018596.0,228.0,32.0,4.0,255.0,3018.596
3018606.0,227.0,33.0,4.0,257.0,3018.606
3018616.0,232.0,32.0,4.0,258.0,3018.616
3018626.0,238.0,33.0,3.0,259.0,3018.626
3018636.0,230.0,33.0,3.0,261.0,3018.636
3018646.0,236.0,32.0,3.0,272.0,3018.646
3018656.0,237.0,32.0,4.0,273.0,3018.656
3018667.0,236.0,32.0,4.0,268.0,3018.667
3018677.0,236.0,33.0,4.0,273.0,3018.677
3018687.0,224.0,32.0,3.0,261.0,3018.687
3018697.0,227.0,32.0,4.0,262.0,3018.697
3018707.0,231.0,32.0,3.0,264.0,3018.707
3018717.0,233.0,32.0,3.0,260.0,3018.717
3018727.0,240.0,32.0,4.0,257.0,3018.727
3018737.0,233.0,31.0,4.0,248.0,3018.737
3018747.0,235.0,32.0,3.0,254.0,3018.747
3018757.0,239.0,32.0,3.0,261.0,3018.757
3018767.0,238.0,33.0,3.0,258.0,3018.767
3018777.0,236.0,32.0,4.0,254.0,3018.777
3018787.0,223.0,32.0,3.0,236.0,3018.787
3018797.0,230.0,32.0,5.0,243.0,3018.797
3018807.0,233.0,32.0,2.0,251.0,3018.807
3018817.0,234.0,32.0,3.0,256.0,3018.817
3018827.0,234.0,33.0,3.0,253.0,3018.827
3018838.0,223.0,32.0,3.0,242.0,3018.838
3018848.0,231.0,32.0,3.0,250.0,3018.848
3018858.0,237.0,32.0,4.0,260.0,3018.858
3018868.0,234.0,31.0,3.0,262.0,3018.868
3018878.0,238.0,32.0,3.0,265.0,3018.878
3018888.0,232.0,32.0,3.0,261.0,3018.888
3018898.0,241.0,33.0,3.0,278.0,3018.898
3018908.0,248.0,32.0,4.0,279.0,3018.908
3018918.0,237.0,32.0,4.0,272.0,3018.918
3018928.0,240.0,32.0,5.0,275.0,3018.928
3018938.0,229.0,32.0,2.0,258.0,3018.938
3018948.0,238.0,32.0,3.0,266.0,3018.948
3018958.0,241.0,33.0,3.0,270.0,3018.958
3018968.0,238.0,32.0,3.0,267.0,3018.968
3018978.0,240.0,32.0,4.0,268.0,3018.978
3018988.0,233.0,32.0,4.0,268.0,3018.988
3018998.0,242.0,32.0,4.0,278.0,3018.998
3019008.0,245.0,32.0,4.0,281.0,3019.008
3019018.0,239.0,32.0,4.0,276.0,3019.018
3019028.0,238.0,33.0,3.0,279.0,3019.028
3019038.0,231.0,32.0,4.0,276.0,3019.038
3019048.0,239.0,32.0,4.0,285.0,3019.048
3019058.0,247.0,33.0,4.0,295.0,3019.058
3019068.0,236.0,32.0,4.0,280.0,3019.068
3019078.0,239.0,32.0,3.0,285.0,3019.078
3019088.0,227.0,33.0,3.0,270.0,3019.088
3019098.0,231.0,32.0,3.0,270.0,3019.098
3019108.0,235.0,32.0,3.0,273.0,3019.108
3019118.0,229.0,31.0,4.0,262.0,3019.118
3019128.0,232.0,31.0,4.0,263.0,3019.128
3019138.0,225.0,31.0,3.0,254.0,3019.138
3019148.0,238.0,32.0,3.0,263.0,3019.148
3019158.0,240.0,32.0,3.0,258.0,3019.158
3019168.0,232.0,31.0,3.0,246.0,3019.168
3019179.0,234.0,32.0,4.0,246.0,3019.179
3019189.0,231.0,31.0,4.0,246.0,3019.189
3019199.0,237.0,32.0,3.0,251.0,3019.199
3019209.0,237.0,32.0,4.0,254.0,3019.209
3019219.0,227.0,33.0,3.0,250.0,3019.219
3019229.0,231.0,32.0,3.0,258.0,3019.229
3019239.0,232.0,32.0,4.0,266.0,3019.239
3019249.0,238.0,31.0,4.0,272.0,3019.249
3019259.0,242.0,32.0,2.0,270.0,3019.259
3019269.0,234.0,32.0,3.0,257.0,3019.269
3019279.0,233.0,33.0,3.0,251.0,3019.279
3019289.0,229.0,32.0,3.0,250.0,3019.289
3019299.0,235.0,32.0,3.0,253.0,3019.299
3019309.0,244.0,32.0,5.0,259.0,3019.309
3019319.0,234.0,31.0,4.0,250.0,3019.319
3019329.0,234.0,33.0,3.0,252.0,3019.329
3019339.0,240.0,32.0,4.0,265.0,3019.339
3019350.0,241.0,32.0,3.0,264.0,3019.35
3019360.0,239.0,32.0,3.0,258.0,3019.36
3019370.0,232.0,32.0,4.0,256.0,3019.37
3019380.0,239.0,31.0,4.0,262.0,3019.38
3019390.0,245.0,32.0,4.0,265.0,3019.39
3019400.0,243.0,32.0,4.0,265.0,3019.4
3019410.0,244.0,33.0,3.0,261.0,3019.41
3019420.0,232.0,32.0,4.0,246.0,3019.42
3019430.0,236.0,32.0,3.0,256.0,3019.43
3019440.0,241.0,32.0,5.0,261.0,3019.44
3019450.0,240.0,31.0,4.0,263.0,3019.45
3019460.0,240.0,32.0,4.0,265.0,3019.46
3019470.0,231.0,32.0,3.0,257.0,3019.47
3019480.0,237.0,32.0,3.0,263.0,3019.48
3019490.0,243.0,32.0,4.0,269.0,3019.49
3019500.0,241.0,32.0,4.0,267.0,3019.5
3019510.0,240.0,32.0,4.0,269.0,3019.51
3019520.0,231.0,32.0,4.0,260.0,3019.52
3019530.0,234.0,32.0,4.0,262.0,3019.53
3019540.0,241.0,33.0,3.0,266.0,3019.54
3019550.0,237.0,30.0,4.0,262.0,3019.55
3019560.0,237.0,32.0,3.0,267.0,3019.56
3019570.0,230.0,32.0,5.0,257.0,3019.57
3019580.0,235.0,32.0,4.0,266.0,3019.58
3019590.0,240.0,32.0,4.0,267.0,3019.59
3019600.0,235.0,33.0,3.0,264.0,3019.6
3019610.0,237.0,32.0,3.0,264.0,3019.61
3019620.0,229.0,32.0,4.0,255.0,3019.62
3019630.0,234.0,32.0,4.0,264.0,3019.63
3019640.0,239.0,33.0,4.0,268.0,3019.64
3019650.0,235.0,32.0,4.0,263.0,3019.65
3019660.0,235.0,32.0,4.0,259.0,3019.66
3019670.0,226.0,33.0,3.0,249.0,3019.67
3019680.0,233.0,32.0,4.0,257.0,3019.68
3019691.0,239.0,33.0,4.0,261.0,3019.691
3019701.0,234.0,31.0,5.0,253.0,3019.701
3019711.0,234.0,33.0,4.0,253.0,3019.711
3019721.0,229.0,32.0,4.0,253.0,3019.721
3019731.0,237.0,33.0,3.0,259.0,3019.731
3019741.0,238.0,32.0,3.0,258.0,3019.741
3019751.0,232.0,32.0,3.0,252.0,3019.751
3019761.0,229.0,33.0,4.0,253.0,3019.761
3019771.0,225.0,32.0,4.0,250.0,3019.771
3019781.0,230.0,32.0,4.0,254.0,3019.781
3019791.0,234.0,33.0,4.0,257.0,3019.791
3019801.0,227.0,32.0,3.0,250.0,3019.801
3019811.0,228.0,32.0,3.0,250.0,3019.811
3019821.0,221.0,32.0,4.0,245.0,3019.821
3019831.0,232.0,32.0,4.0,254.0,3019.831
3019841.0,235.0,32.0,3.0,255.0,3019.841
3019851.0,228.0,32.0,4.0,245.0,3019.851
3019862.0,229.0,33.0,3.0,250.0,3019.862
3019872.0,230.0,32.0,4.0,254.0,3019.872
3019882.0,233.0,32.0,4.0,256.0,3019.882
3019892.0,232.0,32.0,4.0,255.0,3019.892
3019902.0,224.0,32.0,4.0,245.0,3019.902
3019912.0,229.0,32.0,3.0,252.0,3019.912
3019922.0,235.0,33.0,3.0,257.0,3019.922
3019932.0,237.0,32.0,4.0,256.0,3019.932
3019942.0,235.0,33.0,3.0,252.0,3019.942
3019952.0,229.0,32.0,4.0,248.0,3019.952
3019962.0,231.0,32.0,4.0,251.0,3019.962
3019972.0,233.0,33.0,4.0,256.0,3019.972
3019982.0,233.0,32.0,4.0,255.0,3019.982
3019992.0,234.0,34.0,3.0,254.0,3019.992
3020002.0,226.0,32.0,3.0,247.0,3020.002
3020012.0,228.0,32.0,3.0,252.0,3020.012
3020022.0,232.0,32.0,4.0,257.0,3020.022
3020032.0,231.0,32.0,3.0,258.0,3020.032
3020042.0,230.0,32.0,4.0,255.0,3020.042
3020052.0,224.0,33.0,3.0,249.0,3020.052
3020062.0,226.0,32.0,4.0,252.0,3020.062
3020072.0,231.0,33.0,3.0,258.0,3020.072
3020082.0,231.0,32.0,4.0,258.0,3020.082
3020092.0,230.0,33.0,3.0,253.0,3020.092
3020102.0,221.0,32.0,4.0,245.0,3020.102
3020112.0,223.0,33.0,3.0,253.0,3020.112
3020122.0,225.0,33.0,3.0,256.0,3020.122
3020132.0,229.0,32.0,4.0,258.0,3020.132
3020142.0,228.0,32.0,4.0,254.0,3020.142
3020152.0,221.0,31.0,4.0,246.0,3020.152
3020162.0,224.0,33.0,4.0,251.0,3020.162
3020172.0,227.0,32.0,3.0,257.0,3020.172
3020182.0,228.0,33.0,3.0,259.0,3020.182
3020192.0,227.0,32.0,4.0,255.0,3020.192
3020203.0,217.0,32.0,4.0,248.0,3020.203
3020213.0,224.0,33.0,4.0,256.0,3020.213
3020223.0,228.0,32.0,4.0,262.0,3020.223
3020233.0,224.0,32.0,4.0,256.0,3020.233
3020243.0,225.0,33.0,3.0,257.0,3020.243
3020253.0,217.0,32.0,3.0,248.0,3020.253
3020263.0,224.0,32.0,3.0,256.0,3020.263
3020273.0,229.0,33.0,4.0,259.0,3020.273
3020283.0,224.0,31.0,3.0,254.0,3020.283
3020293.0,225.0,33.0,4.0,254.0,3020.293
3020303.0,218.0,32.0,4.0,246.0,3020.303
3020313.0,224.0,33.0,3.0,256.0,3020.313
3020323.0,229.0,32.0,3.0,258.0,3020.323
3020333.0,224.0,32.0,3.0,257.0,3020.333
3020343.0,225.0,33.0,4.0,254.0,3020.343
3020353.0,215.0,32.0,4.0,247.0,3020.353
3020363.0,223.0,32.0,3.0,259.0,3020.363
3020374.0,228.0,34.0,3.0,261.0,3020.374
3020384.0,221.0,32.0,3.0,257.0,3020.384
3020394.0,223.0,33.0,3.0,257.0,3020.394
3020404.0,221.0,32.0,5.0,255.0,3020.404
3020414.0,226.0,32.0,4.0,260.0,3020.414
3020424.0,228.0,33.0,4.0,259.0,3020.424
3020434.0,221.0,33.0,3.0,255.0,3020.434
3020444.0,223.0,32.0,3.0,255.0,3020.444
3020454.0,221.0,32.0,4.0,257.0,3020.454
3020464.0,224.0,32.0,4.0,261.0,3020.464
3020474.0,229.0,32.0,4.0,261.0,3020.474
3020484.0,220.0,32.0,3.0,255.0,3020.484
3020494.0,222.0,32.0,4.0,255.0,3020.494
3020504.0,217.0,33.0,3.0,252.0,3020.504
3020514.0,226.0,32.0,4.0,260.0,3020.514
3020524.0,229.0,32.0,4.0,258.0,3020.524
3020534.0,221.0,32.0,5.0,252.0,3020.534
3020544.0,224.0,32.0,2.0,255.0,3020.544
3020554.0,218.0,33.0,4.0,252.0,3020.554
3020564.0,227.0,33.0,4.0,261.0,3020.564
3020574.0,230.0,32.0,4.0,259.0,3020.574
3020584.0,219.0,32.0,3.0,252.0,3020.584
3020594.0,224.0,32.0,4.0,255.0,3020.594
3020604.0,221.0,33.0,4.0,254.0,3020.604
3020614.0,228.0,33.0,3.0,262.0,3020.614
3020624.0,228.0,32.0,4.0,259.0,3020.624
3020634.0,222.0,33.0,3.0,256.0,3020.634
3020644.0,223.0,32.0,4.0,255.0,3020.644
3020654.0,221.0,32.0,4.0,255.0,3020.654
3020664.0,227.0,31.0,5.0,263.0,3020.664
3020674.0,228.0,33.0,3.0,263.0,3020.674
3020684.0,220.0,32.0,4.0,256.0,3020.684
3020694.0,222.0,33.0,3.0,256.0,3020.694
3020704.0,221.0,32.0,4.0,256.0,3020.704
3020715.0,225.0,33.0,3.0,259.0,3020.715
3020725.0,226.0,32.0,5.0,255.0,3020.725
3020735.0,216.0,31.0,2.0,249.0,3020.735
3020745.0,220.0,32.0,3.0,253.0,3020.745
3020755.0,226.0,32.0,4.0,261.0,3020.755
3020765.0,224.0,32.0,3.0,260.0,3020.765
3020775.0,224.0,32.0,4.0,256.0,3020.775
3020785.0,215.0,32.0,4.0,250.0,3020.785
3020795.0,222.0,31.0,4.0,255.0,3020.795
3020805.0,223.0,33.0,2.0,258.0,3020.805
3020815.0,224.0,32.0,4.0,260.0,3020.815
3020825.0,226.0,33.0,3.0,257.0,3020.825
3020835.0,216.0,31.0,4.0,251.0,3020.835
3020845.0,221.0,32.0,3.0,258.0,3020.845
3020855.0,225.0,32.0,5.0,262.0,3020.855
3020865.0,224.0,31.0,2.0,262.0,3020.865
3020875.0,224.0,32.0,4.0,259.0,3020.875
3020886.0,215.0,33.0,4.0,251.0,3020.886
3020896.0,221.0,32.0,4.0,260.0,3020.896
3020906.0,227.0,32.0,3.0,262.0,3020.906
3020916.0,221.0,32.0,4.0,258.0,3020.916
3020926.0,223.0,32.0,4.0,255.0,3020.926
3020936.0,215.0,32.0,4.0,247.0,3020.936
3020946.0,223.0,31.0,4.0,258.0,3020.946
3020956.0,227.0,33.0,3.0,260.0,3020.956
3020966.0,221.0,32.0,3.0,255.0,3020.966
3020976.0,223.0,33.0,3.0,255.0,3020.976
3020986.0,216.0,31.0,4.0,249.0,3020.986
3020996.0,223.0,32.0,2.0,260.0,3020.996
3021006.0,229.0,32.0,4.0,261.0,3021.006
3021016.0,224.0,32.0,2.0,258.0,3021.016
3021026.0,224.0,32.0,4.0,255.0,3021.026
3021036.0,216.0,32.0,4.0,249.0,3021.036
3021046.0,225.0,32.0,4.0,259.0,3021.046
3021056.0,228.0,32.0,5.0,259.0,3021.056
3021066.0,222.0,32.0,4.0,255.0,3021.066
3021076.0,223.0,32.0,4.0,254.0,3021.076
3021086.0,216.0,32.0,3.0,248.0,3021.086
3021096.0,225.0,31.0,4.0,256.0,3021.096
3021106.0,227.0,33.0,3.0,257.0,3021.106
3021116.0,223.0,31.0,4.0,254.0,3021.116
3021126.0,222.0,32.0,2.0,253.0,3021.126
3021136.0,217.0,32.0,4.0,249.0,3021.136
3021146.0,221.0,32.0,3.0,256.0,3021.146
3021156.0,228.0,32.0,4.0,260.0,3021.156
3021166.0,221.0,32.0,3.0,255.0,3021.166
3021176.0,224.0,32.0,5.0,254.0,3021.176
3021186.0,215.0,31.0,4.0,248.0,3021.186
3021196.0,222.0,32.0,3.0,259.0,3021.196
3021206.0,227.0,32.0,4.0,261.0,3021.206
3021216.0,220.0,32.0,3.0,254.0,3021.216
3021227.0,221.0,32.0,3.0,253.0,3021.227
3021237.0,219.0,32.0,4.0,252.0,3021.237
3021247.0,225.0,31.0,4.0,258.0,3021.247
3021257.0,226.0,32.0,4.0,253.0,3021.257
3021267.0,217.0,31.0,4.0,249.0,3021.267
3021277.0,222.0,33.0,3.0,252.0,3021.277
3021287.0,220.0,32.0,4.0,252.0,3021.287
3021297.0,224.0,31.0,4.0,258.0,3021.297
3021307.0,225.0,31.0,5.0,253.0,3021.307
3021317.0,217.0,32.0,3.0,251.0,3021.317
3021327.0,220.0,32.0,4.0,249.0,3021.327
3021337.0,219.0,33.0,3.0,253.0,3021.337
3021347.0,223.0,32.0,4.0,256.0,3021.347
3021357.0,226.0,32.0,4.0,256.0,3021.357
3021367.0,217.0,31.0,4.0,250.0,3021.367
3021377.0,220.0,31.0,3.0,252.0,3021.377
3021387.0,221.0,31.0,4.0,255.0,3021.387
3021398.0,224.0,32.0,3.0,257.0,3021.398
3021408.0,226.0,31.0,4.0,251.0,3021.408
3021418.0,216.0,31.0,4.0,245.0,3021.418
3021428.0,221.0,31.0,4.0,254.0,3021.428
3021438.0,228.0,31.0,4.0,259.0,3021.438
3021448.0,224.0,31.0,3.0,259.0,3021.448
3021458.0,225.0,31.0,4.0,254.0,3021.458
3021468.0,216.0,33.0,3.0,246.0,3021.468
3021478.0,222.0,30.0,3.0,254.0,3021.478
3021488.0,225.0,31.0,3.0,256.0,3021.488
3021498.0,226.0,31.0,5.0,257.0,3021.498
3021508.0,225.0,31.0,3.0,254.0,3021.508
3021518.0,215.0,32.0,3.0,246.0,3021.518
3021528.0,221.0,31.0,4.0,253.0,3021.528
3021538.0,226.0,32.0,3.0,258.0,3021.538
3021548.0,224.0,31.0,3.0,257.0,3021.548
3021558.0,224.0,32.0,4.0,252.0,3021.558
3021568.0,217.0,31.0,4.0,247.0,3021.568
3021578.0,220.0,31.0,4.0,250.0,3021.578
3021588.0,226.0,31.0,3.0,257.0,3021.588
3021598.0,224.0,32.0,3.0,256.0,3021.598
3021608.0,223.0,30.0,4.0,254.0,3021.608
3021618.0,217.0,32.0,3.0,249.0,3021.618
3021628.0,221.0,31.0,5.0,254.0,3021.628
3021638.0,227.0,31.0,4.0,260.0,3021.638
3021648.0,223.0,31.0,4.0,257.0,3021.648
3021658.0,226.0,31.0,2.0,257.0,3021.658
3021668.0,217.0,31.0,3.0,249.0,3021.668
3021678.0,221.0,31.0,3.0,253.0,3021.678
3021688.0,228.0,31.0,5.0,257.0,3021.688
3021698.0,225.0,30.0,4.0,257.0,3021.698
3021708.0,224.0,32.0,4.0,253.0,3021.708
3021718.0,216.0,31.0,3.0,247.0,3021.718
3021728.0,222.0,32.0,3.0,254.0,3021.728
3021739.0,228.0,31.0,3.0,257.0,3021.739
3021749.0,223.0,31.0,4.0,254.0,3021.749
3021759.0,225.0,31.0,3.0,252.0,3021.759
3021769.0,218.0,31.0,4.0,249.0,3021.769
3021779.0,226.0,31.0,4.0,259.0,3021.779
3021789.0,227.0,33.0,3.0,259.0,3021.789
3021799.0,222.0,32.0,4.0,255.0,3021.799
3021809.0,223.0,32.0,3.0,255.0,3021.809
3021819.0,220.0,31.0,5.0,253.0,3021.819
3021829.0,225.0,31.0,3.0,259.0,3021.829
3021839.0,228.0,32.0,3.0,260.0,3021.839
3021849.0,222.0,32.0,4.0,255.0,3021.849
3021859.0,223.0,32.0,3.0,255.0,3021.859
3021869.0,216.0,32.0,4.0,249.0,3021.869
3021879.0,225.0,31.0,4.0,258.0,3021.879
3021889.0,228.0,31.0,4.0,258.0,3021.889
3021899.0,220.0,32.0,4.0,253.0,3021.899
3021910.0,221.0,31.0,3.0,253.0,3021.91
3021920.0,220.0,31.0,4.0,253.0,3021.92
3021930.0,226.0,32.0,4.0,259.0,3021.93
3021940.0,225.0,32.0,4.0,255.0,3021.94
3021950.0,218.0,31.0,4.0,248.0,3021.95
3021960.0,221.0,32.0,3.0,253.0,3021.96
3021970.0,222.0,32.0,3.0,256.0,3021.97
3021980.0,225.0,32.0,3.0,259.0,3021.98
3021990.0,225.0,32.0,3.0,254.0,3021.99
3022000.0,219.0,32.0,3.0,252.0,3022.0
3022010.0,221.0,32.0,4.0,253.0,3022.01
3022020.0,223.0,31.0,4.0,256.0,3022.02
3022030.0,226.0,32.0,4.0,261.0,3022.03
3022040.0,228.0,33.0,4.0,260.0,3022.04
3022050.0,219.0,32.0,3.0,251.0,3022.05
3022060.0,222.0,32.0,3.0,253.0,3022.06
3022070.0,225.0,32.0,4.0,260.0,3022.07
3022080.0,227.0,32.0,5.0,260.0,3022.08
3022090.0,226.0,32.0,4.0,257.0,3022.09
3022100.0,218.0,31.0,4.0,250.0,3022.1
3022110.0,221.0,33.0,3.0,253.0,3022.11
3022120.0,225.0,32.0,3.0,256.0,3022.12
3022130.0,226.0,33.0,3.0,259.0,3022.13
3022140.0,227.0,32.0,4.0,254.0,3022.14
3022150.0,218.0,31.0,4.0,245.0,3022.15
3022160.0,222.0,32.0,3.0,250.0,3022.16
3022170.0,222.0,33.0,3.0,253.0,3022.17
3022180.0,227.0,32.0,3.0,256.0,3022.18
3022190.0,226.0,32.0,3.0,252.0,3022.19
3022200.0,219.0,31.0,4.0,244.0,3022.2
3022210.0,223.0,31.0,4.0,249.0,3022.21
3022220.0,224.0,32.0,3.0,253.0,3022.22
3022230.0,227.0,32.0,3.0,255.0,3022.23
3022240.0,226.0,33.0,3.0,251.0,3022.24
3022251.0,218.0,32.0,4.0,242.0,3022.251
3022261.0,221.0,32.0,3.0,249.0,3022.261
3022271.0,227.0,32.0,4.0,255.0,3022.271
3022281.0,224.0,32.0,3.0,252.0,3022.281
3022291.0,223.0,33.0,3.0,251.0,3022.291
3022301.0,217.0,33.0,3.0,245.0,3022.301
3022311.0,223.0,32.0,3.0,252.0,3022.311
3022321.0,229.0,32.0,4.0,256.0,3022.321
3022331.0,225.0,32.0,4.0,252.0,3022.331
3022341.0,226.0,33.0,4.0,252.0,3022.341
3022351.0,218.0,32.0,4.0,243.0,3022.351
3022361.0,224.0,32.0,3.0,253.0,3022.361
3022371.0,229.0,33.0,3.0,256.0,3022.371
3022381.0,227.0,32.0,3.0,254.0,3022.381
3022391.0,225.0,33.0,3.0,251.0,3022.391
3022401.0,218.0,32.0,4.0,242.0,3022.401
3022411.0,224.0,32.0,4.0,254.0,3022.411
3022422.0,228.0,33.0,3.0,258.0,3022.422
3022432.0,223.0,33.0,3.0,252.0,3022.432
3022442.0,223.0,32.0,3.0,251.0,3022.442
3022452.0,220.0,32.0,4.0,249.0,3022.452
3022462.0,228.0,32.0,4.0,257.0,3022.462
3022472.0,228.0,33.0,3.0,257.0,3022.472
3022482.0,222.0,32.0,3.0,251.0,3022.482
3022492.0,223.0,33.0,3.0,253.0,3022.492
3022502.0,220.0,32.0,4.0,252.0,3022.502
3022512.0,225.0,33.0,3.0,257.0,3022.512
3022522.0,228.0,33.0,4.0,259.0,3022.522
3022532.0,222.0,33.0,4.0,251.0,3022.532
3022542.0,222.0,33.0,4.0,253.0,3022.542
3022552.0,217.0,32.0,4.0,248.0,3022.552
3022562.0,225.0,34.0,3.0,257.0,3022.562
3022572.0,228.0,32.0,4.0,256.0,3022.572
3022582.0,221.0,32.0,3.0,248.0,3022.582
3022592.0,223.0,32.0,4.0,250.0,3022.592
3022602.0,218.0,33.0,2.0,245.0,3022.602
3022612.0,226.0,32.0,4.0,256.0,3022.612
3022622.0,227.0,34.0,3.0,256.0,3022.622
3022632.0,221.0,33.0,4.0,248.0,3022.632
3022642.0,223.0,32.0,4.0,251.0,3022.642
3022652.0,219.0,32.0,5.0,247.0,3022.652
3022662.0,226.0,33.0,4.0,255.0,3022.662
3022672.0,226.0,33.0,3.0,253.0,3022.672
3022682.0,222.0,32.0,4.0,250.0,3022.682
3022692.0,223.0,34.0,3.0,251.0,3022.692
3022702.0,221.0,32.0,4.0,250.0,3022.702
3022712.0,228.0,33.0,4.0,256.0,3022.712
3022722.0,229.0,33.0,4.0,256.0,3022.722
3022732.0,223.0,33.0,2.0,249.0,3022.732
3022742.0,224.0,33.0,3.0,249.0,3022.742
3022752.0,222.0,34.0,3.0,251.0,3022.752
3022763.0,227.0,32.0,3.0,254.0,3022.763
3022773.0,226.0,33.0,4.0,252.0,3022.773
3022783.0,218.0,33.0,4.0,245.0,3022.783
3022793.0,222.0,33.0,4.0,249.0,3022.793
3022803.0,227.0,33.0,4.0,256.0,3022.803
3022813.0,227.0,33.0,3.0,256.0,3022.813
3022823.0,226.0,33.0,3.0,253.0,3022.823
3022833.0,219.0,32.0,3.0,244.0,3022.833
3022843.0,221.0,32.0,4.0,251.0,3022.843
3022853.0,224.0,33.0,4.0,254.0,3022.853
3022863.0,227.0,33.0,4.0,257.0,3022.863
3022873.0,227.0,32.0,4.0,254.0,3022.873
3022883.0,219.0,33.0,3.0,247.0,3022.883
3022893.0,223.0,32.0,3.0,252.0,3022.893
3022903.0,224.0,32.0,4.0,256.0,3022.903
3022913.0,228.0,32.0,5.0,256.0,3022.913
3022923.0,225.0,33.0,3.0,255.0,3022.923
3022934.0,218.0,32.0,4.0,245.0,3022.934
3022944.0,222.0,33.0,3.0,255.0,3022.944
3022954.0,229.0,32.0,4.0,258.0,3022.954
3022964.0,224.0,32.0,3.0,252.0,3022.964
3022974.0,224.0,32.0,4.0,252.0,3022.974
3022984.0,218.0,31.0,4.0,244.0,3022.984
3022994.0,223.0,32.0,4.0,253.0,3022.994
3023004.0,229.0,32.0,4.0,259.0,3023.004
3023014.0,224.0,33.0,3.0,251.0,3023.014
3023024.0,226.0,32.0,4.0,252.0,3023.024
3023034.0,217.0,32.0,4.0,243.0,3023.034
3023044.0,226.0,32.0,5.0,253.0,3023.044
3023054.0,228.0,32.0,4.0,257.0,3023.054
3023064.0,226.0,32.0,3.0,253.0,3023.064
3023074.0,225.0,33.0,3.0,253.0,3023.074
3023084.0,217.0,31.0,4.0,243.0,3023.084
3023094.0,225.0,32.0,4.0,255.0,3023.094
3023104.0,228.0,32.0,4.0,257.0,3023.104
3023114.0,226.0,31.0,4.0,252.0,3023.114
3023124.0,224.0,32.0,3.0,251.0,3023.124
3023134.0,217.0,31.0,3.0,244.0,3023.134
3023144.0,225.0,32.0,3.0,256.0,3023.144
3023154.0,227.0,32.0,4.0,258.0,3023.154
3023164.0,225.0,31.0,4.0,253.0,3023.164
3023174.0,225.0,32.0,4.0,253.0,3023.174
3023184.0,218.0,32.0,2.0,247.0,3023.184
3023194.0,223.0,31.0,3.0,253.0,3023.194
3023204.0,229.0,33.0,3.0,259.0,3023.204
3023214.0,224.0,32.0,3.0,252.0,3023.214
3023224.0,224.0,31.0,3.0,254.0,3023.224
3023234.0,219.0,31.0,5.0,246.0,3023.234
3023244.0,224.0,31.0,2.0,256.0,3023.244
3023254.0,228.0,32.0,4.0,259.0,3023.254
3023264.0,223.0,32.0,3.0,254.0,3023.264
3023275.0,223.0,32.0,3.0,254.0,3023.275
3023285.0,220.0,31.0,3.0,250.0,3023.285
3023295.0,226.0,32.0,3.0,258.0,3023.295
3023305.0,228.0,31.0,4.0,255.0,3023.305
3023315.0,220.0,31.0,3.0,248.0,3023.315
3023325.0,224.0,32.0,4.0,253.0,3023.325
3023335.0,219.0,32.0,4.0,251.0,3023.335
3023345.0,227.0,30.0,3.0,257.0,3023.345
3023355.0,227.0,32.0,4.0,253.0,3023.355
3023365.0,223.0,31.0,4.0,249.0,3023.365
3023375.0,222.0,31.0,4.0,250.0,3023.375
3023385.0,221.0,31.0,4.0,249.0,3023.385
3023395.0,227.0,32.0,3.0,254.0,3023.395
3023405.0,228.0,31.0,3.0,255.0,3023.405
3023415.0,221.0,31.0,3.0,246.0,3023.415
3023425.0,224.0,31.0,4.0,248.0,3023.425
3023435.0,223.0,31.0,4.0,252.0,3023.435
3023446.0,226.0,31.0,3.0,255.0,3023.446
3023456.0,226.0,32.0,4.0,254.0,3023.456
3023466.0,218.0,32.0,3.0,244.0,3023.466
3023476.0,221.0,31.0,3.0,249.0,3023.476
3023486.0,226.0,31.0,2.0,256.0,3023.486
3023496.0,227.0,31.0,4.0,254.0,3023.496
3023506.0,225.0,32.0,4.0,251.0,3023.506
3023516.0,218.0,31.0,4.0,243.0,3023.516
3023526.0,222.0,33.0,3.0,250.0,3023.526
3023536.0,225.0,31.0,4.0,253.0,3023.536
3023546.0,226.0,31.0,4.0,254.0,3023.546
3023556.0,225.0,32.0,4.0,251.0,3023.556
3023566.0,217.0,31.0,3.0,243.0,3023.566
3023576.0,222.0,32.0,3.0,249.0,3023.576
3023586.0,225.0,33.0,3.0,255.0,3023.586
3023596.0,226.0,32.0,3.0,253.0,3023.596
3023606.0,225.0,32.0,4.0,252.0,3023.606
3023616.0,219.0,32.0,4.0,244.0,3023.616
3023626.0,222.0,31.0,3.0,249.0,3023.626
3023636.0,226.0,32.0,3.0,255.0,3023.636
3023646.0,226.0,32.0,3.0,252.0,3023.646
3023656.0,225.0,32.0,3.0,250.0,3023.656
3023666.0,219.0,31.0,4.0,242.0,3023.666
3023676.0,221.0,32.0,3.0,248.0,3023.676
3023686.0,227.0,32.0,4.0,255.0,3023.686
3023696.0,226.0,32.0,3.0,252.0,3023.696
3023706.0,226.0,33.0,4.0,251.0,3023.706
3023716.0,218.0,33.0,3.0,244.0,3023.716
3023726.0,222.0,32.0,4.0,247.0,3023.726
3023736.0,228.0,32.0,3.0,254.0,3023.736
3023746.0,227.0,32.0,4.0,252.0,3023.746
3023756.0,225.0,33.0,3.0,249.0,3023.756
3023766.0,217.0,32.0,4.0,239.0,3023.766
3023776.0,222.0,32.0,4.0,248.0,3023.776
3023787.0,227.0,33.0,3.0,253.0,3023.787
3023797.0,225.0,32.0,4.0,247.0,3023.797
3023807.0,224.0,32.0,4.0,248.0,3023.807
3023817.0,219.0,32.0,4.0,242.0,3023.817
3023827.0,227.0,32.0,4.0,252.0,3023.827
3023837.0,229.0,32.0,4.0,253.0,3023.837
3023847.0,224.0,33.0,3.0,248.0,3023.847
3023857.0,224.0,32.0,3.0,247.0,3023.857
3023867.0,219.0,32.0,4.0,244.0,3023.867
3023877.0,225.0,32.0,5.0,251.0,3023.877
3023887.0,229.0,33.0,3.0,254.0,3023.887
3023897.0,224.0,32.0,4.0,247.0,3023.897
3023907.0,224.0,33.0,3.0,249.0,3023.907
3023917.0,217.0,32.0,4.0,241.0,3023.917
3023927.0,226.0,32.0,3.0,253.0,3023.927
3023937.0,229.0,33.0,4.0,256.0,3023.937
3023947.0,225.0,31.0,4.0,249.0,3023.947
3023958.0,224.0,33.0,3.0,250.0,3023.958
3023968.0,222.0,32.0,3.0,251.0,3023.968
3023978.0,228.0,33.0,3.0,254.0,3023.978
3023988.0,228.0,32.0,4.0,252.0,3023.988
3023998.0,221.0,31.0,4.0,245.0,3023.998
3024008.0,225.0,32.0,5.0,249.0,3024.008
3024018.0,223.0,32.0,2.0,250.0,3024.018
3024028.0,228.0,31.0,4.0,253.0,3024.028
3024038.0,227.0,33.0,3.0,253.0,3024.038
3024048.0,223.0,31.0,4.0,246.0,3024.048
3024058.0,224.0,32.0,4.0,249.0,3024.058
3024068.0,224.0,31.0,4.0,251.0,3024.068
3024078.0,228.0,31.0,3.0,255.0,3024.078
3024088.0,229.0,32.0,3.0,255.0,3024.088
3024098.0,222.0,32.0,3.0,247.0,3024.098
3024108.0,223.0,32.0,3.0,248.0,3024.108
3024118.0,224.0,32.0,4.0,252.0,3024.118
3024128.0,227.0,32.0,3.0,255.0,3024.128
3024138.0,229.0,31.0,5.0,254.0,3024.138
3024148.0,222.0,31.0,4.0,246.0,3024.148
3024158.0,223.0,32.0,3.0,248.0,3024.158
3024168.0,226.0,32.0,3.0,254.0,3024.168
3024178.0,228.0,31.0,4.0,256.0,3024.178
3024188.0,227.0,31.0,3.0,253.0,3024.188
3024198.0,221.0,31.0,5.0,246.0,3024.198
3024208.0,222.0,31.0,4.0,249.0,3024.208
3024218.0,223.0,31.0,5.0,250.0,3024.218
3024228.0,227.0,31.0,3.0,257.0,3024.228
3024238.0,226.0,31.0,3.0,253.0,3024.238
3024248.0,220.0,30.0,3.0,245.0,3024.248
3024258.0,223.0,31.0,3.0,249.0,3024.258
3024268.0,223.0,31.0,4.0,251.0,3024.268
3024278.0,227.0,31.0,2.0,256.0,3024.278
3024288.0,226.0,31.0,4.0,253.0,3024.288
3024299.0,219.0,31.0,3.0,246.0,3024.299
3024309.0,222.0,30.0,4.0,251.0,3024.309
3024319.0,228.0,31.0,4.0,256.0,3024.319
3024329.0,227.0,31.0,4.0,254.0,3024.329
3024339.0,225.0,31.0,4.0,253.0,3024.339
3024349.0,220.0,31.0,4.0,246.0,3024.349
3024359.0,223.0,32.0,3.0,253.0,3024.359
3024369.0,229.0,30.0,4.0,258.0,3024.369
3024379.0,225.0,31.0,4.0,254.0,3024.379
3024389.0,226.0,30.0,4.0,254.0,3024.389
3024399.0,219.0,31.0,4.0,246.0,3024.399
3024409.0,224.0,31.0,3.0,254.0,3024.409
3024419.0,230.0,32.0,3.0,259.0,3024.419
3024429.0,227.0,31.0,3.0,256.0,3024.429
3024439.0,226.0,31.0,4.0,254.0,3024.439
3024449.0,218.0,31.0,4.0,245.0,3024.449
3024459.0,224.0,31.0,4.0,253.0,3024.459
3024470.0,228.0,31.0,4.0,258.0,3024.47
3024480.0,224.0,31.0,4.0,251.0,3024.48
3024490.0,224.0,32.0,3.0,252.0,3024.49
3024500.0,219.0,31.0,4.0,249.0,3024.5
3024510.0,227.0,31.0,3.0,257.0,3024.51
3024520.0,229.0,32.0,5.0,257.0,3024.52
3024530.0,223.0,31.0,4.0,250.0,3024.53
3024540.0,223.0,32.0,4.0,251.0,3024.54
3024550.0,220.0,31.0,3.0,251.0,3024.55
3024560.0,224.0,32.0,3.0,256.0,3024.56
3024570.0,228.0,32.0,3.0,257.0,3024.57
3024580.0,221.0,31.0,4.0,250.0,3024.58
3024590.0,223.0,32.0,4.0,252.0,3024.59
3024600.0,215.0,31.0,3.0,245.0,3024.6
3024610.0,224.0,32.0,4.0,257.0,3024.61
3024620.0,227.0,33.0,3.0,259.0,3024.62
3024630.0,221.0,31.0,3.0,251.0,3024.63
3024640.0,223.0,33.0,3.0,252.0,3024.64
3024650.0,217.0,32.0,4.0,247.0,3024.65
3024660.0,224.0,31.0,4.0,259.0,3024.66
3024670.0,227.0,33.0,4.0,257.0,3024.67
3024680.0,219.0,32.0,3.0,250.0,3024.68
3024690.0,223.0,32.0,4.0,252.0,3024.69
3024700.0,217.0,32.0,3.0,248.0,3024.7
3024710.0,225.0,32.0,4.0,258.0,3024.71
3024720.0,228.0,33.0,4.0,255.0,3024.72
3024730.0,223.0,32.0,4.0,251.0,3024.73
3024740.0,223.0,32.0,3.0,252.0,3024.74
3024750.0,219.0,32.0,4.0,250.0,3024.75
3024760.0,228.0,32.0,4.0,258.0,3024.76
3024770.0,228.0,33.0,3.0,258.0,3024.77
3024780.0,223.0,31.0,5.0,250.0,3024.78
3024790.0,224.0,32.0,2.0,251.0,3024.79
3024800.0,221.0,32.0,4.0,248.0,3024.8
3024811.0,228.0,33.0,3.0,257.0,3024.811
3024821.0,228.0,32.0,4.0,252.0,3024.821
3024831.0,220.0,32.0,4.0,245.0,3024.831
3024841.0,223.0,32.0,5.0,249.0,3024.841
3024851.0,226.0,33.0,2.0,255.0,3024.851
3024861.0,228.0,32.0,5.0,256.0,3024.861
3024871.0,227.0,33.0,3.0,254.0,3024.871
3024881.0,218.0,32.0,3.0,245.0,3024.881
3024891.0,221.0,32.0,3.0,251.0,3024.891
3024901.0,222.0,32.0,4.0,253.0,3024.901
3024911.0,227.0,31.0,4.0,258.0,3024.911
3024921.0,226.0,33.0,4.0,255.0,3024.921
3024931.0,217.0,33.0,3.0,247.0,3024.931
3024941.0,223.0,33.0,3.0,253.0,3024.941
3024951.0,223.0,32.0,4.0,255.0,3024.951
3024961.0,225.0,32.0,4.0,258.0,3024.961
3024971.0,225.0,33.0,4.0,254.0,3024.971
3024982.0,215.0,32.0,4.0,246.0,3024.982
3024992.0,221.0,32.0,4.0,253.0,3024.992
3025002.0,227.0,34.0,3.0,260.0,3025.002
3025012.0,223.0,32.0,4.0,254.0,3025.012
3025022.0,224.0,32.0,4.0,254.0,3025.022
3025032.0,217.0,32.0,5.0,246.0,3025.032
3025042.0,222.0,33.0,3.0,254.0,3025.042
3025052.0,229.0,32.0,4.0,258.0,3025.052
3025062.0,223.0,32.0,3.0,253.0,3025.062
3025072.0,226.0,33.0,3.0,254.0,3025.072
3025082.0,217.0,32.0,4.0,244.0,3025.082
3025092.0,222.0,33.0,4.0,254.0,3025.092
3025102.0,229.0,33.0,4.0,259.0,3025.102
3025112.0,224.0,32.0,3.0,257.0,3025.112
3025122.0,225.0,32.0,4.0,254.0,3025.122
3025132.0,216.0,32.0,3.0,247.0,3025.132
3025142.0,223.0,33.0,3.0,256.0,3025.142
3025152.0,227.0,33.0,3.0,260.0,3025.152
3025162.0,224.0,33.0,4.0,256.0,3025.162
3025172.0,224.0,33.0,3.0,254.0,3025.172
3025182.0,215.0,32.0,4.0,246.0,3025.182
3025192.0,224.0,33.0,3.0,258.0,3025.192
3025202.0,227.0,33.0,3.0,258.0,3025.202
3025212.0,223.0,32.0,3.0,253.0,3025.212
3025222.0,224.0,32.0,4.0,252.0,3025.222
3025232.0,217.0,31.0,4.0,246.0,3025.232
3025242.0,221.0,33.0,2.0,254.0,3025.242
3025252.0,228.0,33.0,4.0,259.0,3025.252
3025262.0,223.0,33.0,3.0,256.0,3025.262
3025272.0,224.0,32.0,4.0,252.0,3025.272
3025282.0,216.0,32.0,3.0,245.0,3025.282
3025292.0,223.0,32.0,5.0,254.0,3025.292
3025302.0,229.0,32.0,4.0,258.0,3025.302
3025312.0,223.0,32.0,4.0,253.0,3025.312
3025323.0,224.0,33.0,3.0,254.0,3025.323
3025333.0,218.0,32.0,4.0,248.0,3025.333
3025343.0,227.0,31.0,4.0,257.0,3025.343
3025353.0,229.0,32.0,4.0,258.0,3025.353
3025363.0,220.0,31.0,4.0,251.0,3025.363
3025373.0,224.0,32.0,4.0,253.0,3025.373
3025383.0,219.0,32.0,3.0,252.0,3025.383
3025393.0,226.0,33.0,3.0,260.0,3025.393
3025403.0,229.0,32.0,4.0,258.0,3025.403
3025413.0,221.0,32.0,4.0,253.0,3025.413
3025423.0,224.0,32.0,4.0,254.0,3025.423
3025433.0,220.0,32.0,3.0,252.0,3025.433
3025443.0,226.0,31.0,4.0,260.0,3025.443
3025453.0,229.0,33.0,3.0,260.0,3025.453
3025463.0,220.0,32.0,3.0,250.0,3025.463
3025473.0,223.0,32.0,3.0,251.0,3025.473
3025483.0,221.0,31.0,5.0,252.0,3025.483
3025494.0,226.0,31.0,4.0,257.0,3025.494
3025504.0,226.0,32.0,4.0,254.0,3025.504
3025514.0,217.0,32.0,4.0,247.0,3025.514
3025524.0,221.0,32.0,3.0,252.0,3025.524
3025534.0,227.0,32.0,3.0,258.0,3025.534
3025544.0,225.0,32.0,4.0,258.0,3025.544
3025554.0,227.0,31.0,4.0,254.0,3025.554
3025564.0,216.0,32.0,3.0,246.0,3025.564
3025574.0,221.0,32.0,4.0,252.0,3025.574
3025584.0,224.0,33.0,4.0,255.0,3025.584
3025594.0,226.0,32.0,4.0,257.0,3025.594
3025604.0,227.0,32.0,3.0,255.0,3025.604
3025614.0,217.0,31.0,4.0,247.0,3025.614
3025624.0,222.0,31.0,3.0,252.0,3025.624
3025634.0,225.0,32.0,4.0,256.0,3025.634
3025644.0,225.0,33.0,3.0,259.0,3025.644
3025654.0,226.0,32.0,4.0,254.0,3025.654
3025664.0,218.0,32.0,3.0,249.0,3025.664
3025674.0,222.0,32.0,5.0,251.0,3025.674
3025684.0,226.0,32.0,4.0,258.0,3025.684
3025694.0,224.0,31.0,4.0,257.0,3025.694
3025704.0,226.0,33.0,3.0,255.0,3025.704
3025714.0,218.0,33.0,3.0,248.0,3025.714
3025724.0,222.0,31.0,3.0,252.0,3025.724
3025734.0,227.0,32.0,4.0,259.0,3025.734
3025744.0,224.0,31.0,4.0,257.0,3025.744
3025754.0,227.0,33.0,2.0,256.0,3025.754
3025764.0,217.0,31.0,4.0,248.0,3025.764
3025774.0,221.0,32.0,3.0,254.0,3025.774
3025784.0,226.0,32.0,3.0,260.0,3025.784
3025794.0,224.0,31.0,4.0,258.0,3025.794
3025804.0,225.0,32.0,4.0,255.0,3025.804
3025814.0,216.0,31.0,4.0,247.0,3025.814
3025824.0,220.0,32.0,3.0,253.0,3025.824
3025835.0,227.0,32.0,3.0,259.0,3025.835
3025845.0,222.0,32.0,3.0,256.0,3025.845
3025855.0,222.0,32.0,3.0,255.0,3025.855
3025865.0,215.0,32.0,4.0,249.0,3025.865
3025875.0,225.0,31.0,4.0,258.0,3025.875
3025885.0,228.0,32.0,3.0,261.0,3025.885
3025895.0,222.0,32.0,3.0,256.0,3025.895
3025905.0,223.0,33.0,3.0,255.0,3025.905
3025915.0,216.0,32.0,4.0,249.0,3025.915
3025925.0,221.0,31.0,4.0,256.0,3025.925
3025935.0,228.0,32.0,5.0,259.0,3025.935
3025945.0,220.0,31.0,3.0,253.0,3025.945
3025955.0,222.0,32.0,3.0,253.0,3025.955
3025965.0,214.0,31.0,3.0,245.0,3025.965
3025975.0,221.0,32.0,3.0,254.0,3025.975
3025985.0,227.0,32.0,3.0,256.0,3025.985
3025995.0,221.0,32.0,4.0,251.0,3025.995
3026006.0,223.0,31.0,3.0,251.0,3026.006
3026016.0,218.0,31.0,4.0,249.0,3026.016
3026026.0,226.0,32.0,4.0,258.0,3026.026
3026036.0,227.0,32.0,3.0,257.0,3026.036
3026046.0,218.0,30.0,4.0,249.0,3026.046
3026056.0,223.0,32.0,3.0,252.0,3026.056
3026066.0,221.0,31.0,4.0,251.0,3026.066
3026076.0,226.0,31.0,3.0,258.0,3026.076
3026086.0,227.0,32.0,4.0,254.0,3026.086
3026096.0,221.0,32.0,3.0,251.0,3026.096
3026106.0,222.0,31.0,4.0,250.0,3026.106
3026116.0,220.0,32.0,3.0,251.0,3026.116
3026126.0,226.0,32.0,3.0,255.0,3026.126
3026136.0,227.0,31.0,4.0,256.0,3026.136
3026146.0,219.0,31.0,4.0,248.0,3026.146
3026156.0,221.0,32.0,4.0,249.0,3026.156
3026166.0,221.0,32.0,4.0,252.0,3026.166
3026176.0,223.0,32.0,3.0,257.0,3026.176
3026186.0,225.0,32.0,4.0,256.0,3026.186
3026196.0,217.0,31.0,4.0,248.0,3026.196
3026206.0,218.0,32.0,4.0,249.0,3026.206
3026216.0,220.0,32.0,3.0,253.0,3026.216
3026226.0,222.0,32.0,3.0,256.0,3026.226
3026236.0,224.0,32.0,3.0,252.0,3026.236
3026246.0,215.0,32.0,4.0,246.0,3026.246
3026256.0,219.0,32.0,5.0,248.0,3026.256
3026266.0,216.0,32.0,3.0,249.0,3026.266
3026276.0,223.0,31.0,4.0,254.0,3026.276
3026286.0,225.0,33.0,4.0,252.0,3026.286
3026296.0,215.0,32.0,3.0,244.0,3026.296
3026306.0,220.0,32.0,4.0,247.0,3026.306
3026316.0,217.0,32.0,5.0,247.0,3026.316
3026326.0,223.0,31.0,4.0,254.0,3026.326
3026336.0,222.0,32.0,4.0,249.0,3026.336
3026347.0,214.0,32.0,4.0,243.0,3026.347
3026357.0,217.0,33.0,3.0,246.0,3026.357
3026367.0,223.0,32.0,3.0,252.0,3026.367
3026377.0,221.0,32.0,4.0,250.0,3026.377
3026387.0,222.0,33.0,5.0,248.0,3026.387
3026397.0,214.0,32.0,4.0,244.0,3026.397
3026407.0,218.0,32.0,4.0,248.0,3026.407
3026417.0,224.0,33.0,3.0,256.0,3026.417
3026427.0,221.0,32.0,4.0,252.0,3026.427
3026437.0,222.0,33.0,3.0,252.0,3026.437
3026447.0,214.0,32.0,4.0,244.0,3026.447
3026457.0,218.0,32.0,4.0,250.0,3026.457
3026467.0,224.0,33.0,3.0,255.0,3026.467
3026477.0,222.0,33.0,4.0,253.0,3026.477
3026487.0,222.0,33.0,3.0,250.0,3026.487
3026497.0,214.0,32.0,3.0,242.0,3026.497
3026507.0,219.0,33.0,4.0,250.0,3026.507
3026518.0,226.0,33.0,4.0,255.0,3026.518
3026528.0,220.0,33.0,4.0,248.0,3026.528
3026538.0,220.0,33.0,4.0,248.0,3026.538
3026548.0,215.0,33.0,3.0,245.0,3026.548
3026558.0,223.0,32.0,4.0,255.0,3026.558
3026568.0,225.0,33.0,4.0,256.0,3026.568
3026578.0,221.0,32.0,4.0,250.0,3026.578
