time (ms),signal 0,signal 1,signal 2,signal 3,time (sec)
3055539.0,223.0,33.0,3.0,248.0,3055.539
3055549.0,227.0,31.0,4.0,250.0,3055.549
3055559.0,225.0,32.0,4.0,249.0,3055.559
3055569.0,218.0,31.0,4.0,239.0,3055.569
3055579.0,222.0,33.0,3.0,245.0,3055.579
3055589.0,223.0,32.0,3.0,249.0,3055.589
3055599.0,227.0,31.0,4.0,249.0,3055.599
3055609.0,226.0,31.0,4.0,248.0,3055.609
3055619.0,220.0,31.0,3.0,242.0,3055.619
3055629.0,222.0,32.0,4.0,244.0,3055.629
3055639.0,225.0,32.0,3.0,250.0,3055.639
3055649.0,227.0,32.0,4.0,250.0,3055.649
3055659.0,227.0,32.0,4.0,249.0,3055.659
3055669.0,220.0,32.0,4.0,240.0,3055.669
3055679.0,222.0,31.0,4.0,243.0,3055.679
3055689.0,226.0,32.0,4.0,250.0,3055.689
3055699.0,226.0,31.0,3.0,250.0,3055.699
3055709.0,227.0,32.0,3.0,250.0,3055.709
3055719.0,222.0,31.0,4.0,244.0,3055.719
3055729.0,224.0,32.0,3.0,250.0,3055.729
3055739.0,230.0,32.0,5.0,255.0,3055.739
3055749.0,230.0,31.0,4.0,255.0,3055.749
3055759.0,228.0,32.0,4.0,253.0,3055.759
3055769.0,221.0,32.0,3.0,245.0,3055.769
3055779.0,223.0,32.0,4.0,249.0,3055.779
3055789.0,226.0,31.0,4.0,252.0,3055.789
3055799.0,230.0,31.0,4.0,253.0,3055.799
3055809.0,228.0,31.0,4.0,251.0,3055.809
3055819.0,222.0,33.0,3.0,242.0,3055.819
3055830.0,225.0,32.0,3.0,249.0,3055.83
3055840.0,231.0,32.0,3.0,254.0,3055.84
3055850.0,228.0,31.0,4.0,249.0,3055.85
3055860.0,227.0,32.0,4.0,249.0,3055.86
3055870.0,220.0,31.0,4.0,242.0,3055.87
3055880.0,225.0,32.0,3.0,250.0,3055.88
3055890.0,231.0,32.0,4.0,255.0,3055.89
3055900.0,226.0,32.0,3.0,250.0,3055.9
3055910.0,227.0,32.0,4.0,249.0,3055.91
3055920.0,220.0,31.0,4.0,242.0,3055.92
3055930.0,226.0,31.0,3.0,250.0,3055.93
3055940.0,231.0,31.0,2.0,255.0,3055.94
3055950.0,226.0,31.0,3.0,247.0,3055.95
3055960.0,227.0,32.0,3.0,249.0,3055.96
3055970.0,219.0,31.0,3.0,239.0,3055.97
3055980.0,226.0,32.0,4.0,251.0,3055.98
3055990.0,232.0,32.0,4.0,257.0,3055.99
3056000.0,229.0,31.0,3.0,252.0,3056.0
3056010.0,228.0,31.0,3.0,252.0,3056.01
3056020.0,220.0,32.0,4.0,242.0,3056.02
3056030.0,227.0,33.0,3.0,254.0,3056.03
3056040.0,232.0,30.0,4.0,256.0,3056.04
3056050.0,229.0,31.0,4.0,252.0,3056.05
3056060.0,228.0,31.0,5.0,250.0,3056.06
3056070.0,219.0,31.0,3.0,242.0,3056.07
3056080.0,228.0,31.0,4.0,254.0,3056.08
3056090.0,232.0,31.0,4.0,257.0,3056.09
3056100.0,227.0,31.0,4.0,250.0,3056.1
3056110.0,227.0,31.0,3.0,251.0,3056.11
3056120.0,221.0,31.0,5.0,245.0,3056.12
3056130.0,225.0,31.0,3.0,251.0,3056.13
3056140.0,232.0,32.0,3.0,256.0,3056.14
3056150.0,226.0,31.0,3.0,250.0,3056.15
3056160.0,226.0,32.0,3.0,250.0,3056.16
3056171.0,221.0,31.0,4.0,245.0,3056.171
3056181.0,230.0,31.0,4.0,254.0,3056.181
3056191.0,232.0,31.0,4.0,255.0,3056.191
3056201.0,224.0,32.0,3.0,249.0,3056.201
3056211.0,226.0,30.0,4.0,252.0,3056.211
3056221.0,222.0,33.0,3.0,250.0,3056.221
3056231.0,230.0,30.0,3.0,258.0,3056.231
3056241.0,231.0,31.0,4.0,256.0,3056.241
3056251.0,224.0,31.0,5.0,248.0,3056.251
3056261.0,226.0,31.0,3.0,251.0,3056.261
3056271.0,224.0,31.0,3.0,247.0,3056.271
3056281.0,230.0,32.0,4.0,256.0,3056.281
3056291.0,231.0,32.0,3.0,252.0,3056.291
3056301.0,225.0,30.0,4.0,249.0,3056.301
3056311.0,226.0,31.0,4.0,246.0,3056.311
3056321.0,225.0,31.0,4.0,252.0,3056.321
3056331.0,231.0,32.0,3.0,258.0,3056.331
3056342.0,230.0,32.0,4.0,253.0,3056.342
3056352.0,221.0,32.0,3.0,247.0,3056.352
3056362.0,224.0,30.0,4.0,252.0,3056.362
3056372.0,229.0,32.0,3.0,261.0,3056.372
3056382.0,228.0,31.0,4.0,257.0,3056.382
3056392.0,229.0,31.0,2.0,257.0,3056.392
3056402.0,222.0,31.0,4.0,253.0,3056.402
3056412.0,226.0,32.0,3.0,261.0,3056.412
3056422.0,233.0,32.0,4.0,264.0,3056.422
3056432.0,230.0,31.0,3.0,253.0,3056.432
3056442.0,231.0,32.0,4.0,250.0,3056.442
3056452.0,222.0,31.0,4.0,238.0,3056.452
3056462.0,225.0,32.0,3.0,242.0,3056.462
3056472.0,227.0,32.0,4.0,244.0,3056.472
3056482.0,227.0,32.0,3.0,250.0,3056.482
3056492.0,234.0,32.0,3.0,262.0,3056.492
3056502.0,222.0,32.0,3.0,250.0,3056.502
3056512.0,230.0,31.0,4.0,256.0,3056.512
3056522.0,230.0,32.0,3.0,256.0,3056.522
3056532.0,228.0,31.0,3.0,256.0,3056.532
3056542.0,227.0,33.0,3.0,259.0,3056.542
3056552.0,218.0,32.0,3.0,243.0,3056.552
3056562.0,220.0,32.0,3.0,248.0,3056.562
3056572.0,226.0,32.0,4.0,253.0,3056.572
3056582.0,224.0,31.0,2.0,254.0,3056.582
3056592.0,222.0,32.0,4.0,241.0,3056.592
3056602.0,223.0,32.0,4.0,239.0,3056.602
3056612.0,225.0,31.0,3.0,244.0,3056.612
3056622.0,229.0,31.0,4.0,254.0,3056.622
3056632.0,228.0,32.0,4.0,253.0,3056.632
3056642.0,231.0,31.0,4.0,259.0,3056.642
3056652.0,224.0,32.0,3.0,257.0,3056.652
3056662.0,227.0,31.0,4.0,265.0,3056.662
3056672.0,233.0,33.0,3.0,276.0,3056.672
3056683.0,230.0,31.0,4.0,272.0,3056.683
3056693.0,227.0,32.0,3.0,268.0,3056.693
3056703.0,224.0,31.0,4.0,251.0,3056.703
3056713.0,236.0,31.0,2.0,268.0,3056.713
3056723.0,236.0,32.0,4.0,264.0,3056.723
3056733.0,235.0,31.0,3.0,276.0,3056.733
3056743.0,237.0,32.0,3.0,270.0,3056.743
3056753.0,227.0,31.0,4.0,270.0,3056.753
3056763.0,238.0,32.0,5.0,263.0,3056.763
3056773.0,231.0,32.0,4.0,262.0,3056.773
3056783.0,221.0,32.0,3.0,263.0,3056.783
3056793.0,217.0,32.0,4.0,255.0,3056.793
3056803.0,209.0,32.0,3.0,249.0,3056.803
3056813.0,218.0,32.0,4.0,269.0,3056.813
3056823.0,228.0,32.0,4.0,283.0,3056.823
3056833.0,221.0,31.0,4.0,275.0,3056.833
3056843.0,224.0,32.0,4.0,293.0,3056.843
3056854.0,224.0,32.0,4.0,279.0,3056.854
3056864.0,235.0,33.0,3.0,287.0,3056.864
3056874.0,235.0,32.0,4.0,275.0,3056.874
3056884.0,225.0,32.0,3.0,265.0,3056.884
3056894.0,229.0,31.0,5.0,277.0,3056.894
3056904.0,234.0,32.0,4.0,310.0,3056.904
3056914.0,242.0,32.0,4.0,319.0,3056.914
3056924.0,245.0,33.0,4.0,332.0,3056.924
3056934.0,239.0,32.0,4.0,324.0,3056.934
3056944.0,240.0,33.0,3.0,331.0,3056.944
3056954.0,236.0,32.0,4.0,324.0,3056.954
3056964.0,240.0,31.0,3.0,334.0,3056.964
3056974.0,242.0,33.0,3.0,338.0,3056.974
3056984.0,233.0,32.0,4.0,320.0,3056.984
3056994.0,235.0,34.0,3.0,314.0,3056.994
3057004.0,233.0,32.0,3.0,318.0,3057.004
3057014.0,237.0,32.0,3.0,317.0,3057.014
3057024.0,240.0,32.0,4.0,311.0,3057.024
3057034.0,228.0,32.0,4.0,288.0,3057.034
3057044.0,232.0,32.0,4.0,276.0,3057.044
3057054.0,236.0,34.0,3.0,298.0,3057.054
3057064.0,239.0,32.0,4.0,292.0,3057.064
3057074.0,240.0,33.0,3.0,291.0,3057.074
3057084.0,230.0,32.0,4.0,272.0,3057.084
3057094.0,234.0,31.0,4.0,272.0,3057.094
3057104.0,242.0,33.0,3.0,306.0,3057.104
3057114.0,240.0,33.0,3.0,305.0,3057.114
3057124.0,244.0,34.0,3.0,306.0,3057.124
3057134.0,234.0,32.0,4.0,297.0,3057.134
3057144.0,238.0,32.0,4.0,288.0,3057.144
3057154.0,235.0,33.0,4.0,281.0,3057.154
3057164.0,236.0,33.0,4.0,270.0,3057.164
3057174.0,237.0,33.0,4.0,297.0,3057.174
3057184.0,224.0,33.0,3.0,273.0,3057.184
3057195.0,232.0,33.0,4.0,276.0,3057.195
3057205.0,239.0,33.0,3.0,276.0,3057.205
3057215.0,241.0,32.0,4.0,290.0,3057.215
3057225.0,238.0,33.0,4.0,279.0,3057.225
3057235.0,224.0,32.0,3.0,281.0,3057.235
3057245.0,236.0,33.0,3.0,321.0,3057.245
3057255.0,246.0,33.0,3.0,337.0,3057.255
3057265.0,246.0,32.0,4.0,326.0,3057.265
3057275.0,249.0,33.0,4.0,322.0,3057.275
3057285.0,240.0,31.0,4.0,324.0,3057.285
3057295.0,236.0,33.0,4.0,332.0,3057.295
3057305.0,240.0,33.0,4.0,321.0,3057.305
3057315.0,235.0,33.0,3.0,325.0,3057.315
3057325.0,237.0,32.0,4.0,327.0,3057.325
3057335.0,231.0,32.0,3.0,315.0,3057.335
3057345.0,240.0,32.0,4.0,334.0,3057.345
3057355.0,252.0,33.0,4.0,359.0,3057.355
3057366.0,244.0,32.0,3.0,341.0,3057.366
3057376.0,240.0,33.0,3.0,339.0,3057.376
3057386.0,236.0,32.0,4.0,327.0,3057.386
3057396.0,238.0,32.0,3.0,330.0,3057.396
3057406.0,242.0,33.0,5.0,323.0,3057.406
3057416.0,233.0,32.0,3.0,319.0,3057.416
3057426.0,234.0,33.0,3.0,315.0,3057.426
3057436.0,229.0,33.0,3.0,307.0,3057.436
3057446.0,241.0,32.0,3.0,321.0,3057.446
3057456.0,249.0,32.0,4.0,334.0,3057.456
3057466.0,243.0,32.0,4.0,344.0,3057.466
3057476.0,243.0,33.0,4.0,334.0,3057.476
3057486.0,235.0,32.0,4.0,321.0,3057.486
3057496.0,241.0,32.0,4.0,324.0,3057.496
3057506.0,246.0,33.0,3.0,326.0,3057.506
3057516.0,240.0,32.0,3.0,322.0,3057.516
3057526.0,241.0,31.0,3.0,315.0,3057.526
3057536.0,232.0,32.0,3.0,306.0,3057.536
3057546.0,241.0,31.0,4.0,328.0,3057.546
3057556.0,247.0,32.0,4.0,332.0,3057.556
3057566.0,237.0,32.0,3.0,331.0,3057.566
3057576.0,237.0,32.0,3.0,344.0,3057.576
3057586.0,229.0,32.0,4.0,325.0,3057.586
3057596.0,239.0,32.0,4.0,323.0,3057.596
3057606.0,245.0,31.0,4.0,316.0,3057.606
3057616.0,238.0,32.0,2.0,312.0,3057.616
3057626.0,243.0,32.0,3.0,311.0,3057.626
3057636.0,239.0,33.0,3.0,317.0,3057.636
3057646.0,241.0,31.0,4.0,307.0,3057.646
3057656.0,246.0,32.0,3.0,313.0,3057.656
3057666.0,238.0,31.0,5.0,295.0,3057.666
3057676.0,236.0,32.0,2.0,283.0,3057.676
3057686.0,235.0,31.0,3.0,308.0,3057.686
3057696.0,244.0,32.0,3.0,326.0,3057.696
3057707.0,247.0,32.0,4.0,322.0,3057.707
3057717.0,236.0,31.0,4.0,301.0,3057.717
3057727.0,240.0,32.0,4.0,303.0,3057.727
3057737.0,242.0,31.0,4.0,293.0,3057.737
3057747.0,241.0,32.0,3.0,277.0,3057.747
3057757.0,241.0,32.0,4.0,271.0,3057.757
3057767.0,229.0,32.0,3.0,266.0,3057.767
3057777.0,232.0,31.0,3.0,271.0,3057.777
3057787.0,237.0,32.0,3.0,288.0,3057.787
3057797.0,239.0,31.0,4.0,287.0,3057.797
3057807.0,241.0,32.0,2.0,294.0,3057.807
3057817.0,232.0,31.0,4.0,292.0,3057.817
3057827.0,235.0,32.0,3.0,297.0,3057.827
3057837.0,234.0,32.0,4.0,288.0,3057.837
3057847.0,230.0,31.0,4.0,277.0,3057.847
3057857.0,232.0,32.0,4.0,272.0,3057.857
3057867.0,224.0,31.0,4.0,264.0,3057.867
3057878.0,229.0,32.0,3.0,283.0,3057.878
3057888.0,240.0,33.0,3.0,304.0,3057.888
3057898.0,233.0,32.0,3.0,285.0,3057.898
3057908.0,232.0,32.0,3.0,269.0,3057.908
3057918.0,220.0,32.0,4.0,255.0,3057.918
3057928.0,224.0,31.0,4.0,248.0,3057.928
3057938.0,231.0,32.0,4.0,255.0,3057.938
3057948.0,227.0,32.0,4.0,260.0,3057.948
3057958.0,230.0,33.0,3.0,265.0,3057.958
3057968.0,222.0,32.0,4.0,272.0,3057.968
3057978.0,228.0,32.0,3.0,286.0,3057.978
3057988.0,237.0,32.0,4.0,280.0,3057.988
3057998.0,229.0,31.0,3.0,260.0,3057.998
3058008.0,232.0,32.0,3.0,262.0,3058.008
3058018.0,223.0,33.0,3.0,269.0,3058.018
3058028.0,230.0,32.0,3.0,280.0,3058.028
3058038.0,239.0,32.0,3.0,307.0,3058.038
3058048.0,236.0,32.0,4.0,300.0,3058.048
3058058.0,237.0,32.0,3.0,296.0,3058.058
3058068.0,226.0,32.0,4.0,283.0,3058.068
3058078.0,230.0,32.0,4.0,291.0,3058.078
3058088.0,240.0,33.0,3.0,317.0,3058.088
3058098.0,234.0,32.0,4.0,306.0,3058.098
3058108.0,233.0,32.0,3.0,299.0,3058.108
3058118.0,225.0,31.0,4.0,287.0,3058.118
3058128.0,232.0,32.0,4.0,299.0,3058.128
3058138.0,235.0,33.0,3.0,292.0,3058.138
3058148.0,226.0,33.0,3.0,278.0,3058.148
3058158.0,230.0,32.0,3.0,268.0,3058.158
3058168.0,220.0,32.0,3.0,251.0,3058.168
3058178.0,228.0,32.0,4.0,262.0,3058.178
3058188.0,234.0,31.0,4.0,260.0,3058.188
3058198.0,229.0,32.0,4.0,253.0,3058.198
3058208.0,231.0,32.0,3.0,247.0,3058.208
3058219.0,223.0,32.0,3.0,245.0,3058.219
3058229.0,232.0,32.0,4.0,266.0,3058.229
3058239.0,239.0,33.0,4.0,273.0,3058.239
3058249.0,228.0,32.0,4.0,259.0,3058.249
3058259.0,230.0,32.0,4.0,258.0,3058.259
3058269.0,228.0,32.0,4.0,264.0,3058.269
3058279.0,237.0,33.0,3.0,269.0,3058.279
3058289.0,239.0,32.0,4.0,265.0,3058.289
3058299.0,229.0,32.0,3.0,260.0,3058.299
3058309.0,233.0,31.0,5.0,265.0,3058.309
3058319.0,226.0,31.0,3.0,269.0,3058.319
3058329.0,236.0,32.0,4.0,277.0,3058.329
3058339.0,241.0,33.0,3.0,276.0,3058.339
3058349.0,233.0,32.0,3.0,279.0,3058.349
3058359.0,233.0,32.0,3.0,280.0,3058.359
3058369.0,229.0,32.0,4.0,282.0,3058.369
3058379.0,236.0,31.0,4.0,281.0,3058.379
3058390.0,236.0,32.0,4.0,267.0,3058.39
3058400.0,222.0,32.0,4.0,248.0,3058.4
3058410.0,225.0,31.0,3.0,238.0,3058.41
3058420.0,231.0,32.0,4.0,237.0,3058.42
3058430.0,228.0,32.0,3.0,231.0,3058.43
3058440.0,232.0,31.0,4.0,251.0,3058.44
3058450.0,222.0,32.0,3.0,248.0,3058.45
3058460.0,227.0,31.0,3.0,271.0,3058.46
3058470.0,233.0,33.0,3.0,273.0,3058.47
3058480.0,234.0,32.0,4.0,280.0,3058.48
3058490.0,237.0,32.0,4.0,272.0,3058.49
3058500.0,225.0,31.0,4.0,250.0,3058.5
3058510.0,229.0,31.0,2.0,262.0,3058.51
3058520.0,232.0,32.0,4.0,256.0,3058.52
3058530.0,233.0,32.0,4.0,254.0,3058.53
3058540.0,238.0,32.0,3.0,246.0,3058.54
3058550.0,225.0,31.0,4.0,230.0,3058.55
3058560.0,231.0,32.0,4.0,234.0,3058.56
3058570.0,232.0,32.0,3.0,237.0,3058.57
3058580.0,232.0,31.0,2.0,247.0,3058.58
3058590.0,235.0,31.0,3.0,256.0,3058.59
3058600.0,222.0,32.0,3.0,246.0,3058.6
3058610.0,227.0,32.0,3.0,249.0,3058.61
3058620.0,230.0,32.0,3.0,263.0,3058.62
3058630.0,231.0,31.0,4.0,268.0,3058.63
3058640.0,233.0,31.0,2.0,271.0,3058.64
3058650.0,226.0,32.0,3.0,267.0,3058.65
3058660.0,230.0,33.0,3.0,274.0,3058.66
3058670.0,235.0,32.0,4.0,277.0,3058.67
3058680.0,230.0,32.0,4.0,261.0,3058.68
3058690.0,232.0,32.0,4.0,256.0,3058.69
3058700.0,220.0,31.0,4.0,245.0,3058.7
3058710.0,227.0,32.0,4.0,258.0,3058.71
3058720.0,235.0,32.0,4.0,271.0,3058.72
3058731.0,232.0,32.0,3.0,272.0,3058.731
3058741.0,235.0,32.0,3.0,268.0,3058.741
3058751.0,224.0,32.0,4.0,259.0,3058.751
3058761.0,232.0,32.0,4.0,268.0,3058.761
3058771.0,238.0,33.0,2.0,268.0,3058.771
3058781.0,232.0,32.0,4.0,265.0,3058.781
3058791.0,232.0,34.0,3.0,267.0,3058.791
3058801.0,223.0,32.0,4.0,256.0,3058.801
3058811.0,233.0,32.0,3.0,273.0,3058.811
3058821.0,237.0,33.0,4.0,271.0,3058.821
3058831.0,231.0,31.0,4.0,271.0,3058.831
3058841.0,235.0,32.0,3.0,275.0,3058.841
3058851.0,228.0,33.0,3.0,267.0,3058.851
3058861.0,233.0,32.0,3.0,265.0,3058.861
3058871.0,238.0,32.0,3.0,266.0,3058.871
3058881.0,229.0,32.0,4.0,258.0,3058.881
3058891.0,233.0,31.0,4.0,258.0,3058.891
3058902.0,231.0,32.0,3.0,261.0,3058.902
3058912.0,239.0,32.0,4.0,272.0,3058.912
3058922.0,242.0,32.0,3.0,270.0,3058.922
3058932.0,229.0,32.0,3.0,259.0,3058.932
3058942.0,232.0,32.0,3.0,259.0,3058.942
3058952.0,229.0,31.0,5.0,259.0,3058.952
3058962.0,234.0,32.0,4.0,267.0,3058.962
3058972.0,237.0,33.0,4.0,260.0,3058.972
3058982.0,225.0,33.0,3.0,253.0,3058.982
3058992.0,229.0,32.0,3.0,255.0,3058.992
3059002.0,225.0,32.0,4.0,254.0,3059.002
3059012.0,232.0,32.0,4.0,261.0,3059.012
3059022.0,236.0,33.0,4.0,258.0,3059.022
3059032.0,226.0,32.0,4.0,255.0,3059.032
3059042.0,229.0,32.0,4.0,257.0,3059.042
3059052.0,228.0,33.0,3.0,260.0,3059.052
3059062.0,233.0,32.0,4.0,265.0,3059.062
3059072.0,238.0,33.0,3.0,266.0,3059.072
3059082.0,226.0,32.0,4.0,258.0,3059.082
3059092.0,230.0,32.0,4.0,258.0,3059.092
3059102.0,231.0,33.0,3.0,260.0,3059.102
3059112.0,231.0,33.0,3.0,260.0,3059.112
3059122.0,237.0,32.0,3.0,258.0,3059.122
3059132.0,225.0,32.0,4.0,255.0,3059.132
3059142.0,231.0,33.0,5.0,257.0,3059.142
3059152.0,231.0,33.0,3.0,261.0,3059.152
3059162.0,232.0,32.0,3.0,265.0,3059.162
3059172.0,236.0,33.0,4.0,263.0,3059.172
3059182.0,223.0,32.0,3.0,260.0,3059.182
3059192.0,224.0,32.0,4.0,263.0,3059.192
3059202.0,221.0,33.0,4.0,262.0,3059.202
3059212.0,228.0,31.0,4.0,268.0,3059.212
3059222.0,231.0,33.0,2.0,263.0,3059.222
3059232.0,220.0,32.0,4.0,256.0,3059.232
3059243.0,224.0,33.0,3.0,257.0,3059.243
3059253.0,229.0,32.0,3.0,263.0,3059.253
3059263.0,225.0,32.0,3.0,262.0,3059.263
3059273.0,228.0,32.0,4.0,258.0,3059.273
3059283.0,218.0,32.0,4.0,252.0,3059.283
3059293.0,225.0,32.0,4.0,258.0,3059.293
3059303.0,229.0,33.0,3.0,259.0,3059.303
3059313.0,223.0,32.0,3.0,255.0,3059.313
3059323.0,227.0,32.0,3.0,252.0,3059.323
3059333.0,218.0,32.0,4.0,247.0,3059.333
3059343.0,223.0,31.0,4.0,253.0,3059.343
3059353.0,230.0,33.0,3.0,259.0,3059.353
3059363.0,224.0,32.0,3.0,259.0,3059.363
3059373.0,227.0,33.0,3.0,258.0,3059.373
3059383.0,218.0,32.0,4.0,250.0,3059.383
3059393.0,223.0,32.0,4.0,258.0,3059.393
3059403.0,230.0,32.0,4.0,263.0,3059.403
3059414.0,224.0,32.0,2.0,259.0,3059.414
3059424.0,226.0,32.0,4.0,257.0,3059.424
3059434.0,218.0,33.0,3.0,252.0,3059.434
3059444.0,226.0,32.0,4.0,262.0,3059.444
3059454.0,229.0,33.0,3.0,264.0,3059.454
3059464.0,224.0,33.0,4.0,258.0,3059.464
3059474.0,225.0,32.0,4.0,256.0,3059.474
3059484.0,218.0,32.0,4.0,252.0,3059.484
3059494.0,226.0,33.0,3.0,263.0,3059.494
3059504.0,229.0,33.0,3.0,261.0,3059.504
3059514.0,223.0,32.0,4.0,258.0,3059.514
3059524.0,226.0,33.0,4.0,258.0,3059.524
3059534.0,220.0,33.0,4.0,255.0,3059.534
3059544.0,223.0,33.0,3.0,261.0,3059.544
3059554.0,229.0,32.0,4.0,264.0,3059.554
3059564.0,222.0,33.0,3.0,257.0,3059.564
3059574.0,223.0,32.0,4.0,256.0,3059.574
3059584.0,215.0,33.0,3.0,249.0,3059.584
3059594.0,223.0,32.0,4.0,258.0,3059.594
3059604.0,228.0,33.0,4.0,259.0,3059.604
3059614.0,221.0,32.0,4.0,252.0,3059.614
3059624.0,222.0,33.0,3.0,253.0,3059.624
3059634.0,215.0,32.0,4.0,246.0,3059.634
3059644.0,223.0,32.0,3.0,256.0,3059.644
3059654.0,228.0,33.0,4.0,257.0,3059.654
3059664.0,219.0,31.0,4.0,252.0,3059.664
3059674.0,222.0,32.0,4.0,255.0,3059.674
3059684.0,215.0,32.0,4.0,249.0,3059.684
3059694.0,223.0,33.0,3.0,260.0,3059.694
3059704.0,228.0,32.0,4.0,257.0,3059.704
3059714.0,221.0,32.0,4.0,252.0,3059.714
3059724.0,224.0,32.0,4.0,252.0,3059.724
3059734.0,216.0,32.0,4.0,248.0,3059.734
3059744.0,224.0,32.0,4.0,258.0,3059.744
3059755.0,227.0,34.0,3.0,256.0,3059.755
3059765.0,218.0,32.0,3.0,250.0,3059.765
3059775.0,221.0,32.0,3.0,254.0,3059.775
3059785.0,222.0,32.0,4.0,257.0,3059.785
3059795.0,224.0,32.0,2.0,257.0,3059.795
3059805.0,227.0,33.0,3.0,255.0,3059.805
3059815.0,218.0,32.0,3.0,249.0,3059.815
3059825.0,221.0,32.0,3.0,252.0,3059.825
3059835.0,225.0,32.0,3.0,258.0,3059.835
3059845.0,226.0,32.0,4.0,259.0,3059.845
3059855.0,228.0,33.0,3.0,256.0,3059.855
3059865.0,217.0,31.0,2.0,246.0,3059.865
3059875.0,220.0,32.0,3.0,253.0,3059.875
3059885.0,220.0,33.0,3.0,254.0,3059.885
3059895.0,228.0,32.0,3.0,260.0,3059.895
3059905.0,229.0,32.0,4.0,255.0,3059.905
3059915.0,219.0,32.0,5.0,249.0,3059.915
3059926.0,222.0,31.0,4.0,252.0,3059.926
3059936.0,227.0,32.0,4.0,258.0,3059.936
3059946.0,224.0,32.0,3.0,258.0,3059.946
3059956.0,223.0,32.0,4.0,255.0,3059.956
3059966.0,215.0,32.0,3.0,248.0,3059.966
3059976.0,217.0,32.0,5.0,254.0,3059.976
3059986.0,224.0,31.0,4.0,259.0,3059.986
3059996.0,220.0,31.0,3.0,253.0,3059.996
3060006.0,222.0,32.0,3.0,254.0,3060.006
3060016.0,215.0,32.0,4.0,247.0,3060.016
3060026.0,220.0,32.0,4.0,254.0,3060.026
3060036.0,226.0,32.0,4.0,258.0,3060.036
3060046.0,224.0,31.0,4.0,254.0,3060.046
3060056.0,225.0,31.0,4.0,252.0,3060.056
3060066.0,217.0,31.0,4.0,243.0,3060.066
3060076.0,223.0,32.0,3.0,249.0,3060.076
3060086.0,229.0,32.0,4.0,254.0,3060.086
3060096.0,229.0,32.0,3.0,254.0,3060.096
3060106.0,230.0,32.0,5.0,250.0,3060.106
3060116.0,221.0,31.0,3.0,243.0,3060.116
3060126.0,228.0,32.0,4.0,254.0,3060.126
3060136.0,232.0,32.0,3.0,256.0,3060.136
3060146.0,228.0,31.0,3.0,255.0,3060.146
3060156.0,228.0,32.0,4.0,254.0,3060.156
3060166.0,219.0,31.0,4.0,245.0,3060.166
3060176.0,227.0,31.0,4.0,255.0,3060.176
3060186.0,229.0,32.0,4.0,257.0,3060.186
3060196.0,226.0,32.0,4.0,254.0,3060.196
3060206.0,226.0,32.0,3.0,253.0,3060.206
3060216.0,217.0,31.0,4.0,249.0,3060.216
3060226.0,223.0,31.0,4.0,256.0,3060.226
3060236.0,229.0,31.0,5.0,261.0,3060.236
3060246.0,225.0,31.0,3.0,258.0,3060.246
3060256.0,225.0,31.0,4.0,256.0,3060.256
3060267.0,217.0,32.0,3.0,251.0,3060.267
3060277.0,225.0,30.0,4.0,260.0,3060.277
3060287.0,229.0,32.0,4.0,259.0,3060.287
3060297.0,220.0,31.0,4.0,251.0,3060.297
3060307.0,222.0,31.0,4.0,253.0,3060.307
3060317.0,217.0,31.0,4.0,249.0,3060.317
3060327.0,226.0,31.0,3.0,260.0,3060.327
3060337.0,228.0,33.0,3.0,258.0,3060.337
3060347.0,220.0,31.0,3.0,250.0,3060.347
3060357.0,224.0,31.0,4.0,253.0,3060.357
3060367.0,218.0,31.0,5.0,251.0,3060.367
3060377.0,225.0,31.0,4.0,258.0,3060.377
3060387.0,227.0,32.0,4.0,256.0,3060.387
3060397.0,222.0,32.0,3.0,253.0,3060.397
3060407.0,223.0,32.0,4.0,253.0,3060.407
3060417.0,219.0,31.0,3.0,253.0,3060.417
3060427.0,228.0,31.0,4.0,260.0,3060.427
3060438.0,228.0,31.0,4.0,257.0,3060.438
3060448.0,221.0,31.0,3.0,252.0,3060.448
3060458.0,225.0,32.0,3.0,255.0,3060.458
3060468.0,227.0,32.0,3.0,258.0,3060.468
3060478.0,228.0,31.0,3.0,258.0,3060.478
3060488.0,229.0,32.0,4.0,258.0,3060.488
3060498.0,222.0,31.0,4.0,250.0,3060.498
3060508.0,224.0,32.0,3.0,253.0,3060.508
3060518.0,228.0,32.0,3.0,260.0,3060.518
3060528.0,230.0,32.0,3.0,260.0,3060.528
3060538.0,229.0,32.0,3.0,257.0,3060.538
3060548.0,221.0,31.0,3.0,250.0,3060.548
3060558.0,221.0,31.0,4.0,255.0,3060.558
3060568.0,222.0,31.0,4.0,257.0,3060.568
3060578.0,226.0,32.0,3.0,259.0,3060.578
3060588.0,226.0,33.0,4.0,257.0,3060.588
3060598.0,219.0,32.0,4.0,250.0,3060.598
3060608.0,223.0,33.0,3.0,256.0,3060.608
3060618.0,225.0,32.0,4.0,258.0,3060.618
3060628.0,227.0,31.0,4.0,260.0,3060.628
3060638.0,227.0,32.0,3.0,261.0,3060.638
3060648.0,218.0,31.0,4.0,250.0,3060.648
3060658.0,222.0,33.0,3.0,256.0,3060.658
3060668.0,230.0,30.0,4.0,262.0,3060.668
3060678.0,229.0,31.0,4.0,264.0,3060.678
3060688.0,229.0,32.0,4.0,259.0,3060.688
3060698.0,222.0,31.0,2.0,253.0,3060.698
3060708.0,224.0,32.0,3.0,255.0,3060.708
3060718.0,229.0,33.0,3.0,263.0,3060.718
3060728.0,228.0,31.0,4.0,260.0,3060.728
3060738.0,229.0,32.0,4.0,258.0,3060.738
3060748.0,221.0,32.0,4.0,251.0,3060.748
3060758.0,223.0,31.0,3.0,255.0,3060.758
3060768.0,228.0,32.0,4.0,263.0,3060.768
3060779.0,226.0,32.0,3.0,261.0,3060.779
3060789.0,225.0,33.0,3.0,256.0,3060.789
3060799.0,217.0,32.0,4.0,248.0,3060.799
3060809.0,225.0,32.0,4.0,256.0,3060.809
3060819.0,230.0,32.0,4.0,258.0,3060.819
3060829.0,226.0,32.0,2.0,257.0,3060.829
3060839.0,226.0,32.0,4.0,256.0,3060.839
3060849.0,218.0,33.0,3.0,249.0,3060.849
3060859.0,227.0,32.0,4.0,258.0,3060.859
3060869.0,229.0,33.0,3.0,259.0,3060.869
3060879.0,227.0,31.0,5.0,254.0,3060.879
3060889.0,225.0,32.0,4.0,254.0,3060.889
3060899.0,218.0,32.0,4.0,247.0,3060.899
3060909.0,224.0,33.0,2.0,255.0,3060.909
3060919.0,229.0,32.0,3.0,256.0,3060.919
3060929.0,225.0,32.0,3.0,250.0,3060.929
3060939.0,225.0,32.0,5.0,251.0,3060.939
3060950.0,220.0,31.0,4.0,246.0,3060.95
3060960.0,227.0,32.0,4.0,254.0,3060.96
3060970.0,230.0,33.0,3.0,255.0,3060.97
3060980.0,222.0,32.0,3.0,250.0,3060.98
3060990.0,221.0,32.0,4.0,254.0,3060.99
3061000.0,216.0,32.0,4.0,251.0,3061.0
3061010.0,226.0,32.0,4.0,260.0,3061.01
3061020.0,226.0,32.0,3.0,259.0,3061.02
3061030.0,219.0,32.0,3.0,252.0,3061.03
3061040.0,222.0,34.0,3.0,256.0,3061.04
3061050.0,219.0,33.0,3.0,252.0,3061.05
3061060.0,227.0,32.0,4.0,261.0,3061.06
3061070.0,228.0,33.0,5.0,260.0,3061.07
3061080.0,223.0,33.0,2.0,255.0,3061.08
3061090.0,224.0,32.0,4.0,255.0,3061.09
3061100.0,223.0,33.0,3.0,257.0,3061.1
3061110.0,229.0,33.0,3.0,261.0,3061.11
3061120.0,230.0,32.0,4.0,261.0,3061.12
3061130.0,223.0,32.0,4.0,255.0,3061.13
3061140.0,224.0,33.0,4.0,255.0,3061.14
3061150.0,224.0,33.0,2.0,254.0,3061.15
3061160.0,228.0,32.0,4.0,256.0,3061.16
3061170.0,229.0,33.0,3.0,255.0,3061.17
3061180.0,223.0,32.0,4.0,249.0,3061.18
3061190.0,224.0,33.0,4.0,252.0,3061.19
3061200.0,227.0,32.0,5.0,256.0,3061.2
3061210.0,230.0,31.0,2.0,260.0,3061.21
3061220.0,231.0,33.0,4.0,256.0,3061.22
3061230.0,227.0,33.0,3.0,249.0,3061.23
3061240.0,228.0,32.0,4.0,253.0,3061.24
3061250.0,225.0,32.0,4.0,251.0,3061.25
3061260.0,233.0,32.0,4.0,258.0,3061.26
3061270.0,233.0,31.0,4.0,255.0,3061.27
3061280.0,225.0,32.0,3.0,248.0,3061.28
3061291.0,227.0,33.0,3.0,253.0,3061.291
3061301.0,230.0,32.0,3.0,257.0,3061.301
3061311.0,231.0,32.0,3.0,255.0,3061.311
3061321.0,229.0,32.0,4.0,252.0,3061.321
3061331.0,224.0,31.0,4.0,245.0,3061.331
3061341.0,228.0,33.0,3.0,252.0,3061.341
3061351.0,230.0,32.0,4.0,257.0,3061.351
3061361.0,230.0,33.0,3.0,258.0,3061.361
3061371.0,228.0,32.0,4.0,254.0,3061.371
3061381.0,223.0,32.0,3.0,247.0,3061.381
3061391.0,225.0,32.0,5.0,251.0,3061.391
3061401.0,230.0,32.0,4.0,262.0,3061.401
3061411.0,229.0,32.0,4.0,258.0,3061.411
3061421.0,229.0,33.0,3.0,257.0,3061.421
3061431.0,223.0,32.0,3.0,250.0,3061.431
3061441.0,226.0,32.0,3.0,255.0,3061.441
3061451.0,235.0,33.0,4.0,263.0,3061.451
3061462.0,233.0,31.0,4.0,259.0,3061.462
3061472.0,230.0,33.0,3.0,256.0,3061.472
3061482.0,223.0,32.0,3.0,250.0,3061.482
3061492.0,231.0,33.0,3.0,259.0,3061.492
3061502.0,233.0,32.0,4.0,260.0,3061.502
3061512.0,230.0,31.0,4.0,256.0,3061.512
3061522.0,229.0,32.0,4.0,255.0,3061.522
3061532.0,222.0,32.0,4.0,250.0,3061.532
3061542.0,231.0,32.0,4.0,260.0,3061.542
3061552.0,232.0,33.0,3.0,262.0,3061.552
3061562.0,228.0,32.0,3.0,255.0,3061.562
3061572.0,228.0,32.0,3.0,255.0,3061.572
3061582.0,224.0,31.0,5.0,251.0,3061.582
3061592.0,229.0,31.0,4.0,258.0,3061.592
3061602.0,236.0,32.0,4.0,265.0,3061.602
3061612.0,232.0,32.0,3.0,257.0,3061.612
3061622.0,230.0,32.0,3.0,256.0,3061.622
3061632.0,224.0,32.0,3.0,248.0,3061.632
3061642.0,231.0,31.0,4.0,259.0,3061.642
3061652.0,235.0,31.0,4.0,261.0,3061.652
3061662.0,229.0,31.0,4.0,255.0,3061.662
3061672.0,229.0,32.0,4.0,256.0,3061.672
3061682.0,224.0,32.0,3.0,253.0,3061.682
3061692.0,228.0,32.0,4.0,262.0,3061.692
3061702.0,231.0,32.0,3.0,263.0,3061.702
3061712.0,228.0,31.0,4.0,254.0,3061.712
3061722.0,228.0,31.0,4.0,256.0,3061.722
3061732.0,222.0,32.0,3.0,249.0,3061.732
3061742.0,230.0,32.0,4.0,261.0,3061.742
3061752.0,231.0,32.0,3.0,258.0,3061.752
3061762.0,229.0,31.0,4.0,253.0,3061.762
3061772.0,227.0,32.0,4.0,253.0,3061.772
3061782.0,221.0,31.0,4.0,247.0,3061.782
3061792.0,230.0,32.0,4.0,256.0,3061.792
3061803.0,231.0,32.0,4.0,256.0,3061.803
3061813.0,226.0,32.0,3.0,250.0,3061.813
3061823.0,226.0,30.0,4.0,248.0,3061.823
3061833.0,227.0,32.0,4.0,252.0,3061.833
3061843.0,232.0,32.0,4.0,255.0,3061.843
3061853.0,231.0,32.0,4.0,254.0,3061.853
3061863.0,226.0,31.0,4.0,247.0,3061.863
3061873.0,227.0,32.0,3.0,251.0,3061.873
3061883.0,229.0,32.0,4.0,254.0,3061.883
3061893.0,232.0,32.0,4.0,256.0,3061.893
3061903.0,230.0,32.0,4.0,254.0,3061.903
3061913.0,224.0,31.0,4.0,250.0,3061.913
3061923.0,225.0,32.0,3.0,255.0,3061.923
3061933.0,224.0,31.0,3.0,255.0,3061.933
3061943.0,231.0,32.0,3.0,262.0,3061.943
3061953.0,230.0,32.0,3.0,258.0,3061.953
3061963.0,224.0,32.0,3.0,250.0,3061.963
3061974.0,226.0,31.0,4.0,254.0,3061.974
3061984.0,231.0,32.0,3.0,261.0,3061.984
3061994.0,231.0,31.0,4.0,260.0,3061.994
3062004.0,229.0,33.0,4.0,256.0,3062.004
3062014.0,222.0,31.0,4.0,247.0,3062.014
3062024.0,227.0,31.0,4.0,253.0,3062.024
3062034.0,232.0,32.0,5.0,261.0,3062.034
3062044.0,230.0,31.0,3.0,259.0,3062.044
3062054.0,228.0,32.0,3.0,256.0,3062.054
3062064.0,223.0,32.0,3.0,250.0,3062.064
3062074.0,226.0,32.0,3.0,256.0,3062.074
3062084.0,231.0,32.0,4.0,259.0,3062.084
3062094.0,229.0,32.0,4.0,256.0,3062.094
3062104.0,228.0,32.0,4.0,255.0,3062.104
3062114.0,221.0,31.0,3.0,249.0,3062.114
3062124.0,226.0,32.0,3.0,258.0,3062.124
3062134.0,232.0,32.0,3.0,262.0,3062.134
3062144.0,231.0,31.0,4.0,261.0,3062.144
3062154.0,228.0,31.0,3.0,257.0,3062.154
3062164.0,223.0,31.0,5.0,251.0,3062.164
3062174.0,226.0,32.0,2.0,259.0,3062.174
3062184.0,232.0,32.0,4.0,262.0,3062.184
3062194.0,230.0,32.0,3.0,264.0,3062.194
3062204.0,228.0,32.0,3.0,258.0,3062.204
3062214.0,221.0,32.0,4.0,250.0,3062.214
3062224.0,228.0,31.0,4.0,255.0,3062.224
3062234.0,231.0,31.0,3.0,259.0,3062.234
3062244.0,230.0,32.0,3.0,257.0,3062.244
3062254.0,229.0,32.0,4.0,255.0,3062.254
3062264.0,222.0,32.0,3.0,248.0,3062.264
3062274.0,226.0,32.0,4.0,252.0,3062.274
3062284.0,231.0,32.0,4.0,258.0,3062.284
3062294.0,232.0,31.0,5.0,258.0,3062.294
3062304.0,229.0,32.0,3.0,257.0,3062.304
3062315.0,222.0,32.0,4.0,252.0,3062.315
3062325.0,231.0,32.0,3.0,264.0,3062.325
3062335.0,233.0,32.0,4.0,263.0,3062.335
3062345.0,227.0,32.0,3.0,257.0,3062.345
3062355.0,229.0,32.0,5.0,257.0,3062.355
3062365.0,222.0,31.0,4.0,253.0,3062.365
3062375.0,230.0,32.0,4.0,262.0,3062.375
3062385.0,233.0,32.0,3.0,263.0,3062.385
3062395.0,227.0,32.0,3.0,256.0,3062.395
3062405.0,227.0,32.0,4.0,256.0,3062.405
3062415.0,221.0,32.0,4.0,252.0,3062.415
3062425.0,231.0,32.0,4.0,261.0,3062.425
3062435.0,231.0,32.0,4.0,260.0,3062.435
3062445.0,229.0,32.0,4.0,261.0,3062.445
3062455.0,228.0,33.0,3.0,260.0,3062.455
3062465.0,225.0,32.0,4.0,256.0,3062.465
3062475.0,232.0,32.0,4.0,263.0,3062.475
3062486.0,234.0,32.0,5.0,259.0,3062.486
3062496.0,226.0,32.0,4.0,255.0,3062.496
3062506.0,225.0,32.0,4.0,256.0,3062.506
3062516.0,228.0,33.0,3.0,263.0,3062.516
3062526.0,230.0,32.0,3.0,262.0,3062.526
3062536.0,232.0,33.0,4.0,261.0,3062.536
3062546.0,225.0,32.0,5.0,254.0,3062.546
3062556.0,226.0,31.0,3.0,256.0,3062.556
3062566.0,230.0,32.0,3.0,261.0,3062.566
3062576.0,231.0,32.0,3.0,262.0,3062.576
3062586.0,231.0,33.0,4.0,258.0,3062.586
3062596.0,224.0,32.0,3.0,254.0,3062.596
3062606.0,225.0,32.0,4.0,256.0,3062.606
3062616.0,227.0,32.0,4.0,258.0,3062.616
3062626.0,231.0,32.0,4.0,263.0,3062.626
3062636.0,230.0,33.0,3.0,259.0,3062.636
3062646.0,222.0,33.0,3.0,254.0,3062.646
3062656.0,226.0,32.0,4.0,257.0,3062.656
3062666.0,227.0,32.0,4.0,259.0,3062.666
3062676.0,232.0,32.0,5.0,263.0,3062.676
3062686.0,229.0,33.0,2.0,260.0,3062.686
3062696.0,223.0,32.0,4.0,253.0,3062.696
3062706.0,227.0,33.0,3.0,259.0,3062.706
3062716.0,229.0,32.0,3.0,262.0,3062.716
3062726.0,232.0,32.0,4.0,264.0,3062.726
3062736.0,231.0,33.0,4.0,258.0,3062.736
3062746.0,226.0,33.0,4.0,255.0,3062.746
3062756.0,226.0,33.0,4.0,255.0,3062.756
3062766.0,229.0,33.0,4.0,261.0,3062.766
3062776.0,231.0,34.0,3.0,264.0,3062.776
3062786.0,235.0,32.0,3.0,259.0,3062.786
3062796.0,227.0,33.0,3.0,253.0,3062.796
3062806.0,229.0,33.0,4.0,254.0,3062.806
3062816.0,233.0,33.0,2.0,264.0,3062.816
3062827.0,234.0,32.0,4.0,263.0,3062.827
3062837.0,231.0,34.0,3.0,261.0,3062.837
3062847.0,224.0,32.0,3.0,252.0,3062.847
3062857.0,229.0,33.0,4.0,261.0,3062.857
3062867.0,234.0,34.0,4.0,262.0,3062.867
3062877.0,232.0,33.0,3.0,261.0,3062.877
3062887.0,229.0,34.0,3.0,258.0,3062.887
3062897.0,223.0,33.0,4.0,252.0,3062.897
3062907.0,230.0,33.0,3.0,260.0,3062.907
3062917.0,233.0,32.0,3.0,262.0,3062.917
3062927.0,231.0,33.0,3.0,260.0,3062.927
3062937.0,230.0,34.0,4.0,257.0,3062.937
3062947.0,223.0,34.0,3.0,253.0,3062.947
3062957.0,228.0,33.0,3.0,259.0,3062.957
3062967.0,233.0,34.0,3.0,265.0,3062.967
3062977.0,231.0,32.0,4.0,262.0,3062.977
3062987.0,229.0,33.0,3.0,261.0,3062.987
3062998.0,223.0,33.0,5.0,256.0,3062.998
3063008.0,230.0,33.0,4.0,266.0,3063.008
3063018.0,233.0,33.0,4.0,264.0,3063.018
3063028.0,227.0,33.0,3.0,260.0,3063.028
3063038.0,228.0,32.0,3.0,259.0,3063.038
3063048.0,224.0,33.0,4.0,256.0,3063.048
3063058.0,232.0,33.0,4.0,265.0,3063.058
3063068.0,233.0,34.0,3.0,263.0,3063.068
3063078.0,225.0,33.0,3.0,254.0,3063.078
3063088.0,228.0,33.0,4.0,257.0,3063.088
3063098.0,223.0,34.0,3.0,256.0,3063.098
3063108.0,232.0,33.0,3.0,264.0,3063.108
3063118.0,232.0,33.0,4.0,262.0,3063.118
3063128.0,229.0,33.0,5.0,259.0,3063.128
3063138.0,227.0,33.0,4.0,258.0,3063.138
3063148.0,224.0,33.0,4.0,256.0,3063.148
3063158.0,232.0,33.0,3.0,265.0,3063.158
3063168.0,231.0,32.0,4.0,262.0,3063.168
3063178.0,226.0,33.0,3.0,257.0,3063.178
3063188.0,226.0,33.0,4.0,256.0,3063.188
3063198.0,224.0,33.0,4.0,255.0,3063.198
3063208.0,230.0,33.0,4.0,262.0,3063.208
3063218.0,232.0,33.0,4.0,261.0,3063.218
3063228.0,225.0,32.0,3.0,255.0,3063.228
3063238.0,226.0,32.0,4.0,254.0,3063.238
3063248.0,225.0,33.0,4.0,255.0,3063.248
3063258.0,229.0,32.0,4.0,259.0,3063.258
3063268.0,230.0,33.0,4.0,258.0,3063.268
3063278.0,224.0,32.0,4.0,253.0,3063.278
3063288.0,225.0,33.0,3.0,255.0,3063.288
3063298.0,221.0,32.0,4.0,252.0,3063.298
3063308.0,229.0,32.0,3.0,263.0,3063.308
3063318.0,231.0,33.0,4.0,261.0,3063.318
3063328.0,223.0,32.0,3.0,255.0,3063.328
3063339.0,224.0,32.0,4.0,257.0,3063.339
3063349.0,226.0,33.0,3.0,262.0,3063.349
3063359.0,229.0,32.0,4.0,262.0,3063.359
3063369.0,228.0,32.0,4.0,256.0,3063.369
3063379.0,221.0,32.0,3.0,249.0,3063.379
3063389.0,224.0,31.0,4.0,253.0,3063.389
3063399.0,227.0,33.0,3.0,260.0,3063.399
3063409.0,228.0,32.0,3.0,260.0,3063.409
3063419.0,227.0,33.0,4.0,255.0,3063.419
3063429.0,222.0,32.0,4.0,250.0,3063.429
3063439.0,224.0,32.0,3.0,254.0,3063.439
3063449.0,230.0,31.0,5.0,259.0,3063.449
3063459.0,228.0,31.0,3.0,261.0,3063.459
3063469.0,230.0,32.0,3.0,261.0,3063.469
3063479.0,222.0,32.0,3.0,253.0,3063.479
3063489.0,224.0,32.0,4.0,256.0,3063.489
3063499.0,230.0,32.0,3.0,260.0,3063.499
3063510.0,227.0,32.0,3.0,256.0,3063.51
3063520.0,227.0,31.0,4.0,253.0,3063.52
3063530.0,219.0,32.0,4.0,247.0,3063.53
3063540.0,227.0,32.0,3.0,259.0,3063.54
3063550.0,231.0,32.0,3.0,260.0,3063.55
3063560.0,227.0,32.0,3.0,258.0,3063.56
3063570.0,226.0,32.0,3.0,254.0,3063.57
3063580.0,220.0,31.0,4.0,248.0,3063.58
3063590.0,227.0,32.0,3.0,260.0,3063.59
3063600.0,230.0,32.0,4.0,260.0,3063.6
3063610.0,227.0,32.0,3.0,258.0,3063.61
3063620.0,227.0,32.0,3.0,254.0,3063.62
3063630.0,219.0,31.0,4.0,247.0,3063.63
3063640.0,225.0,31.0,5.0,254.0,3063.64
3063650.0,230.0,32.0,2.0,258.0,3063.65
3063660.0,225.0,31.0,3.0,253.0,3063.66
3063670.0,225.0,33.0,3.0,254.0,3063.67
3063680.0,219.0,32.0,4.0,246.0,3063.68
3063690.0,225.0,31.0,4.0,256.0,3063.69
3063700.0,231.0,32.0,4.0,259.0,3063.7
3063710.0,226.0,31.0,4.0,254.0,3063.71
3063720.0,226.0,32.0,4.0,253.0,3063.72
3063730.0,218.0,32.0,4.0,248.0,3063.73
3063740.0,226.0,32.0,3.0,259.0,3063.74
3063750.0,231.0,32.0,3.0,261.0,3063.75
3063760.0,224.0,32.0,3.0,254.0,3063.76
3063770.0,227.0,32.0,4.0,255.0,3063.77
3063780.0,218.0,32.0,4.0,248.0,3063.78
3063790.0,226.0,32.0,3.0,257.0,3063.79
3063800.0,231.0,32.0,3.0,262.0,3063.8
3063810.0,227.0,32.0,4.0,259.0,3063.81
3063820.0,226.0,32.0,3.0,256.0,3063.82
3063830.0,219.0,32.0,4.0,250.0,3063.83
3063840.0,227.0,32.0,2.0,260.0,3063.84
3063851.0,230.0,32.0,3.0,257.0,3063.851
3063861.0,223.0,33.0,3.0,253.0,3063.861
3063871.0,224.0,32.0,3.0,253.0,3063.871
3063881.0,224.0,32.0,3.0,255.0,3063.881
3063891.0,228.0,32.0,4.0,259.0,3063.891
3063901.0,231.0,32.0,4.0,258.0,3063.901
3063911.0,222.0,33.0,3.0,254.0,3063.911
3063921.0,224.0,32.0,3.0,255.0,3063.921
3063931.0,225.0,33.0,3.0,259.0,3063.931
3063941.0,229.0,32.0,4.0,262.0,3063.941
3063951.0,230.0,33.0,3.0,261.0,3063.951
3063961.0,222.0,31.0,5.0,253.0,3063.961
3063971.0,224.0,31.0,3.0,255.0,3063.971
3063981.0,222.0,32.0,4.0,260.0,3063.981
3063991.0,229.0,33.0,3.0,268.0,3063.991
3064001.0,230.0,32.0,4.0,262.0,3064.001
3064011.0,221.0,32.0,4.0,254.0,3064.011
3064022.0,224.0,32.0,4.0,257.0,3064.022
3064032.0,227.0,32.0,4.0,261.0,3064.032
3064042.0,228.0,32.0,4.0,261.0,3064.042
3064052.0,228.0,32.0,4.0,258.0,3064.052
3064062.0,220.0,32.0,3.0,252.0,3064.062
3064072.0,225.0,32.0,4.0,258.0,3064.072
3064082.0,228.0,32.0,4.0,262.0,3064.082
3064092.0,229.0,31.0,5.0,259.0,3064.092
3064102.0,226.0,33.0,3.0,257.0,3064.102
3064112.0,220.0,31.0,4.0,249.0,3064.112
3064122.0,223.0,33.0,3.0,255.0,3064.122
3064132.0,229.0,32.0,4.0,260.0,3064.132
3064142.0,227.0,32.0,3.0,258.0,3064.142
3064152.0,229.0,33.0,5.0,257.0,3064.152
3064162.0,220.0,31.0,3.0,250.0,3064.162
3064172.0,224.0,32.0,4.0,256.0,3064.172
3064182.0,230.0,32.0,3.0,268.0,3064.182
3064192.0,228.0,32.0,4.0,264.0,3064.192
3064202.0,227.0,32.0,3.0,259.0,3064.202
3064212.0,219.0,31.0,3.0,250.0,3064.212
3064222.0,224.0,31.0,4.0,254.0,3064.222
3064232.0,230.0,32.0,3.0,259.0,3064.232
3064242.0,229.0,31.0,4.0,257.0,3064.242
3064252.0,227.0,33.0,3.0,254.0,3064.252
3064262.0,218.0,32.0,4.0,247.0,3064.262
3064272.0,224.0,31.0,4.0,255.0,3064.272
3064282.0,229.0,31.0,4.0,257.0,3064.282
3064292.0,227.0,31.0,3.0,256.0,3064.292
3064302.0,227.0,32.0,3.0,252.0,3064.302
3064312.0,218.0,32.0,3.0,245.0,3064.312
3064322.0,223.0,32.0,3.0,251.0,3064.322
3064332.0,228.0,32.0,4.0,257.0,3064.332
3064342.0,227.0,32.0,4.0,259.0,3064.342
3064352.0,227.0,31.0,4.0,255.0,3064.352
3064363.0,218.0,32.0,4.0,247.0,3064.363
3064373.0,226.0,32.0,4.0,257.0,3064.373
3064383.0,231.0,32.0,3.0,264.0,3064.383
3064393.0,225.0,30.0,4.0,256.0,3064.393
3064403.0,225.0,32.0,4.0,255.0,3064.403
3064413.0,219.0,31.0,5.0,249.0,3064.413
3064423.0,226.0,32.0,4.0,261.0,3064.423
3064433.0,231.0,32.0,3.0,264.0,3064.433
3064443.0,224.0,33.0,3.0,257.0,3064.443
3064453.0,226.0,32.0,3.0,258.0,3064.453
3064463.0,219.0,32.0,3.0,252.0,3064.463
3064473.0,229.0,32.0,4.0,261.0,3064.473
3064483.0,231.0,31.0,3.0,261.0,3064.483
3064493.0,226.0,32.0,3.0,258.0,3064.493
3064503.0,226.0,32.0,3.0,256.0,3064.503
3064513.0,220.0,32.0,3.0,251.0,3064.513
3064523.0,229.0,31.0,3.0,261.0,3064.523
3064534.0,231.0,32.0,4.0,259.0,3064.534
3064544.0,224.0,31.0,3.0,253.0,3064.544
3064554.0,225.0,32.0,2.0,254.0,3064.554
3064564.0,227.0,32.0,4.0,259.0,3064.564
3064574.0,231.0,32.0,3.0,262.0,3064.574
3064584.0,232.0,32.0,4.0,262.0,3064.584
3064594.0,224.0,31.0,4.0,256.0,3064.594
3064604.0,227.0,31.0,5.0,259.0,3064.604
3064614.0,228.0,32.0,3.0,264.0,3064.614
3064624.0,230.0,31.0,4.0,265.0,3064.624
3064634.0,231.0,32.0,3.0,263.0,3064.634
3064644.0,223.0,31.0,3.0,256.0,3064.644
3064654.0,225.0,31.0,3.0,258.0,3064.654
3064664.0,224.0,32.0,4.0,257.0,3064.664
3064674.0,230.0,31.0,4.0,266.0,3064.674
3064684.0,230.0,32.0,3.0,262.0,3064.684
3064694.0,222.0,31.0,4.0,255.0,3064.694
3064704.0,226.0,31.0,3.0,258.0,3064.704
3064714.0,225.0,31.0,4.0,258.0,3064.714
3064724.0,230.0,31.0,4.0,263.0,3064.724
3064734.0,230.0,31.0,5.0,259.0,3064.734
3064744.0,222.0,31.0,4.0,253.0,3064.744
3064754.0,225.0,31.0,4.0,257.0,3064.754
3064764.0,226.0,32.0,3.0,261.0,3064.764
3064774.0,229.0,31.0,4.0,264.0,3064.774
3064784.0,229.0,31.0,4.0,261.0,3064.784
3064794.0,224.0,31.0,4.0,258.0,3064.794
3064804.0,226.0,31.0,4.0,258.0,3064.804
3064814.0,227.0,31.0,4.0,261.0,3064.814
3064824.0,231.0,31.0,3.0,265.0,3064.824
3064834.0,232.0,32.0,4.0,262.0,3064.834
3064844.0,223.0,30.0,4.0,256.0,3064.844
3064854.0,225.0,32.0,4.0,256.0,3064.854
3064864.0,229.0,31.0,4.0,260.0,3064.864
3064875.0,230.0,31.0,3.0,261.0,3064.875
3064885.0,229.0,32.0,4.0,257.0,3064.885
3064895.0,221.0,32.0,3.0,250.0,3064.895
3064905.0,227.0,32.0,4.0,259.0,3064.905
3064915.0,232.0,32.0,4.0,262.0,3064.915
3064925.0,230.0,31.0,4.0,259.0,3064.925
3064935.0,228.0,31.0,3.0,256.0,3064.935
3064945.0,220.0,32.0,4.0,249.0,3064.945
3064955.0,228.0,33.0,3.0,261.0,3064.955
3064965.0,229.0,32.0,4.0,260.0,3064.965
3064975.0,228.0,32.0,3.0,259.0,3064.975
3064985.0,228.0,32.0,4.0,258.0,3064.985
3064995.0,221.0,33.0,3.0,250.0,3064.995
3065005.0,225.0,32.0,4.0,256.0,3065.005
3065015.0,231.0,33.0,3.0,261.0,3065.015
3065025.0,229.0,33.0,3.0,260.0,3065.025
3065035.0,228.0,32.0,4.0,256.0,3065.035
3065046.0,219.0,33.0,3.0,250.0,3065.046
3065056.0,230.0,33.0,4.0,262.0,3065.056
3065066.0,231.0,33.0,2.0,261.0,3065.066
3065076.0,225.0,33.0,4.0,256.0,3065.076
3065086.0,225.0,34.0,3.0,256.0,3065.086
3065096.0,219.0,32.0,4.0,250.0,3065.096
3065106.0,229.0,33.0,3.0,264.0,3065.106
3065116.0,233.0,33.0,5.0,264.0,3065.116
3065126.0,224.0,33.0,4.0,257.0,3065.126
3065136.0,226.0,34.0,3.0,258.0,3065.136
3065146.0,221.0,33.0,3.0,255.0,3065.146
3065156.0,230.0,33.0,3.0,264.0,3065.156
3065166.0,231.0,33.0,4.0,264.0,3065.166
3065176.0,226.0,33.0,4.0,260.0,3065.176
3065186.0,227.0,33.0,4.0,259.0,3065.186
3065196.0,221.0,34.0,2.0,256.0,3065.196
3065206.0,230.0,33.0,4.0,265.0,3065.206
3065216.0,232.0,34.0,3.0,264.0,3065.216
3065226.0,225.0,34.0,3.0,256.0,3065.226
3065236.0,225.0,34.0,3.0,256.0,3065.236
3065246.0,222.0,34.0,5.0,255.0,3065.246
3065256.0,229.0,34.0,3.0,260.0,3065.256
3065266.0,231.0,33.0,4.0,260.0,3065.266
3065276.0,224.0,34.0,3.0,256.0,3065.276
3065286.0,225.0,34.0,3.0,256.0,3065.286
3065296.0,222.0,33.0,3.0,254.0,3065.296
3065306.0,227.0,33.0,4.0,259.0,3065.306
3065316.0,231.0,33.0,4.0,259.0,3065.316
3065326.0,222.0,33.0,3.0,253.0,3065.326
3065336.0,225.0,33.0,4.0,256.0,3065.336
3065346.0,219.0,34.0,3.0,251.0,3065.346
3065356.0,228.0,32.0,4.0,259.0,3065.356
3065366.0,230.0,34.0,4.0,257.0,3065.366
3065376.0,224.0,32.0,5.0,250.0,3065.376
3065387.0,224.0,33.0,4.0,252.0,3065.387
3065397.0,225.0,33.0,4.0,254.0,3065.397
3065407.0,229.0,35.0,3.0,258.0,3065.407
3065417.0,229.0,32.0,4.0,255.0,3065.417
3065427.0,220.0,33.0,3.0,249.0,3065.427
3065437.0,226.0,34.0,5.0,253.0,3065.437
3065447.0,227.0,33.0,4.0,257.0,3065.447
3065457.0,229.0,33.0,3.0,261.0,3065.457
3065467.0,228.0,34.0,3.0,259.0,3065.467
3065477.0,223.0,33.0,3.0,252.0,3065.477
3065487.0,224.0,33.0,3.0,251.0,3065.487
3065497.0,226.0,34.0,4.0,255.0,3065.497
3065507.0,229.0,33.0,3.0,257.0,3065.507
3065517.0,230.0,34.0,3.0,257.0,3065.517
3065527.0,222.0,33.0,3.0,251.0,3065.527
3065537.0,225.0,34.0,3.0,255.0,3065.537
3065547.0,229.0,33.0,3.0,262.0,3065.547
3065558.0,229.0,33.0,3.0,261.0,3065.558
3065568.0,229.0,33.0,4.0,258.0,3065.568
