time (ms),signal 0,signal 1,signal 2,signal 3,time (sec)
3041825.0,215.0,31.0,4.0,240.0,3041.825
3041835.0,214.0,32.0,4.0,242.0,3041.835
3041845.0,220.0,32.0,4.0,247.0,3041.845
3041855.0,220.0,33.0,4.0,244.0,3041.855
3041865.0,212.0,33.0,4.0,236.0,3041.865
3041875.0,214.0,33.0,4.0,237.0,3041.875
3041885.0,219.0,32.0,5.0,240.0,3041.885
3041895.0,223.0,33.0,4.0,245.0,3041.895
3041905.0,222.0,33.0,4.0,241.0,3041.905
3041915.0,214.0,32.0,4.0,235.0,3041.915
3041925.0,217.0,32.0,4.0,240.0,3041.925
3041935.0,220.0,33.0,4.0,243.0,3041.935
3041945.0,221.0,33.0,2.0,248.0,3041.945
3041955.0,220.0,33.0,4.0,245.0,3041.955
3041965.0,215.0,32.0,3.0,241.0,3041.965
3041975.0,217.0,32.0,3.0,243.0,3041.975
3041985.0,223.0,33.0,4.0,247.0,3041.985
3041995.0,225.0,32.0,5.0,248.0,3041.995
3042006.0,224.0,33.0,4.0,245.0,3042.006
3042016.0,215.0,32.0,4.0,236.0,3042.016
3042026.0,220.0,33.0,4.0,245.0,3042.026
3042036.0,225.0,32.0,3.0,249.0,3042.036
3042046.0,221.0,32.0,3.0,243.0,3042.046
3042056.0,223.0,33.0,3.0,243.0,3042.056
3042066.0,215.0,31.0,3.0,235.0,3042.066
3042076.0,220.0,33.0,3.0,246.0,3042.076
3042086.0,225.0,33.0,4.0,250.0,3042.086
3042096.0,222.0,32.0,3.0,247.0,3042.096
3042106.0,222.0,32.0,3.0,246.0,3042.106
3042116.0,213.0,33.0,4.0,238.0,3042.116
3042126.0,222.0,33.0,5.0,250.0,3042.126
3042136.0,224.0,33.0,3.0,251.0,3042.136
3042146.0,223.0,33.0,3.0,249.0,3042.146
3042156.0,222.0,33.0,3.0,247.0,3042.156
3042166.0,215.0,32.0,4.0,240.0,3042.166
3042176.0,220.0,34.0,3.0,249.0,3042.176
3042186.0,227.0,33.0,4.0,254.0,3042.186
3042196.0,223.0,33.0,4.0,250.0,3042.196
3042206.0,222.0,33.0,4.0,248.0,3042.206
3042216.0,216.0,33.0,3.0,242.0,3042.216
3042226.0,222.0,32.0,3.0,249.0,3042.226
3042236.0,228.0,33.0,4.0,255.0,3042.236
3042246.0,224.0,32.0,4.0,251.0,3042.246
3042256.0,225.0,33.0,4.0,250.0,3042.256
3042266.0,219.0,33.0,4.0,244.0,3042.266
3042276.0,223.0,33.0,4.0,251.0,3042.276
3042286.0,229.0,34.0,3.0,257.0,3042.286
3042296.0,225.0,32.0,4.0,252.0,3042.296
3042306.0,225.0,34.0,3.0,253.0,3042.306
3042316.0,221.0,32.0,5.0,245.0,3042.316
3042326.0,228.0,33.0,4.0,256.0,3042.326
3042336.0,230.0,32.0,4.0,257.0,3042.336
3042347.0,226.0,33.0,3.0,252.0,3042.347
3042357.0,225.0,32.0,4.0,250.0,3042.357
3042367.0,221.0,32.0,4.0,248.0,3042.367
3042377.0,229.0,32.0,4.0,257.0,3042.377
3042387.0,230.0,32.0,4.0,254.0,3042.387
3042397.0,225.0,32.0,3.0,251.0,3042.397
3042407.0,225.0,32.0,4.0,251.0,3042.407
3042417.0,222.0,33.0,3.0,250.0,3042.417
3042427.0,232.0,32.0,4.0,257.0,3042.427
3042437.0,232.0,33.0,3.0,256.0,3042.437
3042447.0,227.0,32.0,5.0,251.0,3042.447
3042457.0,225.0,32.0,4.0,251.0,3042.457
3042467.0,224.0,32.0,4.0,251.0,3042.467
3042477.0,228.0,32.0,2.0,257.0,3042.477
3042487.0,230.0,33.0,3.0,256.0,3042.487
3042497.0,223.0,32.0,3.0,248.0,3042.497
3042507.0,225.0,32.0,5.0,249.0,3042.507
3042518.0,224.0,31.0,4.0,253.0,3042.518
3042528.0,232.0,32.0,3.0,257.0,3042.528
3042538.0,230.0,33.0,3.0,256.0,3042.538
3042548.0,223.0,32.0,3.0,246.0,3042.548
3042558.0,226.0,32.0,3.0,253.0,3042.558
3042568.0,227.0,32.0,4.0,254.0,3042.568
3042578.0,228.0,31.0,4.0,252.0,3042.578
3042588.0,224.0,32.0,2.0,250.0,3042.588
3042598.0,218.0,32.0,4.0,243.0,3042.598
3042608.0,222.0,32.0,4.0,246.0,3042.608
3042618.0,225.0,32.0,4.0,251.0,3042.618
3042628.0,229.0,32.0,4.0,252.0,3042.628
3042638.0,231.0,33.0,4.0,247.0,3042.638
3042648.0,224.0,31.0,4.0,240.0,3042.648
3042658.0,227.0,32.0,3.0,245.0,3042.658
3042668.0,231.0,33.0,3.0,250.0,3042.668
3042678.0,233.0,32.0,4.0,251.0,3042.678
3042688.0,235.0,33.0,3.0,251.0,3042.688
3042698.0,227.0,32.0,4.0,241.0,3042.698
3042708.0,229.0,31.0,4.0,244.0,3042.708
3042718.0,234.0,32.0,3.0,254.0,3042.718
3042728.0,235.0,32.0,4.0,261.0,3042.728
3042738.0,233.0,32.0,3.0,263.0,3042.738
3042748.0,238.0,30.0,4.0,254.0,3042.748
3042758.0,242.0,32.0,4.0,259.0,3042.758
3042768.0,251.0,31.0,5.0,258.0,3042.768
3042778.0,256.0,31.0,4.0,258.0,3042.778
3042788.0,259.0,32.0,3.0,257.0,3042.788
3042798.0,269.0,33.0,3.0,285.0,3042.798
3042808.0,272.0,32.0,3.0,297.0,3042.808
3042818.0,263.0,33.0,3.0,289.0,3042.818
3042828.0,269.0,32.0,5.0,271.0,3042.828
3042838.0,265.0,33.0,4.0,269.0,3042.838
3042848.0,266.0,32.0,3.0,262.0,3042.848
3042859.0,269.0,32.0,4.0,277.0,3042.859
3042869.0,267.0,32.0,3.0,283.0,3042.869
3042879.0,269.0,32.0,4.0,275.0,3042.879
3042889.0,268.0,32.0,4.0,280.0,3042.889
3042899.0,263.0,31.0,4.0,296.0,3042.899
3042909.0,273.0,32.0,3.0,305.0,3042.909
3042919.0,270.0,32.0,4.0,303.0,3042.919
3042929.0,267.0,33.0,3.0,293.0,3042.929
3042939.0,258.0,30.0,4.0,302.0,3042.939
3042949.0,259.0,31.0,3.0,292.0,3042.949
3042959.0,252.0,31.0,4.0,286.0,3042.959
3042969.0,245.0,31.0,3.0,282.0,3042.969
3042979.0,253.0,32.0,4.0,289.0,3042.979
3042989.0,256.0,32.0,3.0,297.0,3042.989
3042999.0,254.0,32.0,3.0,299.0,3042.999
3043009.0,258.0,32.0,4.0,284.0,3043.009
3043019.0,254.0,33.0,4.0,278.0,3043.019
3043030.0,253.0,32.0,3.0,275.0,3043.03
3043040.0,250.0,32.0,4.0,268.0,3043.04
3043050.0,247.0,32.0,4.0,263.0,3043.05
3043060.0,253.0,32.0,3.0,268.0,3043.06
3043070.0,249.0,32.0,3.0,260.0,3043.07
3043080.0,257.0,32.0,4.0,270.0,3043.08
3043090.0,259.0,31.0,5.0,267.0,3043.09
3043100.0,256.0,32.0,3.0,297.0,3043.1
3043110.0,261.0,32.0,3.0,305.0,3043.11
3043120.0,253.0,33.0,3.0,288.0,3043.12
3043130.0,243.0,32.0,3.0,267.0,3043.13
3043140.0,244.0,32.0,3.0,275.0,3043.14
3043150.0,245.0,33.0,3.0,260.0,3043.15
3043160.0,243.0,31.0,4.0,250.0,3043.16
3043170.0,238.0,32.0,4.0,250.0,3043.17
3043180.0,231.0,33.0,3.0,245.0,3043.18
3043190.0,234.0,33.0,3.0,255.0,3043.19
3043200.0,237.0,32.0,4.0,274.0,3043.2
3043210.0,249.0,32.0,4.0,293.0,3043.21
3043220.0,249.0,34.0,4.0,298.0,3043.22
3043230.0,240.0,33.0,3.0,294.0,3043.23
3043240.0,243.0,33.0,4.0,307.0,3043.24
3043250.0,244.0,33.0,4.0,315.0,3043.25
3043260.0,249.0,32.0,4.0,322.0,3043.26
3043270.0,247.0,33.0,3.0,324.0,3043.27
3043280.0,239.0,33.0,5.0,313.0,3043.28
3043290.0,239.0,34.0,2.0,302.0,3043.29
3043300.0,246.0,33.0,4.0,335.0,3043.3
3043310.0,249.0,33.0,4.0,321.0,3043.31
3043320.0,249.0,34.0,3.0,317.0,3043.32
3043330.0,244.0,33.0,4.0,317.0,3043.33
3043340.0,244.0,33.0,4.0,319.0,3043.34
3043350.0,243.0,33.0,4.0,324.0,3043.35
3043360.0,244.0,33.0,4.0,314.0,3043.36
3043371.0,241.0,33.0,4.0,309.0,3043.371
3043381.0,231.0,34.0,3.0,290.0,3043.381
3043391.0,232.0,32.0,4.0,295.0,3043.391
3043401.0,237.0,33.0,4.0,288.0,3043.401
3043411.0,233.0,33.0,5.0,270.0,3043.411
3043421.0,234.0,34.0,4.0,275.0,3043.421
3043431.0,234.0,33.0,3.0,297.0,3043.431
3043441.0,240.0,34.0,3.0,327.0,3043.441
3043451.0,248.0,33.0,3.0,312.0,3043.451
3043461.0,244.0,33.0,4.0,287.0,3043.461
3043471.0,241.0,34.0,4.0,284.0,3043.471
3043481.0,234.0,33.0,4.0,271.0,3043.481
3043491.0,244.0,33.0,3.0,293.0,3043.491
3043501.0,249.0,33.0,4.0,289.0,3043.501
3043511.0,249.0,33.0,3.0,282.0,3043.511
3043521.0,246.0,32.0,4.0,275.0,3043.521
3043531.0,242.0,33.0,4.0,291.0,3043.531
3043542.0,256.0,33.0,4.0,307.0,3043.542
3043552.0,254.0,33.0,4.0,320.0,3043.552
3043562.0,248.0,32.0,4.0,316.0,3043.562
3043572.0,251.0,33.0,3.0,336.0,3043.572
3043582.0,248.0,32.0,4.0,332.0,3043.582
3043592.0,251.0,34.0,3.0,341.0,3043.592
3043602.0,257.0,33.0,4.0,341.0,3043.602
3043612.0,246.0,33.0,4.0,326.0,3043.612
3043622.0,239.0,33.0,3.0,321.0,3043.622
3043632.0,231.0,33.0,3.0,323.0,3043.632
3043642.0,241.0,33.0,3.0,334.0,3043.642
3043652.0,241.0,33.0,3.0,328.0,3043.652
3043662.0,239.0,32.0,5.0,331.0,3043.662
3043672.0,241.0,33.0,4.0,337.0,3043.672
3043682.0,233.0,33.0,4.0,320.0,3043.682
3043692.0,244.0,32.0,4.0,335.0,3043.692
3043702.0,245.0,34.0,3.0,333.0,3043.702
3043712.0,241.0,32.0,4.0,312.0,3043.712
3043722.0,240.0,33.0,4.0,307.0,3043.722
3043732.0,235.0,32.0,4.0,311.0,3043.732
3043742.0,240.0,32.0,4.0,302.0,3043.742
3043752.0,246.0,33.0,3.0,306.0,3043.752
3043762.0,240.0,33.0,3.0,295.0,3043.762
3043772.0,241.0,32.0,4.0,310.0,3043.772
3043782.0,238.0,32.0,3.0,315.0,3043.782
3043792.0,243.0,33.0,4.0,321.0,3043.792
3043802.0,241.0,32.0,3.0,307.0,3043.802
3043812.0,238.0,32.0,4.0,313.0,3043.812
3043822.0,240.0,32.0,4.0,325.0,3043.822
3043832.0,231.0,32.0,3.0,304.0,3043.832
3043842.0,236.0,32.0,4.0,308.0,3043.842
3043852.0,237.0,33.0,4.0,289.0,3043.852
3043862.0,235.0,32.0,4.0,290.0,3043.862
3043872.0,236.0,32.0,2.0,307.0,3043.872
3043883.0,233.0,32.0,4.0,305.0,3043.883
3043893.0,241.0,31.0,3.0,307.0,3043.893
3043903.0,242.0,32.0,4.0,300.0,3043.903
3043913.0,235.0,32.0,4.0,290.0,3043.913
3043923.0,240.0,31.0,5.0,306.0,3043.923
3043933.0,239.0,31.0,4.0,289.0,3043.933
3043943.0,242.0,31.0,4.0,282.0,3043.943
3043953.0,237.0,32.0,3.0,263.0,3043.953
3043963.0,227.0,31.0,3.0,250.0,3043.963
3043973.0,233.0,31.0,3.0,272.0,3043.973
3043983.0,237.0,31.0,3.0,293.0,3043.983
3043993.0,243.0,31.0,4.0,301.0,3043.993
3044003.0,244.0,32.0,3.0,305.0,3044.003
3044013.0,239.0,31.0,4.0,296.0,3044.013
3044023.0,241.0,32.0,4.0,308.0,3044.023
3044033.0,247.0,30.0,4.0,323.0,3044.033
3044043.0,245.0,31.0,4.0,320.0,3044.043
3044054.0,248.0,31.0,4.0,346.0,3044.054
3044064.0,242.0,31.0,4.0,322.0,3044.064
3044074.0,250.0,31.0,3.0,316.0,3044.074
3044084.0,253.0,32.0,3.0,302.0,3044.084
3044094.0,249.0,30.0,4.0,292.0,3044.094
3044104.0,259.0,32.0,3.0,306.0,3044.104
3044114.0,251.0,31.0,4.0,315.0,3044.114
3044124.0,257.0,31.0,4.0,329.0,3044.124
3044134.0,260.0,31.0,4.0,328.0,3044.134
3044144.0,257.0,31.0,4.0,306.0,3044.144
3044154.0,254.0,32.0,3.0,294.0,3044.154
3044164.0,244.0,31.0,3.0,271.0,3044.164
3044174.0,243.0,31.0,4.0,261.0,3044.174
3044184.0,246.0,32.0,3.0,262.0,3044.184
3044194.0,250.0,32.0,2.0,284.0,3044.194
3044204.0,251.0,32.0,4.0,303.0,3044.204
3044214.0,242.0,33.0,3.0,297.0,3044.214
3044224.0,249.0,31.0,4.0,309.0,3044.224
3044234.0,255.0,31.0,4.0,309.0,3044.234
3044244.0,254.0,32.0,5.0,295.0,3044.244
3044254.0,252.0,31.0,4.0,313.0,3044.254
3044264.0,245.0,31.0,3.0,304.0,3044.264
3044274.0,248.0,31.0,4.0,312.0,3044.274
3044284.0,256.0,33.0,3.0,298.0,3044.284
3044294.0,246.0,32.0,3.0,276.0,3044.294
3044304.0,248.0,32.0,4.0,280.0,3044.304
3044314.0,236.0,32.0,4.0,276.0,3044.314
3044324.0,240.0,31.0,4.0,276.0,3044.324
3044334.0,246.0,32.0,4.0,289.0,3044.334
3044344.0,244.0,33.0,3.0,292.0,3044.344
3044354.0,244.0,32.0,4.0,286.0,3044.354
3044364.0,235.0,32.0,3.0,277.0,3044.364
3044374.0,243.0,32.0,4.0,286.0,3044.374
3044384.0,257.0,32.0,4.0,331.0,3044.384
3044395.0,251.0,32.0,3.0,315.0,3044.395
3044405.0,249.0,32.0,3.0,329.0,3044.405
3044415.0,244.0,32.0,3.0,322.0,3044.415
3044425.0,256.0,32.0,3.0,352.0,3044.425
3044435.0,255.0,32.0,4.0,348.0,3044.435
3044445.0,248.0,32.0,4.0,336.0,3044.445
3044455.0,250.0,32.0,3.0,317.0,3044.455
3044465.0,247.0,32.0,4.0,325.0,3044.465
3044475.0,252.0,33.0,3.0,329.0,3044.475
3044485.0,254.0,33.0,3.0,347.0,3044.485
3044495.0,251.0,32.0,3.0,341.0,3044.495
3044505.0,255.0,32.0,4.0,348.0,3044.505
3044515.0,256.0,32.0,2.0,363.0,3044.515
3044525.0,260.0,32.0,3.0,363.0,3044.525
3044535.0,262.0,34.0,3.0,373.0,3044.535
3044545.0,258.0,32.0,4.0,374.0,3044.545
3044555.0,257.0,32.0,3.0,373.0,3044.555
3044566.0,252.0,32.0,4.0,355.0,3044.566
3044576.0,254.0,31.0,3.0,350.0,3044.576
3044586.0,249.0,33.0,3.0,339.0,3044.586
3044596.0,239.0,33.0,3.0,311.0,3044.596
3044606.0,242.0,32.0,3.0,314.0,3044.606
3044616.0,243.0,32.0,4.0,315.0,3044.616
3044626.0,246.0,32.0,2.0,314.0,3044.626
3044636.0,247.0,31.0,4.0,301.0,3044.636
3044646.0,235.0,32.0,3.0,292.0,3044.646
3044656.0,239.0,32.0,4.0,284.0,3044.656
3044666.0,240.0,33.0,3.0,282.0,3044.666
3044676.0,243.0,32.0,4.0,284.0,3044.676
3044686.0,241.0,32.0,4.0,281.0,3044.686
3044696.0,238.0,33.0,4.0,275.0,3044.696
3044706.0,234.0,33.0,2.0,273.0,3044.706
3044716.0,240.0,32.0,3.0,287.0,3044.716
3044726.0,243.0,33.0,3.0,286.0,3044.726
3044736.0,241.0,32.0,3.0,273.0,3044.736
3044746.0,235.0,32.0,4.0,264.0,3044.746
3044756.0,238.0,32.0,4.0,260.0,3044.756
3044766.0,245.0,31.0,4.0,266.0,3044.766
3044776.0,242.0,32.0,3.0,268.0,3044.776
3044786.0,242.0,33.0,3.0,260.0,3044.786
3044796.0,235.0,34.0,3.0,254.0,3044.796
3044806.0,239.0,32.0,4.0,258.0,3044.806
3044816.0,247.0,33.0,4.0,282.0,3044.816
3044826.0,248.0,32.0,4.0,271.0,3044.826
3044836.0,246.0,33.0,2.0,274.0,3044.836
3044846.0,240.0,33.0,4.0,271.0,3044.846
3044856.0,239.0,33.0,3.0,264.0,3044.856
3044866.0,238.0,33.0,3.0,265.0,3044.866
3044876.0,244.0,32.0,3.0,272.0,3044.876
3044886.0,244.0,33.0,4.0,274.0,3044.886
3044896.0,236.0,31.0,3.0,267.0,3044.896
3044907.0,242.0,32.0,4.0,289.0,3044.907
3044917.0,249.0,33.0,4.0,305.0,3044.917
3044927.0,246.0,33.0,3.0,292.0,3044.927
3044937.0,244.0,32.0,3.0,303.0,3044.937
3044947.0,237.0,32.0,4.0,297.0,3044.947
3044957.0,245.0,32.0,5.0,303.0,3044.957
3044967.0,254.0,32.0,4.0,305.0,3044.967
3044977.0,246.0,32.0,4.0,288.0,3044.977
3044987.0,243.0,33.0,3.0,284.0,3044.987
3044997.0,237.0,33.0,4.0,274.0,3044.997
3045007.0,241.0,32.0,4.0,273.0,3045.007
3045017.0,245.0,33.0,5.0,270.0,3045.017
3045027.0,239.0,32.0,4.0,266.0,3045.027
3045037.0,240.0,33.0,4.0,271.0,3045.037
3045047.0,240.0,33.0,3.0,301.0,3045.047
3045057.0,250.0,32.0,3.0,316.0,3045.057
3045067.0,255.0,33.0,4.0,310.0,3045.067
3045078.0,250.0,32.0,3.0,300.0,3045.078
3045088.0,250.0,33.0,4.0,300.0,3045.088
3045098.0,247.0,33.0,3.0,288.0,3045.098
3045108.0,251.0,33.0,3.0,276.0,3045.108
3045118.0,248.0,33.0,3.0,261.0,3045.118
3045128.0,245.0,32.0,4.0,253.0,3045.128
3045138.0,245.0,32.0,4.0,244.0,3045.138
3045148.0,244.0,31.0,4.0,257.0,3045.148
3045158.0,252.0,32.0,4.0,274.0,3045.158
3045168.0,254.0,32.0,4.0,276.0,3045.168
3045178.0,247.0,33.0,3.0,272.0,3045.178
3045188.0,245.0,32.0,4.0,270.0,3045.188
3045198.0,247.0,32.0,3.0,270.0,3045.198
3045208.0,253.0,32.0,4.0,267.0,3045.208
3045218.0,251.0,32.0,4.0,267.0,3045.218
3045228.0,246.0,32.0,3.0,273.0,3045.228
3045238.0,243.0,32.0,3.0,271.0,3045.238
3045248.0,240.0,32.0,4.0,274.0,3045.248
3045258.0,249.0,32.0,4.0,288.0,3045.258
3045268.0,242.0,33.0,3.0,292.0,3045.268
3045278.0,235.0,31.0,4.0,291.0,3045.278
3045288.0,238.0,32.0,3.0,287.0,3045.288
3045298.0,237.0,32.0,4.0,288.0,3045.298
3045308.0,245.0,33.0,3.0,292.0,3045.308
3045318.0,244.0,32.0,4.0,283.0,3045.318
3045328.0,236.0,32.0,3.0,275.0,3045.328
3045338.0,236.0,32.0,5.0,271.0,3045.338
3045348.0,234.0,31.0,3.0,265.0,3045.348
3045358.0,240.0,32.0,4.0,265.0,3045.358
3045368.0,239.0,33.0,3.0,266.0,3045.368
3045378.0,237.0,32.0,3.0,262.0,3045.378
3045388.0,238.0,31.0,3.0,268.0,3045.388
3045398.0,242.0,31.0,4.0,267.0,3045.398
3045408.0,247.0,31.0,4.0,266.0,3045.408
3045419.0,244.0,32.0,4.0,263.0,3045.419
3045429.0,239.0,31.0,3.0,257.0,3045.429
3045439.0,242.0,33.0,3.0,263.0,3045.439
3045449.0,251.0,32.0,4.0,272.0,3045.449
3045459.0,251.0,32.0,3.0,273.0,3045.459
3045469.0,254.0,32.0,5.0,277.0,3045.469
3045479.0,244.0,31.0,4.0,265.0,3045.479
3045489.0,248.0,32.0,3.0,271.0,3045.489
3045499.0,254.0,33.0,3.0,275.0,3045.499
3045509.0,251.0,32.0,3.0,272.0,3045.509
3045519.0,246.0,31.0,4.0,266.0,3045.519
3045529.0,242.0,32.0,5.0,255.0,3045.529
3045539.0,247.0,31.0,3.0,267.0,3045.539
3045549.0,250.0,32.0,4.0,268.0,3045.549
3045559.0,250.0,32.0,3.0,268.0,3045.559
3045569.0,248.0,32.0,3.0,264.0,3045.569
3045579.0,241.0,31.0,3.0,255.0,3045.579
3045590.0,248.0,32.0,4.0,270.0,3045.59
3045600.0,247.0,31.0,4.0,271.0,3045.6
3045610.0,240.0,32.0,2.0,262.0,3045.61
3045620.0,241.0,32.0,4.0,264.0,3045.62
3045630.0,235.0,33.0,3.0,258.0,3045.63
3045640.0,241.0,32.0,3.0,264.0,3045.64
3045650.0,244.0,32.0,3.0,264.0,3045.65
3045660.0,239.0,31.0,5.0,254.0,3045.66
3045670.0,236.0,31.0,4.0,255.0,3045.67
3045680.0,229.0,31.0,4.0,248.0,3045.68
3045690.0,239.0,32.0,4.0,263.0,3045.69
3045700.0,240.0,32.0,3.0,263.0,3045.7
3045710.0,234.0,31.0,3.0,255.0,3045.71
3045720.0,235.0,32.0,4.0,257.0,3045.72
3045730.0,232.0,31.0,4.0,251.0,3045.73
3045740.0,240.0,32.0,3.0,264.0,3045.74
3045750.0,241.0,32.0,4.0,263.0,3045.75
3045760.0,236.0,32.0,3.0,258.0,3045.76
3045770.0,235.0,31.0,3.0,256.0,3045.77
3045780.0,227.0,31.0,3.0,251.0,3045.78
3045790.0,238.0,31.0,5.0,261.0,3045.79
3045800.0,236.0,31.0,4.0,261.0,3045.8
3045810.0,232.0,32.0,3.0,256.0,3045.81
3045820.0,231.0,32.0,3.0,258.0,3045.82
3045830.0,225.0,30.0,4.0,252.0,3045.83
3045840.0,234.0,31.0,4.0,261.0,3045.84
3045850.0,234.0,32.0,4.0,260.0,3045.85
3045860.0,230.0,31.0,4.0,253.0,3045.86
3045870.0,229.0,31.0,3.0,252.0,3045.87
3045880.0,226.0,32.0,3.0,250.0,3045.88
3045890.0,232.0,32.0,3.0,259.0,3045.89
3045900.0,234.0,32.0,4.0,260.0,3045.9
3045910.0,227.0,31.0,4.0,254.0,3045.91
3045920.0,228.0,31.0,4.0,254.0,3045.92
3045931.0,225.0,31.0,4.0,254.0,3045.931
3045941.0,231.0,31.0,4.0,259.0,3045.941
3045951.0,231.0,33.0,3.0,257.0,3045.951
3045961.0,223.0,31.0,4.0,250.0,3045.961
3045971.0,225.0,31.0,3.0,257.0,3045.971
3045981.0,227.0,32.0,3.0,258.0,3045.981
3045991.0,231.0,31.0,4.0,262.0,3045.991
3046001.0,230.0,33.0,3.0,259.0,3046.001
3046011.0,223.0,32.0,4.0,250.0,3046.011
3046021.0,226.0,31.0,3.0,253.0,3046.021
3046031.0,226.0,31.0,3.0,256.0,3046.031
3046041.0,231.0,31.0,4.0,259.0,3046.041
3046051.0,230.0,31.0,4.0,258.0,3046.051
3046061.0,224.0,31.0,3.0,251.0,3046.061
3046071.0,227.0,31.0,4.0,253.0,3046.071
3046081.0,228.0,32.0,3.0,260.0,3046.081
3046091.0,231.0,30.0,4.0,260.0,3046.091
3046102.0,229.0,31.0,4.0,257.0,3046.102
3046112.0,223.0,31.0,4.0,248.0,3046.112
3046122.0,228.0,31.0,2.0,256.0,3046.122
3046132.0,233.0,31.0,4.0,260.0,3046.132
3046142.0,230.0,32.0,3.0,254.0,3046.142
3046152.0,230.0,31.0,4.0,256.0,3046.152
3046162.0,221.0,31.0,4.0,247.0,3046.162
3046172.0,228.0,31.0,5.0,255.0,3046.172
3046182.0,233.0,31.0,3.0,260.0,3046.182
3046192.0,230.0,31.0,4.0,254.0,3046.192
3046202.0,230.0,32.0,4.0,254.0,3046.202
3046212.0,221.0,32.0,3.0,244.0,3046.212
3046222.0,228.0,31.0,4.0,254.0,3046.222
3046232.0,232.0,31.0,3.0,258.0,3046.232
3046242.0,231.0,31.0,4.0,255.0,3046.242
3046252.0,229.0,31.0,4.0,253.0,3046.252
3046262.0,221.0,31.0,4.0,245.0,3046.262
3046272.0,226.0,31.0,4.0,252.0,3046.272
3046282.0,232.0,31.0,3.0,258.0,3046.282
3046292.0,229.0,31.0,3.0,254.0,3046.292
3046302.0,229.0,31.0,5.0,253.0,3046.302
3046312.0,220.0,31.0,4.0,246.0,3046.312
3046322.0,226.0,31.0,3.0,252.0,3046.322
3046332.0,231.0,33.0,3.0,258.0,3046.332
3046342.0,228.0,31.0,3.0,252.0,3046.342
3046352.0,227.0,32.0,4.0,252.0,3046.352
3046362.0,221.0,31.0,4.0,245.0,3046.362
3046372.0,227.0,31.0,4.0,253.0,3046.372
3046382.0,232.0,31.0,3.0,260.0,3046.382
3046392.0,227.0,31.0,4.0,254.0,3046.392
3046402.0,228.0,31.0,3.0,257.0,3046.402
3046412.0,220.0,30.0,4.0,246.0,3046.412
3046422.0,225.0,31.0,4.0,254.0,3046.422
3046432.0,232.0,31.0,4.0,256.0,3046.432
3046443.0,226.0,31.0,3.0,249.0,3046.443
3046453.0,226.0,30.0,4.0,250.0,3046.453
3046463.0,222.0,32.0,3.0,248.0,3046.463
3046473.0,229.0,31.0,3.0,256.0,3046.473
3046483.0,231.0,31.0,3.0,257.0,3046.483
3046493.0,225.0,30.0,3.0,251.0,3046.493
3046503.0,226.0,31.0,3.0,252.0,3046.503
3046513.0,223.0,32.0,3.0,252.0,3046.513
3046523.0,231.0,32.0,3.0,259.0,3046.523
3046533.0,231.0,32.0,3.0,259.0,3046.533
3046543.0,224.0,31.0,3.0,251.0,3046.543
3046553.0,225.0,32.0,4.0,252.0,3046.553
3046563.0,225.0,31.0,4.0,252.0,3046.563
3046573.0,229.0,32.0,4.0,256.0,3046.573
3046583.0,231.0,31.0,4.0,256.0,3046.583
3046593.0,224.0,32.0,3.0,249.0,3046.593
3046603.0,225.0,31.0,4.0,249.0,3046.603
3046614.0,225.0,32.0,3.0,251.0,3046.614
3046624.0,231.0,32.0,4.0,256.0,3046.624
3046634.0,229.0,31.0,4.0,253.0,3046.634
3046644.0,220.0,31.0,4.0,246.0,3046.644
3046654.0,224.0,33.0,3.0,254.0,3046.654
3046664.0,227.0,32.0,4.0,254.0,3046.664
3046674.0,229.0,31.0,4.0,256.0,3046.674
3046684.0,229.0,32.0,4.0,253.0,3046.684
3046694.0,222.0,31.0,4.0,244.0,3046.694
3046704.0,227.0,32.0,4.0,248.0,3046.704
3046714.0,228.0,32.0,3.0,253.0,3046.714
3046724.0,231.0,33.0,3.0,255.0,3046.724
3046734.0,230.0,32.0,4.0,252.0,3046.734
3046744.0,223.0,33.0,3.0,247.0,3046.744
3046754.0,226.0,32.0,4.0,249.0,3046.754
3046764.0,229.0,32.0,4.0,255.0,3046.764
3046774.0,230.0,32.0,4.0,254.0,3046.774
3046784.0,230.0,33.0,4.0,252.0,3046.784
3046794.0,222.0,32.0,3.0,245.0,3046.794
3046804.0,225.0,33.0,3.0,250.0,3046.804
3046814.0,231.0,33.0,3.0,257.0,3046.814
3046824.0,229.0,31.0,3.0,255.0,3046.824
3046834.0,230.0,33.0,4.0,255.0,3046.834
3046844.0,221.0,32.0,3.0,247.0,3046.844
3046854.0,225.0,32.0,3.0,252.0,3046.854
3046864.0,231.0,32.0,5.0,259.0,3046.864
3046874.0,229.0,32.0,4.0,259.0,3046.874
3046884.0,231.0,33.0,4.0,257.0,3046.884
3046894.0,220.0,32.0,4.0,247.0,3046.894
3046904.0,224.0,33.0,3.0,252.0,3046.904
3046914.0,227.0,33.0,3.0,255.0,3046.914
3046924.0,230.0,32.0,4.0,256.0,3046.924
3046934.0,228.0,33.0,3.0,252.0,3046.934
3046944.0,221.0,32.0,5.0,243.0,3046.944
3046955.0,225.0,33.0,4.0,251.0,3046.955
3046965.0,230.0,33.0,4.0,256.0,3046.965
3046975.0,226.0,33.0,3.0,252.0,3046.975
3046985.0,226.0,33.0,3.0,251.0,3046.985
3046995.0,219.0,32.0,4.0,246.0,3046.995
3047005.0,221.0,33.0,5.0,253.0,3047.005
3047015.0,228.0,33.0,4.0,258.0,3047.015
3047025.0,223.0,32.0,4.0,252.0,3047.025
3047035.0,223.0,33.0,4.0,252.0,3047.035
3047045.0,217.0,33.0,3.0,244.0,3047.045
3047055.0,224.0,32.0,4.0,254.0,3047.055
3047065.0,229.0,33.0,3.0,259.0,3047.065
3047075.0,225.0,32.0,5.0,254.0,3047.075
3047085.0,226.0,33.0,3.0,255.0,3047.085
3047095.0,217.0,33.0,4.0,247.0,3047.095
3047105.0,226.0,33.0,3.0,260.0,3047.105
3047115.0,231.0,33.0,4.0,263.0,3047.115
3047126.0,224.0,33.0,3.0,256.0,3047.126
3047136.0,225.0,34.0,4.0,256.0,3047.136
3047146.0,223.0,33.0,3.0,255.0,3047.146
3047156.0,229.0,33.0,3.0,261.0,3047.156
3047166.0,230.0,33.0,3.0,258.0,3047.166
3047176.0,223.0,33.0,3.0,252.0,3047.176
3047186.0,225.0,34.0,3.0,253.0,3047.186
3047196.0,223.0,33.0,3.0,253.0,3047.196
3047206.0,229.0,33.0,4.0,257.0,3047.206
3047216.0,231.0,33.0,4.0,257.0,3047.216
3047226.0,223.0,32.0,4.0,249.0,3047.226
3047236.0,224.0,34.0,3.0,252.0,3047.236
3047246.0,225.0,32.0,3.0,254.0,3047.246
3047256.0,228.0,33.0,3.0,257.0,3047.256
3047266.0,231.0,34.0,4.0,256.0,3047.266
3047276.0,222.0,33.0,4.0,248.0,3047.276
3047286.0,225.0,33.0,4.0,249.0,3047.286
3047296.0,222.0,33.0,4.0,249.0,3047.296
3047306.0,229.0,33.0,3.0,259.0,3047.306
3047316.0,231.0,33.0,4.0,257.0,3047.316
3047326.0,221.0,33.0,4.0,249.0,3047.326
3047336.0,225.0,33.0,4.0,251.0,3047.336
3047346.0,222.0,34.0,4.0,252.0,3047.346
3047356.0,231.0,32.0,4.0,260.0,3047.356
3047366.0,231.0,35.0,3.0,257.0,3047.366
3047376.0,222.0,33.0,4.0,250.0,3047.376
3047386.0,225.0,33.0,4.0,253.0,3047.386
3047396.0,225.0,33.0,4.0,254.0,3047.396
3047406.0,230.0,32.0,4.0,259.0,3047.406
3047416.0,230.0,33.0,4.0,256.0,3047.416
3047426.0,224.0,33.0,3.0,254.0,3047.426
3047436.0,226.0,33.0,3.0,258.0,3047.436
3047446.0,225.0,33.0,4.0,259.0,3047.446
3047456.0,228.0,33.0,4.0,263.0,3047.456
3047467.0,229.0,33.0,4.0,260.0,3047.467
3047477.0,219.0,33.0,4.0,252.0,3047.477
3047487.0,223.0,33.0,3.0,257.0,3047.487
3047497.0,229.0,32.0,3.0,262.0,3047.497
3047507.0,227.0,32.0,4.0,256.0,3047.507
3047517.0,229.0,33.0,3.0,256.0,3047.517
3047527.0,221.0,32.0,4.0,249.0,3047.527
3047537.0,224.0,33.0,2.0,256.0,3047.537
3047547.0,230.0,32.0,3.0,261.0,3047.547
3047557.0,228.0,33.0,3.0,259.0,3047.557
3047567.0,228.0,32.0,4.0,255.0,3047.567
3047577.0,220.0,32.0,3.0,247.0,3047.577
3047587.0,226.0,32.0,5.0,254.0,3047.587
3047597.0,228.0,33.0,4.0,258.0,3047.597
3047607.0,228.0,32.0,4.0,257.0,3047.607
3047617.0,228.0,33.0,3.0,255.0,3047.617
3047627.0,220.0,33.0,3.0,246.0,3047.627
3047638.0,226.0,32.0,3.0,253.0,3047.638
3047648.0,232.0,33.0,4.0,259.0,3047.648
3047658.0,226.0,33.0,4.0,254.0,3047.658
3047668.0,226.0,33.0,4.0,255.0,3047.668
3047678.0,222.0,32.0,4.0,252.0,3047.678
3047688.0,226.0,34.0,3.0,259.0,3047.688
3047698.0,232.0,32.0,4.0,261.0,3047.698
3047708.0,224.0,32.0,4.0,254.0,3047.708
3047718.0,227.0,33.0,4.0,255.0,3047.718
3047728.0,218.0,33.0,2.0,248.0,3047.728
3047738.0,226.0,32.0,4.0,258.0,3047.738
3047748.0,231.0,34.0,3.0,264.0,3047.748
3047758.0,222.0,32.0,4.0,255.0,3047.758
3047768.0,226.0,33.0,4.0,257.0,3047.768
3047778.0,219.0,32.0,5.0,249.0,3047.778
3047788.0,227.0,32.0,4.0,258.0,3047.788
3047798.0,231.0,34.0,3.0,258.0,3047.798
3047808.0,225.0,33.0,4.0,255.0,3047.808
3047818.0,226.0,33.0,3.0,252.0,3047.818
3047828.0,219.0,32.0,4.0,247.0,3047.828
3047838.0,227.0,33.0,4.0,258.0,3047.838
3047848.0,231.0,33.0,4.0,257.0,3047.848
3047858.0,224.0,32.0,3.0,254.0,3047.858
3047868.0,226.0,32.0,4.0,254.0,3047.868
3047878.0,219.0,34.0,3.0,250.0,3047.878
3047888.0,228.0,33.0,4.0,259.0,3047.888
3047898.0,231.0,34.0,3.0,261.0,3047.898
3047908.0,224.0,33.0,5.0,254.0,3047.908
3047918.0,226.0,33.0,4.0,254.0,3047.918
3047928.0,222.0,33.0,4.0,251.0,3047.928
3047938.0,226.0,33.0,3.0,257.0,3047.938
3047948.0,232.0,32.0,4.0,260.0,3047.948
3047958.0,224.0,32.0,3.0,253.0,3047.958
3047968.0,226.0,33.0,4.0,254.0,3047.968
3047979.0,223.0,33.0,3.0,253.0,3047.979
3047989.0,229.0,33.0,3.0,260.0,3047.989
3047999.0,231.0,33.0,4.0,259.0,3047.999
3048009.0,221.0,34.0,3.0,250.0,3048.009
3048019.0,224.0,32.0,4.0,254.0,3048.019
3048029.0,224.0,34.0,3.0,255.0,3048.029
3048039.0,229.0,33.0,4.0,258.0,3048.039
3048049.0,230.0,33.0,4.0,255.0,3048.049
3048059.0,220.0,33.0,4.0,246.0,3048.059
3048069.0,225.0,33.0,4.0,251.0,3048.069
3048079.0,226.0,33.0,4.0,253.0,3048.079
3048089.0,228.0,32.0,4.0,256.0,3048.089
3048099.0,230.0,33.0,4.0,254.0,3048.099
3048109.0,221.0,32.0,3.0,249.0,3048.109
3048119.0,224.0,33.0,4.0,251.0,3048.119
3048129.0,227.0,33.0,4.0,256.0,3048.129
3048139.0,227.0,33.0,3.0,257.0,3048.139
3048150.0,229.0,32.0,4.0,255.0,3048.15
3048160.0,219.0,32.0,4.0,247.0,3048.16
3048170.0,225.0,32.0,4.0,253.0,3048.17
3048180.0,231.0,33.0,2.0,259.0,3048.18
3048190.0,224.0,32.0,4.0,254.0,3048.19
3048200.0,229.0,34.0,3.0,256.0,3048.2
3048210.0,219.0,32.0,4.0,247.0,3048.21
3048220.0,225.0,33.0,3.0,257.0,3048.22
3048230.0,233.0,33.0,5.0,260.0,3048.23
3048240.0,227.0,32.0,4.0,258.0,3048.24
3048250.0,229.0,33.0,3.0,256.0,3048.25
3048260.0,218.0,32.0,3.0,248.0,3048.26
3048270.0,226.0,32.0,4.0,256.0,3048.27
3048280.0,230.0,32.0,3.0,260.0,3048.28
3048290.0,227.0,32.0,4.0,258.0,3048.29
3048300.0,229.0,32.0,4.0,255.0,3048.3
3048310.0,218.0,32.0,4.0,247.0,3048.31
3048320.0,225.0,31.0,4.0,253.0,3048.32
3048330.0,231.0,33.0,3.0,259.0,3048.33
3048340.0,227.0,31.0,4.0,256.0,3048.34
3048350.0,228.0,32.0,3.0,256.0,3048.35
3048360.0,220.0,32.0,4.0,248.0,3048.36
3048370.0,225.0,32.0,4.0,255.0,3048.37
3048380.0,231.0,32.0,3.0,260.0,3048.38
3048390.0,225.0,32.0,3.0,255.0,3048.39
3048400.0,225.0,32.0,4.0,252.0,3048.4
3048410.0,218.0,32.0,3.0,248.0,3048.41
3048420.0,224.0,32.0,4.0,254.0,3048.42
3048430.0,230.0,32.0,3.0,259.0,3048.43
3048440.0,224.0,32.0,4.0,254.0,3048.44
3048450.0,228.0,31.0,4.0,254.0,3048.45
3048460.0,218.0,32.0,3.0,246.0,3048.46
3048470.0,224.0,32.0,4.0,255.0,3048.47
3048480.0,231.0,32.0,4.0,258.0,3048.48
3048491.0,225.0,31.0,4.0,252.0,3048.491
3048501.0,226.0,32.0,4.0,254.0,3048.501
3048511.0,221.0,31.0,4.0,252.0,3048.511
3048521.0,229.0,32.0,3.0,261.0,3048.521
3048531.0,231.0,32.0,4.0,258.0,3048.531
3048541.0,224.0,32.0,4.0,253.0,3048.541
3048551.0,226.0,32.0,4.0,252.0,3048.551
3048561.0,221.0,31.0,4.0,251.0,3048.561
3048571.0,228.0,32.0,4.0,257.0,3048.571
3048581.0,231.0,32.0,3.0,258.0,3048.581
3048591.0,223.0,32.0,3.0,250.0,3048.591
3048601.0,225.0,32.0,4.0,250.0,3048.601
3048611.0,224.0,32.0,4.0,249.0,3048.611
3048621.0,227.0,32.0,4.0,255.0,3048.621
3048631.0,231.0,32.0,3.0,257.0,3048.631
3048641.0,223.0,32.0,4.0,250.0,3048.641
3048651.0,226.0,33.0,3.0,252.0,3048.651
3048662.0,224.0,32.0,4.0,253.0,3048.662
3048672.0,228.0,32.0,4.0,258.0,3048.672
3048682.0,231.0,32.0,4.0,254.0,3048.682
3048692.0,220.0,33.0,2.0,245.0,3048.692
3048702.0,224.0,32.0,4.0,252.0,3048.702
3048712.0,226.0,33.0,3.0,255.0,3048.712
3048722.0,228.0,32.0,4.0,256.0,3048.722
3048732.0,229.0,32.0,3.0,253.0,3048.732
3048742.0,220.0,32.0,5.0,246.0,3048.742
3048752.0,225.0,32.0,4.0,252.0,3048.752
3048762.0,228.0,32.0,4.0,256.0,3048.762
3048772.0,229.0,32.0,4.0,257.0,3048.772
3048782.0,228.0,33.0,4.0,254.0,3048.782
3048792.0,221.0,32.0,3.0,248.0,3048.792
3048802.0,224.0,33.0,4.0,251.0,3048.802
3048812.0,230.0,33.0,4.0,258.0,3048.812
3048822.0,228.0,33.0,2.0,259.0,3048.822
3048832.0,232.0,33.0,4.0,257.0,3048.832
3048842.0,221.0,33.0,3.0,250.0,3048.842
3048852.0,224.0,32.0,3.0,251.0,3048.852
3048862.0,229.0,33.0,3.0,257.0,3048.862
3048872.0,228.0,32.0,5.0,257.0,3048.872
3048882.0,229.0,33.0,3.0,256.0,3048.882
3048892.0,220.0,32.0,3.0,249.0,3048.892
3048902.0,224.0,33.0,3.0,254.0,3048.902
3048912.0,230.0,32.0,3.0,259.0,3048.912
3048922.0,228.0,32.0,4.0,259.0,3048.922
3048932.0,228.0,33.0,4.0,256.0,3048.932
3048942.0,221.0,31.0,4.0,250.0,3048.942
3048952.0,224.0,33.0,2.0,255.0,3048.952
3048962.0,226.0,33.0,3.0,257.0,3048.962
3048972.0,228.0,33.0,3.0,261.0,3048.972
3048982.0,228.0,32.0,4.0,256.0,3048.982
3048992.0,219.0,32.0,3.0,246.0,3048.992
3049003.0,224.0,33.0,4.0,254.0,3049.003
3049013.0,230.0,32.0,4.0,260.0,3049.013
3049023.0,225.0,32.0,4.0,255.0,3049.023
3049033.0,226.0,34.0,3.0,255.0,3049.033
3049043.0,219.0,32.0,4.0,250.0,3049.043
3049053.0,225.0,32.0,4.0,256.0,3049.053
3049063.0,232.0,32.0,4.0,261.0,3049.063
3049073.0,226.0,31.0,4.0,255.0,3049.073
3049083.0,226.0,33.0,4.0,254.0,3049.083
3049093.0,220.0,32.0,4.0,247.0,3049.093
3049103.0,226.0,33.0,3.0,257.0,3049.103
3049113.0,231.0,33.0,3.0,259.0,3049.113
3049123.0,225.0,32.0,4.0,254.0,3049.123
3049133.0,227.0,32.0,4.0,255.0,3049.133
3049143.0,218.0,32.0,3.0,247.0,3049.143
3049153.0,227.0,32.0,3.0,257.0,3049.153
3049163.0,231.0,34.0,3.0,259.0,3049.163
3049174.0,225.0,32.0,3.0,252.0,3049.174
3049184.0,226.0,32.0,3.0,253.0,3049.184
3049194.0,225.0,33.0,4.0,253.0,3049.194
3049204.0,230.0,32.0,3.0,259.0,3049.204
3049214.0,230.0,32.0,4.0,253.0,3049.214
3049224.0,224.0,32.0,3.0,249.0,3049.224
3049234.0,226.0,32.0,3.0,251.0,3049.234
3049244.0,224.0,32.0,3.0,254.0,3049.244
3049254.0,230.0,32.0,4.0,259.0,3049.254
3049264.0,232.0,32.0,4.0,261.0,3049.264
3049274.0,224.0,32.0,3.0,254.0,3049.274
3049284.0,226.0,32.0,4.0,255.0,3049.284
3049294.0,226.0,33.0,3.0,257.0,3049.294
3049304.0,229.0,32.0,4.0,260.0,3049.304
3049314.0,232.0,32.0,4.0,259.0,3049.314
3049324.0,225.0,32.0,5.0,251.0,3049.324
3049334.0,226.0,32.0,4.0,254.0,3049.334
3049344.0,223.0,32.0,5.0,251.0,3049.344
3049354.0,230.0,32.0,3.0,261.0,3049.354
3049364.0,232.0,32.0,4.0,259.0,3049.364
3049374.0,223.0,32.0,4.0,253.0,3049.374
3049384.0,225.0,33.0,4.0,253.0,3049.384
3049394.0,224.0,31.0,4.0,253.0,3049.394
3049404.0,230.0,32.0,4.0,259.0,3049.404
3049414.0,231.0,33.0,4.0,257.0,3049.414
3049424.0,222.0,33.0,3.0,250.0,3049.424
3049434.0,226.0,32.0,4.0,254.0,3049.434
3049444.0,223.0,32.0,4.0,254.0,3049.444
3049454.0,229.0,31.0,4.0,259.0,3049.454
3049464.0,229.0,33.0,4.0,258.0,3049.464
3049474.0,224.0,32.0,4.0,253.0,3049.474
3049484.0,225.0,33.0,3.0,254.0,3049.484
3049494.0,224.0,32.0,4.0,254.0,3049.494
3049504.0,229.0,32.0,3.0,260.0,3049.504
3049515.0,229.0,32.0,4.0,256.0,3049.515
3049525.0,221.0,31.0,4.0,249.0,3049.525
3049535.0,224.0,31.0,3.0,255.0,3049.535
3049545.0,230.0,33.0,3.0,262.0,3049.545
3049555.0,227.0,32.0,4.0,258.0,3049.555
3049565.0,229.0,32.0,3.0,258.0,3049.565
3049575.0,221.0,32.0,4.0,250.0,3049.575
3049585.0,226.0,31.0,4.0,257.0,3049.585
3049595.0,230.0,33.0,3.0,262.0,3049.595
3049605.0,230.0,32.0,4.0,261.0,3049.605
3049615.0,229.0,32.0,3.0,259.0,3049.615
3049625.0,220.0,30.0,4.0,251.0,3049.625
3049635.0,225.0,32.0,4.0,258.0,3049.635
3049645.0,228.0,32.0,4.0,261.0,3049.645
3049655.0,229.0,31.0,3.0,261.0,3049.655
3049665.0,228.0,32.0,3.0,257.0,3049.665
3049675.0,220.0,33.0,3.0,249.0,3049.675
3049686.0,226.0,32.0,3.0,258.0,3049.686
3049696.0,232.0,32.0,3.0,262.0,3049.696
3049706.0,227.0,32.0,5.0,256.0,3049.706
3049716.0,227.0,31.0,4.0,255.0,3049.716
3049726.0,222.0,32.0,4.0,252.0,3049.726
3049736.0,228.0,32.0,4.0,258.0,3049.736
3049746.0,232.0,32.0,3.0,260.0,3049.746
3049756.0,227.0,30.0,4.0,255.0,3049.756
3049766.0,227.0,32.0,4.0,256.0,3049.766
3049776.0,220.0,31.0,4.0,248.0,3049.776
3049786.0,228.0,32.0,3.0,260.0,3049.786
3049796.0,232.0,32.0,4.0,261.0,3049.796
3049806.0,226.0,32.0,3.0,255.0,3049.806
3049816.0,228.0,32.0,4.0,255.0,3049.816
3049826.0,220.0,32.0,3.0,249.0,3049.826
3049836.0,230.0,32.0,5.0,262.0,3049.836
3049846.0,232.0,32.0,2.0,261.0,3049.846
3049856.0,228.0,32.0,5.0,257.0,3049.856
3049866.0,227.0,33.0,3.0,257.0,3049.866
3049876.0,220.0,32.0,3.0,250.0,3049.876
3049886.0,229.0,32.0,4.0,260.0,3049.886
3049896.0,232.0,32.0,4.0,260.0,3049.896
3049906.0,228.0,31.0,4.0,256.0,3049.906
3049916.0,226.0,32.0,4.0,255.0,3049.916
3049926.0,221.0,31.0,4.0,253.0,3049.926
3049936.0,230.0,32.0,3.0,263.0,3049.936
3049946.0,232.0,32.0,3.0,261.0,3049.946
3049956.0,226.0,31.0,3.0,257.0,3049.956
3049966.0,227.0,32.0,5.0,254.0,3049.966
3049976.0,222.0,32.0,3.0,253.0,3049.976
3049986.0,227.0,31.0,4.0,258.0,3049.986
3049996.0,232.0,33.0,3.0,262.0,3049.996
3050006.0,227.0,31.0,4.0,258.0,3050.006
3050016.0,227.0,32.0,4.0,258.0,3050.016
3050027.0,224.0,32.0,4.0,259.0,3050.027
3050037.0,231.0,31.0,3.0,265.0,3050.037
3050047.0,231.0,32.0,3.0,261.0,3050.047
3050057.0,224.0,32.0,4.0,256.0,3050.057
3050067.0,226.0,32.0,3.0,258.0,3050.067
3050077.0,226.0,32.0,3.0,259.0,3050.077
3050087.0,231.0,32.0,3.0,265.0,3050.087
3050097.0,230.0,31.0,4.0,259.0,3050.097
3050107.0,223.0,31.0,2.0,256.0,3050.107
3050117.0,227.0,31.0,4.0,259.0,3050.117
3050127.0,227.0,32.0,3.0,260.0,3050.127
3050137.0,231.0,31.0,3.0,264.0,3050.137
3050147.0,230.0,32.0,4.0,260.0,3050.147
3050157.0,226.0,31.0,5.0,258.0,3050.157
3050167.0,227.0,31.0,4.0,259.0,3050.167
3050177.0,228.0,32.0,4.0,262.0,3050.177
3050187.0,231.0,32.0,4.0,266.0,3050.187
3050198.0,230.0,32.0,3.0,260.0,3050.198
3050208.0,222.0,31.0,3.0,254.0,3050.208
3050218.0,227.0,32.0,4.0,259.0,3050.218
3050228.0,233.0,31.0,4.0,266.0,3050.228
3050238.0,229.0,32.0,3.0,263.0,3050.238
3050248.0,230.0,32.0,4.0,259.0,3050.248
3050258.0,222.0,32.0,3.0,252.0,3050.258
3050268.0,227.0,32.0,4.0,260.0,3050.268
3050278.0,233.0,32.0,3.0,263.0,3050.278
3050288.0,231.0,32.0,5.0,263.0,3050.288
3050298.0,230.0,31.0,2.0,259.0,3050.298
3050308.0,222.0,32.0,4.0,252.0,3050.308
3050318.0,228.0,32.0,4.0,263.0,3050.318
3050328.0,231.0,32.0,3.0,265.0,3050.328
3050338.0,230.0,32.0,4.0,265.0,3050.338
3050348.0,230.0,32.0,5.0,263.0,3050.348
3050358.0,221.0,31.0,3.0,256.0,3050.358
3050368.0,226.0,32.0,3.0,260.0,3050.368
3050378.0,231.0,32.0,3.0,266.0,3050.378
3050388.0,229.0,32.0,3.0,264.0,3050.388
3050398.0,228.0,32.0,3.0,262.0,3050.398
3050408.0,220.0,32.0,4.0,254.0,3050.408
3050418.0,226.0,32.0,3.0,261.0,3050.418
3050428.0,231.0,32.0,4.0,268.0,3050.428
3050438.0,228.0,32.0,4.0,265.0,3050.438
3050448.0,228.0,33.0,3.0,263.0,3050.448
3050458.0,222.0,32.0,3.0,258.0,3050.458
3050468.0,227.0,32.0,3.0,264.0,3050.468
3050478.0,233.0,32.0,4.0,268.0,3050.478
3050488.0,228.0,31.0,3.0,266.0,3050.488
3050498.0,230.0,32.0,3.0,263.0,3050.498
3050508.0,221.0,33.0,3.0,258.0,3050.508
3050518.0,227.0,32.0,3.0,265.0,3050.518
3050528.0,232.0,32.0,3.0,268.0,3050.528
3050539.0,228.0,32.0,4.0,264.0,3050.539
3050549.0,229.0,31.0,4.0,261.0,3050.549
3050559.0,222.0,32.0,3.0,258.0,3050.559
3050569.0,231.0,32.0,3.0,267.0,3050.569
3050579.0,233.0,33.0,3.0,262.0,3050.579
3050589.0,227.0,32.0,4.0,260.0,3050.589
3050599.0,227.0,32.0,3.0,260.0,3050.599
3050609.0,224.0,32.0,4.0,258.0,3050.609
3050619.0,230.0,31.0,4.0,266.0,3050.619
3050629.0,233.0,32.0,4.0,265.0,3050.629
3050639.0,227.0,32.0,3.0,260.0,3050.639
3050649.0,227.0,32.0,4.0,258.0,3050.649
3050659.0,226.0,31.0,4.0,258.0,3050.659
3050669.0,230.0,32.0,4.0,265.0,3050.669
3050679.0,234.0,31.0,4.0,264.0,3050.679
3050689.0,227.0,32.0,3.0,260.0,3050.689
3050699.0,228.0,32.0,3.0,260.0,3050.699
3050710.0,227.0,33.0,3.0,260.0,3050.71
3050720.0,232.0,32.0,3.0,265.0,3050.72
3050730.0,231.0,32.0,4.0,260.0,3050.73
3050740.0,225.0,31.0,5.0,254.0,3050.74
3050750.0,226.0,32.0,4.0,258.0,3050.75
3050760.0,228.0,32.0,3.0,260.0,3050.76
3050770.0,233.0,33.0,3.0,266.0,3050.77
3050780.0,230.0,32.0,3.0,260.0,3050.78
3050790.0,224.0,32.0,3.0,255.0,3050.79
3050800.0,228.0,32.0,4.0,256.0,3050.8
3050810.0,230.0,31.0,2.0,260.0,3050.81
3050820.0,233.0,32.0,3.0,264.0,3050.82
3050830.0,231.0,32.0,4.0,258.0,3050.83
3050840.0,225.0,32.0,3.0,256.0,3050.84
3050850.0,227.0,32.0,3.0,257.0,3050.85
3050860.0,230.0,32.0,4.0,261.0,3050.86
3050870.0,233.0,32.0,4.0,265.0,3050.87
3050880.0,232.0,33.0,3.0,260.0,3050.88
3050890.0,224.0,32.0,4.0,255.0,3050.89
3050900.0,227.0,33.0,3.0,257.0,3050.9
3050910.0,231.0,32.0,4.0,264.0,3050.91
3050920.0,232.0,33.0,3.0,265.0,3050.92
3050930.0,233.0,33.0,5.0,261.0,3050.93
3050940.0,225.0,32.0,4.0,257.0,3050.94
3050950.0,227.0,33.0,3.0,259.0,3050.95
3050960.0,232.0,34.0,3.0,266.0,3050.96
3050970.0,232.0,33.0,3.0,267.0,3050.97
3050980.0,231.0,33.0,3.0,263.0,3050.98
3050990.0,224.0,33.0,4.0,258.0,3050.99
3051000.0,228.0,33.0,4.0,260.0,3051.0
3051010.0,229.0,33.0,4.0,262.0,3051.01
3051020.0,233.0,32.0,4.0,267.0,3051.02
3051030.0,231.0,34.0,3.0,261.0,3051.03
3051040.0,224.0,32.0,4.0,256.0,3051.04
3051051.0,227.0,33.0,3.0,261.0,3051.051
3051061.0,235.0,33.0,4.0,267.0,3051.061
3051071.0,230.0,32.0,4.0,264.0,3051.071
3051081.0,230.0,32.0,4.0,261.0,3051.081
3051091.0,222.0,33.0,3.0,257.0,3051.091
3051101.0,228.0,32.0,4.0,262.0,3051.101
3051111.0,232.0,34.0,3.0,267.0,3051.111
3051121.0,229.0,32.0,5.0,263.0,3051.121
3051131.0,228.0,33.0,4.0,261.0,3051.131
3051141.0,221.0,32.0,4.0,256.0,3051.141
3051151.0,228.0,33.0,3.0,265.0,3051.151
3051161.0,232.0,33.0,3.0,268.0,3051.161
3051171.0,228.0,32.0,4.0,263.0,3051.171
3051181.0,229.0,33.0,4.0,263.0,3051.181
3051191.0,222.0,31.0,4.0,256.0,3051.191
3051201.0,228.0,32.0,4.0,266.0,3051.201
3051211.0,233.0,33.0,3.0,267.0,3051.211
3051222.0,226.0,33.0,3.0,261.0,3051.222
3051232.0,227.0,32.0,3.0,259.0,3051.232
3051242.0,223.0,33.0,3.0,259.0,3051.242
3051252.0,232.0,32.0,4.0,267.0,3051.252
3051262.0,232.0,33.0,4.0,264.0,3051.262
3051272.0,226.0,32.0,4.0,261.0,3051.272
3051282.0,227.0,33.0,3.0,261.0,3051.282
3051292.0,224.0,32.0,4.0,261.0,3051.292
3051302.0,230.0,33.0,3.0,266.0,3051.302
3051312.0,233.0,32.0,5.0,264.0,3051.312
3051322.0,225.0,31.0,4.0,259.0,3051.322
3051332.0,226.0,32.0,4.0,258.0,3051.332
3051342.0,225.0,32.0,4.0,260.0,3051.342
3051352.0,229.0,33.0,3.0,266.0,3051.352
3051362.0,232.0,32.0,4.0,265.0,3051.362
3051372.0,224.0,32.0,4.0,261.0,3051.372
3051382.0,227.0,32.0,4.0,262.0,3051.382
3051392.0,221.0,33.0,3.0,258.0,3051.392
3051402.0,230.0,32.0,4.0,268.0,3051.402
3051412.0,233.0,34.0,3.0,267.0,3051.412
3051422.0,225.0,32.0,3.0,260.0,3051.422
3051432.0,226.0,33.0,4.0,260.0,3051.432
3051442.0,224.0,32.0,5.0,259.0,3051.442
3051452.0,230.0,32.0,4.0,267.0,3051.452
3051462.0,232.0,33.0,4.0,262.0,3051.462
3051472.0,224.0,33.0,4.0,257.0,3051.472
3051482.0,228.0,33.0,3.0,259.0,3051.482
3051492.0,225.0,32.0,4.0,258.0,3051.492
3051502.0,231.0,32.0,4.0,265.0,3051.502
3051512.0,233.0,33.0,4.0,260.0,3051.512
3051522.0,225.0,32.0,3.0,258.0,3051.522
3051532.0,227.0,32.0,4.0,257.0,3051.532
3051542.0,225.0,33.0,3.0,260.0,3051.542
3051552.0,231.0,32.0,4.0,264.0,3051.552
3051563.0,231.0,32.0,3.0,260.0,3051.563
3051573.0,223.0,32.0,5.0,254.0,3051.573
3051583.0,225.0,32.0,4.0,256.0,3051.583
3051593.0,231.0,32.0,4.0,263.0,3051.593
3051603.0,229.0,33.0,3.0,265.0,3051.603
3051613.0,230.0,32.0,4.0,265.0,3051.613
3051623.0,222.0,32.0,3.0,258.0,3051.623
3051633.0,225.0,33.0,4.0,263.0,3051.633
3051643.0,232.0,33.0,4.0,268.0,3051.643
3051653.0,231.0,33.0,3.0,266.0,3051.653
3051663.0,230.0,33.0,3.0,263.0,3051.663
3051673.0,222.0,32.0,3.0,254.0,3051.673
3051683.0,226.0,32.0,4.0,261.0,3051.683
3051693.0,229.0,33.0,3.0,264.0,3051.693
3051703.0,232.0,31.0,5.0,265.0,3051.703
3051713.0,229.0,32.0,3.0,261.0,3051.713
3051723.0,221.0,32.0,4.0,253.0,3051.723
3051734.0,226.0,33.0,3.0,261.0,3051.734
3051744.0,232.0,32.0,4.0,264.0,3051.744
3051754.0,227.0,32.0,3.0,260.0,3051.754
3051764.0,228.0,32.0,4.0,256.0,3051.764
3051774.0,222.0,33.0,4.0,254.0,3051.774
3051784.0,226.0,32.0,4.0,259.0,3051.784
3051794.0,233.0,33.0,3.0,264.0,3051.794
3051804.0,227.0,32.0,3.0,257.0,3051.804
3051814.0,228.0,32.0,3.0,256.0,3051.814
3051824.0,221.0,33.0,3.0,249.0,3051.824
3051834.0,229.0,33.0,4.0,260.0,3051.834
3051844.0,232.0,33.0,4.0,260.0,3051.844
3051854.0,226.0,32.0,3.0,254.0,3051.854
