time (ms),signal 0,signal 1,signal 2,signal 3,time (sec)
3029371.0,220.0,32.0,2.0,245.0,3029.371
3029381.0,221.0,32.0,4.0,247.0,3029.381
3029391.0,220.0,32.0,4.0,246.0,3029.391
3029401.0,220.0,32.0,5.0,243.0,3029.401
3029411.0,211.0,33.0,4.0,236.0,3029.411
3029421.0,216.0,32.0,4.0,241.0,3029.421
3029431.0,220.0,33.0,3.0,247.0,3029.431
3029441.0,219.0,32.0,4.0,244.0,3029.441
3029451.0,217.0,32.0,4.0,241.0,3029.451
3029462.0,210.0,32.0,5.0,232.0,3029.462
3029472.0,216.0,32.0,4.0,245.0,3029.472
3029482.0,222.0,32.0,3.0,248.0,3029.482
3029492.0,216.0,33.0,3.0,242.0,3029.492
3029502.0,217.0,32.0,3.0,243.0,3029.502
3029512.0,211.0,32.0,3.0,238.0,3029.512
3029522.0,220.0,32.0,4.0,247.0,3029.522
3029532.0,224.0,31.0,4.0,250.0,3029.532
3029542.0,216.0,32.0,3.0,243.0,3029.542
3029552.0,219.0,32.0,3.0,245.0,3029.552
3029562.0,211.0,33.0,3.0,239.0,3029.562
3029572.0,221.0,32.0,4.0,248.0,3029.572
3029582.0,223.0,33.0,4.0,251.0,3029.582
3029592.0,220.0,32.0,5.0,247.0,3029.592
3029602.0,220.0,32.0,4.0,246.0,3029.602
3029612.0,214.0,33.0,3.0,241.0,3029.612
3029622.0,223.0,33.0,3.0,252.0,3029.622
3029632.0,224.0,32.0,4.0,251.0,3029.632
3029642.0,220.0,32.0,3.0,246.0,3029.642
3029652.0,220.0,33.0,4.0,246.0,3029.652
3029662.0,217.0,31.0,4.0,245.0,3029.662
3029672.0,224.0,33.0,4.0,255.0,3029.672
3029682.0,226.0,32.0,4.0,255.0,3029.682
3029692.0,221.0,33.0,3.0,248.0,3029.692
3029702.0,221.0,32.0,3.0,249.0,3029.702
3029712.0,218.0,32.0,3.0,247.0,3029.712
3029722.0,225.0,33.0,4.0,254.0,3029.722
3029732.0,227.0,32.0,3.0,256.0,3029.732
3029742.0,221.0,32.0,4.0,248.0,3029.742
3029752.0,222.0,33.0,3.0,249.0,3029.752
3029762.0,215.0,32.0,3.0,242.0,3029.762
3029772.0,224.0,32.0,4.0,252.0,3029.772
3029782.0,228.0,33.0,4.0,254.0,3029.782
3029792.0,222.0,32.0,4.0,247.0,3029.792
3029803.0,222.0,33.0,4.0,248.0,3029.803
3029813.0,223.0,33.0,3.0,252.0,3029.813
3029823.0,227.0,33.0,3.0,256.0,3029.823
3029833.0,227.0,33.0,3.0,254.0,3029.833
3029843.0,219.0,32.0,4.0,246.0,3029.843
3029853.0,223.0,33.0,4.0,250.0,3029.853
3029863.0,224.0,33.0,4.0,252.0,3029.863
3029873.0,227.0,33.0,4.0,255.0,3029.873
3029883.0,225.0,34.0,3.0,253.0,3029.883
3029893.0,220.0,32.0,4.0,247.0,3029.893
3029903.0,221.0,34.0,3.0,251.0,3029.903
3029913.0,225.0,33.0,5.0,255.0,3029.913
3029923.0,226.0,33.0,3.0,257.0,3029.923
3029933.0,228.0,33.0,4.0,255.0,3029.933
3029943.0,220.0,33.0,3.0,250.0,3029.943
3029953.0,222.0,33.0,3.0,252.0,3029.953
3029963.0,224.0,33.0,4.0,256.0,3029.963
3029974.0,225.0,32.0,4.0,257.0,3029.974
3029984.0,224.0,33.0,4.0,252.0,3029.984
3029994.0,215.0,32.0,4.0,242.0,3029.994
3030004.0,222.0,32.0,3.0,252.0,3030.004
3030014.0,227.0,33.0,3.0,256.0,3030.014
3030024.0,224.0,32.0,3.0,254.0,3030.024
3030034.0,223.0,32.0,4.0,253.0,3030.034
3030044.0,216.0,31.0,4.0,244.0,3030.044
3030054.0,222.0,32.0,4.0,253.0,3030.054
3030064.0,225.0,32.0,4.0,255.0,3030.064
3030074.0,224.0,33.0,3.0,254.0,3030.074
3030084.0,223.0,32.0,4.0,252.0,3030.084
3030094.0,215.0,31.0,3.0,244.0,3030.094
3030104.0,221.0,31.0,4.0,251.0,3030.104
3030114.0,227.0,31.0,4.0,257.0,3030.114
3030124.0,223.0,31.0,4.0,254.0,3030.124
3030134.0,223.0,32.0,3.0,253.0,3030.134
3030144.0,217.0,31.0,3.0,246.0,3030.144
3030154.0,221.0,30.0,3.0,254.0,3030.154
3030164.0,227.0,32.0,3.0,259.0,3030.164
3030174.0,224.0,31.0,4.0,260.0,3030.174
3030184.0,224.0,31.0,3.0,261.0,3030.184
3030194.0,218.0,31.0,4.0,251.0,3030.194
3030204.0,222.0,33.0,3.0,260.0,3030.204
3030214.0,227.0,32.0,3.0,264.0,3030.214
3030224.0,221.0,31.0,3.0,258.0,3030.224
3030234.0,225.0,31.0,5.0,257.0,3030.234
3030244.0,216.0,31.0,3.0,248.0,3030.244
3030254.0,222.0,31.0,4.0,256.0,3030.254
3030264.0,228.0,32.0,3.0,262.0,3030.264
3030274.0,224.0,31.0,3.0,257.0,3030.274
3030284.0,224.0,31.0,4.0,256.0,3030.284
3030294.0,216.0,31.0,4.0,247.0,3030.294
3030304.0,224.0,31.0,4.0,257.0,3030.304
3030315.0,228.0,32.0,4.0,259.0,3030.315
3030325.0,222.0,31.0,4.0,251.0,3030.325
3030335.0,223.0,32.0,3.0,251.0,3030.335
3030345.0,221.0,31.0,4.0,251.0,3030.345
3030355.0,227.0,31.0,3.0,258.0,3030.355
3030365.0,228.0,32.0,4.0,258.0,3030.365
3030375.0,220.0,31.0,4.0,252.0,3030.375
3030385.0,221.0,31.0,4.0,252.0,3030.385
3030395.0,222.0,32.0,3.0,254.0,3030.395
3030405.0,227.0,32.0,3.0,260.0,3030.405
3030415.0,231.0,32.0,4.0,264.0,3030.415
3030425.0,224.0,31.0,5.0,254.0,3030.425
3030435.0,225.0,31.0,4.0,255.0,3030.435
3030445.0,220.0,32.0,4.0,253.0,3030.445
3030455.0,231.0,32.0,3.0,265.0,3030.455
3030465.0,233.0,33.0,3.0,262.0,3030.465
3030475.0,225.0,32.0,4.0,256.0,3030.475
3030486.0,224.0,32.0,4.0,258.0,3030.486
3030496.0,225.0,32.0,4.0,259.0,3030.496
3030506.0,227.0,32.0,2.0,259.0,3030.506
3030516.0,226.0,32.0,4.0,257.0,3030.516
3030526.0,224.0,33.0,3.0,253.0,3030.526
3030536.0,229.0,32.0,3.0,257.0,3030.536
3030546.0,230.0,32.0,3.0,265.0,3030.546
3030556.0,235.0,32.0,5.0,261.0,3030.556
3030566.0,231.0,32.0,4.0,255.0,3030.566
3030576.0,231.0,32.0,4.0,251.0,3030.576
3030586.0,232.0,32.0,4.0,254.0,3030.586
3030596.0,237.0,32.0,3.0,260.0,3030.596
3030606.0,238.0,32.0,4.0,259.0,3030.606
3030616.0,238.0,32.0,4.0,260.0,3030.616
3030626.0,240.0,32.0,4.0,264.0,3030.626
3030636.0,240.0,32.0,3.0,267.0,3030.636
3030646.0,239.0,32.0,4.0,268.0,3030.646
3030656.0,247.0,32.0,3.0,272.0,3030.656
3030666.0,246.0,32.0,4.0,266.0,3030.666
3030676.0,231.0,32.0,4.0,256.0,3030.676
3030686.0,230.0,31.0,4.0,253.0,3030.686
3030696.0,237.0,32.0,2.0,269.0,3030.696
3030706.0,240.0,31.0,3.0,265.0,3030.706
3030716.0,237.0,33.0,3.0,266.0,3030.716
3030726.0,234.0,32.0,3.0,272.0,3030.726
3030736.0,236.0,32.0,4.0,281.0,3030.736
3030746.0,236.0,32.0,4.0,278.0,3030.746
3030756.0,237.0,31.0,4.0,283.0,3030.756
3030766.0,235.0,33.0,3.0,281.0,3030.766
3030776.0,243.0,33.0,4.0,282.0,3030.776
3030786.0,249.0,33.0,3.0,288.0,3030.786
3030796.0,250.0,32.0,4.0,293.0,3030.796
3030806.0,249.0,32.0,4.0,287.0,3030.806
3030816.0,245.0,32.0,4.0,279.0,3030.816
3030827.0,240.0,32.0,4.0,284.0,3030.827
3030837.0,233.0,32.0,4.0,272.0,3030.837
3030847.0,239.0,34.0,3.0,271.0,3030.847
3030857.0,240.0,32.0,3.0,281.0,3030.857
3030867.0,241.0,33.0,4.0,284.0,3030.867
3030877.0,237.0,33.0,4.0,274.0,3030.877
3030887.0,251.0,33.0,3.0,286.0,3030.887
3030897.0,251.0,33.0,3.0,279.0,3030.897
3030907.0,251.0,33.0,3.0,275.0,3030.907
3030917.0,256.0,33.0,3.0,276.0,3030.917
3030927.0,245.0,33.0,4.0,255.0,3030.927
3030937.0,251.0,33.0,5.0,260.0,3030.937
3030947.0,253.0,33.0,4.0,252.0,3030.947
3030957.0,245.0,33.0,3.0,245.0,3030.957
3030967.0,245.0,33.0,4.0,254.0,3030.967
3030977.0,231.0,34.0,3.0,242.0,3030.977
3030987.0,247.0,32.0,3.0,268.0,3030.987
3030998.0,249.0,33.0,4.0,281.0,3030.998
3031008.0,244.0,33.0,5.0,278.0,3031.008
3031018.0,244.0,34.0,4.0,277.0,3031.018
3031028.0,244.0,33.0,4.0,273.0,3031.028
3031038.0,249.0,35.0,3.0,283.0,3031.038
3031048.0,253.0,34.0,4.0,288.0,3031.048
3031058.0,244.0,33.0,3.0,275.0,3031.058
3031068.0,248.0,33.0,5.0,289.0,3031.068
3031078.0,242.0,33.0,4.0,283.0,3031.078
3031088.0,245.0,34.0,4.0,286.0,3031.088
3031098.0,251.0,34.0,3.0,286.0,3031.098
3031108.0,248.0,34.0,3.0,282.0,3031.108
3031118.0,252.0,32.0,3.0,292.0,3031.118
3031128.0,247.0,33.0,4.0,290.0,3031.128
3031138.0,256.0,33.0,4.0,311.0,3031.138
3031148.0,254.0,34.0,2.0,319.0,3031.148
3031158.0,243.0,33.0,3.0,300.0,3031.158
3031168.0,249.0,34.0,2.0,310.0,3031.168
3031178.0,244.0,32.0,4.0,306.0,3031.178
3031188.0,248.0,33.0,4.0,303.0,3031.188
3031198.0,244.0,33.0,5.0,285.0,3031.198
3031208.0,234.0,33.0,2.0,264.0,3031.208
3031218.0,238.0,34.0,4.0,256.0,3031.218
3031228.0,237.0,33.0,3.0,269.0,3031.228
3031238.0,246.0,33.0,3.0,270.0,3031.238
3031248.0,253.0,33.0,4.0,279.0,3031.248
3031258.0,247.0,33.0,3.0,291.0,3031.258
3031268.0,246.0,33.0,4.0,286.0,3031.268
3031278.0,239.0,33.0,3.0,273.0,3031.278
3031288.0,244.0,33.0,4.0,284.0,3031.288
3031298.0,247.0,34.0,3.0,296.0,3031.298
3031308.0,239.0,32.0,4.0,292.0,3031.308
3031318.0,241.0,33.0,4.0,308.0,3031.318
3031328.0,234.0,33.0,5.0,297.0,3031.328
3031339.0,231.0,32.0,3.0,297.0,3031.339
3031349.0,244.0,32.0,4.0,326.0,3031.349
3031359.0,238.0,34.0,3.0,331.0,3031.359
3031369.0,241.0,32.0,3.0,326.0,3031.369
3031379.0,252.0,33.0,4.0,358.0,3031.379
3031389.0,247.0,33.0,4.0,341.0,3031.389
3031399.0,250.0,33.0,4.0,338.0,3031.399
3031409.0,243.0,33.0,4.0,335.0,3031.409
3031419.0,252.0,33.0,3.0,329.0,3031.419
3031429.0,256.0,33.0,3.0,336.0,3031.429
3031439.0,258.0,32.0,4.0,326.0,3031.439
3031449.0,256.0,33.0,3.0,320.0,3031.449
3031459.0,250.0,32.0,4.0,309.0,3031.459
3031469.0,251.0,32.0,4.0,304.0,3031.469
3031479.0,269.0,32.0,3.0,323.0,3031.479
3031489.0,258.0,33.0,3.0,306.0,3031.489
3031499.0,253.0,32.0,3.0,314.0,3031.499
3031510.0,241.0,32.0,4.0,303.0,3031.51
3031520.0,252.0,33.0,5.0,342.0,3031.52
3031530.0,259.0,33.0,3.0,353.0,3031.53
3031540.0,258.0,32.0,4.0,356.0,3031.54
3031550.0,260.0,33.0,3.0,353.0,3031.55
3031560.0,247.0,32.0,3.0,330.0,3031.56
3031570.0,251.0,32.0,4.0,323.0,3031.57
3031580.0,253.0,32.0,4.0,326.0,3031.58
3031590.0,250.0,32.0,4.0,315.0,3031.59
3031600.0,250.0,33.0,3.0,317.0,3031.6
3031610.0,242.0,32.0,3.0,320.0,3031.61
3031620.0,254.0,33.0,3.0,324.0,3031.62
3031630.0,261.0,32.0,4.0,363.0,3031.63
3031640.0,256.0,32.0,4.0,364.0,3031.64
3031650.0,256.0,33.0,5.0,362.0,3031.65
3031660.0,249.0,33.0,3.0,353.0,3031.66
3031670.0,258.0,32.0,4.0,353.0,3031.67
3031680.0,261.0,33.0,3.0,365.0,3031.68
3031690.0,257.0,32.0,3.0,365.0,3031.69
3031700.0,259.0,32.0,4.0,385.0,3031.7
3031710.0,253.0,33.0,4.0,371.0,3031.71
3031720.0,260.0,33.0,3.0,377.0,3031.72
3031730.0,256.0,32.0,4.0,377.0,3031.73
3031740.0,246.0,33.0,4.0,367.0,3031.74
3031750.0,241.0,33.0,3.0,348.0,3031.75
3031760.0,233.0,32.0,4.0,317.0,3031.76
3031770.0,241.0,31.0,4.0,311.0,3031.77
3031780.0,243.0,33.0,4.0,310.0,3031.78
3031790.0,232.0,32.0,3.0,305.0,3031.79
3031800.0,242.0,32.0,4.0,320.0,3031.8
3031810.0,231.0,32.0,4.0,297.0,3031.81
3031820.0,238.0,32.0,4.0,300.0,3031.82
3031830.0,248.0,33.0,3.0,279.0,3031.83
3031840.0,239.0,33.0,4.0,258.0,3031.84
3031851.0,243.0,33.0,2.0,275.0,3031.851
3031861.0,250.0,32.0,3.0,305.0,3031.861
3031871.0,260.0,33.0,3.0,310.0,3031.871
3031881.0,259.0,33.0,3.0,312.0,3031.881
3031891.0,245.0,32.0,3.0,296.0,3031.891
3031901.0,245.0,32.0,3.0,311.0,3031.901
3031911.0,252.0,33.0,4.0,327.0,3031.911
3031921.0,249.0,33.0,4.0,341.0,3031.921
3031931.0,251.0,32.0,4.0,335.0,3031.931
3031941.0,239.0,34.0,3.0,324.0,3031.941
3031951.0,240.0,32.0,4.0,316.0,3031.951
3031961.0,242.0,33.0,4.0,335.0,3031.961
3031971.0,245.0,32.0,5.0,327.0,3031.971
3031981.0,243.0,33.0,3.0,314.0,3031.981
3031991.0,230.0,32.0,3.0,289.0,3031.991
3032001.0,223.0,32.0,4.0,276.0,3032.001
3032011.0,230.0,33.0,3.0,280.0,3032.011
3032022.0,237.0,32.0,3.0,278.0,3032.022
3032032.0,245.0,33.0,4.0,286.0,3032.032
3032042.0,238.0,32.0,4.0,277.0,3032.042
3032052.0,248.0,33.0,3.0,305.0,3032.052
3032062.0,250.0,32.0,4.0,305.0,3032.062
3032072.0,246.0,33.0,3.0,294.0,3032.072
3032082.0,250.0,32.0,4.0,295.0,3032.082
3032092.0,249.0,32.0,3.0,332.0,3032.092
3032102.0,253.0,32.0,4.0,356.0,3032.102
3032112.0,250.0,33.0,4.0,347.0,3032.112
3032122.0,243.0,32.0,4.0,320.0,3032.122
3032132.0,242.0,34.0,3.0,320.0,3032.132
3032142.0,231.0,32.0,4.0,296.0,3032.142
3032152.0,231.0,32.0,4.0,286.0,3032.152
3032162.0,235.0,32.0,4.0,282.0,3032.162
3032172.0,232.0,31.0,4.0,279.0,3032.172
3032182.0,235.0,33.0,3.0,273.0,3032.182
3032192.0,229.0,31.0,3.0,269.0,3032.192
3032202.0,240.0,33.0,3.0,284.0,3032.202
3032212.0,243.0,32.0,4.0,304.0,3032.212
3032222.0,237.0,32.0,4.0,305.0,3032.222
3032232.0,234.0,33.0,4.0,283.0,3032.232
3032242.0,226.0,32.0,4.0,271.0,3032.242
3032252.0,230.0,32.0,3.0,294.0,3032.252
3032262.0,243.0,33.0,3.0,323.0,3032.262
3032272.0,245.0,32.0,4.0,334.0,3032.272
3032282.0,250.0,32.0,4.0,331.0,3032.282
3032292.0,249.0,32.0,4.0,336.0,3032.292
3032302.0,260.0,31.0,4.0,358.0,3032.302
3032312.0,264.0,33.0,4.0,366.0,3032.312
3032322.0,257.0,32.0,3.0,339.0,3032.322
3032332.0,250.0,32.0,3.0,336.0,3032.332
3032342.0,237.0,32.0,4.0,323.0,3032.342
3032352.0,235.0,32.0,4.0,311.0,3032.352
3032363.0,239.0,32.0,4.0,310.0,3032.363
3032373.0,231.0,32.0,3.0,308.0,3032.373
3032383.0,233.0,32.0,4.0,324.0,3032.383
3032393.0,230.0,33.0,3.0,328.0,3032.393
3032403.0,242.0,32.0,4.0,324.0,3032.403
3032413.0,243.0,33.0,3.0,318.0,3032.413
3032423.0,236.0,31.0,5.0,295.0,3032.423
3032433.0,237.0,31.0,4.0,295.0,3032.433
3032443.0,230.0,32.0,4.0,278.0,3032.443
3032453.0,236.0,31.0,4.0,292.0,3032.453
3032463.0,243.0,32.0,3.0,307.0,3032.463
3032473.0,244.0,32.0,5.0,322.0,3032.473
3032483.0,245.0,33.0,4.0,319.0,3032.483
3032493.0,238.0,31.0,4.0,324.0,3032.493
3032503.0,245.0,32.0,3.0,325.0,3032.503
3032513.0,257.0,33.0,3.0,376.0,3032.513
3032523.0,250.0,32.0,3.0,359.0,3032.523
3032534.0,251.0,32.0,4.0,351.0,3032.534
3032544.0,256.0,32.0,4.0,344.0,3032.544
3032554.0,250.0,32.0,4.0,349.0,3032.554
3032564.0,248.0,32.0,4.0,348.0,3032.564
3032574.0,245.0,31.0,4.0,346.0,3032.574
3032584.0,254.0,32.0,4.0,352.0,3032.584
3032594.0,249.0,32.0,4.0,343.0,3032.594
3032604.0,247.0,32.0,4.0,318.0,3032.604
3032614.0,255.0,33.0,5.0,318.0,3032.614
3032624.0,246.0,33.0,3.0,312.0,3032.624
3032634.0,242.0,32.0,4.0,296.0,3032.634
3032644.0,246.0,33.0,4.0,335.0,3032.644
3032654.0,246.0,32.0,4.0,338.0,3032.654
3032664.0,248.0,34.0,4.0,325.0,3032.664
3032674.0,239.0,32.0,4.0,304.0,3032.674
3032684.0,244.0,31.0,4.0,321.0,3032.684
3032694.0,250.0,32.0,4.0,324.0,3032.694
3032704.0,249.0,31.0,3.0,313.0,3032.704
3032714.0,251.0,33.0,3.0,304.0,3032.714
3032724.0,243.0,32.0,4.0,303.0,3032.724
3032734.0,238.0,32.0,3.0,288.0,3032.734
3032744.0,239.0,32.0,4.0,278.0,3032.744
3032754.0,232.0,31.0,3.0,264.0,3032.754
3032764.0,235.0,33.0,3.0,263.0,3032.764
3032774.0,230.0,33.0,3.0,260.0,3032.774
3032784.0,233.0,32.0,4.0,251.0,3032.784
3032794.0,237.0,32.0,3.0,272.0,3032.794
3032804.0,239.0,32.0,4.0,279.0,3032.804
3032814.0,242.0,33.0,4.0,279.0,3032.814
3032824.0,230.0,32.0,4.0,260.0,3032.824
3032834.0,233.0,31.0,4.0,271.0,3032.834
3032844.0,239.0,32.0,3.0,272.0,3032.844
3032854.0,243.0,31.0,4.0,285.0,3032.854
3032864.0,241.0,32.0,4.0,295.0,3032.864
3032875.0,230.0,31.0,4.0,284.0,3032.875
3032885.0,238.0,32.0,2.0,293.0,3032.885
3032895.0,245.0,32.0,4.0,284.0,3032.895
3032905.0,236.0,32.0,3.0,278.0,3032.905
3032915.0,242.0,32.0,3.0,280.0,3032.915
3032925.0,231.0,32.0,3.0,269.0,3032.925
3032935.0,240.0,32.0,4.0,274.0,3032.935
3032945.0,248.0,33.0,4.0,281.0,3032.945
3032955.0,239.0,32.0,4.0,273.0,3032.955
3032965.0,243.0,33.0,3.0,267.0,3032.965
3032975.0,230.0,32.0,3.0,255.0,3032.975
3032985.0,240.0,32.0,4.0,266.0,3032.985
3032995.0,247.0,32.0,4.0,271.0,3032.995
3033005.0,243.0,31.0,4.0,270.0,3033.005
3033015.0,243.0,32.0,4.0,266.0,3033.015
3033025.0,232.0,32.0,4.0,285.0,3033.025
3033035.0,241.0,33.0,3.0,298.0,3033.035
3033046.0,246.0,32.0,3.0,298.0,3033.046
3033056.0,236.0,32.0,3.0,285.0,3033.056
3033066.0,238.0,31.0,4.0,285.0,3033.066
3033076.0,237.0,32.0,2.0,304.0,3033.076
3033086.0,244.0,32.0,3.0,310.0,3033.086
3033096.0,247.0,33.0,3.0,307.0,3033.096
3033106.0,238.0,31.0,3.0,298.0,3033.106
3033116.0,241.0,32.0,4.0,297.0,3033.116
3033126.0,240.0,32.0,5.0,295.0,3033.126
3033136.0,240.0,31.0,4.0,297.0,3033.136
3033146.0,244.0,32.0,4.0,303.0,3033.146
3033156.0,234.0,31.0,4.0,288.0,3033.156
3033166.0,230.0,33.0,3.0,284.0,3033.166
3033176.0,226.0,32.0,4.0,278.0,3033.176
3033186.0,235.0,32.0,4.0,281.0,3033.186
3033196.0,239.0,32.0,5.0,276.0,3033.196
3033206.0,228.0,32.0,4.0,266.0,3033.206
3033216.0,235.0,32.0,5.0,269.0,3033.216
3033226.0,229.0,33.0,3.0,266.0,3033.226
3033236.0,236.0,32.0,3.0,273.0,3033.236
3033246.0,239.0,32.0,3.0,270.0,3033.246
3033256.0,229.0,32.0,4.0,264.0,3033.256
3033266.0,232.0,31.0,4.0,268.0,3033.266
3033276.0,229.0,32.0,4.0,269.0,3033.276
3033286.0,234.0,32.0,4.0,275.0,3033.286
3033296.0,235.0,33.0,3.0,264.0,3033.296
3033306.0,231.0,32.0,3.0,264.0,3033.306
3033316.0,233.0,32.0,4.0,260.0,3033.316
3033326.0,231.0,33.0,4.0,262.0,3033.326
3033336.0,233.0,33.0,3.0,269.0,3033.336
3033346.0,236.0,32.0,4.0,267.0,3033.346
3033356.0,226.0,33.0,3.0,263.0,3033.356
3033366.0,228.0,32.0,3.0,264.0,3033.366
3033376.0,228.0,32.0,4.0,269.0,3033.376
3033387.0,232.0,33.0,4.0,275.0,3033.387
3033397.0,232.0,32.0,2.0,268.0,3033.397
3033407.0,223.0,32.0,4.0,261.0,3033.407
3033417.0,227.0,33.0,3.0,265.0,3033.417
3033427.0,233.0,32.0,4.0,270.0,3033.427
3033437.0,232.0,32.0,3.0,269.0,3033.437
3033447.0,236.0,33.0,4.0,266.0,3033.447
3033457.0,225.0,32.0,4.0,258.0,3033.457
3033467.0,229.0,33.0,4.0,265.0,3033.467
3033477.0,231.0,32.0,4.0,266.0,3033.477
3033487.0,232.0,33.0,3.0,266.0,3033.487
3033497.0,231.0,32.0,4.0,261.0,3033.497
3033507.0,221.0,32.0,4.0,254.0,3033.507
3033517.0,228.0,33.0,4.0,260.0,3033.517
3033527.0,230.0,32.0,4.0,264.0,3033.527
3033537.0,230.0,32.0,3.0,264.0,3033.537
3033547.0,229.0,34.0,3.0,259.0,3033.547
3033558.0,221.0,32.0,3.0,248.0,3033.558
3033568.0,229.0,33.0,3.0,260.0,3033.568
3033578.0,235.0,32.0,4.0,261.0,3033.578
3033588.0,226.0,31.0,3.0,255.0,3033.588
3033598.0,227.0,32.0,4.0,253.0,3033.598
3033608.0,220.0,32.0,3.0,247.0,3033.608
3033618.0,227.0,32.0,3.0,257.0,3033.618
3033628.0,232.0,33.0,3.0,258.0,3033.628
3033638.0,225.0,32.0,4.0,254.0,3033.638
3033648.0,228.0,32.0,3.0,255.0,3033.648
3033658.0,219.0,32.0,4.0,249.0,3033.658
3033668.0,227.0,32.0,4.0,259.0,3033.668
3033678.0,231.0,32.0,3.0,262.0,3033.678
3033688.0,225.0,31.0,4.0,259.0,3033.688
3033698.0,225.0,32.0,3.0,256.0,3033.698
3033708.0,218.0,32.0,5.0,250.0,3033.708
3033718.0,226.0,31.0,3.0,261.0,3033.718
3033728.0,229.0,32.0,4.0,261.0,3033.728
3033738.0,224.0,32.0,3.0,259.0,3033.738
3033748.0,225.0,32.0,3.0,256.0,3033.748
3033758.0,221.0,31.0,4.0,252.0,3033.758
3033768.0,229.0,31.0,4.0,262.0,3033.768
3033778.0,230.0,32.0,4.0,260.0,3033.778
3033788.0,224.0,31.0,4.0,254.0,3033.788
3033798.0,224.0,31.0,4.0,253.0,3033.798
3033808.0,219.0,31.0,3.0,251.0,3033.808
3033818.0,224.0,31.0,4.0,259.0,3033.818
3033828.0,228.0,31.0,4.0,261.0,3033.828
3033838.0,223.0,31.0,5.0,255.0,3033.838
3033848.0,223.0,31.0,3.0,253.0,3033.848
3033858.0,217.0,31.0,5.0,245.0,3033.858
3033868.0,227.0,31.0,3.0,258.0,3033.868
3033878.0,231.0,31.0,4.0,258.0,3033.878
3033888.0,223.0,30.0,3.0,252.0,3033.888
3033899.0,224.0,31.0,4.0,251.0,3033.899
3033909.0,222.0,31.0,3.0,250.0,3033.909
3033919.0,227.0,31.0,3.0,256.0,3033.919
3033929.0,226.0,31.0,3.0,254.0,3033.929
3033939.0,219.0,31.0,3.0,245.0,3033.939
3033949.0,222.0,31.0,4.0,250.0,3033.949
3033959.0,221.0,31.0,4.0,251.0,3033.959
3033969.0,227.0,30.0,4.0,254.0,3033.969
3033979.0,224.0,31.0,4.0,251.0,3033.979
3033989.0,219.0,29.0,4.0,247.0,3033.989
3033999.0,221.0,31.0,3.0,250.0,3033.999
3034009.0,221.0,30.0,4.0,254.0,3034.009
3034019.0,223.0,31.0,3.0,257.0,3034.019
3034029.0,226.0,31.0,5.0,256.0,3034.029
3034039.0,218.0,31.0,4.0,251.0,3034.039
3034049.0,220.0,31.0,4.0,252.0,3034.049
3034059.0,222.0,32.0,3.0,256.0,3034.059
3034070.0,225.0,31.0,3.0,256.0,3034.07
3034080.0,224.0,30.0,3.0,253.0,3034.08
3034090.0,216.0,31.0,4.0,245.0,3034.09
3034100.0,221.0,31.0,3.0,251.0,3034.1
3034110.0,226.0,31.0,4.0,257.0,3034.11
3034120.0,225.0,31.0,3.0,256.0,3034.12
3034130.0,223.0,32.0,3.0,254.0,3034.13
3034140.0,216.0,30.0,4.0,244.0,3034.14
3034150.0,221.0,31.0,3.0,254.0,3034.15
3034160.0,226.0,31.0,4.0,256.0,3034.16
3034170.0,224.0,31.0,4.0,255.0,3034.17
3034180.0,224.0,31.0,4.0,252.0,3034.18
3034190.0,216.0,32.0,3.0,246.0,3034.19
3034200.0,221.0,31.0,3.0,250.0,3034.2
3034210.0,226.0,31.0,3.0,255.0,3034.21
3034220.0,224.0,31.0,5.0,254.0,3034.22
3034230.0,223.0,31.0,4.0,252.0,3034.23
3034240.0,219.0,31.0,5.0,246.0,3034.24
3034250.0,223.0,32.0,4.0,250.0,3034.25
3034260.0,227.0,32.0,3.0,257.0,3034.26
3034270.0,225.0,31.0,4.0,254.0,3034.27
3034280.0,224.0,32.0,3.0,253.0,3034.28
3034290.0,217.0,31.0,4.0,246.0,3034.29
3034300.0,220.0,32.0,2.0,253.0,3034.3
3034310.0,227.0,32.0,4.0,257.0,3034.31
3034320.0,222.0,33.0,3.0,253.0,3034.32
3034330.0,224.0,32.0,4.0,253.0,3034.33
3034340.0,216.0,32.0,3.0,243.0,3034.34
3034350.0,223.0,32.0,5.0,250.0,3034.35
3034360.0,227.0,32.0,4.0,255.0,3034.36
3034370.0,225.0,32.0,4.0,254.0,3034.37
3034380.0,224.0,32.0,4.0,253.0,3034.38
3034390.0,216.0,32.0,3.0,242.0,3034.39
3034400.0,222.0,32.0,4.0,252.0,3034.4
3034411.0,228.0,33.0,4.0,257.0,3034.411
3034421.0,223.0,31.0,4.0,250.0,3034.421
3034431.0,221.0,33.0,3.0,252.0,3034.431
3034441.0,217.0,32.0,4.0,250.0,3034.441
3034451.0,225.0,33.0,3.0,257.0,3034.451
3034461.0,227.0,32.0,4.0,256.0,3034.461
3034471.0,220.0,32.0,4.0,250.0,3034.471
3034481.0,221.0,31.0,4.0,250.0,3034.481
3034491.0,216.0,32.0,4.0,248.0,3034.491
3034501.0,221.0,32.0,3.0,253.0,3034.501
3034511.0,226.0,33.0,3.0,257.0,3034.511
3034521.0,219.0,32.0,4.0,248.0,3034.521
3034531.0,221.0,32.0,4.0,250.0,3034.531
3034541.0,215.0,32.0,5.0,245.0,3034.541
3034551.0,224.0,33.0,4.0,255.0,3034.551
3034561.0,227.0,33.0,3.0,256.0,3034.561
3034571.0,219.0,33.0,4.0,248.0,3034.571
3034582.0,220.0,33.0,3.0,250.0,3034.582
3034592.0,220.0,32.0,4.0,253.0,3034.592
3034602.0,224.0,32.0,4.0,255.0,3034.602
3034612.0,225.0,32.0,4.0,251.0,3034.612
3034622.0,215.0,32.0,4.0,243.0,3034.622
3034632.0,220.0,32.0,4.0,248.0,3034.632
3034642.0,221.0,33.0,3.0,254.0,3034.642
3034652.0,224.0,32.0,4.0,255.0,3034.652
3034662.0,224.0,33.0,3.0,252.0,3034.662
3034672.0,219.0,32.0,5.0,245.0,3034.672
3034682.0,220.0,33.0,2.0,248.0,3034.682
3034692.0,222.0,32.0,4.0,252.0,3034.692
3034702.0,226.0,33.0,3.0,254.0,3034.702
3034712.0,229.0,33.0,3.0,255.0,3034.712
3034722.0,218.0,32.0,4.0,246.0,3034.722
3034732.0,221.0,33.0,4.0,249.0,3034.732
3034742.0,225.0,33.0,4.0,255.0,3034.742
3034752.0,225.0,32.0,4.0,256.0,3034.752
3034762.0,226.0,33.0,4.0,253.0,3034.762
3034772.0,217.0,33.0,3.0,246.0,3034.772
3034782.0,220.0,32.0,4.0,249.0,3034.782
3034792.0,225.0,32.0,4.0,254.0,3034.792
3034802.0,226.0,32.0,4.0,255.0,3034.802
3034812.0,226.0,33.0,2.0,251.0,3034.812
3034822.0,217.0,32.0,4.0,244.0,3034.822
3034832.0,221.0,33.0,3.0,250.0,3034.832
3034842.0,223.0,32.0,3.0,252.0,3034.842
3034852.0,226.0,32.0,3.0,255.0,3034.852
3034862.0,226.0,33.0,4.0,252.0,3034.862
3034872.0,218.0,31.0,4.0,244.0,3034.872
3034882.0,222.0,33.0,3.0,248.0,3034.882
3034892.0,224.0,32.0,4.0,253.0,3034.892
3034902.0,226.0,33.0,3.0,255.0,3034.902
3034912.0,225.0,32.0,4.0,250.0,3034.912
3034923.0,216.0,32.0,4.0,242.0,3034.923
3034933.0,223.0,32.0,4.0,251.0,3034.933
3034943.0,227.0,33.0,4.0,256.0,3034.943
3034953.0,223.0,32.0,4.0,252.0,3034.953
3034963.0,222.0,33.0,3.0,252.0,3034.963
3034973.0,215.0,32.0,3.0,243.0,3034.973
3034983.0,220.0,32.0,3.0,253.0,3034.983
3034993.0,226.0,32.0,4.0,256.0,3034.993
3035003.0,220.0,31.0,4.0,251.0,3035.003
3035013.0,222.0,32.0,4.0,252.0,3035.013
3035023.0,214.0,32.0,4.0,244.0,3035.023
3035033.0,221.0,32.0,3.0,253.0,3035.033
3035043.0,227.0,32.0,3.0,258.0,3035.043
3035053.0,223.0,32.0,4.0,255.0,3035.053
3035063.0,223.0,31.0,3.0,253.0,3035.063
3035073.0,214.0,32.0,4.0,245.0,3035.073
3035083.0,223.0,32.0,4.0,256.0,3035.083
3035094.0,227.0,33.0,3.0,258.0,3035.094
3035104.0,221.0,30.0,4.0,250.0,3035.104
3035114.0,223.0,32.0,3.0,252.0,3035.114
3035124.0,221.0,31.0,4.0,250.0,3035.124
3035134.0,226.0,31.0,4.0,257.0,3035.134
3035144.0,227.0,32.0,3.0,257.0,3035.144
3035154.0,219.0,32.0,3.0,250.0,3035.154
3035164.0,222.0,32.0,3.0,251.0,3035.164
3035174.0,220.0,32.0,3.0,252.0,3035.174
3035184.0,224.0,32.0,5.0,256.0,3035.184
3035194.0,227.0,31.0,4.0,256.0,3035.194
3035204.0,217.0,31.0,4.0,250.0,3035.204
3035214.0,221.0,32.0,3.0,253.0,3035.214
3035224.0,215.0,31.0,3.0,248.0,3035.224
3035234.0,223.0,30.0,4.0,257.0,3035.234
3035244.0,226.0,32.0,4.0,256.0,3035.244
3035254.0,219.0,31.0,4.0,248.0,3035.254
3035264.0,221.0,31.0,4.0,251.0,3035.264
3035274.0,221.0,31.0,4.0,248.0,3035.274
3035284.0,228.0,32.0,3.0,256.0,3035.284
3035294.0,230.0,32.0,3.0,253.0,3035.294
3035304.0,220.0,31.0,4.0,246.0,3035.304
3035314.0,225.0,31.0,4.0,249.0,3035.314
3035324.0,220.0,31.0,3.0,248.0,3035.324
3035334.0,226.0,31.0,3.0,254.0,3035.334
3035344.0,228.0,32.0,3.0,253.0,3035.344
3035354.0,221.0,31.0,3.0,248.0,3035.354
3035364.0,223.0,31.0,3.0,249.0,3035.364
3035374.0,221.0,31.0,4.0,250.0,3035.374
3035384.0,227.0,31.0,4.0,255.0,3035.384
3035394.0,228.0,32.0,4.0,255.0,3035.394
3035404.0,220.0,31.0,4.0,248.0,3035.404
3035414.0,219.0,31.0,3.0,251.0,3035.414
3035424.0,219.0,30.0,4.0,251.0,3035.424
3035435.0,223.0,31.0,4.0,254.0,3035.435
3035445.0,225.0,31.0,5.0,252.0,3035.445
3035455.0,215.0,31.0,3.0,243.0,3035.455
3035465.0,218.0,31.0,4.0,249.0,3035.465
3035475.0,224.0,32.0,3.0,258.0,3035.475
3035485.0,223.0,30.0,3.0,256.0,3035.485
3035495.0,223.0,31.0,4.0,253.0,3035.495
3035505.0,215.0,31.0,5.0,244.0,3035.505
3035515.0,219.0,31.0,2.0,252.0,3035.515
3035525.0,222.0,31.0,4.0,254.0,3035.525
3035535.0,223.0,32.0,3.0,256.0,3035.535
3035545.0,223.0,32.0,3.0,253.0,3035.545
3035555.0,214.0,30.0,4.0,244.0,3035.555
3035565.0,220.0,31.0,4.0,250.0,3035.565
3035575.0,224.0,31.0,3.0,256.0,3035.575
3035585.0,224.0,31.0,3.0,254.0,3035.585
3035595.0,224.0,31.0,4.0,251.0,3035.595
3035606.0,217.0,32.0,3.0,243.0,3035.606
3035616.0,223.0,30.0,4.0,251.0,3035.616
3035626.0,229.0,31.0,4.0,256.0,3035.626
3035636.0,225.0,30.0,5.0,249.0,3035.636
3035646.0,223.0,31.0,2.0,251.0,3035.646
3035656.0,216.0,31.0,3.0,243.0,3035.656
3035666.0,223.0,32.0,4.0,253.0,3035.666
3035676.0,227.0,32.0,3.0,257.0,3035.676
3035686.0,222.0,31.0,4.0,250.0,3035.686
3035696.0,223.0,32.0,4.0,251.0,3035.696
3035706.0,216.0,30.0,4.0,243.0,3035.706
3035716.0,223.0,31.0,3.0,253.0,3035.716
3035726.0,227.0,32.0,4.0,257.0,3035.726
3035736.0,224.0,31.0,3.0,252.0,3035.736
3035746.0,223.0,30.0,4.0,250.0,3035.746
3035756.0,216.0,30.0,3.0,243.0,3035.756
3035766.0,225.0,31.0,4.0,255.0,3035.766
3035776.0,227.0,31.0,3.0,256.0,3035.776
3035786.0,222.0,31.0,4.0,251.0,3035.786
3035796.0,221.0,32.0,3.0,250.0,3035.796
3035806.0,215.0,30.0,4.0,243.0,3035.806
3035816.0,224.0,30.0,3.0,255.0,3035.816
3035826.0,227.0,31.0,4.0,257.0,3035.826
3035836.0,222.0,30.0,4.0,251.0,3035.836
3035846.0,224.0,30.0,3.0,251.0,3035.846
3035856.0,217.0,31.0,4.0,247.0,3035.856
3035866.0,223.0,31.0,3.0,253.0,3035.866
3035876.0,228.0,30.0,4.0,256.0,3035.876
3035886.0,221.0,31.0,4.0,249.0,3035.886
3035896.0,223.0,31.0,4.0,248.0,3035.896
3035906.0,214.0,31.0,4.0,240.0,3035.906
3035916.0,223.0,29.0,4.0,250.0,3035.916
3035926.0,227.0,32.0,3.0,255.0,3035.926
3035936.0,221.0,30.0,4.0,246.0,3035.936
3035947.0,221.0,31.0,3.0,247.0,3035.947
3035957.0,219.0,31.0,5.0,247.0,3035.957
3035967.0,225.0,31.0,4.0,253.0,3035.967
3035977.0,225.0,31.0,3.0,252.0,3035.977
3035987.0,217.0,31.0,3.0,244.0,3035.987
3035997.0,221.0,31.0,3.0,248.0,3035.997
3036007.0,220.0,30.0,4.0,249.0,3036.007
3036017.0,225.0,31.0,4.0,254.0,3036.017
3036027.0,226.0,31.0,4.0,251.0,3036.027
3036037.0,218.0,31.0,4.0,247.0,3036.037
3036047.0,221.0,31.0,4.0,249.0,3036.047
3036057.0,221.0,33.0,3.0,253.0,3036.057
3036067.0,224.0,32.0,4.0,256.0,3036.067
3036077.0,227.0,32.0,3.0,257.0,3036.077
3036087.0,218.0,31.0,4.0,249.0,3036.087
3036097.0,221.0,31.0,3.0,252.0,3036.097
3036107.0,222.0,32.0,4.0,254.0,3036.107
3036118.0,224.0,32.0,3.0,256.0,3036.118
3036128.0,225.0,31.0,3.0,253.0,3036.128
3036138.0,215.0,31.0,4.0,243.0,3036.138
3036148.0,221.0,31.0,5.0,250.0,3036.148
3036158.0,226.0,31.0,4.0,255.0,3036.158
3036168.0,224.0,32.0,3.0,252.0,3036.168
3036178.0,225.0,32.0,4.0,251.0,3036.178
3036188.0,215.0,32.0,3.0,242.0,3036.188
3036198.0,221.0,32.0,4.0,251.0,3036.198
3036208.0,225.0,32.0,3.0,255.0,3036.208
3036218.0,224.0,31.0,5.0,254.0,3036.218
3036228.0,224.0,32.0,4.0,251.0,3036.228
3036238.0,215.0,31.0,3.0,242.0,3036.238
3036248.0,221.0,32.0,3.0,250.0,3036.248
3036258.0,225.0,32.0,4.0,254.0,3036.258
3036268.0,223.0,31.0,3.0,252.0,3036.268
3036278.0,224.0,32.0,5.0,251.0,3036.278
3036288.0,216.0,32.0,4.0,244.0,3036.288
3036298.0,220.0,32.0,4.0,250.0,3036.298
3036308.0,230.0,32.0,4.0,258.0,3036.308
3036318.0,225.0,32.0,3.0,253.0,3036.318
3036328.0,226.0,32.0,4.0,251.0,3036.328
3036338.0,218.0,32.0,3.0,243.0,3036.338
3036348.0,223.0,31.0,4.0,250.0,3036.348
3036358.0,228.0,32.0,4.0,257.0,3036.358
3036368.0,223.0,31.0,4.0,252.0,3036.368
3036378.0,226.0,33.0,3.0,252.0,3036.378
3036388.0,215.0,32.0,4.0,241.0,3036.388
3036398.0,221.0,32.0,4.0,250.0,3036.398
3036408.0,228.0,32.0,3.0,256.0,3036.408
3036418.0,223.0,32.0,3.0,252.0,3036.418
3036428.0,224.0,32.0,4.0,249.0,3036.428
3036438.0,215.0,33.0,3.0,242.0,3036.438
3036448.0,221.0,32.0,3.0,250.0,3036.448
3036459.0,228.0,32.0,3.0,255.0,3036.459
3036469.0,222.0,32.0,4.0,248.0,3036.469
3036479.0,224.0,31.0,4.0,248.0,3036.479
3036489.0,218.0,32.0,3.0,245.0,3036.489
3036499.0,225.0,32.0,3.0,255.0,3036.499
3036509.0,228.0,32.0,4.0,255.0,3036.509
3036519.0,222.0,32.0,3.0,249.0,3036.519
3036529.0,223.0,32.0,3.0,250.0,3036.529
3036539.0,221.0,33.0,4.0,249.0,3036.539
3036549.0,224.0,32.0,4.0,252.0,3036.549
3036559.0,230.0,32.0,4.0,254.0,3036.559
3036569.0,222.0,33.0,3.0,248.0,3036.569
3036579.0,223.0,32.0,4.0,249.0,3036.579
3036589.0,216.0,32.0,4.0,243.0,3036.589
3036599.0,224.0,32.0,4.0,255.0,3036.599
3036609.0,229.0,33.0,4.0,255.0,3036.609
3036619.0,221.0,32.0,4.0,247.0,3036.619
3036630.0,222.0,34.0,3.0,251.0,3036.63
3036640.0,222.0,33.0,3.0,251.0,3036.64
3036650.0,224.0,32.0,4.0,255.0,3036.65
3036660.0,225.0,33.0,4.0,253.0,3036.66
3036670.0,216.0,31.0,4.0,245.0,3036.67
3036680.0,220.0,33.0,3.0,250.0,3036.68
3036690.0,221.0,32.0,4.0,254.0,3036.69
3036700.0,224.0,33.0,3.0,255.0,3036.7
3036710.0,223.0,32.0,4.0,252.0,3036.71
3036720.0,217.0,33.0,3.0,246.0,3036.72
3036730.0,221.0,32.0,5.0,248.0,3036.73
3036740.0,222.0,34.0,4.0,252.0,3036.74
3036750.0,224.0,33.0,4.0,253.0,3036.75
3036760.0,226.0,33.0,3.0,255.0,3036.76
3036770.0,218.0,32.0,3.0,244.0,3036.77
3036780.0,220.0,33.0,4.0,246.0,3036.78
3036790.0,224.0,33.0,4.0,252.0,3036.79
3036800.0,225.0,33.0,4.0,253.0,3036.8
3036810.0,226.0,33.0,4.0,250.0,3036.81
3036820.0,217.0,33.0,4.0,242.0,3036.82
3036830.0,220.0,33.0,3.0,247.0,3036.83
3036840.0,225.0,34.0,4.0,253.0,3036.84
3036850.0,225.0,34.0,3.0,254.0,3036.85
3036860.0,224.0,34.0,5.0,251.0,3036.86
3036870.0,214.0,32.0,4.0,242.0,3036.87
3036880.0,218.0,33.0,3.0,246.0,3036.88
3036890.0,219.0,33.0,4.0,250.0,3036.89
3036900.0,223.0,32.0,4.0,253.0,3036.9
3036910.0,223.0,33.0,4.0,250.0,3036.91
3036920.0,215.0,33.0,4.0,241.0,3036.92
3036930.0,220.0,33.0,3.0,248.0,3036.93
3036940.0,221.0,33.0,4.0,252.0,3036.94
3036950.0,224.0,34.0,4.0,252.0,3036.95
3036960.0,223.0,34.0,3.0,251.0,3036.96
3036971.0,215.0,32.0,4.0,242.0,3036.971
3036981.0,220.0,33.0,4.0,250.0,3036.981
3036991.0,226.0,33.0,4.0,255.0,3036.991
3037001.0,221.0,34.0,3.0,251.0,3037.001
3037011.0,224.0,33.0,4.0,251.0,3037.011
3037021.0,216.0,35.0,3.0,243.0,3037.021
3037031.0,221.0,34.0,4.0,252.0,3037.031
3037041.0,227.0,34.0,3.0,257.0,3037.041
3037051.0,223.0,33.0,4.0,251.0,3037.051
3037061.0,224.0,34.0,3.0,252.0,3037.061
3037071.0,216.0,33.0,3.0,244.0,3037.071
3037081.0,223.0,34.0,3.0,254.0,3037.081
3037091.0,227.0,34.0,3.0,256.0,3037.091
3037101.0,224.0,32.0,4.0,254.0,3037.101
3037111.0,223.0,33.0,4.0,252.0,3037.111
3037121.0,215.0,33.0,4.0,243.0,3037.121
3037131.0,224.0,34.0,4.0,255.0,3037.131
3037142.0,228.0,34.0,3.0,257.0,3037.142
3037152.0,221.0,34.0,3.0,251.0,3037.152
3037162.0,224.0,34.0,3.0,251.0,3037.162
3037172.0,221.0,34.0,3.0,250.0,3037.172
3037182.0,229.0,33.0,4.0,257.0,3037.182
3037192.0,230.0,34.0,2.0,257.0,3037.192
3037202.0,222.0,33.0,4.0,248.0,3037.202
3037212.0,223.0,35.0,3.0,250.0,3037.212
3037222.0,222.0,34.0,4.0,250.0,3037.222
3037232.0,228.0,33.0,3.0,257.0,3037.232
3037242.0,230.0,33.0,4.0,255.0,3037.242
3037252.0,222.0,33.0,3.0,248.0,3037.252
3037262.0,222.0,33.0,4.0,249.0,3037.262
3037272.0,217.0,33.0,4.0,247.0,3037.272
3037282.0,227.0,33.0,3.0,257.0,3037.282
3037292.0,229.0,34.0,3.0,255.0,3037.292
3037302.0,223.0,33.0,4.0,247.0,3037.302
3037312.0,227.0,34.0,4.0,250.0,3037.312
3037322.0,221.0,33.0,3.0,247.0,3037.322
3037332.0,230.0,33.0,3.0,256.0,3037.332
3037342.0,231.0,34.0,3.0,253.0,3037.342
3037352.0,223.0,33.0,4.0,245.0,3037.352
3037362.0,225.0,34.0,3.0,249.0,3037.362
3037372.0,222.0,34.0,4.0,248.0,3037.372
3037382.0,229.0,33.0,4.0,256.0,3037.382
3037392.0,229.0,33.0,4.0,253.0,3037.392
3037402.0,223.0,33.0,3.0,249.0,3037.402
3037412.0,223.0,34.0,3.0,250.0,3037.412
3037422.0,221.0,34.0,4.0,250.0,3037.422
3037432.0,228.0,34.0,4.0,258.0,3037.432
3037442.0,229.0,34.0,4.0,257.0,3037.442
3037452.0,223.0,33.0,3.0,250.0,3037.452
3037462.0,226.0,34.0,3.0,250.0,3037.462
3037472.0,223.0,33.0,3.0,254.0,3037.472
3037483.0,229.0,32.0,4.0,258.0,3037.483
3037493.0,227.0,33.0,4.0,255.0,3037.493
3037503.0,220.0,32.0,4.0,247.0,3037.503
3037513.0,222.0,34.0,2.0,251.0,3037.513
3037523.0,227.0,32.0,3.0,256.0,3037.523
3037533.0,227.0,34.0,3.0,257.0,3037.533
3037543.0,226.0,33.0,4.0,252.0,3037.543
3037553.0,218.0,32.0,3.0,244.0,3037.553
3037563.0,223.0,32.0,5.0,251.0,3037.563
3037573.0,224.0,33.0,4.0,253.0,3037.573
3037583.0,226.0,32.0,4.0,255.0,3037.583
3037593.0,224.0,33.0,4.0,253.0,3037.593
3037603.0,217.0,32.0,3.0,245.0,3037.603
3037613.0,221.0,32.0,4.0,250.0,3037.613
3037623.0,224.0,33.0,3.0,255.0,3037.623
3037633.0,227.0,32.0,4.0,255.0,3037.633
3037643.0,224.0,33.0,2.0,252.0,3037.643
3037654.0,217.0,32.0,4.0,244.0,3037.654
3037664.0,223.0,33.0,3.0,254.0,3037.664
3037674.0,228.0,32.0,3.0,257.0,3037.674
3037684.0,223.0,32.0,3.0,252.0,3037.684
3037694.0,224.0,32.0,4.0,251.0,3037.694
3037704.0,217.0,31.0,4.0,244.0,3037.704
3037714.0,225.0,32.0,4.0,256.0,3037.714
3037724.0,228.0,33.0,3.0,260.0,3037.724
3037734.0,224.0,32.0,3.0,252.0,3037.734
3037744.0,228.0,32.0,4.0,253.0,3037.744
3037754.0,220.0,32.0,4.0,246.0,3037.754
3037764.0,228.0,31.0,3.0,257.0,3037.764
3037774.0,230.0,32.0,3.0,257.0,3037.774
3037784.0,225.0,32.0,4.0,254.0,3037.784
3037794.0,225.0,32.0,3.0,252.0,3037.794
3037804.0,217.0,32.0,4.0,244.0,3037.804
3037814.0,227.0,31.0,4.0,257.0,3037.814
3037824.0,228.0,32.0,3.0,257.0,3037.824
3037834.0,224.0,32.0,3.0,252.0,3037.834
3037844.0,224.0,32.0,3.0,251.0,3037.844
3037854.0,217.0,33.0,3.0,246.0,3037.854
3037864.0,222.0,32.0,4.0,254.0,3037.864
3037874.0,225.0,32.0,4.0,257.0,3037.874
3037884.0,221.0,32.0,5.0,251.0,3037.884
3037894.0,222.0,31.0,4.0,251.0,3037.894
3037904.0,216.0,32.0,3.0,248.0,3037.904
3037914.0,222.0,32.0,3.0,254.0,3037.914
3037924.0,227.0,33.0,3.0,257.0,3037.924
3037934.0,222.0,32.0,4.0,250.0,3037.934
3037944.0,222.0,32.0,4.0,250.0,3037.944
3037954.0,216.0,31.0,5.0,243.0,3037.954
3037964.0,224.0,32.0,2.0,255.0,3037.964
3037974.0,228.0,32.0,3.0,258.0,3037.974
3037984.0,224.0,33.0,3.0,251.0,3037.984
3037995.0,226.0,32.0,3.0,252.0,3037.995
3038005.0,223.0,32.0,4.0,250.0,3038.005
3038015.0,230.0,32.0,5.0,256.0,3038.015
3038025.0,230.0,33.0,2.0,253.0,3038.025
3038035.0,221.0,32.0,4.0,245.0,3038.035
3038045.0,225.0,32.0,4.0,251.0,3038.045
3038055.0,223.0,32.0,3.0,251.0,3038.055
3038065.0,228.0,32.0,4.0,257.0,3038.065
3038075.0,228.0,33.0,4.0,253.0,3038.075
3038085.0,223.0,31.0,4.0,249.0,3038.085
3038095.0,223.0,32.0,3.0,251.0,3038.095
3038105.0,223.0,32.0,4.0,253.0,3038.105
3038115.0,227.0,33.0,3.0,257.0,3038.115
3038125.0,228.0,32.0,3.0,256.0,3038.125
3038135.0,221.0,32.0,3.0,249.0,3038.135
3038145.0,223.0,33.0,4.0,251.0,3038.145
3038155.0,224.0,32.0,4.0,255.0,3038.155
3038166.0,227.0,33.0,3.0,256.0,3038.166
3038176.0,226.0,33.0,3.0,254.0,3038.176
3038186.0,219.0,32.0,3.0,246.0,3038.186
3038196.0,224.0,32.0,3.0,253.0,3038.196
3038206.0,229.0,32.0,5.0,258.0,3038.206
3038216.0,228.0,31.0,4.0,255.0,3038.216
3038226.0,227.0,33.0,4.0,252.0,3038.226
3038236.0,219.0,32.0,4.0,245.0,3038.236
3038246.0,224.0,32.0,3.0,253.0,3038.246
3038256.0,226.0,32.0,4.0,256.0,3038.256
3038266.0,227.0,32.0,4.0,256.0,3038.266
3038276.0,226.0,33.0,4.0,251.0,3038.276
3038286.0,217.0,32.0,3.0,243.0,3038.286
3038296.0,222.0,32.0,4.0,249.0,3038.296
3038306.0,226.0,34.0,3.0,255.0,3038.306
3038316.0,226.0,32.0,4.0,253.0,3038.316
3038326.0,225.0,33.0,3.0,250.0,3038.326
3038336.0,219.0,32.0,4.0,244.0,3038.336
3038346.0,222.0,33.0,4.0,249.0,3038.346
3038356.0,228.0,33.0,3.0,254.0,3038.356
3038366.0,228.0,34.0,3.0,253.0,3038.366
3038376.0,226.0,33.0,3.0,250.0,3038.376
3038386.0,220.0,32.0,4.0,244.0,3038.386
3038396.0,224.0,33.0,4.0,251.0,3038.396
3038406.0,230.0,33.0,4.0,257.0,3038.406
3038416.0,226.0,33.0,2.0,255.0,3038.416
3038426.0,226.0,33.0,4.0,254.0,3038.426
3038436.0,219.0,33.0,3.0,247.0,3038.436
3038446.0,223.0,32.0,3.0,253.0,3038.446
3038456.0,229.0,33.0,4.0,257.0,3038.456
3038466.0,229.0,33.0,4.0,255.0,3038.466
3038476.0,226.0,33.0,3.0,252.0,3038.476
3038486.0,219.0,33.0,3.0,243.0,3038.486
3038496.0,225.0,33.0,3.0,254.0,3038.496
3038507.0,229.0,32.0,3.0,256.0,3038.507
3038517.0,225.0,32.0,3.0,252.0,3038.517
3038527.0,225.0,32.0,4.0,252.0,3038.527
3038537.0,220.0,33.0,4.0,249.0,3038.537
3038547.0,230.0,33.0,4.0,257.0,3038.547
3038557.0,231.0,33.0,3.0,260.0,3038.557
3038567.0,226.0,33.0,3.0,252.0,3038.567
3038577.0,226.0,32.0,4.0,253.0,3038.577
3038587.0,221.0,32.0,4.0,251.0,3038.587
3038597.0,227.0,32.0,5.0,257.0,3038.597
3038607.0,229.0,32.0,3.0,258.0,3038.607
3038617.0,224.0,32.0,4.0,252.0,3038.617
3038627.0,223.0,33.0,3.0,253.0,3038.627
3038637.0,218.0,32.0,4.0,246.0,3038.637
3038647.0,225.0,32.0,3.0,256.0,3038.647
3038657.0,230.0,32.0,5.0,257.0,3038.657
3038667.0,223.0,32.0,4.0,251.0,3038.667
3038678.0,224.0,32.0,3.0,251.0,3038.678
3038688.0,223.0,33.0,3.0,253.0,3038.688
3038698.0,229.0,32.0,3.0,256.0,3038.698
3038708.0,228.0,32.0,3.0,252.0,3038.708
3038718.0,220.0,32.0,4.0,243.0,3038.718
3038728.0,224.0,31.0,4.0,247.0,3038.728
3038738.0,224.0,32.0,4.0,250.0,3038.738
3038748.0,228.0,32.0,4.0,254.0,3038.748
3038758.0,226.0,33.0,3.0,250.0,3038.758
3038768.0,221.0,32.0,4.0,246.0,3038.768
3038778.0,222.0,32.0,4.0,250.0,3038.778
3038788.0,225.0,32.0,4.0,253.0,3038.788
3038798.0,225.0,32.0,3.0,254.0,3038.798
3038808.0,226.0,33.0,4.0,253.0,3038.808
3038818.0,220.0,32.0,3.0,246.0,3038.818
3038828.0,222.0,32.0,4.0,249.0,3038.828
3038838.0,225.0,32.0,3.0,253.0,3038.838
3038848.0,228.0,32.0,4.0,255.0,3038.848
3038858.0,227.0,31.0,4.0,253.0,3038.858
3038868.0,219.0,31.0,4.0,244.0,3038.868
3038878.0,220.0,32.0,4.0,247.0,3038.878
3038888.0,225.0,32.0,3.0,252.0,3038.888
3038898.0,226.0,32.0,4.0,254.0,3038.898
3038908.0,227.0,32.0,3.0,252.0,3038.908
3038918.0,219.0,31.0,5.0,243.0,3038.918
3038928.0,221.0,31.0,3.0,246.0,3038.928
3038938.0,222.0,32.0,4.0,248.0,3038.938
3038948.0,226.0,32.0,3.0,252.0,3038.948
3038958.0,225.0,32.0,3.0,249.0,3038.958
3038968.0,218.0,31.0,3.0,240.0,3038.968
3038978.0,222.0,32.0,5.0,245.0,3038.978
3038988.0,224.0,31.0,4.0,250.0,3038.988
3038998.0,226.0,32.0,3.0,251.0,3038.998
3039008.0,225.0,32.0,4.0,249.0,3039.008
3039019.0,217.0,32.0,3.0,240.0,3039.019
3039029.0,222.0,31.0,4.0,248.0,3039.029
3039039.0,228.0,32.0,4.0,254.0,3039.039
3039049.0,225.0,31.0,4.0,249.0,3039.049
3039059.0,223.0,33.0,3.0,249.0,3039.059
3039069.0,216.0,32.0,3.0,242.0,3039.069
3039079.0,222.0,33.0,3.0,250.0,3039.079
3039089.0,227.0,31.0,3.0,254.0,3039.089
3039099.0,223.0,31.0,4.0,250.0,3039.099
3039109.0,224.0,32.0,5.0,250.0,3039.109
3039119.0,216.0,31.0,2.0,241.0,3039.119
3039129.0,223.0,32.0,4.0,251.0,3039.129
3039139.0,227.0,33.0,3.0,255.0,3039.139
3039149.0,225.0,31.0,4.0,251.0,3039.149
3039159.0,223.0,32.0,4.0,248.0,3039.159
3039169.0,216.0,32.0,5.0,240.0,3039.169
3039179.0,224.0,31.0,4.0,251.0,3039.179
3039190.0,226.0,32.0,3.0,252.0,3039.19
3039200.0,221.0,31.0,4.0,246.0,3039.2
3039210.0,221.0,32.0,3.0,245.0,3039.21
3039220.0,219.0,32.0,4.0,245.0,3039.22
3039230.0,225.0,32.0,4.0,253.0,3039.23
3039240.0,226.0,32.0,5.0,251.0,3039.24
3039250.0,220.0,31.0,4.0,245.0,3039.25
3039260.0,221.0,31.0,4.0,245.0,3039.26
3039270.0,219.0,33.0,3.0,247.0,3039.27
3039280.0,223.0,32.0,4.0,250.0,3039.28
3039290.0,225.0,32.0,3.0,250.0,3039.29
3039300.0,220.0,31.0,5.0,243.0,3039.3
3039310.0,220.0,31.0,2.0,244.0,3039.31
3039320.0,215.0,31.0,4.0,240.0,3039.32
3039330.0,223.0,32.0,3.0,251.0,3039.33
3039340.0,225.0,32.0,4.0,250.0,3039.34
3039350.0,218.0,30.0,4.0,241.0,3039.35
3039360.0,220.0,31.0,3.0,245.0,3039.36
3039370.0,216.0,31.0,4.0,243.0,3039.37
3039380.0,224.0,31.0,4.0,251.0,3039.38
3039390.0,225.0,32.0,4.0,249.0,3039.39
3039400.0,217.0,32.0,3.0,242.0,3039.4
