time (ms),signal 0,signal 1,signal 2,signal 3,time (sec)
3088114.0,219.0,32.0,3.0,244.0,3088.114
3088124.0,223.0,32.0,3.0,246.0,3088.124
3088134.0,224.0,33.0,4.0,248.0,3088.134
3088144.0,215.0,32.0,3.0,239.0,3088.144
3088154.0,218.0,32.0,3.0,243.0,3088.154
3088164.0,222.0,33.0,3.0,249.0,3088.164
3088174.0,223.0,32.0,3.0,249.0,3088.174
3088184.0,223.0,33.0,4.0,247.0,3088.184
3088194.0,218.0,32.0,4.0,240.0,3088.194
3088204.0,219.0,32.0,4.0,242.0,3088.204
3088214.0,218.0,32.0,5.0,241.0,3088.214
3088224.0,224.0,33.0,3.0,245.0,3088.224
3088234.0,223.0,33.0,3.0,242.0,3088.234
3088244.0,216.0,32.0,4.0,234.0,3088.244
3088254.0,219.0,32.0,5.0,239.0,3088.254
3088264.0,220.0,33.0,3.0,251.0,3088.264
3088274.0,225.0,32.0,3.0,255.0,3088.274
3088284.0,224.0,33.0,4.0,255.0,3088.284
3088294.0,217.0,33.0,3.0,244.0,3088.294
3088304.0,221.0,33.0,4.0,250.0,3088.304
3088314.0,221.0,33.0,4.0,253.0,3088.314
3088324.0,226.0,32.0,4.0,255.0,3088.324
3088334.0,224.0,33.0,4.0,253.0,3088.334
3088344.0,221.0,33.0,4.0,248.0,3088.344
3088354.0,222.0,34.0,3.0,253.0,3088.354
3088364.0,223.0,32.0,3.0,256.0,3088.364
3088374.0,225.0,32.0,4.0,256.0,3088.374
3088384.0,228.0,33.0,3.0,258.0,3088.384
3088394.0,221.0,31.0,4.0,246.0,3088.394
3088404.0,222.0,33.0,4.0,249.0,3088.404
3088414.0,225.0,33.0,3.0,255.0,3088.414
3088424.0,227.0,32.0,3.0,255.0,3088.424
3088434.0,229.0,33.0,4.0,257.0,3088.434
3088444.0,221.0,33.0,4.0,248.0,3088.444
3088454.0,225.0,31.0,4.0,251.0,3088.454
3088464.0,228.0,33.0,4.0,257.0,3088.464
3088474.0,229.0,32.0,4.0,256.0,3088.474
3088484.0,228.0,33.0,3.0,257.0,3088.484
3088494.0,222.0,32.0,3.0,249.0,3088.494
3088504.0,224.0,33.0,3.0,254.0,3088.504
3088514.0,224.0,32.0,3.0,255.0,3088.514
3088524.0,230.0,32.0,4.0,259.0,3088.524
3088534.0,229.0,32.0,4.0,256.0,3088.534
3088544.0,222.0,33.0,3.0,248.0,3088.544
3088555.0,225.0,32.0,4.0,254.0,3088.555
3088565.0,229.0,33.0,4.0,258.0,3088.565
3088575.0,228.0,32.0,5.0,253.0,3088.575
3088585.0,227.0,32.0,4.0,251.0,3088.585
3088595.0,218.0,32.0,4.0,243.0,3088.595
3088605.0,223.0,31.0,3.0,250.0,3088.605
3088615.0,229.0,33.0,3.0,256.0,3088.615
3088625.0,226.0,32.0,3.0,254.0,3088.625
3088635.0,225.0,33.0,4.0,253.0,3088.635
3088645.0,221.0,32.0,4.0,247.0,3088.645
3088655.0,224.0,33.0,2.0,255.0,3088.655
3088665.0,230.0,33.0,3.0,260.0,3088.665
3088675.0,227.0,33.0,3.0,256.0,3088.675
3088685.0,227.0,33.0,3.0,257.0,3088.685
3088695.0,219.0,33.0,3.0,247.0,3088.695
3088705.0,226.0,33.0,4.0,257.0,3088.705
3088715.0,230.0,33.0,4.0,261.0,3088.715
3088726.0,225.0,32.0,4.0,256.0,3088.726
3088736.0,225.0,33.0,3.0,257.0,3088.736
3088746.0,220.0,32.0,3.0,252.0,3088.746
3088756.0,229.0,32.0,3.0,262.0,3088.756
3088766.0,230.0,33.0,4.0,261.0,3088.766
3088776.0,225.0,32.0,3.0,254.0,3088.776
3088786.0,225.0,32.0,3.0,255.0,3088.786
3088796.0,221.0,32.0,4.0,252.0,3088.796
3088806.0,229.0,33.0,3.0,260.0,3088.806
3088816.0,231.0,32.0,4.0,260.0,3088.816
3088826.0,225.0,32.0,4.0,252.0,3088.826
3088836.0,226.0,33.0,4.0,253.0,3088.836
3088846.0,222.0,32.0,3.0,252.0,3088.846
3088856.0,228.0,32.0,4.0,257.0,3088.856
3088866.0,230.0,33.0,3.0,261.0,3088.866
3088876.0,223.0,32.0,3.0,252.0,3088.876
3088886.0,224.0,32.0,3.0,251.0,3088.886
3088896.0,218.0,32.0,3.0,246.0,3088.896
3088906.0,226.0,31.0,2.0,255.0,3088.906
3088916.0,229.0,32.0,4.0,255.0,3088.916
3088926.0,222.0,33.0,3.0,248.0,3088.926
3088936.0,224.0,32.0,3.0,250.0,3088.936
3088946.0,218.0,32.0,3.0,248.0,3088.946
3088956.0,226.0,32.0,4.0,257.0,3088.956
3088966.0,231.0,31.0,4.0,258.0,3088.966
3088976.0,222.0,32.0,3.0,252.0,3088.976
3088986.0,227.0,31.0,4.0,256.0,3088.986
3088996.0,221.0,33.0,3.0,252.0,3088.996
3089006.0,228.0,32.0,4.0,261.0,3089.006
3089016.0,230.0,31.0,4.0,261.0,3089.016
3089026.0,223.0,32.0,4.0,258.0,3089.026
3089036.0,224.0,31.0,3.0,259.0,3089.036
3089046.0,220.0,32.0,4.0,255.0,3089.046
3089056.0,227.0,32.0,3.0,264.0,3089.056
3089067.0,227.0,32.0,4.0,262.0,3089.067
3089077.0,220.0,32.0,4.0,253.0,3089.077
3089087.0,224.0,32.0,4.0,257.0,3089.087
3089097.0,227.0,31.0,4.0,270.0,3089.097
3089107.0,227.0,32.0,4.0,271.0,3089.107
3089117.0,229.0,33.0,4.0,270.0,3089.117
3089127.0,219.0,33.0,3.0,262.0,3089.127
3089137.0,224.0,32.0,4.0,267.0,3089.137
3089147.0,228.0,33.0,4.0,281.0,3089.147
3089157.0,226.0,32.0,3.0,279.0,3089.157
3089167.0,228.0,33.0,4.0,275.0,3089.167
3089177.0,222.0,32.0,4.0,264.0,3089.177
3089187.0,224.0,33.0,3.0,270.0,3089.187
3089197.0,225.0,32.0,3.0,270.0,3089.197
3089207.0,229.0,32.0,3.0,272.0,3089.207
3089217.0,228.0,32.0,4.0,261.0,3089.217
3089227.0,230.0,31.0,3.0,262.0,3089.227
3089238.0,228.0,32.0,3.0,262.0,3089.238
3089248.0,236.0,33.0,3.0,270.0,3089.248
3089258.0,235.0,32.0,3.0,270.0,3089.258
3089268.0,237.0,32.0,4.0,277.0,3089.268
3089278.0,228.0,32.0,4.0,267.0,3089.278
3089288.0,229.0,31.0,4.0,271.0,3089.288
3089298.0,240.0,32.0,4.0,275.0,3089.298
3089308.0,250.0,31.0,3.0,275.0,3089.308
3089318.0,256.0,32.0,3.0,277.0,3089.318
3089328.0,247.0,32.0,3.0,273.0,3089.328
3089338.0,251.0,31.0,3.0,289.0,3089.338
3089348.0,247.0,31.0,5.0,281.0,3089.348
3089358.0,242.0,31.0,4.0,273.0,3089.358
3089368.0,256.0,32.0,3.0,271.0,3089.368
3089378.0,254.0,32.0,3.0,270.0,3089.378
3089388.0,253.0,31.0,3.0,283.0,3089.388
3089398.0,248.0,32.0,3.0,284.0,3089.398
3089408.0,247.0,31.0,3.0,275.0,3089.408
3089418.0,247.0,31.0,4.0,282.0,3089.418
3089428.0,244.0,32.0,3.0,264.0,3089.428
3089438.0,253.0,32.0,4.0,275.0,3089.438
3089448.0,254.0,33.0,3.0,277.0,3089.448
3089458.0,250.0,31.0,4.0,276.0,3089.458
3089468.0,238.0,32.0,3.0,274.0,3089.468
3089478.0,229.0,31.0,3.0,265.0,3089.478
3089488.0,230.0,31.0,4.0,273.0,3089.488
3089498.0,236.0,31.0,5.0,285.0,3089.498
3089508.0,238.0,32.0,3.0,269.0,3089.508
3089518.0,238.0,32.0,3.0,272.0,3089.518
3089528.0,233.0,31.0,3.0,278.0,3089.528
3089538.0,239.0,32.0,5.0,264.0,3089.538
3089548.0,244.0,31.0,4.0,278.0,3089.548
3089558.0,237.0,31.0,3.0,275.0,3089.558
3089568.0,233.0,32.0,3.0,285.0,3089.568
3089579.0,224.0,32.0,3.0,278.0,3089.579
3089589.0,239.0,30.0,4.0,289.0,3089.589
3089599.0,248.0,32.0,4.0,290.0,3089.599
3089609.0,246.0,31.0,4.0,294.0,3089.609
3089619.0,248.0,31.0,2.0,291.0,3089.619
3089629.0,243.0,31.0,4.0,291.0,3089.629
3089639.0,250.0,33.0,3.0,314.0,3089.639
3089649.0,248.0,32.0,4.0,321.0,3089.649
3089659.0,238.0,32.0,3.0,311.0,3089.659
3089669.0,242.0,32.0,4.0,310.0,3089.669
3089679.0,234.0,32.0,4.0,295.0,3089.679
3089689.0,247.0,32.0,3.0,293.0,3089.689
3089699.0,253.0,33.0,3.0,285.0,3089.699
3089709.0,245.0,32.0,3.0,267.0,3089.709
3089719.0,245.0,31.0,4.0,268.0,3089.719
3089729.0,239.0,32.0,4.0,256.0,3089.729
3089739.0,247.0,31.0,4.0,257.0,3089.739
3089750.0,251.0,32.0,3.0,280.0,3089.75
3089760.0,241.0,32.0,4.0,264.0,3089.76
3089770.0,241.0,32.0,3.0,259.0,3089.77
3089780.0,242.0,32.0,4.0,263.0,3089.78
3089790.0,242.0,32.0,4.0,261.0,3089.79
3089800.0,245.0,32.0,3.0,272.0,3089.8
3089810.0,238.0,32.0,4.0,261.0,3089.81
3089820.0,247.0,31.0,4.0,275.0,3089.82
3089830.0,249.0,33.0,3.0,280.0,3089.83
3089840.0,247.0,31.0,4.0,276.0,3089.84
3089850.0,245.0,32.0,4.0,274.0,3089.85
3089860.0,234.0,32.0,4.0,257.0,3089.86
3089870.0,237.0,31.0,4.0,255.0,3089.87
3089880.0,238.0,33.0,3.0,257.0,3089.88
3089890.0,238.0,32.0,3.0,273.0,3089.89
3089900.0,240.0,32.0,3.0,269.0,3089.9
3089910.0,234.0,31.0,3.0,266.0,3089.91
3089920.0,240.0,32.0,3.0,280.0,3089.92
3089930.0,243.0,31.0,5.0,282.0,3089.93
3089940.0,243.0,32.0,4.0,278.0,3089.94
3089950.0,240.0,32.0,3.0,276.0,3089.95
3089960.0,239.0,33.0,3.0,266.0,3089.96
3089970.0,242.0,32.0,3.0,276.0,3089.97
3089980.0,247.0,32.0,4.0,282.0,3089.98
3089990.0,247.0,31.0,5.0,274.0,3089.99
3090000.0,244.0,31.0,4.0,277.0,3090.0
3090010.0,238.0,31.0,4.0,280.0,3090.01
3090020.0,240.0,32.0,3.0,292.0,3090.02
3090030.0,241.0,32.0,4.0,284.0,3090.03
3090040.0,241.0,32.0,4.0,293.0,3090.04
3090050.0,243.0,32.0,3.0,304.0,3090.05
3090060.0,238.0,31.0,4.0,296.0,3090.06
3090070.0,240.0,32.0,4.0,291.0,3090.07
3090080.0,244.0,31.0,4.0,297.0,3090.08
3090091.0,245.0,32.0,3.0,292.0,3090.091
3090101.0,243.0,32.0,4.0,293.0,3090.101
3090111.0,233.0,31.0,3.0,279.0,3090.111
3090121.0,241.0,31.0,4.0,297.0,3090.121
3090131.0,244.0,32.0,2.0,320.0,3090.131
3090141.0,247.0,31.0,5.0,313.0,3090.141
3090151.0,243.0,32.0,3.0,304.0,3090.151
3090161.0,234.0,31.0,3.0,284.0,3090.161
3090171.0,242.0,31.0,4.0,296.0,3090.171
3090181.0,242.0,31.0,4.0,292.0,3090.181
3090191.0,236.0,31.0,4.0,278.0,3090.191
3090201.0,234.0,32.0,3.0,270.0,3090.201
3090211.0,230.0,32.0,4.0,263.0,3090.211
3090221.0,233.0,32.0,3.0,260.0,3090.221
3090231.0,240.0,32.0,5.0,265.0,3090.231
3090241.0,233.0,32.0,4.0,258.0,3090.241
3090251.0,235.0,31.0,4.0,259.0,3090.251
3090262.0,224.0,32.0,2.0,259.0,3090.262
3090272.0,236.0,31.0,3.0,268.0,3090.272
3090282.0,238.0,32.0,3.0,260.0,3090.282
3090292.0,236.0,31.0,3.0,254.0,3090.292
3090302.0,236.0,32.0,3.0,258.0,3090.302
3090312.0,232.0,31.0,4.0,251.0,3090.312
3090322.0,239.0,31.0,4.0,266.0,3090.322
3090332.0,243.0,31.0,4.0,287.0,3090.332
3090342.0,234.0,32.0,3.0,282.0,3090.342
3090352.0,237.0,31.0,3.0,284.0,3090.352
3090362.0,230.0,32.0,3.0,278.0,3090.362
3090372.0,237.0,32.0,4.0,283.0,3090.372
3090382.0,240.0,31.0,3.0,277.0,3090.382
3090392.0,234.0,32.0,4.0,270.0,3090.392
3090402.0,236.0,31.0,4.0,274.0,3090.402
3090412.0,233.0,32.0,3.0,276.0,3090.412
3090422.0,244.0,32.0,3.0,292.0,3090.422
3090432.0,249.0,33.0,3.0,294.0,3090.432
3090442.0,242.0,31.0,5.0,292.0,3090.442
3090452.0,242.0,32.0,4.0,290.0,3090.452
3090462.0,240.0,32.0,3.0,292.0,3090.462
3090472.0,242.0,33.0,3.0,287.0,3090.472
3090482.0,245.0,32.0,3.0,285.0,3090.482
3090492.0,239.0,32.0,3.0,275.0,3090.492
3090502.0,239.0,32.0,5.0,274.0,3090.502
3090512.0,241.0,31.0,4.0,279.0,3090.512
3090522.0,243.0,32.0,4.0,282.0,3090.522
3090532.0,244.0,33.0,4.0,274.0,3090.532
3090542.0,237.0,32.0,3.0,256.0,3090.542
3090552.0,238.0,32.0,4.0,256.0,3090.552
3090562.0,233.0,32.0,4.0,256.0,3090.562
3090572.0,242.0,31.0,4.0,261.0,3090.572
3090582.0,244.0,32.0,4.0,261.0,3090.582
3090592.0,237.0,32.0,3.0,273.0,3090.592
3090603.0,240.0,33.0,3.0,280.0,3090.603
3090613.0,235.0,32.0,4.0,275.0,3090.613
3090623.0,237.0,32.0,3.0,275.0,3090.623
3090633.0,236.0,32.0,5.0,267.0,3090.633
3090643.0,228.0,32.0,4.0,253.0,3090.643
3090653.0,234.0,32.0,5.0,258.0,3090.653
3090663.0,236.0,33.0,3.0,263.0,3090.663
3090673.0,237.0,32.0,3.0,267.0,3090.673
3090683.0,235.0,33.0,3.0,269.0,3090.683
3090693.0,231.0,32.0,3.0,264.0,3090.693
3090703.0,236.0,31.0,4.0,278.0,3090.703
3090713.0,243.0,33.0,3.0,284.0,3090.713
3090723.0,240.0,32.0,4.0,277.0,3090.723
3090733.0,242.0,33.0,3.0,280.0,3090.733
3090743.0,231.0,32.0,4.0,274.0,3090.743
3090753.0,236.0,32.0,4.0,282.0,3090.753
3090763.0,241.0,32.0,4.0,291.0,3090.763
3090774.0,238.0,32.0,3.0,282.0,3090.774
3090784.0,237.0,32.0,4.0,279.0,3090.784
3090794.0,230.0,33.0,3.0,268.0,3090.794
3090804.0,238.0,32.0,3.0,281.0,3090.804
3090814.0,240.0,32.0,4.0,287.0,3090.814
3090824.0,237.0,32.0,4.0,280.0,3090.824
3090834.0,235.0,32.0,4.0,280.0,3090.834
3090844.0,228.0,32.0,4.0,272.0,3090.844
3090854.0,238.0,33.0,3.0,287.0,3090.854
3090864.0,241.0,33.0,4.0,288.0,3090.864
3090874.0,238.0,32.0,3.0,280.0,3090.874
3090884.0,237.0,33.0,4.0,272.0,3090.884
3090894.0,228.0,33.0,3.0,260.0,3090.894
3090904.0,233.0,33.0,3.0,265.0,3090.904
3090914.0,246.0,33.0,4.0,268.0,3090.914
3090924.0,242.0,33.0,3.0,264.0,3090.924
3090934.0,244.0,32.0,4.0,257.0,3090.934
3090944.0,234.0,33.0,3.0,262.0,3090.944
3090954.0,240.0,33.0,5.0,272.0,3090.954
3090964.0,246.0,33.0,4.0,277.0,3090.964
3090974.0,239.0,32.0,4.0,270.0,3090.974
3090984.0,239.0,33.0,3.0,273.0,3090.984
3090994.0,234.0,33.0,3.0,264.0,3090.994
3091004.0,241.0,32.0,4.0,276.0,3091.004
3091014.0,245.0,33.0,4.0,280.0,3091.014
3091024.0,238.0,31.0,4.0,273.0,3091.024
3091034.0,238.0,33.0,3.0,275.0,3091.034
3091044.0,230.0,32.0,4.0,270.0,3091.044
3091054.0,239.0,32.0,3.0,278.0,3091.054
3091064.0,244.0,32.0,4.0,278.0,3091.064
3091074.0,240.0,32.0,4.0,273.0,3091.074
3091084.0,237.0,32.0,5.0,267.0,3091.084
3091094.0,227.0,32.0,3.0,265.0,3091.094
3091104.0,235.0,32.0,4.0,276.0,3091.104
3091115.0,239.0,33.0,3.0,280.0,3091.115
3091125.0,232.0,32.0,3.0,270.0,3091.125
3091135.0,229.0,32.0,4.0,269.0,3091.135
3091145.0,232.0,32.0,4.0,267.0,3091.145
3091155.0,245.0,32.0,2.0,272.0,3091.155
3091165.0,245.0,32.0,4.0,269.0,3091.165
3091175.0,238.0,32.0,3.0,263.0,3091.175
3091185.0,239.0,32.0,3.0,266.0,3091.185
3091195.0,237.0,32.0,4.0,265.0,3091.195
3091205.0,240.0,32.0,4.0,271.0,3091.205
3091215.0,243.0,31.0,4.0,271.0,3091.215
3091225.0,234.0,32.0,2.0,262.0,3091.225
3091235.0,236.0,32.0,4.0,263.0,3091.235
3091245.0,230.0,32.0,3.0,259.0,3091.245
3091255.0,239.0,32.0,4.0,270.0,3091.255
3091265.0,241.0,32.0,4.0,272.0,3091.265
3091275.0,233.0,31.0,4.0,263.0,3091.275
3091286.0,233.0,32.0,4.0,265.0,3091.286
3091296.0,235.0,32.0,4.0,267.0,3091.296
3091306.0,237.0,33.0,3.0,270.0,3091.306
3091316.0,235.0,32.0,3.0,266.0,3091.316
3091326.0,227.0,32.0,3.0,258.0,3091.326
3091336.0,231.0,32.0,4.0,262.0,3091.336
3091346.0,234.0,32.0,4.0,266.0,3091.346
3091356.0,231.0,32.0,3.0,261.0,3091.356
3091366.0,232.0,33.0,3.0,260.0,3091.366
3091376.0,227.0,32.0,3.0,255.0,3091.376
3091386.0,232.0,32.0,3.0,259.0,3091.386
3091396.0,234.0,32.0,4.0,262.0,3091.396
3091406.0,235.0,31.0,4.0,259.0,3091.406
3091416.0,236.0,33.0,3.0,258.0,3091.416
3091426.0,226.0,32.0,4.0,252.0,3091.426
3091436.0,230.0,33.0,3.0,256.0,3091.436
3091446.0,234.0,32.0,4.0,264.0,3091.446
3091456.0,234.0,33.0,3.0,264.0,3091.456
3091466.0,235.0,33.0,5.0,259.0,3091.466
3091476.0,224.0,32.0,4.0,250.0,3091.476
3091486.0,230.0,32.0,4.0,254.0,3091.486
3091496.0,235.0,33.0,3.0,262.0,3091.496
3091506.0,235.0,33.0,3.0,262.0,3091.506
3091516.0,235.0,32.0,4.0,258.0,3091.516
3091526.0,225.0,32.0,4.0,252.0,3091.526
3091536.0,228.0,33.0,4.0,259.0,3091.536
3091546.0,229.0,32.0,4.0,262.0,3091.546
3091556.0,231.0,32.0,4.0,265.0,3091.556
3091566.0,232.0,33.0,3.0,267.0,3091.566
3091576.0,222.0,32.0,3.0,256.0,3091.576
3091586.0,227.0,33.0,3.0,260.0,3091.586
3091596.0,229.0,33.0,5.0,264.0,3091.596
3091606.0,226.0,32.0,4.0,265.0,3091.606
3091616.0,226.0,33.0,3.0,260.0,3091.616
3091627.0,218.0,33.0,4.0,253.0,3091.627
3091637.0,223.0,32.0,4.0,258.0,3091.637
3091647.0,230.0,32.0,3.0,263.0,3091.647
3091657.0,225.0,32.0,5.0,259.0,3091.657
3091667.0,225.0,31.0,3.0,258.0,3091.667
3091677.0,218.0,32.0,5.0,249.0,3091.677
3091687.0,224.0,33.0,3.0,261.0,3091.687
3091697.0,230.0,33.0,3.0,265.0,3091.697
3091707.0,225.0,32.0,4.0,259.0,3091.707
3091717.0,225.0,32.0,4.0,256.0,3091.717
3091727.0,218.0,32.0,4.0,247.0,3091.727
3091737.0,226.0,33.0,2.0,259.0,3091.737
3091747.0,232.0,33.0,4.0,261.0,3091.747
3091757.0,228.0,33.0,3.0,260.0,3091.757
3091767.0,228.0,32.0,4.0,256.0,3091.767
3091777.0,219.0,32.0,3.0,249.0,3091.777
3091787.0,225.0,33.0,4.0,259.0,3091.787
3091798.0,229.0,32.0,3.0,261.0,3091.798
3091808.0,222.0,32.0,3.0,254.0,3091.808
3091818.0,224.0,33.0,3.0,257.0,3091.818
3091828.0,223.0,32.0,3.0,258.0,3091.828
3091838.0,229.0,32.0,4.0,264.0,3091.838
3091848.0,231.0,33.0,4.0,264.0,3091.848
3091858.0,223.0,31.0,4.0,257.0,3091.858
3091868.0,225.0,32.0,4.0,259.0,3091.868
3091878.0,225.0,32.0,3.0,262.0,3091.878
3091888.0,228.0,32.0,4.0,265.0,3091.888
3091898.0,232.0,32.0,4.0,264.0,3091.898
3091908.0,223.0,32.0,4.0,256.0,3091.908
3091918.0,226.0,33.0,5.0,256.0,3091.918
3091928.0,219.0,33.0,2.0,252.0,3091.928
3091938.0,228.0,33.0,3.0,261.0,3091.938
3091948.0,231.0,34.0,3.0,261.0,3091.948
3091958.0,221.0,33.0,4.0,253.0,3091.958
3091968.0,226.0,34.0,4.0,257.0,3091.968
3091978.0,222.0,33.0,5.0,254.0,3091.978
3091988.0,229.0,33.0,3.0,263.0,3091.988
3091998.0,230.0,33.0,3.0,258.0,3091.998
3092008.0,221.0,33.0,3.0,252.0,3092.008
3092018.0,225.0,33.0,3.0,255.0,3092.018
3092028.0,222.0,32.0,3.0,255.0,3092.028
3092038.0,229.0,33.0,4.0,262.0,3092.038
3092048.0,232.0,33.0,5.0,259.0,3092.048
3092058.0,224.0,33.0,3.0,257.0,3092.058
3092068.0,225.0,33.0,4.0,258.0,3092.068
3092078.0,224.0,34.0,3.0,260.0,3092.078
3092088.0,229.0,32.0,3.0,266.0,3092.088
3092098.0,232.0,34.0,4.0,265.0,3092.098
3092108.0,225.0,33.0,5.0,259.0,3092.108
3092118.0,226.0,32.0,4.0,260.0,3092.118
3092128.0,226.0,33.0,4.0,261.0,3092.128
3092139.0,231.0,33.0,4.0,265.0,3092.139
3092149.0,230.0,34.0,3.0,260.0,3092.149
3092159.0,221.0,33.0,3.0,252.0,3092.159
3092169.0,225.0,32.0,5.0,256.0,3092.169
3092179.0,232.0,33.0,4.0,264.0,3092.179
3092189.0,230.0,33.0,4.0,263.0,3092.189
3092199.0,230.0,33.0,4.0,260.0,3092.199
3092209.0,221.0,33.0,3.0,253.0,3092.209
3092219.0,226.0,32.0,4.0,260.0,3092.219
3092229.0,228.0,32.0,4.0,263.0,3092.229
3092239.0,232.0,32.0,4.0,266.0,3092.239
3092249.0,229.0,33.0,2.0,262.0,3092.249
3092259.0,221.0,33.0,4.0,253.0,3092.259
3092269.0,226.0,33.0,3.0,259.0,3092.269
3092279.0,228.0,33.0,3.0,264.0,3092.279
3092289.0,229.0,32.0,4.0,265.0,3092.289
3092299.0,229.0,33.0,5.0,261.0,3092.299
3092310.0,221.0,32.0,4.0,253.0,3092.31
3092320.0,226.0,32.0,4.0,261.0,3092.32
3092330.0,232.0,33.0,4.0,265.0,3092.33
3092340.0,227.0,32.0,3.0,260.0,3092.34
3092350.0,228.0,32.0,4.0,259.0,3092.35
3092360.0,219.0,33.0,3.0,251.0,3092.36
3092370.0,227.0,33.0,4.0,260.0,3092.37
3092380.0,230.0,33.0,4.0,262.0,3092.38
3092390.0,225.0,33.0,3.0,258.0,3092.39
3092400.0,227.0,34.0,3.0,258.0,3092.4
3092410.0,219.0,32.0,4.0,250.0,3092.41
3092420.0,225.0,33.0,4.0,260.0,3092.42
3092430.0,232.0,33.0,4.0,261.0,3092.43
3092440.0,227.0,33.0,2.0,258.0,3092.44
3092450.0,226.0,32.0,4.0,256.0,3092.45
3092460.0,218.0,34.0,3.0,250.0,3092.46
3092470.0,227.0,33.0,4.0,260.0,3092.47
3092480.0,230.0,33.0,3.0,262.0,3092.48
3092490.0,227.0,33.0,4.0,260.0,3092.49
3092500.0,228.0,33.0,3.0,257.0,3092.5
3092510.0,220.0,33.0,3.0,252.0,3092.51
3092520.0,228.0,33.0,3.0,264.0,3092.52
3092530.0,231.0,33.0,3.0,263.0,3092.53
3092540.0,227.0,32.0,4.0,259.0,3092.54
3092550.0,226.0,33.0,3.0,257.0,3092.55
3092560.0,221.0,32.0,5.0,252.0,3092.56
3092570.0,225.0,33.0,3.0,259.0,3092.57
3092580.0,232.0,33.0,4.0,262.0,3092.58
3092590.0,227.0,33.0,3.0,258.0,3092.59
3092600.0,227.0,32.0,3.0,257.0,3092.6
3092610.0,220.0,33.0,3.0,250.0,3092.61
3092620.0,226.0,33.0,5.0,258.0,3092.62
3092630.0,231.0,33.0,4.0,262.0,3092.63
3092640.0,225.0,33.0,3.0,258.0,3092.64
3092651.0,226.0,33.0,3.0,257.0,3092.651
3092661.0,221.0,32.0,4.0,252.0,3092.661
3092671.0,229.0,33.0,4.0,261.0,3092.671
3092681.0,231.0,33.0,4.0,259.0,3092.681
3092691.0,222.0,32.0,4.0,252.0,3092.691
3092701.0,225.0,32.0,4.0,255.0,3092.701
3092711.0,222.0,33.0,4.0,256.0,3092.711
3092721.0,229.0,33.0,3.0,263.0,3092.721
3092731.0,230.0,32.0,4.0,259.0,3092.731
3092741.0,227.0,32.0,3.0,258.0,3092.741
3092751.0,231.0,32.0,5.0,260.0,3092.751
3092761.0,228.0,32.0,4.0,259.0,3092.761
3092771.0,233.0,33.0,4.0,263.0,3092.771
3092781.0,234.0,34.0,3.0,263.0,3092.781
3092791.0,226.0,32.0,3.0,256.0,3092.791
3092801.0,227.0,33.0,3.0,256.0,3092.801
3092811.0,225.0,33.0,4.0,257.0,3092.811
3092822.0,230.0,33.0,3.0,261.0,3092.822
3092832.0,230.0,33.0,4.0,257.0,3092.832
3092842.0,221.0,33.0,3.0,251.0,3092.842
3092852.0,225.0,33.0,3.0,255.0,3092.852
3092862.0,231.0,33.0,3.0,262.0,3092.862
3092872.0,230.0,33.0,3.0,262.0,3092.872
3092882.0,231.0,33.0,4.0,258.0,3092.882
3092892.0,222.0,33.0,4.0,252.0,3092.892
3092902.0,225.0,32.0,3.0,257.0,3092.902
3092912.0,228.0,33.0,4.0,260.0,3092.912
3092922.0,230.0,32.0,3.0,262.0,3092.922
3092932.0,229.0,33.0,4.0,258.0,3092.932
3092942.0,221.0,33.0,5.0,250.0,3092.942
3092952.0,225.0,33.0,3.0,255.0,3092.952
3092962.0,228.0,33.0,4.0,259.0,3092.962
3092972.0,230.0,33.0,4.0,261.0,3092.972
3092982.0,230.0,33.0,3.0,259.0,3092.982
3092992.0,223.0,33.0,4.0,253.0,3092.992
3093002.0,225.0,33.0,3.0,255.0,3093.002
3093012.0,231.0,33.0,4.0,262.0,3093.012
3093022.0,230.0,33.0,3.0,260.0,3093.022
3093032.0,229.0,33.0,3.0,257.0,3093.032
3093042.0,223.0,33.0,3.0,253.0,3093.042
3093052.0,226.0,32.0,4.0,256.0,3093.052
3093062.0,231.0,33.0,4.0,263.0,3093.062
3093072.0,230.0,32.0,5.0,262.0,3093.072
3093082.0,231.0,33.0,4.0,262.0,3093.082
3093092.0,223.0,32.0,4.0,253.0,3093.092
3093102.0,225.0,34.0,3.0,257.0,3093.102
3093112.0,231.0,32.0,4.0,262.0,3093.112
3093122.0,231.0,32.0,4.0,262.0,3093.122
3093132.0,230.0,33.0,4.0,259.0,3093.132
3093142.0,221.0,32.0,4.0,252.0,3093.142
3093152.0,226.0,33.0,4.0,258.0,3093.152
3093163.0,231.0,33.0,4.0,265.0,3093.163
3093173.0,227.0,34.0,3.0,261.0,3093.173
3093183.0,228.0,33.0,3.0,260.0,3093.183
3093193.0,220.0,33.0,4.0,253.0,3093.193
3093203.0,230.0,33.0,4.0,264.0,3093.203
3093213.0,232.0,34.0,3.0,266.0,3093.213
3093223.0,227.0,33.0,4.0,260.0,3093.223
3093233.0,229.0,34.0,3.0,259.0,3093.233
3093243.0,221.0,32.0,4.0,252.0,3093.243
3093253.0,227.0,34.0,3.0,260.0,3093.253
3093263.0,233.0,33.0,5.0,262.0,3093.263
3093273.0,227.0,33.0,4.0,256.0,3093.273
3093283.0,228.0,33.0,3.0,256.0,3093.283
3093293.0,220.0,33.0,4.0,248.0,3093.293
3093303.0,227.0,33.0,4.0,259.0,3093.303
3093313.0,232.0,33.0,3.0,263.0,3093.313
3093323.0,226.0,32.0,4.0,256.0,3093.323
3093334.0,227.0,33.0,4.0,257.0,3093.334
3093344.0,222.0,33.0,3.0,255.0,3093.344
3093354.0,230.0,33.0,3.0,264.0,3093.354
3093364.0,233.0,34.0,3.0,264.0,3093.364
3093374.0,223.0,32.0,4.0,254.0,3093.374
3093384.0,227.0,34.0,3.0,259.0,3093.384
3093394.0,225.0,33.0,5.0,256.0,3093.394
3093404.0,231.0,32.0,2.0,265.0,3093.404
3093414.0,232.0,33.0,4.0,260.0,3093.414
3093424.0,226.0,34.0,3.0,253.0,3093.424
3093434.0,226.0,33.0,3.0,254.0,3093.434
3093444.0,225.0,33.0,3.0,255.0,3093.444
3093454.0,231.0,33.0,4.0,260.0,3093.454
3093464.0,233.0,33.0,4.0,261.0,3093.464
3093474.0,225.0,33.0,4.0,252.0,3093.474
3093484.0,227.0,33.0,4.0,255.0,3093.484
3093494.0,226.0,33.0,3.0,256.0,3093.494
3093504.0,230.0,33.0,3.0,260.0,3093.504
3093514.0,232.0,33.0,4.0,259.0,3093.514
3093524.0,224.0,33.0,4.0,249.0,3093.524
3093534.0,226.0,33.0,4.0,251.0,3093.534
3093544.0,227.0,32.0,4.0,253.0,3093.544
3093554.0,230.0,33.0,3.0,256.0,3093.554
3093564.0,232.0,34.0,4.0,256.0,3093.564
3093574.0,223.0,32.0,4.0,248.0,3093.574
3093584.0,227.0,33.0,5.0,252.0,3093.584
3093594.0,222.0,32.0,3.0,250.0,3093.594
3093604.0,230.0,33.0,3.0,258.0,3093.604
3093614.0,231.0,33.0,3.0,259.0,3093.614
3093624.0,223.0,33.0,3.0,248.0,3093.624
3093634.0,226.0,33.0,4.0,254.0,3093.634
3093644.0,223.0,33.0,4.0,252.0,3093.644
3093654.0,231.0,33.0,4.0,259.0,3093.654
3093664.0,230.0,34.0,3.0,258.0,3093.664
3093675.0,223.0,32.0,4.0,250.0,3093.675
3093685.0,226.0,33.0,4.0,253.0,3093.685
3093695.0,230.0,32.0,4.0,258.0,3093.695
3093705.0,229.0,33.0,3.0,258.0,3093.705
3093715.0,230.0,33.0,5.0,256.0,3093.715
3093725.0,223.0,32.0,4.0,250.0,3093.725
3093735.0,225.0,32.0,4.0,254.0,3093.735
3093745.0,231.0,33.0,3.0,262.0,3093.745
3093755.0,229.0,32.0,4.0,258.0,3093.755
3093765.0,231.0,33.0,3.0,259.0,3093.765
3093775.0,223.0,32.0,4.0,251.0,3093.775
3093785.0,226.0,33.0,3.0,256.0,3093.785
3093795.0,231.0,33.0,4.0,263.0,3093.795
3093805.0,231.0,33.0,3.0,262.0,3093.805
3093815.0,230.0,33.0,3.0,259.0,3093.815
3093825.0,222.0,32.0,4.0,249.0,3093.825
3093835.0,226.0,33.0,4.0,255.0,3093.835
3093846.0,232.0,33.0,4.0,261.0,3093.846
3093856.0,229.0,32.0,4.0,256.0,3093.856
3093866.0,228.0,32.0,4.0,255.0,3093.866
3093876.0,221.0,33.0,3.0,248.0,3093.876
3093886.0,230.0,32.0,4.0,259.0,3093.886
3093896.0,233.0,33.0,3.0,263.0,3093.896
3093906.0,229.0,32.0,4.0,256.0,3093.906
3093916.0,228.0,33.0,2.0,255.0,3093.916
3093926.0,221.0,32.0,4.0,249.0,3093.926
3093936.0,227.0,32.0,4.0,257.0,3093.936
3093946.0,232.0,32.0,3.0,261.0,3093.946
3093956.0,227.0,32.0,3.0,255.0,3093.956
3093966.0,227.0,33.0,4.0,256.0,3093.966
3093976.0,221.0,32.0,4.0,247.0,3093.976
3093986.0,227.0,32.0,2.0,258.0,3093.986
3093996.0,233.0,32.0,4.0,262.0,3093.996
3094006.0,226.0,33.0,3.0,254.0,3094.006
3094016.0,228.0,32.0,4.0,256.0,3094.016
3094026.0,221.0,32.0,3.0,248.0,3094.026
3094036.0,229.0,32.0,5.0,258.0,3094.036
3094046.0,232.0,32.0,4.0,263.0,3094.046
3094056.0,226.0,31.0,4.0,255.0,3094.056
3094066.0,229.0,32.0,2.0,257.0,3094.066
3094076.0,221.0,32.0,3.0,249.0,3094.076
3094086.0,229.0,32.0,4.0,260.0,3094.086
3094096.0,234.0,32.0,4.0,262.0,3094.096
3094106.0,229.0,31.0,3.0,257.0,3094.106
3094116.0,229.0,32.0,4.0,257.0,3094.116
3094126.0,221.0,32.0,4.0,251.0,3094.126
3094136.0,230.0,32.0,3.0,261.0,3094.136
3094146.0,233.0,32.0,4.0,262.0,3094.146
3094156.0,229.0,31.0,4.0,256.0,3094.156
3094166.0,229.0,32.0,4.0,257.0,3094.166
3094176.0,220.0,32.0,4.0,251.0,3094.176
3094187.0,230.0,32.0,4.0,260.0,3094.187
3094197.0,233.0,32.0,4.0,260.0,3094.197
3094207.0,224.0,32.0,4.0,252.0,3094.207
3094217.0,226.0,32.0,4.0,255.0,3094.217
3094227.0,228.0,33.0,4.0,258.0,3094.227
3094237.0,230.0,31.0,4.0,260.0,3094.237
3094247.0,232.0,32.0,3.0,260.0,3094.247
3094257.0,224.0,32.0,4.0,252.0,3094.257
3094267.0,225.0,32.0,3.0,254.0,3094.267
3094277.0,222.0,32.0,3.0,252.0,3094.277
3094287.0,230.0,32.0,4.0,261.0,3094.287
3094297.0,232.0,31.0,4.0,260.0,3094.297
3094307.0,223.0,32.0,3.0,251.0,3094.307
3094317.0,227.0,32.0,4.0,256.0,3094.317
3094327.0,223.0,32.0,3.0,254.0,3094.327
3094337.0,231.0,31.0,4.0,262.0,3094.337
3094347.0,231.0,31.0,4.0,260.0,3094.347
3094358.0,223.0,31.0,4.0,251.0,3094.358
3094368.0,226.0,32.0,2.0,254.0,3094.368
3094378.0,229.0,32.0,4.0,260.0,3094.378
3094388.0,229.0,32.0,4.0,259.0,3094.388
3094398.0,228.0,32.0,4.0,256.0,3094.398
3094408.0,222.0,31.0,3.0,250.0,3094.408
3094418.0,225.0,32.0,4.0,254.0,3094.418
3094428.0,230.0,31.0,4.0,260.0,3094.428
3094438.0,228.0,32.0,3.0,258.0,3094.438
3094448.0,229.0,31.0,4.0,258.0,3094.448
3094458.0,221.0,32.0,3.0,249.0,3094.458
3094468.0,225.0,32.0,4.0,254.0,3094.468
3094478.0,231.0,32.0,3.0,263.0,3094.478
3094488.0,231.0,32.0,4.0,260.0,3094.488
3094498.0,230.0,32.0,4.0,257.0,3094.498
3094508.0,222.0,31.0,3.0,248.0,3094.508
3094518.0,225.0,32.0,3.0,255.0,3094.518
3094528.0,227.0,32.0,4.0,257.0,3094.528
3094538.0,229.0,31.0,4.0,258.0,3094.538
3094548.0,229.0,32.0,5.0,256.0,3094.548
3094558.0,221.0,31.0,4.0,247.0,3094.558
3094568.0,225.0,31.0,4.0,256.0,3094.568
3094578.0,228.0,31.0,4.0,261.0,3094.578
3094588.0,229.0,31.0,4.0,260.0,3094.588
3094598.0,228.0,32.0,4.0,258.0,3094.598
3094608.0,221.0,32.0,4.0,249.0,3094.608
3094618.0,225.0,32.0,3.0,255.0,3094.618
3094628.0,229.0,32.0,4.0,260.0,3094.628
3094638.0,230.0,32.0,3.0,258.0,3094.638
3094648.0,229.0,33.0,3.0,257.0,3094.648
3094658.0,223.0,31.0,4.0,251.0,3094.658
3094668.0,225.0,32.0,3.0,256.0,3094.668
3094678.0,231.0,31.0,5.0,263.0,3094.678
3094688.0,230.0,31.0,4.0,261.0,3094.688
3094699.0,229.0,32.0,3.0,259.0,3094.699
3094709.0,221.0,30.0,4.0,250.0,3094.709
3094719.0,228.0,32.0,4.0,260.0,3094.719
3094729.0,233.0,32.0,3.0,263.0,3094.729
3094739.0,228.0,32.0,5.0,257.0,3094.739
3094749.0,229.0,32.0,4.0,259.0,3094.749
3094759.0,221.0,32.0,4.0,249.0,3094.759
3094769.0,230.0,32.0,4.0,261.0,3094.769
3094779.0,233.0,32.0,3.0,262.0,3094.779
3094789.0,229.0,31.0,3.0,258.0,3094.789
3094799.0,228.0,32.0,4.0,256.0,3094.799
3094809.0,222.0,31.0,4.0,248.0,3094.809
3094819.0,230.0,32.0,3.0,261.0,3094.819
3094829.0,232.0,31.0,5.0,259.0,3094.829
3094839.0,228.0,32.0,3.0,256.0,3094.839
3094849.0,227.0,32.0,3.0,255.0,3094.849
3094859.0,220.0,32.0,3.0,250.0,3094.859
3094870.0,232.0,31.0,4.0,263.0,3094.87
3094880.0,233.0,32.0,4.0,264.0,3094.88
3094890.0,225.0,31.0,4.0,255.0,3094.89
3094900.0,226.0,31.0,4.0,254.0,3094.9
3094910.0,227.0,32.0,3.0,256.0,3094.91
3094920.0,231.0,31.0,4.0,261.0,3094.92
3094930.0,232.0,32.0,4.0,260.0,3094.93
3094940.0,224.0,31.0,4.0,254.0,3094.94
3094950.0,226.0,32.0,3.0,256.0,3094.95
3094960.0,222.0,31.0,4.0,253.0,3094.96
3094970.0,230.0,31.0,3.0,261.0,3094.97
3094980.0,232.0,32.0,3.0,258.0,3094.98
3094990.0,222.0,31.0,4.0,252.0,3094.99
3095000.0,227.0,31.0,5.0,255.0,3095.0
3095010.0,223.0,31.0,2.0,254.0,3095.01
3095020.0,230.0,31.0,4.0,261.0,3095.02
3095030.0,232.0,32.0,3.0,260.0,3095.03
3095040.0,225.0,31.0,3.0,255.0,3095.04
3095050.0,226.0,31.0,3.0,256.0,3095.05
3095060.0,224.0,32.0,2.0,257.0,3095.06
3095070.0,229.0,31.0,4.0,264.0,3095.07
3095080.0,230.0,31.0,4.0,261.0,3095.08
3095090.0,224.0,31.0,3.0,257.0,3095.09
3095100.0,225.0,31.0,3.0,258.0,3095.1
3095110.0,225.0,30.0,3.0,261.0,3095.11
3095120.0,229.0,31.0,4.0,264.0,3095.12
3095130.0,233.0,31.0,5.0,264.0,3095.13
3095140.0,224.0,31.0,4.0,257.0,3095.14
3095150.0,226.0,30.0,4.0,260.0,3095.15
3095160.0,227.0,32.0,3.0,263.0,3095.16
3095170.0,229.0,31.0,4.0,266.0,3095.17
3095180.0,232.0,31.0,4.0,264.0,3095.18
3095190.0,224.0,31.0,5.0,257.0,3095.19
3095200.0,226.0,31.0,3.0,258.0,3095.2
3095211.0,227.0,31.0,3.0,261.0,3095.211
3095221.0,229.0,30.0,4.0,263.0,3095.221
3095231.0,229.0,30.0,4.0,258.0,3095.231
3095241.0,220.0,30.0,4.0,253.0,3095.241
3095251.0,225.0,31.0,4.0,261.0,3095.251
3095261.0,228.0,31.0,4.0,262.0,3095.261
3095271.0,229.0,31.0,4.0,263.0,3095.271
3095281.0,228.0,30.0,4.0,259.0,3095.281
3095291.0,219.0,31.0,3.0,250.0,3095.291
3095301.0,225.0,30.0,3.0,256.0,3095.301
3095311.0,228.0,31.0,3.0,262.0,3095.311
3095321.0,230.0,30.0,4.0,262.0,3095.321
3095331.0,229.0,31.0,3.0,260.0,3095.331
3095341.0,223.0,30.0,4.0,255.0,3095.341
3095351.0,225.0,31.0,3.0,259.0,3095.351
3095361.0,230.0,30.0,4.0,266.0,3095.361
3095371.0,228.0,31.0,3.0,265.0,3095.371
3095382.0,230.0,31.0,5.0,262.0,3095.382
3095392.0,220.0,30.0,4.0,253.0,3095.392
3095402.0,228.0,30.0,4.0,263.0,3095.402
3095412.0,233.0,30.0,3.0,266.0,3095.412
3095422.0,226.0,31.0,3.0,258.0,3095.422
3095432.0,229.0,31.0,4.0,261.0,3095.432
3095442.0,220.0,31.0,3.0,253.0,3095.442
3095452.0,229.0,31.0,4.0,263.0,3095.452
3095462.0,232.0,31.0,3.0,265.0,3095.462
3095472.0,229.0,30.0,4.0,261.0,3095.472
3095482.0,227.0,32.0,3.0,260.0,3095.482
3095492.0,219.0,30.0,3.0,252.0,3095.492
3095502.0,228.0,31.0,3.0,262.0,3095.502
3095512.0,233.0,31.0,4.0,264.0,3095.512
3095522.0,228.0,30.0,4.0,258.0,3095.522
3095532.0,227.0,31.0,4.0,257.0,3095.532
3095542.0,220.0,32.0,3.0,253.0,3095.542
3095552.0,225.0,31.0,3.0,258.0,3095.552
3095562.0,231.0,30.0,3.0,263.0,3095.562
3095572.0,226.0,31.0,2.0,259.0,3095.572
3095582.0,228.0,31.0,3.0,257.0,3095.582
3095592.0,220.0,31.0,4.0,251.0,3095.592
3095602.0,226.0,31.0,3.0,258.0,3095.602
3095612.0,231.0,32.0,3.0,262.0,3095.612
3095622.0,225.0,30.0,4.0,254.0,3095.622
3095632.0,225.0,31.0,4.0,256.0,3095.632
3095642.0,220.0,31.0,4.0,249.0,3095.642
3095652.0,226.0,31.0,2.0,258.0,3095.652
3095662.0,231.0,31.0,4.0,261.0,3095.662
3095672.0,225.0,32.0,3.0,254.0,3095.672
3095682.0,228.0,31.0,3.0,256.0,3095.682
3095692.0,219.0,31.0,4.0,246.0,3095.692
3095702.0,228.0,32.0,5.0,258.0,3095.702
3095712.0,232.0,31.0,4.0,260.0,3095.712
3095723.0,226.0,31.0,3.0,252.0,3095.723
3095733.0,227.0,31.0,3.0,257.0,3095.733
3095743.0,225.0,32.0,3.0,253.0,3095.743
3095753.0,230.0,31.0,4.0,259.0,3095.753
3095763.0,231.0,32.0,4.0,257.0,3095.763
3095773.0,225.0,31.0,4.0,252.0,3095.773
3095783.0,226.0,32.0,2.0,255.0,3095.783
3095793.0,225.0,32.0,4.0,254.0,3095.793
3095803.0,230.0,33.0,3.0,259.0,3095.803
3095813.0,232.0,32.0,3.0,258.0,3095.813
3095823.0,224.0,31.0,4.0,249.0,3095.823
3095833.0,227.0,31.0,5.0,253.0,3095.833
3095843.0,226.0,32.0,3.0,257.0,3095.843
3095853.0,229.0,32.0,4.0,260.0,3095.853
3095863.0,232.0,32.0,4.0,260.0,3095.863
3095873.0,223.0,32.0,4.0,252.0,3095.873
3095883.0,225.0,32.0,4.0,253.0,3095.883
3095894.0,227.0,32.0,4.0,256.0,3095.894
3095904.0,229.0,33.0,4.0,259.0,3095.904
3095914.0,228.0,32.0,4.0,257.0,3095.914
3095924.0,220.0,32.0,4.0,248.0,3095.924
3095934.0,225.0,32.0,3.0,255.0,3095.934
3095944.0,227.0,32.0,4.0,256.0,3095.944
3095954.0,229.0,32.0,4.0,258.0,3095.954
3095964.0,230.0,32.0,4.0,256.0,3095.964
3095974.0,220.0,32.0,2.0,247.0,3095.974
3095984.0,225.0,32.0,4.0,253.0,3095.984
3095994.0,229.0,34.0,3.0,262.0,3095.994
3096004.0,230.0,32.0,4.0,262.0,3096.004
3096014.0,229.0,33.0,3.0,260.0,3096.014
3096024.0,223.0,32.0,4.0,252.0,3096.024
3096034.0,226.0,31.0,4.0,257.0,3096.034
3096044.0,230.0,32.0,3.0,262.0,3096.044
3096054.0,230.0,32.0,4.0,261.0,3096.054
3096064.0,231.0,32.0,3.0,259.0,3096.064
3096074.0,223.0,31.0,4.0,253.0,3096.074
3096084.0,226.0,31.0,2.0,259.0,3096.084
3096094.0,232.0,31.0,4.0,266.0,3096.094
3096104.0,230.0,32.0,4.0,262.0,3096.104
3096114.0,230.0,32.0,3.0,261.0,3096.114
3096124.0,222.0,33.0,3.0,253.0,3096.124
3096134.0,226.0,32.0,4.0,258.0,3096.134
3096144.0,232.0,32.0,4.0,263.0,3096.144
3096154.0,232.0,31.0,5.0,261.0,3096.154
3096164.0,230.0,31.0,4.0,258.0,3096.164
3096174.0,222.0,32.0,4.0,251.0,3096.174
3096184.0,227.0,32.0,3.0,259.0,3096.184
3096194.0,229.0,32.0,3.0,260.0,3096.194
3096204.0,232.0,32.0,3.0,263.0,3096.204
3096214.0,230.0,32.0,4.0,260.0,3096.214
3096224.0,222.0,32.0,4.0,251.0,3096.224
3096235.0,226.0,32.0,4.0,258.0,3096.235
3096245.0,232.0,33.0,4.0,264.0,3096.245
3096255.0,228.0,32.0,3.0,259.0,3096.255
3096265.0,228.0,32.0,3.0,259.0,3096.265
3096275.0,222.0,31.0,3.0,254.0,3096.275
3096285.0,229.0,32.0,3.0,261.0,3096.285
3096295.0,232.0,33.0,4.0,264.0,3096.295
3096305.0,227.0,32.0,4.0,257.0,3096.305
3096315.0,227.0,33.0,3.0,258.0,3096.315
3096325.0,221.0,32.0,4.0,250.0,3096.325
3096335.0,228.0,32.0,4.0,259.0,3096.335
3096345.0,233.0,32.0,4.0,264.0,3096.345
3096355.0,226.0,31.0,2.0,259.0,3096.355
3096365.0,228.0,32.0,4.0,259.0,3096.365
3096375.0,220.0,32.0,3.0,252.0,3096.375
3096385.0,227.0,31.0,4.0,262.0,3096.385
3096395.0,232.0,32.0,3.0,266.0,3096.395
3096406.0,225.0,32.0,4.0,259.0,3096.406
3096416.0,227.0,31.0,4.0,261.0,3096.416
3096426.0,224.0,32.0,4.0,259.0,3096.426
3096436.0,230.0,31.0,4.0,267.0,3096.436
3096446.0,232.0,32.0,3.0,263.0,3096.446
3096456.0,225.0,30.0,4.0,258.0,3096.456
3096466.0,226.0,32.0,3.0,260.0,3096.466
3096476.0,226.0,31.0,4.0,261.0,3096.476
3096486.0,230.0,31.0,4.0,266.0,3096.486
3096496.0,233.0,32.0,5.0,264.0,3096.496
3096506.0,224.0,32.0,3.0,258.0,3096.506
3096516.0,226.0,32.0,4.0,258.0,3096.516
3096526.0,225.0,32.0,4.0,260.0,3096.526
3096536.0,229.0,32.0,3.0,264.0,3096.536
3096546.0,232.0,31.0,4.0,263.0,3096.546
3096556.0,223.0,32.0,4.0,256.0,3096.556
3096566.0,226.0,33.0,3.0,258.0,3096.566
3096576.0,221.0,32.0,4.0,256.0,3096.576
3096586.0,230.0,32.0,3.0,264.0,3096.586
3096596.0,232.0,32.0,4.0,262.0,3096.596
3096606.0,223.0,32.0,4.0,255.0,3096.606
3096616.0,225.0,32.0,4.0,256.0,3096.616
3096626.0,224.0,32.0,4.0,255.0,3096.626
3096636.0,231.0,33.0,4.0,264.0,3096.636
3096646.0,232.0,32.0,4.0,261.0,3096.646
3096656.0,223.0,32.0,3.0,254.0,3096.656
3096666.0,227.0,32.0,4.0,256.0,3096.666
3096676.0,224.0,31.0,4.0,255.0,3096.676
3096686.0,230.0,32.0,4.0,260.0,3096.686
3096696.0,232.0,33.0,3.0,259.0,3096.696
3096706.0,224.0,32.0,3.0,256.0,3096.706
3096716.0,226.0,32.0,4.0,257.0,3096.716
3096726.0,225.0,32.0,4.0,259.0,3096.726
3096736.0,231.0,31.0,4.0,263.0,3096.736
3096747.0,230.0,32.0,3.0,260.0,3096.747
3096757.0,222.0,31.0,4.0,253.0,3096.757
3096767.0,225.0,32.0,3.0,259.0,3096.767
3096777.0,231.0,32.0,4.0,264.0,3096.777
3096787.0,229.0,31.0,3.0,262.0,3096.787
3096797.0,232.0,32.0,4.0,261.0,3096.797
3096807.0,222.0,32.0,4.0,252.0,3096.807
3096817.0,226.0,31.0,4.0,257.0,3096.817
3096827.0,231.0,33.0,3.0,265.0,3096.827
3096837.0,229.0,31.0,4.0,262.0,3096.837
3096847.0,229.0,32.0,4.0,258.0,3096.847
3096857.0,220.0,32.0,4.0,251.0,3096.857
3096867.0,225.0,31.0,4.0,258.0,3096.867
3096877.0,228.0,32.0,3.0,261.0,3096.877
3096887.0,230.0,32.0,4.0,261.0,3096.887
3096897.0,230.0,32.0,3.0,258.0,3096.897
3096907.0,221.0,32.0,4.0,249.0,3096.907
3096918.0,226.0,32.0,4.0,258.0,3096.918
3096928.0,233.0,33.0,4.0,263.0,3096.928
3096938.0,226.0,32.0,3.0,259.0,3096.938
3096948.0,228.0,32.0,4.0,257.0,3096.948
3096958.0,222.0,33.0,3.0,254.0,3096.958
3096968.0,227.0,32.0,4.0,260.0,3096.968
3096978.0,232.0,33.0,3.0,264.0,3096.978
3096988.0,228.0,32.0,5.0,258.0,3096.988
3096998.0,226.0,33.0,2.0,259.0,3096.998
3097008.0,220.0,32.0,3.0,251.0,3097.008
3097018.0,227.0,32.0,3.0,262.0,3097.018
3097028.0,233.0,33.0,3.0,264.0,3097.028
3097038.0,227.0,32.0,3.0,258.0,3097.038
3097048.0,228.0,33.0,4.0,259.0,3097.048
3097058.0,221.0,33.0,3.0,253.0,3097.058
3097068.0,228.0,33.0,4.0,264.0,3097.068
3097078.0,233.0,33.0,4.0,266.0,3097.078
3097088.0,227.0,33.0,3.0,262.0,3097.088
3097098.0,228.0,33.0,4.0,260.0,3097.098
3097108.0,219.0,33.0,3.0,252.0,3097.108
3097118.0,229.0,33.0,4.0,263.0,3097.118
3097128.0,232.0,33.0,3.0,265.0,3097.128
3097138.0,227.0,33.0,3.0,260.0,3097.138
3097148.0,227.0,33.0,3.0,260.0,3097.148
3097158.0,220.0,32.0,3.0,253.0,3097.158
3097168.0,229.0,32.0,4.0,264.0,3097.168
3097178.0,232.0,33.0,4.0,264.0,3097.178
3097188.0,226.0,33.0,3.0,258.0,3097.188
3097198.0,226.0,33.0,4.0,256.0,3097.198
3097208.0,220.0,33.0,3.0,253.0,3097.208
3097218.0,226.0,34.0,3.0,258.0,3097.218
3097228.0,232.0,32.0,4.0,263.0,3097.228
3097238.0,226.0,33.0,3.0,258.0,3097.238
3097248.0,228.0,33.0,4.0,259.0,3097.248
3097259.0,222.0,33.0,3.0,256.0,3097.259
3097269.0,230.0,32.0,4.0,265.0,3097.269
3097279.0,232.0,34.0,3.0,265.0,3097.279
3097289.0,223.0,32.0,3.0,256.0,3097.289
3097299.0,227.0,32.0,4.0,259.0,3097.299
3097309.0,224.0,33.0,5.0,257.0,3097.309
3097319.0,230.0,33.0,3.0,266.0,3097.319
3097329.0,231.0,33.0,4.0,263.0,3097.329
3097339.0,223.0,33.0,3.0,256.0,3097.339
3097349.0,226.0,33.0,3.0,258.0,3097.349
3097359.0,223.0,33.0,3.0,257.0,3097.359
3097369.0,229.0,33.0,4.0,263.0,3097.369
3097379.0,232.0,33.0,4.0,260.0,3097.379
3097389.0,224.0,33.0,4.0,255.0,3097.389
3097399.0,227.0,32.0,4.0,257.0,3097.399
3097409.0,225.0,33.0,3.0,258.0,3097.409
3097419.0,230.0,32.0,4.0,262.0,3097.419
3097430.0,230.0,33.0,3.0,260.0,3097.43
3097440.0,222.0,33.0,4.0,251.0,3097.44
3097450.0,224.0,33.0,4.0,255.0,3097.45
3097460.0,229.0,33.0,3.0,261.0,3097.46
3097470.0,226.0,33.0,3.0,258.0,3097.47
3097480.0,229.0,32.0,4.0,258.0,3097.48
3097490.0,220.0,32.0,3.0,249.0,3097.49
3097500.0,224.0,33.0,4.0,255.0,3097.5
3097510.0,230.0,33.0,4.0,262.0,3097.51
3097520.0,228.0,33.0,3.0,261.0,3097.52
3097530.0,229.0,33.0,3.0,258.0,3097.53
3097540.0,221.0,33.0,3.0,249.0,3097.54
3097550.0,226.0,32.0,4.0,256.0,3097.55
3097560.0,228.0,33.0,3.0,260.0,3097.56
3097570.0,230.0,33.0,4.0,259.0,3097.57
3097580.0,229.0,33.0,4.0,257.0,3097.58
3097590.0,221.0,32.0,4.0,249.0,3097.59
3097600.0,225.0,33.0,3.0,256.0,3097.6
3097610.0,229.0,32.0,3.0,261.0,3097.61
3097620.0,229.0,32.0,3.0,260.0,3097.62
3097630.0,230.0,32.0,5.0,257.0,3097.63
3097640.0,220.0,32.0,3.0,249.0,3097.64
3097650.0,226.0,32.0,4.0,254.0,3097.65
3097660.0,230.0,33.0,3.0,261.0,3097.66
3097670.0,228.0,32.0,3.0,258.0,3097.67
3097680.0,228.0,32.0,4.0,255.0,3097.68
3097690.0,220.0,32.0,3.0,249.0,3097.69
3097700.0,225.0,32.0,4.0,252.0,3097.7
3097710.0,229.0,32.0,3.0,260.0,3097.71
3097720.0,227.0,32.0,3.0,259.0,3097.72
3097730.0,229.0,33.0,3.0,259.0,3097.73
3097740.0,220.0,32.0,3.0,252.0,3097.74
3097750.0,224.0,33.0,4.0,257.0,3097.75
3097760.0,231.0,33.0,5.0,263.0,3097.76
3097771.0,226.0,32.0,2.0,259.0,3097.771
3097781.0,227.0,32.0,4.0,257.0,3097.781
3097791.0,218.0,33.0,3.0,250.0,3097.791
3097801.0,227.0,32.0,3.0,260.0,3097.801
3097811.0,233.0,33.0,4.0,264.0,3097.811
3097821.0,227.0,32.0,3.0,259.0,3097.821
3097831.0,228.0,32.0,4.0,257.0,3097.831
3097841.0,218.0,33.0,4.0,249.0,3097.841
3097851.0,227.0,33.0,3.0,261.0,3097.851
3097861.0,231.0,33.0,4.0,261.0,3097.861
3097871.0,226.0,32.0,4.0,257.0,3097.871
3097881.0,228.0,33.0,4.0,257.0,3097.881
3097891.0,221.0,33.0,4.0,252.0,3097.891
3097901.0,226.0,32.0,4.0,260.0,3097.901
3097911.0,232.0,33.0,3.0,264.0,3097.911
3097921.0,226.0,33.0,3.0,259.0,3097.921
3097931.0,228.0,32.0,3.0,257.0,3097.931
3097942.0,222.0,33.0,4.0,253.0,3097.942
3097952.0,231.0,33.0,4.0,262.0,3097.952
3097962.0,233.0,33.0,4.0,260.0,3097.962
3097972.0,223.0,33.0,4.0,252.0,3097.972
3097982.0,227.0,33.0,3.0,256.0,3097.982
3097992.0,223.0,33.0,4.0,254.0,3097.992
3098002.0,230.0,33.0,3.0,263.0,3098.002
3098012.0,233.0,33.0,4.0,261.0,3098.012
3098022.0,223.0,31.0,4.0,254.0,3098.022
3098032.0,228.0,33.0,4.0,259.0,3098.032
3098042.0,225.0,33.0,4.0,258.0,3098.042
3098052.0,231.0,33.0,3.0,265.0,3098.052
3098062.0,234.0,32.0,4.0,262.0,3098.062
3098072.0,226.0,33.0,3.0,257.0,3098.072
3098082.0,229.0,32.0,5.0,257.0,3098.082
3098092.0,227.0,32.0,4.0,259.0,3098.092
3098102.0,231.0,32.0,4.0,264.0,3098.102
3098112.0,234.0,32.0,4.0,264.0,3098.112
3098122.0,225.0,32.0,4.0,256.0,3098.122
3098132.0,229.0,32.0,4.0,258.0,3098.132
3098142.0,228.0,32.0,4.0,259.0,3098.142
