time (ms),signal 0,signal 1,signal 2,signal 3,time (sec)
3101858.0,228.0,32.0,3.0,256.0,3101.858
3101868.0,229.0,32.0,3.0,256.0,3101.868
3101878.0,227.0,32.0,3.0,251.0,3101.878
3101888.0,220.0,32.0,3.0,245.0,3101.888
3101898.0,222.0,32.0,3.0,248.0,3101.898
3101908.0,227.0,32.0,4.0,254.0,3101.908
3101918.0,228.0,32.0,4.0,253.0,3101.918
3101928.0,226.0,32.0,4.0,250.0,3101.928
3101938.0,218.0,32.0,4.0,242.0,3101.938
3101948.0,222.0,32.0,3.0,248.0,3101.948
3101958.0,225.0,33.0,3.0,251.0,3101.958
3101968.0,228.0,32.0,4.0,253.0,3101.968
3101978.0,225.0,33.0,3.0,250.0,3101.978
3101988.0,220.0,31.0,4.0,241.0,3101.988
3101998.0,223.0,33.0,3.0,247.0,3101.998
3102008.0,227.0,32.0,4.0,252.0,3102.008
3102018.0,228.0,34.0,3.0,253.0,3102.018
3102028.0,226.0,32.0,4.0,250.0,3102.028
3102038.0,222.0,33.0,3.0,247.0,3102.038
3102048.0,224.0,32.0,5.0,250.0,3102.048
3102058.0,228.0,33.0,3.0,259.0,3102.058
3102068.0,229.0,33.0,4.0,256.0,3102.068
3102078.0,227.0,33.0,3.0,253.0,3102.078
3102088.0,222.0,32.0,4.0,246.0,3102.088
3102098.0,224.0,32.0,4.0,250.0,3102.098
3102108.0,229.0,33.0,4.0,256.0,3102.108
3102118.0,229.0,33.0,3.0,255.0,3102.118
3102128.0,228.0,34.0,4.0,254.0,3102.128
3102138.0,222.0,33.0,4.0,246.0,3102.138
3102148.0,225.0,34.0,3.0,253.0,3102.148
3102158.0,231.0,32.0,3.0,258.0,3102.158
3102168.0,231.0,33.0,3.0,257.0,3102.168
3102178.0,230.0,33.0,5.0,253.0,3102.178
3102188.0,221.0,32.0,4.0,244.0,3102.188
3102198.0,225.0,33.0,3.0,251.0,3102.198
3102208.0,228.0,34.0,3.0,257.0,3102.208
3102218.0,230.0,33.0,3.0,258.0,3102.218
3102228.0,229.0,32.0,4.0,255.0,3102.228
3102238.0,221.0,33.0,4.0,246.0,3102.238
3102248.0,225.0,33.0,2.0,255.0,3102.248
3102258.0,228.0,33.0,4.0,257.0,3102.258
3102268.0,230.0,32.0,4.0,258.0,3102.268
3102278.0,229.0,34.0,3.0,255.0,3102.278
3102288.0,223.0,33.0,4.0,246.0,3102.288
3102298.0,227.0,33.0,3.0,253.0,3102.298
3102308.0,230.0,32.0,4.0,256.0,3102.308
3102318.0,230.0,33.0,4.0,253.0,3102.318
3102328.0,229.0,33.0,4.0,252.0,3102.328
3102338.0,224.0,33.0,4.0,249.0,3102.338
3102348.0,226.0,32.0,3.0,250.0,3102.348
3102358.0,233.0,33.0,4.0,257.0,3102.358
3102368.0,232.0,33.0,5.0,255.0,3102.368
3102379.0,229.0,33.0,3.0,252.0,3102.379
3102389.0,222.0,32.0,3.0,244.0,3102.389
3102399.0,230.0,33.0,3.0,257.0,3102.399
3102409.0,233.0,33.0,3.0,258.0,3102.409
3102419.0,229.0,32.0,4.0,253.0,3102.419
3102429.0,230.0,33.0,4.0,256.0,3102.429
3102439.0,224.0,32.0,4.0,248.0,3102.439
3102449.0,230.0,33.0,4.0,258.0,3102.449
3102459.0,234.0,33.0,4.0,260.0,3102.459
3102469.0,232.0,34.0,3.0,256.0,3102.469
3102479.0,230.0,32.0,4.0,254.0,3102.479
3102489.0,224.0,33.0,3.0,249.0,3102.489
3102499.0,236.0,33.0,5.0,263.0,3102.499
3102509.0,235.0,33.0,2.0,262.0,3102.509
3102519.0,233.0,32.0,3.0,257.0,3102.519
3102529.0,231.0,33.0,3.0,256.0,3102.529
3102539.0,226.0,32.0,3.0,250.0,3102.539
3102550.0,236.0,32.0,4.0,261.0,3102.55
3102560.0,235.0,33.0,4.0,258.0,3102.56
3102570.0,229.0,33.0,3.0,251.0,3102.57
3102580.0,230.0,32.0,3.0,254.0,3102.58
3102590.0,231.0,33.0,3.0,259.0,3102.59
3102600.0,235.0,33.0,3.0,263.0,3102.6
3102610.0,235.0,32.0,4.0,261.0,3102.61
3102620.0,229.0,32.0,4.0,252.0,3102.62
3102630.0,231.0,32.0,4.0,254.0,3102.63
3102640.0,228.0,33.0,3.0,256.0,3102.64
3102650.0,236.0,32.0,4.0,262.0,3102.65
3102660.0,235.0,33.0,3.0,260.0,3102.66
3102670.0,229.0,32.0,4.0,251.0,3102.67
3102680.0,230.0,33.0,3.0,251.0,3102.68
3102690.0,229.0,33.0,5.0,250.0,3102.69
3102700.0,236.0,33.0,3.0,257.0,3102.7
3102710.0,236.0,33.0,4.0,255.0,3102.71
3102720.0,232.0,32.0,4.0,250.0,3102.72
3102730.0,231.0,32.0,4.0,248.0,3102.73
3102740.0,231.0,32.0,4.0,250.0,3102.74
3102750.0,237.0,32.0,4.0,258.0,3102.75
3102760.0,236.0,33.0,4.0,255.0,3102.76
3102770.0,232.0,32.0,3.0,251.0,3102.77
3102780.0,232.0,33.0,3.0,253.0,3102.78
3102790.0,233.0,33.0,3.0,257.0,3102.79
3102800.0,239.0,33.0,4.0,262.0,3102.8
3102810.0,239.0,34.0,3.0,268.0,3102.81
3102820.0,235.0,32.0,5.0,259.0,3102.82
3102830.0,232.0,32.0,4.0,260.0,3102.83
3102840.0,235.0,33.0,4.0,262.0,3102.84
3102850.0,237.0,33.0,3.0,264.0,3102.85
3102860.0,237.0,33.0,4.0,263.0,3102.86
3102870.0,232.0,32.0,3.0,253.0,3102.87
3102880.0,233.0,33.0,4.0,256.0,3102.88
3102891.0,234.0,33.0,4.0,262.0,3102.891
3102901.0,237.0,32.0,4.0,261.0,3102.901
3102911.0,234.0,33.0,4.0,261.0,3102.911
3102921.0,228.0,33.0,4.0,252.0,3102.921
3102931.0,233.0,32.0,4.0,261.0,3102.931
3102941.0,236.0,33.0,4.0,264.0,3102.941
3102951.0,239.0,32.0,4.0,263.0,3102.951
3102961.0,235.0,33.0,3.0,261.0,3102.961
3102971.0,228.0,32.0,4.0,251.0,3102.971
3102981.0,229.0,33.0,3.0,256.0,3102.981
3102991.0,233.0,32.0,3.0,260.0,3102.991
3103001.0,233.0,32.0,3.0,260.0,3103.001
3103011.0,233.0,32.0,5.0,257.0,3103.011
3103021.0,228.0,32.0,4.0,254.0,3103.021
3103031.0,230.0,33.0,4.0,258.0,3103.031
3103041.0,234.0,33.0,4.0,265.0,3103.041
3103051.0,235.0,33.0,3.0,258.0,3103.051
3103062.0,232.0,32.0,4.0,259.0,3103.062
3103072.0,226.0,33.0,4.0,250.0,3103.072
3103082.0,234.0,31.0,4.0,260.0,3103.082
3103092.0,238.0,33.0,4.0,265.0,3103.092
3103102.0,234.0,32.0,4.0,259.0,3103.102
3103112.0,234.0,33.0,3.0,262.0,3103.112
3103122.0,229.0,32.0,4.0,253.0,3103.122
3103132.0,237.0,32.0,4.0,265.0,3103.132
3103142.0,240.0,33.0,4.0,264.0,3103.142
3103152.0,238.0,33.0,4.0,257.0,3103.152
3103162.0,234.0,33.0,4.0,256.0,3103.162
3103172.0,229.0,34.0,3.0,251.0,3103.172
3103182.0,238.0,32.0,4.0,260.0,3103.182
3103192.0,239.0,33.0,3.0,260.0,3103.192
3103202.0,236.0,33.0,4.0,251.0,3103.202
3103212.0,232.0,33.0,3.0,246.0,3103.212
3103222.0,232.0,33.0,3.0,262.0,3103.222
3103232.0,238.0,33.0,4.0,275.0,3103.232
3103242.0,241.0,34.0,3.0,284.0,3103.242
3103252.0,243.0,33.0,4.0,276.0,3103.252
3103262.0,245.0,33.0,4.0,273.0,3103.262
3103272.0,233.0,33.0,4.0,273.0,3103.272
3103282.0,227.0,33.0,2.0,276.0,3103.282
3103292.0,239.0,33.0,4.0,279.0,3103.292
3103302.0,248.0,34.0,3.0,273.0,3103.302
3103312.0,258.0,34.0,4.0,268.0,3103.312
3103322.0,271.0,39.0,3.0,262.0,3103.322
3103332.0,284.0,39.0,4.0,292.0,3103.332
3103342.0,269.0,38.0,3.0,269.0,3103.342
3103352.0,291.0,36.0,4.0,263.0,3103.352
3103362.0,296.0,37.0,3.0,272.0,3103.362
3103372.0,291.0,36.0,3.0,282.0,3103.372
3103382.0,298.0,35.0,4.0,299.0,3103.382
3103392.0,285.0,35.0,5.0,289.0,3103.392
3103403.0,284.0,35.0,4.0,301.0,3103.403
3103413.0,271.0,35.0,4.0,298.0,3103.413
3103423.0,271.0,34.0,4.0,290.0,3103.423
3103433.0,285.0,35.0,3.0,323.0,3103.433
3103443.0,277.0,34.0,4.0,331.0,3103.443
3103453.0,271.0,33.0,4.0,316.0,3103.453
3103463.0,266.0,33.0,4.0,324.0,3103.463
3103473.0,265.0,34.0,4.0,347.0,3103.473
3103483.0,268.0,33.0,4.0,338.0,3103.483
3103493.0,269.0,34.0,3.0,318.0,3103.493
3103503.0,264.0,32.0,4.0,311.0,3103.503
3103513.0,261.0,33.0,4.0,311.0,3103.513
3103523.0,265.0,33.0,4.0,314.0,3103.523
3103533.0,270.0,33.0,4.0,326.0,3103.533
3103543.0,264.0,33.0,4.0,318.0,3103.543
3103553.0,268.0,33.0,3.0,319.0,3103.553
3103563.0,272.0,33.0,3.0,343.0,3103.563
3103574.0,279.0,34.0,3.0,358.0,3103.574
3103584.0,289.0,33.0,4.0,354.0,3103.584
3103594.0,277.0,33.0,4.0,344.0,3103.594
3103604.0,262.0,32.0,4.0,322.0,3103.604
3103614.0,258.0,32.0,3.0,318.0,3103.614
3103624.0,267.0,34.0,3.0,321.0,3103.624
3103634.0,262.0,32.0,3.0,311.0,3103.634
3103644.0,255.0,33.0,3.0,309.0,3103.644
3103654.0,248.0,33.0,4.0,287.0,3103.654
3103664.0,248.0,33.0,3.0,303.0,3103.664
3103674.0,249.0,33.0,4.0,293.0,3103.674
3103684.0,249.0,33.0,3.0,279.0,3103.684
3103694.0,249.0,32.0,3.0,298.0,3103.694
3103704.0,240.0,32.0,4.0,290.0,3103.704
3103714.0,246.0,32.0,4.0,301.0,3103.714
3103724.0,255.0,32.0,4.0,315.0,3103.724
3103734.0,252.0,32.0,4.0,300.0,3103.734
3103744.0,254.0,33.0,3.0,335.0,3103.744
3103754.0,246.0,32.0,4.0,335.0,3103.754
3103764.0,253.0,32.0,3.0,354.0,3103.764
3103774.0,261.0,33.0,3.0,385.0,3103.774
3103784.0,262.0,33.0,3.0,371.0,3103.784
3103794.0,256.0,33.0,3.0,371.0,3103.794
3103804.0,247.0,32.0,4.0,370.0,3103.804
3103814.0,252.0,33.0,3.0,378.0,3103.814
3103824.0,263.0,32.0,4.0,386.0,3103.824
3103834.0,256.0,32.0,4.0,365.0,3103.834
3103844.0,249.0,32.0,4.0,338.0,3103.844
3103854.0,241.0,31.0,4.0,303.0,3103.854
3103864.0,244.0,32.0,3.0,309.0,3103.864
3103874.0,243.0,32.0,4.0,293.0,3103.874
3103884.0,246.0,32.0,3.0,274.0,3103.884
3103894.0,245.0,32.0,3.0,280.0,3103.894
3103904.0,236.0,32.0,4.0,263.0,3103.904
3103915.0,234.0,31.0,4.0,276.0,3103.915
3103925.0,240.0,31.0,3.0,280.0,3103.925
3103935.0,236.0,30.0,4.0,266.0,3103.935
3103945.0,233.0,33.0,3.0,268.0,3103.945
3103955.0,229.0,31.0,3.0,281.0,3103.955
3103965.0,233.0,31.0,4.0,287.0,3103.965
3103975.0,241.0,31.0,5.0,286.0,3103.975
3103985.0,236.0,31.0,2.0,290.0,3103.985
3103995.0,237.0,31.0,4.0,297.0,3103.995
3104005.0,234.0,32.0,3.0,295.0,3104.005
3104015.0,249.0,32.0,4.0,302.0,3104.015
3104025.0,251.0,32.0,3.0,317.0,3104.025
3104035.0,239.0,32.0,4.0,305.0,3104.035
3104045.0,238.0,31.0,3.0,299.0,3104.045
3104055.0,230.0,31.0,4.0,293.0,3104.055
3104065.0,236.0,31.0,4.0,303.0,3104.065
3104075.0,243.0,32.0,3.0,291.0,3104.075
3104086.0,245.0,30.0,4.0,271.0,3104.086
3104096.0,246.0,31.0,4.0,284.0,3104.096
3104106.0,247.0,31.0,5.0,302.0,3104.106
3104116.0,247.0,31.0,2.0,305.0,3104.116
3104126.0,244.0,31.0,4.0,301.0,3104.126
3104136.0,240.0,31.0,4.0,286.0,3104.136
3104146.0,241.0,30.0,3.0,296.0,3104.146
3104156.0,239.0,31.0,3.0,294.0,3104.156
3104166.0,250.0,31.0,5.0,304.0,3104.166
3104176.0,246.0,32.0,3.0,329.0,3104.176
3104186.0,243.0,31.0,4.0,329.0,3104.186
3104196.0,247.0,32.0,4.0,333.0,3104.196
3104206.0,246.0,32.0,4.0,330.0,3104.206
3104216.0,249.0,32.0,3.0,330.0,3104.216
3104226.0,248.0,32.0,3.0,331.0,3104.226
3104236.0,239.0,31.0,4.0,319.0,3104.236
3104246.0,239.0,31.0,3.0,320.0,3104.246
3104256.0,238.0,31.0,4.0,320.0,3104.256
3104266.0,242.0,32.0,3.0,316.0,3104.266
3104276.0,236.0,31.0,4.0,311.0,3104.276
3104286.0,236.0,31.0,4.0,307.0,3104.286
3104296.0,243.0,31.0,4.0,320.0,3104.296
3104306.0,239.0,31.0,4.0,317.0,3104.306
3104316.0,248.0,31.0,3.0,318.0,3104.316
3104326.0,254.0,32.0,3.0,316.0,3104.326
3104336.0,245.0,30.0,4.0,295.0,3104.336
3104346.0,246.0,32.0,3.0,296.0,3104.346
3104356.0,247.0,31.0,4.0,291.0,3104.356
3104366.0,252.0,31.0,2.0,294.0,3104.366
3104376.0,246.0,31.0,4.0,288.0,3104.376
3104386.0,241.0,31.0,4.0,270.0,3104.386
3104396.0,244.0,32.0,3.0,262.0,3104.396
3104406.0,242.0,30.0,3.0,266.0,3104.406
3104416.0,247.0,31.0,3.0,272.0,3104.416
3104427.0,252.0,31.0,5.0,265.0,3104.427
3104437.0,242.0,31.0,4.0,267.0,3104.437
3104447.0,239.0,31.0,4.0,264.0,3104.447
3104457.0,242.0,33.0,3.0,267.0,3104.457
3104467.0,240.0,32.0,3.0,256.0,3104.467
3104477.0,241.0,32.0,3.0,265.0,3104.477
3104487.0,234.0,31.0,5.0,250.0,3104.487
3104497.0,239.0,31.0,3.0,257.0,3104.497
3104507.0,243.0,32.0,4.0,268.0,3104.507
3104517.0,241.0,31.0,4.0,259.0,3104.517
3104527.0,246.0,31.0,3.0,254.0,3104.527
3104537.0,241.0,30.0,4.0,245.0,3104.537
3104547.0,241.0,32.0,3.0,251.0,3104.547
3104557.0,246.0,31.0,4.0,268.0,3104.557
3104567.0,246.0,31.0,3.0,274.0,3104.567
3104577.0,242.0,32.0,3.0,265.0,3104.577
3104587.0,232.0,32.0,3.0,249.0,3104.587
3104598.0,239.0,32.0,3.0,261.0,3104.598
3104608.0,244.0,32.0,4.0,269.0,3104.608
3104618.0,241.0,31.0,5.0,298.0,3104.618
3104628.0,234.0,32.0,4.0,298.0,3104.628
3104638.0,233.0,32.0,4.0,294.0,3104.638
3104648.0,235.0,32.0,3.0,297.0,3104.648
3104658.0,240.0,32.0,3.0,290.0,3104.658
3104668.0,239.0,32.0,3.0,283.0,3104.668
3104678.0,243.0,32.0,4.0,306.0,3104.678
3104688.0,236.0,32.0,3.0,291.0,3104.688
3104698.0,248.0,32.0,3.0,309.0,3104.698
3104708.0,251.0,32.0,3.0,312.0,3104.708
3104718.0,243.0,32.0,4.0,316.0,3104.718
3104728.0,242.0,32.0,3.0,317.0,3104.728
3104738.0,241.0,32.0,4.0,314.0,3104.738
3104748.0,248.0,32.0,4.0,326.0,3104.748
3104758.0,251.0,33.0,4.0,330.0,3104.758
3104768.0,246.0,32.0,4.0,319.0,3104.768
3104778.0,241.0,33.0,3.0,314.0,3104.778
3104788.0,242.0,32.0,3.0,313.0,3104.788
3104798.0,252.0,32.0,3.0,329.0,3104.798
3104808.0,250.0,32.0,5.0,328.0,3104.808
3104818.0,246.0,32.0,3.0,314.0,3104.818
3104828.0,242.0,32.0,3.0,303.0,3104.828
3104838.0,242.0,33.0,3.0,299.0,3104.838
3104848.0,253.0,32.0,3.0,306.0,3104.848
3104858.0,258.0,33.0,4.0,304.0,3104.858
3104868.0,249.0,32.0,4.0,287.0,3104.868
3104878.0,246.0,31.0,4.0,292.0,3104.878
3104888.0,239.0,32.0,4.0,279.0,3104.888
3104898.0,250.0,32.0,4.0,268.0,3104.898
3104908.0,251.0,33.0,3.0,276.0,3104.908
3104918.0,248.0,32.0,4.0,267.0,3104.918
3104928.0,249.0,32.0,4.0,274.0,3104.928
3104939.0,250.0,32.0,5.0,269.0,3104.939
3104949.0,255.0,32.0,4.0,276.0,3104.949
3104959.0,251.0,32.0,4.0,267.0,3104.959
3104969.0,244.0,33.0,3.0,271.0,3104.969
3104979.0,243.0,32.0,3.0,274.0,3104.979
3104989.0,239.0,32.0,4.0,267.0,3104.989
3104999.0,249.0,33.0,4.0,271.0,3104.999
3105009.0,248.0,31.0,4.0,279.0,3105.009
3105019.0,240.0,32.0,4.0,267.0,3105.019
3105029.0,242.0,32.0,3.0,271.0,3105.029
3105039.0,237.0,32.0,4.0,277.0,3105.039
3105049.0,245.0,32.0,3.0,267.0,3105.049
3105059.0,249.0,33.0,3.0,261.0,3105.059
3105069.0,245.0,32.0,5.0,254.0,3105.069
3105079.0,248.0,32.0,3.0,267.0,3105.079
3105089.0,245.0,32.0,4.0,260.0,3105.089
3105099.0,244.0,33.0,3.0,258.0,3105.099
3105110.0,241.0,32.0,4.0,266.0,3105.11
3105120.0,233.0,32.0,3.0,264.0,3105.12
3105130.0,232.0,32.0,4.0,273.0,3105.13
3105140.0,238.0,32.0,4.0,269.0,3105.14
3105150.0,238.0,32.0,3.0,263.0,3105.15
3105160.0,239.0,33.0,3.0,266.0,3105.16
3105170.0,230.0,32.0,3.0,247.0,3105.17
3105180.0,230.0,32.0,4.0,251.0,3105.18
3105190.0,248.0,33.0,4.0,264.0,3105.19
3105200.0,251.0,33.0,4.0,267.0,3105.2
3105210.0,247.0,33.0,4.0,264.0,3105.21
3105220.0,238.0,33.0,4.0,248.0,3105.22
3105230.0,238.0,33.0,4.0,258.0,3105.23
3105240.0,239.0,33.0,3.0,260.0,3105.24
3105250.0,235.0,33.0,3.0,260.0,3105.25
3105260.0,235.0,33.0,4.0,261.0,3105.26
3105270.0,231.0,33.0,4.0,249.0,3105.27
3105280.0,239.0,33.0,4.0,250.0,3105.28
3105290.0,241.0,34.0,3.0,267.0,3105.29
3105300.0,238.0,32.0,4.0,262.0,3105.3
3105310.0,233.0,33.0,3.0,263.0,3105.31
3105320.0,229.0,33.0,4.0,269.0,3105.32
3105330.0,240.0,32.0,4.0,281.0,3105.33
3105340.0,247.0,33.0,3.0,291.0,3105.34
3105350.0,248.0,33.0,3.0,285.0,3105.35
3105360.0,245.0,34.0,3.0,283.0,3105.36
3105370.0,241.0,32.0,4.0,276.0,3105.37
3105380.0,244.0,33.0,4.0,281.0,3105.38
3105390.0,252.0,33.0,4.0,287.0,3105.39
3105400.0,249.0,33.0,4.0,284.0,3105.4
3105410.0,251.0,33.0,5.0,289.0,3105.41
3105420.0,239.0,34.0,3.0,273.0,3105.42
3105430.0,242.0,32.0,4.0,276.0,3105.43
3105440.0,247.0,33.0,3.0,280.0,3105.44
3105451.0,243.0,33.0,4.0,270.0,3105.451
3105461.0,241.0,33.0,4.0,269.0,3105.461
3105471.0,232.0,33.0,4.0,259.0,3105.471
3105481.0,241.0,33.0,3.0,270.0,3105.481
3105491.0,243.0,34.0,3.0,268.0,3105.491
3105501.0,239.0,33.0,4.0,262.0,3105.501
3105511.0,237.0,33.0,4.0,264.0,3105.511
3105521.0,229.0,33.0,4.0,257.0,3105.521
3105531.0,237.0,33.0,4.0,264.0,3105.531
3105541.0,239.0,32.0,4.0,266.0,3105.541
3105551.0,235.0,32.0,3.0,262.0,3105.551
3105561.0,235.0,33.0,4.0,263.0,3105.561
3105571.0,228.0,33.0,4.0,256.0,3105.571
3105581.0,235.0,33.0,4.0,261.0,3105.581
3105591.0,238.0,34.0,4.0,265.0,3105.591
3105601.0,231.0,33.0,4.0,256.0,3105.601
3105611.0,232.0,34.0,3.0,260.0,3105.611
3105622.0,229.0,32.0,3.0,255.0,3105.622
3105632.0,237.0,32.0,3.0,263.0,3105.632
3105642.0,239.0,33.0,4.0,264.0,3105.642
3105652.0,230.0,32.0,4.0,253.0,3105.652
3105662.0,232.0,33.0,3.0,256.0,3105.662
3105672.0,231.0,33.0,3.0,258.0,3105.672
3105682.0,237.0,33.0,3.0,266.0,3105.682
3105692.0,238.0,32.0,3.0,265.0,3105.692
3105702.0,229.0,32.0,4.0,256.0,3105.702
3105712.0,233.0,32.0,4.0,258.0,3105.712
3105722.0,230.0,33.0,2.0,261.0,3105.722
3105732.0,236.0,32.0,3.0,266.0,3105.732
3105742.0,236.0,33.0,3.0,263.0,3105.742
3105752.0,229.0,33.0,3.0,253.0,3105.752
3105762.0,230.0,32.0,4.0,258.0,3105.762
3105772.0,229.0,32.0,5.0,259.0,3105.772
3105782.0,234.0,31.0,2.0,260.0,3105.782
3105792.0,235.0,32.0,5.0,260.0,3105.792
3105802.0,227.0,32.0,3.0,252.0,3105.802
3105812.0,228.0,32.0,3.0,249.0,3105.812
3105822.0,229.0,31.0,4.0,255.0,3105.822
3105832.0,233.0,32.0,5.0,257.0,3105.832
3105842.0,234.0,32.0,4.0,256.0,3105.842
3105852.0,224.0,31.0,3.0,248.0,3105.852
3105862.0,227.0,32.0,4.0,251.0,3105.862
3105872.0,229.0,33.0,3.0,256.0,3105.872
3105882.0,230.0,31.0,4.0,258.0,3105.882
3105892.0,231.0,32.0,3.0,256.0,3105.892
3105902.0,223.0,32.0,3.0,250.0,3105.902
3105912.0,226.0,31.0,3.0,253.0,3105.912
3105922.0,224.0,31.0,3.0,253.0,3105.922
3105932.0,230.0,32.0,3.0,261.0,3105.932
3105942.0,232.0,31.0,4.0,258.0,3105.942
3105952.0,222.0,31.0,3.0,252.0,3105.952
3105963.0,225.0,31.0,3.0,255.0,3105.963
3105973.0,230.0,31.0,4.0,259.0,3105.973
3105983.0,229.0,30.0,4.0,258.0,3105.983
3105993.0,228.0,32.0,3.0,257.0,3105.993
3106003.0,219.0,31.0,3.0,247.0,3106.003
3106013.0,225.0,30.0,4.0,253.0,3106.013
3106023.0,230.0,30.0,4.0,258.0,3106.023
3106033.0,229.0,31.0,4.0,257.0,3106.033
3106043.0,228.0,30.0,2.0,255.0,3106.043
3106053.0,222.0,30.0,4.0,250.0,3106.053
3106063.0,224.0,31.0,3.0,257.0,3106.063
3106073.0,231.0,30.0,4.0,262.0,3106.073
3106083.0,228.0,30.0,4.0,259.0,3106.083
3106093.0,229.0,30.0,4.0,259.0,3106.093
3106103.0,221.0,30.0,4.0,251.0,3106.103
3106113.0,225.0,29.0,4.0,256.0,3106.113
3106123.0,231.0,31.0,3.0,261.0,3106.123
3106134.0,227.0,30.0,4.0,256.0,3106.134
3106144.0,226.0,30.0,4.0,254.0,3106.144
3106154.0,220.0,30.0,4.0,250.0,3106.154
3106164.0,228.0,30.0,4.0,260.0,3106.164
3106174.0,230.0,31.0,4.0,261.0,3106.174
3106184.0,226.0,29.0,3.0,258.0,3106.184
3106194.0,226.0,31.0,3.0,256.0,3106.194
3106204.0,220.0,30.0,3.0,252.0,3106.204
3106214.0,229.0,31.0,3.0,261.0,3106.214
3106224.0,233.0,31.0,4.0,265.0,3106.224
3106234.0,227.0,31.0,4.0,259.0,3106.234
3106244.0,227.0,31.0,3.0,259.0,3106.244
3106254.0,223.0,31.0,3.0,256.0,3106.254
3106264.0,228.0,31.0,4.0,261.0,3106.264
3106274.0,232.0,31.0,4.0,264.0,3106.274
3106284.0,227.0,31.0,5.0,257.0,3106.284
3106294.0,226.0,31.0,2.0,257.0,3106.294
3106304.0,220.0,31.0,5.0,249.0,3106.304
3106314.0,228.0,32.0,3.0,259.0,3106.314
3106324.0,232.0,32.0,3.0,260.0,3106.324
3106334.0,226.0,31.0,4.0,255.0,3106.334
3106344.0,226.0,32.0,4.0,255.0,3106.344
3106354.0,221.0,31.0,4.0,248.0,3106.354
3106364.0,229.0,32.0,3.0,260.0,3106.364
3106374.0,233.0,32.0,4.0,261.0,3106.374
3106384.0,227.0,32.0,3.0,255.0,3106.384
3106394.0,228.0,32.0,4.0,255.0,3106.394
3106404.0,221.0,32.0,3.0,250.0,3106.404
3106414.0,230.0,32.0,3.0,259.0,3106.414
3106424.0,233.0,32.0,2.0,260.0,3106.424
3106434.0,229.0,32.0,3.0,255.0,3106.434
3106444.0,228.0,33.0,3.0,255.0,3106.444
3106454.0,222.0,32.0,3.0,250.0,3106.454
3106464.0,231.0,32.0,3.0,260.0,3106.464
3106475.0,233.0,33.0,4.0,259.0,3106.475
3106485.0,226.0,32.0,4.0,252.0,3106.485
3106495.0,227.0,33.0,4.0,255.0,3106.495
3106505.0,229.0,33.0,3.0,260.0,3106.505
3106515.0,232.0,34.0,3.0,262.0,3106.515
3106525.0,233.0,32.0,3.0,262.0,3106.525
3106535.0,224.0,32.0,3.0,253.0,3106.535
3106545.0,227.0,33.0,3.0,254.0,3106.545
3106555.0,228.0,33.0,4.0,258.0,3106.555
3106565.0,231.0,32.0,4.0,261.0,3106.565
3106575.0,231.0,35.0,3.0,259.0,3106.575
3106585.0,224.0,32.0,3.0,251.0,3106.585
3106595.0,227.0,33.0,4.0,254.0,3106.595
3106605.0,225.0,34.0,5.0,254.0,3106.605
3106615.0,232.0,33.0,4.0,263.0,3106.615
3106625.0,231.0,34.0,4.0,261.0,3106.625
3106635.0,224.0,33.0,4.0,254.0,3106.635
3106646.0,226.0,34.0,3.0,256.0,3106.646
3106656.0,231.0,33.0,3.0,262.0,3106.656
3106666.0,231.0,33.0,4.0,260.0,3106.666
3106676.0,230.0,34.0,3.0,257.0,3106.676
3106686.0,222.0,33.0,3.0,248.0,3106.686
3106696.0,227.0,33.0,4.0,255.0,3106.696
3106706.0,232.0,35.0,3.0,260.0,3106.706
3106716.0,231.0,32.0,3.0,258.0,3106.716
3106726.0,228.0,34.0,3.0,255.0,3106.726
3106736.0,223.0,33.0,4.0,250.0,3106.736
3106746.0,226.0,33.0,4.0,255.0,3106.746
3106756.0,231.0,33.0,3.0,260.0,3106.756
3106766.0,229.0,34.0,3.0,258.0,3106.766
3106776.0,229.0,33.0,3.0,257.0,3106.776
3106786.0,222.0,33.0,4.0,249.0,3106.786
3106796.0,227.0,33.0,4.0,255.0,3106.796
3106806.0,232.0,33.0,3.0,260.0,3106.806
3106816.0,231.0,33.0,4.0,258.0,3106.816
3106826.0,229.0,33.0,4.0,256.0,3106.826
3106836.0,222.0,33.0,3.0,247.0,3106.836
3106846.0,226.0,32.0,4.0,254.0,3106.846
3106856.0,231.0,33.0,4.0,258.0,3106.856
3106866.0,231.0,33.0,4.0,256.0,3106.866
3106876.0,228.0,33.0,4.0,255.0,3106.876
3106886.0,221.0,33.0,4.0,245.0,3106.886
3106896.0,227.0,33.0,3.0,255.0,3106.896
3106906.0,230.0,32.0,4.0,256.0,3106.906
3106916.0,229.0,32.0,4.0,254.0,3106.916
3106926.0,228.0,33.0,5.0,253.0,3106.926
3106936.0,222.0,33.0,4.0,247.0,3106.936
3106946.0,226.0,33.0,3.0,253.0,3106.946
3106956.0,232.0,33.0,3.0,259.0,3106.956
3106966.0,230.0,32.0,3.0,257.0,3106.966
3106976.0,229.0,32.0,4.0,254.0,3106.976
3106987.0,221.0,33.0,4.0,246.0,3106.987
3106997.0,229.0,32.0,4.0,257.0,3106.997
3107007.0,232.0,33.0,4.0,259.0,3107.007
3107017.0,227.0,32.0,3.0,253.0,3107.017
3107027.0,227.0,33.0,3.0,254.0,3107.027
3107037.0,220.0,32.0,3.0,248.0,3107.037
3107047.0,229.0,33.0,3.0,257.0,3107.047
3107057.0,233.0,33.0,5.0,259.0,3107.057
3107067.0,226.0,33.0,3.0,252.0,3107.067
3107077.0,228.0,33.0,4.0,254.0,3107.077
3107087.0,222.0,34.0,3.0,251.0,3107.087
3107097.0,230.0,32.0,4.0,260.0,3107.097
3107107.0,233.0,32.0,4.0,260.0,3107.107
3107117.0,228.0,33.0,4.0,256.0,3107.117
3107127.0,228.0,32.0,4.0,255.0,3107.127
3107137.0,221.0,33.0,4.0,250.0,3107.137
3107147.0,230.0,32.0,4.0,260.0,3107.147
3107158.0,231.0,33.0,3.0,258.0,3107.158
3107168.0,225.0,32.0,4.0,249.0,3107.168
3107178.0,227.0,33.0,4.0,252.0,3107.178
3107188.0,229.0,31.0,4.0,255.0,3107.188
3107198.0,231.0,32.0,2.0,258.0,3107.198
3107208.0,233.0,33.0,3.0,259.0,3107.208
3107218.0,226.0,33.0,3.0,251.0,3107.218
3107228.0,227.0,32.0,4.0,254.0,3107.228
3107238.0,229.0,32.0,4.0,257.0,3107.238
3107248.0,232.0,32.0,4.0,260.0,3107.248
3107258.0,232.0,33.0,4.0,257.0,3107.258
3107268.0,224.0,32.0,4.0,249.0,3107.268
3107278.0,227.0,33.0,3.0,253.0,3107.278
3107288.0,227.0,32.0,4.0,253.0,3107.288
3107298.0,233.0,32.0,4.0,260.0,3107.298
3107308.0,233.0,33.0,4.0,257.0,3107.308
3107318.0,226.0,31.0,4.0,249.0,3107.318
3107328.0,228.0,32.0,4.0,253.0,3107.328
3107338.0,227.0,33.0,4.0,255.0,3107.338
3107348.0,233.0,33.0,3.0,259.0,3107.348
3107358.0,232.0,32.0,4.0,257.0,3107.358
3107368.0,225.0,32.0,4.0,249.0,3107.368
3107378.0,229.0,32.0,3.0,254.0,3107.378
3107388.0,229.0,33.0,2.0,257.0,3107.388
3107398.0,232.0,33.0,3.0,261.0,3107.398
3107408.0,230.0,34.0,3.0,258.0,3107.408
3107418.0,225.0,32.0,3.0,250.0,3107.418
3107428.0,227.0,32.0,3.0,252.0,3107.428
3107438.0,228.0,33.0,4.0,255.0,3107.438
3107448.0,231.0,32.0,4.0,259.0,3107.448
3107458.0,233.0,33.0,4.0,259.0,3107.458
3107468.0,225.0,33.0,3.0,252.0,3107.468
3107478.0,227.0,33.0,3.0,253.0,3107.478
3107488.0,230.0,32.0,4.0,257.0,3107.488
3107499.0,230.0,33.0,3.0,257.0,3107.499
3107509.0,230.0,33.0,4.0,254.0,3107.509
3107519.0,221.0,32.0,2.0,246.0,3107.519
3107529.0,227.0,32.0,4.0,255.0,3107.529
3107539.0,232.0,33.0,3.0,260.0,3107.539
3107549.0,230.0,32.0,3.0,256.0,3107.549
3107559.0,229.0,33.0,3.0,254.0,3107.559
3107569.0,221.0,33.0,4.0,245.0,3107.569
3107579.0,227.0,33.0,4.0,255.0,3107.579
3107589.0,230.0,33.0,4.0,258.0,3107.589
3107599.0,229.0,33.0,3.0,257.0,3107.599
3107609.0,227.0,33.0,3.0,254.0,3107.609
3107619.0,219.0,32.0,3.0,246.0,3107.619
3107629.0,225.0,33.0,2.0,252.0,3107.629
3107639.0,231.0,33.0,4.0,256.0,3107.639
3107649.0,229.0,33.0,3.0,255.0,3107.649
3107659.0,228.0,33.0,3.0,253.0,3107.659
3107670.0,220.0,33.0,3.0,245.0,3107.67
3107680.0,230.0,32.0,4.0,257.0,3107.68
3107690.0,232.0,33.0,4.0,258.0,3107.69
3107700.0,227.0,33.0,5.0,251.0,3107.7
3107710.0,227.0,33.0,3.0,252.0,3107.71
3107720.0,221.0,33.0,3.0,245.0,3107.72
3107730.0,231.0,33.0,3.0,259.0,3107.73
3107740.0,232.0,32.0,4.0,257.0,3107.74
3107750.0,224.0,33.0,3.0,250.0,3107.75
3107760.0,228.0,32.0,4.0,251.0,3107.76
3107770.0,221.0,32.0,4.0,247.0,3107.77
3107780.0,230.0,32.0,4.0,259.0,3107.78
3107790.0,232.0,33.0,3.0,259.0,3107.79
3107800.0,227.0,32.0,3.0,254.0,3107.8
3107810.0,227.0,32.0,4.0,252.0,3107.81
3107820.0,221.0,32.0,4.0,249.0,3107.82
3107830.0,231.0,32.0,4.0,258.0,3107.83
3107840.0,231.0,33.0,2.0,258.0,3107.84
3107850.0,225.0,32.0,3.0,253.0,3107.85
3107860.0,226.0,33.0,3.0,254.0,3107.86
3107870.0,222.0,32.0,3.0,251.0,3107.87
3107880.0,229.0,32.0,3.0,259.0,3107.88
3107890.0,232.0,32.0,4.0,259.0,3107.89
3107900.0,224.0,32.0,4.0,253.0,3107.9
3107910.0,226.0,33.0,3.0,253.0,3107.91
3107920.0,223.0,33.0,3.0,254.0,3107.92
3107930.0,227.0,32.0,3.0,258.0,3107.93
3107940.0,232.0,33.0,3.0,263.0,3107.94
3107950.0,224.0,32.0,4.0,255.0,3107.95
3107960.0,226.0,32.0,4.0,255.0,3107.96
3107970.0,219.0,32.0,3.0,251.0,3107.97
3107980.0,227.0,32.0,4.0,261.0,3107.98
3107990.0,231.0,33.0,3.0,261.0,3107.99
3108000.0,223.0,32.0,3.0,254.0,3108.0
3108011.0,225.0,33.0,3.0,255.0,3108.011
3108021.0,226.0,32.0,4.0,257.0,3108.021
3108031.0,229.0,32.0,4.0,261.0,3108.031
3108041.0,230.0,32.0,4.0,258.0,3108.041
3108051.0,221.0,33.0,3.0,251.0,3108.051
3108061.0,225.0,32.0,4.0,254.0,3108.061
3108071.0,226.0,32.0,4.0,256.0,3108.071
3108081.0,230.0,32.0,5.0,259.0,3108.081
3108091.0,229.0,32.0,4.0,257.0,3108.091
3108101.0,223.0,32.0,4.0,251.0,3108.101
3108111.0,225.0,32.0,4.0,253.0,3108.111
3108121.0,227.0,33.0,3.0,257.0,3108.121
3108131.0,229.0,32.0,4.0,259.0,3108.131
3108141.0,232.0,31.0,4.0,259.0,3108.141
3108151.0,223.0,31.0,4.0,251.0,3108.151
3108161.0,225.0,33.0,2.0,253.0,3108.161
3108171.0,229.0,32.0,4.0,259.0,3108.171
3108182.0,229.0,33.0,3.0,260.0,3108.182
3108192.0,229.0,32.0,3.0,256.0,3108.192
3108202.0,220.0,32.0,3.0,247.0,3108.202
3108212.0,227.0,32.0,5.0,256.0,3108.212
3108222.0,232.0,33.0,2.0,262.0,3108.222
3108232.0,229.0,32.0,4.0,258.0,3108.232
3108242.0,228.0,33.0,3.0,257.0,3108.242
3108252.0,220.0,32.0,4.0,248.0,3108.252
3108262.0,227.0,32.0,3.0,258.0,3108.262
3108272.0,229.0,32.0,5.0,260.0,3108.272
3108282.0,229.0,31.0,4.0,259.0,3108.282
3108292.0,227.0,32.0,4.0,257.0,3108.292
3108302.0,218.0,32.0,3.0,250.0,3108.302
3108312.0,224.0,33.0,3.0,254.0,3108.312
3108322.0,230.0,32.0,4.0,259.0,3108.322
3108332.0,227.0,32.0,4.0,257.0,3108.332
3108342.0,227.0,32.0,4.0,255.0,3108.342
3108352.0,220.0,32.0,3.0,248.0,3108.352
3108362.0,225.0,32.0,4.0,253.0,3108.362
3108372.0,230.0,33.0,3.0,260.0,3108.372
3108382.0,228.0,32.0,4.0,255.0,3108.382
3108392.0,227.0,32.0,3.0,254.0,3108.392
3108402.0,221.0,32.0,4.0,247.0,3108.402
3108412.0,226.0,31.0,4.0,256.0,3108.412
3108422.0,231.0,32.0,4.0,260.0,3108.422
3108432.0,227.0,33.0,3.0,256.0,3108.432
3108442.0,229.0,33.0,3.0,255.0,3108.442
3108452.0,221.0,32.0,3.0,248.0,3108.452
3108462.0,227.0,33.0,4.0,257.0,3108.462
3108472.0,234.0,33.0,4.0,262.0,3108.472
3108482.0,230.0,32.0,4.0,258.0,3108.482
3108492.0,229.0,32.0,4.0,256.0,3108.492
3108502.0,220.0,33.0,3.0,249.0,3108.502
3108512.0,227.0,32.0,4.0,256.0,3108.512
3108523.0,232.0,32.0,3.0,260.0,3108.523
3108533.0,228.0,32.0,5.0,255.0,3108.533
3108543.0,226.0,32.0,4.0,254.0,3108.543
3108553.0,223.0,31.0,4.0,252.0,3108.553
3108563.0,231.0,32.0,3.0,260.0,3108.563
3108573.0,232.0,32.0,4.0,260.0,3108.573
3108583.0,226.0,31.0,4.0,253.0,3108.583
3108593.0,227.0,31.0,4.0,254.0,3108.593
3108603.0,225.0,31.0,3.0,254.0,3108.603
3108613.0,228.0,31.0,4.0,259.0,3108.613
3108623.0,232.0,31.0,3.0,261.0,3108.623
3108633.0,225.0,32.0,3.0,254.0,3108.633
3108643.0,226.0,30.0,4.0,255.0,3108.643
3108653.0,221.0,30.0,4.0,251.0,3108.653
3108663.0,232.0,31.0,5.0,262.0,3108.663
3108673.0,233.0,31.0,4.0,260.0,3108.673
3108683.0,225.0,31.0,4.0,253.0,3108.683
3108694.0,227.0,32.0,3.0,254.0,3108.694
3108704.0,227.0,30.0,4.0,254.0,3108.704
3108714.0,231.0,30.0,4.0,259.0,3108.714
3108724.0,231.0,31.0,5.0,255.0,3108.724
3108734.0,222.0,31.0,4.0,250.0,3108.734
3108744.0,226.0,31.0,4.0,253.0,3108.744
3108754.0,228.0,32.0,4.0,258.0,3108.754
3108764.0,231.0,30.0,3.0,260.0,3108.764
3108774.0,230.0,31.0,4.0,256.0,3108.774
3108784.0,223.0,31.0,4.0,251.0,3108.784
3108794.0,226.0,31.0,4.0,253.0,3108.794
3108804.0,228.0,31.0,4.0,257.0,3108.804
3108814.0,229.0,31.0,4.0,260.0,3108.814
3108824.0,232.0,33.0,3.0,260.0,3108.824
3108834.0,223.0,30.0,4.0,253.0,3108.834
3108844.0,225.0,31.0,3.0,255.0,3108.844
3108854.0,230.0,31.0,5.0,262.0,3108.854
3108864.0,231.0,31.0,4.0,264.0,3108.864
3108874.0,231.0,32.0,4.0,258.0,3108.874
3108884.0,222.0,31.0,3.0,255.0,3108.884
3108894.0,225.0,30.0,3.0,256.0,3108.894
3108904.0,230.0,31.0,4.0,263.0,3108.904
3108914.0,230.0,31.0,4.0,263.0,3108.914
3108924.0,231.0,31.0,4.0,258.0,3108.924
3108934.0,222.0,31.0,3.0,251.0,3108.934
3108944.0,225.0,31.0,4.0,256.0,3108.944
3108954.0,226.0,32.0,3.0,260.0,3108.954
3108964.0,230.0,31.0,3.0,263.0,3108.964
3108974.0,229.0,32.0,4.0,259.0,3108.974
3108984.0,223.0,30.0,4.0,254.0,3108.984
3108994.0,227.0,31.0,3.0,258.0,3108.994
3109004.0,228.0,31.0,3.0,261.0,3109.004
3109014.0,231.0,32.0,3.0,265.0,3109.014
3109024.0,229.0,31.0,4.0,259.0,3109.024
3109035.0,220.0,31.0,3.0,252.0,3109.035
3109045.0,226.0,31.0,5.0,258.0,3109.045
3109055.0,232.0,31.0,4.0,263.0,3109.055
3109065.0,228.0,31.0,4.0,259.0,3109.065
3109075.0,227.0,32.0,3.0,258.0,3109.075
3109085.0,220.0,31.0,3.0,250.0,3109.085
3109095.0,226.0,30.0,4.0,257.0,3109.095
3109105.0,232.0,31.0,4.0,260.0,3109.105
3109115.0,227.0,31.0,4.0,255.0,3109.115
3109125.0,227.0,31.0,2.0,255.0,3109.125
3109135.0,220.0,31.0,4.0,249.0,3109.135
3109145.0,226.0,32.0,3.0,259.0,3109.145
3109155.0,231.0,30.0,4.0,262.0,3109.155
3109165.0,229.0,30.0,4.0,260.0,3109.165
3109175.0,229.0,31.0,5.0,257.0,3109.175
3109185.0,220.0,30.0,4.0,249.0,3109.185
3109195.0,227.0,31.0,4.0,260.0,3109.195
3109206.0,232.0,32.0,3.0,262.0,3109.206
3109216.0,227.0,30.0,4.0,254.0,3109.216
3109226.0,227.0,31.0,4.0,255.0,3109.226
3109236.0,225.0,31.0,4.0,254.0,3109.236
3109246.0,232.0,30.0,4.0,259.0,3109.246
3109256.0,233.0,31.0,3.0,258.0,3109.256
3109266.0,227.0,31.0,4.0,254.0,3109.266
3109276.0,228.0,31.0,3.0,255.0,3109.276
3109286.0,226.0,31.0,3.0,255.0,3109.286
3109296.0,230.0,31.0,3.0,261.0,3109.296
3109306.0,234.0,31.0,5.0,262.0,3109.306
3109316.0,226.0,31.0,2.0,258.0,3109.316
3109326.0,228.0,31.0,4.0,258.0,3109.326
3109336.0,222.0,32.0,3.0,256.0,3109.336
3109346.0,231.0,32.0,4.0,262.0,3109.346
3109356.0,234.0,31.0,4.0,261.0,3109.356
3109366.0,226.0,31.0,5.0,255.0,3109.366
3109376.0,228.0,32.0,4.0,257.0,3109.376
3109386.0,223.0,32.0,3.0,254.0,3109.386
3109396.0,233.0,32.0,3.0,265.0,3109.396
3109406.0,234.0,32.0,3.0,261.0,3109.406
3109416.0,227.0,31.0,3.0,256.0,3109.416
3109426.0,228.0,32.0,3.0,258.0,3109.426
3109436.0,225.0,31.0,4.0,256.0,3109.436
3109446.0,231.0,32.0,2.0,265.0,3109.446
3109456.0,233.0,32.0,3.0,263.0,3109.456
3109466.0,228.0,33.0,3.0,260.0,3109.466
3109476.0,229.0,32.0,4.0,259.0,3109.476
3109486.0,225.0,32.0,3.0,257.0,3109.486
3109496.0,233.0,32.0,4.0,263.0,3109.496
3109506.0,233.0,32.0,4.0,262.0,3109.506
3109516.0,227.0,33.0,3.0,258.0,3109.516
3109526.0,228.0,33.0,3.0,259.0,3109.526
3109536.0,226.0,32.0,4.0,259.0,3109.536
3109547.0,231.0,32.0,3.0,265.0,3109.547
3109557.0,231.0,33.0,5.0,261.0,3109.557
3109567.0,224.0,31.0,4.0,256.0,3109.567
3109577.0,226.0,33.0,3.0,259.0,3109.577
3109587.0,231.0,33.0,4.0,266.0,3109.587
3109597.0,232.0,33.0,3.0,267.0,3109.597
3109607.0,231.0,32.0,3.0,263.0,3109.607
3109617.0,224.0,33.0,4.0,257.0,3109.617
3109627.0,227.0,32.0,4.0,261.0,3109.627
3109637.0,228.0,34.0,2.0,266.0,3109.637
3109647.0,232.0,33.0,3.0,269.0,3109.647
3109657.0,231.0,35.0,3.0,265.0,3109.657
3109667.0,224.0,33.0,4.0,259.0,3109.667
3109677.0,227.0,34.0,3.0,260.0,3109.677
3109687.0,230.0,33.0,4.0,263.0,3109.687
3109697.0,232.0,33.0,4.0,266.0,3109.697
3109707.0,230.0,33.0,3.0,261.0,3109.707
3109718.0,223.0,33.0,4.0,255.0,3109.718
3109728.0,227.0,34.0,3.0,262.0,3109.728
3109738.0,233.0,34.0,4.0,267.0,3109.738
3109748.0,230.0,33.0,4.0,265.0,3109.748
3109758.0,229.0,33.0,4.0,261.0,3109.758
3109768.0,224.0,34.0,4.0,257.0,3109.768
3109778.0,230.0,33.0,4.0,266.0,3109.778
3109788.0,234.0,34.0,4.0,267.0,3109.788
3109798.0,230.0,32.0,3.0,263.0,3109.798
3109808.0,230.0,33.0,3.0,262.0,3109.808
3109818.0,225.0,33.0,4.0,256.0,3109.818
3109828.0,231.0,34.0,2.0,268.0,3109.828
3109838.0,235.0,33.0,4.0,269.0,3109.838
3109848.0,234.0,34.0,3.0,269.0,3109.848
3109858.0,231.0,33.0,4.0,263.0,3109.858
3109868.0,224.0,33.0,4.0,256.0,3109.868
3109878.0,232.0,33.0,5.0,267.0,3109.878
3109888.0,234.0,34.0,4.0,267.0,3109.888
3109898.0,232.0,34.0,4.0,265.0,3109.898
3109908.0,231.0,33.0,4.0,261.0,3109.908
3109918.0,223.0,34.0,3.0,256.0,3109.918
3109928.0,233.0,34.0,3.0,266.0,3109.928
3109938.0,235.0,34.0,3.0,267.0,3109.938
3109948.0,233.0,33.0,5.0,264.0,3109.948
3109958.0,230.0,34.0,4.0,260.0,3109.958
3109968.0,224.0,33.0,4.0,256.0,3109.968
3109978.0,229.0,35.0,3.0,264.0,3109.978
3109988.0,235.0,33.0,4.0,267.0,3109.988
3109998.0,231.0,34.0,3.0,263.0,3109.998
3110008.0,230.0,34.0,5.0,259.0,3110.008
3110018.0,225.0,33.0,4.0,254.0,3110.018
3110028.0,230.0,34.0,3.0,263.0,3110.028
3110038.0,235.0,34.0,4.0,267.0,3110.038
3110048.0,231.0,33.0,3.0,261.0,3110.048
3110059.0,230.0,34.0,3.0,260.0,3110.059
3110069.0,225.0,33.0,4.0,257.0,3110.069
3110079.0,235.0,33.0,3.0,266.0,3110.079
3110089.0,234.0,34.0,4.0,263.0,3110.089
3110099.0,228.0,33.0,4.0,259.0,3110.099
3110109.0,230.0,34.0,3.0,260.0,3110.109
3110119.0,227.0,32.0,4.0,258.0,3110.119
3110129.0,233.0,33.0,4.0,266.0,3110.129
3110139.0,234.0,34.0,4.0,262.0,3110.139
3110149.0,230.0,33.0,4.0,261.0,3110.149
3110159.0,229.0,33.0,4.0,260.0,3110.159
3110169.0,228.0,34.0,3.0,261.0,3110.169
3110179.0,235.0,32.0,3.0,266.0,3110.179
3110189.0,235.0,33.0,3.0,264.0,3110.189
3110199.0,230.0,33.0,4.0,259.0,3110.199
3110209.0,230.0,33.0,3.0,258.0,3110.209
3110219.0,230.0,34.0,3.0,261.0,3110.219
3110230.0,235.0,33.0,3.0,267.0,3110.23
3110240.0,233.0,33.0,3.0,261.0,3110.24
3110250.0,227.0,32.0,3.0,258.0,3110.25
3110260.0,229.0,33.0,4.0,261.0,3110.26
3110270.0,235.0,33.0,4.0,266.0,3110.27
3110280.0,234.0,33.0,2.0,267.0,3110.28
3110290.0,232.0,33.0,4.0,261.0,3110.29
3110300.0,226.0,33.0,3.0,256.0,3110.3
3110310.0,228.0,32.0,3.0,259.0,3110.31
3110320.0,231.0,33.0,3.0,263.0,3110.32
3110330.0,235.0,33.0,5.0,265.0,3110.33
3110340.0,231.0,33.0,2.0,260.0,3110.34
3110350.0,225.0,32.0,4.0,253.0,3110.35
3110360.0,228.0,33.0,3.0,260.0,3110.36
3110370.0,231.0,33.0,3.0,263.0,3110.37
3110380.0,233.0,33.0,3.0,265.0,3110.38
3110390.0,231.0,33.0,4.0,259.0,3110.39
3110400.0,227.0,33.0,4.0,257.0,3110.4
3110410.0,228.0,32.0,4.0,260.0,3110.41
3110420.0,232.0,33.0,3.0,265.0,3110.42
3110430.0,233.0,33.0,3.0,264.0,3110.43
3110440.0,231.0,32.0,3.0,260.0,3110.44
3110450.0,226.0,32.0,4.0,258.0,3110.45
3110460.0,230.0,33.0,5.0,260.0,3110.46
3110470.0,232.0,34.0,4.0,266.0,3110.47
3110480.0,233.0,32.0,4.0,266.0,3110.48
3110490.0,232.0,33.0,4.0,263.0,3110.49
3110500.0,226.0,32.0,4.0,256.0,3110.5
3110510.0,228.0,33.0,3.0,260.0,3110.51
3110520.0,235.0,33.0,4.0,266.0,3110.52
3110530.0,234.0,33.0,3.0,265.0,3110.53
3110540.0,232.0,34.0,4.0,261.0,3110.54
3110550.0,226.0,33.0,4.0,256.0,3110.55
3110560.0,229.0,33.0,3.0,260.0,3110.56
3110571.0,236.0,33.0,4.0,268.0,3110.571
3110581.0,234.0,33.0,3.0,266.0,3110.581
3110591.0,232.0,32.0,4.0,263.0,3110.591
3110601.0,225.0,33.0,3.0,257.0,3110.601
3110611.0,234.0,33.0,3.0,268.0,3110.611
3110621.0,235.0,34.0,4.0,269.0,3110.621
3110631.0,234.0,32.0,4.0,264.0,3110.631
3110641.0,232.0,32.0,4.0,261.0,3110.641
3110651.0,227.0,32.0,5.0,256.0,3110.651
3110661.0,232.0,32.0,4.0,263.0,3110.661
3110671.0,237.0,33.0,4.0,266.0,3110.671
3110681.0,233.0,32.0,3.0,263.0,3110.681
3110691.0,232.0,32.0,3.0,260.0,3110.691
3110701.0,226.0,32.0,4.0,254.0,3110.701
3110711.0,233.0,32.0,5.0,264.0,3110.711
3110721.0,237.0,31.0,4.0,265.0,3110.721
3110731.0,232.0,33.0,3.0,262.0,3110.731
3110742.0,230.0,32.0,3.0,258.0,3110.742
3110752.0,226.0,33.0,3.0,255.0,3110.752
3110762.0,235.0,32.0,4.0,262.0,3110.762
3110772.0,234.0,33.0,4.0,259.0,3110.772
3110782.0,228.0,31.0,4.0,254.0,3110.782
3110792.0,230.0,33.0,4.0,256.0,3110.792
3110802.0,227.0,33.0,4.0,256.0,3110.802
3110812.0,235.0,33.0,3.0,265.0,3110.812
3110822.0,234.0,32.0,3.0,260.0,3110.822
3110832.0,229.0,32.0,4.0,256.0,3110.832
3110842.0,230.0,32.0,5.0,256.0,3110.842
3110852.0,229.0,33.0,4.0,261.0,3110.852
3110862.0,236.0,32.0,4.0,265.0,3110.862
3110872.0,236.0,33.0,4.0,264.0,3110.872
3110882.0,230.0,32.0,3.0,256.0,3110.882
3110892.0,230.0,32.0,4.0,256.0,3110.892
3110902.0,229.0,33.0,4.0,259.0,3110.902
3110912.0,235.0,32.0,4.0,265.0,3110.912
3110922.0,235.0,34.0,4.0,261.0,3110.922
3110932.0,229.0,33.0,4.0,256.0,3110.932
3110942.0,230.0,34.0,3.0,257.0,3110.942
3110952.0,231.0,33.0,3.0,260.0,3110.952
3110962.0,234.0,33.0,3.0,263.0,3110.962
3110972.0,235.0,34.0,5.0,262.0,3110.972
3110982.0,228.0,33.0,2.0,255.0,3110.982
3110992.0,228.0,33.0,3.0,256.0,3110.992
3111002.0,226.0,33.0,3.0,256.0,3111.002
3111012.0,234.0,32.0,3.0,262.0,3111.012
3111022.0,234.0,33.0,4.0,261.0,3111.022
3111032.0,227.0,32.0,4.0,255.0,3111.032
3111042.0,231.0,32.0,4.0,258.0,3111.042
3111052.0,227.0,33.0,3.0,258.0,3111.052
3111062.0,233.0,33.0,4.0,264.0,3111.062
3111072.0,233.0,34.0,3.0,261.0,3111.072
3111083.0,226.0,32.0,4.0,254.0,3111.083
3111093.0,228.0,33.0,4.0,255.0,3111.093
3111103.0,233.0,33.0,5.0,260.0,3111.103
3111113.0,232.0,32.0,4.0,259.0,3111.113
3111123.0,230.0,33.0,4.0,256.0,3111.123
3111133.0,225.0,33.0,3.0,252.0,3111.133
3111143.0,228.0,32.0,4.0,256.0,3111.143
3111153.0,233.0,33.0,3.0,262.0,3111.153
3111163.0,232.0,32.0,5.0,260.0,3111.163
3111173.0,232.0,32.0,4.0,258.0,3111.173
3111183.0,224.0,32.0,4.0,252.0,3111.183
3111193.0,228.0,33.0,3.0,259.0,3111.193
3111203.0,234.0,32.0,4.0,263.0,3111.203
3111213.0,233.0,32.0,4.0,261.0,3111.213
3111223.0,231.0,32.0,4.0,258.0,3111.223
3111233.0,225.0,31.0,4.0,251.0,3111.233
3111243.0,228.0,33.0,3.0,258.0,3111.243
3111254.0,234.0,32.0,4.0,262.0,3111.254
3111264.0,230.0,33.0,3.0,259.0,3111.264
3111274.0,229.0,32.0,4.0,256.0,3111.274
3111284.0,222.0,32.0,3.0,252.0,3111.284
3111294.0,232.0,31.0,5.0,263.0,3111.294
3111304.0,234.0,32.0,4.0,265.0,3111.304
3111314.0,229.0,31.0,4.0,260.0,3111.314
3111324.0,229.0,32.0,3.0,259.0,3111.324
3111334.0,223.0,32.0,4.0,254.0,3111.334
3111344.0,229.0,32.0,3.0,261.0,3111.344
3111354.0,235.0,32.0,5.0,266.0,3111.354
3111364.0,229.0,31.0,3.0,260.0,3111.364
3111374.0,228.0,32.0,3.0,257.0,3111.374
3111384.0,221.0,32.0,3.0,251.0,3111.384
3111394.0,229.0,32.0,3.0,261.0,3111.394
3111404.0,234.0,32.0,4.0,263.0,3111.404
3111414.0,228.0,32.0,3.0,259.0,3111.414
3111424.0,229.0,33.0,4.0,258.0,3111.424
3111434.0,220.0,32.0,3.0,251.0,3111.434
3111444.0,228.0,32.0,4.0,260.0,3111.444
3111454.0,233.0,33.0,4.0,262.0,3111.454
3111464.0,227.0,32.0,4.0,257.0,3111.464
3111474.0,229.0,32.0,3.0,258.0,3111.474
3111484.0,222.0,31.0,5.0,251.0,3111.484
3111494.0,230.0,31.0,4.0,263.0,3111.494
3111504.0,233.0,32.0,4.0,261.0,3111.504
3111514.0,229.0,32.0,3.0,260.0,3111.514
3111524.0,228.0,32.0,3.0,256.0,3111.524
3111534.0,222.0,32.0,4.0,252.0,3111.534
3111544.0,230.0,32.0,4.0,262.0,3111.544
3111554.0,234.0,31.0,4.0,263.0,3111.554
3111564.0,228.0,32.0,3.0,259.0,3111.564
3111574.0,227.0,32.0,4.0,258.0,3111.574
3111584.0,221.0,33.0,3.0,255.0,3111.584
3111595.0,230.0,32.0,3.0,264.0,3111.595
3111605.0,232.0,32.0,4.0,262.0,3111.605
3111615.0,225.0,31.0,5.0,255.0,3111.615
3111625.0,227.0,32.0,2.0,256.0,3111.625
3111635.0,228.0,32.0,4.0,261.0,3111.635
3111645.0,232.0,33.0,3.0,266.0,3111.645
3111655.0,232.0,32.0,4.0,262.0,3111.655
3111665.0,224.0,32.0,3.0,254.0,3111.665
3111675.0,226.0,33.0,4.0,256.0,3111.675
3111685.0,225.0,32.0,4.0,255.0,3111.685
3111695.0,231.0,33.0,3.0,263.0,3111.695
3111705.0,232.0,33.0,3.0,260.0,3111.705
3111715.0,223.0,33.0,3.0,253.0,3111.715
3111725.0,227.0,32.0,3.0,256.0,3111.725
3111735.0,225.0,33.0,4.0,256.0,3111.735
3111745.0,233.0,33.0,4.0,263.0,3111.745
3111755.0,230.0,33.0,2.0,257.0,3111.755
3111766.0,223.0,33.0,4.0,249.0,3111.766
3111776.0,225.0,34.0,3.0,254.0,3111.776
3111786.0,230.0,32.0,4.0,258.0,3111.786
3111796.0,228.0,33.0,3.0,258.0,3111.796
3111806.0,229.0,33.0,5.0,255.0,3111.806
3111816.0,222.0,32.0,4.0,249.0,3111.816
3111826.0,225.0,33.0,4.0,254.0,3111.826
3111836.0,230.0,33.0,3.0,261.0,3111.836
3111846.0,228.0,33.0,3.0,256.0,3111.846
3111856.0,229.0,33.0,3.0,255.0,3111.856
3111866.0,221.0,32.0,4.0,249.0,3111.866
3111876.0,226.0,33.0,3.0,255.0,3111.876
3111886.0,232.0,33.0,4.0,260.0,3111.886
