time (ms),signal 0,signal 1,signal 2,signal 3,time (sec)
3161666.0,214.0,29.0,3.0,247.0,3161.666
3161676.0,218.0,28.0,3.0,250.0,3161.676
3161686.0,219.0,29.0,3.0,251.0,3161.686
3161696.0,212.0,27.0,4.0,243.0,3161.696
3161706.0,213.0,29.0,4.0,243.0,3161.706
3161716.0,214.0,28.0,4.0,248.0,3161.716
3161726.0,216.0,29.0,3.0,252.0,3161.726
3161736.0,219.0,29.0,4.0,251.0,3161.736
3161746.0,210.0,29.0,4.0,242.0,3161.746
3161756.0,213.0,29.0,5.0,245.0,3161.756
3161766.0,214.0,29.0,3.0,250.0,3161.766
3161776.0,217.0,29.0,5.0,250.0,3161.776
3161786.0,218.0,30.0,3.0,249.0,3161.786
3161796.0,209.0,29.0,3.0,241.0,3161.796
3161806.0,212.0,30.0,3.0,243.0,3161.806
3161816.0,211.0,30.0,4.0,245.0,3161.816
3161826.0,218.0,29.0,4.0,250.0,3161.826
3161836.0,219.0,30.0,3.0,249.0,3161.836
3161846.0,209.0,29.0,4.0,242.0,3161.846
3161856.0,213.0,31.0,4.0,245.0,3161.856
3161866.0,212.0,31.0,4.0,246.0,3161.866
3161876.0,217.0,31.0,4.0,251.0,3161.876
3161886.0,219.0,31.0,4.0,250.0,3161.886
3161896.0,210.0,32.0,4.0,242.0,3161.896
3161906.0,216.0,33.0,4.0,247.0,3161.906
3161916.0,216.0,37.0,3.0,253.0,3161.916
3161926.0,220.0,34.0,4.0,255.0,3161.926
3161936.0,221.0,37.0,4.0,254.0,3161.936
3161946.0,215.0,39.0,4.0,248.0,3161.946
3161956.0,217.0,39.0,3.0,250.0,3161.956
3161966.0,220.0,41.0,4.0,253.0,3161.966
3161976.0,222.0,41.0,3.0,256.0,3161.976
3161986.0,223.0,41.0,4.0,254.0,3161.986
3161996.0,215.0,40.0,4.0,246.0,3161.996
3162006.0,217.0,39.0,4.0,246.0,3162.006
3162016.0,221.0,39.0,4.0,253.0,3162.016
3162027.0,220.0,38.0,3.0,252.0,3162.027
3162037.0,221.0,38.0,3.0,249.0,3162.037
3162047.0,211.0,42.0,3.0,242.0,3162.047
3162057.0,219.0,38.0,4.0,248.0,3162.057
3162067.0,224.0,47.0,4.0,256.0,3162.067
3162077.0,222.0,50.0,5.0,252.0,3162.077
3162087.0,222.0,51.0,4.0,251.0,3162.087
3162097.0,213.0,55.0,3.0,241.0,3162.097
3162107.0,221.0,53.0,3.0,253.0,3162.107
3162117.0,223.0,56.0,3.0,254.0,3162.117
3162127.0,222.0,58.0,4.0,252.0,3162.127
3162137.0,222.0,57.0,5.0,251.0,3162.137
3162147.0,213.0,63.0,3.0,243.0,3162.147
3162157.0,218.0,58.0,3.0,247.0,3162.157
3162167.0,224.0,56.0,3.0,254.0,3162.167
3162177.0,220.0,52.0,3.0,250.0,3162.177
3162187.0,222.0,48.0,4.0,250.0,3162.187
3162198.0,213.0,46.0,4.0,243.0,3162.198
3162208.0,223.0,43.0,4.0,254.0,3162.208
3162218.0,225.0,48.0,4.0,256.0,3162.218
3162228.0,218.0,53.0,4.0,249.0,3162.228
3162238.0,219.0,52.0,3.0,253.0,3162.238
3162248.0,213.0,57.0,3.0,248.0,3162.248
3162258.0,221.0,54.0,3.0,259.0,3162.258
3162268.0,227.0,59.0,5.0,260.0,3162.268
3162278.0,218.0,58.0,4.0,253.0,3162.278
3162288.0,222.0,55.0,4.0,255.0,3162.288
3162298.0,215.0,62.0,3.0,250.0,3162.298
3162308.0,223.0,61.0,3.0,256.0,3162.308
3162318.0,226.0,66.0,3.0,256.0,3162.318
3162328.0,220.0,72.0,3.0,251.0,3162.328
3162338.0,222.0,67.0,4.0,250.0,3162.338
3162348.0,216.0,70.0,4.0,248.0,3162.348
3162358.0,224.0,65.0,3.0,259.0,3162.358
3162368.0,226.0,67.0,4.0,259.0,3162.368
3162378.0,220.0,65.0,3.0,250.0,3162.378
3162388.0,221.0,62.0,3.0,252.0,3162.388
3162398.0,219.0,62.0,5.0,250.0,3162.398
3162408.0,224.0,59.0,2.0,256.0,3162.408
3162418.0,226.0,56.0,4.0,257.0,3162.418
3162428.0,219.0,55.0,3.0,253.0,3162.428
3162438.0,222.0,50.0,3.0,254.0,3162.438
3162448.0,219.0,48.0,3.0,255.0,3162.448
3162458.0,225.0,46.0,4.0,257.0,3162.458
3162468.0,227.0,43.0,3.0,259.0,3162.468
3162478.0,218.0,42.0,3.0,249.0,3162.478
3162488.0,221.0,41.0,4.0,252.0,3162.488
3162498.0,215.0,39.0,3.0,246.0,3162.498
3162508.0,224.0,38.0,4.0,254.0,3162.508
3162518.0,227.0,37.0,3.0,254.0,3162.518
3162528.0,219.0,37.0,5.0,248.0,3162.528
3162539.0,221.0,37.0,2.0,249.0,3162.539
3162549.0,223.0,41.0,4.0,253.0,3162.549
3162559.0,224.0,45.0,3.0,255.0,3162.559
3162569.0,225.0,44.0,4.0,251.0,3162.569
3162579.0,215.0,50.0,3.0,245.0,3162.579
3162589.0,221.0,48.0,4.0,251.0,3162.589
3162599.0,224.0,51.0,4.0,257.0,3162.599
3162609.0,225.0,52.0,4.0,257.0,3162.609
3162619.0,224.0,53.0,3.0,255.0,3162.619
3162629.0,217.0,58.0,3.0,248.0,3162.629
3162639.0,220.0,55.0,3.0,250.0,3162.639
3162649.0,225.0,57.0,4.0,257.0,3162.649
3162659.0,224.0,61.0,4.0,256.0,3162.659
3162669.0,226.0,61.0,3.0,256.0,3162.669
3162679.0,217.0,65.0,4.0,249.0,3162.679
3162689.0,221.0,62.0,3.0,253.0,3162.689
3162699.0,226.0,64.0,3.0,260.0,3162.699
3162710.0,224.0,63.0,4.0,257.0,3162.71
3162720.0,225.0,59.0,4.0,255.0,3162.72
3162730.0,215.0,57.0,4.0,247.0,3162.73
3162740.0,224.0,54.0,4.0,258.0,3162.74
3162750.0,229.0,53.0,3.0,260.0,3162.75
3162760.0,224.0,51.0,3.0,255.0,3162.76
3162770.0,225.0,50.0,4.0,251.0,3162.77
3162780.0,215.0,49.0,4.0,241.0,3162.78
3162790.0,225.0,49.0,4.0,255.0,3162.79
3162800.0,226.0,48.0,3.0,256.0,3162.8
3162810.0,223.0,47.0,3.0,253.0,3162.81
3162820.0,224.0,47.0,3.0,252.0,3162.82
3162830.0,216.0,46.0,3.0,249.0,3162.83
3162840.0,220.0,46.0,4.0,247.0,3162.84
3162850.0,228.0,45.0,4.0,246.0,3162.85
3162860.0,220.0,45.0,3.0,238.0,3162.86
3162870.0,222.0,44.0,4.0,241.0,3162.87
3162880.0,215.0,43.0,4.0,237.0,3162.88
3162890.0,221.0,42.0,3.0,245.0,3162.89
3162900.0,226.0,43.0,3.0,254.0,3162.9
3162910.0,222.0,43.0,4.0,251.0,3162.91
3162920.0,223.0,42.0,3.0,255.0,3162.92
3162930.0,214.0,41.0,4.0,245.0,3162.93
3162940.0,222.0,41.0,3.0,258.0,3162.94
3162950.0,226.0,40.0,3.0,256.0,3162.95
3162960.0,220.0,40.0,3.0,252.0,3162.96
3162970.0,222.0,40.0,3.0,256.0,3162.97
3162980.0,220.0,38.0,4.0,247.0,3162.98
3162990.0,224.0,38.0,3.0,254.0,3162.99
3163000.0,232.0,37.0,4.0,266.0,3163.0
3163010.0,226.0,37.0,3.0,260.0,3163.01
3163020.0,227.0,36.0,3.0,257.0,3163.02
3163030.0,224.0,39.0,3.0,255.0,3163.03
3163040.0,234.0,38.0,5.0,265.0,3163.04
3163051.0,234.0,37.0,4.0,262.0,3163.051
3163061.0,226.0,36.0,3.0,251.0,3163.061
3163071.0,229.0,37.0,3.0,258.0,3163.071
3163081.0,235.0,46.0,4.0,263.0,3163.081
3163091.0,245.0,63.0,4.0,275.0,3163.091
3163101.0,252.0,67.0,4.0,278.0,3163.101
3163111.0,241.0,62.0,4.0,270.0,3163.111
3163121.0,240.0,58.0,4.0,276.0,3163.121
3163131.0,239.0,57.0,4.0,285.0,3163.131
3163141.0,239.0,56.0,3.0,281.0,3163.141
3163151.0,239.0,58.0,3.0,277.0,3163.151
3163161.0,231.0,59.0,3.0,264.0,3163.161
3163171.0,233.0,56.0,4.0,266.0,3163.171
3163181.0,232.0,62.0,4.0,263.0,3163.181
3163191.0,240.0,60.0,3.0,270.0,3163.191
3163201.0,240.0,61.0,3.0,266.0,3163.201
3163211.0,231.0,68.0,4.0,256.0,3163.211
3163222.0,231.0,63.0,3.0,255.0,3163.222
3163232.0,235.0,70.0,5.0,258.0,3163.232
3163242.0,234.0,69.0,4.0,250.0,3163.242
3163252.0,231.0,68.0,3.0,248.0,3163.252
3163262.0,220.0,68.0,4.0,246.0,3163.262
3163272.0,226.0,64.0,3.0,254.0,3163.272
3163282.0,230.0,64.0,4.0,267.0,3163.282
3163292.0,230.0,63.0,4.0,268.0,3163.292
3163302.0,232.0,61.0,4.0,267.0,3163.302
3163312.0,228.0,57.0,4.0,258.0,3163.312
3163322.0,232.0,56.0,4.0,263.0,3163.322
3163332.0,236.0,55.0,3.0,272.0,3163.332
3163342.0,234.0,54.0,3.0,271.0,3163.342
3163352.0,234.0,54.0,3.0,272.0,3163.352
3163362.0,227.0,58.0,3.0,262.0,3163.362
3163372.0,229.0,56.0,3.0,263.0,3163.372
3163382.0,233.0,61.0,4.0,269.0,3163.382
3163392.0,233.0,62.0,4.0,265.0,3163.392
3163402.0,234.0,62.0,4.0,260.0,3163.402
3163412.0,225.0,60.0,4.0,255.0,3163.412
3163422.0,231.0,59.0,4.0,264.0,3163.422
3163432.0,237.0,57.0,4.0,268.0,3163.432
3163442.0,234.0,58.0,3.0,266.0,3163.442
3163452.0,234.0,56.0,4.0,263.0,3163.452
3163462.0,226.0,60.0,3.0,254.0,3163.462
3163472.0,232.0,56.0,4.0,265.0,3163.472
3163482.0,237.0,62.0,3.0,270.0,3163.482
3163492.0,238.0,62.0,5.0,267.0,3163.492
3163502.0,234.0,60.0,2.0,263.0,3163.502
3163512.0,234.0,65.0,3.0,254.0,3163.512
3163522.0,236.0,65.0,3.0,264.0,3163.522
3163532.0,238.0,60.0,4.0,270.0,3163.532
3163542.0,236.0,63.0,3.0,265.0,3163.542
3163552.0,234.0,61.0,4.0,260.0,3163.552
3163563.0,226.0,68.0,4.0,252.0,3163.563
3163573.0,233.0,67.0,3.0,263.0,3163.573
3163583.0,237.0,71.0,3.0,265.0,3163.583
3163593.0,233.0,75.0,3.0,257.0,3163.593
3163603.0,232.0,72.0,4.0,262.0,3163.603
3163613.0,224.0,79.0,4.0,254.0,3163.613
3163623.0,232.0,77.0,4.0,268.0,3163.623
3163633.0,232.0,81.0,2.0,269.0,3163.633
3163643.0,230.0,93.0,4.0,275.0,3163.643
3163653.0,232.0,89.0,3.0,283.0,3163.653
3163663.0,224.0,87.0,3.0,267.0,3163.663
3163673.0,233.0,85.0,3.0,273.0,3163.673
3163683.0,233.0,88.0,5.0,267.0,3163.683
3163693.0,227.0,96.0,4.0,265.0,3163.693
3163703.0,228.0,92.0,3.0,263.0,3163.703
3163713.0,221.0,101.0,3.0,255.0,3163.713
3163723.0,229.0,104.0,4.0,260.0,3163.723
3163734.0,233.0,105.0,3.0,263.0,3163.734
3163744.0,226.0,114.0,5.0,259.0,3163.744
3163754.0,226.0,107.0,4.0,253.0,3163.754
3163764.0,230.0,117.0,4.0,258.0,3163.764
3163774.0,231.0,127.0,3.0,257.0,3163.774
3163784.0,230.0,120.0,3.0,260.0,3163.784
3163794.0,220.0,128.0,3.0,260.0,3163.794
3163804.0,223.0,120.0,3.0,265.0,3163.804
3163814.0,227.0,115.0,4.0,264.0,3163.814
3163824.0,226.0,113.0,2.0,264.0,3163.824
3163834.0,228.0,108.0,4.0,269.0,3163.834
3163844.0,219.0,103.0,3.0,261.0,3163.844
3163854.0,222.0,98.0,4.0,262.0,3163.854
3163864.0,222.0,96.0,3.0,262.0,3163.864
3163874.0,227.0,94.0,4.0,267.0,3163.874
3163884.0,228.0,89.0,3.0,262.0,3163.884
3163894.0,220.0,88.0,4.0,258.0,3163.894
3163904.0,224.0,86.0,4.0,263.0,3163.904
3163914.0,223.0,83.0,3.0,263.0,3163.914
3163924.0,231.0,84.0,4.0,267.0,3163.924
3163934.0,227.0,82.0,4.0,263.0,3163.934
3163944.0,218.0,82.0,3.0,255.0,3163.944
3163954.0,224.0,81.0,4.0,258.0,3163.954
3163964.0,225.0,79.0,4.0,261.0,3163.964
3163974.0,229.0,83.0,3.0,258.0,3163.974
3163984.0,228.0,80.0,4.0,252.0,3163.984
3163994.0,220.0,86.0,3.0,239.0,3163.994
3164004.0,224.0,83.0,4.0,246.0,3164.004
3164014.0,230.0,87.0,4.0,262.0,3164.014
3164024.0,233.0,93.0,3.0,275.0,3164.024
3164034.0,240.0,91.0,3.0,282.0,3164.034
3164044.0,230.0,94.0,3.0,269.0,3164.044
3164054.0,232.0,90.0,4.0,272.0,3164.054
3164064.0,235.0,89.0,5.0,275.0,3164.064
3164075.0,236.0,91.0,4.0,267.0,3164.075
3164085.0,235.0,88.0,4.0,264.0,3164.085
3164095.0,227.0,91.0,4.0,261.0,3164.095
3164105.0,233.0,89.0,3.0,271.0,3164.105
3164115.0,239.0,90.0,4.0,272.0,3164.115
3164125.0,238.0,100.0,3.0,271.0,3164.125
3164135.0,241.0,95.0,4.0,273.0,3164.135
3164145.0,230.0,96.0,4.0,262.0,3164.145
3164155.0,235.0,93.0,3.0,275.0,3164.155
3164165.0,237.0,96.0,3.0,274.0,3164.165
3164175.0,234.0,102.0,4.0,262.0,3164.175
3164185.0,235.0,98.0,3.0,280.0,3164.185
3164195.0,226.0,97.0,4.0,268.0,3164.195
3164205.0,230.0,95.0,4.0,276.0,3164.205
3164215.0,234.0,96.0,4.0,276.0,3164.215
3164225.0,229.0,100.0,3.0,273.0,3164.225
3164235.0,229.0,95.0,3.0,277.0,3164.235
3164246.0,224.0,99.0,3.0,277.0,3164.246
3164256.0,231.0,99.0,4.0,277.0,3164.256
3164266.0,236.0,102.0,4.0,289.0,3164.266
3164276.0,226.0,105.0,4.0,276.0,3164.276
3164286.0,226.0,100.0,3.0,276.0,3164.286
3164296.0,222.0,107.0,3.0,269.0,3164.296
3164306.0,231.0,108.0,4.0,279.0,3164.306
3164316.0,233.0,106.0,3.0,274.0,3164.316
3164326.0,224.0,111.0,4.0,258.0,3164.326
3164336.0,226.0,107.0,3.0,261.0,3164.336
3164346.0,224.0,113.0,4.0,261.0,3164.346
3164356.0,234.0,119.0,4.0,273.0,3164.356
3164366.0,235.0,116.0,4.0,266.0,3164.366
3164376.0,228.0,125.0,4.0,253.0,3164.376
3164386.0,230.0,119.0,4.0,259.0,3164.386
3164396.0,225.0,125.0,4.0,256.0,3164.396
3164406.0,232.0,133.0,4.0,266.0,3164.406
3164416.0,239.0,131.0,3.0,277.0,3164.416
3164426.0,229.0,137.0,3.0,267.0,3164.426
3164436.0,231.0,128.0,4.0,270.0,3164.436
3164446.0,233.0,137.0,4.0,268.0,3164.446
3164456.0,239.0,144.0,4.0,270.0,3164.456
3164466.0,238.0,139.0,3.0,267.0,3164.466
3164476.0,228.0,145.0,4.0,257.0,3164.476
3164486.0,231.0,139.0,3.0,263.0,3164.486
3164496.0,229.0,144.0,3.0,264.0,3164.496
3164506.0,233.0,149.0,4.0,270.0,3164.506
3164516.0,237.0,145.0,5.0,279.0,3164.516
3164526.0,228.0,150.0,3.0,267.0,3164.526
3164536.0,228.0,143.0,3.0,270.0,3164.536
3164546.0,221.0,146.0,4.0,266.0,3164.546
3164556.0,228.0,150.0,3.0,273.0,3164.556
3164566.0,231.0,144.0,4.0,270.0,3164.566
3164576.0,222.0,154.0,4.0,265.0,3164.576
3164587.0,228.0,145.0,5.0,264.0,3164.587
3164597.0,231.0,151.0,4.0,270.0,3164.597
3164607.0,232.0,156.0,4.0,268.0,3164.607
3164617.0,231.0,150.0,3.0,267.0,3164.617
3164627.0,223.0,150.0,4.0,256.0,3164.627
3164637.0,228.0,146.0,3.0,260.0,3164.637
3164647.0,231.0,144.0,4.0,267.0,3164.647
3164657.0,231.0,148.0,4.0,259.0,3164.657
3164667.0,230.0,140.0,3.0,256.0,3164.667
3164677.0,224.0,145.0,3.0,252.0,3164.677
3164687.0,228.0,140.0,3.0,258.0,3164.687
3164697.0,231.0,140.0,3.0,264.0,3164.697
3164707.0,228.0,149.0,4.0,266.0,3164.707
3164717.0,233.0,143.0,4.0,268.0,3164.717
3164727.0,222.0,145.0,3.0,256.0,3164.727
3164737.0,226.0,140.0,3.0,257.0,3164.737
3164747.0,232.0,141.0,4.0,262.0,3164.747
3164758.0,229.0,146.0,4.0,260.0,3164.758
3164768.0,229.0,140.0,3.0,259.0,3164.768
3164778.0,222.0,141.0,4.0,253.0,3164.778
3164788.0,230.0,142.0,4.0,264.0,3164.788
3164798.0,233.0,141.0,4.0,265.0,3164.798
3164808.0,226.0,148.0,3.0,263.0,3164.808
3164818.0,227.0,140.0,3.0,264.0,3164.818
3164828.0,222.0,145.0,3.0,261.0,3164.828
3164838.0,233.0,147.0,4.0,270.0,3164.838
3164848.0,234.0,144.0,4.0,270.0,3164.848
3164858.0,228.0,151.0,3.0,263.0,3164.858
3164868.0,230.0,143.0,3.0,263.0,3164.868
3164878.0,223.0,146.0,3.0,259.0,3164.878
3164888.0,228.0,146.0,3.0,263.0,3164.888
3164898.0,233.0,148.0,3.0,273.0,3164.898
3164908.0,226.0,153.0,4.0,262.0,3164.908
3164918.0,228.0,146.0,4.0,265.0,3164.918
3164928.0,221.0,149.0,4.0,254.0,3164.928
3164938.0,229.0,153.0,3.0,261.0,3164.938
3164948.0,233.0,152.0,4.0,262.0,3164.948
3164958.0,228.0,161.0,4.0,263.0,3164.958
3164968.0,230.0,154.0,4.0,267.0,3164.968
3164978.0,222.0,157.0,3.0,257.0,3164.978
3164988.0,231.0,160.0,4.0,269.0,3164.988
3164998.0,235.0,158.0,3.0,272.0,3164.998
3165008.0,229.0,162.0,4.0,263.0,3165.008
3165018.0,232.0,156.0,4.0,270.0,3165.018
3165028.0,224.0,156.0,4.0,259.0,3165.028
3165038.0,234.0,159.0,4.0,273.0,3165.038
3165048.0,242.0,159.0,4.0,281.0,3165.048
3165058.0,236.0,165.0,4.0,269.0,3165.058
3165068.0,235.0,157.0,3.0,267.0,3165.068
3165078.0,227.0,160.0,4.0,258.0,3165.078
3165088.0,234.0,163.0,3.0,268.0,3165.088
3165099.0,238.0,158.0,5.0,268.0,3165.099
3165109.0,228.0,161.0,3.0,255.0,3165.109
3165119.0,229.0,155.0,4.0,252.0,3165.119
3165129.0,230.0,157.0,3.0,253.0,3165.129
3165139.0,233.0,162.0,4.0,254.0,3165.139
3165149.0,235.0,156.0,3.0,259.0,3165.149
3165159.0,226.0,159.0,5.0,249.0,3165.159
3165169.0,228.0,154.0,4.0,252.0,3165.169
3165179.0,228.0,157.0,3.0,258.0,3165.179
3165189.0,233.0,162.0,3.0,265.0,3165.189
3165199.0,235.0,156.0,3.0,269.0,3165.199
3165209.0,227.0,155.0,3.0,258.0,3165.209
3165219.0,230.0,152.0,4.0,264.0,3165.219
3165229.0,229.0,149.0,4.0,262.0,3165.229
3165239.0,234.0,153.0,2.0,267.0,3165.239
3165249.0,236.0,148.0,4.0,271.0,3165.249
3165259.0,228.0,150.0,4.0,266.0,3165.259
3165270.0,231.0,146.0,4.0,272.0,3165.27
3165280.0,234.0,146.0,3.0,276.0,3165.28
3165290.0,236.0,153.0,5.0,267.0,3165.29
3165300.0,235.0,147.0,2.0,266.0,3165.3
3165310.0,226.0,148.0,4.0,257.0,3165.31
3165320.0,229.0,147.0,3.0,263.0,3165.32
3165330.0,234.0,146.0,4.0,271.0,3165.33
3165340.0,232.0,150.0,3.0,265.0,3165.34
3165350.0,232.0,144.0,4.0,261.0,3165.35
3165360.0,226.0,147.0,4.0,253.0,3165.36
3165370.0,228.0,143.0,4.0,260.0,3165.37
3165380.0,234.0,146.0,4.0,266.0,3165.38
3165390.0,231.0,156.0,3.0,263.0,3165.39
3165400.0,235.0,148.0,4.0,264.0,3165.4
3165410.0,227.0,151.0,4.0,253.0,3165.41
3165420.0,233.0,148.0,4.0,264.0,3165.42
3165430.0,237.0,150.0,2.0,271.0,3165.43
3165440.0,235.0,156.0,4.0,265.0,3165.44
3165450.0,233.0,149.0,3.0,265.0,3165.45
3165460.0,223.0,151.0,4.0,253.0,3165.46
3165470.0,229.0,149.0,3.0,266.0,3165.47
3165480.0,235.0,151.0,4.0,269.0,3165.48
3165490.0,233.0,159.0,4.0,264.0,3165.49
3165500.0,232.0,151.0,4.0,265.0,3165.5
3165510.0,226.0,156.0,3.0,253.0,3165.51
3165520.0,234.0,156.0,3.0,263.0,3165.52
3165530.0,236.0,156.0,4.0,268.0,3165.53
3165540.0,234.0,165.0,4.0,265.0,3165.54
3165550.0,235.0,158.0,5.0,262.0,3165.55
3165560.0,224.0,156.0,4.0,255.0,3165.56
3165570.0,228.0,152.0,4.0,258.0,3165.57
3165580.0,234.0,155.0,3.0,266.0,3165.58
3165590.0,231.0,160.0,4.0,260.0,3165.59
3165600.0,230.0,153.0,4.0,260.0,3165.6
3165611.0,223.0,154.0,4.0,251.0,3165.611
3165621.0,231.0,155.0,4.0,263.0,3165.621
3165631.0,232.0,152.0,3.0,264.0,3165.631
3165641.0,223.0,155.0,3.0,254.0,3165.641
3165651.0,226.0,150.0,4.0,258.0,3165.651
3165661.0,221.0,149.0,4.0,257.0,3165.661
3165671.0,230.0,154.0,4.0,270.0,3165.671
3165681.0,233.0,149.0,4.0,272.0,3165.681
3165691.0,225.0,149.0,4.0,256.0,3165.691
3165701.0,228.0,145.0,4.0,262.0,3165.701
3165711.0,221.0,145.0,3.0,256.0,3165.711
3165721.0,229.0,143.0,4.0,262.0,3165.721
3165731.0,232.0,140.0,3.0,263.0,3165.731
3165741.0,228.0,137.0,5.0,256.0,3165.741
3165751.0,226.0,134.0,4.0,258.0,3165.751
3165761.0,219.0,131.0,4.0,249.0,3165.761
3165771.0,224.0,131.0,3.0,249.0,3165.771
3165782.0,226.0,126.0,3.0,250.0,3165.782
3165792.0,216.0,127.0,4.0,239.0,3165.792
3165802.0,221.0,125.0,5.0,245.0,3165.802
3165812.0,224.0,121.0,3.0,250.0,3165.812
3165822.0,224.0,118.0,3.0,249.0,3165.822
3165832.0,226.0,116.0,4.0,250.0,3165.832
3165842.0,217.0,113.0,3.0,242.0,3165.842
3165852.0,220.0,112.0,4.0,246.0,3165.852
3165862.0,223.0,108.0,4.0,251.0,3165.862
3165872.0,225.0,109.0,4.0,254.0,3165.872
3165882.0,226.0,107.0,2.0,257.0,3165.882
3165892.0,217.0,103.0,4.0,245.0,3165.892
3165902.0,219.0,105.0,3.0,255.0,3165.902
3165912.0,219.0,102.0,4.0,255.0,3165.912
3165922.0,223.0,111.0,3.0,253.0,3165.922
3165932.0,225.0,107.0,5.0,250.0,3165.932
3165942.0,216.0,115.0,3.0,240.0,3165.942
3165952.0,221.0,113.0,3.0,246.0,3165.952
3165962.0,221.0,117.0,3.0,251.0,3165.962
3165972.0,223.0,122.0,3.0,252.0,3165.972
3165982.0,224.0,116.0,4.0,252.0,3165.982
3165992.0,214.0,121.0,4.0,242.0,3165.992
3166002.0,218.0,118.0,4.0,249.0,3166.002
3166012.0,219.0,122.0,3.0,252.0,3166.012
3166022.0,220.0,131.0,3.0,256.0,3166.022
3166032.0,221.0,126.0,3.0,259.0,3166.032
3166042.0,214.0,130.0,4.0,251.0,3166.042
3166052.0,216.0,127.0,4.0,253.0,3166.052
3166062.0,221.0,128.0,5.0,258.0,3166.062
3166072.0,220.0,134.0,4.0,255.0,3166.072
3166082.0,222.0,127.0,3.0,256.0,3166.082
3166092.0,213.0,133.0,3.0,249.0,3166.092
3166102.0,215.0,127.0,3.0,252.0,3166.102
3166112.0,221.0,128.0,4.0,256.0,3166.112
3166123.0,219.0,135.0,2.0,253.0,3166.123
3166133.0,218.0,129.0,3.0,251.0,3166.133
3166143.0,209.0,128.0,4.0,239.0,3166.143
3166153.0,218.0,125.0,4.0,251.0,3166.153
3166163.0,224.0,122.0,3.0,254.0,3166.163
3166173.0,220.0,124.0,4.0,247.0,3166.173
3166183.0,220.0,119.0,4.0,249.0,3166.183
3166193.0,213.0,119.0,3.0,242.0,3166.193
3166203.0,220.0,116.0,2.0,254.0,3166.203
3166213.0,227.0,113.0,4.0,255.0,3166.213
3166223.0,222.0,114.0,3.0,250.0,3166.223
3166233.0,223.0,110.0,3.0,252.0,3166.233
3166243.0,215.0,106.0,4.0,246.0,3166.243
3166253.0,222.0,106.0,4.0,255.0,3166.253
3166263.0,229.0,105.0,3.0,258.0,3166.263
3166273.0,222.0,106.0,4.0,251.0,3166.273
3166283.0,224.0,102.0,4.0,253.0,3166.283
3166294.0,216.0,100.0,3.0,250.0,3166.294
3166304.0,224.0,100.0,3.0,257.0,3166.304
3166314.0,228.0,98.0,3.0,258.0,3166.314
3166324.0,219.0,98.0,4.0,249.0,3166.324
3166334.0,220.0,96.0,4.0,252.0,3166.334
3166344.0,217.0,96.0,4.0,250.0,3166.344
3166354.0,224.0,98.0,3.0,258.0,3166.354
3166364.0,227.0,96.0,4.0,257.0,3166.364
3166374.0,219.0,98.0,4.0,251.0,3166.374
3166384.0,224.0,97.0,5.0,254.0,3166.384
3166394.0,219.0,97.0,3.0,253.0,3166.394
3166404.0,225.0,96.0,3.0,258.0,3166.404
3166414.0,228.0,93.0,3.0,258.0,3166.414
3166424.0,223.0,90.0,3.0,253.0,3166.424
3166434.0,226.0,90.0,3.0,256.0,3166.434
3166444.0,223.0,87.0,4.0,254.0,3166.444
3166454.0,228.0,86.0,4.0,256.0,3166.454
3166464.0,229.0,84.0,4.0,257.0,3166.464
3166474.0,221.0,81.0,4.0,250.0,3166.474
3166484.0,223.0,81.0,3.0,250.0,3166.484
3166494.0,222.0,78.0,4.0,250.0,3166.494
3166504.0,225.0,79.0,3.0,254.0,3166.504
3166514.0,228.0,77.0,4.0,254.0,3166.514
3166524.0,216.0,78.0,4.0,247.0,3166.524
3166534.0,220.0,76.0,4.0,249.0,3166.534
3166544.0,220.0,77.0,3.0,253.0,3166.544
3166554.0,222.0,78.0,3.0,255.0,3166.554
3166564.0,224.0,80.0,3.0,255.0,3166.564
3166574.0,216.0,90.0,4.0,247.0,3166.574
3166584.0,219.0,86.0,4.0,251.0,3166.584
3166594.0,215.0,95.0,4.0,249.0,3166.594
3166604.0,226.0,100.0,3.0,258.0,3166.604
3166614.0,228.0,99.0,3.0,258.0,3166.614
3166624.0,219.0,103.0,3.0,247.0,3166.624
3166635.0,220.0,99.0,2.0,250.0,3166.635
3166645.0,224.0,103.0,4.0,255.0,3166.645
3166655.0,224.0,112.0,4.0,254.0,3166.655
3166665.0,224.0,105.0,3.0,253.0,3166.665
3166675.0,214.0,111.0,3.0,243.0,3166.675
3166685.0,220.0,106.0,4.0,249.0,3166.685
3166695.0,224.0,108.0,4.0,256.0,3166.695
3166705.0,225.0,114.0,4.0,253.0,3166.705
3166715.0,226.0,109.0,4.0,252.0,3166.715
3166725.0,219.0,115.0,3.0,245.0,3166.725
3166735.0,222.0,110.0,3.0,255.0,3166.735
3166745.0,227.0,115.0,3.0,260.0,3166.745
3166755.0,223.0,119.0,4.0,256.0,3166.755
3166765.0,226.0,113.0,4.0,258.0,3166.765
3166775.0,217.0,118.0,3.0,248.0,3166.775
3166785.0,220.0,112.0,3.0,254.0,3166.785
3166795.0,225.0,117.0,3.0,261.0,3166.795
3166806.0,220.0,122.0,3.0,256.0,3166.806
3166816.0,221.0,115.0,4.0,255.0,3166.816
3166826.0,213.0,119.0,4.0,249.0,3166.826
3166836.0,222.0,118.0,5.0,258.0,3166.836
3166846.0,224.0,118.0,4.0,261.0,3166.846
3166856.0,218.0,119.0,3.0,255.0,3166.856
3166866.0,219.0,114.0,3.0,255.0,3166.866
3166876.0,212.0,114.0,3.0,248.0,3166.876
3166886.0,221.0,115.0,4.0,259.0,3166.886
3166896.0,224.0,113.0,5.0,259.0,3166.896
3166906.0,219.0,118.0,2.0,255.0,3166.906
3166916.0,220.0,112.0,4.0,254.0,3166.916
3166926.0,217.0,113.0,3.0,252.0,3166.926
3166936.0,223.0,110.0,3.0,258.0,3166.936
3166946.0,227.0,111.0,4.0,262.0,3166.946
3166956.0,221.0,112.0,4.0,254.0,3166.956
3166966.0,222.0,108.0,4.0,255.0,3166.966
3166976.0,214.0,109.0,4.0,249.0,3166.976
3166986.0,221.0,106.0,4.0,258.0,3166.986
3166996.0,226.0,106.0,3.0,263.0,3166.996
3167006.0,220.0,104.0,3.0,254.0,3167.006
3167016.0,221.0,101.0,3.0,255.0,3167.016
3167026.0,216.0,100.0,3.0,249.0,3167.026
3167036.0,223.0,99.0,2.0,259.0,3167.036
3167046.0,224.0,99.0,3.0,261.0,3167.046
3167056.0,215.0,104.0,3.0,253.0,3167.056
3167066.0,217.0,100.0,3.0,250.0,3167.066
3167076.0,210.0,100.0,3.0,245.0,3167.076
3167086.0,219.0,99.0,4.0,255.0,3167.086
3167096.0,222.0,99.0,3.0,255.0,3167.096
3167106.0,216.0,107.0,3.0,252.0,3167.106
3167116.0,218.0,103.0,3.0,252.0,3167.116
3167126.0,211.0,108.0,3.0,247.0,3167.126
3167136.0,220.0,111.0,3.0,256.0,3167.136
3167147.0,224.0,109.0,4.0,254.0,3167.147
3167157.0,215.0,115.0,4.0,248.0,3167.157
3167167.0,212.0,111.0,2.0,250.0,3167.167
3167177.0,215.0,116.0,3.0,253.0,3167.177
3167187.0,218.0,123.0,3.0,255.0,3167.187
3167197.0,219.0,117.0,4.0,252.0,3167.197
3167207.0,211.0,123.0,3.0,246.0,3167.207
3167217.0,215.0,118.0,5.0,250.0,3167.217
3167227.0,217.0,122.0,4.0,254.0,3167.227
3167237.0,219.0,126.0,3.0,255.0,3167.237
3167247.0,220.0,121.0,4.0,253.0,3167.247
3167257.0,213.0,126.0,3.0,244.0,3167.257
3167267.0,214.0,121.0,4.0,246.0,3167.267
3167277.0,213.0,124.0,4.0,248.0,3167.277
3167287.0,220.0,129.0,4.0,253.0,3167.287
3167297.0,218.0,122.0,4.0,251.0,3167.297
3167307.0,211.0,124.0,3.0,245.0,3167.307
3167318.0,214.0,120.0,3.0,251.0,3167.318
3167328.0,219.0,118.0,4.0,256.0,3167.328
3167338.0,218.0,121.0,4.0,253.0,3167.338
3167348.0,217.0,115.0,4.0,250.0,3167.348
3167358.0,208.0,116.0,3.0,243.0,3167.358
3167368.0,215.0,113.0,4.0,249.0,3167.368
3167378.0,221.0,117.0,3.0,257.0,3167.378
3167388.0,218.0,122.0,4.0,252.0,3167.388
3167398.0,217.0,117.0,3.0,250.0,3167.398
3167408.0,210.0,125.0,4.0,243.0,3167.408
3167418.0,214.0,121.0,4.0,247.0,3167.418
3167428.0,220.0,129.0,3.0,253.0,3167.428
3167438.0,217.0,137.0,3.0,248.0,3167.438
3167448.0,218.0,131.0,3.0,248.0,3167.448
3167458.0,210.0,140.0,4.0,240.0,3167.458
3167468.0,215.0,138.0,4.0,248.0,3167.468
3167478.0,221.0,142.0,5.0,251.0,3167.478
3167488.0,218.0,154.0,4.0,250.0,3167.488
3167498.0,218.0,146.0,3.0,248.0,3167.498
3167508.0,209.0,152.0,3.0,241.0,3167.508
3167518.0,215.0,146.0,4.0,248.0,3167.518
3167528.0,220.0,146.0,3.0,251.0,3167.528
3167538.0,218.0,151.0,4.0,249.0,3167.538
3167548.0,216.0,143.0,3.0,246.0,3167.548
3167558.0,206.0,142.0,4.0,238.0,3167.558
3167568.0,213.0,141.0,3.0,247.0,3167.568
3167578.0,216.0,141.0,3.0,247.0,3167.578
3167588.0,213.0,144.0,4.0,244.0,3167.588
3167598.0,213.0,138.0,3.0,241.0,3167.598
3167608.0,206.0,138.0,4.0,235.0,3167.608
3167618.0,210.0,135.0,2.0,242.0,3167.618
3167628.0,215.0,136.0,4.0,247.0,3167.628
3167638.0,211.0,141.0,3.0,244.0,3167.638
3167648.0,212.0,134.0,4.0,242.0,3167.648
3167659.0,205.0,132.0,3.0,237.0,3167.659
3167669.0,210.0,134.0,5.0,244.0,3167.669
3167679.0,214.0,132.0,3.0,245.0,3167.679
3167689.0,207.0,137.0,3.0,241.0,3167.689
3167699.0,210.0,134.0,3.0,243.0,3167.699
3167709.0,205.0,136.0,3.0,239.0,3167.709
3167719.0,214.0,139.0,3.0,249.0,3167.719
3167729.0,217.0,136.0,4.0,249.0,3167.729
3167739.0,209.0,142.0,2.0,242.0,3167.739
3167749.0,213.0,137.0,4.0,245.0,3167.749
3167759.0,209.0,140.0,4.0,243.0,3167.759
3167769.0,219.0,147.0,3.0,252.0,3167.769
3167779.0,220.0,140.0,4.0,249.0,3167.779
3167789.0,213.0,147.0,4.0,245.0,3167.789
3167799.0,215.0,141.0,4.0,245.0,3167.799
3167809.0,210.0,145.0,3.0,245.0,3167.809
3167819.0,217.0,151.0,4.0,252.0,3167.819
3167830.0,218.0,145.0,3.0,249.0,3167.83
3167840.0,210.0,144.0,4.0,240.0,3167.84
3167850.0,213.0,141.0,4.0,243.0,3167.85
3167860.0,217.0,138.0,4.0,249.0,3167.86
3167870.0,215.0,142.0,3.0,246.0,3167.87
3167880.0,216.0,136.0,4.0,245.0,3167.88
3167890.0,207.0,136.0,4.0,239.0,3167.89
3167900.0,211.0,133.0,3.0,243.0,3167.9
3167910.0,217.0,132.0,3.0,252.0,3167.91
3167920.0,216.0,139.0,4.0,252.0,3167.92
3167930.0,217.0,133.0,4.0,247.0,3167.93
3167940.0,208.0,137.0,2.0,240.0,3167.94
3167950.0,212.0,133.0,4.0,244.0,3167.95
3167960.0,214.0,134.0,3.0,249.0,3167.96
3167970.0,217.0,138.0,4.0,252.0,3167.97
3167980.0,216.0,132.0,3.0,248.0,3167.98
3167990.0,208.0,131.0,5.0,240.0,3167.99
3168000.0,212.0,130.0,2.0,245.0,3168.0
3168010.0,214.0,127.0,3.0,250.0,3168.01
3168020.0,216.0,123.0,3.0,250.0,3168.02
3168030.0,213.0,119.0,3.0,246.0,3168.03
3168040.0,203.0,118.0,3.0,238.0,3168.04
3168050.0,208.0,116.0,4.0,242.0,3168.05
3168060.0,213.0,118.0,4.0,247.0,3168.06
3168070.0,213.0,124.0,4.0,248.0,3168.07
3168080.0,214.0,119.0,4.0,245.0,3168.08
3168090.0,207.0,126.0,3.0,240.0,3168.09
3168100.0,210.0,122.0,4.0,241.0,3168.1
3168110.0,215.0,126.0,3.0,248.0,3168.11
3168120.0,215.0,133.0,5.0,246.0,3168.12
3168130.0,216.0,127.0,4.0,245.0,3168.13
3168140.0,208.0,129.0,4.0,237.0,3168.14
3168150.0,211.0,127.0,3.0,242.0,3168.15
3168160.0,216.0,128.0,4.0,248.0,3168.16
3168171.0,216.0,132.0,4.0,246.0,3168.171
3168181.0,216.0,127.0,5.0,242.0,3168.181
3168191.0,207.0,124.0,4.0,234.0,3168.191
3168201.0,214.0,125.0,3.0,245.0,3168.201
3168211.0,219.0,125.0,4.0,248.0,3168.211
3168221.0,215.0,130.0,3.0,244.0,3168.221
3168231.0,214.0,124.0,3.0,242.0,3168.231
3168241.0,207.0,126.0,4.0,236.0,3168.241
3168251.0,215.0,128.0,4.0,247.0,3168.251
3168261.0,218.0,127.0,4.0,248.0,3168.261
3168271.0,214.0,129.0,3.0,244.0,3168.271
3168281.0,214.0,125.0,3.0,243.0,3168.281
3168291.0,208.0,120.0,4.0,238.0,3168.291
3168301.0,215.0,120.0,3.0,242.0,3168.301
3168311.0,219.0,115.0,5.0,245.0,3168.311
3168321.0,213.0,116.0,4.0,239.0,3168.321
3168331.0,213.0,113.0,4.0,239.0,3168.331
3168342.0,208.0,111.0,3.0,237.0,3168.342
3168352.0,216.0,112.0,3.0,245.0,3168.352
3168362.0,220.0,110.0,3.0,246.0,3168.362
3168372.0,211.0,113.0,4.0,238.0,3168.372
3168382.0,213.0,111.0,4.0,240.0,3168.382
3168392.0,210.0,113.0,3.0,240.0,3168.392
3168402.0,217.0,116.0,4.0,247.0,3168.402
3168412.0,218.0,114.0,3.0,246.0,3168.412
3168422.0,211.0,115.0,4.0,238.0,3168.422
3168432.0,214.0,113.0,4.0,242.0,3168.432
3168442.0,212.0,112.0,5.0,242.0,3168.442
3168452.0,218.0,117.0,2.0,251.0,3168.452
3168462.0,219.0,113.0,4.0,249.0,3168.462
3168472.0,213.0,114.0,3.0,245.0,3168.472
3168482.0,213.0,111.0,3.0,245.0,3168.482
3168492.0,214.0,108.0,4.0,246.0,3168.492
3168502.0,219.0,112.0,4.0,251.0,3168.502
3168512.0,220.0,107.0,4.0,251.0,3168.512
3168522.0,212.0,109.0,4.0,244.0,3168.522
3168532.0,214.0,107.0,3.0,246.0,3168.532
3168542.0,214.0,106.0,3.0,246.0,3168.542
3168552.0,217.0,105.0,3.0,249.0,3168.552
3168562.0,219.0,100.0,4.0,248.0,3168.562
3168572.0,213.0,103.0,4.0,240.0,3168.572
3168582.0,212.0,101.0,4.0,241.0,3168.582
3168592.0,215.0,102.0,4.0,245.0,3168.592
3168602.0,217.0,107.0,3.0,248.0,3168.602
3168612.0,218.0,103.0,4.0,246.0,3168.612
3168622.0,211.0,104.0,4.0,240.0,3168.622
3168632.0,213.0,102.0,5.0,243.0,3168.632
3168642.0,211.0,99.0,4.0,245.0,3168.642
3168652.0,218.0,100.0,4.0,250.0,3168.652
3168662.0,216.0,97.0,4.0,247.0,3168.662
3168672.0,206.0,95.0,4.0,237.0,3168.672
3168683.0,208.0,94.0,4.0,240.0,3168.683
3168693.0,213.0,91.0,4.0,247.0,3168.693
3168703.0,213.0,91.0,4.0,245.0,3168.703
3168713.0,211.0,90.0,3.0,245.0,3168.713
3168723.0,205.0,85.0,3.0,237.0,3168.723
3168733.0,208.0,87.0,3.0,241.0,3168.733
3168743.0,216.0,84.0,4.0,247.0,3168.743
3168753.0,215.0,86.0,3.0,244.0,3168.753
3168763.0,214.0,83.0,4.0,243.0,3168.763
3168773.0,208.0,86.0,2.0,239.0,3168.773
3168783.0,207.0,85.0,4.0,241.0,3168.783
3168793.0,213.0,87.0,3.0,248.0,3168.793
3168803.0,211.0,87.0,4.0,243.0,3168.803
3168813.0,213.0,85.0,4.0,244.0,3168.813
3168823.0,205.0,83.0,5.0,235.0,3168.823
3168833.0,211.0,82.0,4.0,244.0,3168.833
3168843.0,216.0,83.0,3.0,248.0,3168.843
3168854.0,212.0,85.0,4.0,244.0,3168.854
3168864.0,213.0,82.0,3.0,242.0,3168.864
3168874.0,207.0,81.0,4.0,236.0,3168.874
3168884.0,215.0,82.0,3.0,247.0,3168.884
3168894.0,218.0,83.0,4.0,246.0,3168.894
3168904.0,212.0,85.0,4.0,240.0,3168.904
3168914.0,212.0,81.0,3.0,240.0,3168.914
3168924.0,208.0,83.0,3.0,237.0,3168.924
3168934.0,216.0,82.0,4.0,246.0,3168.934
3168944.0,217.0,83.0,3.0,247.0,3168.944
3168954.0,214.0,87.0,5.0,242.0,3168.954
3168964.0,213.0,84.0,3.0,241.0,3168.964
3168974.0,209.0,87.0,4.0,240.0,3168.974
3168984.0,213.0,86.0,2.0,244.0,3168.984
3168994.0,217.0,90.0,3.0,246.0,3168.994
3169004.0,213.0,96.0,4.0,240.0,3169.004
3169014.0,216.0,92.0,5.0,242.0,3169.014
3169024.0,209.0,97.0,4.0,236.0,3169.024
3169034.0,217.0,95.0,3.0,246.0,3169.034
3169044.0,219.0,97.0,4.0,247.0,3169.044
3169054.0,213.0,102.0,3.0,239.0,3169.054
3169064.0,214.0,96.0,4.0,239.0,3169.064
3169074.0,207.0,97.0,3.0,235.0,3169.074
3169084.0,216.0,95.0,5.0,244.0,3169.084
3169094.0,217.0,95.0,4.0,246.0,3169.094
3169104.0,211.0,96.0,3.0,237.0,3169.104
3169114.0,209.0,94.0,3.0,240.0,3169.114
3169124.0,203.0,91.0,3.0,234.0,3169.124
3169134.0,212.0,89.0,4.0,244.0,3169.134
3169144.0,215.0,87.0,5.0,243.0,3169.144
3169154.0,210.0,91.0,4.0,240.0,3169.154
3169164.0,210.0,88.0,4.0,240.0,3169.164
3169174.0,207.0,88.0,3.0,237.0,3169.174
3169184.0,215.0,91.0,3.0,244.0,3169.184
3169195.0,217.0,90.0,3.0,244.0,3169.195
3169205.0,208.0,101.0,4.0,236.0,3169.205
3169215.0,212.0,97.0,4.0,238.0,3169.215
3169225.0,214.0,101.0,3.0,241.0,3169.225
3169235.0,215.0,105.0,4.0,241.0,3169.235
3169245.0,217.0,102.0,3.0,243.0,3169.245
3169255.0,212.0,104.0,4.0,236.0,3169.255
3169265.0,215.0,101.0,4.0,239.0,3169.265
3169275.0,219.0,106.0,4.0,243.0,3169.275
3169285.0,218.0,109.0,3.0,243.0,3169.285
3169295.0,217.0,104.0,4.0,241.0,3169.295
3169305.0,210.0,107.0,3.0,234.0,3169.305
3169315.0,212.0,103.0,4.0,238.0,3169.315
3169325.0,213.0,101.0,4.0,240.0,3169.325
3169335.0,217.0,104.0,4.0,244.0,3169.335
3169345.0,216.0,99.0,4.0,242.0,3169.345
3169355.0,210.0,101.0,3.0,235.0,3169.355
3169366.0,211.0,97.0,4.0,239.0,3169.366
3169376.0,216.0,99.0,3.0,247.0,3169.376
3169386.0,214.0,102.0,3.0,242.0,3169.386
3169396.0,212.0,98.0,3.0,241.0,3169.396
3169406.0,207.0,97.0,5.0,235.0,3169.406
3169416.0,211.0,95.0,4.0,241.0,3169.416
3169426.0,217.0,93.0,4.0,246.0,3169.426
3169436.0,214.0,97.0,4.0,243.0,3169.436
3169446.0,213.0,92.0,3.0,241.0,3169.446
3169456.0,207.0,98.0,3.0,234.0,3169.456
3169466.0,213.0,95.0,5.0,241.0,3169.466
3169476.0,218.0,98.0,4.0,246.0,3169.476
3169486.0,214.0,102.0,3.0,240.0,3169.486
3169496.0,215.0,99.0,3.0,241.0,3169.496
3169506.0,208.0,96.0,3.0,232.0,3169.506
3169516.0,213.0,94.0,4.0,242.0,3169.516
3169526.0,217.0,95.0,4.0,246.0,3169.526
3169536.0,215.0,96.0,4.0,243.0,3169.536
3169546.0,213.0,92.0,4.0,240.0,3169.546
3169556.0,205.0,91.0,4.0,232.0,3169.556
3169566.0,213.0,90.0,3.0,243.0,3169.566
3169576.0,217.0,91.0,4.0,244.0,3169.576
3169586.0,213.0,93.0,3.0,241.0,3169.586
3169596.0,213.0,89.0,4.0,239.0,3169.596
3169606.0,206.0,87.0,4.0,232.0,3169.606
3169616.0,214.0,85.0,4.0,243.0,3169.616
3169626.0,216.0,83.0,4.0,246.0,3169.626
3169636.0,214.0,82.0,3.0,242.0,3169.636
3169646.0,215.0,78.0,4.0,241.0,3169.646
3169656.0,207.0,78.0,4.0,235.0,3169.656
3169666.0,213.0,77.0,4.0,241.0,3169.666
3169676.0,218.0,83.0,4.0,247.0,3169.676
3169686.0,214.0,89.0,3.0,241.0,3169.686
3169696.0,214.0,87.0,3.0,242.0,3169.696
3169707.0,208.0,88.0,4.0,239.0,3169.707
3169717.0,215.0,91.0,3.0,248.0,3169.717
3169727.0,219.0,91.0,4.0,249.0,3169.727
3169737.0,210.0,95.0,2.0,240.0,3169.737
3169747.0,211.0,91.0,4.0,243.0,3169.747
3169757.0,208.0,95.0,4.0,241.0,3169.757
3169767.0,215.0,96.0,3.0,248.0,3169.767
3169777.0,216.0,95.0,3.0,247.0,3169.777
3169787.0,209.0,97.0,5.0,239.0,3169.787
3169797.0,211.0,94.0,3.0,241.0,3169.797
3169807.0,208.0,97.0,3.0,241.0,3169.807
3169817.0,214.0,99.0,3.0,246.0,3169.817
3169827.0,215.0,96.0,3.0,244.0,3169.827
3169837.0,210.0,101.0,3.0,241.0,3169.837
3169847.0,211.0,97.0,4.0,241.0,3169.847
3169857.0,211.0,101.0,4.0,241.0,3169.857
3169867.0,215.0,105.0,3.0,245.0,3169.867
3169878.0,214.0,103.0,4.0,243.0,3169.878
3169888.0,203.0,110.0,3.0,235.0,3169.888
3169898.0,206.0,103.0,4.0,236.0,3169.898
3169908.0,212.0,111.0,3.0,242.0,3169.908
3169918.0,212.0,121.0,5.0,239.0,3169.918
3169928.0,212.0,115.0,4.0,238.0,3169.928
3169938.0,205.0,119.0,4.0,229.0,3169.938
3169948.0,209.0,113.0,3.0,237.0,3169.948
3169958.0,215.0,118.0,3.0,244.0,3169.958
3169968.0,215.0,125.0,4.0,242.0,3169.968
3169978.0,215.0,120.0,4.0,240.0,3169.978
3169988.0,207.0,126.0,3.0,234.0,3169.988
3169998.0,210.0,120.0,4.0,240.0,3169.998
3170008.0,218.0,127.0,4.0,245.0,3170.008
3170018.0,218.0,134.0,3.0,245.0,3170.018
3170028.0,219.0,126.0,4.0,243.0,3170.028
3170038.0,209.0,129.0,3.0,236.0,3170.038
3170048.0,215.0,125.0,4.0,240.0,3170.048
3170058.0,216.0,126.0,4.0,245.0,3170.058
3170068.0,216.0,130.0,3.0,243.0,3170.068
3170078.0,215.0,124.0,3.0,241.0,3170.078
3170088.0,207.0,126.0,4.0,233.0,3170.088
3170098.0,211.0,123.0,3.0,237.0,3170.098
3170108.0,216.0,122.0,5.0,243.0,3170.108
3170118.0,211.0,128.0,2.0,243.0,3170.118
3170128.0,212.0,123.0,4.0,241.0,3170.128
3170138.0,205.0,124.0,3.0,236.0,3170.138
3170148.0,208.0,119.0,3.0,239.0,3170.148
3170158.0,215.0,124.0,4.0,247.0,3170.158
3170168.0,212.0,132.0,3.0,244.0,3170.168
3170178.0,216.0,126.0,5.0,243.0,3170.178
3170188.0,206.0,134.0,4.0,235.0,3170.188
3170198.0,210.0,128.0,4.0,240.0,3170.198
3170208.0,215.0,136.0,3.0,246.0,3170.208
3170219.0,211.0,144.0,3.0,240.0,3170.219
3170229.0,211.0,137.0,4.0,240.0,3170.229
3170239.0,205.0,142.0,5.0,234.0,3170.239
3170249.0,214.0,144.0,2.0,245.0,3170.249
3170259.0,218.0,142.0,4.0,245.0,3170.259
3170269.0,213.0,148.0,4.0,241.0,3170.269
3170279.0,213.0,140.0,4.0,239.0,3170.279
3170289.0,207.0,139.0,3.0,235.0,3170.289
3170299.0,215.0,142.0,4.0,243.0,3170.299
3170309.0,218.0,137.0,4.0,244.0,3170.309
3170319.0,213.0,141.0,4.0,239.0,3170.319
3170329.0,214.0,135.0,4.0,239.0,3170.329
3170339.0,209.0,137.0,3.0,235.0,3170.339
3170349.0,214.0,133.0,4.0,241.0,3170.349
3170359.0,219.0,134.0,3.0,244.0,3170.359
3170369.0,213.0,138.0,4.0,238.0,3170.369
3170379.0,214.0,133.0,2.0,238.0,3170.379
3170390.0,209.0,136.0,4.0,237.0,3170.39
3170400.0,216.0,144.0,3.0,246.0,3170.4
3170410.0,217.0,138.0,4.0,243.0,3170.41
3170420.0,209.0,143.0,3.0,236.0,3170.42
3170430.0,214.0,138.0,5.0,239.0,3170.43
3170440.0,212.0,139.0,4.0,239.0,3170.44
3170450.0,216.0,142.0,4.0,245.0,3170.45
3170460.0,218.0,136.0,4.0,245.0,3170.46
3170470.0,209.0,138.0,3.0,237.0,3170.47
3170480.0,212.0,134.0,3.0,242.0,3170.48
3170490.0,212.0,135.0,4.0,243.0,3170.49
3170500.0,216.0,141.0,4.0,247.0,3170.5
3170510.0,215.0,135.0,4.0,245.0,3170.51
3170520.0,210.0,137.0,4.0,240.0,3170.52
3170530.0,211.0,135.0,3.0,241.0,3170.53
3170540.0,212.0,136.0,4.0,242.0,3170.54
3170550.0,215.0,145.0,3.0,245.0,3170.55
3170560.0,221.0,139.0,4.0,245.0,3170.56
3170570.0,211.0,146.0,3.0,239.0,3170.57
3170580.0,214.0,140.0,4.0,239.0,3170.58
3170590.0,216.0,145.0,3.0,245.0,3170.59
3170600.0,216.0,152.0,4.0,243.0,3170.6
3170610.0,218.0,145.0,4.0,244.0,3170.61
3170620.0,209.0,150.0,4.0,236.0,3170.62
3170630.0,213.0,145.0,4.0,239.0,3170.63
3170640.0,215.0,145.0,4.0,244.0,3170.64
3170650.0,216.0,150.0,3.0,245.0,3170.65
3170660.0,217.0,144.0,3.0,242.0,3170.66
3170670.0,210.0,145.0,4.0,235.0,3170.67
3170680.0,213.0,141.0,4.0,238.0,3170.68
3170690.0,213.0,141.0,5.0,239.0,3170.69
3170700.0,216.0,146.0,4.0,246.0,3170.7
3170710.0,217.0,139.0,3.0,241.0,3170.71
3170720.0,208.0,142.0,3.0,235.0,3170.72
3170731.0,210.0,137.0,4.0,238.0,3170.731
3170741.0,216.0,138.0,4.0,246.0,3170.741
3170751.0,213.0,144.0,5.0,243.0,3170.751
3170761.0,214.0,138.0,3.0,242.0,3170.761
3170771.0,206.0,139.0,4.0,235.0,3170.771
3170781.0,210.0,137.0,3.0,241.0,3170.781
3170791.0,217.0,138.0,3.0,247.0,3170.791
3170801.0,215.0,142.0,3.0,243.0,3170.801
3170811.0,217.0,137.0,4.0,243.0,3170.811
3170821.0,210.0,138.0,4.0,236.0,3170.821
3170831.0,214.0,136.0,2.0,243.0,3170.831
3170841.0,220.0,137.0,3.0,249.0,3170.841
3170851.0,215.0,142.0,4.0,244.0,3170.851
3170861.0,216.0,135.0,4.0,242.0,3170.861
3170871.0,208.0,136.0,3.0,236.0,3170.871
3170881.0,214.0,134.0,5.0,243.0,3170.881
3170891.0,218.0,136.0,3.0,247.0,3170.891
3170902.0,213.0,140.0,3.0,241.0,3170.902
3170912.0,213.0,136.0,3.0,242.0,3170.912
3170922.0,207.0,137.0,3.0,238.0,3170.922
3170932.0,215.0,144.0,3.0,247.0,3170.932
3170942.0,217.0,140.0,4.0,249.0,3170.942
3170952.0,212.0,145.0,3.0,244.0,3170.952
3170962.0,210.0,139.0,3.0,243.0,3170.962
3170972.0,205.0,143.0,3.0,242.0,3170.972
3170982.0,213.0,150.0,4.0,250.0,3170.982
3170992.0,215.0,142.0,4.0,250.0,3170.992
3171002.0,209.0,148.0,4.0,243.0,3171.002
3171012.0,211.0,143.0,4.0,243.0,3171.012
3171022.0,208.0,144.0,2.0,243.0,3171.022
3171032.0,212.0,145.0,4.0,247.0,3171.032
3171042.0,215.0,143.0,3.0,247.0,3171.042
3171052.0,208.0,145.0,4.0,239.0,3171.052
3171062.0,210.0,141.0,4.0,240.0,3171.062
3171072.0,205.0,140.0,5.0,238.0,3171.072
3171082.0,214.0,142.0,4.0,248.0,3171.082
3171092.0,216.0,137.0,3.0,248.0,3171.092
3171102.0,209.0,141.0,4.0,242.0,3171.102
3171112.0,211.0,137.0,3.0,244.0,3171.112
3171122.0,207.0,138.0,4.0,240.0,3171.122
3171132.0,215.0,142.0,4.0,249.0,3171.132
3171142.0,219.0,138.0,4.0,250.0,3171.142
3171152.0,210.0,144.0,3.0,242.0,3171.152
3171162.0,212.0,139.0,4.0,244.0,3171.162
3171172.0,208.0,143.0,3.0,243.0,3171.172
3171182.0,216.0,147.0,4.0,250.0,3171.182
3171192.0,217.0,143.0,3.0,248.0,3171.192
3171202.0,212.0,151.0,4.0,243.0,3171.202
3171212.0,210.0,145.0,2.0,243.0,3171.212
3171222.0,207.0,146.0,3.0,242.0,3171.222
3171232.0,214.0,153.0,4.0,249.0,3171.232
3171243.0,215.0,147.0,3.0,245.0,3171.243
3171253.0,206.0,152.0,3.0,239.0,3171.253
3171263.0,209.0,145.0,4.0,242.0,3171.263
3171273.0,214.0,153.0,4.0,248.0,3171.273
3171283.0,212.0,162.0,3.0,247.0,3171.283
3171293.0,215.0,155.0,3.0,246.0,3171.293
3171303.0,206.0,160.0,3.0,240.0,3171.303
3171313.0,209.0,153.0,4.0,244.0,3171.313
3171323.0,215.0,157.0,4.0,250.0,3171.323
3171333.0,216.0,166.0,5.0,250.0,3171.333
3171343.0,215.0,158.0,4.0,246.0,3171.343
3171353.0,210.0,163.0,4.0,241.0,3171.353
3171363.0,214.0,160.0,3.0,246.0,3171.363
3171373.0,217.0,158.0,4.0,248.0,3171.373
3171383.0,218.0,166.0,4.0,251.0,3171.383
3171393.0,219.0,159.0,4.0,248.0,3171.393
3171403.0,209.0,163.0,3.0,240.0,3171.403
3171414.0,212.0,159.0,4.0,243.0,3171.414
3171424.0,218.0,162.0,3.0,250.0,3171.424
3171434.0,213.0,169.0,3.0,248.0,3171.434
3171444.0,213.0,161.0,4.0,246.0,3171.444
3171454.0,207.0,162.0,4.0,242.0,3171.454
3171464.0,213.0,161.0,3.0,248.0,3171.464
3171474.0,218.0,161.0,3.0,251.0,3171.474
3171484.0,213.0,166.0,4.0,245.0,3171.484
3171494.0,213.0,161.0,3.0,246.0,3171.494
3171504.0,207.0,161.0,3.0,238.0,3171.504
3171514.0,212.0,161.0,3.0,247.0,3171.514
3171524.0,218.0,159.0,5.0,249.0,3171.524
3171534.0,211.0,161.0,4.0,244.0,3171.534
3171544.0,213.0,157.0,4.0,245.0,3171.544
3171554.0,204.0,157.0,3.0,239.0,3171.554
3171564.0,211.0,157.0,3.0,247.0,3171.564
3171574.0,216.0,155.0,3.0,250.0,3171.574
3171584.0,213.0,160.0,3.0,247.0,3171.584
3171594.0,213.0,154.0,4.0,245.0,3171.594
3171604.0,204.0,153.0,4.0,238.0,3171.604
3171614.0,212.0,155.0,3.0,248.0,3171.614
3171624.0,217.0,153.0,3.0,248.0,3171.624
3171634.0,212.0,156.0,4.0,244.0,3171.634
3171644.0,212.0,151.0,3.0,242.0,3171.644
3171654.0,203.0,149.0,5.0,236.0,3171.654
3171664.0,210.0,152.0,4.0,246.0,3171.664
3171674.0,214.0,148.0,4.0,246.0,3171.674
3171684.0,209.0,153.0,4.0,244.0,3171.684
3171694.0,210.0,148.0,3.0,244.0,3171.694
