time (ms),signal 0,signal 1,signal 2,signal 3,time (sec)
3215796.0,223.0,218.0,4.0,249.0,3215.796
3215806.0,221.0,211.0,3.0,246.0,3215.806
3215816.0,213.0,209.0,4.0,237.0,3215.816
3215826.0,216.0,209.0,4.0,242.0,3215.826
3215836.0,218.0,208.0,4.0,246.0,3215.836
3215846.0,221.0,215.0,3.0,249.0,3215.846
3215856.0,220.0,211.0,3.0,248.0,3215.856
3215866.0,213.0,206.0,4.0,238.0,3215.866
3215876.0,216.0,207.0,4.0,245.0,3215.876
3215886.0,218.0,206.0,2.0,248.0,3215.886
3215896.0,220.0,213.0,4.0,250.0,3215.896
3215906.0,220.0,207.0,3.0,248.0,3215.906
3215916.0,215.0,206.0,3.0,242.0,3215.916
3215926.0,213.0,204.0,3.0,243.0,3215.926
3215936.0,217.0,204.0,4.0,247.0,3215.936
3215946.0,218.0,214.0,3.0,249.0,3215.946
3215956.0,219.0,209.0,4.0,247.0,3215.956
3215966.0,214.0,207.0,4.0,242.0,3215.966
3215976.0,215.0,205.0,4.0,245.0,3215.976
3215986.0,219.0,206.0,3.0,254.0,3215.986
3215996.0,220.0,212.0,4.0,251.0,3215.996
3216006.0,222.0,207.0,3.0,251.0,3216.006
3216016.0,215.0,205.0,4.0,240.0,3216.016
3216026.0,217.0,204.0,4.0,246.0,3216.026
3216036.0,223.0,204.0,4.0,252.0,3216.036
3216046.0,223.0,212.0,3.0,250.0,3216.046
3216056.0,221.0,205.0,3.0,248.0,3216.056
3216066.0,214.0,205.0,3.0,242.0,3216.066
3216076.0,219.0,203.0,5.0,247.0,3216.076
3216086.0,223.0,203.0,4.0,250.0,3216.086
3216096.0,224.0,211.0,3.0,250.0,3216.096
3216106.0,223.0,204.0,4.0,249.0,3216.106
3216116.0,216.0,203.0,3.0,241.0,3216.116
3216126.0,221.0,203.0,4.0,247.0,3216.126
3216136.0,223.0,202.0,3.0,253.0,3216.136
3216146.0,226.0,209.0,4.0,252.0,3216.146
3216156.0,223.0,204.0,4.0,251.0,3216.156
3216166.0,217.0,201.0,3.0,245.0,3216.166
3216176.0,221.0,203.0,3.0,252.0,3216.176
3216186.0,226.0,203.0,4.0,257.0,3216.186
3216196.0,226.0,210.0,4.0,256.0,3216.196
3216206.0,225.0,204.0,5.0,253.0,3216.206
3216216.0,220.0,205.0,4.0,248.0,3216.216
3216226.0,221.0,203.0,3.0,253.0,3216.226
3216236.0,226.0,203.0,4.0,257.0,3216.236
3216246.0,225.0,212.0,3.0,254.0,3216.246
3216256.0,223.0,205.0,4.0,254.0,3216.256
3216266.0,214.0,203.0,3.0,246.0,3216.266
3216276.0,218.0,202.0,5.0,251.0,3216.276
3216286.0,224.0,202.0,4.0,258.0,3216.286
3216296.0,222.0,208.0,4.0,255.0,3216.296
3216306.0,223.0,204.0,4.0,256.0,3216.306
3216316.0,216.0,202.0,4.0,247.0,3216.316
3216326.0,220.0,202.0,3.0,254.0,3216.326
3216336.0,226.0,203.0,3.0,260.0,3216.336
3216346.0,226.0,211.0,4.0,258.0,3216.346
3216356.0,222.0,204.0,4.0,255.0,3216.356
3216366.0,213.0,202.0,4.0,247.0,3216.366
3216376.0,218.0,205.0,3.0,255.0,3216.376
3216386.0,222.0,202.0,3.0,260.0,3216.386
3216396.0,223.0,210.0,4.0,259.0,3216.396
3216406.0,223.0,203.0,4.0,257.0,3216.406
3216416.0,214.0,201.0,3.0,248.0,3216.416
3216427.0,221.0,205.0,3.0,258.0,3216.427
3216437.0,227.0,202.0,3.0,262.0,3216.437
3216447.0,223.0,206.0,4.0,255.0,3216.447
3216457.0,224.0,202.0,3.0,256.0,3216.457
3216467.0,219.0,200.0,4.0,254.0,3216.467
3216477.0,223.0,204.0,4.0,259.0,3216.477
3216487.0,228.0,201.0,4.0,263.0,3216.487
3216497.0,224.0,208.0,3.0,257.0,3216.497
3216507.0,222.0,200.0,3.0,254.0,3216.507
3216517.0,215.0,199.0,4.0,246.0,3216.517
3216527.0,220.0,203.0,4.0,259.0,3216.527
3216537.0,224.0,197.0,4.0,263.0,3216.537
3216547.0,218.0,201.0,3.0,254.0,3216.547
3216557.0,221.0,200.0,3.0,256.0,3216.557
3216567.0,215.0,196.0,3.0,251.0,3216.567
3216577.0,222.0,204.0,4.0,260.0,3216.577
3216587.0,227.0,198.0,4.0,262.0,3216.587
3216598.0,221.0,203.0,4.0,254.0,3216.598
3216608.0,220.0,198.0,4.0,254.0,3216.608
3216618.0,220.0,197.0,3.0,255.0,3216.618
3216628.0,225.0,207.0,3.0,258.0,3216.628
3216638.0,226.0,200.0,4.0,257.0,3216.638
3216648.0,220.0,202.0,3.0,250.0,3216.648
3216658.0,220.0,198.0,4.0,251.0,3216.658
3216668.0,222.0,198.0,4.0,255.0,3216.668
3216678.0,224.0,204.0,4.0,257.0,3216.678
3216688.0,223.0,197.0,4.0,257.0,3216.688
3216698.0,219.0,202.0,3.0,251.0,3216.698
3216708.0,222.0,199.0,4.0,253.0,3216.708
3216718.0,222.0,197.0,4.0,259.0,3216.718
3216728.0,231.0,213.0,4.0,262.0,3216.728
3216738.0,238.0,208.0,4.0,265.0,3216.738
3216748.0,229.0,206.0,3.0,258.0,3216.748
3216758.0,236.0,205.0,3.0,258.0,3216.758
3216768.0,236.0,202.0,4.0,258.0,3216.768
3216778.0,240.0,207.0,3.0,265.0,3216.778
3216788.0,231.0,194.0,5.0,251.0,3216.788
3216798.0,237.0,215.0,4.0,251.0,3216.798
3216808.0,240.0,216.0,3.0,253.0,3216.808
3216818.0,247.0,223.0,3.0,258.0,3216.818
3216828.0,245.0,222.0,3.0,257.0,3216.828
3216838.0,244.0,212.0,3.0,259.0,3216.838
3216848.0,239.0,220.0,4.0,256.0,3216.848
3216858.0,249.0,220.0,4.0,264.0,3216.858
3216868.0,264.0,241.0,3.0,285.0,3216.868
3216878.0,277.0,252.0,4.0,295.0,3216.878
3216888.0,275.0,243.0,3.0,296.0,3216.888
3216898.0,271.0,242.0,4.0,286.0,3216.898
3216908.0,275.0,239.0,4.0,282.0,3216.908
3216918.0,278.0,234.0,4.0,283.0,3216.918
3216928.0,286.0,237.0,3.0,282.0,3216.928
3216939.0,269.0,226.0,4.0,264.0,3216.939
3216949.0,262.0,218.0,3.0,259.0,3216.949
3216959.0,254.0,214.0,4.0,260.0,3216.959
3216969.0,256.0,222.0,4.0,269.0,3216.969
3216979.0,248.0,213.0,5.0,259.0,3216.979
3216989.0,251.0,213.0,3.0,263.0,3216.989
3216999.0,244.0,206.0,4.0,251.0,3216.999
3217009.0,238.0,197.0,4.0,244.0,3217.009
3217019.0,245.0,196.0,3.0,246.0,3217.019
3217029.0,248.0,200.0,4.0,242.0,3217.029
3217039.0,239.0,199.0,4.0,246.0,3217.039
3217049.0,240.0,203.0,4.0,245.0,3217.049
3217059.0,245.0,203.0,3.0,251.0,3217.059
3217069.0,247.0,196.0,3.0,269.0,3217.069
3217079.0,240.0,196.0,3.0,265.0,3217.079
3217089.0,239.0,190.0,4.0,270.0,3217.089
3217099.0,229.0,186.0,3.0,265.0,3217.099
3217110.0,241.0,190.0,4.0,275.0,3217.11
3217120.0,245.0,190.0,4.0,269.0,3217.12
3217130.0,233.0,184.0,4.0,248.0,3217.13
3217140.0,229.0,184.0,3.0,259.0,3217.14
3217150.0,229.0,182.0,4.0,258.0,3217.15
3217160.0,235.0,185.0,3.0,254.0,3217.16
3217170.0,241.0,181.0,5.0,261.0,3217.17
3217180.0,238.0,185.0,4.0,262.0,3217.18
3217190.0,242.0,185.0,3.0,268.0,3217.19
3217200.0,236.0,181.0,3.0,274.0,3217.2
3217210.0,250.0,193.0,3.0,295.0,3217.21
3217220.0,254.0,190.0,4.0,296.0,3217.22
3217230.0,246.0,191.0,4.0,293.0,3217.23
3217240.0,250.0,188.0,5.0,301.0,3217.24
3217250.0,243.0,187.0,4.0,300.0,3217.25
3217260.0,250.0,196.0,3.0,307.0,3217.26
3217270.0,251.0,189.0,3.0,301.0,3217.27
3217280.0,243.0,191.0,3.0,287.0,3217.28
3217290.0,245.0,183.0,3.0,278.0,3217.29
3217300.0,244.0,191.0,5.0,278.0,3217.3
3217310.0,251.0,203.0,4.0,285.0,3217.31
3217320.0,251.0,198.0,3.0,280.0,3217.32
3217330.0,244.0,209.0,4.0,276.0,3217.33
3217340.0,245.0,202.0,3.0,278.0,3217.34
3217350.0,241.0,210.0,3.0,280.0,3217.35
3217360.0,247.0,217.0,4.0,287.0,3217.36
3217370.0,250.0,208.0,4.0,291.0,3217.37
3217380.0,242.0,217.0,4.0,293.0,3217.38
3217390.0,245.0,208.0,3.0,298.0,3217.39
3217400.0,245.0,209.0,3.0,300.0,3217.4
3217410.0,248.0,216.0,3.0,294.0,3217.41
3217420.0,249.0,210.0,4.0,295.0,3217.42
3217430.0,240.0,219.0,4.0,286.0,3217.43
3217440.0,242.0,211.0,3.0,288.0,3217.44
3217451.0,238.0,212.0,4.0,301.0,3217.451
3217461.0,240.0,224.0,3.0,298.0,3217.461
3217471.0,245.0,216.0,4.0,292.0,3217.471
3217481.0,235.0,212.0,4.0,278.0,3217.481
3217491.0,241.0,211.0,4.0,283.0,3217.491
3217501.0,245.0,211.0,4.0,284.0,3217.501
3217511.0,245.0,223.0,4.0,283.0,3217.511
3217521.0,246.0,213.0,4.0,285.0,3217.521
3217531.0,235.0,212.0,3.0,273.0,3217.531
3217541.0,237.0,208.0,4.0,276.0,3217.541
3217551.0,238.0,212.0,3.0,281.0,3217.551
3217561.0,242.0,223.0,5.0,280.0,3217.561
3217571.0,242.0,216.0,4.0,276.0,3217.571
3217581.0,234.0,225.0,3.0,278.0,3217.581
3217591.0,238.0,221.0,3.0,277.0,3217.591
3217601.0,245.0,228.0,3.0,285.0,3217.601
3217611.0,242.0,238.0,4.0,282.0,3217.611
3217622.0,241.0,226.0,5.0,269.0,3217.622
3217632.0,231.0,230.0,4.0,257.0,3217.632
3217642.0,241.0,234.0,4.0,269.0,3217.642
3217652.0,250.0,230.0,4.0,278.0,3217.652
3217662.0,245.0,233.0,3.0,264.0,3217.662
3217672.0,249.0,227.0,3.0,271.0,3217.672
3217682.0,235.0,221.0,4.0,255.0,3217.682
3217692.0,244.0,227.0,4.0,272.0,3217.692
3217702.0,250.0,222.0,4.0,288.0,3217.702
3217712.0,242.0,225.0,4.0,280.0,3217.712
3217722.0,242.0,221.0,3.0,289.0,3217.722
3217732.0,239.0,216.0,4.0,284.0,3217.732
3217742.0,248.0,221.0,4.0,285.0,3217.742
3217752.0,249.0,211.0,5.0,291.0,3217.752
3217762.0,245.0,223.0,4.0,292.0,3217.762
3217772.0,249.0,219.0,3.0,311.0,3217.772
3217782.0,243.0,217.0,3.0,307.0,3217.782
3217792.0,252.0,225.0,3.0,316.0,3217.792
3217802.0,260.0,220.0,4.0,324.0,3217.802
3217812.0,250.0,223.0,4.0,309.0,3217.812
3217822.0,247.0,218.0,4.0,298.0,3217.822
3217832.0,240.0,219.0,3.0,300.0,3217.832
3217842.0,246.0,221.0,4.0,301.0,3217.842
3217852.0,249.0,222.0,3.0,327.0,3217.852
3217862.0,237.0,222.0,4.0,312.0,3217.862
3217872.0,236.0,218.0,3.0,308.0,3217.872
3217882.0,229.0,216.0,4.0,294.0,3217.882
3217892.0,237.0,223.0,2.0,305.0,3217.892
3217902.0,241.0,218.0,4.0,307.0,3217.902
3217912.0,231.0,224.0,3.0,298.0,3217.912
3217922.0,237.0,218.0,3.0,302.0,3217.922
3217932.0,230.0,215.0,4.0,295.0,3217.932
3217942.0,237.0,222.0,4.0,303.0,3217.942
3217952.0,241.0,214.0,3.0,297.0,3217.952
3217963.0,230.0,218.0,4.0,280.0,3217.963
3217973.0,231.0,213.0,4.0,273.0,3217.973
3217983.0,229.0,211.0,3.0,273.0,3217.983
3217993.0,234.0,222.0,4.0,273.0,3217.993
3218003.0,237.0,214.0,4.0,270.0,3218.003
3218013.0,230.0,218.0,4.0,262.0,3218.013
3218023.0,230.0,213.0,2.0,265.0,3218.023
3218033.0,229.0,212.0,4.0,266.0,3218.033
3218043.0,229.0,223.0,3.0,262.0,3218.043
3218053.0,232.0,214.0,3.0,263.0,3218.053
3218063.0,221.0,219.0,3.0,259.0,3218.063
3218073.0,226.0,215.0,5.0,260.0,3218.073
3218083.0,229.0,217.0,2.0,268.0,3218.083
3218093.0,233.0,229.0,3.0,273.0,3218.093
3218103.0,236.0,221.0,4.0,272.0,3218.103
3218113.0,227.0,225.0,3.0,267.0,3218.113
3218123.0,228.0,220.0,4.0,265.0,3218.123
3218134.0,233.0,219.0,4.0,265.0,3218.134
3218144.0,236.0,229.0,4.0,260.0,3218.144
3218154.0,234.0,222.0,4.0,260.0,3218.154
3218164.0,225.0,219.0,4.0,252.0,3218.164
3218174.0,233.0,224.0,3.0,263.0,3218.174
3218184.0,241.0,220.0,4.0,268.0,3218.184
3218194.0,238.0,226.0,4.0,266.0,3218.194
3218204.0,241.0,218.0,5.0,276.0,3218.204
3218214.0,231.0,216.0,4.0,263.0,3218.214
3218224.0,236.0,216.0,4.0,261.0,3218.224
3218234.0,241.0,216.0,3.0,267.0,3218.234
3218244.0,237.0,221.0,3.0,266.0,3218.244
3218254.0,236.0,217.0,3.0,258.0,3218.254
3218264.0,229.0,213.0,4.0,248.0,3218.264
3218274.0,232.0,213.0,4.0,258.0,3218.274
3218284.0,238.0,215.0,3.0,273.0,3218.284
3218294.0,235.0,220.0,4.0,264.0,3218.294
3218304.0,238.0,216.0,4.0,265.0,3218.304
3218314.0,229.0,216.0,4.0,266.0,3218.314
3218324.0,233.0,218.0,3.0,272.0,3218.324
3218334.0,241.0,216.0,4.0,274.0,3218.334
3218344.0,234.0,223.0,3.0,268.0,3218.344
3218354.0,237.0,217.0,4.0,273.0,3218.354
3218364.0,228.0,217.0,3.0,262.0,3218.364
3218374.0,231.0,222.0,3.0,264.0,3218.374
3218384.0,238.0,217.0,4.0,268.0,3218.384
3218394.0,237.0,227.0,4.0,265.0,3218.394
3218404.0,236.0,220.0,4.0,266.0,3218.404
3218414.0,227.0,217.0,3.0,262.0,3218.414
3218424.0,237.0,222.0,3.0,276.0,3218.424
3218434.0,237.0,217.0,3.0,275.0,3218.434
3218444.0,232.0,223.0,4.0,268.0,3218.444
3218454.0,235.0,218.0,3.0,264.0,3218.454
3218464.0,225.0,211.0,4.0,252.0,3218.464
3218475.0,232.0,222.0,3.0,269.0,3218.475
3218485.0,236.0,217.0,4.0,269.0,3218.485
3218495.0,229.0,218.0,3.0,263.0,3218.495
3218505.0,232.0,215.0,4.0,270.0,3218.505
3218515.0,233.0,217.0,3.0,294.0,3218.515
3218525.0,235.0,222.0,5.0,295.0,3218.525
3218535.0,239.0,217.0,4.0,291.0,3218.535
3218545.0,231.0,217.0,4.0,276.0,3218.545
3218555.0,234.0,214.0,3.0,278.0,3218.555
3218565.0,229.0,214.0,3.0,273.0,3218.565
3218575.0,239.0,221.0,3.0,285.0,3218.575
3218585.0,242.0,215.0,4.0,285.0,3218.585
3218595.0,237.0,217.0,4.0,275.0,3218.595
3218605.0,241.0,214.0,3.0,279.0,3218.605
3218615.0,237.0,215.0,4.0,275.0,3218.615
3218625.0,246.0,223.0,3.0,282.0,3218.625
3218635.0,246.0,214.0,3.0,280.0,3218.635
3218646.0,236.0,214.0,4.0,275.0,3218.646
3218656.0,236.0,210.0,4.0,272.0,3218.656
3218666.0,238.0,212.0,4.0,285.0,3218.666
3218676.0,235.0,217.0,4.0,279.0,3218.676
3218686.0,235.0,211.0,3.0,278.0,3218.686
3218696.0,229.0,211.0,3.0,268.0,3218.696
3218706.0,230.0,208.0,3.0,266.0,3218.706
3218716.0,235.0,209.0,4.0,269.0,3218.716
3218726.0,232.0,215.0,4.0,260.0,3218.726
3218736.0,237.0,209.0,4.0,264.0,3218.736
3218746.0,227.0,209.0,3.0,260.0,3218.746
3218756.0,230.0,207.0,3.0,266.0,3218.756
3218766.0,236.0,207.0,3.0,274.0,3218.766
3218776.0,237.0,215.0,4.0,277.0,3218.776
3218786.0,239.0,210.0,4.0,278.0,3218.786
3218796.0,232.0,210.0,4.0,266.0,3218.796
3218806.0,238.0,209.0,4.0,270.0,3218.806
3218816.0,238.0,211.0,3.0,271.0,3218.816
3218826.0,240.0,220.0,3.0,275.0,3218.826
3218836.0,239.0,212.0,3.0,272.0,3218.836
3218846.0,232.0,211.0,4.0,263.0,3218.846
3218856.0,236.0,211.0,4.0,267.0,3218.856
3218866.0,238.0,210.0,4.0,269.0,3218.866
3218876.0,240.0,219.0,3.0,266.0,3218.876
3218886.0,240.0,211.0,4.0,262.0,3218.886
3218896.0,230.0,209.0,4.0,251.0,3218.896
3218906.0,234.0,208.0,3.0,254.0,3218.906
3218916.0,239.0,205.0,4.0,256.0,3218.916
3218926.0,240.0,212.0,3.0,259.0,3218.926
3218936.0,239.0,206.0,4.0,258.0,3218.936
3218946.0,230.0,206.0,3.0,254.0,3218.946
3218956.0,234.0,205.0,4.0,254.0,3218.956
3218966.0,239.0,204.0,3.0,259.0,3218.966
3218976.0,243.0,207.0,5.0,259.0,3218.976
3218987.0,241.0,202.0,3.0,263.0,3218.987
3218997.0,231.0,199.0,4.0,249.0,3218.997
3219007.0,240.0,205.0,3.0,264.0,3219.007
3219017.0,247.0,202.0,3.0,267.0,3219.017
3219027.0,238.0,202.0,4.0,256.0,3219.027
3219037.0,239.0,200.0,4.0,259.0,3219.037
3219047.0,229.0,195.0,3.0,252.0,3219.047
3219057.0,240.0,200.0,3.0,267.0,3219.057
3219067.0,243.0,195.0,3.0,269.0,3219.067
3219077.0,238.0,201.0,3.0,262.0,3219.077
3219087.0,237.0,195.0,4.0,257.0,3219.087
3219097.0,228.0,193.0,3.0,251.0,3219.097
3219107.0,239.0,199.0,4.0,263.0,3219.107
3219117.0,241.0,194.0,3.0,266.0,3219.117
3219127.0,238.0,204.0,4.0,265.0,3219.127
3219137.0,238.0,199.0,3.0,270.0,3219.137
3219147.0,230.0,200.0,4.0,265.0,3219.147
3219158.0,237.0,205.0,3.0,274.0,3219.158
3219168.0,239.0,199.0,4.0,276.0,3219.168
3219178.0,230.0,203.0,4.0,267.0,3219.178
3219188.0,232.0,196.0,4.0,266.0,3219.188
3219198.0,232.0,198.0,3.0,269.0,3219.198
3219208.0,239.0,209.0,4.0,273.0,3219.208
3219218.0,242.0,205.0,3.0,281.0,3219.218
3219228.0,234.0,213.0,4.0,267.0,3219.228
3219238.0,239.0,209.0,4.0,269.0,3219.238
3219248.0,235.0,213.0,3.0,272.0,3219.248
3219258.0,242.0,225.0,4.0,278.0,3219.258
3219268.0,244.0,216.0,3.0,277.0,3219.268
3219278.0,236.0,221.0,3.0,272.0,3219.278
3219288.0,236.0,216.0,3.0,275.0,3219.288
3219298.0,234.0,215.0,4.0,275.0,3219.298
3219308.0,238.0,222.0,4.0,283.0,3219.308
3219318.0,239.0,213.0,4.0,280.0,3219.318
3219328.0,233.0,220.0,3.0,278.0,3219.328
3219338.0,236.0,212.0,3.0,282.0,3219.338
3219348.0,237.0,211.0,3.0,279.0,3219.348
3219358.0,245.0,220.0,4.0,283.0,3219.358
3219368.0,247.0,211.0,4.0,276.0,3219.368
3219378.0,238.0,213.0,4.0,268.0,3219.378
3219388.0,240.0,207.0,4.0,264.0,3219.388
3219398.0,240.0,208.0,3.0,267.0,3219.398
3219408.0,243.0,217.0,4.0,272.0,3219.408
3219418.0,245.0,208.0,4.0,272.0,3219.418
3219428.0,237.0,212.0,4.0,262.0,3219.428
3219438.0,234.0,207.0,3.0,263.0,3219.438
3219448.0,236.0,207.0,3.0,267.0,3219.448
3219458.0,239.0,217.0,3.0,273.0,3219.458
3219468.0,241.0,210.0,4.0,274.0,3219.468
3219478.0,233.0,210.0,3.0,262.0,3219.478
3219488.0,232.0,205.0,5.0,261.0,3219.488
3219499.0,234.0,205.0,3.0,270.0,3219.499
3219509.0,238.0,211.0,3.0,268.0,3219.509
3219519.0,238.0,205.0,3.0,268.0,3219.519
3219529.0,230.0,204.0,3.0,262.0,3219.529
3219539.0,237.0,205.0,3.0,274.0,3219.539
3219549.0,239.0,203.0,4.0,277.0,3219.549
3219559.0,239.0,210.0,4.0,275.0,3219.559
3219569.0,238.0,203.0,3.0,274.0,3219.569
3219579.0,229.0,200.0,4.0,263.0,3219.579
3219589.0,235.0,200.0,3.0,270.0,3219.589
3219599.0,241.0,200.0,4.0,273.0,3219.599
3219609.0,239.0,207.0,4.0,269.0,3219.609
3219619.0,239.0,202.0,5.0,267.0,3219.619
3219629.0,232.0,201.0,2.0,262.0,3219.629
3219639.0,237.0,200.0,3.0,268.0,3219.639
3219649.0,247.0,203.0,3.0,279.0,3219.649
3219659.0,241.0,211.0,4.0,272.0,3219.659
3219670.0,241.0,204.0,3.0,270.0,3219.67
3219680.0,232.0,203.0,4.0,262.0,3219.68
3219690.0,241.0,209.0,3.0,274.0,3219.69
3219700.0,244.0,205.0,4.0,274.0,3219.7
3219710.0,236.0,207.0,3.0,268.0,3219.71
3219720.0,238.0,205.0,3.0,266.0,3219.72
3219730.0,232.0,201.0,3.0,257.0,3219.73
3219740.0,236.0,207.0,4.0,262.0,3219.74
3219750.0,241.0,202.0,4.0,262.0,3219.75
3219760.0,234.0,206.0,3.0,262.0,3219.76
3219770.0,234.0,201.0,4.0,265.0,3219.77
3219780.0,227.0,200.0,3.0,259.0,3219.78
3219790.0,237.0,207.0,3.0,270.0,3219.79
3219800.0,239.0,199.0,4.0,277.0,3219.8
3219810.0,233.0,203.0,5.0,265.0,3219.81
3219820.0,234.0,199.0,2.0,264.0,3219.82
3219830.0,227.0,197.0,4.0,259.0,3219.83
3219840.0,231.0,201.0,3.0,263.0,3219.84
3219850.0,236.0,198.0,4.0,261.0,3219.85
3219860.0,231.0,205.0,4.0,266.0,3219.86
3219870.0,234.0,201.0,4.0,277.0,3219.87
3219880.0,229.0,198.0,4.0,273.0,3219.88
3219890.0,231.0,201.0,3.0,275.0,3219.89
3219900.0,235.0,198.0,3.0,275.0,3219.9
3219910.0,227.0,199.0,3.0,265.0,3219.91
3219920.0,230.0,194.0,4.0,267.0,3219.92
3219930.0,227.0,196.0,3.0,271.0,3219.93
3219940.0,235.0,200.0,5.0,280.0,3219.94
3219950.0,238.0,193.0,3.0,281.0,3219.95
3219960.0,226.0,195.0,3.0,267.0,3219.96
3219970.0,230.0,193.0,4.0,269.0,3219.97
3219980.0,222.0,190.0,3.0,262.0,3219.98
3219990.0,229.0,197.0,3.0,270.0,3219.99
3220000.0,233.0,190.0,4.0,276.0,3220.0
3220011.0,222.0,190.0,4.0,263.0,3220.011
3220021.0,224.0,188.0,4.0,265.0,3220.021
3220031.0,230.0,188.0,4.0,270.0,3220.031
3220041.0,231.0,197.0,3.0,270.0,3220.041
3220051.0,231.0,190.0,4.0,267.0,3220.051
3220061.0,223.0,191.0,4.0,258.0,3220.061
3220071.0,225.0,187.0,4.0,259.0,3220.071
3220081.0,228.0,189.0,4.0,269.0,3220.081
3220091.0,228.0,193.0,4.0,268.0,3220.091
3220101.0,231.0,189.0,3.0,267.0,3220.101
3220111.0,221.0,188.0,4.0,256.0,3220.111
3220121.0,223.0,186.0,4.0,258.0,3220.121
3220131.0,230.0,185.0,5.0,263.0,3220.131
3220141.0,229.0,193.0,3.0,264.0,3220.141
3220151.0,231.0,186.0,3.0,263.0,3220.151
3220161.0,221.0,186.0,3.0,254.0,3220.161
3220171.0,224.0,183.0,3.0,257.0,3220.171
3220182.0,230.0,182.0,4.0,266.0,3220.182
3220192.0,225.0,188.0,4.0,260.0,3220.192
3220202.0,226.0,182.0,3.0,259.0,3220.202
3220212.0,216.0,180.0,4.0,253.0,3220.212
3220222.0,224.0,183.0,3.0,260.0,3220.222
3220232.0,227.0,181.0,3.0,267.0,3220.232
3220242.0,220.0,186.0,4.0,262.0,3220.242
3220252.0,221.0,180.0,4.0,261.0,3220.252
3220262.0,215.0,181.0,3.0,253.0,3220.262
3220272.0,220.0,181.0,2.0,261.0,3220.272
3220282.0,227.0,180.0,4.0,269.0,3220.282
3220292.0,222.0,188.0,3.0,262.0,3220.292
3220302.0,222.0,182.0,3.0,260.0,3220.302
3220312.0,215.0,182.0,4.0,256.0,3220.312
3220322.0,222.0,181.0,4.0,264.0,3220.322
3220332.0,228.0,181.0,4.0,266.0,3220.332
3220342.0,221.0,187.0,4.0,257.0,3220.342
3220352.0,223.0,181.0,4.0,258.0,3220.352
3220362.0,213.0,182.0,3.0,248.0,3220.362
3220372.0,220.0,183.0,4.0,256.0,3220.372
3220382.0,224.0,183.0,3.0,261.0,3220.382
3220392.0,218.0,187.0,4.0,257.0,3220.392
3220402.0,220.0,183.0,2.0,261.0,3220.402
3220412.0,212.0,183.0,4.0,251.0,3220.412
3220422.0,221.0,191.0,3.0,267.0,3220.422
3220432.0,226.0,187.0,3.0,268.0,3220.432
3220442.0,224.0,195.0,3.0,264.0,3220.442
3220452.0,227.0,189.0,4.0,261.0,3220.452
3220462.0,218.0,187.0,4.0,253.0,3220.462
3220472.0,226.0,193.0,4.0,261.0,3220.472
3220482.0,229.0,188.0,3.0,263.0,3220.482
3220492.0,224.0,194.0,3.0,261.0,3220.492
3220502.0,226.0,187.0,3.0,262.0,3220.502
3220512.0,218.0,187.0,4.0,258.0,3220.512
3220523.0,225.0,191.0,3.0,266.0,3220.523
3220533.0,228.0,187.0,3.0,266.0,3220.533
3220543.0,220.0,188.0,3.0,257.0,3220.543
3220553.0,222.0,183.0,3.0,258.0,3220.553
3220563.0,222.0,183.0,4.0,260.0,3220.563
3220573.0,224.0,190.0,4.0,264.0,3220.573
3220583.0,227.0,183.0,5.0,267.0,3220.583
3220593.0,216.0,184.0,3.0,257.0,3220.593
3220603.0,219.0,181.0,4.0,257.0,3220.603
3220613.0,216.0,180.0,3.0,257.0,3220.613
3220623.0,224.0,185.0,3.0,264.0,3220.623
3220633.0,228.0,179.0,3.0,263.0,3220.633
3220643.0,218.0,182.0,4.0,255.0,3220.643
3220653.0,222.0,177.0,4.0,257.0,3220.653
3220663.0,218.0,179.0,4.0,259.0,3220.663
3220673.0,225.0,189.0,4.0,265.0,3220.673
3220683.0,227.0,182.0,3.0,263.0,3220.683
3220694.0,217.0,185.0,3.0,254.0,3220.694
3220704.0,220.0,182.0,4.0,256.0,3220.704
3220714.0,224.0,184.0,4.0,262.0,3220.714
3220724.0,224.0,194.0,2.0,263.0,3220.724
3220734.0,225.0,187.0,4.0,263.0,3220.734
3220744.0,217.0,187.0,3.0,256.0,3220.744
3220754.0,221.0,183.0,3.0,256.0,3220.754
3220764.0,225.0,184.0,3.0,262.0,3220.764
3220774.0,224.0,191.0,5.0,258.0,3220.774
3220784.0,224.0,184.0,3.0,257.0,3220.784
3220794.0,216.0,184.0,4.0,247.0,3220.794
3220804.0,220.0,181.0,3.0,252.0,3220.804
3220814.0,226.0,182.0,4.0,256.0,3220.814
3220824.0,225.0,190.0,3.0,254.0,3220.824
3220834.0,224.0,183.0,4.0,254.0,3220.834
3220844.0,219.0,184.0,4.0,247.0,3220.844
3220854.0,222.0,183.0,4.0,254.0,3220.854
3220864.0,225.0,184.0,4.0,259.0,3220.864
3220874.0,226.0,191.0,3.0,261.0,3220.874
3220884.0,226.0,184.0,4.0,258.0,3220.884
3220894.0,217.0,179.0,4.0,249.0,3220.894
3220904.0,223.0,179.0,5.0,258.0,3220.904
3220914.0,226.0,176.0,4.0,263.0,3220.914
3220924.0,224.0,182.0,4.0,257.0,3220.924
3220934.0,224.0,176.0,3.0,256.0,3220.934
3220944.0,216.0,175.0,3.0,248.0,3220.944
3220954.0,220.0,175.0,4.0,250.0,3220.954
3220964.0,225.0,172.0,5.0,258.0,3220.964
3220974.0,224.0,179.0,3.0,257.0,3220.974
3220984.0,224.0,173.0,3.0,255.0,3220.984
3220994.0,217.0,175.0,4.0,249.0,3220.994
3221004.0,220.0,173.0,3.0,254.0,3221.004
3221014.0,226.0,175.0,4.0,260.0,3221.014
3221024.0,223.0,185.0,4.0,258.0,3221.024
3221035.0,223.0,178.0,4.0,257.0,3221.035
3221045.0,215.0,178.0,3.0,251.0,3221.045
3221055.0,223.0,181.0,4.0,263.0,3221.055
3221065.0,227.0,178.0,3.0,264.0,3221.065
3221075.0,220.0,179.0,4.0,254.0,3221.075
3221085.0,223.0,176.0,3.0,257.0,3221.085
3221095.0,217.0,174.0,3.0,250.0,3221.095
3221105.0,224.0,176.0,3.0,260.0,3221.105
3221115.0,230.0,171.0,3.0,262.0,3221.115
3221125.0,225.0,173.0,4.0,258.0,3221.125
3221135.0,226.0,170.0,3.0,256.0,3221.135
3221145.0,219.0,169.0,4.0,253.0,3221.145
3221155.0,227.0,174.0,4.0,262.0,3221.155
3221165.0,230.0,168.0,4.0,263.0,3221.165
3221175.0,223.0,171.0,3.0,257.0,3221.175
3221185.0,225.0,166.0,4.0,257.0,3221.185
3221195.0,219.0,166.0,3.0,255.0,3221.195
3221206.0,227.0,170.0,4.0,262.0,3221.206
3221216.0,229.0,164.0,4.0,259.0,3221.216
3221226.0,222.0,166.0,3.0,255.0,3221.226
3221236.0,224.0,163.0,4.0,259.0,3221.236
3221246.0,225.0,162.0,4.0,261.0,3221.246
3221256.0,226.0,171.0,3.0,261.0,3221.256
3221266.0,227.0,163.0,4.0,261.0,3221.266
3221276.0,217.0,165.0,3.0,252.0,3221.276
3221286.0,220.0,161.0,4.0,254.0,3221.286
3221296.0,220.0,163.0,4.0,256.0,3221.296
3221306.0,225.0,171.0,3.0,263.0,3221.306
3221316.0,226.0,164.0,4.0,260.0,3221.316
3221326.0,217.0,166.0,3.0,250.0,3221.326
3221336.0,222.0,163.0,4.0,254.0,3221.336
3221346.0,221.0,164.0,3.0,258.0,3221.346
3221356.0,226.0,172.0,4.0,261.0,3221.356
3221366.0,226.0,164.0,4.0,259.0,3221.366
3221376.0,220.0,168.0,4.0,255.0,3221.376
3221386.0,223.0,163.0,4.0,253.0,3221.386
3221396.0,225.0,166.0,4.0,256.0,3221.396
3221406.0,227.0,176.0,3.0,263.0,3221.406
3221416.0,227.0,169.0,4.0,261.0,3221.416
3221426.0,221.0,172.0,4.0,255.0,3221.426
3221436.0,222.0,166.0,3.0,259.0,3221.436
3221446.0,225.0,169.0,3.0,261.0,3221.446
3221456.0,227.0,176.0,3.0,261.0,3221.456
3221466.0,228.0,169.0,4.0,259.0,3221.466
3221476.0,219.0,172.0,5.0,251.0,3221.476
3221486.0,222.0,167.0,4.0,254.0,3221.486
3221496.0,224.0,170.0,3.0,260.0,3221.496
3221506.0,226.0,177.0,4.0,261.0,3221.506
3221516.0,226.0,171.0,3.0,257.0,3221.516
3221526.0,218.0,174.0,4.0,250.0,3221.526
3221536.0,221.0,169.0,4.0,251.0,3221.536
3221547.0,225.0,172.0,3.0,258.0,3221.547
3221557.0,224.0,181.0,4.0,258.0,3221.557
3221567.0,224.0,174.0,3.0,256.0,3221.567
3221577.0,215.0,178.0,4.0,248.0,3221.577
3221587.0,222.0,180.0,4.0,258.0,3221.587
3221597.0,226.0,178.0,4.0,260.0,3221.597
3221607.0,224.0,187.0,4.0,259.0,3221.607
3221617.0,224.0,179.0,4.0,257.0,3221.617
3221627.0,214.0,178.0,3.0,251.0,3221.627
3221637.0,220.0,177.0,4.0,259.0,3221.637
3221647.0,226.0,179.0,3.0,264.0,3221.647
3221657.0,222.0,188.0,3.0,257.0,3221.657
3221667.0,223.0,181.0,4.0,256.0,3221.667
3221677.0,216.0,186.0,3.0,249.0,3221.677
3221687.0,216.0,186.0,3.0,255.0,3221.687
3221697.0,223.0,188.0,4.0,260.0,3221.697
3221707.0,219.0,196.0,3.0,255.0,3221.707
3221718.0,219.0,188.0,3.0,252.0,3221.718
3221728.0,214.0,186.0,3.0,248.0,3221.728
3221738.0,222.0,192.0,2.0,259.0,3221.738
3221748.0,226.0,184.0,4.0,259.0,3221.748
3221758.0,219.0,188.0,4.0,251.0,3221.758
3221768.0,222.0,184.0,3.0,255.0,3221.768
3221778.0,218.0,185.0,3.0,255.0,3221.778
3221788.0,227.0,192.0,4.0,263.0,3221.788
3221798.0,229.0,185.0,4.0,262.0,3221.798
3221808.0,224.0,187.0,4.0,259.0,3221.808
3221818.0,224.0,182.0,4.0,261.0,3221.818
3221828.0,221.0,180.0,3.0,259.0,3221.828
3221838.0,227.0,187.0,3.0,265.0,3221.838
3221848.0,230.0,178.0,3.0,268.0,3221.848
3221858.0,223.0,183.0,4.0,259.0,3221.858
3221868.0,224.0,179.0,5.0,259.0,3221.868
3221878.0,221.0,179.0,4.0,260.0,3221.878
3221888.0,225.0,182.0,3.0,262.0,3221.888
3221898.0,228.0,178.0,3.0,262.0,3221.898
3221908.0,221.0,178.0,3.0,256.0,3221.908
3221918.0,223.0,177.0,4.0,257.0,3221.918
3221928.0,223.0,173.0,5.0,257.0,3221.928
3221938.0,227.0,175.0,4.0,260.0,3221.938
3221948.0,233.0,170.0,3.0,260.0,3221.948
3221958.0,225.0,169.0,4.0,254.0,3221.958
3221968.0,226.0,169.0,3.0,256.0,3221.968
3221978.0,221.0,167.0,3.0,253.0,3221.978
3221988.0,229.0,174.0,4.0,260.0,3221.988
3221998.0,230.0,168.0,5.0,258.0,3221.998
3222008.0,222.0,169.0,4.0,250.0,3222.008
3222018.0,224.0,167.0,3.0,249.0,3222.018
3222028.0,221.0,167.0,3.0,249.0,3222.028
3222038.0,227.0,172.0,4.0,256.0,3222.038
3222048.0,226.0,165.0,3.0,254.0,3222.048
3222059.0,217.0,166.0,4.0,248.0,3222.059
3222069.0,220.0,164.0,3.0,253.0,3222.069
3222079.0,223.0,163.0,3.0,259.0,3222.079
3222089.0,224.0,168.0,3.0,256.0,3222.089
3222099.0,223.0,163.0,3.0,256.0,3222.099
3222109.0,219.0,161.0,4.0,249.0,3222.109
3222119.0,221.0,160.0,4.0,253.0,3222.119
3222129.0,228.0,158.0,4.0,259.0,3222.129
3222139.0,226.0,166.0,3.0,259.0,3222.139
3222149.0,227.0,159.0,4.0,260.0,3222.149
3222159.0,220.0,161.0,3.0,250.0,3222.159
3222169.0,225.0,158.0,4.0,254.0,3222.169
3222179.0,230.0,158.0,4.0,260.0,3222.179
3222189.0,230.0,162.0,5.0,259.0,3222.189
3222199.0,228.0,156.0,2.0,257.0,3222.199
3222209.0,221.0,156.0,3.0,249.0,3222.209
3222219.0,224.0,156.0,3.0,258.0,3222.219
3222230.0,230.0,153.0,3.0,265.0,3222.23
3222240.0,227.0,156.0,4.0,260.0,3222.24
3222250.0,226.0,152.0,2.0,258.0,3222.25
3222260.0,219.0,149.0,4.0,252.0,3222.26
3222270.0,229.0,150.0,4.0,263.0,3222.27
3222280.0,234.0,148.0,4.0,264.0,3222.28
3222290.0,229.0,150.0,3.0,257.0,3222.29
3222300.0,229.0,146.0,4.0,256.0,3222.3
3222310.0,222.0,146.0,4.0,253.0,3222.31
3222320.0,228.0,146.0,4.0,258.0,3222.32
3222330.0,231.0,147.0,4.0,262.0,3222.33
3222340.0,227.0,152.0,4.0,255.0,3222.34
3222350.0,227.0,148.0,3.0,256.0,3222.35
3222360.0,221.0,148.0,3.0,248.0,3222.36
3222370.0,227.0,149.0,4.0,256.0,3222.37
3222380.0,232.0,148.0,4.0,261.0,3222.38
3222390.0,228.0,151.0,2.0,253.0,3222.39
3222400.0,229.0,146.0,4.0,254.0,3222.4
3222410.0,221.0,144.0,3.0,247.0,3222.41
3222420.0,227.0,146.0,3.0,259.0,3222.42
3222430.0,231.0,144.0,4.0,260.0,3222.43
3222440.0,225.0,148.0,3.0,251.0,3222.44
3222450.0,227.0,144.0,4.0,254.0,3222.45
3222460.0,220.0,145.0,4.0,248.0,3222.46
3222470.0,228.0,146.0,4.0,259.0,3222.47
3222480.0,235.0,144.0,3.0,263.0,3222.48
3222490.0,231.0,147.0,4.0,258.0,3222.49
3222500.0,229.0,142.0,4.0,256.0,3222.5
3222510.0,224.0,143.0,3.0,252.0,3222.51
3222520.0,231.0,146.0,4.0,259.0,3222.52
3222530.0,232.0,142.0,4.0,261.0,3222.53
3222540.0,228.0,148.0,3.0,257.0,3222.54
3222550.0,227.0,142.0,3.0,256.0,3222.55
3222560.0,226.0,144.0,4.0,253.0,3222.56
3222571.0,235.0,151.0,4.0,261.0,3222.571
3222581.0,236.0,147.0,4.0,259.0,3222.581
3222591.0,228.0,152.0,3.0,253.0,3222.591
3222601.0,228.0,146.0,4.0,254.0,3222.601
3222611.0,230.0,154.0,3.0,258.0,3222.611
3222621.0,232.0,162.0,4.0,259.0,3222.621
3222631.0,231.0,156.0,3.0,257.0,3222.631
3222641.0,226.0,157.0,4.0,249.0,3222.641
3222651.0,225.0,153.0,4.0,251.0,3222.651
3222661.0,224.0,156.0,3.0,255.0,3222.661
3222671.0,226.0,163.0,3.0,261.0,3222.671
3222681.0,225.0,154.0,4.0,258.0,3222.681
3222691.0,220.0,158.0,3.0,251.0,3222.691
3222701.0,223.0,154.0,4.0,256.0,3222.701
3222711.0,223.0,157.0,4.0,259.0,3222.711
3222721.0,228.0,165.0,3.0,261.0,3222.721
3222731.0,227.0,157.0,4.0,259.0,3222.731
3222742.0,221.0,162.0,3.0,250.0,3222.742
3222752.0,224.0,156.0,4.0,254.0,3222.752
3222762.0,229.0,158.0,3.0,259.0,3222.762
3222772.0,229.0,166.0,4.0,257.0,3222.772
3222782.0,226.0,159.0,2.0,255.0,3222.782
3222792.0,224.0,164.0,4.0,248.0,3222.792
3222802.0,227.0,162.0,3.0,256.0,3222.802
3222812.0,233.0,167.0,3.0,260.0,3222.812
3222822.0,231.0,175.0,3.0,257.0,3222.822
3222832.0,230.0,168.0,4.0,257.0,3222.832
3222842.0,224.0,170.0,2.0,247.0,3222.842
3222852.0,228.0,166.0,4.0,254.0,3222.852
3222862.0,233.0,168.0,4.0,262.0,3222.862
3222872.0,232.0,174.0,4.0,259.0,3222.872
3222882.0,230.0,166.0,3.0,259.0,3222.882
3222892.0,225.0,167.0,4.0,249.0,3222.892
3222902.0,230.0,167.0,4.0,257.0,3222.902
3222912.0,231.0,168.0,3.0,260.0,3222.912
3222922.0,232.0,178.0,4.0,259.0,3222.922
3222932.0,229.0,171.0,3.0,258.0,3222.932
3222942.0,223.0,172.0,4.0,248.0,3222.942
3222952.0,229.0,175.0,4.0,259.0,3222.952
3222962.0,232.0,174.0,5.0,261.0,3222.962
3222972.0,230.0,183.0,4.0,256.0,3222.972
3222982.0,226.0,175.0,4.0,256.0,3222.982
3222992.0,218.0,179.0,3.0,249.0,3222.992
3223002.0,223.0,176.0,3.0,256.0,3223.002
3223012.0,229.0,179.0,4.0,265.0,3223.012
3223022.0,228.0,187.0,4.0,259.0,3223.022
3223032.0,226.0,178.0,4.0,258.0,3223.032
3223042.0,221.0,184.0,3.0,252.0,3223.042
3223052.0,225.0,183.0,3.0,259.0,3223.052
3223062.0,231.0,184.0,3.0,264.0,3223.062
3223072.0,228.0,192.0,4.0,258.0,3223.072
3223083.0,225.0,184.0,3.0,258.0,3223.083
3223093.0,223.0,192.0,4.0,254.0,3223.093
3223103.0,230.0,200.0,4.0,263.0,3223.103
3223113.0,232.0,193.0,3.0,261.0,3223.113
3223123.0,226.0,201.0,3.0,252.0,3223.123
3223133.0,227.0,192.0,3.0,254.0,3223.133
3223143.0,224.0,196.0,4.0,252.0,3223.143
3223153.0,232.0,205.0,5.0,261.0,3223.153
3223163.0,230.0,197.0,4.0,261.0,3223.163
3223173.0,228.0,204.0,3.0,257.0,3223.173
3223183.0,228.0,196.0,3.0,260.0,3223.183
3223193.0,224.0,197.0,4.0,256.0,3223.193
3223203.0,231.0,208.0,4.0,264.0,3223.203
3223213.0,233.0,201.0,4.0,266.0,3223.213
3223223.0,229.0,211.0,4.0,257.0,3223.223
3223233.0,227.0,204.0,2.0,258.0,3223.233
3223243.0,226.0,207.0,4.0,258.0,3223.243
3223254.0,233.0,219.0,3.0,264.0,3223.254
3223264.0,231.0,208.0,4.0,262.0,3223.264
3223274.0,224.0,210.0,4.0,253.0,3223.274
3223284.0,227.0,206.0,4.0,255.0,3223.284
3223294.0,230.0,206.0,3.0,261.0,3223.294
3223304.0,232.0,216.0,4.0,262.0,3223.304
3223314.0,229.0,207.0,3.0,259.0,3223.314
3223324.0,223.0,209.0,4.0,248.0,3223.324
3223334.0,225.0,207.0,3.0,252.0,3223.334
3223344.0,227.0,207.0,4.0,255.0,3223.344
3223354.0,230.0,217.0,3.0,258.0,3223.354
3223364.0,226.0,208.0,3.0,255.0,3223.364
3223374.0,218.0,211.0,4.0,248.0,3223.374
3223384.0,223.0,208.0,3.0,252.0,3223.384
3223394.0,226.0,210.0,4.0,257.0,3223.394
3223404.0,228.0,222.0,4.0,259.0,3223.404
3223414.0,227.0,213.0,4.0,255.0,3223.414
3223424.0,222.0,216.0,2.0,251.0,3223.424
3223434.0,224.0,210.0,4.0,253.0,3223.434
3223444.0,228.0,214.0,3.0,260.0,3223.444
3223454.0,229.0,222.0,3.0,258.0,3223.454
3223464.0,227.0,213.0,4.0,255.0,3223.464
3223474.0,224.0,216.0,4.0,251.0,3223.474
3223484.0,221.0,213.0,4.0,253.0,3223.484
3223494.0,225.0,213.0,3.0,259.0,3223.494
3223504.0,226.0,221.0,3.0,257.0,3223.504
3223514.0,225.0,213.0,3.0,255.0,3223.514
3223524.0,220.0,212.0,3.0,245.0,3223.524
3223534.0,223.0,210.0,4.0,250.0,3223.534
3223544.0,229.0,210.0,4.0,256.0,3223.544
3223554.0,228.0,218.0,3.0,257.0,3223.554
3223564.0,227.0,209.0,4.0,255.0,3223.564
3223574.0,221.0,211.0,3.0,249.0,3223.574
3223584.0,223.0,210.0,3.0,255.0,3223.584
3223595.0,230.0,211.0,3.0,261.0,3223.595
3223605.0,231.0,218.0,5.0,258.0,3223.605
3223615.0,228.0,210.0,4.0,253.0,3223.615
3223625.0,221.0,213.0,3.0,244.0,3223.625
3223635.0,229.0,221.0,3.0,257.0,3223.635
3223645.0,232.0,213.0,4.0,256.0,3223.645
3223655.0,228.0,220.0,4.0,252.0,3223.655
3223665.0,227.0,212.0,5.0,253.0,3223.665
3223675.0,222.0,211.0,4.0,248.0,3223.675
3223685.0,226.0,214.0,3.0,255.0,3223.685
3223695.0,231.0,213.0,4.0,260.0,3223.695
3223705.0,225.0,217.0,3.0,257.0,3223.705
3223715.0,225.0,210.0,4.0,258.0,3223.715
3223725.0,219.0,211.0,4.0,248.0,3223.725
3223735.0,228.0,215.0,4.0,258.0,3223.735
3223745.0,231.0,212.0,4.0,260.0,3223.745
3223755.0,227.0,215.0,4.0,254.0,3223.755
3223766.0,226.0,211.0,3.0,256.0,3223.766
3223776.0,223.0,209.0,3.0,254.0,3223.776
3223786.0,229.0,219.0,4.0,262.0,3223.786
3223796.0,231.0,212.0,5.0,259.0,3223.796
3223806.0,223.0,211.0,3.0,253.0,3223.806
3223816.0,225.0,209.0,4.0,253.0,3223.816
3223826.0,223.0,210.0,4.0,254.0,3223.826
3223836.0,225.0,218.0,4.0,259.0,3223.836
3223846.0,225.0,210.0,4.0,256.0,3223.846
3223856.0,221.0,213.0,4.0,252.0,3223.856
3223866.0,223.0,209.0,4.0,252.0,3223.866
3223876.0,224.0,209.0,3.0,254.0,3223.876
3223886.0,229.0,219.0,4.0,258.0,3223.886
3223896.0,229.0,213.0,3.0,257.0,3223.896
3223906.0,223.0,216.0,4.0,246.0,3223.906
3223916.0,224.0,213.0,3.0,248.0,3223.916
3223926.0,226.0,213.0,5.0,250.0,3223.926
3223936.0,228.0,224.0,4.0,255.0,3223.936
3223946.0,229.0,217.0,4.0,255.0,3223.946
3223956.0,221.0,217.0,3.0,249.0,3223.956
3223966.0,223.0,214.0,4.0,250.0,3223.966
3223976.0,225.0,213.0,5.0,256.0,3223.976
3223986.0,229.0,221.0,5.0,259.0,3223.986
3223996.0,229.0,214.0,4.0,255.0,3223.996
3224006.0,221.0,217.0,4.0,249.0,3224.006
3224016.0,223.0,213.0,4.0,252.0,3224.016
3224026.0,223.0,215.0,3.0,253.0,3224.026
3224036.0,229.0,223.0,4.0,261.0,3224.036
3224046.0,229.0,217.0,4.0,259.0,3224.046
3224056.0,223.0,214.0,4.0,250.0,3224.056
3224066.0,224.0,213.0,2.0,252.0,3224.066
3224076.0,227.0,210.0,4.0,254.0,3224.076
3224086.0,231.0,222.0,3.0,261.0,3224.086
3224096.0,230.0,214.0,4.0,256.0,3224.096
3224107.0,222.0,216.0,3.0,248.0,3224.107
3224117.0,226.0,216.0,4.0,253.0,3224.117
3224127.0,230.0,216.0,4.0,258.0,3224.127
3224137.0,227.0,226.0,4.0,255.0,3224.137
3224147.0,226.0,218.0,3.0,255.0,3224.147
3224157.0,223.0,222.0,3.0,251.0,3224.157
3224167.0,227.0,221.0,4.0,257.0,3224.167
3224177.0,233.0,222.0,4.0,263.0,3224.177
3224187.0,230.0,227.0,3.0,257.0,3224.187
3224197.0,230.0,222.0,3.0,257.0,3224.197
3224207.0,223.0,218.0,4.0,249.0,3224.207
3224217.0,226.0,221.0,3.0,258.0,3224.217
3224227.0,231.0,220.0,3.0,266.0,3224.227
3224237.0,228.0,226.0,3.0,262.0,3224.237
3224247.0,229.0,220.0,4.0,258.0,3224.247
3224257.0,219.0,216.0,4.0,251.0,3224.257
3224267.0,225.0,220.0,3.0,257.0,3224.267
3224278.0,234.0,220.0,3.0,264.0,3224.278
3224288.0,227.0,223.0,3.0,257.0,3224.288
3224298.0,227.0,217.0,4.0,256.0,3224.298
3224308.0,222.0,217.0,4.0,253.0,3224.308
3224318.0,230.0,229.0,3.0,264.0,3224.318
3224328.0,231.0,221.0,3.0,270.0,3224.328
3224338.0,225.0,224.0,4.0,261.0,3224.338
3224348.0,226.0,219.0,3.0,261.0,3224.348
3224358.0,222.0,218.0,4.0,258.0,3224.358
3224368.0,228.0,224.0,3.0,262.0,3224.368
3224378.0,234.0,220.0,4.0,263.0,3224.378
3224388.0,226.0,222.0,4.0,256.0,3224.388
3224398.0,226.0,217.0,4.0,257.0,3224.398
3224408.0,218.0,217.0,3.0,251.0,3224.408
3224418.0,227.0,222.0,4.0,262.0,3224.418
3224428.0,230.0,217.0,4.0,262.0,3224.428
3224438.0,222.0,217.0,5.0,255.0,3224.438
3224448.0,224.0,216.0,3.0,257.0,3224.448
3224458.0,217.0,215.0,3.0,250.0,3224.458
3224468.0,225.0,223.0,3.0,258.0,3224.468
3224478.0,229.0,217.0,4.0,257.0,3224.478
3224488.0,221.0,221.0,5.0,251.0,3224.488
3224498.0,222.0,216.0,4.0,250.0,3224.498
3224508.0,217.0,216.0,4.0,247.0,3224.508
3224518.0,225.0,227.0,3.0,258.0,3224.518
3224528.0,227.0,221.0,3.0,257.0,3224.528
3224538.0,222.0,228.0,3.0,253.0,3224.538
3224548.0,223.0,220.0,3.0,252.0,3224.548
3224558.0,219.0,220.0,4.0,251.0,3224.558
3224568.0,227.0,229.0,4.0,259.0,3224.568
3224578.0,228.0,221.0,4.0,260.0,3224.578
3224588.0,222.0,222.0,3.0,253.0,3224.588
3224598.0,223.0,221.0,3.0,255.0,3224.598
3224608.0,219.0,216.0,3.0,254.0,3224.608
3224619.0,226.0,225.0,3.0,260.0,3224.619
3224629.0,227.0,218.0,4.0,256.0,3224.629
3224639.0,218.0,216.0,4.0,251.0,3224.639
3224649.0,221.0,215.0,3.0,256.0,3224.649
3224659.0,225.0,214.0,4.0,261.0,3224.659
3224669.0,225.0,225.0,3.0,262.0,3224.669
3224679.0,226.0,217.0,4.0,259.0,3224.679
3224689.0,220.0,217.0,4.0,253.0,3224.689
3224699.0,224.0,217.0,4.0,257.0,3224.699
3224709.0,224.0,217.0,2.0,260.0,3224.709
3224719.0,227.0,228.0,4.0,259.0,3224.719
3224729.0,227.0,223.0,3.0,258.0,3224.729
3224739.0,218.0,224.0,4.0,248.0,3224.739
3224749.0,223.0,223.0,4.0,253.0,3224.749
3224759.0,225.0,223.0,4.0,257.0,3224.759
3224769.0,229.0,232.0,4.0,260.0,3224.769
3224779.0,228.0,225.0,4.0,258.0,3224.779
3224790.0,219.0,224.0,3.0,249.0,3224.79
3224800.0,223.0,225.0,3.0,258.0,3224.8
3224810.0,227.0,224.0,4.0,263.0,3224.81
3224820.0,223.0,228.0,4.0,257.0,3224.82
3224830.0,224.0,222.0,4.0,257.0,3224.83
3224840.0,216.0,223.0,3.0,251.0,3224.84
3224850.0,222.0,228.0,3.0,258.0,3224.85
3224860.0,227.0,225.0,3.0,262.0,3224.86
3224870.0,225.0,231.0,4.0,257.0,3224.87
3224880.0,227.0,227.0,3.0,257.0,3224.88
3224890.0,220.0,227.0,5.0,251.0,3224.89
3224900.0,227.0,236.0,2.0,262.0,3224.9
3224910.0,230.0,231.0,4.0,265.0,3224.91
3224920.0,226.0,239.0,3.0,261.0,3224.92
3224930.0,225.0,230.0,4.0,258.0,3224.93
3224940.0,217.0,227.0,4.0,251.0,3224.94
3224950.0,226.0,238.0,4.0,263.0,3224.95
3224960.0,229.0,232.0,4.0,266.0,3224.96
3224970.0,225.0,238.0,3.0,262.0,3224.97
3224980.0,225.0,231.0,4.0,258.0,3224.98
3224990.0,220.0,228.0,3.0,252.0,3224.99
3225000.0,230.0,237.0,4.0,264.0,3225.0
3225010.0,231.0,230.0,3.0,264.0,3225.01
3225020.0,227.0,234.0,5.0,259.0,3225.02
3225030.0,227.0,228.0,2.0,258.0,3225.03
3225040.0,220.0,226.0,3.0,252.0,3225.04
3225050.0,225.0,233.0,3.0,261.0,3225.05
3225060.0,231.0,230.0,3.0,266.0,3225.06
3225070.0,225.0,232.0,4.0,260.0,3225.07
3225080.0,225.0,227.0,4.0,259.0,3225.08
3225090.0,218.0,224.0,4.0,251.0,3225.09
3225100.0,220.0,229.0,4.0,262.0,3225.1
3225110.0,225.0,227.0,3.0,268.0,3225.11
3225120.0,219.0,227.0,3.0,259.0,3225.12
3225131.0,221.0,224.0,3.0,259.0,3225.131
3225141.0,217.0,221.0,4.0,257.0,3225.141
3225151.0,225.0,231.0,4.0,264.0,3225.151
3225161.0,226.0,225.0,4.0,262.0,3225.161
3225171.0,218.0,222.0,4.0,255.0,3225.171
3225181.0,221.0,223.0,3.0,259.0,3225.181
3225191.0,219.0,222.0,4.0,257.0,3225.191
3225201.0,225.0,234.0,3.0,263.0,3225.201
3225211.0,228.0,227.0,5.0,262.0,3225.211
3225221.0,220.0,233.0,2.0,258.0,3225.221
3225231.0,222.0,229.0,3.0,257.0,3225.231
3225241.0,221.0,228.0,3.0,259.0,3225.241
3225251.0,226.0,241.0,3.0,262.0,3225.251
3225261.0,228.0,232.0,3.0,263.0,3225.261
3225271.0,219.0,236.0,4.0,255.0,3225.271
3225281.0,222.0,232.0,4.0,256.0,3225.281
3225291.0,222.0,231.0,4.0,260.0,3225.291
3225302.0,226.0,239.0,4.0,264.0,3225.302
3225312.0,225.0,233.0,3.0,260.0,3225.312
3225322.0,216.0,228.0,4.0,251.0,3225.322
3225332.0,221.0,231.0,4.0,256.0,3225.332
3225342.0,227.0,230.0,4.0,261.0,3225.342
3225352.0,225.0,238.0,4.0,261.0,3225.352
3225362.0,225.0,231.0,4.0,257.0,3225.362
3225372.0,216.0,229.0,3.0,249.0,3225.372
3225382.0,221.0,231.0,4.0,256.0,3225.382
3225392.0,229.0,230.0,4.0,262.0,3225.392
3225402.0,229.0,237.0,4.0,264.0,3225.402
3225412.0,228.0,232.0,3.0,262.0,3225.412
3225422.0,218.0,227.0,3.0,253.0,3225.422
3225432.0,223.0,228.0,3.0,258.0,3225.432
3225442.0,228.0,226.0,3.0,264.0,3225.442
3225452.0,228.0,234.0,3.0,261.0,3225.452
3225462.0,230.0,229.0,4.0,260.0,3225.462
3225472.0,223.0,226.0,4.0,254.0,3225.472
3225482.0,224.0,227.0,4.0,258.0,3225.482
3225492.0,229.0,227.0,4.0,264.0,3225.492
3225502.0,227.0,238.0,3.0,262.0,3225.502
3225512.0,226.0,230.0,4.0,258.0,3225.512
3225522.0,219.0,228.0,4.0,252.0,3225.522
3225532.0,223.0,228.0,5.0,256.0,3225.532
3225542.0,231.0,227.0,4.0,262.0,3225.542
3225552.0,227.0,232.0,3.0,257.0,3225.552
3225562.0,229.0,231.0,3.0,257.0,3225.562
3225572.0,220.0,223.0,4.0,246.0,3225.572
3225582.0,223.0,226.0,4.0,254.0,3225.582
3225592.0,229.0,225.0,4.0,261.0,3225.592
3225602.0,228.0,229.0,4.0,258.0,3225.602
3225612.0,226.0,226.0,4.0,257.0,3225.612
3225622.0,218.0,221.0,4.0,250.0,3225.622
3225632.0,223.0,224.0,3.0,256.0,3225.632
3225643.0,230.0,222.0,4.0,264.0,3225.643
3225653.0,225.0,223.0,3.0,257.0,3225.653
3225663.0,228.0,225.0,5.0,256.0,3225.663
3225673.0,220.0,219.0,2.0,253.0,3225.673
3225683.0,228.0,226.0,4.0,263.0,3225.683
3225693.0,231.0,222.0,3.0,265.0,3225.693
3225703.0,225.0,220.0,4.0,256.0,3225.703
3225713.0,225.0,219.0,3.0,258.0,3225.713
3225723.0,221.0,216.0,5.0,255.0,3225.723
3225733.0,226.0,221.0,4.0,260.0,3225.733
3225743.0,229.0,217.0,3.0,261.0,3225.743
3225753.0,222.0,219.0,4.0,255.0,3225.753
3225763.0,224.0,216.0,3.0,256.0,3225.763
3225773.0,218.0,212.0,4.0,249.0,3225.773
3225783.0,227.0,220.0,3.0,261.0,3225.783
3225793.0,232.0,215.0,5.0,262.0,3225.793
3225803.0,223.0,218.0,4.0,255.0,3225.803
3225814.0,225.0,213.0,4.0,255.0,3225.814
3225824.0,223.0,214.0,3.0,257.0,3225.824
