time (ms),signal 0,signal 1,signal 2,signal 3,time (sec)
3174467.0,208.0,134.0,4.0,246.0,3174.467
3174477.0,215.0,135.0,4.0,254.0,3174.477
3174487.0,218.0,133.0,3.0,255.0,3174.487
3174497.0,217.0,141.0,4.0,252.0,3174.497
3174507.0,219.0,136.0,3.0,248.0,3174.507
3174517.0,210.0,136.0,4.0,240.0,3174.517
3174528.0,219.0,140.0,4.0,252.0,3174.528
3174538.0,223.0,139.0,4.0,252.0,3174.538
3174548.0,214.0,146.0,2.0,248.0,3174.548
3174558.0,217.0,141.0,3.0,248.0,3174.558
3174568.0,216.0,143.0,3.0,251.0,3174.568
3174578.0,219.0,146.0,4.0,254.0,3174.578
3174588.0,221.0,142.0,3.0,254.0,3174.588
3174598.0,213.0,144.0,4.0,248.0,3174.598
3174608.0,216.0,139.0,4.0,249.0,3174.608
3174618.0,214.0,141.0,4.0,247.0,3174.618
3174628.0,222.0,147.0,3.0,257.0,3174.628
3174638.0,223.0,142.0,3.0,256.0,3174.638
3174648.0,216.0,146.0,3.0,250.0,3174.648
3174658.0,219.0,142.0,3.0,252.0,3174.658
3174668.0,215.0,142.0,4.0,250.0,3174.668
3174678.0,220.0,147.0,4.0,256.0,3174.678
3174688.0,222.0,141.0,4.0,253.0,3174.688
3174699.0,213.0,145.0,3.0,247.0,3174.699
3174709.0,216.0,140.0,3.0,248.0,3174.709
3174719.0,220.0,142.0,4.0,255.0,3174.719
3174729.0,221.0,151.0,4.0,255.0,3174.729
3174739.0,220.0,144.0,2.0,253.0,3174.739
3174749.0,216.0,149.0,4.0,247.0,3174.749
3174759.0,219.0,145.0,3.0,250.0,3174.759
3174769.0,223.0,146.0,4.0,256.0,3174.769
3174779.0,222.0,151.0,3.0,255.0,3174.779
3174789.0,224.0,145.0,4.0,254.0,3174.789
3174799.0,215.0,148.0,3.0,248.0,3174.799
3174809.0,219.0,143.0,3.0,252.0,3174.809
3174819.0,225.0,147.0,4.0,259.0,3174.819
3174829.0,224.0,157.0,3.0,260.0,3174.829
3174839.0,224.0,148.0,4.0,254.0,3174.839
3174849.0,214.0,152.0,4.0,247.0,3174.849
3174859.0,219.0,147.0,5.0,252.0,3174.859
3174870.0,226.0,150.0,4.0,257.0,3174.87
3174880.0,221.0,156.0,4.0,253.0,3174.88
3174890.0,222.0,149.0,4.0,253.0,3174.89
3174900.0,215.0,150.0,4.0,248.0,3174.9
3174910.0,224.0,155.0,4.0,260.0,3174.91
3174920.0,228.0,152.0,5.0,259.0,3174.92
3174930.0,222.0,157.0,3.0,256.0,3174.93
3174940.0,222.0,151.0,4.0,254.0,3174.94
3174950.0,215.0,152.0,3.0,250.0,3174.95
3174960.0,221.0,152.0,3.0,256.0,3174.96
3174970.0,227.0,151.0,4.0,260.0,3174.97
3174980.0,221.0,158.0,4.0,256.0,3174.98
3174990.0,222.0,151.0,4.0,255.0,3174.99
3175000.0,214.0,152.0,4.0,249.0,3175.0
3175010.0,222.0,152.0,4.0,260.0,3175.01
3175020.0,229.0,151.0,3.0,261.0,3175.02
3175030.0,222.0,154.0,3.0,254.0,3175.03
3175040.0,224.0,149.0,4.0,255.0,3175.04
3175050.0,216.0,149.0,5.0,247.0,3175.05
3175060.0,223.0,149.0,4.0,257.0,3175.06
3175070.0,228.0,148.0,4.0,258.0,3175.07
3175080.0,221.0,152.0,3.0,254.0,3175.08
3175090.0,223.0,147.0,3.0,252.0,3175.09
3175100.0,216.0,147.0,4.0,245.0,3175.1
3175110.0,224.0,147.0,4.0,257.0,3175.11
3175120.0,228.0,144.0,3.0,258.0,3175.12
3175130.0,223.0,146.0,3.0,256.0,3175.13
3175140.0,223.0,141.0,4.0,255.0,3175.14
3175150.0,216.0,142.0,3.0,251.0,3175.15
3175160.0,225.0,142.0,4.0,260.0,3175.16
3175170.0,227.0,140.0,4.0,261.0,3175.17
3175180.0,222.0,144.0,4.0,256.0,3175.18
3175190.0,222.0,139.0,4.0,255.0,3175.19
3175200.0,215.0,137.0,4.0,251.0,3175.2
3175211.0,224.0,141.0,3.0,261.0,3175.211
3175221.0,226.0,135.0,4.0,259.0,3175.221
3175231.0,218.0,138.0,3.0,254.0,3175.231
3175241.0,221.0,134.0,5.0,255.0,3175.241
3175251.0,223.0,135.0,4.0,260.0,3175.251
3175261.0,225.0,138.0,4.0,261.0,3175.261
3175271.0,227.0,134.0,4.0,259.0,3175.271
3175281.0,219.0,133.0,3.0,252.0,3175.281
3175291.0,222.0,131.0,4.0,254.0,3175.291
3175301.0,220.0,126.0,4.0,253.0,3175.301
3175311.0,226.0,125.0,4.0,259.0,3175.311
3175321.0,226.0,121.0,4.0,257.0,3175.321
3175331.0,218.0,119.0,4.0,249.0,3175.331
3175341.0,223.0,119.0,3.0,256.0,3175.341
3175351.0,221.0,115.0,4.0,256.0,3175.351
3175361.0,226.0,116.0,3.0,261.0,3175.361
3175371.0,227.0,112.0,4.0,258.0,3175.371
3175382.0,218.0,110.0,4.0,250.0,3175.382
3175392.0,222.0,110.0,4.0,253.0,3175.392
3175402.0,227.0,107.0,3.0,262.0,3175.402
3175412.0,227.0,108.0,3.0,258.0,3175.412
3175422.0,229.0,105.0,3.0,258.0,3175.422
3175432.0,221.0,105.0,4.0,251.0,3175.432
3175442.0,225.0,105.0,3.0,256.0,3175.442
3175452.0,229.0,103.0,4.0,263.0,3175.452
3175462.0,228.0,108.0,4.0,262.0,3175.462
3175472.0,227.0,106.0,4.0,263.0,3175.472
3175482.0,217.0,102.0,4.0,260.0,3175.482
3175492.0,221.0,102.0,4.0,264.0,3175.492
3175502.0,230.0,101.0,4.0,278.0,3175.502
3175512.0,226.0,101.0,4.0,271.0,3175.512
3175522.0,226.0,97.0,3.0,269.0,3175.522
3175532.0,217.0,96.0,3.0,258.0,3175.532
3175542.0,224.0,96.0,4.0,263.0,3175.542
3175552.0,226.0,95.0,3.0,265.0,3175.552
3175562.0,225.0,99.0,4.0,264.0,3175.562
3175572.0,225.0,95.0,3.0,262.0,3175.572
3175582.0,217.0,95.0,4.0,252.0,3175.582
3175592.0,223.0,94.0,4.0,265.0,3175.592
3175602.0,227.0,92.0,3.0,266.0,3175.602
3175612.0,224.0,95.0,4.0,261.0,3175.612
3175622.0,220.0,94.0,3.0,259.0,3175.622
3175632.0,210.0,97.0,4.0,256.0,3175.632
3175642.0,214.0,97.0,3.0,263.0,3175.642
3175652.0,222.0,106.0,4.0,268.0,3175.652
3175662.0,220.0,115.0,3.0,262.0,3175.662
3175672.0,223.0,110.0,4.0,260.0,3175.672
3175682.0,217.0,107.0,3.0,253.0,3175.682
3175692.0,221.0,104.0,5.0,259.0,3175.692
3175702.0,227.0,114.0,4.0,262.0,3175.702
3175712.0,225.0,120.0,3.0,252.0,3175.712
3175723.0,226.0,117.0,3.0,255.0,3175.723
3175733.0,216.0,113.0,3.0,251.0,3175.733
3175743.0,222.0,112.0,3.0,263.0,3175.743
3175753.0,230.0,110.0,4.0,264.0,3175.753
3175763.0,224.0,113.0,4.0,255.0,3175.763
3175773.0,229.0,110.0,3.0,257.0,3175.773
3175783.0,224.0,109.0,4.0,254.0,3175.783
3175793.0,232.0,109.0,3.0,262.0,3175.793
3175803.0,235.0,106.0,4.0,258.0,3175.803
3175813.0,233.0,111.0,4.0,258.0,3175.813
3175823.0,231.0,107.0,4.0,255.0,3175.823
3175833.0,223.0,106.0,4.0,253.0,3175.833
3175843.0,230.0,107.0,3.0,259.0,3175.843
3175853.0,235.0,105.0,3.0,261.0,3175.853
3175863.0,227.0,106.0,4.0,252.0,3175.863
3175873.0,225.0,103.0,3.0,254.0,3175.873
3175883.0,221.0,111.0,4.0,253.0,3175.883
3175894.0,218.0,109.0,3.0,252.0,3175.894
3175904.0,219.0,104.0,4.0,251.0,3175.904
3175914.0,214.0,111.0,4.0,248.0,3175.914
3175924.0,217.0,107.0,3.0,256.0,3175.924
3175934.0,223.0,108.0,4.0,260.0,3175.934
3175944.0,225.0,113.0,4.0,263.0,3175.944
3175954.0,227.0,109.0,4.0,257.0,3175.954
3175964.0,219.0,113.0,2.0,245.0,3175.964
3175974.0,224.0,109.0,4.0,253.0,3175.974
3175984.0,229.0,116.0,3.0,265.0,3175.984
3175994.0,232.0,118.0,4.0,254.0,3175.994
3176004.0,232.0,114.0,3.0,253.0,3176.004
3176014.0,226.0,111.0,4.0,245.0,3176.014
3176024.0,227.0,108.0,4.0,247.0,3176.024
3176034.0,232.0,111.0,4.0,248.0,3176.034
3176044.0,232.0,115.0,3.0,240.0,3176.044
3176054.0,230.0,108.0,4.0,237.0,3176.054
3176064.0,224.0,113.0,3.0,232.0,3176.064
3176074.0,226.0,110.0,4.0,235.0,3176.074
3176084.0,231.0,106.0,4.0,246.0,3176.084
3176094.0,230.0,107.0,4.0,247.0,3176.094
3176104.0,229.0,101.0,4.0,246.0,3176.104
3176114.0,225.0,108.0,3.0,242.0,3176.114
3176124.0,228.0,105.0,3.0,243.0,3176.124
3176134.0,235.0,105.0,3.0,250.0,3176.134
3176144.0,238.0,108.0,4.0,252.0,3176.144
3176154.0,236.0,103.0,4.0,254.0,3176.154
3176164.0,227.0,105.0,3.0,245.0,3176.164
3176174.0,223.0,103.0,3.0,245.0,3176.174
3176184.0,231.0,103.0,4.0,251.0,3176.184
3176194.0,231.0,101.0,3.0,246.0,3176.194
3176204.0,231.0,97.0,4.0,253.0,3176.204
3176214.0,222.0,93.0,4.0,242.0,3176.214
3176224.0,225.0,92.0,4.0,250.0,3176.224
3176235.0,229.0,87.0,4.0,255.0,3176.235
3176245.0,227.0,88.0,3.0,248.0,3176.245
3176255.0,227.0,86.0,4.0,250.0,3176.255
3176265.0,221.0,87.0,4.0,248.0,3176.265
3176275.0,227.0,89.0,4.0,259.0,3176.275
3176285.0,229.0,88.0,4.0,263.0,3176.285
3176295.0,225.0,89.0,3.0,255.0,3176.295
3176305.0,222.0,87.0,3.0,254.0,3176.305
3176315.0,218.0,88.0,4.0,262.0,3176.315
3176325.0,226.0,88.0,4.0,269.0,3176.325
3176335.0,232.0,89.0,5.0,271.0,3176.335
3176345.0,228.0,97.0,3.0,265.0,3176.345
3176355.0,232.0,93.0,3.0,269.0,3176.355
3176365.0,226.0,94.0,2.0,259.0,3176.365
3176375.0,231.0,92.0,3.0,270.0,3176.375
3176385.0,236.0,95.0,4.0,272.0,3176.385
3176395.0,225.0,99.0,4.0,261.0,3176.395
3176406.0,225.0,95.0,4.0,264.0,3176.406
3176416.0,223.0,96.0,4.0,263.0,3176.416
3176426.0,232.0,97.0,4.0,274.0,3176.426
3176436.0,232.0,94.0,3.0,272.0,3176.436
3176446.0,224.0,94.0,4.0,260.0,3176.446
3176456.0,228.0,92.0,3.0,263.0,3176.456
3176466.0,228.0,94.0,4.0,262.0,3176.466
3176476.0,233.0,95.0,4.0,267.0,3176.476
3176486.0,235.0,92.0,4.0,267.0,3176.486
3176496.0,229.0,94.0,4.0,261.0,3176.496
3176506.0,229.0,90.0,4.0,262.0,3176.506
3176516.0,235.0,101.0,3.0,268.0,3176.516
3176526.0,242.0,98.0,5.0,269.0,3176.526
3176536.0,242.0,93.0,3.0,270.0,3176.536
3176546.0,236.0,94.0,4.0,271.0,3176.546
3176556.0,236.0,91.0,3.0,270.0,3176.556
3176566.0,235.0,89.0,3.0,268.0,3176.566
3176576.0,238.0,90.0,4.0,269.0,3176.576
3176586.0,235.0,90.0,4.0,274.0,3176.586
3176596.0,224.0,93.0,4.0,257.0,3176.596
3176606.0,228.0,90.0,3.0,258.0,3176.606
3176616.0,232.0,96.0,4.0,277.0,3176.616
3176626.0,233.0,101.0,3.0,279.0,3176.626
3176636.0,237.0,104.0,4.0,288.0,3176.636
3176646.0,227.0,105.0,4.0,270.0,3176.646
3176656.0,233.0,101.0,4.0,274.0,3176.656
3176666.0,230.0,100.0,4.0,275.0,3176.666
3176676.0,234.0,100.0,4.0,263.0,3176.676
3176686.0,236.0,97.0,3.0,259.0,3176.686
3176696.0,226.0,98.0,4.0,248.0,3176.696
3176706.0,231.0,96.0,3.0,257.0,3176.706
3176716.0,231.0,97.0,4.0,276.0,3176.716
3176726.0,238.0,101.0,4.0,280.0,3176.726
3176736.0,238.0,99.0,3.0,274.0,3176.736
3176747.0,226.0,94.0,4.0,257.0,3176.747
3176757.0,231.0,93.0,3.0,274.0,3176.757
3176767.0,238.0,91.0,4.0,278.0,3176.767
3176777.0,235.0,91.0,3.0,267.0,3176.777
3176787.0,235.0,87.0,4.0,268.0,3176.787
3176797.0,230.0,88.0,4.0,263.0,3176.797
3176807.0,233.0,85.0,3.0,275.0,3176.807
3176817.0,240.0,87.0,3.0,285.0,3176.817
3176827.0,238.0,90.0,3.0,273.0,3176.827
3176837.0,238.0,87.0,5.0,277.0,3176.837
3176847.0,226.0,85.0,4.0,262.0,3176.847
3176857.0,226.0,84.0,2.0,258.0,3176.857
3176867.0,237.0,81.0,3.0,267.0,3176.867
3176877.0,236.0,84.0,3.0,268.0,3176.877
3176887.0,235.0,82.0,3.0,267.0,3176.887
3176897.0,225.0,82.0,3.0,258.0,3176.897
3176907.0,231.0,81.0,4.0,268.0,3176.907
3176918.0,237.0,82.0,5.0,279.0,3176.918
3176928.0,231.0,88.0,3.0,281.0,3176.928
3176938.0,231.0,84.0,4.0,284.0,3176.938
3176948.0,225.0,83.0,3.0,273.0,3176.948
3176958.0,237.0,82.0,4.0,279.0,3176.958
3176968.0,236.0,81.0,3.0,276.0,3176.968
3176978.0,229.0,83.0,4.0,266.0,3176.978
3176988.0,229.0,80.0,4.0,265.0,3176.988
3176998.0,225.0,79.0,3.0,262.0,3176.998
3177008.0,232.0,78.0,4.0,268.0,3177.008
3177018.0,235.0,78.0,3.0,271.0,3177.018
3177028.0,228.0,78.0,5.0,257.0,3177.028
3177038.0,225.0,76.0,4.0,258.0,3177.038
3177048.0,222.0,77.0,4.0,263.0,3177.048
3177058.0,230.0,77.0,4.0,276.0,3177.058
3177068.0,235.0,76.0,4.0,298.0,3177.068
3177078.0,229.0,81.0,3.0,279.0,3177.078
3177088.0,230.0,77.0,3.0,280.0,3177.088
3177098.0,222.0,83.0,4.0,271.0,3177.098
3177108.0,232.0,83.0,4.0,277.0,3177.108
3177118.0,234.0,83.0,3.0,284.0,3177.118
3177128.0,229.0,84.0,3.0,277.0,3177.128
3177138.0,231.0,82.0,3.0,283.0,3177.138
3177148.0,226.0,84.0,4.0,274.0,3177.148
3177158.0,233.0,87.0,3.0,280.0,3177.158
3177168.0,235.0,89.0,4.0,277.0,3177.168
3177178.0,230.0,96.0,4.0,273.0,3177.178
3177188.0,231.0,93.0,3.0,275.0,3177.188
3177198.0,227.0,97.0,3.0,275.0,3177.198
3177208.0,235.0,96.0,3.0,269.0,3177.208
3177218.0,240.0,94.0,4.0,267.0,3177.218
3177228.0,233.0,97.0,3.0,257.0,3177.228
3177238.0,233.0,91.0,4.0,255.0,3177.238
3177248.0,229.0,93.0,2.0,257.0,3177.248
3177259.0,236.0,92.0,4.0,263.0,3177.259
3177269.0,235.0,90.0,3.0,263.0,3177.269
3177279.0,227.0,90.0,3.0,252.0,3177.279
3177289.0,231.0,87.0,3.0,256.0,3177.289
3177299.0,235.0,91.0,5.0,261.0,3177.299
3177309.0,234.0,93.0,4.0,264.0,3177.309
3177319.0,234.0,90.0,4.0,265.0,3177.319
3177329.0,228.0,98.0,3.0,257.0,3177.329
3177339.0,230.0,94.0,3.0,262.0,3177.339
3177349.0,231.0,97.0,3.0,265.0,3177.349
3177359.0,234.0,101.0,4.0,270.0,3177.359
3177369.0,234.0,98.0,4.0,267.0,3177.369
3177379.0,228.0,97.0,4.0,254.0,3177.379
3177389.0,231.0,95.0,3.0,257.0,3177.389
3177399.0,235.0,96.0,3.0,261.0,3177.399
3177409.0,238.0,94.0,4.0,258.0,3177.409
3177419.0,236.0,90.0,4.0,254.0,3177.419
3177430.0,229.0,93.0,5.0,250.0,3177.43
3177440.0,233.0,91.0,4.0,263.0,3177.44
3177450.0,236.0,92.0,3.0,267.0,3177.45
3177460.0,230.0,94.0,3.0,264.0,3177.46
3177470.0,232.0,88.0,4.0,272.0,3177.47
3177480.0,224.0,87.0,4.0,269.0,3177.48
3177490.0,231.0,86.0,4.0,280.0,3177.49
3177500.0,234.0,83.0,3.0,284.0,3177.5
3177510.0,229.0,85.0,4.0,273.0,3177.51
3177520.0,227.0,83.0,3.0,271.0,3177.52
3177530.0,215.0,82.0,3.0,253.0,3177.53
3177540.0,222.0,80.0,4.0,259.0,3177.54
3177550.0,227.0,79.0,3.0,263.0,3177.55
3177560.0,226.0,83.0,4.0,261.0,3177.56
3177570.0,228.0,80.0,3.0,264.0,3177.57
3177580.0,219.0,79.0,4.0,254.0,3177.58
3177590.0,222.0,79.0,3.0,258.0,3177.59
3177600.0,227.0,79.0,4.0,259.0,3177.6
3177610.0,224.0,80.0,4.0,256.0,3177.61
3177620.0,225.0,78.0,4.0,257.0,3177.62
3177630.0,218.0,78.0,4.0,257.0,3177.63
3177640.0,227.0,77.0,3.0,273.0,3177.64
3177650.0,230.0,79.0,3.0,275.0,3177.65
3177660.0,223.0,79.0,3.0,268.0,3177.66
3177670.0,224.0,76.0,4.0,262.0,3177.67
3177680.0,217.0,75.0,4.0,254.0,3177.68
3177690.0,225.0,74.0,3.0,263.0,3177.69
3177700.0,235.0,79.0,3.0,278.0,3177.7
3177710.0,229.0,77.0,3.0,269.0,3177.71
3177720.0,230.0,75.0,4.0,270.0,3177.72
3177730.0,224.0,78.0,4.0,267.0,3177.73
3177740.0,231.0,77.0,4.0,278.0,3177.74
3177750.0,238.0,78.0,5.0,281.0,3177.75
3177760.0,230.0,84.0,3.0,274.0,3177.76
3177771.0,230.0,80.0,4.0,272.0,3177.771
3177781.0,227.0,79.0,3.0,270.0,3177.781
3177791.0,235.0,79.0,3.0,281.0,3177.791
3177801.0,233.0,77.0,4.0,278.0,3177.801
3177811.0,223.0,80.0,4.0,271.0,3177.811
3177821.0,227.0,78.0,4.0,275.0,3177.821
3177831.0,225.0,75.0,3.0,273.0,3177.831
3177841.0,232.0,76.0,3.0,276.0,3177.841
3177851.0,234.0,76.0,3.0,277.0,3177.851
3177861.0,229.0,79.0,4.0,269.0,3177.861
3177871.0,229.0,77.0,3.0,267.0,3177.871
3177881.0,229.0,77.0,4.0,265.0,3177.881
3177891.0,232.0,77.0,3.0,266.0,3177.891
3177901.0,238.0,76.0,4.0,265.0,3177.901
3177911.0,230.0,79.0,3.0,258.0,3177.911
3177921.0,231.0,76.0,3.0,259.0,3177.921
3177931.0,232.0,74.0,4.0,265.0,3177.931
3177942.0,237.0,74.0,5.0,266.0,3177.942
3177952.0,235.0,72.0,4.0,265.0,3177.952
3177962.0,229.0,75.0,4.0,260.0,3177.962
3177972.0,233.0,74.0,3.0,267.0,3177.972
3177982.0,239.0,70.0,3.0,278.0,3177.982
3177992.0,237.0,70.0,3.0,273.0,3177.992
3178002.0,237.0,68.0,5.0,271.0,3178.002
3178012.0,228.0,70.0,3.0,264.0,3178.012
3178022.0,234.0,68.0,4.0,277.0,3178.022
3178032.0,244.0,73.0,4.0,284.0,3178.032
3178042.0,243.0,76.0,3.0,281.0,3178.042
3178052.0,241.0,73.0,4.0,276.0,3178.052
3178062.0,232.0,74.0,4.0,264.0,3178.062
3178072.0,237.0,73.0,5.0,266.0,3178.072
3178082.0,242.0,77.0,4.0,278.0,3178.082
3178092.0,242.0,77.0,3.0,276.0,3178.092
3178102.0,240.0,76.0,3.0,275.0,3178.102
3178112.0,232.0,78.0,4.0,266.0,3178.112
3178122.0,235.0,76.0,4.0,269.0,3178.122
3178132.0,240.0,78.0,4.0,273.0,3178.132
3178142.0,238.0,82.0,3.0,271.0,3178.142
3178152.0,236.0,79.0,3.0,269.0,3178.152
3178162.0,228.0,79.0,3.0,261.0,3178.162
3178172.0,233.0,78.0,3.0,266.0,3178.172
3178182.0,236.0,77.0,4.0,273.0,3178.182
3178192.0,230.0,79.0,4.0,272.0,3178.192
3178202.0,231.0,75.0,5.0,269.0,3178.202
3178212.0,222.0,78.0,3.0,259.0,3178.212
3178222.0,228.0,76.0,4.0,267.0,3178.222
3178232.0,232.0,79.0,3.0,270.0,3178.232
3178242.0,234.0,84.0,4.0,268.0,3178.242
3178252.0,234.0,82.0,4.0,272.0,3178.252
3178262.0,226.0,83.0,5.0,262.0,3178.262
3178272.0,234.0,81.0,3.0,272.0,3178.272
3178283.0,237.0,84.0,4.0,273.0,3178.283
3178293.0,231.0,88.0,3.0,269.0,3178.293
3178303.0,233.0,84.0,4.0,272.0,3178.303
3178313.0,228.0,84.0,3.0,267.0,3178.313
3178323.0,237.0,82.0,4.0,271.0,3178.323
3178333.0,240.0,81.0,4.0,271.0,3178.333
3178343.0,232.0,80.0,4.0,264.0,3178.343
3178353.0,234.0,76.0,4.0,264.0,3178.353
3178363.0,234.0,75.0,3.0,264.0,3178.363
3178373.0,235.0,72.0,4.0,262.0,3178.373
3178383.0,238.0,72.0,4.0,263.0,3178.383
3178393.0,232.0,70.0,4.0,259.0,3178.393
3178403.0,231.0,69.0,3.0,263.0,3178.403
3178413.0,225.0,70.0,4.0,257.0,3178.413
3178423.0,233.0,71.0,3.0,264.0,3178.423
3178433.0,237.0,74.0,4.0,263.0,3178.433
3178443.0,232.0,79.0,3.0,259.0,3178.443
3178454.0,230.0,76.0,4.0,255.0,3178.454
3178464.0,227.0,77.0,4.0,255.0,3178.464
3178474.0,230.0,81.0,3.0,259.0,3178.474
3178484.0,231.0,81.0,3.0,266.0,3178.484
3178494.0,223.0,86.0,3.0,254.0,3178.494
3178504.0,229.0,82.0,4.0,257.0,3178.504
3178514.0,227.0,88.0,3.0,260.0,3178.514
3178524.0,233.0,89.0,4.0,264.0,3178.524
3178534.0,235.0,86.0,4.0,270.0,3178.534
3178544.0,229.0,89.0,3.0,264.0,3178.544
3178554.0,231.0,86.0,3.0,262.0,3178.554
3178564.0,233.0,86.0,4.0,264.0,3178.564
3178574.0,233.0,88.0,3.0,265.0,3178.574
3178584.0,236.0,83.0,4.0,263.0,3178.584
3178594.0,226.0,80.0,3.0,254.0,3178.594
3178604.0,228.0,77.0,3.0,260.0,3178.604
3178614.0,238.0,73.0,3.0,269.0,3178.614
3178624.0,238.0,73.0,3.0,267.0,3178.624
3178634.0,238.0,70.0,4.0,270.0,3178.634
3178644.0,231.0,67.0,4.0,268.0,3178.644
3178654.0,234.0,67.0,4.0,273.0,3178.654
3178664.0,236.0,65.0,4.0,274.0,3178.664
3178674.0,235.0,65.0,4.0,269.0,3178.674
3178684.0,237.0,64.0,3.0,266.0,3178.684
3178694.0,228.0,63.0,4.0,258.0,3178.694
3178704.0,231.0,63.0,4.0,263.0,3178.704
3178714.0,232.0,61.0,4.0,262.0,3178.714
3178724.0,233.0,60.0,4.0,264.0,3178.724
3178734.0,230.0,59.0,4.0,261.0,3178.734
3178744.0,225.0,68.0,3.0,266.0,3178.744
3178754.0,227.0,65.0,3.0,270.0,3178.754
3178764.0,225.0,63.0,4.0,268.0,3178.764
3178774.0,226.0,64.0,5.0,263.0,3178.774
3178784.0,223.0,62.0,4.0,262.0,3178.784
3178795.0,212.0,60.0,4.0,251.0,3178.795
3178805.0,219.0,59.0,4.0,263.0,3178.805
3178815.0,229.0,56.0,3.0,263.0,3178.815
3178825.0,223.0,57.0,4.0,248.0,3178.825
3178835.0,224.0,55.0,4.0,251.0,3178.835
3178845.0,218.0,62.0,3.0,243.0,3178.845
3178855.0,224.0,61.0,3.0,252.0,3178.855
3178865.0,231.0,65.0,4.0,257.0,3178.865
3178875.0,225.0,64.0,3.0,252.0,3178.875
3178885.0,229.0,61.0,4.0,256.0,3178.885
3178895.0,221.0,59.0,4.0,248.0,3178.895
3178905.0,230.0,58.0,5.0,261.0,3178.905
3178915.0,232.0,56.0,4.0,262.0,3178.915
3178925.0,226.0,55.0,4.0,258.0,3178.925
3178935.0,226.0,55.0,3.0,257.0,3178.935
3178945.0,218.0,54.0,3.0,250.0,3178.945
3178955.0,227.0,54.0,3.0,261.0,3178.955
3178966.0,231.0,53.0,4.0,263.0,3178.966
3178976.0,223.0,51.0,4.0,253.0,3178.976
3178986.0,222.0,52.0,3.0,253.0,3178.986
3178996.0,220.0,52.0,3.0,253.0,3178.996
3179006.0,225.0,51.0,4.0,258.0,3179.006
3179016.0,228.0,50.0,3.0,258.0,3179.016
3179026.0,220.0,51.0,4.0,252.0,3179.026
3179036.0,223.0,49.0,5.0,252.0,3179.036
3179046.0,220.0,49.0,2.0,252.0,3179.046
3179056.0,221.0,49.0,4.0,256.0,3179.056
3179066.0,225.0,49.0,3.0,259.0,3179.066
3179076.0,216.0,48.0,4.0,250.0,3179.076
3179086.0,218.0,47.0,4.0,253.0,3179.086
3179096.0,214.0,46.0,4.0,251.0,3179.096
3179106.0,222.0,46.0,4.0,259.0,3179.106
3179116.0,224.0,46.0,3.0,256.0,3179.116
3179126.0,217.0,45.0,3.0,250.0,3179.126
3179136.0,220.0,45.0,4.0,255.0,3179.136
3179146.0,221.0,42.0,3.0,255.0,3179.146
3179156.0,228.0,42.0,4.0,266.0,3179.156
3179166.0,231.0,44.0,4.0,271.0,3179.166
3179176.0,220.0,46.0,4.0,259.0,3179.176
3179186.0,225.0,45.0,4.0,263.0,3179.186
3179196.0,223.0,47.0,3.0,264.0,3179.196
3179206.0,227.0,45.0,4.0,266.0,3179.206
3179216.0,228.0,45.0,4.0,266.0,3179.216
3179226.0,221.0,47.0,5.0,258.0,3179.226
3179236.0,222.0,45.0,4.0,259.0,3179.236
3179246.0,221.0,48.0,3.0,260.0,3179.246
3179256.0,226.0,49.0,3.0,263.0,3179.256
3179266.0,229.0,49.0,3.0,261.0,3179.266
3179276.0,220.0,53.0,4.0,252.0,3179.276
3179286.0,222.0,52.0,4.0,253.0,3179.286
3179296.0,224.0,51.0,4.0,258.0,3179.296
3179307.0,226.0,51.0,4.0,259.0,3179.307
3179317.0,227.0,49.0,4.0,258.0,3179.317
3179327.0,217.0,54.0,3.0,250.0,3179.327
3179337.0,221.0,52.0,4.0,258.0,3179.337
3179347.0,226.0,53.0,3.0,262.0,3179.347
3179357.0,225.0,51.0,5.0,258.0,3179.357
3179367.0,224.0,49.0,4.0,256.0,3179.367
3179377.0,214.0,47.0,4.0,246.0,3179.377
3179387.0,220.0,47.0,3.0,255.0,3179.387
3179397.0,223.0,44.0,4.0,256.0,3179.397
3179407.0,222.0,44.0,3.0,256.0,3179.407
3179417.0,224.0,42.0,4.0,255.0,3179.417
3179427.0,218.0,41.0,4.0,247.0,3179.427
3179437.0,222.0,41.0,3.0,253.0,3179.437
3179447.0,227.0,40.0,4.0,254.0,3179.447
3179457.0,223.0,40.0,3.0,250.0,3179.457
3179467.0,226.0,38.0,4.0,250.0,3179.467
3179478.0,215.0,38.0,4.0,242.0,3179.478
3179488.0,224.0,38.0,5.0,252.0,3179.488
3179498.0,228.0,37.0,4.0,255.0,3179.498
3179508.0,220.0,37.0,4.0,249.0,3179.508
3179518.0,223.0,39.0,3.0,249.0,3179.518
3179528.0,214.0,38.0,4.0,241.0,3179.528
3179538.0,222.0,38.0,3.0,254.0,3179.538
3179548.0,227.0,38.0,5.0,253.0,3179.548
3179558.0,218.0,38.0,4.0,247.0,3179.558
3179568.0,221.0,38.0,3.0,249.0,3179.568
3179578.0,214.0,38.0,4.0,242.0,3179.578
3179588.0,223.0,38.0,3.0,251.0,3179.588
3179598.0,227.0,38.0,4.0,252.0,3179.598
3179608.0,221.0,37.0,4.0,250.0,3179.608
3179618.0,223.0,37.0,4.0,250.0,3179.618
3179628.0,216.0,37.0,4.0,243.0,3179.628
3179638.0,226.0,38.0,3.0,259.0,3179.638
3179648.0,231.0,37.0,3.0,261.0,3179.648
3179658.0,223.0,36.0,4.0,253.0,3179.658
3179668.0,224.0,36.0,4.0,253.0,3179.668
3179678.0,220.0,36.0,3.0,249.0,3179.678
3179688.0,226.0,35.0,3.0,259.0,3179.688
3179698.0,230.0,35.0,4.0,260.0,3179.698
3179708.0,222.0,36.0,3.0,256.0,3179.708
3179718.0,223.0,34.0,4.0,257.0,3179.718
3179728.0,220.0,35.0,3.0,255.0,3179.728
3179738.0,225.0,34.0,4.0,257.0,3179.738
3179748.0,230.0,34.0,4.0,257.0,3179.748
3179758.0,223.0,34.0,3.0,252.0,3179.758
3179768.0,226.0,33.0,3.0,253.0,3179.768
3179778.0,218.0,33.0,4.0,248.0,3179.778
3179788.0,225.0,32.0,3.0,258.0,3179.788
3179798.0,229.0,32.0,4.0,262.0,3179.798
3179808.0,221.0,31.0,4.0,255.0,3179.808
3179819.0,222.0,31.0,4.0,256.0,3179.819
3179829.0,221.0,33.0,3.0,257.0,3179.829
3179839.0,225.0,33.0,3.0,261.0,3179.839
3179849.0,227.0,32.0,4.0,256.0,3179.849
3179859.0,217.0,33.0,3.0,250.0,3179.859
3179869.0,224.0,33.0,5.0,257.0,3179.869
3179879.0,227.0,34.0,4.0,259.0,3179.879
3179889.0,228.0,33.0,3.0,261.0,3179.889
3179899.0,229.0,33.0,3.0,258.0,3179.899
3179909.0,221.0,32.0,3.0,248.0,3179.909
3179919.0,223.0,31.0,3.0,252.0,3179.919
3179929.0,225.0,32.0,4.0,263.0,3179.929
3179939.0,226.0,31.0,4.0,264.0,3179.939
3179949.0,228.0,30.0,4.0,263.0,3179.949
3179959.0,218.0,29.0,4.0,254.0,3179.959
3179969.0,221.0,31.0,3.0,253.0,3179.969
3179979.0,224.0,30.0,4.0,257.0,3179.979
3179990.0,223.0,30.0,3.0,256.0,3179.99
3180000.0,224.0,30.0,5.0,254.0,3180.0
3180010.0,214.0,29.0,4.0,244.0,3180.01
3180020.0,220.0,29.0,3.0,255.0,3180.02
3180030.0,227.0,29.0,3.0,261.0,3180.03
3180040.0,223.0,28.0,4.0,256.0,3180.04
3180050.0,223.0,28.0,4.0,255.0,3180.05
3180060.0,214.0,29.0,4.0,245.0,3180.06
3180070.0,223.0,29.0,4.0,255.0,3180.07
3180080.0,226.0,29.0,3.0,258.0,3180.08
3180090.0,224.0,29.0,4.0,255.0,3180.09
3180100.0,227.0,29.0,3.0,255.0,3180.1
3180110.0,219.0,28.0,4.0,250.0,3180.11
3180120.0,224.0,28.0,4.0,255.0,3180.12
3180130.0,230.0,29.0,4.0,260.0,3180.13
3180140.0,224.0,28.0,4.0,257.0,3180.14
3180150.0,224.0,28.0,3.0,254.0,3180.15
3180160.0,215.0,29.0,4.0,245.0,3180.16
3180170.0,221.0,28.0,3.0,254.0,3180.17
3180180.0,228.0,28.0,4.0,262.0,3180.18
3180190.0,223.0,28.0,4.0,255.0,3180.19
3180200.0,221.0,28.0,4.0,254.0,3180.2
3180210.0,213.0,28.0,4.0,245.0,3180.21
3180220.0,220.0,29.0,3.0,256.0,3180.22
3180230.0,227.0,28.0,4.0,259.0,3180.23
3180240.0,220.0,28.0,4.0,253.0,3180.24
3180250.0,224.0,28.0,4.0,255.0,3180.25
3180260.0,216.0,27.0,4.0,245.0,3180.26
3180270.0,222.0,28.0,4.0,256.0,3180.27
3180280.0,228.0,28.0,4.0,257.0,3180.28
3180290.0,219.0,28.0,4.0,254.0,3180.29
3180300.0,221.0,28.0,4.0,251.0,3180.3
3180310.0,212.0,28.0,3.0,243.0,3180.31
3180320.0,220.0,27.0,5.0,250.0,3180.32
3180331.0,225.0,27.0,4.0,252.0,3180.331
3180341.0,217.0,27.0,4.0,244.0,3180.341
3180351.0,219.0,28.0,3.0,248.0,3180.351
3180361.0,217.0,28.0,4.0,250.0,3180.361
3180371.0,223.0,27.0,4.0,255.0,3180.371
3180381.0,225.0,27.0,4.0,255.0,3180.381
3180391.0,216.0,27.0,4.0,246.0,3180.391
3180401.0,220.0,27.0,4.0,248.0,3180.401
3180411.0,219.0,28.0,3.0,250.0,3180.411
3180421.0,222.0,27.0,3.0,256.0,3180.421
3180431.0,226.0,26.0,4.0,256.0,3180.431
3180441.0,215.0,27.0,4.0,247.0,3180.441
3180451.0,220.0,27.0,4.0,247.0,3180.451
3180461.0,214.0,27.0,3.0,245.0,3180.461
3180471.0,223.0,27.0,4.0,256.0,3180.471
3180481.0,226.0,28.0,3.0,256.0,3180.481
3180491.0,218.0,27.0,4.0,246.0,3180.491
3180502.0,223.0,28.0,3.0,249.0,3180.502
3180512.0,227.0,27.0,4.0,257.0,3180.512
3180522.0,225.0,27.0,4.0,260.0,3180.522
3180532.0,227.0,27.0,3.0,257.0,3180.532
3180542.0,216.0,28.0,3.0,252.0,3180.542
3180552.0,222.0,27.0,3.0,256.0,3180.552
3180562.0,225.0,27.0,4.0,260.0,3180.562
3180572.0,225.0,27.0,4.0,261.0,3180.572
3180582.0,226.0,29.0,4.0,257.0,3180.582
3180592.0,217.0,36.0,4.0,250.0,3180.592
3180602.0,223.0,36.0,4.0,252.0,3180.602
3180612.0,229.0,44.0,3.0,260.0,3180.612
3180622.0,225.0,42.0,4.0,255.0,3180.622
3180632.0,228.0,40.0,3.0,254.0,3180.632
3180642.0,219.0,41.0,3.0,245.0,3180.642
3180652.0,221.0,40.0,2.0,250.0,3180.652
3180662.0,227.0,41.0,3.0,254.0,3180.662
3180672.0,224.0,39.0,4.0,251.0,3180.672
3180682.0,225.0,39.0,3.0,250.0,3180.682
3180692.0,215.0,39.0,4.0,245.0,3180.692
3180702.0,217.0,39.0,4.0,251.0,3180.702
3180712.0,225.0,39.0,4.0,256.0,3180.712
3180722.0,221.0,37.0,3.0,254.0,3180.722
3180732.0,224.0,37.0,3.0,252.0,3180.732
3180742.0,213.0,36.0,3.0,243.0,3180.742
3180752.0,219.0,34.0,4.0,250.0,3180.752
3180762.0,223.0,34.0,3.0,253.0,3180.762
3180772.0,223.0,32.0,4.0,256.0,3180.772
3180782.0,224.0,32.0,4.0,254.0,3180.782
3180792.0,214.0,31.0,3.0,244.0,3180.792
3180802.0,216.0,32.0,3.0,247.0,3180.802
3180812.0,221.0,30.0,4.0,254.0,3180.812
3180822.0,219.0,30.0,3.0,253.0,3180.822
3180832.0,221.0,30.0,4.0,250.0,3180.832
3180843.0,211.0,29.0,4.0,242.0,3180.843
3180853.0,220.0,29.0,4.0,253.0,3180.853
3180863.0,227.0,29.0,3.0,259.0,3180.863
3180873.0,219.0,28.0,3.0,252.0,3180.873
3180883.0,221.0,28.0,4.0,253.0,3180.883
3180893.0,212.0,28.0,3.0,245.0,3180.893
3180903.0,220.0,27.0,4.0,257.0,3180.903
3180913.0,224.0,28.0,4.0,257.0,3180.913
3180923.0,215.0,28.0,4.0,249.0,3180.923
3180933.0,220.0,28.0,3.0,250.0,3180.933
3180943.0,213.0,27.0,4.0,247.0,3180.943
3180953.0,221.0,28.0,4.0,260.0,3180.953
3180963.0,228.0,27.0,4.0,263.0,3180.963
3180973.0,221.0,28.0,4.0,257.0,3180.973
3180983.0,221.0,27.0,4.0,253.0,3180.983
3180993.0,213.0,29.0,3.0,249.0,3180.993
3181003.0,221.0,27.0,4.0,257.0,3181.003
3181014.0,224.0,28.0,3.0,255.0,3181.014
3181024.0,215.0,30.0,4.0,246.0,3181.024
3181034.0,217.0,30.0,3.0,247.0,3181.034
3181044.0,218.0,34.0,3.0,250.0,3181.044
3181054.0,220.0,35.0,3.0,251.0,3181.054
3181064.0,223.0,36.0,3.0,249.0,3181.064
3181074.0,216.0,38.0,3.0,241.0,3181.074
3181084.0,219.0,37.0,4.0,243.0,3181.084
3181094.0,223.0,43.0,4.0,251.0,3181.094
3181104.0,223.0,43.0,2.0,255.0,3181.104
3181114.0,224.0,47.0,4.0,252.0,3181.114
3181124.0,214.0,54.0,3.0,244.0,3181.124
3181134.0,218.0,50.0,4.0,247.0,3181.134
3181144.0,215.0,56.0,3.0,247.0,3181.144
3181154.0,219.0,53.0,4.0,250.0,3181.154
3181164.0,222.0,52.0,4.0,249.0,3181.164
3181174.0,214.0,53.0,4.0,241.0,3181.174
3181184.0,221.0,51.0,2.0,246.0,3181.184
3181194.0,218.0,55.0,3.0,246.0,3181.194
3181204.0,223.0,54.0,4.0,251.0,3181.204
3181214.0,223.0,55.0,4.0,246.0,3181.214
3181224.0,215.0,54.0,4.0,242.0,3181.224
3181234.0,219.0,50.0,4.0,247.0,3181.234
3181244.0,219.0,47.0,4.0,249.0,3181.244
3181254.0,222.0,45.0,3.0,252.0,3181.254
3181264.0,223.0,42.0,4.0,250.0,3181.264
3181274.0,215.0,41.0,3.0,248.0,3181.274
3181284.0,216.0,39.0,5.0,247.0,3181.284
3181294.0,215.0,38.0,3.0,248.0,3181.294
3181304.0,216.0,37.0,4.0,247.0,3181.304
3181314.0,220.0,34.0,4.0,246.0,3181.314
3181324.0,210.0,34.0,3.0,240.0,3181.324
3181334.0,213.0,33.0,4.0,240.0,3181.334
3181344.0,217.0,32.0,4.0,247.0,3181.344
3181355.0,217.0,33.0,4.0,250.0,3181.355
3181365.0,217.0,34.0,3.0,248.0,3181.365
3181375.0,208.0,37.0,3.0,243.0,3181.375
3181385.0,211.0,36.0,3.0,250.0,3181.385
3181395.0,217.0,38.0,4.0,251.0,3181.395
3181405.0,213.0,38.0,4.0,249.0,3181.405
3181415.0,215.0,39.0,4.0,248.0,3181.415
3181425.0,206.0,44.0,4.0,241.0,3181.425
3181435.0,214.0,42.0,4.0,251.0,3181.435
3181445.0,218.0,44.0,3.0,254.0,3181.445
3181455.0,215.0,43.0,3.0,252.0,3181.455
3181465.0,216.0,43.0,4.0,252.0,3181.465
3181475.0,209.0,47.0,4.0,245.0,3181.475
3181485.0,214.0,45.0,2.0,251.0,3181.485
3181495.0,224.0,44.0,3.0,255.0,3181.495
3181505.0,218.0,44.0,3.0,250.0,3181.505
3181515.0,218.0,43.0,3.0,248.0,3181.515
3181526.0,210.0,41.0,4.0,242.0,3181.526
3181536.0,217.0,41.0,4.0,251.0,3181.536
3181546.0,223.0,40.0,3.0,251.0,3181.546
3181556.0,214.0,39.0,3.0,245.0,3181.556
3181566.0,216.0,37.0,4.0,247.0,3181.566
3181576.0,210.0,38.0,3.0,247.0,3181.576
3181586.0,218.0,36.0,3.0,253.0,3181.586
3181596.0,221.0,35.0,3.0,251.0,3181.596
3181606.0,213.0,34.0,4.0,246.0,3181.606
3181616.0,212.0,34.0,4.0,249.0,3181.616
3181626.0,207.0,33.0,4.0,244.0,3181.626
3181636.0,215.0,33.0,3.0,253.0,3181.636
3181646.0,218.0,32.0,3.0,250.0,3181.646
3181656.0,211.0,32.0,3.0,245.0,3181.656
3181666.0,213.0,31.0,2.0,246.0,3181.666
3181676.0,210.0,33.0,4.0,243.0,3181.676
3181686.0,216.0,32.0,4.0,251.0,3181.686
3181696.0,217.0,34.0,4.0,250.0,3181.696
3181706.0,208.0,44.0,3.0,245.0,3181.706
3181716.0,212.0,42.0,3.0,247.0,3181.716
3181726.0,209.0,53.0,4.0,245.0,3181.726
3181736.0,216.0,53.0,4.0,249.0,3181.736
3181746.0,218.0,54.0,2.0,250.0,3181.746
3181756.0,210.0,56.0,4.0,244.0,3181.756
3181766.0,212.0,54.0,3.0,243.0,3181.766
3181776.0,211.0,54.0,4.0,244.0,3181.776
3181786.0,214.0,52.0,3.0,249.0,3181.786
3181796.0,220.0,55.0,4.0,248.0,3181.796
3181806.0,212.0,58.0,2.0,241.0,3181.806
3181816.0,215.0,54.0,4.0,241.0,3181.816
3181826.0,211.0,52.0,4.0,240.0,3181.826
3181836.0,218.0,50.0,3.0,247.0,3181.836
3181846.0,221.0,48.0,4.0,245.0,3181.846
3181856.0,212.0,52.0,4.0,242.0,3181.856
3181867.0,215.0,50.0,4.0,247.0,3181.867
3181877.0,217.0,50.0,4.0,250.0,3181.877
3181887.0,218.0,53.0,4.0,251.0,3181.887
3181897.0,218.0,54.0,3.0,249.0,3181.897
3181907.0,210.0,60.0,4.0,242.0,3181.907
3181917.0,217.0,57.0,4.0,248.0,3181.917
3181927.0,220.0,61.0,4.0,251.0,3181.927
3181937.0,218.0,62.0,2.0,252.0,3181.937
3181947.0,219.0,58.0,4.0,249.0,3181.947
3181957.0,212.0,58.0,3.0,244.0,3181.957
3181967.0,215.0,54.0,4.0,246.0,3181.967
3181977.0,220.0,52.0,3.0,252.0,3181.977
3181987.0,218.0,51.0,5.0,248.0,3181.987
3181997.0,220.0,50.0,3.0,245.0,3181.997
3182007.0,214.0,52.0,4.0,237.0,3182.007
3182017.0,218.0,52.0,3.0,242.0,3182.017
3182027.0,222.0,49.0,3.0,249.0,3182.027
3182038.0,219.0,49.0,4.0,249.0,3182.038
3182048.0,218.0,48.0,4.0,247.0,3182.048
3182058.0,211.0,55.0,4.0,240.0,3182.058
3182068.0,217.0,53.0,3.0,250.0,3182.068
3182078.0,221.0,59.0,3.0,255.0,3182.078
3182088.0,217.0,63.0,3.0,249.0,3182.088
3182098.0,218.0,60.0,4.0,247.0,3182.098
3182108.0,212.0,67.0,3.0,241.0,3182.108
3182118.0,222.0,67.0,5.0,253.0,3182.118
3182128.0,223.0,69.0,4.0,253.0,3182.128
3182138.0,218.0,68.0,4.0,247.0,3182.138
3182148.0,218.0,66.0,3.0,246.0,3182.148
3182158.0,211.0,62.0,3.0,238.0,3182.158
3182168.0,216.0,60.0,4.0,245.0,3182.168
3182178.0,220.0,62.0,4.0,249.0,3182.178
3182188.0,216.0,64.0,4.0,245.0,3182.188
3182198.0,215.0,62.0,3.0,240.0,3182.198
3182208.0,211.0,64.0,4.0,233.0,3182.208
3182218.0,218.0,62.0,3.0,242.0,3182.218
3182228.0,222.0,64.0,4.0,244.0,3182.228
3182238.0,214.0,69.0,4.0,240.0,3182.238
3182248.0,217.0,66.0,5.0,239.0,3182.248
3182258.0,208.0,70.0,3.0,233.0,3182.258
3182268.0,215.0,66.0,4.0,241.0,3182.268
3182278.0,220.0,69.0,3.0,247.0,3182.278
3182288.0,213.0,71.0,3.0,241.0,3182.288
3182298.0,219.0,69.0,3.0,245.0,3182.298
3182308.0,210.0,72.0,4.0,238.0,3182.308
3182318.0,218.0,69.0,4.0,248.0,3182.318
3182328.0,221.0,71.0,3.0,249.0,3182.328
3182338.0,215.0,74.0,4.0,244.0,3182.338
3182348.0,215.0,70.0,3.0,242.0,3182.348
3182358.0,209.0,71.0,4.0,236.0,3182.358
3182368.0,216.0,69.0,4.0,245.0,3182.368
3182379.0,221.0,69.0,4.0,245.0,3182.379
3182389.0,214.0,71.0,4.0,239.0,3182.389
3182399.0,216.0,68.0,4.0,242.0,3182.399
3182409.0,216.0,76.0,3.0,246.0,3182.409
3182419.0,219.0,80.0,3.0,249.0,3182.419
3182429.0,221.0,81.0,3.0,250.0,3182.429
3182439.0,213.0,86.0,5.0,242.0,3182.439
3182449.0,215.0,82.0,4.0,244.0,3182.449
3182459.0,216.0,85.0,4.0,246.0,3182.459
3182469.0,218.0,88.0,3.0,248.0,3182.469
3182479.0,222.0,86.0,3.0,246.0,3182.479
3182489.0,212.0,90.0,3.0,240.0,3182.489
3182499.0,216.0,85.0,4.0,245.0,3182.499
3182509.0,214.0,83.0,4.0,244.0,3182.509
3182519.0,220.0,82.0,3.0,251.0,3182.519
3182529.0,220.0,78.0,4.0,247.0,3182.529
3182539.0,210.0,79.0,3.0,240.0,3182.539
3182550.0,214.0,74.0,4.0,244.0,3182.55
3182560.0,216.0,77.0,3.0,253.0,3182.56
3182570.0,213.0,83.0,4.0,249.0,3182.57
3182580.0,212.0,80.0,4.0,247.0,3182.58
3182590.0,204.0,84.0,4.0,239.0,3182.59
3182600.0,210.0,82.0,3.0,246.0,3182.6
3182610.0,215.0,82.0,4.0,250.0,3182.61
3182620.0,213.0,79.0,4.0,248.0,3182.62
3182630.0,213.0,75.0,5.0,245.0,3182.63
3182640.0,207.0,74.0,4.0,238.0,3182.64
3182650.0,210.0,72.0,3.0,244.0,3182.65
3182660.0,217.0,71.0,3.0,251.0,3182.66
3182670.0,210.0,70.0,3.0,245.0,3182.67
3182680.0,213.0,69.0,4.0,244.0,3182.68
3182690.0,205.0,68.0,4.0,237.0,3182.69
3182700.0,211.0,67.0,5.0,245.0,3182.7
3182710.0,216.0,67.0,4.0,249.0,3182.71
3182720.0,214.0,66.0,4.0,249.0,3182.72
3182730.0,214.0,66.0,3.0,249.0,3182.73
3182740.0,208.0,64.0,3.0,242.0,3182.74
3182750.0,213.0,63.0,3.0,249.0,3182.75
3182760.0,220.0,60.0,4.0,253.0,3182.76
3182770.0,216.0,59.0,4.0,249.0,3182.77
3182780.0,215.0,56.0,3.0,246.0,3182.78
3182790.0,206.0,57.0,3.0,239.0,3182.79
3182800.0,213.0,55.0,3.0,249.0,3182.8
3182810.0,216.0,59.0,3.0,252.0,3182.81
3182820.0,214.0,60.0,4.0,248.0,3182.82
3182830.0,214.0,58.0,4.0,245.0,3182.83
3182840.0,206.0,61.0,4.0,237.0,3182.84
3182850.0,211.0,60.0,4.0,244.0,3182.85
3182860.0,217.0,60.0,3.0,246.0,3182.86
3182870.0,215.0,66.0,4.0,242.0,3182.87
3182880.0,214.0,65.0,4.0,241.0,3182.88
3182891.0,208.0,72.0,4.0,234.0,3182.891
3182901.0,215.0,70.0,4.0,246.0,3182.901
3182911.0,219.0,73.0,4.0,245.0,3182.911
3182921.0,211.0,78.0,3.0,237.0,3182.921
3182931.0,213.0,72.0,4.0,239.0,3182.931
3182941.0,208.0,75.0,3.0,238.0,3182.941
3182951.0,218.0,76.0,4.0,250.0,3182.951
3182961.0,220.0,77.0,4.0,247.0,3182.961
3182971.0,212.0,81.0,3.0,241.0,3182.971
3182981.0,215.0,77.0,3.0,246.0,3182.981
3182991.0,209.0,78.0,3.0,243.0,3182.991
3183001.0,218.0,78.0,3.0,251.0,3183.001
3183011.0,219.0,78.0,4.0,249.0,3183.011
3183021.0,215.0,81.0,5.0,247.0,3183.021
3183031.0,214.0,78.0,2.0,248.0,3183.031
3183041.0,211.0,78.0,3.0,247.0,3183.041
3183051.0,218.0,78.0,3.0,254.0,3183.051
3183062.0,220.0,77.0,3.0,253.0,3183.062
3183072.0,211.0,78.0,4.0,243.0,3183.072
3183082.0,215.0,74.0,5.0,247.0,3183.082
3183092.0,221.0,75.0,4.0,252.0,3183.092
3183102.0,220.0,76.0,3.0,253.0,3183.102
3183112.0,222.0,73.0,3.0,254.0,3183.112
3183122.0,214.0,69.0,3.0,243.0,3183.122
3183132.0,215.0,68.0,3.0,247.0,3183.132
3183142.0,220.0,65.0,4.0,253.0,3183.142
3183152.0,220.0,64.0,4.0,250.0,3183.152
3183162.0,219.0,62.0,3.0,246.0,3183.162
3183172.0,212.0,60.0,3.0,238.0,3183.172
3183182.0,215.0,60.0,3.0,243.0,3183.182
3183192.0,216.0,58.0,4.0,246.0,3183.192
3183202.0,220.0,58.0,4.0,249.0,3183.202
3183212.0,221.0,57.0,5.0,246.0,3183.212
3183222.0,211.0,57.0,4.0,237.0,3183.222
3183232.0,215.0,56.0,3.0,242.0,3183.232
3183242.0,217.0,57.0,3.0,246.0,3183.242
3183252.0,218.0,56.0,3.0,246.0,3183.252
3183262.0,217.0,55.0,3.0,245.0,3183.262
3183272.0,211.0,55.0,5.0,233.0,3183.272
3183282.0,214.0,55.0,4.0,238.0,3183.282
3183292.0,216.0,54.0,3.0,244.0,3183.292
3183302.0,221.0,53.0,4.0,248.0,3183.302
3183312.0,221.0,52.0,3.0,246.0,3183.312
3183322.0,214.0,50.0,4.0,238.0,3183.322
3183332.0,216.0,50.0,3.0,242.0,3183.332
3183342.0,221.0,49.0,4.0,249.0,3183.342
3183352.0,219.0,49.0,3.0,245.0,3183.352
3183362.0,220.0,47.0,4.0,246.0,3183.362
3183372.0,213.0,48.0,3.0,240.0,3183.372
3183382.0,216.0,46.0,3.0,242.0,3183.382
3183392.0,221.0,47.0,4.0,251.0,3183.392
3183403.0,220.0,46.0,5.0,248.0,3183.403
3183413.0,215.0,46.0,4.0,246.0,3183.413
3183423.0,206.0,46.0,4.0,237.0,3183.423
3183433.0,214.0,47.0,3.0,246.0,3183.433
3183443.0,218.0,45.0,4.0,247.0,3183.443
3183453.0,215.0,45.0,4.0,245.0,3183.453
3183463.0,215.0,45.0,4.0,245.0,3183.463
3183473.0,209.0,44.0,3.0,235.0,3183.473
3183483.0,215.0,44.0,3.0,244.0,3183.483
3183493.0,219.0,43.0,4.0,247.0,3183.493
3183503.0,216.0,43.0,3.0,241.0,3183.503
3183513.0,215.0,42.0,4.0,241.0,3183.513
3183523.0,212.0,41.0,4.0,236.0,3183.523
3183533.0,218.0,41.0,4.0,243.0,3183.533
3183543.0,222.0,40.0,2.0,246.0,3183.543
3183553.0,218.0,39.0,4.0,241.0,3183.553
3183563.0,217.0,40.0,3.0,242.0,3183.563
3183574.0,212.0,37.0,4.0,239.0,3183.574
3183584.0,220.0,37.0,4.0,248.0,3183.584
3183594.0,222.0,36.0,5.0,248.0,3183.594
3183604.0,213.0,35.0,4.0,238.0,3183.604
3183614.0,214.0,35.0,3.0,240.0,3183.614
3183624.0,212.0,35.0,4.0,240.0,3183.624
3183634.0,219.0,35.0,3.0,243.0,3183.634
3183644.0,220.0,33.0,4.0,242.0,3183.644
3183654.0,212.0,34.0,4.0,235.0,3183.654
3183664.0,216.0,33.0,4.0,238.0,3183.664
3183674.0,214.0,33.0,4.0,240.0,3183.674
3183684.0,219.0,33.0,3.0,245.0,3183.684
3183694.0,219.0,33.0,3.0,245.0,3183.694
3183704.0,213.0,32.0,3.0,239.0,3183.704
3183714.0,214.0,32.0,3.0,239.0,3183.714
3183724.0,214.0,32.0,4.0,243.0,3183.724
3183734.0,221.0,32.0,3.0,247.0,3183.734
3183744.0,222.0,32.0,4.0,248.0,3183.744
3183754.0,214.0,33.0,3.0,239.0,3183.754
3183764.0,216.0,33.0,3.0,242.0,3183.764
3183774.0,217.0,33.0,3.0,244.0,3183.774
3183784.0,220.0,32.0,4.0,246.0,3183.784
3183794.0,221.0,32.0,4.0,245.0,3183.794
3183804.0,213.0,33.0,3.0,241.0,3183.804
3183814.0,215.0,32.0,4.0,244.0,3183.814
3183824.0,217.0,33.0,3.0,248.0,3183.824
3183834.0,219.0,32.0,4.0,247.0,3183.834
3183844.0,221.0,32.0,4.0,244.0,3183.844
3183854.0,213.0,32.0,4.0,236.0,3183.854
3183864.0,213.0,31.0,4.0,239.0,3183.864
3183874.0,214.0,31.0,4.0,241.0,3183.874
3183884.0,219.0,32.0,3.0,250.0,3183.884
3183894.0,219.0,30.0,4.0,246.0,3183.894
3183904.0,213.0,31.0,5.0,242.0,3183.904
3183915.0,215.0,31.0,4.0,246.0,3183.915
3183925.0,220.0,31.0,3.0,254.0,3183.925
3183935.0,218.0,31.0,3.0,250.0,3183.935
3183945.0,217.0,31.0,3.0,250.0,3183.945
3183955.0,212.0,30.0,3.0,242.0,3183.955
3183965.0,217.0,30.0,4.0,247.0,3183.965
3183975.0,223.0,29.0,4.0,252.0,3183.975
3183985.0,221.0,29.0,4.0,250.0,3183.985
3183995.0,218.0,29.0,3.0,249.0,3183.995
3184005.0,212.0,29.0,3.0,241.0,3184.005
3184015.0,214.0,30.0,3.0,247.0,3184.015
3184025.0,220.0,30.0,3.0,250.0,3184.025
3184035.0,217.0,33.0,4.0,244.0,3184.035
3184045.0,218.0,34.0,5.0,244.0,3184.045
3184055.0,210.0,34.0,4.0,237.0,3184.055
3184065.0,216.0,33.0,3.0,243.0,3184.065
3184075.0,223.0,33.0,3.0,250.0,3184.075
3184086.0,219.0,32.0,4.0,245.0,3184.086
3184096.0,217.0,32.0,4.0,243.0,3184.096
3184106.0,212.0,32.0,4.0,240.0,3184.106
3184116.0,220.0,31.0,3.0,248.0,3184.116
3184126.0,221.0,31.0,4.0,247.0,3184.126
3184136.0,216.0,31.0,4.0,244.0,3184.136
3184146.0,216.0,31.0,3.0,243.0,3184.146
3184156.0,213.0,30.0,4.0,240.0,3184.156
3184166.0,220.0,29.0,4.0,245.0,3184.166
3184176.0,222.0,30.0,3.0,246.0,3184.176
3184186.0,216.0,29.0,4.0,242.0,3184.186
3184196.0,216.0,29.0,4.0,239.0,3184.196
3184206.0,213.0,30.0,3.0,238.0,3184.206
3184216.0,217.0,28.0,4.0,244.0,3184.216
3184226.0,221.0,28.0,3.0,247.0,3184.226
3184236.0,217.0,29.0,4.0,242.0,3184.236
3184246.0,216.0,28.0,4.0,244.0,3184.246
3184256.0,210.0,28.0,4.0,241.0,3184.256
3184266.0,218.0,28.0,4.0,253.0,3184.266
3184276.0,221.0,28.0,3.0,252.0,3184.276
3184286.0,215.0,28.0,4.0,244.0,3184.286
3184296.0,215.0,28.0,4.0,246.0,3184.296
3184306.0,211.0,27.0,4.0,241.0,3184.306
3184316.0,220.0,28.0,4.0,252.0,3184.316
3184326.0,221.0,27.0,4.0,249.0,3184.326
3184336.0,213.0,29.0,3.0,243.0,3184.336
3184346.0,215.0,28.0,4.0,244.0,3184.346
3184356.0,209.0,27.0,3.0,241.0,3184.356
3184366.0,219.0,27.0,5.0,251.0,3184.366
3184376.0,220.0,27.0,4.0,249.0,3184.376
3184386.0,215.0,28.0,3.0,245.0,3184.386
3184396.0,215.0,28.0,3.0,246.0,3184.396
3184406.0,211.0,27.0,4.0,240.0,3184.406
3184416.0,219.0,27.0,4.0,246.0,3184.416
3184427.0,217.0,28.0,4.0,244.0,3184.427
3184437.0,214.0,27.0,4.0,240.0,3184.437
3184447.0,215.0,27.0,3.0,243.0,3184.447
3184457.0,218.0,27.0,4.0,250.0,3184.457
3184467.0,219.0,28.0,3.0,251.0,3184.467
3184477.0,220.0,26.0,3.0,248.0,3184.477
3184487.0,212.0,27.0,4.0,240.0,3184.487
3184497.0,215.0,27.0,4.0,241.0,3184.497
