time (ms),signal 0,signal 1,signal 2,signal 3,time (sec)
3202953.0,227.0,88.0,3.0,262.0,3202.953
3202963.0,224.0,91.0,3.0,258.0,3202.963
3202973.0,221.0,87.0,5.0,256.0,3202.973
3202983.0,214.0,85.0,4.0,247.0,3202.983
3202993.0,221.0,84.0,4.0,255.0,3202.993
3203003.0,224.0,84.0,3.0,262.0,3203.003
3203013.0,220.0,80.0,4.0,253.0,3203.013
3203023.0,220.0,78.0,4.0,250.0,3203.023
3203033.0,215.0,76.0,3.0,244.0,3203.033
3203043.0,222.0,75.0,4.0,253.0,3203.043
3203053.0,224.0,76.0,4.0,253.0,3203.053
3203063.0,218.0,77.0,3.0,243.0,3203.063
3203073.0,219.0,75.0,4.0,245.0,3203.073
3203083.0,214.0,78.0,4.0,242.0,3203.083
3203093.0,222.0,77.0,4.0,252.0,3203.093
3203103.0,227.0,79.0,4.0,254.0,3203.103
3203113.0,221.0,82.0,4.0,250.0,3203.113
3203123.0,223.0,79.0,4.0,251.0,3203.123
3203133.0,217.0,80.0,3.0,247.0,3203.133
3203143.0,225.0,78.0,4.0,256.0,3203.143
3203153.0,229.0,80.0,3.0,257.0,3203.153
3203163.0,225.0,84.0,4.0,248.0,3203.163
3203173.0,224.0,81.0,4.0,248.0,3203.173
3203183.0,218.0,84.0,4.0,244.0,3203.183
3203193.0,226.0,84.0,3.0,255.0,3203.193
3203203.0,228.0,84.0,4.0,257.0,3203.203
3203213.0,224.0,84.0,3.0,252.0,3203.213
3203223.0,223.0,80.0,4.0,252.0,3203.223
3203233.0,221.0,80.0,4.0,248.0,3203.233
3203243.0,225.0,79.0,4.0,251.0,3203.243
3203253.0,228.0,78.0,3.0,259.0,3203.253
3203263.0,224.0,79.0,3.0,254.0,3203.263
3203273.0,224.0,75.0,4.0,256.0,3203.273
3203283.0,221.0,77.0,3.0,254.0,3203.283
3203293.0,225.0,75.0,3.0,256.0,3203.293
3203303.0,228.0,75.0,4.0,255.0,3203.303
3203313.0,222.0,73.0,3.0,246.0,3203.313
3203323.0,223.0,73.0,3.0,248.0,3203.323
3203333.0,217.0,70.0,4.0,245.0,3203.333
3203343.0,226.0,70.0,3.0,256.0,3203.343
3203353.0,229.0,70.0,4.0,256.0,3203.353
3203363.0,224.0,71.0,4.0,251.0,3203.363
3203373.0,224.0,70.0,4.0,252.0,3203.373
3203383.0,218.0,71.0,4.0,246.0,3203.383
3203393.0,226.0,72.0,3.0,256.0,3203.393
3203403.0,228.0,70.0,4.0,257.0,3203.403
3203414.0,221.0,70.0,3.0,250.0,3203.414
3203424.0,223.0,69.0,4.0,251.0,3203.424
3203434.0,224.0,67.0,4.0,257.0,3203.434
3203444.0,228.0,67.0,4.0,259.0,3203.444
3203454.0,226.0,66.0,3.0,257.0,3203.454
3203464.0,223.0,66.0,4.0,254.0,3203.464
3203474.0,224.0,65.0,3.0,258.0,3203.474
3203484.0,228.0,62.0,4.0,259.0,3203.484
3203494.0,228.0,62.0,4.0,259.0,3203.494
3203504.0,229.0,60.0,5.0,259.0,3203.504
3203514.0,222.0,63.0,3.0,252.0,3203.514
3203524.0,223.0,62.0,3.0,254.0,3203.524
3203534.0,228.0,63.0,4.0,259.0,3203.534
3203544.0,229.0,62.0,3.0,260.0,3203.544
3203554.0,229.0,63.0,4.0,257.0,3203.554
3203564.0,222.0,65.0,3.0,253.0,3203.564
3203574.0,224.0,63.0,4.0,256.0,3203.574
3203584.0,224.0,61.0,4.0,260.0,3203.584
3203594.0,229.0,60.0,3.0,264.0,3203.594
3203604.0,228.0,61.0,3.0,264.0,3203.604
3203614.0,223.0,59.0,4.0,257.0,3203.614
3203624.0,224.0,59.0,2.0,261.0,3203.624
3203634.0,226.0,56.0,5.0,261.0,3203.634
3203644.0,228.0,57.0,3.0,260.0,3203.644
3203654.0,227.0,54.0,3.0,257.0,3203.654
3203664.0,220.0,52.0,4.0,249.0,3203.664
3203674.0,224.0,52.0,3.0,256.0,3203.674
3203684.0,227.0,51.0,4.0,263.0,3203.684
3203694.0,228.0,50.0,3.0,262.0,3203.694
3203704.0,227.0,49.0,4.0,259.0,3203.704
3203714.0,222.0,48.0,3.0,253.0,3203.714
3203724.0,223.0,48.0,4.0,253.0,3203.724
3203734.0,226.0,47.0,4.0,257.0,3203.734
3203744.0,228.0,48.0,5.0,261.0,3203.744
3203755.0,225.0,49.0,4.0,262.0,3203.755
3203765.0,217.0,55.0,3.0,252.0,3203.765
3203775.0,224.0,54.0,3.0,261.0,3203.775
3203785.0,229.0,58.0,3.0,264.0,3203.785
3203795.0,224.0,64.0,4.0,259.0,3203.795
3203805.0,226.0,62.0,4.0,258.0,3203.805
3203815.0,219.0,68.0,3.0,250.0,3203.815
3203825.0,227.0,65.0,3.0,261.0,3203.825
3203835.0,232.0,70.0,3.0,264.0,3203.835
3203845.0,230.0,78.0,4.0,260.0,3203.845
3203855.0,229.0,75.0,3.0,260.0,3203.855
3203865.0,220.0,79.0,4.0,253.0,3203.865
3203875.0,228.0,75.0,4.0,261.0,3203.875
3203885.0,230.0,81.0,4.0,263.0,3203.885
3203895.0,227.0,85.0,4.0,261.0,3203.895
3203905.0,226.0,83.0,3.0,259.0,3203.905
3203915.0,219.0,86.0,4.0,252.0,3203.915
3203926.0,228.0,83.0,3.0,259.0,3203.926
3203936.0,232.0,83.0,4.0,264.0,3203.936
3203946.0,226.0,88.0,4.0,254.0,3203.946
3203956.0,227.0,84.0,3.0,256.0,3203.956
3203966.0,227.0,83.0,3.0,257.0,3203.966
3203976.0,228.0,80.0,4.0,257.0,3203.976
3203986.0,231.0,80.0,4.0,262.0,3203.986
3203996.0,224.0,79.0,4.0,255.0,3203.996
3204006.0,226.0,75.0,3.0,258.0,3204.006
3204016.0,221.0,75.0,4.0,252.0,3204.016
3204026.0,229.0,73.0,4.0,261.0,3204.026
3204036.0,230.0,75.0,3.0,262.0,3204.036
3204046.0,222.0,76.0,4.0,255.0,3204.046
3204056.0,224.0,75.0,3.0,248.0,3204.056
3204066.0,224.0,79.0,5.0,249.0,3204.066
3204076.0,233.0,77.0,4.0,260.0,3204.076
3204086.0,237.0,77.0,4.0,257.0,3204.086
3204096.0,232.0,74.0,4.0,249.0,3204.096
3204106.0,232.0,71.0,4.0,251.0,3204.106
3204116.0,236.0,74.0,4.0,258.0,3204.116
3204126.0,241.0,73.0,4.0,266.0,3204.126
3204136.0,228.0,70.0,3.0,260.0,3204.136
3204146.0,217.0,73.0,4.0,253.0,3204.146
3204156.0,217.0,71.0,3.0,255.0,3204.156
3204166.0,222.0,81.0,3.0,266.0,3204.166
3204176.0,225.0,78.0,4.0,269.0,3204.176
3204186.0,219.0,77.0,3.0,272.0,3204.186
3204196.0,217.0,85.0,3.0,267.0,3204.196
3204206.0,216.0,81.0,4.0,269.0,3204.206
3204216.0,220.0,92.0,4.0,269.0,3204.216
3204226.0,229.0,96.0,4.0,271.0,3204.226
3204236.0,241.0,97.0,4.0,269.0,3204.236
3204246.0,245.0,115.0,4.0,274.0,3204.246
3204256.0,239.0,111.0,4.0,278.0,3204.256
3204267.0,239.0,104.0,4.0,284.0,3204.267
3204277.0,245.0,120.0,3.0,284.0,3204.277
3204287.0,249.0,113.0,4.0,284.0,3204.287
3204297.0,238.0,109.0,3.0,270.0,3204.297
3204307.0,245.0,105.0,3.0,284.0,3204.307
3204317.0,249.0,101.0,4.0,284.0,3204.317
3204327.0,249.0,95.0,3.0,276.0,3204.327
3204337.0,242.0,90.0,3.0,268.0,3204.337
3204347.0,232.0,89.0,4.0,267.0,3204.347
3204357.0,235.0,86.0,4.0,269.0,3204.357
3204367.0,241.0,82.0,4.0,274.0,3204.367
3204377.0,242.0,83.0,4.0,276.0,3204.377
3204387.0,236.0,80.0,5.0,273.0,3204.387
3204397.0,233.0,90.0,4.0,271.0,3204.397
3204407.0,233.0,88.0,3.0,271.0,3204.407
3204417.0,240.0,83.0,3.0,279.0,3204.417
3204427.0,241.0,87.0,4.0,271.0,3204.427
3204438.0,241.0,83.0,3.0,274.0,3204.438
3204448.0,234.0,80.0,4.0,263.0,3204.448
3204458.0,245.0,81.0,4.0,278.0,3204.458
3204468.0,245.0,91.0,3.0,271.0,3204.468
3204478.0,238.0,89.0,4.0,253.0,3204.478
3204488.0,240.0,85.0,4.0,252.0,3204.488
3204498.0,235.0,80.0,3.0,253.0,3204.498
3204508.0,240.0,79.0,4.0,256.0,3204.508
3204518.0,239.0,80.0,4.0,249.0,3204.518
3204528.0,233.0,87.0,4.0,245.0,3204.528
3204538.0,233.0,83.0,4.0,249.0,3204.538
3204548.0,229.0,81.0,3.0,257.0,3204.548
3204558.0,243.0,90.0,4.0,279.0,3204.558
3204568.0,251.0,96.0,3.0,289.0,3204.568
3204578.0,244.0,93.0,4.0,285.0,3204.578
3204588.0,244.0,90.0,4.0,287.0,3204.588
3204598.0,238.0,87.0,3.0,277.0,3204.598
3204608.0,245.0,86.0,3.0,273.0,3204.608
3204618.0,255.0,82.0,3.0,278.0,3204.618
3204628.0,250.0,80.0,5.0,271.0,3204.628
3204638.0,245.0,77.0,4.0,265.0,3204.638
3204648.0,244.0,75.0,4.0,268.0,3204.648
3204658.0,249.0,74.0,4.0,281.0,3204.658
3204668.0,254.0,72.0,4.0,277.0,3204.668
3204678.0,245.0,72.0,3.0,273.0,3204.678
3204688.0,246.0,70.0,4.0,268.0,3204.688
3204698.0,237.0,69.0,3.0,268.0,3204.698
3204708.0,247.0,67.0,5.0,276.0,3204.708
3204718.0,244.0,65.0,4.0,268.0,3204.718
3204728.0,237.0,64.0,3.0,259.0,3204.728
3204738.0,239.0,62.0,2.0,269.0,3204.738
3204748.0,235.0,60.0,3.0,266.0,3204.748
3204758.0,247.0,59.0,4.0,271.0,3204.758
3204768.0,246.0,57.0,5.0,285.0,3204.768
3204779.0,241.0,56.0,4.0,270.0,3204.779
3204789.0,243.0,56.0,3.0,275.0,3204.789
3204799.0,242.0,55.0,4.0,276.0,3204.799
3204809.0,250.0,56.0,3.0,288.0,3204.809
3204819.0,247.0,54.0,3.0,283.0,3204.819
3204829.0,239.0,54.0,3.0,269.0,3204.829
3204839.0,243.0,51.0,4.0,275.0,3204.839
3204849.0,247.0,50.0,4.0,285.0,3204.849
3204859.0,248.0,49.0,3.0,283.0,3204.859
3204869.0,252.0,48.0,4.0,279.0,3204.869
3204879.0,242.0,48.0,4.0,261.0,3204.879
3204889.0,244.0,48.0,3.0,265.0,3204.889
3204899.0,249.0,47.0,5.0,278.0,3204.899
3204909.0,249.0,47.0,3.0,274.0,3204.909
3204919.0,244.0,47.0,4.0,266.0,3204.919
3204929.0,236.0,47.0,4.0,259.0,3204.929
3204939.0,239.0,46.0,3.0,262.0,3204.939
3204950.0,245.0,45.0,4.0,272.0,3204.95
3204960.0,245.0,45.0,4.0,274.0,3204.96
3204970.0,246.0,45.0,3.0,272.0,3204.97
3204980.0,238.0,44.0,4.0,277.0,3204.98
3204990.0,249.0,43.0,4.0,275.0,3204.99
3205000.0,251.0,42.0,4.0,284.0,3205.0
3205010.0,250.0,42.0,4.0,292.0,3205.01
3205020.0,250.0,42.0,3.0,298.0,3205.02
3205030.0,238.0,40.0,5.0,280.0,3205.03
3205040.0,237.0,41.0,3.0,282.0,3205.04
3205050.0,244.0,39.0,4.0,296.0,3205.05
3205060.0,243.0,39.0,3.0,303.0,3205.06
3205070.0,247.0,38.0,3.0,302.0,3205.07
3205080.0,238.0,44.0,3.0,294.0,3205.08
3205090.0,239.0,42.0,4.0,276.0,3205.09
3205100.0,244.0,49.0,4.0,273.0,3205.1
3205110.0,240.0,59.0,3.0,265.0,3205.11
3205120.0,244.0,56.0,4.0,256.0,3205.12
3205130.0,230.0,59.0,3.0,244.0,3205.13
3205140.0,241.0,56.0,4.0,264.0,3205.14
3205150.0,244.0,58.0,4.0,256.0,3205.15
3205160.0,239.0,66.0,5.0,262.0,3205.16
3205170.0,242.0,63.0,4.0,278.0,3205.17
3205180.0,233.0,64.0,4.0,264.0,3205.18
3205190.0,240.0,62.0,3.0,285.0,3205.19
3205200.0,247.0,62.0,4.0,302.0,3205.2
3205210.0,241.0,62.0,3.0,299.0,3205.21
3205220.0,244.0,58.0,5.0,298.0,3205.22
3205230.0,231.0,62.0,3.0,281.0,3205.23
3205240.0,240.0,59.0,3.0,291.0,3205.24
3205250.0,244.0,56.0,3.0,293.0,3205.25
3205260.0,239.0,57.0,3.0,285.0,3205.26
3205270.0,239.0,55.0,4.0,282.0,3205.27
3205280.0,233.0,62.0,4.0,273.0,3205.28
3205291.0,243.0,59.0,4.0,282.0,3205.291
3205301.0,246.0,63.0,2.0,280.0,3205.301
3205311.0,238.0,72.0,4.0,269.0,3205.311
3205321.0,238.0,71.0,3.0,275.0,3205.321
3205331.0,236.0,75.0,4.0,273.0,3205.331
3205341.0,238.0,76.0,3.0,280.0,3205.341
3205351.0,244.0,78.0,4.0,282.0,3205.351
3205361.0,235.0,86.0,3.0,268.0,3205.361
3205371.0,238.0,81.0,4.0,267.0,3205.371
3205381.0,236.0,84.0,4.0,264.0,3205.381
3205391.0,235.0,84.0,4.0,270.0,3205.391
3205401.0,238.0,83.0,4.0,271.0,3205.401
3205411.0,228.0,87.0,5.0,259.0,3205.411
3205421.0,233.0,83.0,3.0,267.0,3205.421
3205431.0,230.0,92.0,3.0,269.0,3205.431
3205441.0,240.0,91.0,4.0,275.0,3205.441
3205451.0,244.0,90.0,3.0,276.0,3205.451
3205462.0,234.0,98.0,4.0,266.0,3205.462
3205472.0,238.0,93.0,4.0,266.0,3205.472
3205482.0,245.0,99.0,5.0,273.0,3205.482
3205492.0,245.0,109.0,4.0,274.0,3205.492
3205502.0,244.0,104.0,3.0,274.0,3205.502
3205512.0,239.0,111.0,3.0,265.0,3205.512
3205522.0,243.0,103.0,4.0,265.0,3205.522
3205532.0,248.0,108.0,3.0,273.0,3205.532
3205542.0,249.0,114.0,5.0,273.0,3205.542
3205552.0,250.0,107.0,4.0,273.0,3205.552
3205562.0,237.0,111.0,3.0,255.0,3205.562
3205572.0,237.0,105.0,3.0,255.0,3205.572
3205582.0,242.0,114.0,3.0,262.0,3205.582
3205592.0,240.0,124.0,4.0,266.0,3205.592
3205602.0,241.0,119.0,4.0,259.0,3205.602
3205612.0,229.0,128.0,4.0,245.0,3205.612
3205622.0,235.0,122.0,4.0,252.0,3205.622
3205632.0,241.0,131.0,4.0,269.0,3205.632
3205642.0,243.0,134.0,3.0,269.0,3205.642
3205652.0,244.0,125.0,4.0,268.0,3205.652
3205662.0,235.0,131.0,3.0,256.0,3205.662
3205672.0,241.0,123.0,5.0,256.0,3205.672
3205682.0,241.0,125.0,4.0,253.0,3205.682
3205692.0,235.0,129.0,5.0,261.0,3205.692
3205702.0,236.0,123.0,3.0,264.0,3205.702
3205712.0,231.0,128.0,4.0,261.0,3205.712
3205722.0,237.0,124.0,3.0,265.0,3205.722
3205732.0,241.0,119.0,4.0,266.0,3205.732
3205742.0,241.0,123.0,4.0,270.0,3205.742
3205752.0,242.0,117.0,3.0,280.0,3205.752
3205762.0,234.0,121.0,3.0,273.0,3205.762
3205772.0,239.0,117.0,3.0,275.0,3205.772
3205782.0,246.0,117.0,3.0,279.0,3205.782
3205792.0,241.0,125.0,4.0,278.0,3205.792
3205803.0,239.0,120.0,5.0,281.0,3205.803
3205813.0,226.0,127.0,4.0,265.0,3205.813
3205823.0,234.0,128.0,4.0,274.0,3205.823
3205833.0,237.0,129.0,3.0,272.0,3205.833
3205843.0,227.0,136.0,4.0,256.0,3205.843
3205853.0,233.0,131.0,3.0,260.0,3205.853
3205863.0,222.0,140.0,5.0,254.0,3205.863
3205873.0,231.0,141.0,4.0,263.0,3205.873
3205883.0,236.0,140.0,3.0,261.0,3205.883
3205893.0,233.0,149.0,3.0,256.0,3205.893
3205903.0,237.0,140.0,3.0,257.0,3205.903
3205913.0,229.0,145.0,4.0,258.0,3205.913
3205923.0,238.0,149.0,4.0,265.0,3205.923
3205933.0,242.0,146.0,4.0,267.0,3205.933
3205943.0,234.0,148.0,4.0,262.0,3205.943
3205953.0,236.0,140.0,4.0,264.0,3205.953
3205963.0,229.0,139.0,3.0,259.0,3205.963
3205974.0,236.0,142.0,4.0,268.0,3205.974
3205984.0,240.0,139.0,3.0,267.0,3205.984
3205994.0,231.0,144.0,4.0,260.0,3205.994
3206004.0,234.0,138.0,2.0,260.0,3206.004
3206014.0,236.0,140.0,3.0,265.0,3206.014
3206024.0,237.0,146.0,4.0,270.0,3206.024
3206034.0,240.0,141.0,4.0,266.0,3206.034
3206044.0,229.0,144.0,3.0,256.0,3206.044
3206054.0,232.0,138.0,4.0,257.0,3206.054
3206064.0,236.0,141.0,4.0,274.0,3206.064
3206074.0,241.0,144.0,3.0,278.0,3206.074
3206084.0,242.0,138.0,4.0,276.0,3206.084
3206094.0,231.0,143.0,3.0,266.0,3206.094
3206104.0,235.0,138.0,4.0,268.0,3206.104
3206114.0,235.0,148.0,4.0,266.0,3206.114
3206124.0,243.0,152.0,4.0,269.0,3206.124
3206134.0,245.0,144.0,2.0,268.0,3206.134
3206144.0,237.0,147.0,4.0,265.0,3206.144
3206154.0,240.0,142.0,3.0,268.0,3206.154
3206164.0,239.0,141.0,4.0,267.0,3206.164
3206174.0,244.0,147.0,3.0,279.0,3206.174
3206184.0,245.0,139.0,4.0,277.0,3206.184
3206194.0,238.0,144.0,4.0,270.0,3206.194
3206204.0,240.0,138.0,4.0,270.0,3206.204
3206214.0,243.0,145.0,4.0,279.0,3206.214
3206224.0,245.0,155.0,3.0,279.0,3206.224
3206234.0,248.0,147.0,3.0,279.0,3206.234
3206244.0,235.0,148.0,4.0,271.0,3206.244
3206254.0,239.0,143.0,4.0,274.0,3206.254
3206264.0,244.0,146.0,4.0,282.0,3206.264
3206274.0,244.0,148.0,4.0,283.0,3206.274
3206284.0,244.0,144.0,3.0,279.0,3206.284
3206294.0,232.0,146.0,4.0,267.0,3206.294
3206304.0,237.0,142.0,3.0,274.0,3206.304
3206315.0,241.0,144.0,5.0,280.0,3206.315
3206325.0,240.0,152.0,2.0,275.0,3206.325
3206335.0,243.0,144.0,4.0,274.0,3206.335
3206345.0,234.0,151.0,3.0,271.0,3206.345
3206355.0,240.0,150.0,3.0,280.0,3206.355
3206365.0,241.0,151.0,3.0,282.0,3206.365
3206375.0,239.0,157.0,4.0,281.0,3206.375
3206385.0,238.0,150.0,4.0,280.0,3206.385
3206395.0,230.0,152.0,4.0,272.0,3206.395
3206405.0,235.0,148.0,3.0,277.0,3206.405
3206415.0,238.0,151.0,3.0,279.0,3206.415
3206425.0,232.0,156.0,4.0,271.0,3206.425
3206435.0,232.0,150.0,4.0,268.0,3206.435
3206445.0,229.0,157.0,4.0,259.0,3206.445
3206455.0,234.0,152.0,3.0,267.0,3206.455
3206465.0,240.0,153.0,4.0,270.0,3206.465
3206475.0,235.0,163.0,3.0,266.0,3206.475
3206486.0,237.0,156.0,4.0,266.0,3206.486
3206496.0,231.0,154.0,4.0,265.0,3206.496
3206506.0,237.0,156.0,4.0,276.0,3206.506
3206516.0,240.0,152.0,2.0,276.0,3206.516
3206526.0,230.0,154.0,3.0,265.0,3206.526
3206536.0,235.0,150.0,3.0,267.0,3206.536
3206546.0,231.0,149.0,3.0,261.0,3206.546
3206556.0,239.0,155.0,4.0,270.0,3206.556
3206566.0,242.0,150.0,4.0,270.0,3206.566
3206576.0,235.0,157.0,4.0,264.0,3206.576
3206586.0,236.0,150.0,4.0,264.0,3206.586
3206596.0,237.0,158.0,4.0,269.0,3206.596
3206606.0,243.0,166.0,4.0,276.0,3206.606
3206616.0,246.0,158.0,4.0,275.0,3206.616
3206626.0,238.0,164.0,4.0,266.0,3206.626
3206636.0,241.0,157.0,4.0,265.0,3206.636
3206646.0,238.0,162.0,4.0,263.0,3206.646
3206656.0,242.0,164.0,3.0,268.0,3206.656
3206666.0,245.0,159.0,4.0,271.0,3206.666
3206676.0,235.0,160.0,3.0,263.0,3206.676
3206686.0,234.0,155.0,3.0,265.0,3206.686
3206696.0,233.0,156.0,4.0,270.0,3206.696
3206706.0,238.0,160.0,3.0,274.0,3206.706
3206716.0,241.0,156.0,3.0,273.0,3206.716
3206726.0,231.0,158.0,4.0,266.0,3206.726
3206736.0,234.0,154.0,3.0,266.0,3206.736
3206746.0,229.0,158.0,4.0,265.0,3206.746
3206756.0,237.0,164.0,3.0,273.0,3206.756
3206766.0,241.0,158.0,4.0,270.0,3206.766
3206776.0,230.0,165.0,4.0,263.0,3206.776
3206786.0,235.0,160.0,4.0,266.0,3206.786
3206796.0,234.0,165.0,3.0,265.0,3206.796
3206806.0,241.0,170.0,4.0,270.0,3206.806
3206816.0,244.0,165.0,4.0,268.0,3206.816
3206827.0,233.0,169.0,4.0,260.0,3206.827
3206837.0,236.0,163.0,3.0,263.0,3206.837
3206847.0,242.0,169.0,4.0,276.0,3206.847
3206857.0,240.0,176.0,4.0,274.0,3206.857
3206867.0,240.0,167.0,3.0,270.0,3206.867
3206877.0,231.0,172.0,4.0,264.0,3206.877
3206887.0,233.0,166.0,4.0,266.0,3206.887
3206897.0,240.0,168.0,4.0,272.0,3206.897
3206907.0,236.0,175.0,3.0,272.0,3206.907
3206917.0,239.0,167.0,4.0,270.0,3206.917
3206927.0,228.0,169.0,3.0,263.0,3206.927
3206937.0,233.0,162.0,4.0,264.0,3206.937
3206947.0,240.0,167.0,4.0,277.0,3206.947
3206957.0,238.0,172.0,5.0,275.0,3206.957
3206967.0,238.0,163.0,4.0,269.0,3206.967
3206977.0,228.0,165.0,3.0,264.0,3206.977
3206987.0,234.0,163.0,3.0,273.0,3206.987
3206998.0,240.0,163.0,3.0,278.0,3206.998
3207008.0,237.0,171.0,4.0,278.0,3207.008
3207018.0,239.0,163.0,4.0,272.0,3207.018
3207028.0,231.0,165.0,3.0,270.0,3207.028
3207038.0,239.0,169.0,3.0,283.0,3207.038
3207048.0,245.0,165.0,4.0,291.0,3207.048
3207058.0,235.0,169.0,3.0,281.0,3207.058
3207068.0,237.0,162.0,3.0,273.0,3207.068
3207078.0,232.0,163.0,4.0,276.0,3207.078
3207088.0,238.0,163.0,4.0,285.0,3207.088
3207098.0,243.0,165.0,4.0,298.0,3207.098
3207108.0,231.0,168.0,4.0,288.0,3207.108
3207118.0,233.0,163.0,3.0,287.0,3207.118
3207128.0,223.0,161.0,4.0,274.0,3207.128
3207138.0,231.0,163.0,4.0,282.0,3207.138
3207148.0,237.0,162.0,5.0,286.0,3207.148
3207158.0,228.0,167.0,4.0,277.0,3207.158
3207168.0,231.0,162.0,3.0,277.0,3207.168
3207178.0,221.0,163.0,4.0,266.0,3207.178
3207188.0,225.0,166.0,3.0,273.0,3207.188
3207198.0,230.0,164.0,4.0,270.0,3207.198
3207208.0,221.0,171.0,4.0,262.0,3207.208
3207218.0,225.0,165.0,4.0,261.0,3207.218
3207228.0,215.0,166.0,3.0,253.0,3207.228
3207238.0,224.0,170.0,4.0,264.0,3207.238
3207248.0,228.0,169.0,3.0,264.0,3207.248
3207258.0,221.0,174.0,4.0,260.0,3207.258
3207268.0,223.0,167.0,3.0,257.0,3207.268
3207278.0,217.0,165.0,5.0,254.0,3207.278
3207288.0,225.0,168.0,3.0,263.0,3207.288
3207298.0,228.0,163.0,3.0,265.0,3207.298
3207308.0,221.0,169.0,3.0,261.0,3207.308
3207318.0,223.0,162.0,3.0,258.0,3207.318
3207328.0,218.0,164.0,4.0,254.0,3207.328
3207339.0,224.0,176.0,4.0,263.0,3207.339
3207349.0,226.0,174.0,4.0,259.0,3207.349
3207359.0,214.0,184.0,3.0,252.0,3207.359
3207369.0,218.0,176.0,4.0,253.0,3207.369
3207379.0,221.0,183.0,3.0,264.0,3207.379
3207389.0,222.0,192.0,4.0,267.0,3207.389
3207399.0,225.0,185.0,4.0,266.0,3207.399
3207409.0,215.0,190.0,4.0,257.0,3207.409
3207419.0,218.0,182.0,3.0,258.0,3207.419
3207429.0,217.0,184.0,4.0,260.0,3207.429
3207439.0,225.0,193.0,4.0,269.0,3207.439
3207449.0,227.0,183.0,4.0,262.0,3207.449
3207459.0,217.0,183.0,4.0,255.0,3207.459
3207469.0,221.0,180.0,4.0,259.0,3207.469
3207479.0,221.0,179.0,3.0,261.0,3207.479
3207489.0,224.0,187.0,4.0,264.0,3207.489
3207499.0,224.0,179.0,3.0,259.0,3207.499
3207510.0,214.0,180.0,3.0,256.0,3207.51
3207520.0,218.0,176.0,4.0,265.0,3207.52
3207530.0,223.0,178.0,4.0,269.0,3207.53
3207540.0,220.0,187.0,4.0,263.0,3207.54
3207550.0,220.0,181.0,2.0,263.0,3207.55
3207560.0,213.0,184.0,3.0,256.0,3207.56
3207570.0,218.0,180.0,4.0,258.0,3207.57
3207580.0,224.0,180.0,3.0,263.0,3207.58
3207590.0,220.0,188.0,3.0,260.0,3207.59
3207600.0,224.0,181.0,4.0,259.0,3207.6
3207610.0,214.0,180.0,4.0,250.0,3207.61
3207620.0,219.0,178.0,4.0,256.0,3207.62
3207630.0,225.0,179.0,3.0,263.0,3207.63
3207640.0,222.0,184.0,4.0,262.0,3207.64
3207650.0,222.0,177.0,3.0,261.0,3207.65
3207660.0,213.0,176.0,4.0,253.0,3207.66
3207670.0,219.0,177.0,4.0,263.0,3207.67
3207680.0,222.0,175.0,4.0,266.0,3207.68
3207690.0,221.0,185.0,4.0,263.0,3207.69
3207700.0,221.0,178.0,3.0,259.0,3207.7
3207710.0,214.0,181.0,3.0,255.0,3207.71
3207720.0,221.0,184.0,4.0,265.0,3207.72
3207730.0,226.0,182.0,4.0,269.0,3207.73
3207740.0,219.0,194.0,4.0,265.0,3207.74
3207750.0,220.0,185.0,4.0,260.0,3207.75
3207760.0,213.0,188.0,3.0,253.0,3207.76
3207770.0,218.0,186.0,4.0,259.0,3207.77
3207780.0,225.0,188.0,4.0,264.0,3207.78
3207790.0,220.0,194.0,4.0,261.0,3207.79
3207800.0,222.0,187.0,4.0,258.0,3207.8
3207810.0,214.0,188.0,3.0,254.0,3207.81
3207820.0,218.0,186.0,3.0,262.0,3207.82
3207830.0,225.0,186.0,3.0,265.0,3207.83
3207840.0,219.0,192.0,4.0,258.0,3207.84
3207851.0,221.0,186.0,4.0,258.0,3207.851
3207861.0,215.0,183.0,4.0,252.0,3207.861
3207871.0,224.0,190.0,4.0,260.0,3207.871
3207881.0,230.0,183.0,4.0,258.0,3207.881
3207891.0,221.0,188.0,3.0,253.0,3207.891
3207901.0,223.0,183.0,4.0,254.0,3207.901
3207911.0,217.0,183.0,4.0,254.0,3207.911
3207921.0,226.0,191.0,5.0,263.0,3207.921
3207931.0,226.0,184.0,4.0,261.0,3207.931
3207941.0,220.0,189.0,4.0,257.0,3207.941
3207951.0,222.0,183.0,4.0,258.0,3207.951
3207961.0,219.0,183.0,3.0,256.0,3207.961
3207971.0,226.0,188.0,4.0,263.0,3207.971
3207981.0,226.0,182.0,4.0,262.0,3207.981
3207991.0,218.0,184.0,4.0,255.0,3207.991
3208001.0,219.0,181.0,2.0,256.0,3208.001
3208011.0,219.0,179.0,4.0,258.0,3208.011
3208022.0,224.0,186.0,3.0,264.0,3208.022
3208032.0,226.0,177.0,3.0,259.0,3208.032
3208042.0,216.0,179.0,3.0,253.0,3208.042
3208052.0,221.0,176.0,4.0,253.0,3208.052
3208062.0,225.0,177.0,3.0,259.0,3208.062
3208072.0,224.0,183.0,3.0,254.0,3208.072
3208082.0,224.0,176.0,3.0,252.0,3208.082
3208092.0,219.0,177.0,4.0,247.0,3208.092
3208102.0,221.0,174.0,4.0,252.0,3208.102
3208112.0,224.0,177.0,4.0,253.0,3208.112
3208122.0,226.0,185.0,3.0,257.0,3208.122
3208132.0,224.0,178.0,3.0,251.0,3208.132
3208142.0,216.0,179.0,4.0,248.0,3208.142
3208152.0,221.0,177.0,3.0,253.0,3208.152
3208162.0,223.0,178.0,4.0,259.0,3208.162
3208172.0,224.0,185.0,3.0,262.0,3208.172
3208182.0,225.0,177.0,4.0,256.0,3208.182
3208192.0,220.0,177.0,4.0,254.0,3208.192
3208202.0,224.0,174.0,3.0,256.0,3208.202
3208212.0,226.0,174.0,4.0,262.0,3208.212
3208222.0,225.0,180.0,4.0,264.0,3208.222
3208232.0,225.0,173.0,4.0,263.0,3208.232
3208242.0,218.0,175.0,2.0,260.0,3208.242
3208252.0,221.0,171.0,4.0,261.0,3208.252
3208262.0,226.0,171.0,4.0,267.0,3208.262
3208272.0,224.0,181.0,4.0,270.0,3208.272
3208282.0,226.0,174.0,3.0,266.0,3208.282
3208292.0,216.0,176.0,4.0,258.0,3208.292
3208302.0,219.0,173.0,4.0,263.0,3208.302
3208312.0,226.0,173.0,4.0,272.0,3208.312
3208322.0,224.0,183.0,4.0,272.0,3208.322
3208332.0,225.0,175.0,4.0,265.0,3208.332
3208342.0,216.0,181.0,3.0,262.0,3208.342
3208352.0,220.0,178.0,4.0,266.0,3208.352
3208363.0,226.0,180.0,4.0,271.0,3208.363
3208373.0,222.0,189.0,4.0,268.0,3208.373
3208383.0,220.0,182.0,4.0,264.0,3208.383
3208393.0,212.0,186.0,4.0,259.0,3208.393
3208403.0,221.0,192.0,3.0,268.0,3208.403
3208413.0,224.0,186.0,3.0,268.0,3208.413
3208423.0,219.0,196.0,4.0,264.0,3208.423
3208433.0,222.0,188.0,5.0,262.0,3208.433
3208443.0,214.0,188.0,4.0,257.0,3208.443
3208453.0,220.0,189.0,3.0,264.0,3208.453
3208463.0,226.0,186.0,4.0,268.0,3208.463
3208473.0,222.0,193.0,3.0,263.0,3208.473
3208483.0,226.0,186.0,4.0,262.0,3208.483
3208493.0,218.0,185.0,3.0,258.0,3208.493
3208503.0,225.0,187.0,3.0,263.0,3208.503
3208513.0,229.0,184.0,3.0,265.0,3208.513
3208523.0,222.0,188.0,4.0,261.0,3208.523
3208534.0,223.0,185.0,3.0,262.0,3208.534
3208544.0,221.0,182.0,3.0,262.0,3208.544
3208554.0,229.0,189.0,3.0,270.0,3208.554
3208564.0,234.0,182.0,5.0,264.0,3208.564
3208574.0,221.0,181.0,2.0,257.0,3208.574
3208584.0,226.0,179.0,4.0,257.0,3208.584
3208594.0,222.0,176.0,4.0,260.0,3208.594
3208604.0,227.0,184.0,4.0,266.0,3208.604
3208614.0,228.0,176.0,4.0,260.0,3208.614
3208624.0,221.0,179.0,4.0,257.0,3208.624
3208634.0,224.0,176.0,4.0,260.0,3208.634
3208644.0,222.0,175.0,2.0,261.0,3208.644
3208654.0,226.0,183.0,4.0,268.0,3208.654
3208664.0,228.0,177.0,3.0,266.0,3208.664
3208674.0,218.0,178.0,4.0,257.0,3208.674
3208684.0,221.0,175.0,4.0,258.0,3208.684
3208694.0,223.0,175.0,5.0,262.0,3208.694
3208704.0,225.0,181.0,2.0,266.0,3208.704
3208714.0,229.0,175.0,4.0,265.0,3208.714
3208724.0,219.0,176.0,3.0,259.0,3208.724
3208734.0,222.0,173.0,3.0,260.0,3208.734
3208744.0,225.0,172.0,3.0,266.0,3208.744
3208754.0,227.0,179.0,4.0,271.0,3208.754
3208764.0,233.0,173.0,4.0,267.0,3208.764
3208774.0,220.0,173.0,3.0,257.0,3208.774
3208784.0,224.0,171.0,3.0,260.0,3208.784
3208794.0,222.0,170.0,3.0,260.0,3208.794
3208804.0,227.0,176.0,4.0,265.0,3208.804
3208814.0,228.0,170.0,3.0,261.0,3208.814
3208824.0,219.0,170.0,5.0,256.0,3208.824
3208834.0,224.0,170.0,4.0,257.0,3208.834
3208844.0,223.0,167.0,4.0,261.0,3208.844
3208854.0,226.0,174.0,3.0,267.0,3208.854
3208864.0,226.0,166.0,4.0,262.0,3208.864
3208875.0,214.0,166.0,4.0,257.0,3208.875
3208885.0,219.0,163.0,4.0,259.0,3208.885
3208895.0,226.0,166.0,4.0,265.0,3208.895
3208905.0,221.0,171.0,4.0,264.0,3208.905
3208915.0,223.0,165.0,4.0,263.0,3208.915
3208925.0,216.0,166.0,3.0,257.0,3208.925
3208935.0,220.0,164.0,4.0,262.0,3208.935
3208945.0,228.0,165.0,4.0,269.0,3208.945
3208955.0,224.0,170.0,4.0,264.0,3208.955
3208965.0,225.0,165.0,4.0,264.0,3208.965
3208975.0,218.0,164.0,4.0,258.0,3208.975
3208985.0,224.0,163.0,2.0,267.0,3208.985
3208995.0,231.0,164.0,4.0,272.0,3208.995
3209005.0,226.0,171.0,4.0,268.0,3209.005
3209015.0,227.0,165.0,5.0,262.0,3209.015
3209025.0,216.0,166.0,4.0,251.0,3209.025
3209035.0,222.0,165.0,3.0,261.0,3209.035
3209046.0,228.0,165.0,3.0,266.0,3209.046
3209056.0,221.0,169.0,3.0,260.0,3209.056
3209066.0,223.0,163.0,4.0,257.0,3209.066
3209076.0,217.0,164.0,4.0,253.0,3209.076
3209086.0,225.0,170.0,4.0,262.0,3209.086
3209096.0,227.0,163.0,4.0,260.0,3209.096
3209106.0,219.0,167.0,4.0,255.0,3209.106
3209116.0,221.0,164.0,3.0,256.0,3209.116
3209126.0,218.0,163.0,4.0,258.0,3209.126
3209136.0,221.0,167.0,4.0,260.0,3209.136
3209146.0,228.0,165.0,5.0,263.0,3209.146
3209156.0,219.0,167.0,2.0,256.0,3209.156
3209166.0,221.0,162.0,4.0,255.0,3209.166
3209176.0,215.0,166.0,3.0,252.0,3209.176
3209186.0,224.0,172.0,4.0,260.0,3209.186
3209196.0,228.0,169.0,4.0,261.0,3209.196
3209206.0,220.0,178.0,4.0,253.0,3209.206
3209216.0,222.0,172.0,4.0,254.0,3209.216
3209226.0,214.0,177.0,3.0,251.0,3209.226
3209236.0,219.0,184.0,3.0,260.0,3209.236
3209246.0,224.0,179.0,3.0,259.0,3209.246
3209256.0,214.0,184.0,3.0,252.0,3209.256
3209266.0,219.0,179.0,4.0,254.0,3209.266
3209276.0,215.0,179.0,5.0,252.0,3209.276
3209286.0,222.0,185.0,3.0,261.0,3209.286
3209296.0,225.0,179.0,3.0,260.0,3209.296
3209306.0,217.0,184.0,3.0,253.0,3209.306
3209316.0,220.0,176.0,3.0,254.0,3209.316
3209326.0,217.0,176.0,4.0,253.0,3209.326
3209336.0,227.0,184.0,5.0,264.0,3209.336
3209346.0,229.0,177.0,4.0,268.0,3209.346
3209356.0,221.0,181.0,4.0,261.0,3209.356
3209366.0,223.0,175.0,3.0,261.0,3209.366
3209376.0,220.0,178.0,3.0,258.0,3209.376
3209387.0,227.0,185.0,4.0,264.0,3209.387
3209397.0,229.0,179.0,5.0,266.0,3209.397
3209407.0,219.0,179.0,4.0,257.0,3209.407
3209417.0,218.0,174.0,3.0,260.0,3209.417
3209427.0,224.0,175.0,4.0,266.0,3209.427
3209437.0,223.0,184.0,3.0,264.0,3209.437
3209447.0,224.0,174.0,4.0,258.0,3209.447
3209457.0,214.0,177.0,4.0,250.0,3209.457
3209467.0,218.0,176.0,4.0,251.0,3209.467
3209477.0,220.0,171.0,4.0,254.0,3209.477
3209487.0,223.0,169.0,4.0,255.0,3209.487
3209497.0,223.0,166.0,3.0,254.0,3209.497
3209507.0,214.0,163.0,4.0,245.0,3209.507
3209517.0,217.0,164.0,3.0,251.0,3209.517
3209527.0,221.0,163.0,5.0,259.0,3209.527
3209537.0,223.0,162.0,4.0,261.0,3209.537
3209547.0,222.0,160.0,4.0,256.0,3209.547
3209558.0,213.0,159.0,3.0,247.0,3209.558
3209568.0,219.0,158.0,3.0,256.0,3209.568
3209578.0,224.0,154.0,4.0,258.0,3209.578
3209588.0,219.0,153.0,3.0,252.0,3209.588
3209598.0,221.0,150.0,4.0,252.0,3209.598
3209608.0,213.0,148.0,4.0,245.0,3209.608
3209618.0,222.0,145.0,4.0,257.0,3209.618
3209628.0,228.0,142.0,3.0,262.0,3209.628
3209638.0,221.0,138.0,3.0,254.0,3209.638
3209648.0,223.0,135.0,4.0,257.0,3209.648
3209658.0,215.0,131.0,5.0,248.0,3209.658
3209668.0,222.0,129.0,4.0,263.0,3209.668
3209678.0,228.0,124.0,4.0,266.0,3209.678
3209688.0,223.0,121.0,4.0,261.0,3209.688
3209698.0,224.0,116.0,3.0,258.0,3209.698
3209708.0,215.0,122.0,3.0,251.0,3209.708
3209718.0,224.0,124.0,4.0,259.0,3209.718
3209728.0,227.0,127.0,4.0,265.0,3209.728
3209738.0,222.0,138.0,2.0,259.0,3209.738
3209748.0,223.0,129.0,3.0,256.0,3209.748
3209758.0,215.0,137.0,3.0,247.0,3209.758
3209768.0,224.0,140.0,4.0,256.0,3209.768
3209778.0,228.0,140.0,4.0,258.0,3209.778
3209788.0,223.0,149.0,5.0,255.0,3209.788
3209798.0,223.0,141.0,3.0,257.0,3209.798
3209808.0,216.0,145.0,3.0,252.0,3209.808
3209818.0,217.0,144.0,3.0,256.0,3209.818
3209828.0,224.0,145.0,4.0,262.0,3209.828
3209838.0,218.0,154.0,3.0,254.0,3209.838
3209848.0,221.0,146.0,4.0,254.0,3209.848
3209858.0,213.0,150.0,4.0,246.0,3209.858
3209868.0,220.0,149.0,3.0,256.0,3209.868
3209878.0,225.0,149.0,4.0,259.0,3209.878
3209888.0,219.0,157.0,3.0,253.0,3209.888
3209899.0,222.0,148.0,3.0,255.0,3209.899
3209909.0,217.0,154.0,4.0,255.0,3209.909
3209919.0,224.0,159.0,5.0,261.0,3209.919
3209929.0,226.0,153.0,4.0,260.0,3209.929
3209939.0,216.0,156.0,4.0,250.0,3209.939
3209949.0,221.0,152.0,3.0,254.0,3209.949
3209959.0,219.0,151.0,4.0,254.0,3209.959
3209969.0,225.0,159.0,4.0,258.0,3209.969
3209979.0,227.0,152.0,5.0,255.0,3209.979
3209989.0,219.0,156.0,3.0,251.0,3209.989
3209999.0,222.0,149.0,3.0,253.0,3209.999
3210009.0,225.0,150.0,3.0,256.0,3210.009
3210019.0,229.0,155.0,3.0,259.0,3210.019
3210029.0,231.0,147.0,4.0,263.0,3210.029
3210039.0,221.0,154.0,4.0,254.0,3210.039
3210049.0,224.0,147.0,4.0,252.0,3210.049
3210059.0,224.0,151.0,2.0,256.0,3210.059
3210070.0,227.0,159.0,4.0,260.0,3210.07
3210080.0,227.0,152.0,3.0,259.0,3210.08
3210090.0,218.0,152.0,4.0,249.0,3210.09
3210100.0,222.0,148.0,3.0,255.0,3210.1
3210110.0,229.0,150.0,5.0,258.0,3210.11
3210120.0,224.0,156.0,3.0,257.0,3210.12
3210130.0,224.0,149.0,3.0,255.0,3210.13
3210140.0,216.0,151.0,3.0,247.0,3210.14
3210150.0,223.0,147.0,4.0,255.0,3210.15
3210160.0,225.0,147.0,4.0,257.0,3210.16
3210170.0,225.0,152.0,5.0,257.0,3210.17
3210180.0,226.0,146.0,3.0,255.0,3210.18
3210190.0,216.0,148.0,4.0,243.0,3210.19
3210200.0,222.0,144.0,3.0,249.0,3210.2
3210210.0,227.0,151.0,3.0,258.0,3210.21
3210220.0,225.0,160.0,3.0,255.0,3210.22
3210230.0,224.0,153.0,4.0,253.0,3210.23
3210240.0,220.0,160.0,4.0,246.0,3210.24
3210250.0,223.0,155.0,4.0,248.0,3210.25
3210260.0,229.0,159.0,4.0,253.0,3210.26
3210270.0,225.0,170.0,3.0,253.0,3210.27
3210280.0,226.0,161.0,4.0,254.0,3210.28
3210290.0,217.0,169.0,4.0,247.0,3210.29
3210300.0,224.0,166.0,4.0,254.0,3210.3
3210310.0,228.0,172.0,4.0,262.0,3210.31
3210320.0,225.0,182.0,3.0,259.0,3210.32
3210330.0,229.0,174.0,3.0,261.0,3210.33
3210340.0,218.0,178.0,3.0,251.0,3210.34
3210350.0,223.0,172.0,3.0,258.0,3210.35
3210360.0,229.0,173.0,4.0,264.0,3210.36
3210370.0,227.0,179.0,4.0,260.0,3210.37
3210380.0,226.0,170.0,4.0,256.0,3210.38
3210390.0,217.0,169.0,3.0,249.0,3210.39
3210400.0,223.0,170.0,3.0,260.0,3210.4
3210411.0,229.0,167.0,4.0,262.0,3210.411
3210421.0,222.0,173.0,4.0,259.0,3210.421
3210431.0,222.0,167.0,5.0,257.0,3210.431
3210441.0,216.0,166.0,4.0,253.0,3210.441
3210451.0,224.0,169.0,3.0,261.0,3210.451
3210461.0,229.0,163.0,3.0,264.0,3210.461
3210471.0,221.0,166.0,3.0,255.0,3210.471
3210481.0,224.0,162.0,4.0,257.0,3210.481
3210491.0,220.0,160.0,4.0,256.0,3210.491
3210501.0,224.0,161.0,4.0,261.0,3210.501
3210511.0,228.0,158.0,4.0,262.0,3210.511
3210521.0,221.0,156.0,4.0,256.0,3210.521
3210531.0,224.0,154.0,3.0,258.0,3210.531
3210541.0,217.0,150.0,4.0,250.0,3210.541
3210551.0,225.0,152.0,3.0,262.0,3210.551
3210561.0,231.0,149.0,5.0,265.0,3210.561
3210571.0,221.0,148.0,4.0,254.0,3210.571
3210582.0,224.0,145.0,4.0,255.0,3210.582
3210592.0,224.0,147.0,3.0,257.0,3210.592
3210602.0,228.0,152.0,4.0,259.0,3210.602
3210612.0,228.0,146.0,4.0,254.0,3210.612
3210622.0,219.0,147.0,5.0,246.0,3210.622
3210632.0,223.0,145.0,4.0,249.0,3210.632
3210642.0,223.0,149.0,3.0,252.0,3210.642
3210652.0,224.0,157.0,4.0,255.0,3210.652
3210662.0,225.0,150.0,4.0,253.0,3210.662
3210672.0,218.0,152.0,4.0,248.0,3210.672
3210682.0,221.0,149.0,4.0,252.0,3210.682
3210692.0,224.0,151.0,4.0,255.0,3210.692
3210702.0,225.0,159.0,2.0,258.0,3210.702
3210712.0,228.0,152.0,4.0,258.0,3210.712
3210722.0,217.0,157.0,3.0,250.0,3210.722
3210732.0,220.0,151.0,4.0,252.0,3210.732
3210742.0,223.0,157.0,4.0,258.0,3210.742
3210752.0,225.0,165.0,5.0,258.0,3210.752
3210762.0,225.0,158.0,4.0,256.0,3210.762
3210772.0,219.0,163.0,3.0,249.0,3210.772
3210782.0,223.0,158.0,3.0,256.0,3210.782
3210792.0,228.0,162.0,4.0,260.0,3210.792
3210802.0,229.0,172.0,3.0,260.0,3210.802
3210812.0,229.0,163.0,5.0,258.0,3210.812
3210822.0,220.0,171.0,4.0,252.0,3210.822
3210832.0,223.0,167.0,3.0,259.0,3210.832
3210842.0,225.0,169.0,3.0,259.0,3210.842
3210852.0,227.0,178.0,3.0,262.0,3210.852
3210862.0,227.0,168.0,4.0,259.0,3210.862
3210872.0,218.0,172.0,4.0,248.0,3210.872
3210882.0,223.0,166.0,5.0,253.0,3210.882
3210892.0,226.0,171.0,2.0,258.0,3210.892
3210902.0,227.0,179.0,3.0,260.0,3210.902
3210912.0,224.0,171.0,3.0,261.0,3210.912
3210923.0,215.0,175.0,4.0,252.0,3210.923
3210933.0,220.0,174.0,3.0,260.0,3210.933
3210943.0,226.0,174.0,5.0,264.0,3210.943
3210953.0,221.0,182.0,4.0,257.0,3210.953
3210963.0,222.0,175.0,3.0,257.0,3210.963
3210973.0,216.0,180.0,4.0,249.0,3210.973
3210983.0,222.0,180.0,3.0,258.0,3210.983
3210993.0,227.0,180.0,4.0,259.0,3210.993
3211003.0,221.0,185.0,4.0,249.0,3211.003
3211013.0,224.0,178.0,4.0,248.0,3211.013
3211023.0,214.0,176.0,4.0,238.0,3211.023
3211033.0,222.0,176.0,4.0,248.0,3211.033
3211043.0,231.0,174.0,3.0,253.0,3211.043
3211053.0,227.0,180.0,4.0,250.0,3211.053
3211063.0,226.0,174.0,4.0,249.0,3211.063
3211073.0,217.0,174.0,5.0,240.0,3211.073
3211083.0,224.0,175.0,4.0,249.0,3211.083
3211094.0,229.0,172.0,3.0,253.0,3211.094
3211104.0,222.0,175.0,3.0,248.0,3211.104
3211114.0,223.0,170.0,4.0,248.0,3211.114
3211124.0,222.0,170.0,4.0,252.0,3211.124
3211134.0,228.0,178.0,4.0,259.0,3211.134
3211144.0,229.0,170.0,4.0,259.0,3211.144
3211154.0,221.0,173.0,4.0,251.0,3211.154
3211164.0,222.0,169.0,4.0,254.0,3211.164
3211174.0,223.0,168.0,3.0,255.0,3211.174
3211184.0,226.0,174.0,4.0,256.0,3211.184
3211194.0,227.0,168.0,4.0,255.0,3211.194
3211204.0,221.0,170.0,4.0,246.0,3211.204
3211214.0,222.0,167.0,3.0,250.0,3211.214
3211224.0,219.0,164.0,4.0,248.0,3211.224
3211234.0,226.0,170.0,3.0,259.0,3211.234
3211244.0,229.0,164.0,4.0,258.0,3211.244
3211254.0,220.0,169.0,3.0,248.0,3211.254
3211264.0,224.0,165.0,5.0,252.0,3211.264
3211274.0,220.0,165.0,4.0,250.0,3211.274
3211284.0,227.0,173.0,3.0,257.0,3211.284
3211294.0,227.0,168.0,3.0,257.0,3211.294
3211304.0,219.0,170.0,3.0,247.0,3211.304
3211314.0,222.0,166.0,4.0,250.0,3211.314
3211324.0,220.0,167.0,4.0,251.0,3211.324
3211334.0,227.0,175.0,4.0,257.0,3211.334
3211344.0,225.0,168.0,4.0,256.0,3211.344
3211354.0,222.0,169.0,4.0,249.0,3211.354
3211364.0,224.0,167.0,3.0,253.0,3211.364
3211374.0,223.0,166.0,3.0,253.0,3211.374
3211384.0,227.0,174.0,3.0,253.0,3211.384
3211394.0,229.0,168.0,4.0,255.0,3211.394
3211404.0,221.0,175.0,2.0,247.0,3211.404
3211414.0,222.0,168.0,4.0,248.0,3211.414
3211424.0,225.0,177.0,3.0,253.0,3211.424
3211435.0,228.0,185.0,4.0,254.0,3211.435
3211445.0,230.0,178.0,4.0,255.0,3211.445
3211455.0,221.0,181.0,4.0,244.0,3211.455
3211465.0,224.0,178.0,3.0,251.0,3211.465
3211475.0,229.0,178.0,4.0,260.0,3211.475
3211485.0,227.0,186.0,4.0,257.0,3211.485
3211495.0,226.0,179.0,3.0,256.0,3211.495
3211505.0,218.0,181.0,4.0,247.0,3211.505
3211515.0,223.0,181.0,4.0,253.0,3211.515
3211525.0,226.0,181.0,5.0,256.0,3211.525
3211535.0,224.0,188.0,3.0,258.0,3211.535
3211545.0,223.0,179.0,4.0,256.0,3211.545
3211555.0,219.0,181.0,3.0,253.0,3211.555
3211565.0,223.0,177.0,3.0,257.0,3211.565
3211575.0,226.0,180.0,4.0,263.0,3211.575
3211585.0,225.0,186.0,5.0,259.0,3211.585
3211595.0,224.0,179.0,4.0,255.0,3211.595
3211606.0,215.0,177.0,4.0,243.0,3211.606
3211616.0,222.0,179.0,3.0,255.0,3211.616
3211626.0,227.0,176.0,3.0,257.0,3211.626
3211636.0,220.0,178.0,4.0,248.0,3211.636
3211646.0,221.0,175.0,4.0,249.0,3211.646
3211656.0,216.0,172.0,4.0,245.0,3211.656
3211666.0,224.0,177.0,3.0,258.0,3211.666
3211676.0,228.0,174.0,4.0,261.0,3211.676
3211686.0,221.0,182.0,3.0,251.0,3211.686
3211696.0,224.0,175.0,5.0,254.0,3211.696
3211706.0,217.0,180.0,4.0,249.0,3211.706
3211716.0,227.0,187.0,5.0,259.0,3211.716
3211726.0,228.0,183.0,3.0,262.0,3211.726
3211736.0,224.0,192.0,4.0,255.0,3211.736
3211746.0,223.0,185.0,3.0,256.0,3211.746
3211756.0,217.0,187.0,3.0,251.0,3211.756
3211766.0,227.0,192.0,4.0,258.0,3211.766
3211776.0,232.0,186.0,4.0,260.0,3211.776
3211786.0,227.0,192.0,4.0,252.0,3211.786
3211796.0,226.0,185.0,3.0,252.0,3211.796
3211806.0,221.0,186.0,4.0,247.0,3211.806
3211816.0,227.0,195.0,3.0,255.0,3211.816
3211826.0,230.0,187.0,4.0,256.0,3211.826
3211836.0,224.0,192.0,3.0,249.0,3211.836
3211846.0,225.0,185.0,5.0,251.0,3211.846
3211856.0,222.0,187.0,2.0,250.0,3211.856
3211866.0,225.0,190.0,3.0,254.0,3211.866
3211876.0,229.0,188.0,3.0,258.0,3211.876
3211886.0,223.0,194.0,4.0,248.0,3211.886
3211896.0,225.0,187.0,4.0,251.0,3211.896
3211906.0,220.0,189.0,4.0,244.0,3211.906
3211916.0,228.0,194.0,4.0,256.0,3211.916
3211926.0,231.0,189.0,3.0,257.0,3211.926
3211936.0,224.0,192.0,3.0,252.0,3211.936
3211947.0,224.0,186.0,3.0,254.0,3211.947
3211957.0,224.0,185.0,4.0,257.0,3211.957
3211967.0,229.0,196.0,4.0,259.0,3211.967
3211977.0,228.0,187.0,4.0,254.0,3211.977
3211987.0,220.0,191.0,4.0,245.0,3211.987
3211997.0,221.0,186.0,4.0,249.0,3211.997
3212007.0,221.0,191.0,3.0,254.0,3212.007
3212017.0,225.0,198.0,3.0,254.0,3212.017
3212027.0,224.0,190.0,4.0,251.0,3212.027
3212037.0,220.0,195.0,5.0,243.0,3212.037
3212047.0,220.0,190.0,4.0,247.0,3212.047
3212057.0,222.0,193.0,4.0,249.0,3212.057
3212067.0,224.0,201.0,3.0,249.0,3212.067
3212077.0,226.0,193.0,4.0,250.0,3212.077
3212087.0,221.0,196.0,3.0,242.0,3212.087
3212097.0,224.0,191.0,4.0,245.0,3212.097
3212107.0,228.0,192.0,4.0,252.0,3212.107
3212118.0,227.0,197.0,4.0,253.0,3212.118
3212128.0,226.0,190.0,4.0,252.0,3212.128
3212138.0,219.0,190.0,3.0,248.0,3212.138
3212148.0,226.0,190.0,4.0,258.0,3212.148
3212158.0,231.0,188.0,4.0,265.0,3212.158
3212168.0,228.0,197.0,5.0,259.0,3212.168
3212178.0,226.0,189.0,4.0,259.0,3212.178
3212188.0,218.0,188.0,4.0,249.0,3212.188
3212198.0,226.0,194.0,3.0,260.0,3212.198
3212208.0,233.0,190.0,3.0,262.0,3212.208
3212218.0,229.0,196.0,4.0,255.0,3212.218
3212228.0,229.0,190.0,4.0,254.0,3212.228
3212238.0,220.0,187.0,4.0,246.0,3212.238
3212248.0,224.0,187.0,4.0,252.0,3212.248
3212258.0,230.0,188.0,3.0,258.0,3212.258
3212268.0,226.0,194.0,4.0,254.0,3212.268
3212278.0,226.0,188.0,4.0,251.0,3212.278
3212288.0,218.0,188.0,4.0,245.0,3212.288
3212298.0,223.0,187.0,4.0,254.0,3212.298
3212308.0,230.0,188.0,3.0,260.0,3212.308
3212318.0,225.0,192.0,3.0,253.0,3212.318
3212328.0,225.0,188.0,3.0,253.0,3212.328
3212338.0,218.0,186.0,4.0,244.0,3212.338
3212348.0,224.0,186.0,4.0,253.0,3212.348
3212358.0,229.0,185.0,5.0,258.0,3212.358
3212368.0,224.0,192.0,4.0,254.0,3212.368
3212378.0,224.0,187.0,3.0,254.0,3212.378
3212388.0,217.0,188.0,3.0,246.0,3212.388
3212398.0,225.0,190.0,3.0,254.0,3212.398
3212408.0,230.0,186.0,4.0,259.0,3212.408
3212418.0,227.0,195.0,4.0,255.0,3212.418
3212428.0,227.0,189.0,4.0,255.0,3212.428
3212438.0,218.0,188.0,4.0,245.0,3212.438
3212448.0,226.0,193.0,4.0,256.0,3212.448
3212459.0,230.0,189.0,3.0,257.0,3212.459
3212469.0,224.0,192.0,4.0,246.0,3212.469
3212479.0,224.0,187.0,4.0,249.0,3212.479
3212489.0,223.0,189.0,4.0,249.0,3212.489
3212499.0,226.0,196.0,4.0,253.0,3212.499
3212509.0,227.0,188.0,3.0,253.0,3212.509
3212519.0,220.0,192.0,3.0,248.0,3212.519
3212529.0,219.0,187.0,4.0,250.0,3212.529
3212539.0,219.0,188.0,3.0,252.0,3212.539
3212549.0,224.0,193.0,4.0,257.0,3212.549
3212559.0,226.0,188.0,3.0,256.0,3212.559
3212569.0,219.0,188.0,3.0,248.0,3212.569
3212579.0,221.0,186.0,4.0,248.0,3212.579
3212589.0,217.0,185.0,3.0,247.0,3212.589
3212599.0,225.0,191.0,3.0,255.0,3212.599
3212609.0,226.0,185.0,3.0,256.0,3212.609
3212619.0,222.0,186.0,4.0,250.0,3212.619
3212630.0,224.0,182.0,4.0,254.0,3212.63
3212640.0,226.0,183.0,3.0,263.0,3212.64
3212650.0,227.0,191.0,3.0,263.0,3212.65
3212660.0,225.0,183.0,4.0,258.0,3212.66
3212670.0,217.0,185.0,3.0,251.0,3212.67
3212680.0,222.0,183.0,4.0,257.0,3212.68
3212690.0,224.0,186.0,4.0,263.0,3212.69
3212700.0,225.0,192.0,3.0,261.0,3212.7
3212710.0,224.0,187.0,3.0,259.0,3212.71
3212720.0,217.0,186.0,3.0,254.0,3212.72
3212730.0,219.0,182.0,3.0,257.0,3212.73
3212740.0,223.0,184.0,4.0,265.0,3212.74
3212750.0,222.0,191.0,3.0,260.0,3212.75
3212760.0,223.0,184.0,4.0,259.0,3212.76
3212770.0,216.0,187.0,3.0,251.0,3212.77
3212780.0,219.0,186.0,3.0,255.0,3212.78
3212790.0,226.0,188.0,3.0,260.0,3212.79
3212800.0,225.0,198.0,4.0,260.0,3212.8
3212810.0,225.0,191.0,4.0,260.0,3212.81
3212820.0,216.0,193.0,4.0,251.0,3212.82
3212830.0,222.0,191.0,5.0,256.0,3212.83
3212840.0,227.0,193.0,3.0,265.0,3212.84
3212850.0,225.0,202.0,4.0,260.0,3212.85
3212860.0,224.0,194.0,3.0,258.0,3212.86
3212870.0,216.0,194.0,4.0,248.0,3212.87
3212880.0,221.0,194.0,4.0,255.0,3212.88
3212890.0,227.0,195.0,4.0,259.0,3212.89
3212900.0,227.0,203.0,3.0,260.0,3212.9
3212910.0,227.0,195.0,3.0,256.0,3212.91
3212920.0,218.0,196.0,4.0,247.0,3212.92
3212930.0,222.0,195.0,3.0,254.0,3212.93
3212940.0,228.0,198.0,4.0,264.0,3212.94
3212950.0,226.0,207.0,4.0,260.0,3212.95
3212960.0,225.0,199.0,4.0,260.0,3212.96
3212971.0,216.0,198.0,3.0,252.0,3212.971
3212981.0,223.0,202.0,4.0,258.0,3212.981
