time (ms),signal 0,signal 1,signal 2,signal 3,time (sec)
3187518.0,210.0,32.0,4.0,233.0,3187.518
3187528.0,218.0,32.0,4.0,244.0,3187.528
3187538.0,223.0,33.0,3.0,248.0,3187.538
3187548.0,218.0,32.0,4.0,242.0,3187.548
3187558.0,218.0,32.0,3.0,242.0,3187.558
3187568.0,215.0,33.0,5.0,237.0,3187.568
3187578.0,222.0,32.0,2.0,250.0,3187.578
3187588.0,224.0,32.0,3.0,252.0,3187.588
3187598.0,220.0,32.0,3.0,247.0,3187.598
3187608.0,220.0,32.0,3.0,244.0,3187.608
3187618.0,212.0,32.0,4.0,240.0,3187.618
3187628.0,217.0,32.0,4.0,246.0,3187.628
3187638.0,223.0,33.0,4.0,251.0,3187.638
3187648.0,218.0,32.0,3.0,248.0,3187.648
3187658.0,219.0,32.0,4.0,248.0,3187.658
3187668.0,213.0,33.0,4.0,242.0,3187.668
3187678.0,218.0,32.0,5.0,247.0,3187.678
3187688.0,225.0,32.0,4.0,252.0,3187.688
3187698.0,219.0,32.0,4.0,244.0,3187.698
3187708.0,218.0,32.0,3.0,244.0,3187.708
3187718.0,211.0,32.0,4.0,235.0,3187.718
3187728.0,218.0,33.0,3.0,243.0,3187.728
3187738.0,223.0,32.0,3.0,250.0,3187.738
3187748.0,216.0,32.0,4.0,242.0,3187.748
3187758.0,219.0,32.0,4.0,245.0,3187.758
3187768.0,212.0,31.0,4.0,239.0,3187.768
3187778.0,220.0,32.0,4.0,252.0,3187.778
3187788.0,226.0,33.0,4.0,259.0,3187.788
3187798.0,220.0,32.0,4.0,250.0,3187.798
3187808.0,221.0,32.0,4.0,247.0,3187.808
3187818.0,213.0,34.0,4.0,239.0,3187.818
3187828.0,222.0,33.0,5.0,250.0,3187.828
3187838.0,225.0,34.0,3.0,251.0,3187.838
3187848.0,220.0,33.0,4.0,249.0,3187.848
3187858.0,220.0,34.0,3.0,253.0,3187.858
3187868.0,214.0,32.0,4.0,248.0,3187.868
3187878.0,223.0,32.0,4.0,258.0,3187.878
3187888.0,226.0,33.0,4.0,262.0,3187.888
3187898.0,219.0,32.0,3.0,255.0,3187.898
3187908.0,217.0,32.0,3.0,252.0,3187.908
3187918.0,211.0,33.0,4.0,248.0,3187.918
3187928.0,216.0,32.0,3.0,247.0,3187.928
3187938.0,222.0,32.0,3.0,253.0,3187.938
3187948.0,216.0,32.0,4.0,248.0,3187.948
3187958.0,218.0,33.0,3.0,248.0,3187.958
3187968.0,210.0,32.0,4.0,242.0,3187.968
3187978.0,219.0,32.0,4.0,251.0,3187.978
3187988.0,224.0,33.0,3.0,253.0,3187.988
3187998.0,217.0,32.0,4.0,246.0,3187.998
3188008.0,219.0,32.0,4.0,249.0,3188.008
3188018.0,216.0,31.0,5.0,243.0,3188.018
3188028.0,225.0,32.0,4.0,257.0,3188.028
3188038.0,229.0,32.0,4.0,257.0,3188.038
3188048.0,221.0,33.0,3.0,251.0,3188.048
3188058.0,225.0,31.0,3.0,254.0,3188.058
3188068.0,218.0,32.0,4.0,250.0,3188.068
3188078.0,227.0,32.0,4.0,261.0,3188.078
3188088.0,229.0,31.0,4.0,260.0,3188.088
3188098.0,223.0,32.0,4.0,253.0,3188.098
3188108.0,225.0,32.0,4.0,253.0,3188.108
3188118.0,219.0,33.0,3.0,246.0,3188.118
3188128.0,226.0,32.0,4.0,254.0,3188.128
3188139.0,228.0,33.0,3.0,252.0,3188.139
3188149.0,220.0,32.0,4.0,246.0,3188.149
3188159.0,222.0,33.0,3.0,249.0,3188.159
3188169.0,225.0,35.0,4.0,253.0,3188.169
3188179.0,225.0,37.0,3.0,254.0,3188.179
3188189.0,224.0,40.0,3.0,253.0,3188.189
3188199.0,215.0,43.0,4.0,243.0,3188.199
3188209.0,219.0,43.0,4.0,249.0,3188.209
3188219.0,224.0,50.0,2.0,258.0,3188.219
3188229.0,225.0,48.0,4.0,257.0,3188.229
3188239.0,225.0,49.0,3.0,256.0,3188.239
3188249.0,216.0,49.0,3.0,246.0,3188.249
3188259.0,218.0,46.0,3.0,250.0,3188.259
3188269.0,219.0,46.0,4.0,252.0,3188.269
3188279.0,226.0,43.0,4.0,259.0,3188.279
3188289.0,227.0,44.0,2.0,258.0,3188.289
3188299.0,219.0,41.0,4.0,249.0,3188.299
3188310.0,221.0,41.0,3.0,249.0,3188.31
3188320.0,227.0,39.0,4.0,256.0,3188.32
3188330.0,224.0,38.0,3.0,255.0,3188.33
3188340.0,223.0,36.0,4.0,255.0,3188.34
3188350.0,214.0,36.0,2.0,247.0,3188.35
3188360.0,220.0,34.0,4.0,251.0,3188.36
3188370.0,226.0,35.0,3.0,259.0,3188.37
3188380.0,223.0,33.0,4.0,253.0,3188.38
3188390.0,223.0,32.0,4.0,252.0,3188.39
3188400.0,216.0,32.0,4.0,244.0,3188.4
3188410.0,220.0,31.0,3.0,248.0,3188.41
3188420.0,226.0,31.0,4.0,253.0,3188.42
3188430.0,223.0,31.0,4.0,253.0,3188.43
3188440.0,223.0,31.0,3.0,252.0,3188.44
3188450.0,216.0,30.0,3.0,242.0,3188.45
3188460.0,223.0,30.0,4.0,255.0,3188.46
3188470.0,229.0,30.0,4.0,258.0,3188.47
3188480.0,225.0,30.0,3.0,255.0,3188.48
3188490.0,223.0,29.0,4.0,247.0,3188.49
3188500.0,213.0,30.0,3.0,237.0,3188.5
3188510.0,221.0,28.0,3.0,248.0,3188.51
3188520.0,225.0,29.0,4.0,251.0,3188.52
3188530.0,222.0,28.0,3.0,250.0,3188.53
3188540.0,222.0,29.0,4.0,249.0,3188.54
3188550.0,214.0,29.0,3.0,241.0,3188.55
3188560.0,222.0,29.0,3.0,249.0,3188.56
3188570.0,226.0,28.0,4.0,252.0,3188.57
3188580.0,223.0,28.0,4.0,251.0,3188.58
3188590.0,221.0,29.0,4.0,249.0,3188.59
3188600.0,214.0,29.0,4.0,242.0,3188.6
3188610.0,217.0,29.0,4.0,248.0,3188.61
3188620.0,226.0,29.0,4.0,254.0,3188.62
3188630.0,222.0,29.0,3.0,252.0,3188.63
3188640.0,222.0,28.0,4.0,248.0,3188.64
3188651.0,216.0,29.0,3.0,246.0,3188.651
3188661.0,225.0,28.0,5.0,256.0,3188.661
3188671.0,226.0,29.0,4.0,255.0,3188.671
3188681.0,219.0,28.0,3.0,248.0,3188.681
3188691.0,221.0,30.0,3.0,247.0,3188.691
3188701.0,216.0,28.0,4.0,243.0,3188.701
3188711.0,221.0,28.0,4.0,246.0,3188.711
3188721.0,220.0,29.0,5.0,248.0,3188.721
3188731.0,220.0,29.0,3.0,245.0,3188.731
3188741.0,218.0,29.0,4.0,239.0,3188.741
3188751.0,216.0,29.0,4.0,237.0,3188.751
3188761.0,224.0,30.0,3.0,247.0,3188.761
3188771.0,226.0,30.0,4.0,256.0,3188.771
3188781.0,223.0,29.0,3.0,252.0,3188.781
3188791.0,228.0,29.0,4.0,252.0,3188.791
3188801.0,233.0,30.0,2.0,253.0,3188.801
3188811.0,237.0,29.0,4.0,252.0,3188.811
3188822.0,230.0,31.0,3.0,254.0,3188.822
3188832.0,226.0,30.0,3.0,248.0,3188.832
3188842.0,230.0,31.0,3.0,258.0,3188.842
3188852.0,246.0,31.0,4.0,272.0,3188.852
3188862.0,244.0,31.0,4.0,270.0,3188.862
3188872.0,246.0,31.0,3.0,269.0,3188.872
3188882.0,248.0,32.0,4.0,269.0,3188.882
3188892.0,241.0,33.0,4.0,263.0,3188.892
3188902.0,245.0,34.0,4.0,268.0,3188.902
3188912.0,247.0,33.0,4.0,273.0,3188.912
3188922.0,242.0,35.0,4.0,259.0,3188.922
3188932.0,243.0,56.0,4.0,256.0,3188.932
3188942.0,249.0,52.0,4.0,264.0,3188.942
3188952.0,243.0,49.0,3.0,265.0,3188.952
3188962.0,239.0,46.0,4.0,263.0,3188.962
3188972.0,240.0,43.0,4.0,267.0,3188.972
3188982.0,241.0,42.0,4.0,264.0,3188.982
3188992.0,243.0,40.0,3.0,275.0,3188.992
3189002.0,260.0,43.0,3.0,301.0,3189.002
3189012.0,257.0,42.0,3.0,294.0,3189.012
3189022.0,256.0,39.0,4.0,284.0,3189.022
3189032.0,247.0,38.0,3.0,270.0,3189.032
3189042.0,252.0,37.0,4.0,273.0,3189.042
3189052.0,253.0,36.0,3.0,279.0,3189.052
3189062.0,253.0,34.0,4.0,279.0,3189.062
3189072.0,249.0,34.0,3.0,272.0,3189.072
3189082.0,243.0,34.0,3.0,261.0,3189.082
3189092.0,245.0,32.0,4.0,267.0,3189.092
3189102.0,245.0,32.0,4.0,272.0,3189.102
3189112.0,243.0,31.0,4.0,264.0,3189.112
3189122.0,243.0,31.0,2.0,271.0,3189.122
3189132.0,237.0,29.0,4.0,259.0,3189.132
3189142.0,242.0,31.0,3.0,261.0,3189.142
3189152.0,238.0,30.0,3.0,262.0,3189.152
3189163.0,235.0,31.0,3.0,264.0,3189.163
3189173.0,236.0,29.0,5.0,265.0,3189.173
3189183.0,232.0,29.0,3.0,263.0,3189.183
3189193.0,244.0,29.0,4.0,270.0,3189.193
3189203.0,248.0,30.0,3.0,265.0,3189.203
3189213.0,245.0,29.0,4.0,253.0,3189.213
3189223.0,242.0,28.0,3.0,254.0,3189.223
3189233.0,235.0,28.0,5.0,253.0,3189.233
3189243.0,240.0,28.0,4.0,264.0,3189.243
3189253.0,244.0,29.0,4.0,267.0,3189.253
3189263.0,241.0,29.0,3.0,266.0,3189.263
3189273.0,237.0,29.0,3.0,269.0,3189.273
3189283.0,232.0,28.0,4.0,262.0,3189.283
3189293.0,240.0,28.0,4.0,272.0,3189.293
3189303.0,243.0,28.0,4.0,271.0,3189.303
3189313.0,236.0,28.0,4.0,262.0,3189.313
3189323.0,235.0,28.0,4.0,265.0,3189.323
3189334.0,231.0,29.0,4.0,264.0,3189.334
3189344.0,239.0,28.0,4.0,270.0,3189.344
3189354.0,239.0,28.0,4.0,271.0,3189.354
3189364.0,233.0,28.0,4.0,260.0,3189.364
3189374.0,237.0,28.0,4.0,265.0,3189.374
3189384.0,235.0,28.0,4.0,261.0,3189.384
3189394.0,245.0,28.0,3.0,265.0,3189.394
3189404.0,243.0,28.0,3.0,261.0,3189.404
3189414.0,235.0,28.0,3.0,252.0,3189.414
3189424.0,235.0,29.0,4.0,259.0,3189.424
3189434.0,237.0,29.0,4.0,263.0,3189.434
3189444.0,241.0,29.0,4.0,269.0,3189.444
3189454.0,240.0,29.0,3.0,272.0,3189.454
3189464.0,236.0,29.0,3.0,271.0,3189.464
3189474.0,238.0,28.0,4.0,271.0,3189.474
3189484.0,241.0,29.0,4.0,282.0,3189.484
3189494.0,244.0,29.0,5.0,277.0,3189.494
3189504.0,244.0,29.0,4.0,275.0,3189.504
3189514.0,235.0,28.0,3.0,266.0,3189.514
3189524.0,237.0,29.0,3.0,267.0,3189.524
3189534.0,239.0,30.0,3.0,270.0,3189.534
3189544.0,241.0,29.0,4.0,271.0,3189.544
3189554.0,241.0,29.0,4.0,265.0,3189.554
3189564.0,233.0,29.0,3.0,247.0,3189.564
3189574.0,236.0,30.0,3.0,254.0,3189.574
3189584.0,239.0,29.0,3.0,261.0,3189.584
3189594.0,241.0,30.0,3.0,268.0,3189.594
3189604.0,240.0,30.0,4.0,268.0,3189.604
3189614.0,231.0,30.0,3.0,262.0,3189.614
3189624.0,231.0,29.0,5.0,258.0,3189.624
3189634.0,235.0,30.0,2.0,259.0,3189.634
3189644.0,240.0,29.0,4.0,268.0,3189.644
3189654.0,238.0,31.0,3.0,275.0,3189.654
3189664.0,230.0,30.0,3.0,261.0,3189.664
3189675.0,233.0,31.0,3.0,275.0,3189.675
3189685.0,238.0,30.0,4.0,279.0,3189.685
3189695.0,233.0,30.0,4.0,282.0,3189.695
3189705.0,232.0,30.0,3.0,284.0,3189.705
3189715.0,225.0,30.0,3.0,277.0,3189.715
3189725.0,232.0,30.0,3.0,283.0,3189.725
3189735.0,242.0,30.0,3.0,301.0,3189.735
3189745.0,235.0,30.0,4.0,292.0,3189.745
3189755.0,234.0,30.0,4.0,287.0,3189.755
3189765.0,225.0,30.0,4.0,282.0,3189.765
3189775.0,232.0,29.0,4.0,292.0,3189.775
3189785.0,239.0,31.0,3.0,298.0,3189.785
3189795.0,234.0,30.0,4.0,286.0,3189.795
3189805.0,236.0,30.0,4.0,282.0,3189.805
3189815.0,229.0,31.0,5.0,272.0,3189.815
3189825.0,236.0,31.0,4.0,283.0,3189.825
3189835.0,243.0,31.0,4.0,289.0,3189.835
3189846.0,236.0,32.0,3.0,277.0,3189.846
3189856.0,236.0,30.0,4.0,274.0,3189.856
3189866.0,228.0,31.0,3.0,270.0,3189.866
3189876.0,237.0,31.0,4.0,275.0,3189.876
3189886.0,240.0,31.0,4.0,274.0,3189.886
3189896.0,232.0,30.0,4.0,268.0,3189.896
3189906.0,233.0,31.0,4.0,266.0,3189.906
3189916.0,229.0,31.0,4.0,260.0,3189.916
3189926.0,236.0,30.0,3.0,267.0,3189.926
3189936.0,236.0,31.0,3.0,267.0,3189.936
3189946.0,231.0,31.0,5.0,260.0,3189.946
3189956.0,232.0,31.0,4.0,261.0,3189.956
3189966.0,229.0,30.0,4.0,259.0,3189.966
3189976.0,224.0,32.0,3.0,262.0,3189.976
3189986.0,230.0,31.0,4.0,261.0,3189.986
3189996.0,222.0,31.0,3.0,255.0,3189.996
3190006.0,224.0,31.0,4.0,256.0,3190.006
3190016.0,218.0,31.0,4.0,251.0,3190.016
3190026.0,228.0,31.0,4.0,260.0,3190.026
3190036.0,232.0,32.0,3.0,262.0,3190.036
3190046.0,224.0,31.0,3.0,254.0,3190.046
3190056.0,228.0,31.0,3.0,255.0,3190.056
3190066.0,225.0,31.0,4.0,251.0,3190.066
3190076.0,237.0,31.0,4.0,262.0,3190.076
3190086.0,236.0,32.0,4.0,259.0,3190.086
3190096.0,228.0,31.0,3.0,253.0,3190.096
3190106.0,233.0,33.0,3.0,261.0,3190.106
3190116.0,230.0,32.0,3.0,254.0,3190.116
3190126.0,237.0,32.0,3.0,263.0,3190.126
3190136.0,238.0,33.0,4.0,262.0,3190.136
3190146.0,230.0,31.0,4.0,255.0,3190.146
3190156.0,229.0,32.0,4.0,252.0,3190.156
3190166.0,230.0,32.0,4.0,252.0,3190.166
3190176.0,236.0,32.0,3.0,259.0,3190.176
3190187.0,235.0,32.0,3.0,257.0,3190.187
3190197.0,225.0,31.0,4.0,249.0,3190.197
3190207.0,231.0,31.0,3.0,262.0,3190.207
3190217.0,238.0,32.0,4.0,277.0,3190.217
3190227.0,238.0,32.0,3.0,275.0,3190.227
3190237.0,242.0,31.0,4.0,278.0,3190.237
3190247.0,233.0,30.0,4.0,272.0,3190.247
3190257.0,236.0,32.0,3.0,275.0,3190.257
3190267.0,242.0,31.0,4.0,285.0,3190.267
3190277.0,239.0,31.0,4.0,283.0,3190.277
3190287.0,239.0,32.0,4.0,283.0,3190.287
3190297.0,235.0,32.0,3.0,285.0,3190.297
3190307.0,243.0,32.0,3.0,302.0,3190.307
3190317.0,243.0,32.0,3.0,301.0,3190.317
3190327.0,244.0,32.0,4.0,295.0,3190.327
3190337.0,243.0,32.0,4.0,284.0,3190.337
3190347.0,230.0,31.0,3.0,272.0,3190.347
3190358.0,239.0,31.0,4.0,289.0,3190.358
3190368.0,247.0,32.0,3.0,307.0,3190.368
3190378.0,240.0,31.0,4.0,293.0,3190.378
3190388.0,239.0,32.0,4.0,291.0,3190.388
3190398.0,229.0,32.0,3.0,279.0,3190.398
3190408.0,232.0,32.0,4.0,283.0,3190.408
3190418.0,238.0,32.0,3.0,287.0,3190.418
3190428.0,232.0,32.0,3.0,277.0,3190.428
3190438.0,234.0,32.0,3.0,275.0,3190.438
3190448.0,225.0,32.0,4.0,263.0,3190.448
3190458.0,233.0,31.0,5.0,270.0,3190.458
3190468.0,238.0,32.0,2.0,273.0,3190.468
3190478.0,231.0,31.0,3.0,266.0,3190.478
3190488.0,231.0,32.0,3.0,263.0,3190.488
3190498.0,219.0,31.0,4.0,254.0,3190.498
3190508.0,229.0,32.0,3.0,259.0,3190.508
3190518.0,230.0,32.0,4.0,258.0,3190.518
3190528.0,224.0,31.0,4.0,251.0,3190.528
3190538.0,227.0,32.0,3.0,251.0,3190.538
3190548.0,220.0,32.0,4.0,247.0,3190.548
3190558.0,230.0,32.0,3.0,257.0,3190.558
3190568.0,235.0,32.0,4.0,260.0,3190.568
3190578.0,232.0,31.0,3.0,262.0,3190.578
3190588.0,232.0,31.0,3.0,261.0,3190.588
3190598.0,222.0,31.0,2.0,257.0,3190.598
3190608.0,231.0,31.0,3.0,266.0,3190.608
3190618.0,235.0,32.0,3.0,267.0,3190.618
3190628.0,229.0,31.0,4.0,263.0,3190.628
3190638.0,231.0,31.0,4.0,265.0,3190.638
3190648.0,225.0,31.0,5.0,259.0,3190.648
3190658.0,230.0,31.0,4.0,263.0,3190.658
3190668.0,235.0,31.0,4.0,265.0,3190.668
3190678.0,228.0,31.0,4.0,256.0,3190.678
3190688.0,227.0,32.0,3.0,258.0,3190.688
3190699.0,223.0,31.0,4.0,257.0,3190.699
3190709.0,231.0,31.0,4.0,269.0,3190.709
3190719.0,233.0,31.0,4.0,264.0,3190.719
3190729.0,225.0,31.0,3.0,258.0,3190.729
3190739.0,229.0,31.0,4.0,257.0,3190.739
3190749.0,228.0,31.0,4.0,258.0,3190.749
3190759.0,233.0,31.0,4.0,262.0,3190.759
3190769.0,233.0,32.0,4.0,258.0,3190.769
3190779.0,225.0,31.0,4.0,250.0,3190.779
3190789.0,225.0,31.0,4.0,250.0,3190.789
3190799.0,226.0,31.0,4.0,251.0,3190.799
3190809.0,231.0,32.0,3.0,254.0,3190.809
3190819.0,231.0,32.0,3.0,250.0,3190.819
3190829.0,227.0,31.0,4.0,253.0,3190.829
3190839.0,230.0,32.0,4.0,257.0,3190.839
3190849.0,232.0,31.0,4.0,259.0,3190.849
3190859.0,234.0,32.0,3.0,261.0,3190.859
3190870.0,232.0,32.0,4.0,260.0,3190.87
3190880.0,227.0,32.0,3.0,252.0,3190.88
3190890.0,233.0,32.0,3.0,262.0,3190.89
3190900.0,239.0,32.0,3.0,270.0,3190.9
3190910.0,236.0,31.0,4.0,266.0,3190.91
3190920.0,236.0,32.0,3.0,266.0,3190.92
3190930.0,229.0,31.0,4.0,263.0,3190.93
3190940.0,236.0,31.0,4.0,272.0,3190.94
3190950.0,241.0,32.0,4.0,273.0,3190.95
3190960.0,238.0,32.0,3.0,272.0,3190.96
3190970.0,235.0,32.0,4.0,265.0,3190.97
3190980.0,224.0,31.0,4.0,255.0,3190.98
3190990.0,232.0,32.0,3.0,265.0,3190.99
3191000.0,235.0,32.0,4.0,268.0,3191.0
3191010.0,233.0,32.0,3.0,262.0,3191.01
3191020.0,233.0,31.0,4.0,260.0,3191.02
3191030.0,226.0,32.0,4.0,258.0,3191.03
3191040.0,233.0,31.0,3.0,264.0,3191.04
3191050.0,240.0,32.0,3.0,278.0,3191.05
3191060.0,237.0,32.0,4.0,271.0,3191.06
3191070.0,236.0,33.0,3.0,268.0,3191.07
3191080.0,225.0,31.0,4.0,260.0,3191.08
3191090.0,230.0,31.0,3.0,264.0,3191.09
3191100.0,236.0,33.0,3.0,270.0,3191.1
3191110.0,232.0,33.0,2.0,269.0,3191.11
3191120.0,233.0,32.0,3.0,269.0,3191.12
3191130.0,227.0,32.0,3.0,261.0,3191.13
3191140.0,232.0,32.0,3.0,265.0,3191.14
3191150.0,238.0,32.0,4.0,270.0,3191.15
3191160.0,233.0,32.0,4.0,266.0,3191.16
3191170.0,235.0,32.0,4.0,265.0,3191.17
3191180.0,225.0,32.0,3.0,256.0,3191.18
3191190.0,235.0,32.0,3.0,266.0,3191.19
3191200.0,240.0,33.0,3.0,270.0,3191.2
3191211.0,234.0,32.0,4.0,266.0,3191.211
3191221.0,236.0,32.0,4.0,267.0,3191.221
3191231.0,231.0,31.0,4.0,265.0,3191.231
3191241.0,238.0,32.0,4.0,277.0,3191.241
3191251.0,240.0,32.0,4.0,275.0,3191.251
3191261.0,234.0,32.0,3.0,270.0,3191.261
3191271.0,236.0,32.0,3.0,270.0,3191.271
3191281.0,231.0,31.0,4.0,266.0,3191.281
3191291.0,239.0,31.0,3.0,273.0,3191.291
3191301.0,241.0,31.0,4.0,270.0,3191.301
3191311.0,232.0,32.0,3.0,264.0,3191.311
3191321.0,233.0,32.0,3.0,263.0,3191.321
3191331.0,231.0,32.0,4.0,262.0,3191.331
3191341.0,236.0,31.0,4.0,270.0,3191.341
3191351.0,241.0,32.0,4.0,275.0,3191.351
3191361.0,235.0,31.0,5.0,268.0,3191.361
3191371.0,235.0,32.0,4.0,269.0,3191.371
3191382.0,235.0,31.0,4.0,270.0,3191.382
3191392.0,238.0,32.0,3.0,273.0,3191.392
3191402.0,238.0,32.0,4.0,270.0,3191.402
3191412.0,228.0,31.0,3.0,263.0,3191.412
3191422.0,232.0,31.0,5.0,268.0,3191.422
3191432.0,233.0,32.0,2.0,272.0,3191.432
3191442.0,237.0,31.0,4.0,275.0,3191.442
3191452.0,236.0,32.0,3.0,271.0,3191.452
3191462.0,227.0,32.0,3.0,260.0,3191.462
3191472.0,232.0,31.0,4.0,265.0,3191.472
3191482.0,236.0,32.0,5.0,269.0,3191.482
3191492.0,235.0,31.0,4.0,267.0,3191.492
3191502.0,234.0,32.0,4.0,264.0,3191.502
3191512.0,228.0,32.0,3.0,259.0,3191.512
3191522.0,231.0,33.0,3.0,262.0,3191.522
3191532.0,239.0,32.0,4.0,270.0,3191.532
3191542.0,237.0,32.0,4.0,269.0,3191.542
3191552.0,241.0,32.0,5.0,268.0,3191.552
3191562.0,230.0,32.0,4.0,262.0,3191.562
3191572.0,232.0,32.0,4.0,265.0,3191.572
3191582.0,236.0,32.0,4.0,268.0,3191.582
3191592.0,236.0,32.0,4.0,267.0,3191.592
3191602.0,240.0,32.0,4.0,269.0,3191.602
3191612.0,232.0,32.0,2.0,258.0,3191.612
3191622.0,236.0,31.0,4.0,263.0,3191.622
3191632.0,240.0,32.0,4.0,269.0,3191.632
3191642.0,238.0,33.0,3.0,270.0,3191.642
3191652.0,238.0,32.0,3.0,265.0,3191.652
3191662.0,234.0,32.0,3.0,263.0,3191.662
3191672.0,240.0,33.0,4.0,263.0,3191.672
3191682.0,243.0,32.0,4.0,264.0,3191.682
3191692.0,240.0,32.0,3.0,264.0,3191.692
3191702.0,242.0,32.0,4.0,265.0,3191.702
3191712.0,229.0,32.0,3.0,258.0,3191.712
3191723.0,233.0,33.0,4.0,265.0,3191.723
3191733.0,237.0,32.0,4.0,266.0,3191.733
3191743.0,230.0,32.0,5.0,259.0,3191.743
3191753.0,232.0,33.0,2.0,258.0,3191.753
3191763.0,223.0,33.0,4.0,249.0,3191.763
3191773.0,228.0,33.0,3.0,255.0,3191.773
3191783.0,235.0,32.0,4.0,259.0,3191.783
3191793.0,225.0,32.0,3.0,252.0,3191.793
3191803.0,228.0,33.0,2.0,253.0,3191.803
3191813.0,219.0,33.0,4.0,242.0,3191.813
3191823.0,226.0,33.0,3.0,253.0,3191.823
3191833.0,232.0,33.0,4.0,260.0,3191.833
3191843.0,223.0,33.0,3.0,254.0,3191.843
3191853.0,228.0,32.0,3.0,257.0,3191.853
3191863.0,217.0,33.0,3.0,248.0,3191.863
3191873.0,226.0,32.0,4.0,259.0,3191.873
3191883.0,234.0,33.0,4.0,261.0,3191.883
3191894.0,225.0,32.0,5.0,251.0,3191.894
3191904.0,227.0,33.0,3.0,255.0,3191.904
3191914.0,224.0,32.0,4.0,254.0,3191.914
3191924.0,228.0,32.0,3.0,259.0,3191.924
3191934.0,231.0,32.0,5.0,257.0,3191.934
3191944.0,221.0,32.0,4.0,255.0,3191.944
3191954.0,224.0,33.0,3.0,254.0,3191.954
3191964.0,225.0,32.0,3.0,254.0,3191.964
3191974.0,228.0,32.0,3.0,256.0,3191.974
3191984.0,232.0,32.0,4.0,256.0,3191.984
3191994.0,220.0,32.0,4.0,249.0,3191.994
3192004.0,223.0,32.0,4.0,247.0,3192.004
3192014.0,224.0,33.0,3.0,251.0,3192.014
3192024.0,227.0,32.0,4.0,253.0,3192.024
3192034.0,229.0,33.0,3.0,255.0,3192.034
3192044.0,219.0,32.0,4.0,247.0,3192.044
3192054.0,223.0,32.0,3.0,252.0,3192.054
3192064.0,220.0,32.0,4.0,251.0,3192.064
3192074.0,226.0,31.0,4.0,259.0,3192.074
3192084.0,230.0,32.0,4.0,257.0,3192.084
3192094.0,218.0,33.0,3.0,251.0,3192.094
3192104.0,220.0,32.0,3.0,247.0,3192.104
3192114.0,219.0,32.0,3.0,247.0,3192.114
3192124.0,224.0,32.0,3.0,256.0,3192.124
3192134.0,227.0,31.0,4.0,254.0,3192.134
3192144.0,220.0,32.0,4.0,246.0,3192.144
3192154.0,226.0,32.0,4.0,252.0,3192.154
3192164.0,224.0,33.0,4.0,248.0,3192.164
3192174.0,227.0,32.0,3.0,248.0,3192.174
3192184.0,228.0,32.0,4.0,243.0,3192.184
3192194.0,221.0,31.0,4.0,237.0,3192.194
3192204.0,222.0,32.0,3.0,242.0,3192.204
3192214.0,223.0,32.0,4.0,245.0,3192.214
3192224.0,225.0,33.0,3.0,252.0,3192.224
3192235.0,226.0,32.0,4.0,249.0,3192.235
3192245.0,216.0,32.0,4.0,243.0,3192.245
3192255.0,222.0,32.0,5.0,250.0,3192.255
3192265.0,228.0,32.0,3.0,256.0,3192.265
3192275.0,222.0,31.0,4.0,250.0,3192.275
3192285.0,224.0,33.0,4.0,251.0,3192.285
3192295.0,216.0,32.0,3.0,245.0,3192.295
3192305.0,221.0,32.0,3.0,253.0,3192.305
3192315.0,227.0,33.0,2.0,263.0,3192.315
3192325.0,225.0,31.0,4.0,259.0,3192.325
3192335.0,223.0,32.0,4.0,256.0,3192.335
3192345.0,213.0,32.0,3.0,247.0,3192.345
3192355.0,220.0,33.0,3.0,257.0,3192.355
3192365.0,224.0,32.0,3.0,258.0,3192.365
3192375.0,221.0,32.0,4.0,255.0,3192.375
3192385.0,223.0,32.0,5.0,253.0,3192.385
3192395.0,214.0,32.0,2.0,245.0,3192.395
3192406.0,222.0,32.0,4.0,254.0,3192.406
3192416.0,226.0,33.0,3.0,255.0,3192.416
3192426.0,218.0,31.0,4.0,246.0,3192.426
3192436.0,220.0,32.0,4.0,247.0,3192.436
3192446.0,218.0,32.0,5.0,250.0,3192.446
3192456.0,223.0,31.0,4.0,252.0,3192.456
3192466.0,227.0,32.0,4.0,255.0,3192.466
3192476.0,220.0,32.0,3.0,249.0,3192.476
3192486.0,221.0,32.0,3.0,252.0,3192.486
3192496.0,214.0,32.0,4.0,246.0,3192.496
3192506.0,223.0,32.0,3.0,256.0,3192.506
3192516.0,229.0,33.0,4.0,257.0,3192.516
3192526.0,222.0,32.0,3.0,251.0,3192.526
3192536.0,227.0,32.0,4.0,253.0,3192.536
3192546.0,219.0,32.0,3.0,251.0,3192.546
3192556.0,227.0,32.0,4.0,260.0,3192.556
3192566.0,231.0,32.0,4.0,260.0,3192.566
3192576.0,225.0,32.0,4.0,254.0,3192.576
3192586.0,224.0,32.0,4.0,254.0,3192.586
3192596.0,218.0,32.0,4.0,249.0,3192.596
3192606.0,226.0,33.0,3.0,260.0,3192.606
3192616.0,227.0,32.0,3.0,258.0,3192.616
3192626.0,222.0,32.0,3.0,255.0,3192.626
3192636.0,222.0,32.0,4.0,257.0,3192.636
3192646.0,219.0,31.0,4.0,257.0,3192.646
3192656.0,226.0,32.0,4.0,265.0,3192.656
3192666.0,228.0,32.0,4.0,265.0,3192.666
3192676.0,221.0,33.0,3.0,256.0,3192.676
3192686.0,223.0,32.0,4.0,256.0,3192.686
3192696.0,221.0,33.0,3.0,258.0,3192.696
3192706.0,226.0,32.0,5.0,261.0,3192.706
3192716.0,229.0,32.0,4.0,264.0,3192.716
3192726.0,221.0,32.0,4.0,257.0,3192.726
3192736.0,223.0,33.0,3.0,260.0,3192.736
3192747.0,221.0,32.0,4.0,260.0,3192.747
3192757.0,226.0,31.0,4.0,263.0,3192.757
3192767.0,226.0,32.0,4.0,259.0,3192.767
3192777.0,217.0,31.0,4.0,256.0,3192.777
3192787.0,220.0,31.0,3.0,264.0,3192.787
3192797.0,222.0,32.0,4.0,264.0,3192.797
3192807.0,225.0,32.0,3.0,266.0,3192.807
3192817.0,225.0,32.0,3.0,261.0,3192.817
3192827.0,216.0,31.0,4.0,254.0,3192.827
3192837.0,222.0,32.0,4.0,259.0,3192.837
3192847.0,222.0,33.0,2.0,263.0,3192.847
3192857.0,224.0,32.0,3.0,265.0,3192.857
3192867.0,225.0,33.0,3.0,261.0,3192.867
3192877.0,219.0,32.0,3.0,258.0,3192.877
3192887.0,222.0,32.0,4.0,262.0,3192.887
3192897.0,226.0,32.0,5.0,266.0,3192.897
3192907.0,226.0,31.0,4.0,265.0,3192.907
3192918.0,226.0,33.0,4.0,261.0,3192.918
3192928.0,216.0,33.0,3.0,254.0,3192.928
3192938.0,223.0,32.0,3.0,263.0,3192.938
3192948.0,230.0,33.0,3.0,267.0,3192.948
3192958.0,224.0,32.0,4.0,260.0,3192.958
3192968.0,226.0,32.0,4.0,260.0,3192.968
3192978.0,217.0,32.0,3.0,253.0,3192.978
3192988.0,225.0,33.0,3.0,256.0,3192.988
3192998.0,230.0,33.0,3.0,258.0,3192.998
3193008.0,226.0,32.0,3.0,255.0,3193.008
3193018.0,224.0,33.0,4.0,250.0,3193.018
3193028.0,216.0,32.0,4.0,243.0,3193.028
3193038.0,224.0,32.0,4.0,255.0,3193.038
3193048.0,226.0,32.0,3.0,254.0,3193.048
3193058.0,222.0,33.0,3.0,251.0,3193.058
3193068.0,223.0,32.0,4.0,249.0,3193.068
3193078.0,215.0,32.0,4.0,244.0,3193.078
3193088.0,222.0,32.0,4.0,253.0,3193.088
3193098.0,226.0,31.0,3.0,257.0,3193.098
3193108.0,222.0,32.0,3.0,249.0,3193.108
3193118.0,223.0,32.0,4.0,251.0,3193.118
3193128.0,217.0,32.0,3.0,247.0,3193.128
3193138.0,223.0,32.0,4.0,254.0,3193.138
3193148.0,228.0,33.0,4.0,260.0,3193.148
3193158.0,223.0,31.0,4.0,254.0,3193.158
3193168.0,223.0,32.0,3.0,254.0,3193.168
3193178.0,215.0,32.0,4.0,248.0,3193.178
3193188.0,223.0,33.0,3.0,260.0,3193.188
3193198.0,228.0,32.0,3.0,262.0,3193.198
3193208.0,221.0,32.0,4.0,256.0,3193.208
3193218.0,225.0,32.0,5.0,257.0,3193.218
3193228.0,215.0,32.0,4.0,252.0,3193.228
3193238.0,224.0,32.0,3.0,264.0,3193.238
3193248.0,228.0,33.0,3.0,266.0,3193.248
3193259.0,222.0,32.0,4.0,258.0,3193.259
3193269.0,223.0,32.0,3.0,257.0,3193.269
3193279.0,221.0,32.0,5.0,257.0,3193.279
3193289.0,227.0,31.0,4.0,262.0,3193.289
3193299.0,226.0,32.0,4.0,257.0,3193.299
3193309.0,220.0,32.0,4.0,252.0,3193.309
3193319.0,221.0,33.0,3.0,254.0,3193.319
3193329.0,221.0,32.0,4.0,256.0,3193.329
3193339.0,225.0,32.0,4.0,261.0,3193.339
3193349.0,228.0,32.0,5.0,261.0,3193.349
3193359.0,220.0,32.0,4.0,253.0,3193.359
3193369.0,222.0,32.0,4.0,255.0,3193.369
3193379.0,224.0,33.0,3.0,262.0,3193.379
3193389.0,227.0,32.0,3.0,262.0,3193.389
3193399.0,229.0,32.0,4.0,261.0,3193.399
3193409.0,220.0,32.0,3.0,252.0,3193.409
3193419.0,223.0,31.0,3.0,255.0,3193.419
3193430.0,226.0,32.0,5.0,261.0,3193.43
3193440.0,227.0,32.0,3.0,262.0,3193.44
3193450.0,227.0,32.0,3.0,257.0,3193.45
3193460.0,219.0,32.0,3.0,250.0,3193.46
3193470.0,224.0,32.0,4.0,257.0,3193.47
3193480.0,228.0,31.0,4.0,259.0,3193.48
3193490.0,226.0,32.0,3.0,258.0,3193.49
3193500.0,226.0,32.0,3.0,254.0,3193.5
3193510.0,218.0,33.0,3.0,246.0,3193.51
3193520.0,223.0,32.0,3.0,253.0,3193.52
3193530.0,228.0,32.0,3.0,262.0,3193.53
3193540.0,227.0,32.0,4.0,259.0,3193.54
3193550.0,226.0,31.0,3.0,257.0,3193.55
3193560.0,219.0,31.0,4.0,249.0,3193.56
3193570.0,222.0,32.0,4.0,255.0,3193.57
3193580.0,228.0,32.0,3.0,263.0,3193.58
3193590.0,227.0,33.0,3.0,260.0,3193.59
3193600.0,228.0,32.0,3.0,259.0,3193.6
3193610.0,222.0,31.0,4.0,251.0,3193.61
3193620.0,225.0,32.0,3.0,259.0,3193.62
3193630.0,231.0,32.0,4.0,265.0,3193.63
3193640.0,227.0,33.0,3.0,258.0,3193.64
3193650.0,228.0,32.0,4.0,258.0,3193.65
3193660.0,220.0,32.0,4.0,250.0,3193.66
3193670.0,225.0,32.0,4.0,257.0,3193.67
3193680.0,230.0,32.0,2.0,263.0,3193.68
3193690.0,229.0,32.0,4.0,261.0,3193.69
3193700.0,227.0,34.0,3.0,260.0,3193.7
3193710.0,219.0,32.0,4.0,250.0,3193.71
3193720.0,224.0,32.0,3.0,259.0,3193.72
3193730.0,228.0,32.0,4.0,260.0,3193.73
3193740.0,227.0,31.0,3.0,257.0,3193.74
3193750.0,225.0,33.0,3.0,254.0,3193.75
3193760.0,218.0,32.0,3.0,245.0,3193.76
3193771.0,224.0,32.0,3.0,252.0,3193.771
3193781.0,230.0,32.0,4.0,255.0,3193.781
3193791.0,224.0,32.0,3.0,247.0,3193.791
3193801.0,224.0,33.0,4.0,246.0,3193.801
3193811.0,220.0,33.0,3.0,246.0,3193.811
3193821.0,226.0,32.0,4.0,253.0,3193.821
3193831.0,229.0,34.0,3.0,257.0,3193.831
3193841.0,223.0,32.0,4.0,250.0,3193.841
3193851.0,224.0,33.0,3.0,253.0,3193.851
3193861.0,220.0,33.0,5.0,251.0,3193.861
3193871.0,228.0,32.0,4.0,259.0,3193.871
3193881.0,230.0,33.0,4.0,259.0,3193.881
3193891.0,222.0,33.0,3.0,250.0,3193.891
3193901.0,223.0,32.0,3.0,252.0,3193.901
3193911.0,217.0,33.0,3.0,247.0,3193.911
3193921.0,227.0,33.0,4.0,258.0,3193.921
3193931.0,229.0,33.0,3.0,258.0,3193.931
3193942.0,221.0,32.0,4.0,246.0,3193.942
3193952.0,223.0,32.0,4.0,249.0,3193.952
3193962.0,225.0,33.0,3.0,251.0,3193.962
3193972.0,228.0,32.0,3.0,255.0,3193.972
3193982.0,227.0,32.0,4.0,254.0,3193.982
3193992.0,224.0,31.0,4.0,248.0,3193.992
3194002.0,224.0,32.0,3.0,250.0,3194.002
3194012.0,228.0,32.0,4.0,257.0,3194.012
3194022.0,230.0,33.0,3.0,260.0,3194.022
3194032.0,231.0,32.0,4.0,258.0,3194.032
3194042.0,222.0,32.0,4.0,250.0,3194.042
3194052.0,225.0,32.0,5.0,254.0,3194.052
3194062.0,229.0,31.0,3.0,262.0,3194.062
3194072.0,229.0,32.0,4.0,260.0,3194.072
3194082.0,230.0,32.0,3.0,259.0,3194.082
3194092.0,222.0,32.0,3.0,249.0,3194.092
3194102.0,224.0,31.0,3.0,253.0,3194.102
3194112.0,224.0,32.0,4.0,254.0,3194.112
3194122.0,230.0,31.0,4.0,259.0,3194.122
3194132.0,228.0,32.0,4.0,258.0,3194.132
3194142.0,221.0,31.0,4.0,249.0,3194.142
3194152.0,222.0,32.0,3.0,252.0,3194.152
3194162.0,223.0,32.0,4.0,255.0,3194.162
3194172.0,225.0,32.0,4.0,258.0,3194.172
3194182.0,226.0,32.0,5.0,256.0,3194.182
3194192.0,218.0,31.0,3.0,248.0,3194.192
3194202.0,223.0,31.0,3.0,254.0,3194.202
3194212.0,225.0,32.0,3.0,258.0,3194.212
3194222.0,227.0,31.0,4.0,255.0,3194.222
3194232.0,225.0,32.0,3.0,254.0,3194.232
3194242.0,220.0,32.0,4.0,248.0,3194.242
3194252.0,222.0,31.0,4.0,250.0,3194.252
3194262.0,224.0,32.0,3.0,256.0,3194.262
3194272.0,225.0,31.0,4.0,256.0,3194.272
3194283.0,224.0,31.0,3.0,253.0,3194.283
3194293.0,218.0,30.0,4.0,243.0,3194.293
3194303.0,224.0,32.0,3.0,255.0,3194.303
3194313.0,230.0,31.0,4.0,261.0,3194.313
3194323.0,225.0,31.0,3.0,255.0,3194.323
3194333.0,224.0,31.0,3.0,254.0,3194.333
3194343.0,217.0,32.0,3.0,243.0,3194.343
3194353.0,224.0,30.0,4.0,250.0,3194.353
3194363.0,228.0,32.0,3.0,255.0,3194.363
3194373.0,226.0,32.0,3.0,251.0,3194.373
3194383.0,225.0,31.0,4.0,250.0,3194.383
3194393.0,217.0,31.0,4.0,241.0,3194.393
3194403.0,225.0,32.0,3.0,253.0,3194.403
3194413.0,227.0,32.0,3.0,254.0,3194.413
3194423.0,227.0,32.0,3.0,250.0,3194.423
3194433.0,226.0,32.0,4.0,252.0,3194.433
3194443.0,220.0,33.0,3.0,245.0,3194.443
3194454.0,226.0,32.0,3.0,254.0,3194.454
3194464.0,229.0,32.0,4.0,256.0,3194.464
3194474.0,222.0,32.0,3.0,246.0,3194.474
3194484.0,223.0,32.0,4.0,246.0,3194.484
3194494.0,222.0,33.0,4.0,247.0,3194.494
3194504.0,227.0,32.0,5.0,250.0,3194.504
3194514.0,228.0,33.0,4.0,253.0,3194.514
3194524.0,222.0,32.0,4.0,245.0,3194.524
3194534.0,224.0,33.0,3.0,248.0,3194.534
3194544.0,220.0,32.0,4.0,246.0,3194.544
3194554.0,228.0,32.0,5.0,255.0,3194.554
3194564.0,228.0,33.0,5.0,253.0,3194.564
3194574.0,222.0,31.0,4.0,245.0,3194.574
3194584.0,223.0,33.0,4.0,245.0,3194.584
3194594.0,220.0,33.0,3.0,244.0,3194.594
3194604.0,227.0,34.0,3.0,251.0,3194.604
3194614.0,227.0,34.0,4.0,249.0,3194.614
3194624.0,223.0,34.0,3.0,248.0,3194.624
3194634.0,224.0,35.0,4.0,250.0,3194.634
3194644.0,222.0,35.0,4.0,252.0,3194.644
3194654.0,228.0,34.0,4.0,258.0,3194.654
3194664.0,229.0,36.0,3.0,257.0,3194.664
3194674.0,224.0,35.0,3.0,250.0,3194.674
3194684.0,225.0,36.0,3.0,253.0,3194.684
3194694.0,225.0,36.0,5.0,254.0,3194.694
3194704.0,229.0,36.0,2.0,259.0,3194.704
3194714.0,230.0,38.0,3.0,261.0,3194.714
3194724.0,222.0,37.0,4.0,252.0,3194.724
3194734.0,224.0,38.0,3.0,254.0,3194.734
3194744.0,226.0,42.0,4.0,256.0,3194.744
3194754.0,229.0,40.0,4.0,258.0,3194.754
3194764.0,231.0,43.0,4.0,258.0,3194.764
3194774.0,222.0,46.0,4.0,250.0,3194.774
3194784.0,223.0,45.0,4.0,253.0,3194.784
3194795.0,225.0,50.0,2.0,256.0,3194.795
3194805.0,228.0,48.0,4.0,256.0,3194.805
3194815.0,226.0,49.0,4.0,254.0,3194.815
3194825.0,221.0,51.0,5.0,245.0,3194.825
3194835.0,226.0,48.0,4.0,254.0,3194.835
3194845.0,228.0,48.0,4.0,256.0,3194.845
3194855.0,230.0,47.0,3.0,259.0,3194.855
3194865.0,227.0,47.0,3.0,255.0,3194.865
3194875.0,221.0,48.0,3.0,246.0,3194.875
3194885.0,225.0,46.0,4.0,251.0,3194.885
3194895.0,230.0,49.0,4.0,258.0,3194.895
3194905.0,229.0,49.0,4.0,258.0,3194.905
3194915.0,227.0,48.0,3.0,258.0,3194.915
3194925.0,222.0,47.0,3.0,250.0,3194.925
3194935.0,225.0,44.0,3.0,256.0,3194.935
3194945.0,229.0,42.0,3.0,261.0,3194.945
3194955.0,229.0,41.0,4.0,259.0,3194.955
3194966.0,226.0,41.0,4.0,256.0,3194.966
3194976.0,220.0,41.0,4.0,247.0,3194.976
3194986.0,229.0,41.0,3.0,260.0,3194.986
3194996.0,230.0,44.0,3.0,259.0,3194.996
3195006.0,227.0,46.0,4.0,253.0,3195.006
3195016.0,228.0,46.0,4.0,252.0,3195.016
3195026.0,221.0,49.0,3.0,246.0,3195.026
3195036.0,231.0,46.0,4.0,260.0,3195.036
3195046.0,232.0,48.0,3.0,260.0,3195.046
3195056.0,229.0,45.0,3.0,258.0,3195.056
3195066.0,228.0,43.0,4.0,259.0,3195.066
3195076.0,221.0,44.0,4.0,250.0,3195.076
3195086.0,228.0,43.0,4.0,258.0,3195.086
3195096.0,230.0,47.0,3.0,258.0,3195.096
3195106.0,225.0,52.0,4.0,254.0,3195.106
3195116.0,225.0,52.0,3.0,254.0,3195.116
3195126.0,221.0,54.0,4.0,248.0,3195.126
3195136.0,226.0,52.0,3.0,255.0,3195.136
3195146.0,231.0,57.0,4.0,261.0,3195.146
3195156.0,226.0,61.0,2.0,254.0,3195.156
3195166.0,226.0,57.0,3.0,256.0,3195.166
3195176.0,223.0,59.0,3.0,256.0,3195.176
3195186.0,228.0,54.0,4.0,258.0,3195.186
3195196.0,231.0,52.0,3.0,262.0,3195.196
3195206.0,227.0,51.0,4.0,253.0,3195.206
3195216.0,227.0,49.0,4.0,254.0,3195.216
3195226.0,221.0,50.0,3.0,247.0,3195.226
3195236.0,229.0,45.0,3.0,257.0,3195.236
3195246.0,231.0,46.0,3.0,262.0,3195.246
3195256.0,225.0,46.0,4.0,251.0,3195.256
3195266.0,225.0,44.0,4.0,253.0,3195.266
3195276.0,221.0,46.0,4.0,248.0,3195.276
3195286.0,228.0,43.0,2.0,257.0,3195.286
3195296.0,231.0,41.0,4.0,257.0,3195.296
3195307.0,224.0,40.0,3.0,252.0,3195.307
3195317.0,225.0,38.0,4.0,252.0,3195.317
3195327.0,225.0,37.0,4.0,255.0,3195.327
3195337.0,230.0,35.0,4.0,258.0,3195.337
3195347.0,228.0,35.0,4.0,257.0,3195.347
3195357.0,224.0,33.0,3.0,253.0,3195.357
3195367.0,225.0,33.0,3.0,255.0,3195.367
3195377.0,227.0,33.0,3.0,258.0,3195.377
3195387.0,229.0,32.0,4.0,259.0,3195.387
3195397.0,229.0,32.0,4.0,258.0,3195.397
3195407.0,223.0,31.0,4.0,248.0,3195.407
3195417.0,223.0,31.0,3.0,250.0,3195.417
3195427.0,227.0,29.0,4.0,256.0,3195.427
3195437.0,229.0,31.0,3.0,258.0,3195.437
3195447.0,229.0,30.0,4.0,253.0,3195.447
3195457.0,221.0,29.0,4.0,247.0,3195.457
3195467.0,224.0,29.0,5.0,250.0,3195.467
3195478.0,228.0,29.0,4.0,255.0,3195.478
3195488.0,227.0,29.0,3.0,251.0,3195.488
3195498.0,226.0,30.0,3.0,250.0,3195.498
3195508.0,219.0,29.0,3.0,242.0,3195.508
3195518.0,226.0,29.0,4.0,254.0,3195.518
3195528.0,230.0,29.0,4.0,256.0,3195.528
3195538.0,228.0,30.0,3.0,253.0,3195.538
3195548.0,225.0,30.0,3.0,249.0,3195.548
3195558.0,219.0,30.0,3.0,249.0,3195.558
3195568.0,224.0,30.0,3.0,255.0,3195.568
3195578.0,230.0,29.0,4.0,261.0,3195.578
3195588.0,227.0,30.0,4.0,256.0,3195.588
3195598.0,227.0,29.0,4.0,256.0,3195.598
3195608.0,219.0,30.0,4.0,250.0,3195.608
3195618.0,223.0,29.0,3.0,257.0,3195.618
3195628.0,229.0,31.0,3.0,262.0,3195.628
3195638.0,224.0,30.0,4.0,259.0,3195.638
3195648.0,226.0,30.0,3.0,260.0,3195.648
3195658.0,219.0,30.0,5.0,251.0,3195.658
3195668.0,224.0,30.0,3.0,259.0,3195.668
3195678.0,229.0,29.0,4.0,263.0,3195.678
3195688.0,224.0,29.0,3.0,257.0,3195.688
3195698.0,225.0,29.0,3.0,257.0,3195.698
3195708.0,217.0,29.0,3.0,248.0,3195.708
3195718.0,224.0,29.0,4.0,258.0,3195.718
3195728.0,229.0,27.0,4.0,259.0,3195.728
3195738.0,224.0,31.0,3.0,255.0,3195.738
3195748.0,223.0,31.0,4.0,253.0,3195.748
3195758.0,216.0,43.0,3.0,245.0,3195.758
3195768.0,225.0,39.0,4.0,256.0,3195.768
3195778.0,229.0,50.0,4.0,260.0,3195.778
3195788.0,227.0,59.0,4.0,256.0,3195.788
3195798.0,225.0,58.0,4.0,256.0,3195.798
3195808.0,218.0,61.0,4.0,250.0,3195.808
3195819.0,227.0,60.0,3.0,264.0,3195.819
3195829.0,230.0,63.0,4.0,262.0,3195.829
3195839.0,222.0,63.0,4.0,253.0,3195.839
3195849.0,224.0,59.0,4.0,257.0,3195.849
3195859.0,224.0,64.0,4.0,260.0,3195.859
3195869.0,226.0,61.0,3.0,263.0,3195.869
3195879.0,229.0,64.0,4.0,263.0,3195.879
3195889.0,220.0,70.0,3.0,254.0,3195.889
3195899.0,222.0,64.0,4.0,256.0,3195.899
3195909.0,218.0,69.0,4.0,255.0,3195.909
3195919.0,227.0,67.0,4.0,261.0,3195.919
3195929.0,229.0,69.0,3.0,264.0,3195.929
3195939.0,221.0,72.0,4.0,257.0,3195.939
3195949.0,224.0,70.0,3.0,260.0,3195.949
3195959.0,219.0,76.0,3.0,256.0,3195.959
3195969.0,226.0,75.0,3.0,262.0,3195.969
3195979.0,228.0,76.0,5.0,259.0,3195.979
3195990.0,218.0,80.0,3.0,251.0,3195.99
3196000.0,221.0,75.0,3.0,253.0,3196.0
3196010.0,225.0,79.0,3.0,258.0,3196.01
3196020.0,225.0,80.0,4.0,256.0,3196.02
3196030.0,224.0,76.0,4.0,254.0,3196.03
3196040.0,218.0,79.0,4.0,247.0,3196.04
3196050.0,221.0,75.0,4.0,252.0,3196.05
3196060.0,226.0,73.0,3.0,258.0,3196.06
3196070.0,224.0,73.0,3.0,256.0,3196.07
3196080.0,226.0,71.0,3.0,255.0,3196.08
3196090.0,218.0,78.0,4.0,249.0,3196.09
3196100.0,221.0,74.0,3.0,256.0,3196.1
3196110.0,229.0,78.0,5.0,258.0,3196.11
3196120.0,226.0,78.0,2.0,258.0,3196.12
3196130.0,226.0,75.0,4.0,254.0,3196.13
3196140.0,218.0,79.0,3.0,247.0,3196.14
3196150.0,222.0,74.0,3.0,252.0,3196.15
3196160.0,226.0,78.0,4.0,258.0,3196.16
3196170.0,227.0,82.0,4.0,259.0,3196.17
3196180.0,227.0,79.0,3.0,256.0,3196.18
3196190.0,219.0,86.0,3.0,249.0,3196.19
3196200.0,224.0,81.0,3.0,255.0,3196.2
3196210.0,227.0,89.0,3.0,257.0,3196.21
3196220.0,227.0,90.0,4.0,256.0,3196.22
3196230.0,225.0,87.0,3.0,255.0,3196.23
3196240.0,219.0,91.0,4.0,246.0,3196.24
3196250.0,221.0,88.0,2.0,252.0,3196.25
3196260.0,226.0,91.0,3.0,259.0,3196.26
3196270.0,224.0,95.0,3.0,255.0,3196.27
3196280.0,224.0,88.0,4.0,251.0,3196.28
3196290.0,217.0,91.0,4.0,244.0,3196.29
3196300.0,221.0,87.0,5.0,249.0,3196.3
3196310.0,227.0,87.0,4.0,256.0,3196.31
3196320.0,224.0,87.0,3.0,254.0,3196.32
3196331.0,224.0,83.0,3.0,252.0,3196.331
3196341.0,216.0,82.0,3.0,246.0,3196.341
3196351.0,225.0,78.0,4.0,259.0,3196.351
3196361.0,229.0,81.0,4.0,262.0,3196.361
3196371.0,222.0,84.0,4.0,253.0,3196.371
3196381.0,224.0,80.0,4.0,256.0,3196.381
3196391.0,217.0,83.0,4.0,249.0,3196.391
3196401.0,224.0,83.0,3.0,258.0,3196.401
3196411.0,228.0,84.0,4.0,258.0,3196.411
3196421.0,223.0,88.0,3.0,254.0,3196.421
3196431.0,224.0,84.0,4.0,254.0,3196.431
3196441.0,217.0,88.0,4.0,250.0,3196.441
3196451.0,225.0,89.0,4.0,260.0,3196.451
3196461.0,228.0,92.0,3.0,261.0,3196.461
3196471.0,222.0,97.0,3.0,251.0,3196.471
3196481.0,223.0,92.0,4.0,253.0,3196.481
3196491.0,218.0,95.0,4.0,249.0,3196.491
3196502.0,225.0,97.0,3.0,259.0,3196.502
3196512.0,228.0,96.0,4.0,259.0,3196.512
3196522.0,219.0,98.0,4.0,250.0,3196.522
3196532.0,222.0,94.0,3.0,251.0,3196.532
3196542.0,224.0,96.0,3.0,255.0,3196.542
3196552.0,227.0,95.0,3.0,258.0,3196.552
3196562.0,229.0,91.0,5.0,257.0,3196.562
3196572.0,219.0,95.0,4.0,250.0,3196.572
3196582.0,222.0,91.0,4.0,253.0,3196.582
3196592.0,221.0,94.0,3.0,253.0,3196.592
3196602.0,226.0,94.0,4.0,258.0,3196.602
3196612.0,225.0,91.0,3.0,254.0,3196.612
3196622.0,217.0,94.0,5.0,244.0,3196.622
3196632.0,222.0,90.0,4.0,250.0,3196.632
3196642.0,220.0,91.0,4.0,253.0,3196.642
3196652.0,225.0,93.0,4.0,260.0,3196.652
3196662.0,226.0,90.0,4.0,258.0,3196.662
3196672.0,220.0,94.0,3.0,252.0,3196.672
3196682.0,221.0,91.0,4.0,253.0,3196.682
3196692.0,225.0,94.0,4.0,257.0,3196.692
3196702.0,226.0,100.0,4.0,258.0,3196.702
3196712.0,226.0,96.0,3.0,256.0,3196.712
3196722.0,219.0,101.0,3.0,250.0,3196.722
3196732.0,222.0,96.0,4.0,252.0,3196.732
3196742.0,225.0,97.0,4.0,256.0,3196.742
3196752.0,226.0,102.0,5.0,254.0,3196.752
3196762.0,228.0,99.0,4.0,254.0,3196.762
3196772.0,218.0,103.0,3.0,245.0,3196.772
3196782.0,222.0,100.0,3.0,250.0,3196.782
3196792.0,225.0,102.0,3.0,258.0,3196.792
3196802.0,226.0,103.0,3.0,257.0,3196.802
3196812.0,228.0,100.0,4.0,256.0,3196.812
3196822.0,219.0,103.0,4.0,247.0,3196.822
3196832.0,222.0,100.0,3.0,251.0,3196.832
3196843.0,227.0,103.0,4.0,259.0,3196.843
3196853.0,224.0,107.0,3.0,254.0,3196.853
3196863.0,225.0,102.0,3.0,253.0,3196.863
3196873.0,217.0,104.0,4.0,244.0,3196.873
3196883.0,225.0,102.0,5.0,255.0,3196.883
3196893.0,228.0,105.0,3.0,257.0,3196.893
3196903.0,225.0,110.0,3.0,252.0,3196.903
3196913.0,225.0,107.0,3.0,251.0,3196.913
3196923.0,217.0,112.0,3.0,244.0,3196.923
3196933.0,221.0,107.0,3.0,250.0,3196.933
3196943.0,229.0,113.0,4.0,258.0,3196.943
3196953.0,224.0,114.0,4.0,253.0,3196.953
3196963.0,224.0,109.0,4.0,249.0,3196.963
3196973.0,217.0,116.0,3.0,245.0,3196.973
3196983.0,223.0,111.0,3.0,250.0,3196.983
3196993.0,229.0,114.0,4.0,256.0,3196.993
3197003.0,224.0,119.0,4.0,249.0,3197.003
3197014.0,225.0,113.0,4.0,249.0,3197.014
3197024.0,217.0,114.0,3.0,245.0,3197.024
3197034.0,225.0,117.0,3.0,256.0,3197.034
3197044.0,229.0,117.0,3.0,260.0,3197.044
3197054.0,221.0,119.0,4.0,250.0,3197.054
3197064.0,224.0,116.0,4.0,255.0,3197.064
3197074.0,219.0,118.0,5.0,253.0,3197.074
3197084.0,227.0,122.0,3.0,262.0,3197.084
3197094.0,229.0,119.0,4.0,263.0,3197.094
3197104.0,223.0,126.0,3.0,256.0,3197.104
3197114.0,224.0,119.0,3.0,257.0,3197.114
3197124.0,220.0,123.0,3.0,254.0,3197.124
3197134.0,227.0,125.0,4.0,261.0,3197.134
3197144.0,230.0,122.0,3.0,262.0,3197.144
3197154.0,222.0,130.0,4.0,255.0,3197.154
3197164.0,224.0,124.0,3.0,258.0,3197.164
3197174.0,223.0,129.0,3.0,258.0,3197.174
3197184.0,227.0,130.0,4.0,259.0,3197.184
3197194.0,229.0,128.0,4.0,263.0,3197.194
3197204.0,222.0,134.0,4.0,252.0,3197.204
3197214.0,223.0,128.0,4.0,254.0,3197.214
3197224.0,223.0,133.0,3.0,256.0,3197.224
3197234.0,225.0,137.0,3.0,261.0,3197.234
3197244.0,229.0,132.0,4.0,259.0,3197.244
3197254.0,221.0,140.0,4.0,252.0,3197.254
3197264.0,223.0,134.0,4.0,253.0,3197.264
3197274.0,218.0,135.0,4.0,251.0,3197.274
3197284.0,226.0,136.0,4.0,259.0,3197.284
3197294.0,230.0,133.0,3.0,264.0,3197.294
3197304.0,220.0,137.0,4.0,252.0,3197.304
3197314.0,224.0,132.0,4.0,257.0,3197.314
3197324.0,221.0,137.0,4.0,257.0,3197.324
3197334.0,229.0,141.0,5.0,264.0,3197.334
3197344.0,230.0,135.0,3.0,262.0,3197.344
3197355.0,221.0,140.0,3.0,253.0,3197.355
3197365.0,223.0,135.0,4.0,257.0,3197.365
3197375.0,226.0,137.0,4.0,262.0,3197.375
3197385.0,226.0,143.0,4.0,262.0,3197.385
3197395.0,228.0,137.0,5.0,262.0,3197.395
3197405.0,220.0,142.0,4.0,254.0,3197.405
3197415.0,223.0,137.0,4.0,259.0,3197.415
3197425.0,227.0,140.0,3.0,266.0,3197.425
3197435.0,225.0,146.0,3.0,262.0,3197.435
3197445.0,227.0,138.0,3.0,263.0,3197.445
3197455.0,219.0,144.0,4.0,253.0,3197.455
3197465.0,222.0,139.0,3.0,257.0,3197.465
3197475.0,228.0,142.0,3.0,265.0,3197.475
3197485.0,225.0,149.0,4.0,261.0,3197.485
3197495.0,226.0,143.0,3.0,258.0,3197.495
3197505.0,217.0,147.0,3.0,249.0,3197.505
3197515.0,221.0,142.0,4.0,255.0,3197.515
3197526.0,229.0,146.0,4.0,263.0,3197.526
3197536.0,224.0,153.0,4.0,259.0,3197.536
3197546.0,225.0,144.0,4.0,259.0,3197.546
