55.0,55.0,55.0,55.0,55.0,55.0,56.0,56.0,55.0,55.0,56.0,55.0,54.0,54.0,53.0,52.0,51.0,51.0,51.0,49.0,49.0,49.0,50.0,50.0,50.0,51.0,51.0,53.0,52.0,53.0,52.0,54.0,54.0,53.0,55.0,55.0,54.0,55.0,54.0,53.0,52.0,53.0,52.0,53.0,54.0,53.0,52.0,53.0,53.0,52.0,53.0,52.0,51.0,52.0,51.0,53.0,53.0,53.0,53.0,51.0,53.0,51.0,51.0,50.0,48.0,49.0,48.0,49.0,47.0,49.0,49.0,48.0,48.0,48.0,47.0,47.0,47.0,47.0,47.0,47.0,46.0,46.0,46.0,46.0,46.0,46.0,46.0,46.0,47.0,46.0,47.0,48.0,49.0,49.0,50.0,51.0,50.0,53.0,51.0,50.0,53.0,54.0,54.0,53.0,55.0,56.0,56.0,57.0,56.0,57.0,57.0,58.0,57.0,57.0,59.0,58.0,56.0,55.0,53.0,56.0,56.0,57.0,57.0,58.0,57.0,57.0,58.0,57.0,60.0,58.0,57.0,57.0,58.0,59.0,58.0,58.0,59.0,58.0,59.0,59.0,60.0,60.0,61.0,61.0,62.0,63.0,64.0,63.0,64.0,63.0,62.0,62.0,60.0,61.0,60.0,58.0,58.0,56.0,56.0,54.0,54.0,53.0,52.0,53.0,52.0,53.0,53.0,54.0,56.0,54.0,54.0,53.0,52.0,52.0,52.0,52.0,50.0,51.0,50.0,51.0,50.0,51.0,52.0,50.0,51.0,52.0,52.0,53.0,51.0,50.0,50.0,49.0,49.0,48.0,50.0,49.0,52.0,51.0,51.0,51.0,51.0,50.0,51.0,51.0,50.0,52.0,52.0,51.0,52.0,52.0,54.0,52.0,53.0,53.0,53.0,52.0,53.0,56.0,56.0,57.0,57.0,57.0,56.0,57.0,59.0,58.0,58.0,59.0,59.0,57.0,60.0,59.0,59.0,58.0,58.0,56.0,57.0,57.0,58.0,58.0,59.0,61.0,62.0,62.0,62.0,61.0,60.0,60.0,58.0,56.0,57.0,56.0,56.0,55.0,56.0,55.0,56.0,56.0,57.0,61.0,60.0,61.0,60.0,59.0,62.0,61.0,64.0,62.0,63.0,65.0,65.0,66.0,65.0,65.0,64.0,63.0,65.0,66.0,65.0,65.0,67.0,66.0,68.0,67.0,67.0,66.0,65.0,67.0,65.0,66.0,69.0,68.0,69.0,69.0,69.0,69.0,70.0,70.0,69.0,70.0,69.0,71.0,70.0,70.0,69.0,67.0,66.0,64.0,64.0,63.0,62.0,63.0,64.0,64.0,65.0,68.0,68.0,68.0,68.0,66.0,66.0,65.0,65.0,65.0,66.0,66.0,66.0,66.0,65.0,67.0,66.0,65.0,64.0,64.0,64.0,64.0,64.0,64.0,64.0,64.0,64.0,63.0,63.0,63.0,62.0,63.0,65.0,65.0,64.0,64.0,64.0,64.0,65.0,65.0,63.0,63.0,60.0,59.0,58.0,56.0,55.0,56.0,55.0,53.0,55.0,54.0,53.0,53.0,53.0,52.0,51.0,52.0,51.0,52.0,51.0,51.0,51.0,49.0,51.0,49.0,50.0,52.0,53.0,52.0,53.0,53.0,52.0,52.0,52.0,50.0,50.0,49.0,47.0,47.0,47.0,48.0,48.0,47.0,47.0,47.0,47.0,47.0,47.0,47.0,47.0,47.0,48.0,48.0,48.0,47.0,48.0,48.0,49.0,52.0,49.0,49.0,48.0,49.0,48.0,49.0,48.0,47.0,47.0,47.0,45.0,46.0,47.0,46.0,46.0,45.0,47.0,46.0,46.0,46.0,46.0,46.0,46.0,46.0,46.0,46.0,47.0,49.0,47.0,48.0,49.0,51.0,51.0,49.0,49.0,48.0,50.0,50.0,50.0,52.0,53.0,51.0,52.0,51.0,51.0,50.0,50.0,50.0,51.0,50.0,50.0,49.0,49.0,47.0,47.0,46.0,45.0,44.0,45.0,44.0,46.0,45.0,45.0,45.0,44.0,45.0,45.0,44.0,45.0,47.0,48.0,47.0,48.0,49.0,50.0,49.0,51.0,49.0,48.0,49.0,48.0,48.0,48.0,47.0,48.0,48.0,47.0,48.0,47.0,46.0,46.0,48.0,48.0,48.0,48.0,48.0,48.0,49.0,49.0,47.0,48.0,48.0,48.0,48.0,51.0,52.0,51.0,53.0,51.0,53.0,53.0,53.0,53.0,53.0,53.0,51.0,52.0,51.0,52.0,51.0,52.0,50.0,51.0,51.0,52.0,52.0,55.0,54.0,56.0,54.0,54.0,54.0,56.0,54.0,52.0,52.0,53.0,54.0,54.0,54.0,55.0,54.0,55.0,57.0,57.0,57.0,60.0,60.0,58.0,57.0,57.0,56.0,56.0,56.0,57.0,55.0,54.0,53.0,53.0,52.0,53.0,56.0,54.0,52.0,53.0,54.0,55.0,55.0,57.0,54.0,53.0,54.0,53.0,53.0,53.0,55.0,58.0,58.0,57.0,56.0,56.0,57.0,56.0,54.0,54.0,56.0,59.0,58.0,58.0,58.0,58.0,58.0,56.0,57.0,58.0,59.0,59.0,58.0,57.0,56.0,53.0,53.0,55.0,57.0,55.0,54.0,55.0,55.0,56.0,53.0,52.0,51.0,52.0,53.0,53.0,54.0,54.0,54.0,53.0,53.0,52.0,52.0,53.0,52.0,52.0,50.0,51.0,51.0,51.0,50.0,49.0,49.0,48.0,47.0,46.0,46.0,46.0,47.0,46.0,45.0,46.0,45.0,47.0,47.0,47.0,50.0,51.0,52.0,54.0,54.0,56.0,56.0,58.0,57.0,57.0,56.0,58.0,56.0,57.0,59.0,58.0,60.0,59.0,59.0,61.0,59.0,62.0,59.0,60.0,59.0,58.0,59.0,57.0,57.0,56.0,55.0,56.0,55.0,56.0,56.0,56.0,55.0,55.0,55.0,55.0,56.0,57.0,58.0,60.0,61.0,60.0,58.0,58.0,59.0,61.0,62.0,64.0,65.0,69.0,69.0,68.0,71.0,73.0,76.0,79.0,80.0,81.0,81.0,82.0,81.0,78.0,78.0,78.0,74.0,72.0,74.0,74.0,73.0,70.0,69.0,66.0,65.0,65.0,63.0,60.0,59.0,59.0,58.0,58.0,57.0,56.0,57.0,57.0,56.0,59.0,58.0,62.0,62.0,59.0,59.0,56.0,57.0,56.0,57.0,55.0,56.0,56.0,56.0,59.0,57.0,59.0,57.0,55.0,57.0,55.0,54.0,53.0,52.0,52.0,52.0,52.0,51.0,52.0,50.0,50.0,49.0,51.0,52.0,53.0,53.0,52.0,54.0,53.0,52.0,54.0,54.0,54.0,56.0,56.0,57.0,56.0,56.0,55.0,54.0,54.0,54.0,55.0,55.0,55.0,54.0,55.0,55.0,54.0,55.0,56.0,56.0,56.0,56.0,56.0,57.0,57.0,57.0,57.0,55.0,54.0,53.0,53.0,53.0,53.0,55.0,54.0,55.0,53.0,54.0,54.0,53.0,53.0,51.0,50.0,48.0,49.0,49.0,48.0,48.0,46.0,47.0,46.0,46.0,46.0,45.0,45.0,46.0,46.0,47.0,47.0,46.0,46.0,47.0,44.0,46.0,45.0,46.0,46.0,45.0,45.0,46.0,45.0,45.0,45.0,45.0,46.0,46.0,46.0,45.0,45.0,44.0,44.0,44.0,43.0,43.0,44.0,44.0,45.0,45.0,44.0,43.0,43.0,44.0,43.0,44.0,44.0,42.0,43.0,43.0,44.0,44.0,45.0,45.0,46.0,47.0,46.0,46.0,47.0,47.0,47.0,46.0,48.0,48.0,48.0,47.0,47.0,47.0,46.0,47.0,48.0,49.0,49.0,47.0,48.0,48.0,48.0,48.0,50.0,50.0,50.0,50.0,52.0,52.0,52.0,53.0,52.0,51.0,51.0,49.0,50.0,50.0,49.0,49.0,49.0,49.0,49.0,47.0,48.0,47.0,47.0,47.0,48.0,48.0,50.0,49.0,48.0,47.0,47.0,48.0,47.0,47.0,48.0,48.0,47.0,46.0,47.0,46.0,49.0,48.0,47.0,48.0,48.0,49.0,49.0,50.0,52.0,53.0,54.0,54.0,56.0,55.0,58.0,55.0,57.0,58.0,57.0,59.0,58.0,58.0,59.0,59.0,58.0,59.0,60.0,58.0,59.0,59.0,57.0,58.0,56.0,58.0,58.0,58.0,57.0,57.0,56.0,56.0,58.0,56.0,56.0,57.0
37.0,40.0,40.0,40.0,39.0,40.0,41.0,41.0,40.0,41.0,42.0,40.0,41.0,42.0,41.0,40.0,39.0,39.0,38.0,38.0,37.0,40.0,41.0,40.0,41.0,39.0,41.0,42.0,40.0,40.0,40.0,40.0,38.0,41.0,42.0,40.0,40.0,40.0,39.0,37.0,38.0,37.0,38.0,40.0,39.0,40.0,38.0,39.0,38.0,40.0,40.0,39.0,40.0,39.0,39.0,39.0,38.0,38.0,37.0,37.0,36.0,39.0,40.0,38.0,38.0,38.0,38.0,36.0,37.0,39.0,40.0,40.0,41.0,41.0,40.0,41.0,40.0,40.0,41.0,40.0,43.0,44.0,43.0,43.0,41.0,41.0,41.0,41.0,42.0,42.0,41.0,40.0,39.0,39.0,39.0,37.0,39.0,39.0,39.0,40.0,39.0,39.0,38.0,39.0,38.0,39.0,39.0,38.0,38.0,38.0,38.0,39.0,38.0,40.0,40.0,40.0,39.0,38.0,38.0,39.0,40.0,42.0,43.0,43.0,42.0,42.0,42.0,43.0,46.0,46.0,46.0,47.0,47.0,48.0,51.0,51.0,55.0,53.0,54.0,53.0,54.0,56.0,56.0,56.0,55.0,58.0,57.0,56.0,56.0,55.0,54.0,54.0,53.0,55.0,54.0,55.0,53.0,53.0,52.0,51.0,50.0,50.0,52.0,49.0,51.0,50.0,51.0,51.0,51.0,52.0,53.0,56.0,55.0,58.0,59.0,59.0,60.0,61.0,61.0,62.0,62.0,61.0,62.0,62.0,65.0,63.0,64.0,64.0,65.0,66.0,67.0,67.0,67.0,66.0,67.0,65.0,66.0,67.0,66.0,68.0,66.0,66.0,65.0,65.0,66.0,64.0,62.0,59.0,58.0,56.0,57.0,56.0,57.0,57.0,57.0,54.0,57.0,56.0,56.0,55.0,53.0,50.0,50.0,50.0,51.0,52.0,53.0,52.0,52.0,51.0,55.0,54.0,54.0,51.0,53.0,50.0,52.0,52.0,51.0,49.0,49.0,51.0,52.0,52.0,52.0,50.0,50.0,49.0,47.0,47.0,48.0,48.0,46.0,46.0,47.0,45.0,44.0,44.0,46.0,48.0,48.0,48.0,47.0,45.0,44.0,44.0,46.0,45.0,44.0,44.0,42.0,42.0,44.0,45.0,44.0,43.0,43.0,41.0,41.0,41.0,42.0,41.0,41.0,40.0,38.0,38.0,39.0,40.0,40.0,41.0,42.0,41.0,41.0,42.0,42.0,42.0,41.0,43.0,43.0,46.0,47.0,47.0,47.0,47.0,47.0,47.0,46.0,46.0,46.0,47.0,45.0,47.0,46.0,44.0,43.0,42.0,43.0,43.0,43.0,42.0,40.0,40.0,41.0,42.0,43.0,44.0,44.0,42.0,44.0,43.0,44.0,44.0,43.0,43.0,42.0,43.0,43.0,44.0,44.0,46.0,45.0,44.0,44.0,43.0,42.0,43.0,43.0,43.0,42.0,44.0,44.0,43.0,45.0,45.0,47.0,48.0,46.0,46.0,45.0,44.0,43.0,44.0,43.0,43.0,42.0,43.0,42.0,43.0,43.0,42.0,43.0,44.0,45.0,46.0,47.0,46.0,46.0,46.0,45.0,45.0,45.0,45.0,46.0,44.0,47.0,45.0,46.0,45.0,45.0,44.0,44.0,45.0,45.0,47.0,47.0,47.0,50.0,49.0,49.0,49.0,47.0,47.0,46.0,47.0,46.0,45.0,47.0,47.0,47.0,46.0,46.0,44.0,44.0,43.0,43.0,43.0,41.0,44.0,42.0,44.0,45.0,45.0,46.0,47.0,49.0,48.0,49.0,48.0,48.0,46.0,48.0,48.0,48.0,45.0,44.0,43.0,43.0,42.0,42.0,41.0,40.0,40.0,40.0,40.0,41.0,41.0,39.0,39.0,40.0,39.0,40.0,40.0,41.0,40.0,39.0,38.0,39.0,39.0,37.0,39.0,38.0,39.0,38.0,38.0,38.0,37.0,41.0,39.0,40.0,38.0,38.0,38.0,37.0,38.0,38.0,40.0,38.0,38.0,38.0,38.0,38.0,37.0,40.0,40.0,41.0,42.0,43.0,43.0,43.0,43.0,43.0,43.0,44.0,43.0,43.0,42.0,42.0,43.0,43.0,43.0,41.0,43.0,41.0,42.0,42.0,43.0,42.0,41.0,42.0,42.0,43.0,42.0,41.0,40.0,39.0,41.0,40.0,41.0,40.0,40.0,40.0,39.0,44.0,42.0,41.0,41.0,41.0,42.0,40.0,44.0,44.0,43.0,43.0,43.0,43.0,44.0,46.0,44.0,45.0,44.0,43.0,43.0,43.0,45.0,42.0,41.0,43.0,43.0,44.0,44.0,47.0,47.0,46.0,47.0,46.0,47.0,49.0,54.0,52.0,55.0,57.0,55.0,54.0,54.0,53.0,52.0,51.0,52.0,51.0,51.0,52.0,52.0,50.0,51.0,50.0,51.0,53.0,53.0,56.0,58.0,61.0,63.0,67.0,71.0,71.0,77.0,74.0,78.0,80.0,80.0,83.0,81.0,82.0,82.0,82.0,84.0,83.0,84.0,81.0,84.0,80.0,77.0,78.0,75.0,75.0,73.0,76.0,76.0,71.0,72.0,67.0,68.0,65.0,62.0,64.0,64.0,62.0,61.0,59.0,58.0,57.0,54.0,52.0,51.0,50.0,50.0,47.0,47.0,46.0,46.0,45.0,46.0,44.0,45.0,47.0,46.0,45.0,46.0,46.0,45.0,45.0,45.0,48.0,47.0,46.0,45.0,46.0,44.0,45.0,43.0,44.0,44.0,42.0,43.0,42.0,45.0,45.0,44.0,45.0,46.0,44.0,45.0,45.0,43.0,45.0,44.0,42.0,42.0,42.0,45.0,45.0,45.0,45.0,44.0,45.0,44.0,44.0,43.0,42.0,43.0,45.0,44.0,43.0,43.0,44.0,45.0,45.0,44.0,44.0,45.0,45.0,43.0,42.0,43.0,43.0,44.0,44.0,45.0,44.0,44.0,43.0,45.0,46.0,45.0,44.0,44.0,44.0,45.0,48.0,48.0,48.0,50.0,53.0,52.0,57.0,59.0,59.0,60.0,68.0,65.0,63.0,67.0,67.0,69.0,72.0,69.0,68.0,62.0,62.0,66.0,66.0,63.0,61.0,62.0,65.0,64.0,60.0,59.0,56.0,55.0,57.0,54.0,53.0,52.0,53.0,51.0,50.0,50.0,49.0,50.0,52.0,50.0,49.0,48.0,49.0,48.0,48.0,48.0,47.0,47.0,47.0,45.0,44.0,45.0,44.0,45.0,43.0,44.0,43.0,43.0,44.0,44.0,44.0,43.0,44.0,45.0,43.0,45.0,44.0,46.0,48.0,49.0,50.0,47.0,48.0,45.0,44.0,43.0,43.0,43.0,44.0,47.0,44.0,45.0,43.0,43.0,43.0,41.0,42.0,42.0,42.0,42.0,42.0,42.0,44.0,42.0,40.0,41.0,40.0,39.0,42.0,41.0,40.0,38.0,40.0,39.0,39.0,37.0,37.0,36.0,37.0,37.0,39.0,45.0,44.0,45.0,46.0,44.0,43.0,43.0,42.0,42.0,41.0,41.0,40.0,41.0,42.0,41.0,43.0,40.0,42.0,42.0,42.0,41.0,41.0,41.0,42.0,41.0,43.0,42.0,41.0,41.0,41.0,40.0,41.0,41.0,43.0,42.0,41.0,41.0,40.0,39.0,39.0,39.0,39.0,40.0,40.0,39.0,39.0,38.0,38.0,38.0,37.0,38.0,37.0,39.0,38.0,39.0,39.0,41.0,41.0,40.0,40.0,39.0,38.0,37.0,37.0,38.0,38.0,38.0,37.0,37.0,37.0,38.0,39.0,38.0,41.0,39.0,38.0,40.0,42.0,41.0,38.0,39.0,38.0,39.0,40.0,41.0,42.0,43.0,44.0,43.0,42.0,43.0,42.0,44.0,44.0,45.0,42.0,42.0,45.0,43.0,42.0,42.0,41.0,40.0,39.0,39.0,39.0,39.0,37.0,39.0,39.0,39.0,38.0,37.0,37.0,37.0,36.0,36.0,35.0,38.0,38.0,41.0,40.0,40.0,40.0,41.0,40.0,41.0,42.0,42.0,42.0,43.0,42.0,42.0,42.0,43.0,42.0,43.0,43.0,42.0,42.0,41.0,41.0,40.0,41.0,40.0,40.0,41.0,40.0,41.0,44.0,44.0,42.0,41.0,42.0,41.0,43.0,42.0,42.0,41.0,40.0,40.0,40.0,40.0,41.0,42.0,41.0,41.0,40.0,40.0,39.0,39.0,38.0,38.0,39.0,40.0,40.0,41.0
18.0,28.0,25.0,22.0,21.0,20.0,31.0,26.0,24.0,23.0,21.0,19.0,28.0,29.0,32.0,32.0,30.0,29.0,27.0,25.0,25.0,34.0,31.0,29.0,35.0,33.0,51.0,47.0,42.0,37.0,37.0,33.0,33.0,40.0,38.0,34.0,32.0,32.0,28.0,24.0,22.0,21.0,28.0,31.0,27.0,24.0,23.0,21.0,21.0,20.0,20.0,19.0,24.0,25.0,24.0,31.0,30.0,27.0,24.0,23.0,24.0,27.0,29.0,24.0,25.0,23.0,24.0,22.0,19.0,23.0,21.0,25.0,25.0,21.0,32.0,29.0,27.0,25.0,24.0,22.0,19.0,30.0,28.0,27.0,23.0,21.0,22.0,19.0,23.0,24.0,25.0,22.0,21.0,18.0,19.0,18.0,16.0,25.0,22.0,22.0,19.0,17.0,17.0,16.0,16.0,20.0,18.0,17.0,14.0,27.0,23.0,26.0,25.0,31.0,30.0,27.0,23.0,21.0,25.0,26.0,26.0,35.0,34.0,33.0,31.0,30.0,27.0,27.0,36.0,32.0,36.0,31.0,29.0,27.0,22.0,27.0,24.0,25.0,25.0,24.0,21.0,21.0,19.0,18.0,37.0,35.0,31.0,30.0,26.0,24.0,20.0,30.0,30.0,32.0,27.0,24.0,22.0,20.0,23.0,24.0,29.0,25.0,27.0,24.0,24.0,29.0,27.0,38.0,36.0,39.0,38.0,34.0,32.0,28.0,27.0,24.0,29.0,26.0,26.0,26.0,22.0,20.0,28.0,24.0,24.0,30.0,29.0,25.0,38.0,34.0,31.0,30.0,35.0,34.0,31.0,37.0,40.0,34.0,32.0,30.0,30.0,34.0,40.0,39.0,36.0,32.0,30.0,27.0,25.0,32.0,40.0,36.0,32.0,29.0,26.0,29.0,40.0,37.0,33.0,29.0,27.0,25.0,28.0,39.0,35.0,30.0,28.0,26.0,30.0,43.0,40.0,36.0,30.0,28.0,30.0,27.0,37.0,33.0,29.0,28.0,30.0,29.0,43.0,37.0,34.0,36.0,35.0,31.0,29.0,35.0,31.0,28.0,28.0,24.0,22.0,19.0,20.0,19.0,22.0,21.0,20.0,18.0,17.0,17.0,15.0,17.0,30.0,28.0,24.0,22.0,20.0,18.0,30.0,27.0,23.0,20.0,18.0,19.0,24.0,29.0,32.0,30.0,29.0,25.0,22.0,22.0,24.0,26.0,34.0,33.0,29.0,31.0,36.0,41.0,37.0,33.0,29.0,25.0,31.0,39.0,35.0,32.0,30.0,27.0,25.0,22.0,20.0,23.0,37.0,32.0,31.0,27.0,26.0,23.0,21.0,22.0,29.0,29.0,26.0,25.0,23.0,20.0,31.0,26.0,28.0,30.0,27.0,26.0,23.0,22.0,24.0,32.0,30.0,29.0,26.0,23.0,22.0,18.0,20.0,39.0,37.0,40.0,35.0,33.0,28.0,26.0,23.0,29.0,36.0,32.0,31.0,28.0,24.0,21.0,24.0,21.0,20.0,21.0,19.0,19.0,18.0,29.0,39.0,35.0,39.0,52.0,50.0,44.0,47.0,42.0,37.0,46.0,42.0,36.0,32.0,29.0,26.0,24.0,31.0,32.0,32.0,30.0,27.0,24.0,21.0,22.0,28.0,29.0,30.0,27.0,24.0,21.0,28.0,37.0,36.0,37.0,33.0,29.0,25.0,37.0,38.0,37.0,34.0,30.0,27.0,24.0,37.0,43.0,37.0,34.0,30.0,27.0,25.0,26.0,35.0,32.0,33.0,30.0,29.0,33.0,32.0,34.0,33.0,32.0,33.0,30.0,27.0,25.0,23.0,25.0,33.0,30.0,26.0,26.0,27.0,23.0,38.0,34.0,31.0,35.0,36.0,36.0,32.0,34.0,43.0,39.0,34.0,29.0,29.0,27.0,32.0,29.0,32.0,30.0,26.0,23.0,22.0,26.0,27.0,31.0,33.0,30.0,29.0,28.0,26.0,27.0,38.0,34.0,30.0,28.0,26.0,23.0,20.0,18.0,35.0,32.0,34.0,40.0,36.0,31.0,27.0,33.0,53.0,53.0,46.0,44.0,44.0,50.0,46.0,40.0,39.0,37.0,39.0,44.0,50.0,46.0,40.0,45.0,39.0,39.0,40.0,37.0,33.0,35.0,50.0,44.0,42.0,40.0,41.0,38.0,43.0,40.0,36.0,34.0,29.0,28.0,27.0,27.0,28.0,26.0,26.0,27.0,46.0,42.0,37.0,33.0,34.0,41.0,36.0,34.0,42.0,37.0,36.0,44.0,39.0,45.0,43.0,42.0,46.0,44.0,39.0,34.0,31.0,37.0,33.0,37.0,49.0,43.0,51.0,73.0,69.0,69.0,71.0,74.0,71.0,80.0,109.0,119.0,120.0,123.0,136.0,128.0,113.0,121.0,137.0,158.0,161.0,184.0,192.0,181.0,180.0,186.0,215.0,220.0,234.0,226.0,220.0,234.0,257.0,261.0,250.0,256.0,236.0,230.0,240.0,242.0,246.0,239.0,239.0,243.0,251.0,245.0,229.0,232.0,218.0,228.0,219.0,220.0,220.0,235.0,244.0,236.0,229.0,220.0,198.0,190.0,184.0,191.0,183.0,181.0,167.0,164.0,154.0,151.0,144.0,137.0,140.0,132.0,127.0,121.0,116.0,117.0,119.0,115.0,106.0,112.0,125.0,115.0,106.0,113.0,110.0,110.0,120.0,112.0,100.0,95.0,99.0,91.0,88.0,90.0,90.0,87.0,88.0,86.0,79.0,77.0,73.0,67.0,61.0,57.0,60.0,61.0,60.0,53.0,61.0,59.0,53.0,48.0,53.0,64.0,67.0,68.0,64.0,59.0,59.0,54.0,50.0,57.0,59.0,55.0,54.0,51.0,57.0,53.0,72.0,69.0,59.0,62.0,67.0,79.0,93.0,83.0,75.0,67.0,63.0,61.0,79.0,74.0,68.0,66.0,71.0,63.0,57.0,54.0,49.0,53.0,60.0,58.0,59.0,57.0,50.0,63.0,68.0,62.0,60.0,54.0,54.0,76.0,94.0,102.0,93.0,108.0,106.0,113.0,137.0,168.0,154.0,148.0,188.0,175.0,161.0,157.0,157.0,142.0,132.0,121.0,111.0,103.0,98.0,101.0,96.0,93.0,83.0,83.0,88.0,92.0,87.0,83.0,75.0,74.0,86.0,79.0,73.0,73.0,71.0,68.0,64.0,62.0,70.0,68.0,70.0,63.0,57.0,56.0,52.0,56.0,55.0,57.0,59.0,54.0,48.0,43.0,44.0,41.0,47.0,45.0,40.0,38.0,37.0,35.0,41.0,42.0,46.0,46.0,41.0,38.0,33.0,29.0,26.0,29.0,31.0,41.0,38.0,35.0,31.0,28.0,29.0,26.0,25.0,24.0,36.0,37.0,35.0,32.0,29.0,29.0,28.0,25.0,23.0,52.0,47.0,43.0,40.0,37.0,41.0,38.0,39.0,39.0,35.0,33.0,33.0,29.0,26.0,25.0,24.0,23.0,21.0,18.0,18.0,15.0,21.0,21.0,24.0,22.0,20.0,25.0,23.0,21.0,20.0,23.0,20.0,18.0,16.0,15.0,18.0,22.0,29.0,26.0,26.0,24.0,21.0,21.0,17.0,23.0,30.0,36.0,33.0,33.0,32.0,28.0,24.0,22.0,24.0,32.0,30.0,38.0,37.0,37.0,33.0,28.0,26.0,23.0,24.0,21.0,27.0,33.0,30.0,27.0,24.0,22.0,19.0,18.0,16.0,16.0,26.0,35.0,31.0,30.0,28.0,24.0,23.0,22.0,19.0,18.0,16.0,18.0,21.0,20.0,19.0,17.0,17.0,16.0,16.0,15.0,16.0,21.0,18.0,19.0,21.0,26.0,26.0,23.0,20.0,18.0,17.0,16.0,22.0,20.0,19.0,23.0,21.0,20.0,17.0,15.0,15.0,14.0,15.0,13.0,12.0,13.0,23.0,23.0,22.0,20.0,17.0,15.0,14.0,14.0,21.0,19.0,17.0,19.0,18.0,16.0,13.0,14.0,12.0,12.0,13.0,13.0,13.0,18.0,19.0,19.0,17.0,19.0,18.0,16.0,15.0,16.0,18.0,22.0,19.0,22.0,19.0,18.0,16.0,16.0,19.0,17.0,20.0,17.0,19.0,17.0,16.0,16.0,14.0,13.0,13.0,14.0,13.0,14.0,28.0,25.0,22.0,24.0,23.0,20.0,19.0,17.0,16.0,14.0,13.0,11.0,11.0,10.0,18.0,17.0,17.0,16.0,14.0,13.0,16.0,14.0,13.0,11.0,24.0,20.0,28.0,29.0
64.0,61.0,61.0,58.0,69.0,67.0,69.0,73.0,74.0,73.0,72.0,70.0,71.0,66.0,66.0,64.0,65.0,68.0,73.0,75.0,77.0,84.0,90.0,87.0,84.0,78.0,76.0,75.0,75.0,81.0,79.0,80.0,78.0,75.0,75.0,69.0,66.0,70.0,68.0,66.0,66.0,72.0,73.0,71.0,70.0,64.0,60.0,61.0,61.0,60.0,64.0,63.0,66.0,68.0,71.0,70.0,67.0,62.0,73.0,75.0,72.0,71.0,66.0,65.0,79.0,77.0,74.0,76.0,73.0,77.0,92.0,89.0,84.0,79.0,76.0,77.0,73.0,75.0,72.0,69.0,71.0,69.0,67.0,66.0,62.0,68.0,65.0,66.0,65.0,74.0,75.0,76.0,74.0,76.0,73.0,76.0,73.0,70.0,67.0,62.0,60.0,59.0,70.0,71.0,70.0,71.0,70.0,75.0,72.0,80.0,81.0,85.0,82.0,83.0,79.0,73.0,86.0,97.0,99.0,108.0,115.0,126.0,127.0,121.0,112.0,117.0,111.0,105.0,102.0,118.0,122.0,118.0,124.0,133.0,133.0,140.0,133.0,120.0,113.0,110.0,107.0,109.0,103.0,118.0,122.0,122.0,122.0,115.0,105.0,111.0,117.0,109.0,118.0,117.0,117.0,119.0,113.0,104.0,98.0,107.0,107.0,103.0,100.0,93.0,96.0,102.0,109.0,110.0,99.0,94.0,93.0,90.0,90.0,86.0,88.0,84.0,85.0,86.0,87.0,86.0,84.0,89.0,98.0,99.0,101.0,96.0,94.0,92.0,88.0,90.0,83.0,79.0,77.0,76.0,75.0,84.0,83.0,82.0,77.0,77.0,75.0,74.0,71.0,73.0,69.0,65.0,62.0,56.0,60.0,64.0,75.0,70.0,65.0,81.0,83.0,80.0,84.0,86.0,80.0,76.0,88.0,82.0,83.0,80.0,75.0,72.0,72.0,72.0,84.0,87.0,86.0,87.0,85.0,85.0,82.0,87.0,84.0,81.0,82.0,86.0,84.0,82.0,92.0,97.0,93.0,95.0,97.0,93.0,91.0,87.0,83.0,84.0,80.0,79.0,79.0,85.0,78.0,75.0,88.0,91.0,85.0,79.0,80.0,76.0,72.0,81.0,79.0,80.0,79.0,81.0,77.0,73.0,79.0,78.0,75.0,76.0,78.0,77.0,79.0,79.0,79.0,73.0,74.0,80.0,78.0,77.0,77.0,78.0,83.0,85.0,84.0,82.0,81.0,76.0,81.0,78.0,93.0,95.0,90.0,92.0,87.0,91.0,91.0,88.0,86.0,82.0,81.0,83.0,88.0,85.0,81.0,81.0,80.0,83.0,86.0,87.0,86.0,88.0,85.0,81.0,76.0,79.0,81.0,87.0,83.0,79.0,81.0,83.0,82.0,81.0,83.0,78.0,77.0,75.0,80.0,81.0,75.0,76.0,74.0,76.0,75.0,87.0,89.0,85.0,83.0,81.0,83.0,84.0,80.0,83.0,78.0,79.0,81.0,84.0,79.0,77.0,75.0,85.0,86.0,87.0,93.0,86.0,80.0,80.0,79.0,74.0,78.0,75.0,73.0,76.0,75.0,80.0,88.0,88.0,88.0,85.0,80.0,75.0,101.0,102.0,102.0,96.0,96.0,98.0,99.0,93.0,93.0,88.0,91.0,92.0,97.0,92.0,94.0,93.0,96.0,99.0,98.0,96.0,92.0,91.0,85.0,81.0,94.0,92.0,90.0,84.0,91.0,89.0,86.0,85.0,88.0,85.0,81.0,77.0,81.0,77.0,76.0,79.0,79.0,85.0,85.0,81.0,90.0,88.0,85.0,90.0,85.0,83.0,82.0,88.0,84.0,93.0,93.0,93.0,99.0,95.0,104.0,109.0,104.0,99.0,94.0,95.0,94.0,93.0,91.0,89.0,96.0,101.0,98.0,93.0,91.0,90.0,106.0,110.0,103.0,99.0,93.0,95.0,96.0,94.0,96.0,93.0,95.0,95.0,91.0,93.0,88.0,91.0,89.0,88.0,83.0,86.0,89.0,96.0,108.0,110.0,104.0,141.0,146.0,150.0,159.0,155.0,150.0,151.0,147.0,158.0,167.0,164.0,160.0,161.0,156.0,168.0,187.0,181.0,168.0,159.0,157.0,153.0,152.0,147.0,138.0,128.0,116.0,115.0,121.0,128.0,128.0,135.0,136.0,141.0,140.0,132.0,132.0,123.0,124.0,137.0,130.0,121.0,115.0,130.0,133.0,128.0,125.0,124.0,128.0,130.0,130.0,125.0,132.0,137.0,152.0,153.0,149.0,147.0,146.0,149.0,157.0,164.0,161.0,156.0,156.0,151.0,187.0,198.0,202.0,206.0,203.0,199.0,223.0,228.0,233.0,278.0,271.0,252.0,251.0,265.0,274.0,275.0,298.0,320.0,301.0,295.0,291.0,305.0,304.0,302.0,294.0,288.0,298.0,272.0,252.0,276.0,273.0,255.0,243.0,246.0,240.0,229.0,230.0,228.0,233.0,232.0,226.0,229.0,225.0,239.0,227.0,226.0,245.0,272.0,271.0,253.0,228.0,208.0,225.0,224.0,211.0,200.0,192.0,185.0,209.0,194.0,198.0,184.0,176.0,177.0,180.0,174.0,170.0,172.0,169.0,172.0,167.0,156.0,177.0,179.0,170.0,161.0,173.0,185.0,185.0,170.0,176.0,195.0,182.0,173.0,163.0,160.0,160.0,154.0,146.0,143.0,144.0,153.0,149.0,144.0,147.0,143.0,152.0,161.0,173.0,173.0,168.0,154.0,146.0,133.0,126.0,124.0,119.0,111.0,111.0,106.0,96.0,98.0,103.0,126.0,119.0,113.0,104.0,99.0,108.0,113.0,113.0,116.0,118.0,114.0,118.0,117.0,130.0,147.0,149.0,138.0,132.0,171.0,170.0,172.0,168.0,171.0,180.0,173.0,172.0,165.0,157.0,177.0,160.0,148.0,163.0,164.0,169.0,159.0,156.0,153.0,152.0,145.0,142.0,153.0,156.0,179.0,164.0,151.0,137.0,141.0,139.0,134.0,129.0,126.0,130.0,159.0,174.0,172.0,174.0,199.0,199.0,206.0,235.0,255.0,256.0,269.0,358.0,340.0,336.0,336.0,349.0,314.0,305.0,293.0,274.0,278.0,289.0,288.0,260.0,259.0,271.0,278.0,262.0,260.0,275.0,280.0,262.0,254.0,241.0,221.0,240.0,223.0,207.0,198.0,190.0,188.0,198.0,210.0,230.0,218.0,205.0,195.0,185.0,189.0,186.0,179.0,176.0,166.0,192.0,188.0,170.0,162.0,154.0,156.0,145.0,147.0,136.0,125.0,135.0,142.0,144.0,134.0,134.0,128.0,121.0,128.0,128.0,128.0,134.0,139.0,128.0,124.0,128.0,122.0,123.0,119.0,126.0,127.0,140.0,149.0,159.0,150.0,139.0,147.0,140.0,135.0,148.0,153.0,151.0,154.0,162.0,157.0,147.0,134.0,124.0,136.0,143.0,151.0,144.0,129.0,133.0,126.0,139.0,139.0,126.0,114.0,105.0,99.0,105.0,110.0,113.0,137.0,144.0,142.0,145.0,142.0,140.0,137.0,123.0,113.0,116.0,112.0,106.0,127.0,132.0,121.0,116.0,112.0,123.0,118.0,114.0,121.0,120.0,123.0,117.0,127.0,114.0,126.0,124.0,118.0,118.0,118.0,112.0,114.0,110.0,110.0,103.0,112.0,113.0,112.0,114.0,107.0,112.0,111.0,108.0,103.0,111.0,114.0,123.0,125.0,119.0,118.0,112.0,106.0,95.0,98.0,93.0,89.0,104.0,106.0,101.0,94.0,97.0,93.0,101.0,97.0,90.0,88.0,83.0,92.0,103.0,95.0,92.0,103.0,101.0,112.0,104.0,100.0,99.0,96.0,87.0,81.0,81.0,83.0,88.0,83.0,89.0,95.0,100.0,102.0,93.0,102.0,104.0,105.0,119.0,116.0,106.0,123.0,140.0,133.0,127.0,118.0,107.0,104.0,109.0,121.0,122.0,123.0,117.0,118.0,115.0,112.0,104.0,114.0,111.0,106.0,115.0,110.0,102.0,107.0,105.0,104.0,96.0,109.0,107.0,112.0,108.0,106.0,103.0,92.0,104.0,106.0,100.0,105.0,111.0,118.0,114.0,112.0,116.0,112.0,114.0,110.0,103.0,102.0,97.0,112.0,128.0,121.0,109.0,114.0,106.0,101.0,104.0,105.0,99.0,96.0,96.0,90.0,108.0,98.0,95.0,88.0,86.0,86.0,79.0,91.0,93.0,91.0,87.0,87.0,99.0,96.0,100.0,95.0,95.0,97.0,93.0,100.0
