52.0,53.0,53.0,53.0,53.0,53.0,53.0,52.0,52.0,51.0,51.0,52.0,50.0,50.0,50.0,50.0,52.0,51.0,53.0,52.0,52.0,53.0,52.0,52.0,53.0,54.0,53.0,54.0,54.0,54.0,54.0,53.0,53.0,53.0,53.0,53.0,54.0,53.0,53.0,53.0,54.0,56.0,55.0,54.0,55.0,53.0,54.0,55.0,55.0,56.0,56.0,56.0,57.0,57.0,57.0,57.0,56.0,53.0,52.0,51.0,51.0,52.0,54.0,53.0,52.0,52.0,51.0,51.0,49.0,49.0,49.0,47.0,49.0,48.0,49.0,49.0,50.0,51.0,50.0,53.0,54.0,56.0,56.0,57.0,56.0,56.0,58.0,59.0,58.0,57.0,58.0,57.0,57.0,57.0,59.0,59.0,59.0,59.0,59.0,59.0,61.0,61.0,62.0,62.0,63.0,63.0,62.0,63.0,63.0,61.0,61.0,60.0,58.0,55.0,55.0,54.0,53.0,53.0,52.0,53.0,53.0,54.0,55.0,55.0,55.0,55.0,55.0,55.0,58.0,58.0,59.0,59.0,59.0,60.0,60.0,61.0,60.0,60.0,60.0,60.0,60.0,59.0,58.0,57.0,56.0,56.0,56.0,56.0,55.0,55.0,55.0,55.0,54.0,55.0,54.0,52.0,53.0,53.0,53.0,53.0,55.0,55.0,54.0,55.0,56.0,57.0,58.0,58.0,58.0,56.0,57.0,58.0,58.0,58.0,57.0,60.0,58.0,58.0,57.0,56.0,54.0,53.0,54.0,52.0,52.0,54.0,53.0,51.0,51.0,50.0,50.0,50.0,50.0,50.0,52.0,52.0,52.0,51.0,53.0,52.0,51.0,51.0,49.0,51.0,49.0,50.0,51.0,51.0,50.0,49.0,49.0,48.0,48.0,49.0,49.0,49.0,49.0,49.0,48.0,48.0,47.0,48.0,47.0,47.0,48.0,48.0,49.0,49.0,50.0,51.0,51.0,53.0,51.0,51.0,50.0,51.0,52.0,52.0,54.0,54.0,56.0,58.0,59.0,61.0,61.0,62.0,60.0,62.0,62.0,63.0,63.0,63.0,64.0,64.0,67.0,67.0,69.0,70.0,69.0,72.0,72.0,73.0,74.0,74.0,76.0,75.0,76.0,73.0,75.0,73.0,73.0,74.0,71.0,72.0,70.0,71.0,71.0,68.0,67.0,66.0,67.0,64.0,64.0,64.0,63.0,62.0,60.0,60.0,58.0,58.0,57.0,57.0,58.0,56.0,57.0,55.0,55.0,54.0,52.0,53.0,53.0,53.0,52.0,52.0,53.0,53.0,52.0,53.0,55.0,55.0,55.0,56.0,56.0,56.0,53.0,54.0,52.0,51.0,50.0,51.0,49.0,49.0,49.0,50.0,51.0,50.0,51.0,51.0,49.0,53.0,52.0,52.0,53.0,53.0,52.0,51.0,50.0,50.0,50.0,51.0,51.0,51.0,52.0,54.0,53.0,53.0,52.0,51.0,51.0,51.0,51.0,50.0,52.0,52.0,51.0,51.0,51.0,50.0,50.0,52.0,52.0,50.0,52.0,52.0,51.0,50.0,50.0,49.0,48.0,49.0,48.0,51.0,50.0,50.0,51.0,51.0,54.0,54.0,55.0,54.0,54.0,55.0,55.0,56.0,57.0,58.0,56.0,57.0,57.0,59.0,59.0,57.0,59.0,60.0,60.0,64.0,64.0,65.0,65.0,67.0,67.0,69.0,67.0,67.0,67.0,65.0,66.0,66.0,64.0,64.0,63.0,63.0,64.0,63.0,64.0,65.0,62.0,62.0,61.0,59.0,60.0,59.0,57.0,56.0,55.0,54.0,53.0,54.0,56.0,55.0,56.0,53.0,53.0,51.0,52.0,50.0,48.0,48.0,46.0,46.0,46.0,45.0,46.0,47.0,45.0,45.0,45.0,45.0,47.0,48.0,49.0,47.0,46.0,47.0,47.0,47.0,46.0,47.0,48.0,48.0,47.0,47.0,47.0,47.0,47.0,49.0,47.0,46.0,46.0,46.0,47.0,47.0,48.0,49.0,48.0,50.0,50.0,50.0,49.0,49.0,50.0,50.0,49.0,49.0,48.0,47.0,46.0,45.0,46.0,47.0,50.0,51.0,52.0,53.0,53.0,56.0,55.0,57.0,59.0,60.0,61.0,59.0,59.0,61.0,61.0,60.0,60.0,62.0,61.0,62.0,63.0,64.0,63.0,64.0,63.0,62.0,64.0,63.0,64.0,64.0,64.0,65.0,65.0,66.0,65.0,67.0,68.0,69.0,70.0,68.0,68.0,68.0,68.0,68.0,64.0,65.0,65.0,62.0,64.0,63.0,62.0,60.0,62.0,59.0,59.0,60.0,60.0,61.0,60.0,60.0,60.0,61.0,62.0,63.0,63.0,61.0,60.0,58.0,57.0,57.0,56.0,58.0,55.0,53.0,53.0,54.0,55.0,55.0,54.0,53.0,53.0,53.0,51.0,51.0,52.0,52.0,52.0,53.0,53.0,53.0,53.0,54.0,55.0,57.0,58.0,59.0,58.0,59.0,58.0,59.0,59.0,58.0,56.0,57.0,57.0,57.0,56.0,56.0,57.0,54.0,54.0,53.0,51.0,53.0,51.0,52.0,52.0,53.0,55.0,55.0,58.0,58.0,60.0,60.0,60.0,60.0,60.0,61.0,60.0,61.0,60.0,60.0,63.0,61.0,63.0,62.0,63.0,62.0,63.0,64.0,65.0,67.0,68.0,69.0,71.0,73.0,74.0,75.0,77.0,75.0,73.0,73.0,73.0,74.0,75.0,76.0,75.0,78.0,76.0,75.0,76.0,73.0,73.0,70.0,73.0,69.0,69.0,66.0,65.0,66.0,65.0,64.0,63.0,62.0,62.0,62.0,61.0,60.0,60.0,60.0,60.0,61.0,60.0,62.0,63.0,62.0,62.0,61.0,60.0,60.0,61.0,58.0,60.0,62.0,64.0,65.0,65.0,66.0,68.0,69.0,69.0,67.0,68.0,67.0,67.0,65.0,66.0,64.0,64.0,65.0,65.0,66.0,65.0,64.0,66.0,65.0,67.0,69.0,71.0,72.0,73.0,72.0,72.0,72.0,73.0,74.0,73.0,73.0,72.0,75.0,73.0,73.0,75.0,74.0,75.0,75.0,74.0,74.0,73.0,73.0,75.0,75.0,73.0,73.0,71.0,72.0,70.0,70.0,69.0,68.0,65.0,64.0,63.0,63.0,63.0,61.0,59.0,59.0,59.0,62.0,63.0,64.0,66.0,68.0,67.0,70.0,69.0,71.0,70.0,70.0,71.0,69.0,68.0,66.0,68.0,66.0,66.0,67.0,66.0,66.0,64.0,63.0,61.0,62.0,61.0,59.0,60.0,60.0,58.0,58.0,57.0,55.0,55.0,55.0,53.0,53.0,52.0,53.0,54.0,54.0,56.0,56.0,57.0,59.0,59.0,62.0,61.0,63.0,64.0,63.0,63.0,62.0,63.0,61.0,59.0,58.0,57.0,56.0,57.0,55.0,54.0,53.0,54.0,55.0,56.0,54.0,54.0,52.0,52.0,52.0,52.0,50.0,49.0,49.0,48.0,48.0,48.0,50.0,51.0,51.0,54.0,52.0,53.0,53.0,53.0,54.0,55.0,56.0,56.0,55.0,57.0,57.0,56.0,56.0,56.0,54.0,56.0,58.0,57.0,57.0,56.0,55.0,56.0,57.0,57.0,57.0,56.0,55.0,57.0,56.0,55.0,56.0,55.0,55.0,54.0,54.0,54.0,54.0,53.0,52.0,51.0,50.0,52.0,50.0,49.0,49.0,49.0,49.0,48.0,49.0,48.0,49.0,50.0,51.0,50.0,50.0,49.0,48.0,49.0,49.0,49.0,50.0,49.0,48.0,48.0,48.0,48.0,47.0,47.0,47.0,48.0,48.0,49.0,49.0,49.0,48.0,47.0,47.0,46.0,46.0,46.0,47.0,47.0,48.0,49.0,48.0,50.0,50.0,52.0,52.0,51.0,52.0,50.0,51.0,51.0,53.0,55.0,54.0,55.0,54.0,53.0,52.0,51.0,52.0,51.0,49.0,50.0,49.0,50.0,49.0,48.0,49.0,48.0,48.0,47.0,47.0,49.0,49.0,48.0,49.0,49.0,50.0,48.0,50.0,51.0,49.0,50.0,50.0,51.0,49.0,47.0,48.0,46.0,47.0,46.0,47.0,46.0,47.0,47.0,46.0,47.0,48.0,48.0,48.0,49.0,49.0,49.0,49.0,49.0,50.0,49.0,49.0,49.0,49.0,49.0,49.0,50.0,50.0,49.0,51.0,49.0,49.0,49.0,49.0,50.0,49.0,51.0,52.0,54.0,52.0
40.0,39.0,38.0,38.0,36.0,35.0,35.0,35.0,35.0,35.0,36.0,34.0,35.0,35.0,35.0,35.0,33.0,34.0,33.0,34.0,35.0,34.0,34.0,35.0,36.0,36.0,38.0,38.0,37.0,37.0,39.0,40.0,38.0,39.0,39.0,38.0,37.0,37.0,38.0,37.0,37.0,36.0,35.0,36.0,35.0,36.0,34.0,35.0,35.0,35.0,36.0,36.0,37.0,37.0,37.0,37.0,37.0,37.0,37.0,38.0,38.0,37.0,38.0,36.0,36.0,36.0,37.0,35.0,36.0,37.0,37.0,38.0,39.0,39.0,38.0,39.0,39.0,40.0,40.0,40.0,42.0,42.0,41.0,41.0,42.0,42.0,41.0,44.0,46.0,47.0,47.0,49.0,49.0,49.0,49.0,48.0,48.0,47.0,45.0,46.0,44.0,45.0,42.0,42.0,43.0,43.0,43.0,43.0,43.0,41.0,42.0,43.0,44.0,44.0,45.0,47.0,46.0,46.0,47.0,47.0,47.0,45.0,47.0,46.0,47.0,47.0,48.0,47.0,45.0,47.0,46.0,47.0,48.0,47.0,49.0,48.0,50.0,50.0,51.0,52.0,53.0,52.0,52.0,54.0,54.0,54.0,53.0,55.0,55.0,55.0,56.0,55.0,55.0,53.0,53.0,54.0,53.0,56.0,55.0,56.0,56.0,56.0,56.0,55.0,56.0,53.0,53.0,54.0,55.0,55.0,55.0,55.0,54.0,54.0,53.0,51.0,51.0,51.0,51.0,48.0,48.0,46.0,46.0,45.0,45.0,44.0,46.0,44.0,45.0,43.0,44.0,45.0,45.0,44.0,44.0,46.0,47.0,50.0,47.0,50.0,49.0,49.0,49.0,49.0,48.0,47.0,50.0,50.0,50.0,51.0,51.0,54.0,55.0,57.0,56.0,56.0,58.0,57.0,59.0,59.0,58.0,58.0,55.0,54.0,54.0,52.0,52.0,54.0,52.0,52.0,52.0,51.0,53.0,53.0,55.0,55.0,56.0,57.0,56.0,56.0,57.0,59.0,60.0,62.0,63.0,64.0,65.0,65.0,66.0,64.0,63.0,61.0,63.0,63.0,63.0,64.0,62.0,62.0,61.0,59.0,60.0,60.0,61.0,60.0,59.0,59.0,57.0,57.0,56.0,56.0,54.0,53.0,53.0,52.0,52.0,53.0,53.0,53.0,52.0,52.0,51.0,50.0,49.0,50.0,48.0,47.0,48.0,47.0,45.0,46.0,45.0,46.0,44.0,46.0,47.0,48.0,47.0,49.0,47.0,45.0,45.0,45.0,45.0,45.0,47.0,47.0,47.0,47.0,47.0,47.0,48.0,47.0,47.0,46.0,46.0,46.0,44.0,45.0,45.0,42.0,42.0,41.0,40.0,39.0,38.0,38.0,37.0,36.0,36.0,35.0,35.0,34.0,35.0,36.0,36.0,36.0,37.0,36.0,36.0,36.0,36.0,37.0,38.0,39.0,38.0,38.0,39.0,38.0,38.0,38.0,36.0,36.0,36.0,38.0,38.0,38.0,38.0,37.0,37.0,37.0,37.0,37.0,36.0,36.0,35.0,36.0,36.0,36.0,36.0,37.0,39.0,39.0,40.0,40.0,40.0,40.0,40.0,40.0,41.0,43.0,42.0,43.0,42.0,40.0,40.0,41.0,42.0,42.0,41.0,40.0,39.0,41.0,39.0,41.0,41.0,41.0,40.0,40.0,39.0,41.0,40.0,39.0,40.0,39.0,39.0,40.0,38.0,39.0,40.0,40.0,39.0,38.0,38.0,38.0,38.0,37.0,39.0,38.0,40.0,42.0,40.0,41.0,43.0,45.0,47.0,45.0,46.0,50.0,53.0,52.0,49.0,50.0,48.0,49.0,47.0,46.0,45.0,44.0,44.0,42.0,45.0,42.0,43.0,42.0,41.0,41.0,41.0,40.0,42.0,42.0,42.0,42.0,40.0,42.0,41.0,42.0,42.0,41.0,42.0,42.0,41.0,41.0,41.0,42.0,43.0,44.0,45.0,43.0,42.0,42.0,42.0,42.0,43.0,45.0,43.0,44.0,42.0,40.0,40.0,41.0,41.0,40.0,43.0,41.0,43.0,42.0,41.0,42.0,43.0,42.0,44.0,42.0,41.0,41.0,39.0,41.0,44.0,42.0,44.0,45.0,46.0,44.0,43.0,44.0,43.0,42.0,41.0,40.0,40.0,39.0,39.0,39.0,39.0,40.0,40.0,41.0,40.0,40.0,41.0,41.0,41.0,42.0,42.0,42.0,43.0,41.0,41.0,40.0,41.0,42.0,43.0,41.0,40.0,41.0,40.0,42.0,42.0,43.0,42.0,41.0,42.0,43.0,42.0,42.0,42.0,42.0,42.0,41.0,41.0,41.0,40.0,40.0,41.0,39.0,41.0,41.0,41.0,42.0,40.0,39.0,38.0,39.0,39.0,41.0,43.0,42.0,42.0,43.0,43.0,45.0,44.0,46.0,46.0,46.0,45.0,45.0,44.0,43.0,42.0,41.0,41.0,40.0,39.0,40.0,39.0,40.0,40.0,39.0,41.0,42.0,41.0,41.0,43.0,43.0,42.0,42.0,42.0,42.0,41.0,43.0,42.0,42.0,46.0,45.0,47.0,45.0,46.0,46.0,45.0,47.0,46.0,49.0,49.0,50.0,49.0,51.0,50.0,50.0,51.0,54.0,56.0,57.0,57.0,62.0,62.0,63.0,64.0,66.0,66.0,67.0,67.0,68.0,68.0,68.0,65.0,65.0,65.0,65.0,66.0,66.0,68.0,67.0,66.0,66.0,68.0,68.0,67.0,66.0,68.0,67.0,68.0,69.0,67.0,68.0,65.0,65.0,61.0,62.0,60.0,57.0,55.0,54.0,54.0,53.0,53.0,54.0,54.0,54.0,54.0,56.0,55.0,58.0,60.0,59.0,58.0,57.0,57.0,56.0,58.0,57.0,59.0,61.0,64.0,63.0,61.0,60.0,60.0,61.0,61.0,58.0,57.0,58.0,57.0,57.0,57.0,56.0,56.0,57.0,57.0,56.0,56.0,54.0,53.0,51.0,50.0,52.0,52.0,49.0,48.0,49.0,48.0,49.0,47.0,47.0,49.0,48.0,47.0,47.0,46.0,45.0,44.0,43.0,42.0,43.0,43.0,43.0,43.0,45.0,49.0,46.0,47.0,48.0,47.0,47.0,45.0,44.0,45.0,46.0,45.0,45.0,46.0,46.0,46.0,48.0,47.0,46.0,47.0,47.0,50.0,52.0,52.0,53.0,55.0,55.0,59.0,58.0,59.0,59.0,57.0,56.0,55.0,55.0,54.0,56.0,55.0,55.0,55.0,54.0,55.0,54.0,55.0,53.0,53.0,51.0,49.0,48.0,47.0,46.0,46.0,46.0,45.0,45.0,45.0,43.0,43.0,41.0,42.0,44.0,43.0,41.0,40.0,42.0,42.0,41.0,41.0,43.0,46.0,44.0,44.0,44.0,43.0,42.0,42.0,43.0,41.0,41.0,40.0,40.0,39.0,40.0,41.0,40.0,41.0,39.0,40.0,39.0,38.0,38.0,37.0,38.0,38.0,38.0,39.0,38.0,38.0,37.0,39.0,38.0,38.0,39.0,37.0,39.0,38.0,39.0,40.0,43.0,43.0,42.0,44.0,45.0,45.0,45.0,44.0,43.0,43.0,44.0,44.0,45.0,45.0,45.0,45.0,45.0,45.0,44.0,44.0,46.0,48.0,47.0,46.0,48.0,48.0,48.0,48.0,48.0,50.0,49.0,48.0,47.0,46.0,46.0,45.0,46.0,46.0,48.0,45.0,45.0,45.0,44.0,43.0,41.0,41.0,40.0,43.0,42.0,41.0,41.0,41.0,42.0,42.0,44.0,45.0,43.0,44.0,44.0,44.0,42.0,43.0,42.0,41.0,42.0,45.0,46.0,46.0,45.0,44.0,45.0,46.0,46.0,48.0,48.0,49.0,47.0,46.0,45.0,45.0,46.0,45.0,44.0,43.0,42.0,43.0,41.0,44.0,45.0,44.0,47.0,46.0,47.0,48.0,49.0,48.0,49.0,51.0,50.0,49.0,49.0,49.0,50.0,49.0,49.0,50.0,52.0,51.0,51.0,51.0,51.0,49.0,49.0,48.0,49.0,51.0,48.0,50.0,49.0,48.0,51.0,51.0,51.0,49.0,50.0,49.0,48.0,48.0,47.0,45.0,44.0,45.0,44.0,43.0,45.0,44.0,44.0,44.0,45.0,44.0,44.0,44.0,43.0,43.0,42.0,40.0,41.0,41.0,41.0,40.0,41.0,40.0,39.0,38.0,38.0,37.0,37.0,39.0,39.0,39.0,40.0,41.0,39.0,39.0,39.0
6.0,6.0,8.0,7.0,7.0,6.0,7.0,6.0,7.0,6.0,6.0,7.0,5.0,8.0,6.0,7.0,6.0,6.0,5.0,5.0,6.0,5.0,6.0,6.0,5.0,5.0,4.0,5.0,4.0,4.0,5.0,5.0,6.0,5.0,7.0,6.0,6.0,6.0,7.0,8.0,7.0,7.0,6.0,6.0,7.0,7.0,7.0,7.0,6.0,8.0,7.0,8.0,8.0,9.0,8.0,9.0,6.0,6.0,7.0,7.0,7.0,8.0,9.0,6.0,6.0,7.0,6.0,7.0,12.0,11.0,10.0,9.0,9.0,7.0,8.0,9.0,9.0,10.0,11.0,12.0,10.0,11.0,9.0,8.0,8.0,7.0,8.0,8.0,7.0,5.0,7.0,6.0,5.0,6.0,5.0,5.0,5.0,7.0,6.0,5.0,6.0,7.0,11.0,14.0,23.0,23.0,26.0,27.0,27.0,27.0,31.0,35.0,34.0,33.0,31.0,27.0,27.0,24.0,26.0,28.0,26.0,26.0,26.0,27.0,28.0,27.0,28.0,25.0,23.0,22.0,21.0,19.0,23.0,23.0,21.0,21.0,19.0,17.0,15.0,15.0,13.0,11.0,13.0,11.0,11.0,11.0,10.0,9.0,10.0,9.0,9.0,9.0,9.0,9.0,8.0,7.0,7.0,8.0,7.0,8.0,8.0,6.0,8.0,8.0,10.0,9.0,8.0,9.0,8.0,7.0,7.0,6.0,10.0,8.0,10.0,9.0,9.0,8.0,7.0,7.0,7.0,7.0,7.0,6.0,9.0,7.0,8.0,6.0,9.0,8.0,6.0,6.0,9.0,9.0,7.0,7.0,7.0,7.0,9.0,7.0,7.0,7.0,7.0,6.0,6.0,6.0,6.0,6.0,5.0,12.0,10.0,9.0,10.0,9.0,8.0,8.0,7.0,6.0,6.0,8.0,7.0,7.0,6.0,6.0,6.0,6.0,5.0,6.0,6.0,9.0,9.0,8.0,7.0,8.0,7.0,7.0,6.0,6.0,8.0,6.0,6.0,6.0,6.0,5.0,5.0,6.0,9.0,13.0,11.0,10.0,9.0,11.0,11.0,10.0,10.0,9.0,9.0,8.0,8.0,8.0,6.0,8.0,8.0,9.0,11.0,12.0,10.0,9.0,10.0,8.0,8.0,9.0,9.0,8.0,8.0,8.0,7.0,7.0,6.0,6.0,7.0,4.0,5.0,5.0,5.0,7.0,11.0,10.0,8.0,8.0,8.0,9.0,8.0,10.0,11.0,10.0,9.0,8.0,8.0,8.0,8.0,8.0,6.0,6.0,8.0,8.0,8.0,8.0,8.0,6.0,7.0,6.0,8.0,7.0,8.0,10.0,8.0,7.0,7.0,7.0,7.0,7.0,6.0,6.0,6.0,5.0,6.0,5.0,5.0,6.0,5.0,5.0,5.0,5.0,5.0,5.0,6.0,6.0,5.0,4.0,5.0,5.0,5.0,13.0,10.0,10.0,9.0,8.0,7.0,8.0,8.0,7.0,7.0,7.0,7.0,7.0,5.0,6.0,7.0,7.0,7.0,7.0,7.0,7.0,8.0,8.0,8.0,8.0,9.0,8.0,7.0,10.0,10.0,9.0,10.0,9.0,9.0,9.0,9.0,7.0,8.0,7.0,7.0,6.0,5.0,6.0,6.0,7.0,7.0,6.0,6.0,11.0,13.0,12.0,18.0,24.0,21.0,24.0,29.0,33.0,30.0,33.0,39.0,35.0,32.0,29.0,31.0,30.0,48.0,43.0,39.0,37.0,32.0,29.0,26.0,25.0,22.0,21.0,23.0,24.0,22.0,23.0,22.0,23.0,21.0,35.0,36.0,55.0,88.0,81.0,73.0,67.0,64.0,65.0,70.0,73.0,65.0,62.0,55.0,52.0,57.0,61.0,60.0,54.0,55.0,49.0,44.0,41.0,39.0,35.0,43.0,53.0,46.0,43.0,45.0,44.0,48.0,44.0,43.0,40.0,37.0,37.0,41.0,39.0,48.0,56.0,51.0,50.0,47.0,51.0,55.0,51.0,65.0,72.0,65.0,59.0,53.0,47.0,60.0,60.0,52.0,47.0,53.0,49.0,44.0,40.0,39.0,42.0,42.0,47.0,60.0,53.0,47.0,48.0,51.0,52.0,54.0,52.0,53.0,46.0,41.0,41.0,42.0,47.0,43.0,43.0,40.0,39.0,34.0,33.0,36.0,36.0,36.0,39.0,41.0,44.0,46.0,42.0,40.0,37.0,42.0,51.0,46.0,48.0,44.0,52.0,50.0,46.0,42.0,45.0,54.0,49.0,43.0,40.0,36.0,32.0,30.0,28.0,31.0,28.0,39.0,38.0,34.0,39.0,43.0,39.0,44.0,40.0,36.0,33.0,31.0,32.0,29.0,27.0,32.0,31.0,40.0,41.0,36.0,33.0,29.0,34.0,29.0,44.0,59.0,59.0,55.0,48.0,42.0,38.0,37.0,35.0,34.0,37.0,41.0,40.0,38.0,33.0,29.0,27.0,27.0,27.0,24.0,24.0,21.0,19.0,23.0,25.0,23.0,25.0,21.0,21.0,18.0,18.0,18.0,17.0,19.0,17.0,21.0,21.0,23.0,20.0,19.0,19.0,25.0,25.0,32.0,32.0,28.0,25.0,24.0,22.0,24.0,24.0,29.0,31.0,39.0,38.0,34.0,34.0,31.0,29.0,29.0,39.0,37.0,33.0,30.0,27.0,27.0,30.0,28.0,25.0,23.0,24.0,22.0,22.0,21.0,21.0,21.0,17.0,22.0,26.0,23.0,24.0,22.0,21.0,18.0,18.0,17.0,16.0,17.0,19.0,23.0,20.0,20.0,17.0,16.0,14.0,13.0,18.0,15.0,23.0,28.0,32.0,30.0,31.0,36.0,40.0,39.0,47.0,50.0,53.0,66.0,68.0,67.0,61.0,53.0,47.0,42.0,48.0,63.0,71.0,88.0,106.0,92.0,80.0,77.0,89.0,88.0,79.0,74.0,70.0,67.0,59.0,55.0,51.0,47.0,45.0,52.0,45.0,56.0,59.0,53.0,51.0,54.0,53.0,51.0,53.0,57.0,53.0,48.0,44.0,39.0,36.0,37.0,39.0,37.0,34.0,30.0,29.0,28.0,36.0,33.0,32.0,29.0,27.0,24.0,22.0,34.0,34.0,30.0,29.0,26.0,26.0,23.0,20.0,29.0,34.0,31.0,28.0,25.0,23.0,20.0,31.0,29.0,29.0,28.0,25.0,28.0,29.0,27.0,22.0,23.0,19.0,20.0,22.0,21.0,28.0,31.0,27.0,24.0,23.0,21.0,30.0,30.0,30.0,30.0,26.0,24.0,23.0,25.0,25.0,29.0,34.0,30.0,34.0,32.0,29.0,36.0,38.0,36.0,32.0,28.0,28.0,32.0,32.0,30.0,40.0,38.0,34.0,29.0,26.0,28.0,23.0,21.0,19.0,26.0,23.0,21.0,20.0,18.0,19.0,21.0,29.0,28.0,27.0,26.0,23.0,22.0,25.0,22.0,22.0,31.0,28.0,30.0,26.0,27.0,27.0,25.0,29.0,27.0,23.0,23.0,21.0,21.0,20.0,30.0,31.0,30.0,30.0,27.0,23.0,21.0,20.0,26.0,24.0,22.0,19.0,18.0,19.0,20.0,30.0,25.0,23.0,23.0,20.0,19.0,16.0,22.0,21.0,20.0,19.0,18.0,16.0,17.0,20.0,32.0,28.0,26.0,24.0,23.0,23.0,21.0,17.0,20.0,27.0,24.0,22.0,21.0,20.0,20.0,20.0,19.0,26.0,24.0,21.0,29.0,29.0,33.0,29.0,25.0,25.0,26.0,24.0,22.0,20.0,20.0,24.0,28.0,30.0,34.0,32.0,27.0,26.0,24.0,23.0,21.0,20.0,18.0,16.0,27.0,26.0,24.0,21.0,19.0,16.0,15.0,14.0,20.0,27.0,29.0,26.0,22.0,20.0,19.0,16.0,26.0,23.0,21.0,20.0,22.0,20.0,18.0,22.0,20.0,21.0,18.0,16.0,18.0,17.0,15.0,14.0,14.0,20.0,19.0,21.0,18.0,17.0,16.0,14.0,14.0,29.0,26.0,22.0,21.0,27.0,26.0,23.0,20.0,19.0,23.0,26.0,24.0,23.0,24.0,24.0,21.0,19.0,16.0,15.0,16.0,15.0,22.0,26.0,25.0,22.0,20.0,23.0,21.0,26.0,27.0,23.0,22.0,19.0,17.0,16.0,15.0,17.0,17.0,15.0,13.0,15.0,26.0,24.0,26.0,24.0,22.0,20.0,18.0,19.0,15.0,16.0,24.0,27.0,24.0,22.0,19.0,15.0,16.0,14.0
69.0,69.0,66.0,80.0,80.0,77.0,74.0,73.0,74.0,81.0,82.0,74.0,73.0,79.0,77.0,74.0,77.0,70.0,67.0,66.0,75.0,76.0,78.0,74.0,71.0,73.0,70.0,71.0,69.0,79.0,77.0,76.0,75.0,71.0,67.0,75.0,79.0,79.0,74.0,71.0,71.0,75.0,72.0,74.0,75.0,72.0,68.0,67.0,74.0,74.0,75.0,76.0,73.0,70.0,74.0,75.0,72.0,72.0,71.0,77.0,84.0,87.0,81.0,78.0,75.0,77.0,79.0,74.0,76.0,73.0,70.0,72.0,73.0,75.0,72.0,69.0,65.0,64.0,65.0,78.0,84.0,86.0,79.0,79.0,81.0,77.0,83.0,82.0,77.0,76.0,73.0,78.0,80.0,83.0,81.0,74.0,78.0,75.0,74.0,74.0,76.0,79.0,76.0,72.0,77.0,75.0,75.0,73.0,72.0,66.0,64.0,65.0,65.0,62.0,61.0,66.0,63.0,61.0,64.0,71.0,68.0,69.0,75.0,69.0,75.0,71.0,70.0,69.0,76.0,77.0,74.0,71.0,80.0,74.0,71.0,71.0,81.0,80.0,81.0,77.0,75.0,72.0,75.0,74.0,76.0,78.0,74.0,69.0,71.0,65.0,73.0,74.0,81.0,76.0,71.0,69.0,65.0,67.0,62.0,70.0,77.0,74.0,73.0,76.0,73.0,71.0,76.0,77.0,73.0,72.0,67.0,71.0,68.0,68.0,74.0,75.0,71.0,69.0,69.0,70.0,65.0,69.0,67.0,70.0,68.0,68.0,66.0,63.0,64.0,65.0,67.0,65.0,67.0,66.0,62.0,61.0,62.0,73.0,71.0,69.0,66.0,62.0,61.0,71.0,73.0,69.0,75.0,68.0,68.0,64.0,65.0,67.0,65.0,72.0,70.0,72.0,71.0,69.0,69.0,77.0,78.0,76.0,74.0,69.0,71.0,68.0,77.0,77.0,74.0,71.0,68.0,64.0,71.0,69.0,69.0,64.0,62.0,63.0,67.0,68.0,63.0,63.0,58.0,55.0,55.0,56.0,55.0,62.0,64.0,63.0,67.0,68.0,73.0,71.0,67.0,65.0,62.0,62.0,66.0,67.0,69.0,69.0,70.0,64.0,63.0,65.0,63.0,62.0,60.0,61.0,58.0,64.0,66.0,67.0,67.0,64.0,68.0,78.0,74.0,75.0,75.0,72.0,67.0,66.0,70.0,70.0,77.0,74.0,72.0,67.0,79.0,76.0,71.0,68.0,62.0,63.0,68.0,68.0,64.0,62.0,58.0,55.0,71.0,71.0,77.0,78.0,81.0,79.0,91.0,99.0,97.0,96.0,88.0,83.0,93.0,112.0,112.0,105.0,101.0,96.0,91.0,87.0,82.0,83.0,87.0,86.0,84.0,81.0,80.0,91.0,96.0,94.0,92.0,84.0,81.0,81.0,88.0,92.0,88.0,82.0,78.0,75.0,70.0,66.0,74.0,71.0,67.0,62.0,63.0,65.0,64.0,61.0,57.0,70.0,69.0,68.0,69.0,65.0,71.0,73.0,73.0,69.0,66.0,69.0,69.0,70.0,63.0,65.0,64.0,59.0,60.0,69.0,67.0,64.0,63.0,66.0,64.0,67.0,66.0,67.0,65.0,69.0,73.0,68.0,64.0,67.0,78.0,80.0,81.0,80.0,76.0,100.0,98.0,115.0,120.0,131.0,129.0,143.0,146.0,146.0,131.0,118.0,125.0,117.0,133.0,143.0,155.0,156.0,146.0,171.0,180.0,178.0,184.0,183.0,174.0,197.0,199.0,190.0,202.0,204.0,197.0,188.0,183.0,183.0,187.0,196.0,178.0,164.0,168.0,165.0,164.0,158.0,162.0,157.0,158.0,159.0,160.0,165.0,156.0,142.0,132.0,128.0,138.0,153.0,147.0,143.0,132.0,138.0,148.0,142.0,142.0,138.0,129.0,119.0,114.0,108.0,106.0,125.0,136.0,142.0,145.0,146.0,143.0,132.0,125.0,133.0,137.0,133.0,138.0,132.0,138.0,157.0,159.0,153.0,147.0,141.0,138.0,141.0,149.0,154.0,144.0,138.0,127.0,118.0,117.0,118.0,143.0,142.0,151.0,153.0,151.0,146.0,138.0,126.0,126.0,154.0,162.0,162.0,161.0,168.0,189.0,183.0,176.0,159.0,150.0,160.0,162.0,157.0,151.0,149.0,150.0,163.0,153.0,150.0,148.0,154.0,174.0,167.0,162.0,156.0,148.0,141.0,149.0,154.0,157.0,152.0,141.0,152.0,148.0,140.0,139.0,130.0,131.0,131.0,133.0,139.0,131.0,135.0,139.0,135.0,144.0,134.0,129.0,126.0,124.0,116.0,110.0,113.0,106.0,105.0,112.0,122.0,129.0,125.0,134.0,139.0,137.0,132.0,128.0,129.0,130.0,131.0,126.0,121.0,115.0,114.0,112.0,108.0,106.0,101.0,93.0,97.0,100.0,98.0,97.0,90.0,96.0,93.0,89.0,96.0,97.0,110.0,100.0,94.0,88.0,83.0,90.0,94.0,93.0,95.0,105.0,112.0,109.0,124.0,122.0,114.0,106.0,103.0,106.0,107.0,106.0,108.0,102.0,109.0,111.0,111.0,114.0,124.0,123.0,116.0,113.0,107.0,104.0,132.0,129.0,129.0,135.0,130.0,130.0,127.0,120.0,112.0,121.0,118.0,124.0,135.0,131.0,124.0,115.0,111.0,109.0,105.0,106.0,111.0,112.0,112.0,112.0,108.0,109.0,109.0,117.0,125.0,123.0,126.0,126.0,134.0,137.0,133.0,127.0,118.0,110.0,100.0,98.0,112.0,111.0,109.0,100.0,112.0,116.0,119.0,116.0,108.0,102.0,99.0,103.0,107.0,110.0,108.0,107.0,114.0,107.0,127.0,124.0,121.0,114.0,113.0,103.0,95.0,88.0,89.0,97.0,104.0,127.0,148.0,139.0,130.0,142.0,154.0,160.0,157.0,145.0,138.0,135.0,127.0,131.0,124.0,121.0,131.0,127.0,124.0,152.0,158.0,163.0,157.0,168.0,165.0,181.0,179.0,167.0,164.0,164.0,160.0,155.0,154.0,146.0,150.0,142.0,145.0,144.0,142.0,133.0,125.0,122.0,126.0,130.0,130.0,131.0,141.0,143.0,133.0,127.0,115.0,133.0,132.0,132.0,123.0,133.0,129.0,124.0,130.0,128.0,122.0,127.0,136.0,168.0,173.0,163.0,154.0,161.0,150.0,141.0,133.0,141.0,136.0,152.0,144.0,137.0,126.0,140.0,136.0,143.0,136.0,129.0,141.0,137.0,128.0,133.0,129.0,124.0,114.0,108.0,104.0,128.0,137.0,128.0,140.0,136.0,125.0,120.0,112.0,128.0,133.0,138.0,125.0,121.0,133.0,127.0,132.0,126.0,123.0,132.0,123.0,140.0,128.0,130.0,133.0,134.0,124.0,127.0,129.0,127.0,126.0,127.0,122.0,119.0,120.0,118.0,115.0,118.0,120.0,124.0,127.0,133.0,124.0,115.0,118.0,136.0,130.0,120.0,115.0,107.0,103.0,102.0,107.0,112.0,114.0,114.0,144.0,134.0,129.0,125.0,115.0,111.0,119.0,112.0,117.0,114.0,111.0,103.0,117.0,129.0,124.0,113.0,124.0,119.0,125.0,129.0,122.0,113.0,110.0,103.0,109.0,107.0,102.0,103.0,102.0,103.0,103.0,101.0,104.0,98.0,103.0,103.0,100.0,95.0,93.0,94.0,92.0,90.0,90.0,87.0,107.0,112.0,106.0,99.0,94.0,124.0,139.0,132.0,121.0,117.0,119.0,117.0,117.0,112.0,108.0,118.0,134.0,162.0,173.0,166.0,154.0,138.0,129.0,129.0,126.0,130.0,127.0,134.0,131.0,143.0,133.0,132.0,139.0,134.0,137.0,134.0,125.0,113.0,106.0,106.0,109.0,101.0,108.0,107.0,101.0,96.0,99.0,112.0,107.0,102.0,103.0,111.0,116.0,123.0,115.0,116.0,110.0,109.0,114.0,107.0,105.0,110.0,110.0,124.0,117.0,113.0,112.0,107.0,107.0,112.0,117.0,117.0,124.0,124.0,124.0,133.0,127.0,130.0,134.0,129.0,121.0,121.0,122.0,125.0,116.0,113.0,117.0,113.0,107.0,103.0,98.0,106.0,100.0,117.0,112.0,118.0,128.0,125.0,125.0,117.0,123.0,117.0,113.0,109.0,105.0,103.0,98.0,97.0,90.0,89.0,100.0,123.0,119.0,117.0,115.0,113.0,107.0,108.0,115.0,114.0,126.0,135.0,132.0,133.0,124.0,126.0,135.0,130.0,122.0
