61.0,61.0,60.0,59.0,61.0,62.0,61.0,62.0,62.0,59.0,58.0,56.0,56.0,56.0,57.0,57.0,56.0,57.0,57.0,57.0,58.0,58.0,59.0,59.0,61.0,62.0,60.0,60.0,60.0,63.0,63.0,63.0,62.0,62.0,62.0,61.0,62.0,61.0,61.0,61.0,62.0,63.0,63.0,63.0,63.0,63.0,61.0,60.0,63.0,63.0,62.0,62.0,63.0,61.0,61.0,59.0,59.0,60.0,59.0,60.0,57.0,55.0,57.0,56.0,55.0,56.0,58.0,56.0,57.0,57.0,55.0,55.0,57.0,57.0,57.0,56.0,56.0,55.0,55.0,56.0,57.0,57.0,56.0,57.0,58.0,59.0,58.0,60.0,60.0,60.0,60.0,61.0,60.0,60.0,60.0,61.0,60.0,59.0,58.0,58.0,58.0,57.0,57.0,56.0,55.0,54.0,55.0,57.0,56.0,55.0,54.0,55.0,53.0,53.0,52.0,51.0,52.0,50.0,53.0,53.0,53.0,53.0,52.0,51.0,49.0,48.0,48.0,48.0,47.0,47.0,48.0,48.0,47.0,47.0,47.0,47.0,47.0,46.0,46.0,47.0,46.0,46.0,47.0,47.0,49.0,49.0,50.0,51.0,51.0,51.0,50.0,51.0,52.0,52.0,50.0,51.0,52.0,52.0,52.0,51.0,51.0,53.0,53.0,54.0,55.0,55.0,53.0,54.0,53.0,55.0,55.0,55.0,56.0,55.0,55.0,55.0,55.0,56.0,58.0,58.0,57.0,57.0,58.0,59.0,60.0,61.0,63.0,62.0,62.0,62.0,60.0,61.0,61.0,60.0,57.0,61.0,61.0,62.0,63.0,63.0,65.0,64.0,65.0,66.0,67.0,69.0,72.0,74.0,75.0,79.0,80.0,82.0,80.0,81.0,81.0,80.0,76.0,74.0,75.0,76.0,77.0,77.0,73.0,71.0,70.0,67.0,68.0,65.0,65.0,62.0,60.0,59.0,59.0,58.0,56.0,57.0,54.0,54.0,52.0,54.0,52.0,56.0,56.0,54.0,55.0,55.0,55.0,54.0,53.0,53.0,53.0,52.0,52.0,51.0,54.0,52.0,51.0,50.0,52.0,52.0,51.0,53.0,52.0,52.0,52.0,51.0,54.0,51.0,51.0,51.0,53.0,54.0,52.0,51.0,51.0,52.0,49.0,50.0,50.0,52.0,50.0,50.0,50.0,50.0,61.0,68.0,66.0,71.0,85.0,91.0,96.0,107.0,107.0,100.0,101.0,102.0,141.0,158.0,158.0,202.0,239.0,234.0,227.0,205.0,186.0,170.0,157.0,144.0,132.0,126.0,119.0,112.0,105.0,97.0,105.0,104.0,104.0,102.0,105.0,108.0,105.0,102.0,96.0,91.0,85.0,80.0,78.0,76.0,71.0,70.0,66.0,65.0,66.0,64.0,63.0,60.0,59.0,57.0,56.0,57.0,55.0,57.0,55.0,56.0,56.0,56.0,57.0,56.0,55.0,54.0,56.0,54.0,52.0,52.0,51.0,51.0,51.0,52.0,51.0,52.0,53.0,53.0,53.0,54.0,58.0,58.0,58.0,58.0,57.0,57.0,57.0,57.0,58.0,60.0,61.0,64.0,64.0,66.0,68.0,68.0,70.0,69.0,71.0,72.0,71.0,72.0,73.0,75.0,74.0,75.0,75.0,74.0,75.0,75.0,75.0,72.0,71.0,71.0,68.0,68.0,67.0,67.0,78.0,81.0,83.0,80.0,82.0,79.0,75.0,72.0,71.0,68.0,65.0,66.0,63.0,62.0,61.0,59.0,61.0,58.0,61.0,61.0,60.0,59.0,57.0,56.0,57.0,57.0,56.0,56.0,55.0,54.0,55.0,55.0,58.0,60.0,59.0,61.0,63.0,63.0,64.0,65.0,66.0,67.0,67.0,65.0,69.0,70.0,71.0,70.0,70.0,71.0,72.0,72.0,70.0,70.0,69.0,69.0,70.0,69.0,70.0,69.0,68.0,69.0,67.0,67.0,65.0,65.0,64.0,63.0,65.0,66.0,66.0,67.0,70.0,71.0,70.0,73.0,72.0,74.0,73.0,72.0,71.0,72.0,72.0,74.0,71.0,72.0,70.0,70.0,69.0,69.0,70.0,69.0,68.0,68.0,68.0,68.0,70.0,69.0,68.0,68.0,69.0,70.0,70.0,73.0,72.0,73.0,73.0,74.0,72.0,71.0,70.0,69.0,68.0,67.0,66.0,64.0,65.0,64.0,64.0,64.0,65.0,63.0,64.0,64.0,64.0,64.0,63.0,63.0,64.0,63.0,62.0,63.0,63.0,64.0,63.0,64.0,63.0,63.0,64.0,64.0,65.0,65.0,65.0,66.0,65.0,65.0,63.0,63.0,61.0,62.0,61.0,60.0,61.0,62.0,60.0,60.0,60.0,60.0,61.0,61.0,62.0,63.0,63.0,61.0,63.0,60.0,59.0,59.0,59.0,57.0,57.0,57.0,57.0,57.0,58.0,59.0,58.0,59.0,58.0,58.0,57.0,57.0,59.0,60.0,61.0,63.0,64.0,64.0,64.0,65.0,65.0,67.0,66.0,65.0,66.0,64.0,65.0,65.0,64.0,66.0,65.0,66.0,64.0,65.0,64.0,62.0,63.0,62.0,65.0,65.0,66.0,66.0,65.0,65.0,62.0,63.0,62.0,63.0,63.0,63.0,61.0,60.0,62.0,61.0,62.0,61.0,63.0,62.0,62.0,64.0,62.0,62.0,61.0,63.0,62.0,61.0,61.0,61.0,61.0,62.0,60.0,61.0,59.0,59.0,58.0,58.0,58.0,58.0,59.0,60.0,59.0,57.0,56.0,58.0,58.0,60.0,61.0,61.0,60.0,63.0,64.0,65.0,68.0,68.0,70.0,69.0,69.0,70.0,70.0,71.0,72.0,73.0,73.0,74.0,75.0,73.0,75.0,74.0,75.0,75.0,75.0,75.0,73.0,74.0,72.0,72.0,71.0,71.0,69.0,70.0,71.0,70.0,69.0,69.0,68.0,66.0,65.0,64.0,62.0,62.0,61.0,62.0,61.0,59.0,61.0,57.0,57.0,58.0,58.0,58.0,57.0,58.0,58.0,59.0,58.0,58.0,58.0,58.0,58.0,55.0,56.0,55.0,54.0,54.0,55.0,57.0,54.0,55.0,57.0,57.0,57.0,58.0,58.0,56.0,57.0,58.0,58.0,60.0,57.0,59.0,58.0,57.0,59.0,58.0,60.0,61.0,60.0,60.0,59.0,60.0,58.0,60.0,59.0,60.0,60.0,60.0,60.0,60.0,60.0,59.0,62.0,61.0,62.0,62.0,62.0,65.0,63.0,65.0,65.0,64.0,66.0,66.0,64.0,63.0,63.0,60.0,60.0,61.0,59.0,59.0,57.0,58.0,56.0,56.0,56.0,55.0,54.0,53.0,53.0,52.0,52.0,52.0,50.0,51.0,51.0,52.0,51.0,52.0,53.0,54.0,54.0,54.0,55.0,55.0,55.0,56.0,55.0,55.0,55.0,55.0,54.0,54.0,57.0,57.0,58.0,58.0,58.0,57.0,57.0,56.0,57.0,57.0,58.0,59.0,59.0,59.0,59.0,59.0,58.0,57.0,57.0,57.0,58.0,59.0,58.0,59.0,59.0,60.0,60.0,58.0,57.0,56.0,56.0,56.0,57.0,57.0,57.0,58.0,58.0,58.0,59.0,61.0,62.0,60.0,60.0,60.0,62.0,63.0,65.0,66.0,68.0,69.0,68.0,68.0,68.0,69.0,70.0,71.0,72.0,72.0,71.0,70.0,70.0,69.0,68.0,67.0,66.0,67.0,67.0,67.0,66.0,64.0,63.0,62.0,65.0,67.0,66.0,66.0,66.0,68.0,68.0,67.0,66.0,65.0,65.0,64.0,63.0,63.0,63.0,64.0,62.0,63.0,62.0,63.0,65.0,66.0,65.0,65.0,65.0,64.0,66.0,65.0,65.0,65.0,66.0,65.0,65.0,65.0,65.0,66.0,65.0,65.0,66.0,65.0,64.0,63.0,63.0,62.0,61.0,61.0,60.0,61.0,60.0,60.0,59.0,60.0,60.0,60.0,61.0,61.0,60.0,60.0,59.0,60.0,58.0,59.0,57.0,57.0,57.0,57.0,57.0,58.0,59.0,60.0,59.0,61.0,61.0,63.0,62.0,64.0,64.0,63.0,65.0,67.0,67.0,66.0,66.0,65.0,68.0,69.0,71.0,71.0,72.0,72.0,71.0,71.0,71.0,69.0,69.0,67.0,69.0,67.0,68.0,68.0,65.0,66.0,65.0,65.0,65.0,62.0,62.0,61.0,61.0,60.0,61.0,60.0,61.0,60.0
51.0,52.0,53.0,50.0,49.0,47.0,46.0,46.0,44.0,45.0,45.0,44.0,44.0,45.0,45.0,45.0,45.0,44.0,45.0,44.0,42.0,43.0,42.0,42.0,44.0,43.0,42.0,41.0,41.0,40.0,40.0,41.0,42.0,43.0,41.0,42.0,42.0,42.0,41.0,42.0,43.0,43.0,43.0,42.0,42.0,41.0,41.0,42.0,43.0,43.0,39.0,40.0,39.0,38.0,38.0,39.0,42.0,41.0,42.0,41.0,42.0,43.0,44.0,43.0,44.0,45.0,44.0,43.0,44.0,45.0,45.0,44.0,45.0,43.0,43.0,43.0,42.0,43.0,42.0,43.0,42.0,43.0,43.0,41.0,42.0,42.0,42.0,40.0,41.0,40.0,41.0,44.0,42.0,42.0,42.0,41.0,40.0,40.0,39.0,39.0,42.0,42.0,41.0,41.0,39.0,39.0,41.0,42.0,41.0,41.0,41.0,41.0,43.0,41.0,39.0,39.0,41.0,41.0,43.0,44.0,44.0,44.0,46.0,47.0,48.0,47.0,48.0,45.0,45.0,46.0,46.0,47.0,46.0,47.0,45.0,44.0,43.0,42.0,44.0,43.0,42.0,40.0,42.0,42.0,43.0,44.0,43.0,42.0,42.0,42.0,42.0,41.0,40.0,42.0,42.0,41.0,42.0,41.0,40.0,39.0,39.0,43.0,41.0,42.0,42.0,41.0,40.0,40.0,40.0,40.0,39.0,39.0,37.0,38.0,37.0,37.0,37.0,40.0,39.0,38.0,39.0,41.0,41.0,42.0,43.0,44.0,43.0,42.0,42.0,41.0,42.0,46.0,49.0,48.0,49.0,53.0,54.0,53.0,63.0,61.0,59.0,61.0,65.0,63.0,60.0,58.0,56.0,57.0,60.0,61.0,58.0,59.0,58.0,59.0,56.0,55.0,53.0,53.0,53.0,53.0,54.0,52.0,54.0,54.0,57.0,58.0,56.0,55.0,56.0,55.0,56.0,57.0,58.0,56.0,56.0,56.0,55.0,53.0,54.0,57.0,55.0,57.0,58.0,55.0,55.0,55.0,57.0,59.0,58.0,56.0,62.0,59.0,59.0,59.0,54.0,56.0,56.0,57.0,56.0,55.0,55.0,53.0,54.0,54.0,54.0,53.0,54.0,53.0,50.0,52.0,52.0,52.0,51.0,50.0,52.0,49.0,49.0,48.0,48.0,48.0,47.0,50.0,48.0,48.0,59.0,61.0,69.0,69.0,68.0,74.0,79.0,87.0,87.0,86.0,93.0,91.0,96.0,102.0,97.0,95.0,100.0,99.0,93.0,84.0,83.0,81.0,76.0,72.0,69.0,71.0,70.0,71.0,69.0,65.0,64.0,63.0,66.0,66.0,66.0,66.0,63.0,62.0,62.0,61.0,58.0,56.0,58.0,57.0,56.0,57.0,55.0,55.0,57.0,58.0,58.0,58.0,57.0,56.0,54.0,54.0,52.0,50.0,49.0,48.0,49.0,47.0,46.0,46.0,46.0,50.0,48.0,47.0,45.0,46.0,45.0,49.0,48.0,49.0,52.0,50.0,51.0,49.0,47.0,48.0,45.0,48.0,48.0,47.0,45.0,46.0,45.0,45.0,46.0,45.0,47.0,50.0,48.0,47.0,45.0,43.0,44.0,45.0,45.0,45.0,47.0,45.0,46.0,45.0,44.0,45.0,43.0,44.0,43.0,45.0,44.0,47.0,45.0,46.0,45.0,44.0,45.0,44.0,45.0,45.0,46.0,45.0,49.0,49.0,48.0,49.0,50.0,48.0,51.0,54.0,57.0,54.0,54.0,53.0,52.0,51.0,52.0,52.0,51.0,49.0,49.0,47.0,49.0,52.0,51.0,51.0,50.0,48.0,47.0,46.0,48.0,49.0,47.0,46.0,46.0,44.0,47.0,47.0,47.0,46.0,45.0,43.0,42.0,41.0,39.0,42.0,43.0,42.0,43.0,41.0,41.0,40.0,43.0,44.0,46.0,44.0,43.0,42.0,41.0,41.0,41.0,41.0,41.0,40.0,41.0,41.0,40.0,40.0,39.0,39.0,39.0,41.0,40.0,43.0,42.0,42.0,43.0,42.0,44.0,44.0,44.0,45.0,44.0,45.0,44.0,44.0,44.0,46.0,48.0,49.0,50.0,49.0,51.0,51.0,51.0,51.0,50.0,48.0,47.0,46.0,45.0,44.0,45.0,47.0,46.0,45.0,46.0,46.0,45.0,44.0,44.0,44.0,44.0,46.0,46.0,48.0,48.0,47.0,48.0,46.0,45.0,43.0,43.0,43.0,43.0,42.0,42.0,42.0,41.0,39.0,40.0,39.0,42.0,42.0,42.0,43.0,43.0,42.0,42.0,45.0,42.0,42.0,41.0,40.0,41.0,40.0,42.0,41.0,43.0,42.0,41.0,41.0,40.0,41.0,41.0,41.0,41.0,40.0,41.0,40.0,40.0,40.0,40.0,40.0,38.0,39.0,38.0,37.0,36.0,38.0,38.0,37.0,39.0,38.0,38.0,37.0,37.0,38.0,37.0,39.0,37.0,38.0,38.0,39.0,38.0,39.0,40.0,38.0,41.0,41.0,41.0,40.0,41.0,41.0,40.0,39.0,40.0,41.0,40.0,39.0,39.0,39.0,38.0,38.0,37.0,37.0,39.0,38.0,37.0,37.0,35.0,35.0,35.0,35.0,38.0,38.0,40.0,39.0,38.0,38.0,38.0,39.0,40.0,41.0,42.0,41.0,43.0,42.0,40.0,40.0,42.0,43.0,44.0,45.0,45.0,46.0,47.0,50.0,51.0,51.0,52.0,51.0,53.0,52.0,50.0,48.0,47.0,46.0,44.0,44.0,45.0,47.0,47.0,47.0,48.0,47.0,47.0,50.0,51.0,51.0,52.0,52.0,52.0,51.0,49.0,48.0,49.0,49.0,49.0,49.0,51.0,51.0,51.0,50.0,52.0,52.0,52.0,51.0,52.0,51.0,51.0,51.0,50.0,49.0,49.0,49.0,47.0,48.0,50.0,49.0,47.0,47.0,47.0,45.0,45.0,45.0,44.0,44.0,46.0,47.0,47.0,47.0,48.0,47.0,47.0,50.0,52.0,51.0,50.0,50.0,50.0,50.0,50.0,50.0,50.0,50.0,49.0,47.0,46.0,45.0,42.0,40.0,43.0,43.0,42.0,40.0,40.0,39.0,38.0,38.0,37.0,38.0,40.0,41.0,40.0,39.0,38.0,36.0,38.0,38.0,41.0,42.0,41.0,44.0,42.0,41.0,41.0,41.0,41.0,40.0,42.0,40.0,42.0,42.0,41.0,42.0,44.0,45.0,48.0,49.0,52.0,53.0,52.0,54.0,54.0,52.0,52.0,50.0,50.0,49.0,48.0,49.0,47.0,47.0,45.0,45.0,45.0,44.0,44.0,45.0,45.0,46.0,46.0,46.0,44.0,45.0,45.0,44.0,44.0,42.0,41.0,39.0,40.0,38.0,39.0,41.0,40.0,39.0,39.0,39.0,38.0,37.0,37.0,37.0,39.0,38.0,39.0,37.0,37.0,37.0,35.0,37.0,36.0,36.0,37.0,37.0,38.0,37.0,38.0,38.0,40.0,38.0,37.0,37.0,37.0,39.0,39.0,39.0,40.0,39.0,39.0,39.0,39.0,38.0,39.0,37.0,37.0,36.0,36.0,38.0,38.0,37.0,38.0,39.0,38.0,41.0,41.0,39.0,40.0,39.0,39.0,38.0,37.0,39.0,38.0,39.0,37.0,38.0,37.0,37.0,37.0,36.0,39.0,40.0,40.0,40.0,39.0,39.0,37.0,38.0,36.0,38.0,37.0,37.0,37.0,38.0,39.0,38.0,39.0,41.0,41.0,44.0,43.0,44.0,45.0,46.0,46.0,47.0,46.0,46.0,46.0,46.0,46.0,46.0,45.0,48.0,46.0,44.0,44.0,45.0,46.0,47.0,48.0,47.0,46.0,46.0,45.0,46.0,46.0,45.0,44.0,45.0,45.0,46.0,46.0,45.0,45.0,46.0,46.0,47.0,45.0,45.0,45.0,45.0,44.0,44.0,41.0,41.0,42.0,41.0,43.0,43.0,46.0,46.0,46.0,47.0,45.0,47.0,48.0,47.0,48.0,46.0,44.0,43.0,43.0,44.0,43.0,44.0,45.0,44.0,43.0,42.0,43.0,43.0,44.0,43.0,43.0,43.0,44.0,43.0,42.0,42.0,41.0,42.0,41.0,45.0,44.0,42.0,42.0,40.0,40.0,39.0,39.0,38.0,44.0,42.0,40.0,41.0,40.0,40.0,40.0,39.0,40.0,40.0,39.0,38.0,40.0,41.0,40.0,40.0,41.0,43.0,42.0,42.0,40.0,39.0
40.0,35.0,40.0,48.0,46.0,42.0,40.0,43.0,40.0,34.0,41.0,47.0,42.0,41.0,41.0,37.0,33.0,31.0,41.0,43.0,40.0,44.0,42.0,38.0,40.0,35.0,37.0,37.0,34.0,31.0,34.0,33.0,31.0,30.0,28.0,27.0,30.0,30.0,35.0,36.0,32.0,28.0,25.0,25.0,23.0,27.0,37.0,39.0,36.0,31.0,28.0,26.0,25.0,26.0,28.0,33.0,38.0,38.0,36.0,33.0,32.0,30.0,34.0,35.0,42.0,43.0,38.0,34.0,32.0,39.0,37.0,42.0,41.0,41.0,34.0,44.0,40.0,39.0,50.0,50.0,45.0,45.0,39.0,36.0,37.0,50.0,50.0,45.0,44.0,39.0,39.0,53.0,54.0,49.0,58.0,55.0,48.0,45.0,39.0,47.0,57.0,56.0,48.0,45.0,41.0,39.0,40.0,35.0,34.0,34.0,35.0,38.0,34.0,30.0,25.0,28.0,37.0,44.0,47.0,44.0,41.0,45.0,53.0,48.0,42.0,38.0,34.0,36.0,32.0,33.0,37.0,33.0,29.0,27.0,41.0,37.0,38.0,33.0,42.0,38.0,33.0,30.0,30.0,28.0,43.0,55.0,51.0,44.0,44.0,42.0,38.0,38.0,34.0,44.0,42.0,47.0,45.0,40.0,40.0,35.0,31.0,39.0,39.0,45.0,40.0,39.0,39.0,36.0,42.0,42.0,39.0,37.0,36.0,39.0,35.0,32.0,35.0,36.0,39.0,40.0,39.0,37.0,33.0,30.0,54.0,49.0,44.0,38.0,43.0,38.0,34.0,30.0,28.0,25.0,21.0,22.0,19.0,21.0,25.0,29.0,38.0,39.0,40.0,36.0,35.0,31.0,27.0,27.0,42.0,50.0,54.0,61.0,71.0,68.0,61.0,57.0,51.0,56.0,63.0,76.0,83.0,75.0,70.0,72.0,73.0,78.0,74.0,69.0,63.0,66.0,60.0,70.0,69.0,69.0,67.0,75.0,74.0,79.0,75.0,97.0,95.0,94.0,86.0,87.0,80.0,77.0,71.0,76.0,77.0,72.0,87.0,90.0,91.0,87.0,79.0,69.0,69.0,64.0,59.0,64.0,62.0,56.0,53.0,53.0,52.0,52.0,65.0,61.0,55.0,54.0,55.0,58.0,66.0,70.0,74.0,77.0,76.0,77.0,75.0,74.0,74.0,88.0,103.0,97.0,162.0,184.0,245.0,244.0,253.0,256.0,293.0,320.0,289.0,293.0,337.0,340.0,342.0,348.0,339.0,333.0,319.0,283.0,253.0,228.0,203.0,197.0,186.0,167.0,163.0,178.0,187.0,178.0,162.0,146.0,135.0,129.0,124.0,121.0,112.0,129.0,143.0,129.0,136.0,126.0,119.0,114.0,114.0,103.0,96.0,86.0,80.0,90.0,87.0,78.0,81.0,84.0,85.0,83.0,83.0,79.0,77.0,70.0,63.0,61.0,59.0,56.0,54.0,55.0,52.0,53.0,49.0,42.0,38.0,41.0,37.0,47.0,47.0,45.0,46.0,45.0,39.0,40.0,46.0,52.0,60.0,58.0,58.0,52.0,47.0,57.0,50.0,49.0,46.0,45.0,62.0,67.0,60.0,52.0,48.0,44.0,51.0,54.0,65.0,62.0,62.0,65.0,59.0,55.0,51.0,53.0,49.0,48.0,65.0,57.0,52.0,64.0,69.0,61.0,54.0,54.0,48.0,46.0,48.0,64.0,56.0,67.0,71.0,62.0,55.0,48.0,49.0,45.0,47.0,63.0,58.0,56.0,51.0,46.0,44.0,44.0,50.0,44.0,39.0,38.0,40.0,43.0,65.0,61.0,54.0,48.0,41.0,41.0,38.0,44.0,56.0,49.0,44.0,45.0,41.0,38.0,52.0,51.0,50.0,51.0,49.0,47.0,47.0,45.0,40.0,45.0,49.0,46.0,41.0,42.0,41.0,37.0,41.0,37.0,46.0,43.0,46.0,41.0,36.0,32.0,30.0,27.0,25.0,27.0,32.0,32.0,35.0,34.0,37.0,35.0,34.0,37.0,40.0,40.0,36.0,37.0,33.0,34.0,40.0,39.0,45.0,43.0,39.0,40.0,37.0,32.0,37.0,38.0,36.0,34.0,37.0,34.0,37.0,35.0,33.0,29.0,29.0,29.0,31.0,30.0,28.0,25.0,37.0,37.0,35.0,32.0,28.0,25.0,23.0,22.0,20.0,18.0,18.0,22.0,25.0,32.0,33.0,30.0,28.0,25.0,23.0,22.0,19.0,26.0,34.0,33.0,34.0,29.0,38.0,36.0,33.0,30.0,37.0,45.0,37.0,39.0,44.0,39.0,37.0,47.0,50.0,44.0,41.0,37.0,35.0,32.0,40.0,41.0,41.0,42.0,40.0,34.0,31.0,28.0,26.0,24.0,30.0,28.0,33.0,31.0,29.0,37.0,32.0,28.0,27.0,27.0,25.0,27.0,27.0,30.0,26.0,24.0,22.0,21.0,21.0,22.0,22.0,27.0,24.0,22.0,32.0,29.0,34.0,34.0,30.0,34.0,30.0,28.0,27.0,41.0,35.0,34.0,33.0,32.0,31.0,27.0,38.0,33.0,32.0,30.0,29.0,26.0,24.0,22.0,20.0,27.0,28.0,23.0,25.0,24.0,20.0,17.0,20.0,23.0,25.0,41.0,38.0,33.0,30.0,26.0,27.0,23.0,23.0,22.0,22.0,21.0,28.0,26.0,29.0,27.0,28.0,26.0,23.0,29.0,30.0,29.0,34.0,34.0,31.0,28.0,28.0,36.0,40.0,39.0,35.0,36.0,36.0,32.0,30.0,29.0,33.0,32.0,31.0,37.0,32.0,31.0,32.0,32.0,29.0,27.0,27.0,31.0,31.0,30.0,26.0,25.0,31.0,28.0,24.0,25.0,24.0,25.0,23.0,25.0,25.0,22.0,22.0,23.0,24.0,27.0,30.0,37.0,32.0,28.0,39.0,35.0,33.0,30.0,37.0,33.0,37.0,41.0,38.0,36.0,32.0,29.0,24.0,23.0,27.0,24.0,27.0,24.0,25.0,21.0,21.0,26.0,24.0,25.0,31.0,26.0,30.0,33.0,29.0,34.0,36.0,35.0,35.0,35.0,35.0,31.0,26.0,24.0,34.0,31.0,32.0,31.0,29.0,26.0,24.0,21.0,18.0,18.0,28.0,32.0,30.0,27.0,23.0,22.0,20.0,22.0,27.0,25.0,25.0,25.0,24.0,23.0,24.0,37.0,35.0,33.0,31.0,31.0,36.0,33.0,35.0,42.0,39.0,35.0,34.0,31.0,29.0,26.0,25.0,23.0,34.0,37.0,33.0,33.0,30.0,30.0,36.0,46.0,47.0,44.0,41.0,38.0,39.0,35.0,35.0,42.0,45.0,41.0,44.0,43.0,40.0,35.0,43.0,38.0,35.0,32.0,31.0,30.0,26.0,26.0,28.0,41.0,38.0,38.0,35.0,32.0,31.0,29.0,38.0,43.0,46.0,47.0,43.0,42.0,40.0,46.0,48.0,45.0,43.0,43.0,50.0,58.0,53.0,55.0,48.0,55.0,51.0,46.0,39.0,35.0,32.0,31.0,30.0,29.0,32.0,33.0,30.0,30.0,30.0,28.0,28.0,25.0,23.0,23.0,23.0,41.0,46.0,41.0,36.0,32.0,32.0,35.0,35.0,31.0,31.0,27.0,25.0,30.0,29.0,35.0,44.0,40.0,35.0,33.0,29.0,27.0,24.0,23.0,21.0,29.0,27.0,25.0,24.0,24.0,25.0,24.0,23.0,31.0,28.0,29.0,27.0,29.0,34.0,31.0,31.0,28.0,26.0,26.0,24.0,24.0,26.0,31.0,29.0,33.0,30.0,28.0,25.0,22.0,21.0,18.0,18.0,19.0,20.0,18.0,24.0,22.0,21.0,30.0,27.0,24.0,21.0,20.0,18.0,22.0,25.0,21.0,23.0,27.0,25.0,27.0,29.0,27.0,24.0,23.0,32.0,37.0,33.0,29.0,26.0,25.0,24.0,22.0,21.0,21.0,20.0,17.0,16.0,15.0,17.0,21.0,19.0,16.0,16.0,14.0,13.0,13.0,23.0,23.0,22.0,23.0,20.0,20.0,19.0,19.0,31.0,31.0,34.0,30.0,31.0,42.0,38.0,35.0,30.0,37.0,32.0,30.0,28.0,27.0,23.0,24.0,22.0,22.0,24.0,23.0,24.0,22.0,20.0,22.0,22.0,19.0,25.0,23.0,22.0,22.0,23.0,20.0,22.0,20.0,24.0,25.0,20.0,21.0,20.0,20.0,21.0,20.0,21.0,34.0,32.0,33.0,31.0,30.0
102.0,96.0,102.0,105.0,112.0,107.0,99.0,102.0,104.0,99.0,95.0,96.0,93.0,95.0,102.0,100.0,97.0,96.0,97.0,101.0,104.0,100.0,102.0,102.0,98.0,97.0,98.0,101.0,102.0,99.0,97.0,101.0,99.0,105.0,106.0,103.0,100.0,99.0,104.0,109.0,109.0,99.0,93.0,90.0,91.0,95.0,99.0,103.0,99.0,97.0,98.0,103.0,97.0,99.0,98.0,99.0,105.0,107.0,103.0,99.0,98.0,109.0,114.0,116.0,118.0,114.0,110.0,112.0,108.0,103.0,104.0,107.0,101.0,93.0,101.0,101.0,97.0,94.0,92.0,88.0,87.0,99.0,96.0,99.0,97.0,100.0,107.0,97.0,95.0,95.0,88.0,87.0,87.0,93.0,98.0,91.0,96.0,101.0,101.0,98.0,97.0,97.0,101.0,102.0,101.0,104.0,100.0,91.0,100.0,109.0,104.0,99.0,98.0,92.0,84.0,78.0,73.0,76.0,73.0,87.0,88.0,85.0,94.0,98.0,98.0,97.0,95.0,92.0,98.0,105.0,108.0,105.0,99.0,113.0,106.0,102.0,101.0,98.0,107.0,115.0,122.0,114.0,117.0,114.0,125.0,120.0,113.0,114.0,120.0,127.0,144.0,143.0,130.0,126.0,134.0,134.0,129.0,134.0,137.0,134.0,137.0,131.0,122.0,111.0,112.0,107.0,108.0,120.0,116.0,114.0,112.0,114.0,118.0,110.0,107.0,104.0,102.0,105.0,107.0,133.0,127.0,125.0,132.0,132.0,130.0,138.0,136.0,128.0,119.0,120.0,113.0,121.0,136.0,139.0,136.0,131.0,141.0,146.0,168.0,178.0,170.0,164.0,152.0,182.0,209.0,208.0,190.0,183.0,180.0,205.0,221.0,216.0,205.0,196.0,191.0,207.0,195.0,196.0,189.0,206.0,212.0,222.0,254.0,255.0,249.0,233.0,215.0,208.0,208.0,218.0,226.0,239.0,270.0,247.0,281.0,277.0,305.0,365.0,340.0,310.0,306.0,313.0,310.0,308.0,311.0,313.0,304.0,324.0,326.0,313.0,313.0,311.0,289.0,282.0,262.0,252.0,241.0,250.0,259.0,253.0,257.0,248.0,243.0,241.0,231.0,241.0,267.0,274.0,288.0,294.0,278.0,312.0,302.0,323.0,331.0,320.0,287.0,256.0,253.0,278.0,258.0,247.0,242.0,228.0,276.0,276.0,309.0,329.0,336.0,348.0,348.0,383.0,381.0,392.0,459.0,466.0,461.0,486.0,460.0,418.0,412.0,466.0,431.0,393.0,359.0,391.0,372.0,366.0,368.0,376.0,352.0,331.0,310.0,287.0,270.0,260.0,267.0,262.0,257.0,256.0,254.0,256.0,243.0,236.0,223.0,220.0,221.0,214.0,214.0,206.0,197.0,191.0,191.0,200.0,191.0,186.0,181.0,177.0,170.0,174.0,167.0,155.0,155.0,149.0,141.0,139.0,130.0,126.0,122.0,114.0,110.0,129.0,125.0,130.0,130.0,127.0,120.0,113.0,111.0,109.0,105.0,116.0,112.0,109.0,112.0,112.0,134.0,122.0,122.0,116.0,112.0,105.0,117.0,117.0,118.0,129.0,122.0,127.0,129.0,136.0,127.0,124.0,121.0,122.0,132.0,131.0,124.0,124.0,126.0,126.0,121.0,131.0,125.0,120.0,111.0,115.0,112.0,108.0,107.0,101.0,111.0,105.0,103.0,119.0,120.0,119.0,120.0,125.0,121.0,118.0,120.0,118.0,114.0,117.0,118.0,121.0,125.0,119.0,114.0,117.0,121.0,124.0,124.0,123.0,115.0,117.0,114.0,117.0,124.0,113.0,105.0,98.0,107.0,108.0,120.0,128.0,117.0,116.0,109.0,113.0,119.0,125.0,121.0,110.0,106.0,109.0,103.0,106.0,114.0,129.0,124.0,118.0,110.0,107.0,102.0,96.0,97.0,110.0,126.0,120.0,121.0,118.0,115.0,109.0,105.0,97.0,95.0,90.0,84.0,97.0,101.0,107.0,112.0,116.0,111.0,107.0,110.0,112.0,112.0,109.0,102.0,100.0,99.0,111.0,111.0,128.0,120.0,112.0,106.0,112.0,108.0,104.0,107.0,107.0,103.0,102.0,106.0,101.0,101.0,98.0,100.0,100.0,103.0,98.0,98.0,108.0,111.0,107.0,128.0,128.0,122.0,121.0,118.0,124.0,120.0,115.0,124.0,114.0,133.0,123.0,125.0,121.0,111.0,102.0,115.0,112.0,110.0,110.0,108.0,109.0,117.0,120.0,114.0,105.0,99.0,104.0,100.0,128.0,130.0,125.0,120.0,114.0,120.0,127.0,128.0,128.0,119.0,116.0,111.0,115.0,109.0,109.0,106.0,107.0,109.0,105.0,96.0,95.0,92.0,94.0,99.0,100.0,94.0,90.0,90.0,87.0,86.0,89.0,85.0,84.0,86.0,85.0,81.0,83.0,80.0,86.0,85.0,82.0,95.0,100.0,94.0,89.0,93.0,100.0,98.0,97.0,98.0,97.0,92.0,93.0,95.0,114.0,116.0,121.0,123.0,120.0,119.0,124.0,122.0,116.0,118.0,120.0,122.0,128.0,120.0,113.0,119.0,112.0,114.0,106.0,109.0,113.0,115.0,111.0,114.0,146.0,134.0,130.0,127.0,124.0,137.0,129.0,128.0,131.0,120.0,130.0,129.0,138.0,132.0,123.0,124.0,119.0,111.0,106.0,105.0,111.0,116.0,116.0,116.0,114.0,136.0,129.0,119.0,112.0,105.0,109.0,113.0,116.0,109.0,100.0,94.0,94.0,93.0,97.0,105.0,115.0,115.0,112.0,104.0,106.0,100.0,94.0,103.0,103.0,96.0,97.0,111.0,107.0,101.0,102.0,101.0,106.0,105.0,103.0,105.0,97.0,95.0,102.0,103.0,113.0,107.0,102.0,100.0,100.0,94.0,110.0,107.0,100.0,112.0,109.0,124.0,135.0,145.0,141.0,132.0,133.0,124.0,114.0,110.0,105.0,109.0,107.0,106.0,108.0,106.0,108.0,116.0,109.0,108.0,108.0,113.0,110.0,105.0,103.0,108.0,108.0,108.0,110.0,106.0,113.0,112.0,104.0,102.0,100.0,101.0,104.0,112.0,110.0,111.0,108.0,109.0,113.0,116.0,116.0,107.0,110.0,115.0,127.0,137.0,132.0,120.0,118.0,123.0,137.0,139.0,136.0,133.0,125.0,117.0,114.0,107.0,103.0,108.0,108.0,130.0,122.0,113.0,116.0,115.0,116.0,113.0,108.0,105.0,110.0,111.0,109.0,101.0,100.0,99.0,103.0,108.0,109.0,106.0,103.0,102.0,99.0,97.0,98.0,96.0,89.0,89.0,100.0,99.0,99.0,107.0,104.0,100.0,102.0,95.0,89.0,94.0,93.0,100.0,100.0,111.0,116.0,110.0,107.0,101.0,99.0,93.0,112.0,108.0,106.0,108.0,112.0,120.0,120.0,112.0,108.0,111.0,114.0,109.0,112.0,106.0,102.0,101.0,120.0,115.0,111.0,112.0,108.0,102.0,98.0,105.0,104.0,97.0,92.0,92.0,90.0,96.0,95.0,92.0,90.0,104.0,102.0,110.0,114.0,118.0,113.0,109.0,104.0,111.0,108.0,102.0,105.0,102.0,101.0,98.0,97.0,98.0,98.0,97.0,95.0,92.0,99.0,98.0,98.0,98.0,96.0,92.0,105.0,105.0,105.0,104.0,114.0,113.0,116.0,113.0,107.0,109.0,117.0,128.0,126.0,114.0,109.0,106.0,100.0,100.0,104.0,104.0,108.0,113.0,119.0,117.0,109.0,102.0,99.0,97.0,95.0,105.0,101.0,97.0,92.0,104.0,104.0,98.0,93.0,93.0,94.0,102.0,101.0,92.0,99.0,98.0,98.0,108.0,107.0,105.0,102.0,96.0,109.0,109.0,102.0,96.0,97.0,110.0,125.0,116.0,107.0,104.0,100.0,98.0,99.0,100.0,96.0,91.0,95.0,100.0,105.0,99.0,90.0,95.0,89.0,84.0,103.0,110.0,115.0,106.0,100.0,95.0,99.0,90.0,99.0,99.0,96.0,109.0,113.0,111.0,108.0,105.0,99.0,95.0,96.0,101.0,102.0,97.0,112.0,108.0,110.0,116.0,107.0,101.0,102.0,102.0,104.0,104.0,104.0,101.0,101.0,103.0,103.0,112.0,109.0,104.0,97.0,108.0,104.0,107.0,107.0,99.0,100.0,104.0,102.0,98.0,98.0,92.0,87.0,91.0,96.0,95.0,93.0,99.0,98.0,95.0,106.0,111.0,108.0,98.0,104.0
