51.0,50.0,51.0,50.0,49.0,49.0,48.0,50.0,49.0,50.0,50.0,51.0,51.0,51.0,52.0,51.0,51.0,51.0,51.0,51.0,51.0,51.0,49.0,49.0,48.0,48.0,48.0,48.0,49.0,48.0,49.0,49.0,50.0,50.0,49.0,49.0,48.0,48.0,48.0,47.0,48.0,48.0,49.0,48.0,48.0,48.0,47.0,48.0,47.0,47.0,48.0,47.0,48.0,46.0,46.0,45.0,46.0,45.0,45.0,45.0,46.0,45.0,45.0,46.0,46.0,46.0,48.0,48.0,49.0,49.0,49.0,48.0,48.0,46.0,47.0,47.0,48.0,50.0,49.0,50.0,49.0,50.0,51.0,51.0,53.0,54.0,53.0,54.0,54.0,55.0,55.0,57.0,58.0,59.0,59.0,59.0,60.0,60.0,60.0,60.0,60.0,58.0,57.0,58.0,56.0,56.0,54.0,54.0,56.0,55.0,56.0,57.0,57.0,56.0,56.0,56.0,56.0,57.0,57.0,60.0,61.0,61.0,61.0,59.0,60.0,58.0,59.0,58.0,58.0,58.0,58.0,59.0,59.0,59.0,59.0,58.0,58.0,57.0,55.0,53.0,54.0,53.0,53.0,53.0,54.0,57.0,59.0,61.0,63.0,63.0,64.0,62.0,61.0,62.0,62.0,61.0,61.0,60.0,59.0,58.0,58.0,60.0,60.0,59.0,59.0,59.0,59.0,59.0,57.0,57.0,56.0,54.0,52.0,53.0,53.0,53.0,52.0,51.0,51.0,49.0,48.0,49.0,50.0,49.0,48.0,50.0,51.0,51.0,51.0,52.0,50.0,50.0,52.0,51.0,52.0,53.0,53.0,53.0,53.0,52.0,51.0,52.0,50.0,51.0,52.0,51.0,52.0,53.0,53.0,53.0,53.0,52.0,51.0,51.0,49.0,49.0,48.0,49.0,49.0,48.0,49.0,50.0,49.0,49.0,53.0,53.0,53.0,53.0,54.0,63.0,65.0,64.0,68.0,76.0,79.0,75.0,74.0,71.0,72.0,74.0,75.0,80.0,81.0,79.0,78.0,73.0,72.0,68.0,67.0,66.0,66.0,64.0,65.0,64.0,64.0,62.0,63.0,62.0,63.0,66.0,67.0,66.0,69.0,67.0,69.0,68.0,67.0,69.0,68.0,66.0,68.0,66.0,65.0,63.0,62.0,60.0,60.0,59.0,60.0,58.0,60.0,59.0,58.0,61.0,59.0,59.0,57.0,57.0,59.0,56.0,57.0,57.0,58.0,58.0,59.0,59.0,57.0,56.0,57.0,56.0,55.0,54.0,55.0,52.0,52.0,51.0,52.0,52.0,54.0,55.0,55.0,57.0,55.0,55.0,57.0,58.0,58.0,58.0,58.0,55.0,55.0,54.0,54.0,53.0,52.0,52.0,50.0,50.0,48.0,47.0,48.0,47.0,48.0,48.0,47.0,48.0,47.0,48.0,48.0,50.0,49.0,47.0,47.0,48.0,48.0,48.0,48.0,48.0,48.0,47.0,47.0,46.0,46.0,47.0,46.0,45.0,45.0,44.0,46.0,46.0,49.0,53.0,55.0,60.0,61.0,61.0,60.0,61.0,60.0,59.0,59.0,61.0,64.0,65.0,74.0,80.0,80.0,80.0,80.0,80.0,82.0,82.0,79.0,81.0,83.0,83.0,88.0,88.0,87.0,89.0,88.0,89.0,85.0,86.0,85.0,83.0,82.0,80.0,79.0,81.0,81.0,80.0,80.0,79.0,83.0,84.0,84.0,82.0,82.0,81.0,79.0,78.0,78.0,76.0,77.0,76.0,77.0,74.0,74.0,73.0,73.0,73.0,71.0,70.0,75.0,75.0,73.0,69.0,72.0,72.0,72.0,68.0,69.0,68.0,67.0,67.0,66.0,66.0,65.0,64.0,63.0,62.0,62.0,61.0,61.0,60.0,61.0,61.0,58.0,59.0,58.0,60.0,59.0,57.0,58.0,55.0,55.0,54.0,53.0,52.0,51.0,51.0,51.0,51.0,52.0,51.0,53.0,52.0,54.0,53.0,54.0,54.0,53.0,52.0,55.0,55.0,55.0,56.0,56.0,55.0,55.0,55.0,54.0,53.0,53.0,51.0,50.0,49.0,49.0,50.0,49.0,49.0,49.0,48.0,50.0,49.0,49.0,48.0,50.0,50.0,50.0,52.0,52.0,52.0,52.0,52.0,53.0,51.0,53.0,51.0,52.0,51.0,53.0,52.0,52.0,51.0,50.0,51.0,49.0,49.0,49.0,49.0,49.0,49.0,50.0,49.0,49.0,51.0,49.0,52.0,50.0,51.0,49.0,48.0,49.0,48.0,49.0,48.0,47.0,46.0,47.0,47.0,45.0,46.0,45.0,46.0,47.0,46.0,45.0,46.0,47.0,46.0,45.0,45.0,45.0,44.0,44.0,44.0,44.0,44.0,44.0,44.0,45.0,44.0,44.0,43.0,45.0,45.0,46.0,46.0,45.0,46.0,46.0,47.0,48.0,49.0,49.0,49.0,48.0,46.0,46.0,46.0,46.0,46.0,45.0,46.0,46.0,46.0,46.0,45.0,46.0,45.0,47.0,46.0,45.0,46.0,46.0,45.0,44.0,45.0,45.0,45.0,45.0,45.0,44.0,44.0,45.0,45.0,44.0,44.0,44.0,45.0,44.0,45.0,44.0,47.0,46.0,47.0,48.0,48.0,49.0,50.0,51.0,50.0,51.0,53.0,52.0,52.0,53.0,54.0,52.0,52.0,54.0,52.0,51.0,51.0,50.0,51.0,49.0,50.0,49.0,50.0,49.0,47.0,48.0,47.0,47.0,48.0,48.0,47.0,47.0,46.0,46.0,45.0,44.0,45.0,46.0,46.0,47.0,47.0,49.0,47.0,47.0,49.0,50.0,51.0,51.0,52.0,50.0,51.0,52.0,53.0,53.0,53.0,53.0,52.0,52.0,51.0,49.0,50.0,49.0,51.0,51.0,52.0,52.0,52.0,51.0,51.0,53.0,52.0,53.0,53.0,54.0,53.0,53.0,55.0,56.0,57.0,59.0,59.0,60.0,60.0,61.0,62.0,61.0,62.0,62.0,63.0,63.0,65.0,64.0,67.0,67.0,68.0,68.0,68.0,70.0,68.0,66.0,66.0,66.0,66.0,64.0,64.0,61.0,61.0,62.0,60.0,63.0,61.0,61.0,62.0,63.0,62.0,61.0,61.0,63.0,64.0,64.0,66.0,67.0,68.0,67.0,68.0,69.0,67.0,67.0,65.0,64.0,63.0,61.0,62.0,60.0,58.0,58.0,55.0,55.0,53.0,56.0,56.0,55.0,55.0,54.0,54.0,54.0,55.0,56.0,55.0,56.0,55.0,55.0,53.0,55.0,54.0,55.0,56.0,58.0,60.0,61.0,62.0,62.0,63.0,65.0,67.0,69.0,71.0,73.0,72.0,75.0,77.0,78.0,80.0,82.0,83.0,83.0,84.0,85.0,85.0,84.0,85.0,85.0,86.0,85.0,87.0,87.0,90.0,92.0,92.0,91.0,92.0,92.0,92.0,94.0,95.0,94.0,94.0,93.0,93.0,94.0,96.0,95.0,99.0,100.0,99.0,100.0,100.0,101.0,103.0,103.0,102.0,102.0,103.0,104.0,103.0,103.0,104.0,104.0,104.0,104.0,104.0,105.0,105.0,105.0,104.0,104.0,104.0,103.0,102.0,100.0,102.0,102.0,102.0,103.0,103.0,103.0,102.0,104.0,102.0,100.0,102.0,102.0,102.0,104.0,105.0,106.0,106.0,108.0,109.0,109.0,107.0,109.0,109.0,110.0,110.0,110.0,112.0,115.0,121.0,128.0,138.0,151.0,166.0,179.0,192.0,205.0,215.0,222.0,228.0,234.0,239.0,243.0,245.0,247.0,247.0,248.0,246.0,244.0,242.0,241.0,238.0,234.0,232.0,229.0,226.0,225.0,223.0,221.0,219.0,219.0,217.0,214.0,212.0,210.0,208.0,202.0,200.0,197.0,193.0,190.0,188.0,186.0,182.0,179.0,176.0,174.0,171.0,168.0,168.0,164.0,164.0,160.0,157.0,153.0,152.0,152.0,148.0,146.0,145.0,145.0,143.0,141.0,139.0,137.0,136.0,134.0,133.0,133.0,132.0,130.0,128.0,127.0,125.0,123.0,122.0,121.0,120.0,117.0,114.0,111.0,110.0,109.0,106.0,104.0,100.0,98.0,97.0,93.0,91.0,89.0,88.0,84.0,83.0,82.0,82.0,80.0,79.0,77.0,74.0,73.0,72.0,71.0,70.0,68.0,68.0,65.0,66.0,65.0,64.0,65.0,63.0,62.0,60.0,58.0,56.0,55.0,53.0,52.0,53.0,51.0,50.0
45.0,46.0,45.0,47.0,46.0,46.0,46.0,46.0,46.0,45.0,46.0,46.0,46.0,45.0,44.0,47.0,46.0,46.0,46.0,45.0,46.0,47.0,46.0,45.0,45.0,45.0,46.0,47.0,48.0,48.0,47.0,49.0,49.0,48.0,49.0,50.0,51.0,51.0,49.0,49.0,50.0,51.0,51.0,55.0,53.0,54.0,55.0,56.0,57.0,59.0,59.0,58.0,59.0,60.0,58.0,58.0,56.0,56.0,54.0,57.0,54.0,54.0,54.0,55.0,56.0,57.0,55.0,59.0,56.0,57.0,57.0,58.0,57.0,59.0,60.0,60.0,60.0,61.0,62.0,62.0,62.0,64.0,62.0,66.0,63.0,62.0,61.0,60.0,60.0,60.0,61.0,61.0,60.0,60.0,61.0,62.0,61.0,61.0,63.0,63.0,64.0,64.0,65.0,62.0,61.0,59.0,60.0,61.0,59.0,59.0,58.0,60.0,59.0,60.0,60.0,59.0,58.0,57.0,58.0,56.0,56.0,56.0,55.0,54.0,52.0,52.0,53.0,51.0,51.0,52.0,52.0,50.0,50.0,50.0,51.0,52.0,52.0,53.0,54.0,55.0,56.0,55.0,55.0,57.0,58.0,55.0,54.0,54.0,54.0,52.0,52.0,51.0,50.0,50.0,50.0,50.0,49.0,48.0,50.0,50.0,53.0,53.0,54.0,57.0,58.0,60.0,58.0,58.0,58.0,58.0,59.0,60.0,60.0,62.0,63.0,63.0,63.0,64.0,64.0,65.0,66.0,65.0,65.0,64.0,65.0,63.0,61.0,61.0,61.0,61.0,61.0,61.0,59.0,60.0,57.0,54.0,54.0,53.0,53.0,53.0,54.0,52.0,53.0,51.0,50.0,49.0,49.0,49.0,47.0,47.0,48.0,49.0,50.0,51.0,53.0,54.0,55.0,54.0,55.0,55.0,55.0,56.0,54.0,59.0,57.0,56.0,57.0,58.0,65.0,124.0,126.0,153.0,164.0,190.0,181.0,166.0,150.0,141.0,170.0,187.0,223.0,241.0,232.0,205.0,185.0,172.0,158.0,183.0,165.0,156.0,145.0,139.0,135.0,128.0,135.0,140.0,150.0,147.0,142.0,136.0,132.0,132.0,130.0,129.0,126.0,126.0,131.0,125.0,121.0,133.0,128.0,118.0,114.0,113.0,114.0,116.0,113.0,111.0,111.0,116.0,109.0,108.0,114.0,107.0,103.0,100.0,104.0,125.0,114.0,110.0,108.0,110.0,105.0,107.0,103.0,101.0,103.0,112.0,111.0,106.0,103.0,101.0,99.0,99.0,99.0,101.0,100.0,101.0,102.0,98.0,99.0,93.0,92.0,89.0,86.0,87.0,83.0,81.0,80.0,79.0,77.0,77.0,78.0,75.0,74.0,72.0,72.0,71.0,71.0,72.0,70.0,72.0,69.0,74.0,71.0,68.0,69.0,66.0,67.0,64.0,62.0,61.0,63.0,60.0,59.0,59.0,56.0,56.0,52.0,53.0,52.0,51.0,50.0,48.0,48.0,47.0,49.0,49.0,49.0,49.0,53.0,55.0,54.0,55.0,55.0,53.0,53.0,51.0,52.0,51.0,53.0,56.0,58.0,62.0,70.0,77.0,76.0,72.0,73.0,70.0,67.0,65.0,63.0,62.0,61.0,60.0,56.0,58.0,59.0,58.0,57.0,57.0,55.0,53.0,51.0,49.0,48.0,49.0,49.0,50.0,50.0,49.0,47.0,47.0,49.0,49.0,50.0,48.0,50.0,51.0,53.0,53.0,54.0,53.0,55.0,57.0,56.0,56.0,56.0,54.0,57.0,57.0,58.0,57.0,55.0,54.0,54.0,52.0,52.0,52.0,51.0,51.0,51.0,49.0,51.0,50.0,51.0,51.0,52.0,54.0,54.0,54.0,52.0,51.0,50.0,48.0,48.0,47.0,47.0,48.0,47.0,49.0,49.0,50.0,49.0,48.0,48.0,49.0,49.0,51.0,51.0,50.0,50.0,49.0,49.0,49.0,50.0,51.0,48.0,48.0,48.0,48.0,48.0,47.0,47.0,44.0,43.0,42.0,41.0,40.0,38.0,41.0,40.0,42.0,40.0,40.0,40.0,40.0,42.0,42.0,42.0,40.0,40.0,39.0,40.0,42.0,40.0,42.0,41.0,40.0,40.0,39.0,38.0,38.0,39.0,38.0,39.0,39.0,40.0,38.0,40.0,40.0,38.0,38.0,38.0,37.0,38.0,37.0,37.0,37.0,37.0,38.0,37.0,38.0,36.0,38.0,38.0,38.0,40.0,40.0,40.0,39.0,38.0,36.0,37.0,38.0,40.0,41.0,39.0,39.0,39.0,39.0,41.0,40.0,43.0,44.0,45.0,46.0,47.0,48.0,50.0,51.0,49.0,50.0,50.0,50.0,51.0,52.0,51.0,52.0,53.0,54.0,56.0,54.0,53.0,54.0,55.0,53.0,52.0,53.0,51.0,49.0,50.0,48.0,51.0,49.0,51.0,49.0,47.0,48.0,49.0,50.0,50.0,50.0,51.0,52.0,53.0,49.0,50.0,50.0,50.0,51.0,51.0,51.0,49.0,48.0,48.0,47.0,48.0,46.0,45.0,46.0,46.0,43.0,42.0,42.0,42.0,43.0,41.0,41.0,41.0,40.0,39.0,39.0,38.0,38.0,38.0,37.0,40.0,42.0,40.0,42.0,42.0,42.0,45.0,46.0,47.0,45.0,47.0,45.0,44.0,44.0,43.0,43.0,41.0,42.0,40.0,42.0,40.0,39.0,40.0,41.0,41.0,39.0,39.0,38.0,37.0,39.0,40.0,40.0,38.0,38.0,38.0,39.0,40.0,40.0,42.0,41.0,41.0,41.0,40.0,39.0,41.0,43.0,40.0,41.0,39.0,40.0,40.0,40.0,42.0,40.0,39.0,39.0,39.0,40.0,40.0,43.0,41.0,43.0,44.0,46.0,45.0,45.0,45.0,44.0,44.0,45.0,43.0,44.0,44.0,43.0,42.0,44.0,43.0,42.0,41.0,40.0,41.0,42.0,44.0,46.0,47.0,47.0,49.0,49.0,46.0,46.0,47.0,47.0,48.0,47.0,48.0,48.0,48.0,48.0,47.0,47.0,47.0,47.0,44.0,43.0,42.0,42.0,42.0,42.0,43.0,43.0,43.0,45.0,48.0,47.0,47.0,47.0,47.0,46.0,47.0,46.0,47.0,44.0,44.0,42.0,44.0,42.0,42.0,42.0,41.0,41.0,40.0,38.0,39.0,39.0,39.0,37.0,38.0,37.0,37.0,40.0,40.0,40.0,39.0,40.0,41.0,42.0,44.0,46.0,49.0,49.0,50.0,51.0,52.0,53.0,56.0,58.0,62.0,66.0,68.0,71.0,73.0,74.0,76.0,78.0,78.0,81.0,83.0,86.0,88.0,89.0,93.0,94.0,98.0,101.0,105.0,104.0,105.0,107.0,109.0,111.0,113.0,114.0,117.0,121.0,121.0,124.0,127.0,126.0,129.0,128.0,129.0,133.0,135.0,139.0,142.0,147.0,148.0,151.0,153.0,158.0,162.0,167.0,170.0,176.0,181.0,183.0,185.0,189.0,190.0,196.0,198.0,202.0,206.0,208.0,214.0,215.0,218.0,221.0,225.0,227.0,231.0,233.0,235.0,236.0,239.0,241.0,244.0,245.0,248.0,247.0,247.0,251.0,252.0,251.0,252.0,253.0,251.0,250.0,251.0,251.0,251.0,251.0,252.0,252.0,253.0,254.0,255.0,254.0,257.0,258.0,256.0,255.0,254.0,253.0,254.0,252.0,252.0,252.0,251.0,252.0,252.0,253.0,250.0,249.0,245.0,245.0,244.0,242.0,240.0,237.0,237.0,236.0,236.0,236.0,233.0,232.0,231.0,229.0,227.0,225.0,224.0,221.0,218.0,216.0,217.0,214.0,214.0,213.0,212.0,211.0,213.0,214.0,212.0,211.0,211.0,209.0,206.0,205.0,204.0,200.0,196.0,196.0,195.0,193.0,189.0,188.0,185.0,183.0,178.0,176.0,172.0,169.0,167.0,161.0,157.0,157.0,154.0,151.0,147.0,146.0,144.0,138.0,136.0,131.0,129.0,127.0,123.0,120.0,118.0,115.0,111.0,107.0,104.0,100.0,96.0,93.0,88.0,85.0,83.0,80.0,78.0,77.0,78.0,75.0,74.0,70.0,66.0,64.0,60.0,59.0,57.0,53.0,50.0,47.0,47.0,45.0,45.0,43.0,44.0,43.0,42.0,44.0,42.0,44.0,47.0,50.0,51.0,52.0,55.0,56.0,57.0,59.0,62.0,65.0,65.0,67.0,70.0,73.0,74.0,75.0,76.0,77.0
22.0,22.0,21.0,19.0,17.0,15.0,27.0,25.0,22.0,21.0,21.0,19.0,17.0,17.0,16.0,22.0,24.0,21.0,19.0,17.0,15.0,19.0,16.0,14.0,12.0,13.0,13.0,21.0,22.0,18.0,19.0,17.0,15.0,14.0,13.0,18.0,18.0,25.0,23.0,21.0,22.0,24.0,23.0,24.0,30.0,26.0,25.0,24.0,21.0,24.0,25.0,22.0,29.0,26.0,23.0,21.0,21.0,24.0,23.0,28.0,27.0,25.0,21.0,21.0,23.0,21.0,19.0,21.0,23.0,20.0,23.0,20.0,18.0,18.0,18.0,17.0,27.0,26.0,22.0,21.0,18.0,16.0,15.0,20.0,25.0,20.0,21.0,20.0,18.0,16.0,14.0,20.0,23.0,20.0,19.0,19.0,19.0,17.0,17.0,15.0,16.0,19.0,18.0,17.0,17.0,19.0,16.0,23.0,21.0,19.0,18.0,17.0,17.0,15.0,14.0,12.0,11.0,18.0,17.0,16.0,15.0,14.0,13.0,11.0,12.0,9.0,17.0,16.0,14.0,13.0,13.0,12.0,10.0,11.0,10.0,23.0,23.0,21.0,20.0,17.0,16.0,14.0,14.0,12.0,19.0,19.0,17.0,16.0,14.0,12.0,12.0,10.0,11.0,11.0,22.0,30.0,27.0,23.0,21.0,19.0,17.0,19.0,18.0,17.0,18.0,26.0,25.0,21.0,20.0,18.0,16.0,14.0,16.0,16.0,19.0,18.0,16.0,16.0,14.0,13.0,12.0,11.0,14.0,12.0,14.0,23.0,19.0,18.0,16.0,15.0,13.0,16.0,16.0,17.0,17.0,15.0,14.0,12.0,11.0,11.0,9.0,10.0,10.0,10.0,8.0,12.0,12.0,10.0,10.0,9.0,9.0,8.0,7.0,8.0,7.0,9.0,8.0,9.0,6.0,6.0,7.0,7.0,9.0,19.0,19.0,20.0,23.0,22.0,21.0,36.0,36.0,43.0,40.0,36.0,39.0,36.0,32.0,40.0,52.0,53.0,54.0,57.0,51.0,45.0,41.0,40.0,38.0,39.0,40.0,44.0,42.0,45.0,77.0,68.0,66.0,68.0,75.0,77.0,80.0,79.0,67.0,62.0,59.0,53.0,47.0,41.0,51.0,54.0,52.0,46.0,42.0,38.0,33.0,31.0,33.0,34.0,40.0,40.0,36.0,32.0,29.0,25.0,26.0,35.0,34.0,30.0,27.0,24.0,24.0,20.0,22.0,24.0,29.0,36.0,36.0,35.0,35.0,31.0,27.0,24.0,24.0,25.0,23.0,21.0,20.0,19.0,18.0,16.0,14.0,22.0,20.0,18.0,16.0,26.0,22.0,20.0,18.0,16.0,17.0,19.0,18.0,17.0,38.0,37.0,31.0,29.0,25.0,23.0,21.0,21.0,20.0,17.0,15.0,14.0,13.0,11.0,19.0,17.0,18.0,22.0,19.0,17.0,16.0,14.0,14.0,12.0,11.0,13.0,12.0,12.0,12.0,12.0,10.0,10.0,11.0,11.0,10.0,12.0,17.0,16.0,21.0,43.0,65.0,66.0,63.0,55.0,50.0,47.0,42.0,51.0,72.0,89.0,93.0,131.0,142.0,133.0,122.0,127.0,129.0,134.0,122.0,121.0,132.0,127.0,124.0,120.0,116.0,110.0,127.0,150.0,145.0,135.0,129.0,123.0,107.0,101.0,91.0,124.0,122.0,109.0,108.0,103.0,92.0,89.0,83.0,77.0,85.0,75.0,70.0,81.0,75.0,77.0,72.0,67.0,76.0,94.0,88.0,76.0,70.0,70.0,74.0,73.0,64.0,74.0,69.0,64.0,70.0,66.0,60.0,54.0,55.0,52.0,55.0,51.0,45.0,47.0,44.0,39.0,36.0,36.0,36.0,34.0,37.0,33.0,30.0,36.0,42.0,48.0,53.0,50.0,54.0,60.0,52.0,49.0,43.0,49.0,54.0,49.0,55.0,49.0,42.0,38.0,42.0,44.0,41.0,46.0,42.0,38.0,36.0,41.0,38.0,34.0,37.0,32.0,34.0,31.0,28.0,29.0,27.0,27.0,27.0,33.0,34.0,31.0,29.0,28.0,26.0,34.0,37.0,43.0,45.0,42.0,37.0,36.0,33.0,38.0,35.0,41.0,40.0,34.0,35.0,32.0,28.0,25.0,37.0,36.0,40.0,44.0,44.0,38.0,40.0,35.0,31.0,28.0,28.0,26.0,23.0,20.0,20.0,19.0,18.0,22.0,25.0,25.0,23.0,31.0,37.0,34.0,43.0,37.0,33.0,27.0,25.0,26.0,32.0,34.0,44.0,38.0,33.0,34.0,32.0,28.0,31.0,27.0,24.0,28.0,27.0,28.0,24.0,23.0,25.0,26.0,23.0,28.0,27.0,28.0,25.0,26.0,23.0,25.0,21.0,23.0,25.0,22.0,22.0,21.0,23.0,23.0,21.0,24.0,22.0,21.0,19.0,25.0,25.0,25.0,36.0,32.0,28.0,26.0,25.0,21.0,20.0,20.0,22.0,25.0,23.0,21.0,19.0,20.0,23.0,26.0,35.0,31.0,32.0,28.0,26.0,24.0,20.0,26.0,27.0,35.0,35.0,31.0,28.0,28.0,28.0,26.0,24.0,27.0,30.0,26.0,24.0,23.0,20.0,19.0,21.0,21.0,30.0,27.0,29.0,30.0,30.0,34.0,36.0,34.0,32.0,32.0,27.0,24.0,25.0,25.0,35.0,34.0,30.0,32.0,38.0,40.0,36.0,31.0,40.0,48.0,42.0,38.0,34.0,33.0,31.0,34.0,48.0,43.0,40.0,36.0,31.0,31.0,30.0,32.0,30.0,27.0,30.0,35.0,30.0,27.0,32.0,39.0,36.0,34.0,32.0,29.0,28.0,24.0,30.0,27.0,23.0,22.0,20.0,19.0,17.0,22.0,24.0,31.0,28.0,45.0,39.0,38.0,35.0,31.0,27.0,35.0,33.0,30.0,32.0,30.0,27.0,33.0,35.0,37.0,36.0,32.0,28.0,25.0,26.0,27.0,30.0,26.0,25.0,24.0,22.0,21.0,21.0,21.0,20.0,27.0,28.0,30.0,27.0,30.0,28.0,24.0,30.0,27.0,28.0,25.0,23.0,21.0,18.0,18.0,23.0,28.0,27.0,24.0,24.0,34.0,30.0,32.0,35.0,36.0,44.0,39.0,43.0,40.0,41.0,36.0,41.0,41.0,45.0,45.0,45.0,41.0,36.0,34.0,37.0,39.0,34.0,33.0,29.0,26.0,33.0,44.0,43.0,37.0,36.0,32.0,31.0,27.0,28.0,33.0,29.0,28.0,29.0,26.0,23.0,24.0,22.0,27.0,28.0,26.0,31.0,27.0,24.0,23.0,28.0,28.0,41.0,41.0,39.0,35.0,32.0,27.0,27.0,25.0,26.0,36.0,31.0,28.0,24.0,23.0,19.0,23.0,22.0,19.0,31.0,28.0,33.0,30.0,26.0,32.0,29.0,26.0,27.0,31.0,35.0,30.0,27.0,24.0,22.0,19.0,29.0,26.0,29.0,26.0,23.0,28.0,24.0,22.0,19.0,19.0,24.0,21.0,21.0,29.0,27.0,28.0,33.0,30.0,29.0,28.0,30.0,38.0,34.0,31.0,27.0,25.0,27.0,22.0,21.0,19.0,22.0,21.0,24.0,23.0,24.0,22.0,22.0,19.0,22.0,20.0,19.0,23.0,21.0,22.0,21.0,23.0,20.0,21.0,18.0,21.0,23.0,24.0,22.0,19.0,20.0,20.0,24.0,22.0,22.0,20.0,41.0,37.0,32.0,28.0,25.0,25.0,22.0,21.0,21.0,21.0,21.0,26.0,28.0,26.0,23.0,20.0,19.0,22.0,21.0,22.0,21.0,19.0,21.0,21.0,18.0,17.0,15.0,14.0,12.0,15.0,15.0,18.0,27.0,23.0,21.0,21.0,19.0,18.0,16.0,16.0,16.0,16.0,24.0,26.0,24.0,24.0,29.0,27.0,24.0,22.0,20.0,18.0,20.0,19.0,16.0,17.0,18.0,20.0,18.0,18.0,26.0,26.0,24.0,24.0,23.0,21.0,21.0,20.0,28.0,24.0,22.0,20.0,18.0,15.0,14.0,13.0,11.0,10.0,9.0,9.0,10.0,18.0,19.0,21.0,19.0,18.0,17.0,15.0,15.0,14.0,19.0,27.0,24.0,23.0,20.0,17.0,16.0,17.0,22.0,21.0,33.0,40.0,37.0,32.0,29.0,27.0,27.0,26.0,23.0,24.0,33.0,31.0,28.0,25.0,28.0,24.0,22.0,20.0,21.0,24.0,21.0,19.0,20.0,19.0
53.0,52.0,49.0,51.0,48.0,45.0,43.0,43.0,43.0,41.0,42.0,39.0,38.0,42.0,41.0,41.0,45.0,44.0,44.0,43.0,44.0,46.0,44.0,44.0,44.0,42.0,44.0,46.0,46.0,44.0,43.0,43.0,41.0,40.0,40.0,39.0,38.0,38.0,37.0,36.0,35.0,39.0,39.0,40.0,43.0,44.0,44.0,48.0,49.0,52.0,51.0,47.0,47.0,44.0,40.0,40.0,43.0,44.0,43.0,44.0,43.0,42.0,43.0,43.0,45.0,51.0,51.0,50.0,51.0,49.0,49.0,50.0,48.0,49.0,49.0,52.0,51.0,50.0,52.0,50.0,49.0,50.0,50.0,51.0,53.0,52.0,49.0,48.0,48.0,50.0,47.0,47.0,45.0,44.0,52.0,50.0,50.0,47.0,47.0,49.0,46.0,48.0,48.0,48.0,49.0,49.0,46.0,45.0,47.0,46.0,43.0,48.0,50.0,49.0,48.0,47.0,46.0,49.0,50.0,50.0,53.0,51.0,50.0,47.0,45.0,45.0,46.0,45.0,43.0,43.0,46.0,46.0,47.0,46.0,45.0,46.0,47.0,46.0,46.0,45.0,43.0,42.0,44.0,44.0,44.0,46.0,46.0,46.0,44.0,41.0,41.0,41.0,42.0,42.0,46.0,49.0,48.0,46.0,46.0,43.0,44.0,44.0,43.0,45.0,45.0,49.0,48.0,46.0,46.0,43.0,41.0,43.0,42.0,43.0,46.0,45.0,45.0,42.0,40.0,39.0,41.0,42.0,41.0,44.0,46.0,45.0,43.0,40.0,39.0,40.0,38.0,39.0,38.0,38.0,38.0,38.0,39.0,37.0,35.0,35.0,36.0,36.0,37.0,34.0,34.0,37.0,38.0,41.0,40.0,38.0,37.0,38.0,40.0,41.0,41.0,42.0,47.0,50.0,54.0,62.0,69.0,67.0,63.0,82.0,98.0,103.0,101.0,121.0,127.0,137.0,232.0,252.0,255.0,245.0,311.0,309.0,346.0,352.0,368.0,424.0,441.0,494.0,479.0,432.0,453.0,480.0,458.0,439.0,503.0,497.0,466.0,444.0,470.0,454.0,480.0,455.0,429.0,428.0,409.0,426.0,410.0,378.0,403.0,385.0,349.0,339.0,333.0,333.0,323.0,301.0,310.0,288.0,272.0,286.0,280.0,279.0,273.0,255.0,263.0,256.0,243.0,225.0,212.0,218.0,209.0,198.0,198.0,190.0,184.0,178.0,185.0,195.0,180.0,176.0,171.0,217.0,210.0,199.0,194.0,182.0,193.0,182.0,193.0,191.0,198.0,197.0,194.0,180.0,176.0,176.0,166.0,184.0,190.0,173.0,173.0,179.0,173.0,164.0,165.0,154.0,155.0,154.0,148.0,146.0,137.0,136.0,138.0,162.0,151.0,151.0,150.0,154.0,151.0,148.0,139.0,136.0,126.0,119.0,132.0,147.0,141.0,137.0,136.0,149.0,148.0,140.0,168.0,156.0,153.0,137.0,131.0,134.0,159.0,147.0,136.0,135.0,129.0,128.0,125.0,115.0,127.0,139.0,142.0,136.0,131.0,118.0,107.0,101.0,93.0,101.0,116.0,125.0,165.0,216.0,229.0,226.0,229.0,215.0,204.0,207.0,199.0,203.0,197.0,213.0,221.0,218.0,220.0,225.0,217.0,242.0,244.0,231.0,214.0,199.0,188.0,173.0,190.0,187.0,183.0,170.0,162.0,172.0,163.0,162.0,156.0,152.0,146.0,147.0,138.0,140.0,144.0,144.0,147.0,136.0,134.0,141.0,136.0,130.0,133.0,144.0,142.0,152.0,147.0,140.0,135.0,135.0,133.0,127.0,123.0,118.0,115.0,137.0,138.0,136.0,129.0,147.0,141.0,133.0,123.0,123.0,123.0,116.0,107.0,106.0,101.0,99.0,95.0,98.0,96.0,105.0,117.0,121.0,127.0,120.0,117.0,117.0,114.0,111.0,109.0,119.0,116.0,105.0,104.0,107.0,112.0,109.0,106.0,104.0,105.0,106.0,100.0,103.0,108.0,100.0,101.0,97.0,92.0,96.0,97.0,93.0,86.0,82.0,84.0,85.0,85.0,79.0,77.0,85.0,88.0,87.0,89.0,90.0,87.0,88.0,87.0,92.0,94.0,91.0,84.0,98.0,104.0,104.0,105.0,102.0,103.0,103.0,119.0,118.0,120.0,111.0,107.0,105.0,96.0,95.0,97.0,104.0,97.0,92.0,87.0,84.0,87.0,84.0,80.0,81.0,84.0,88.0,87.0,111.0,107.0,107.0,101.0,91.0,103.0,101.0,94.0,87.0,84.0,77.0,87.0,94.0,91.0,85.0,94.0,93.0,99.0,110.0,112.0,107.0,99.0,105.0,101.0,107.0,111.0,106.0,97.0,106.0,99.0,104.0,100.0,97.0,90.0,88.0,94.0,97.0,93.0,94.0,94.0,94.0,88.0,81.0,88.0,88.0,95.0,100.0,102.0,107.0,107.0,105.0,105.0,105.0,97.0,94.0,88.0,103.0,97.0,96.0,111.0,107.0,104.0,104.0,108.0,112.0,110.0,108.0,97.0,90.0,95.0,97.0,93.0,92.0,90.0,96.0,96.0,97.0,97.0,97.0,112.0,116.0,109.0,103.0,99.0,92.0,105.0,105.0,100.0,104.0,98.0,93.0,95.0,95.0,92.0,95.0,108.0,103.0,104.0,109.0,105.0,105.0,104.0,97.0,95.0,94.0,91.0,90.0,88.0,84.0,97.0,98.0,94.0,87.0,86.0,85.0,93.0,90.0,89.0,81.0,88.0,90.0,82.0,80.0,76.0,77.0,84.0,78.0,81.0,81.0,86.0,103.0,98.0,91.0,85.0,82.0,89.0,95.0,102.0,105.0,96.0,87.0,84.0,83.0,81.0,82.0,78.0,72.0,67.0,67.0,61.0,63.0,60.0,61.0,75.0,84.0,85.0,79.0,74.0,78.0,77.0,95.0,95.0,93.0,92.0,88.0,95.0,94.0,98.0,103.0,98.0,96.0,87.0,80.0,76.0,70.0,72.0,70.0,75.0,83.0,78.0,102.0,96.0,90.0,89.0,87.0,85.0,82.0,83.0,78.0,73.0,75.0,80.0,77.0,74.0,74.0,69.0,67.0,67.0,65.0,63.0,67.0,63.0,61.0,64.0,66.0,68.0,69.0,74.0,82.0,81.0,76.0,83.0,92.0,87.0,89.0,84.0,81.0,80.0,78.0,78.0,77.0,77.0,74.0,74.0,72.0,91.0,90.0,91.0,92.0,87.0,88.0,91.0,95.0,95.0,101.0,93.0,96.0,101.0,102.0,98.0,96.0,95.0,91.0,84.0,91.0,95.0,92.0,89.0,94.0,93.0,95.0,92.0,93.0,97.0,90.0,86.0,80.0,83.0,86.0,88.0,95.0,95.0,89.0,91.0,91.0,87.0,78.0,73.0,68.0,67.0,63.0,66.0,73.0,76.0,87.0,87.0,86.0,86.0,96.0,92.0,94.0,88.0,82.0,87.0,92.0,88.0,94.0,99.0,94.0,91.0,88.0,91.0,90.0,96.0,95.0,87.0,84.0,79.0,87.0,90.0,90.0,83.0,84.0,78.0,81.0,90.0,86.0,84.0,88.0,87.0,81.0,79.0,75.0,70.0,68.0,72.0,72.0,74.0,84.0,85.0,80.0,85.0,85.0,83.0,76.0,76.0,78.0,78.0,76.0,75.0,78.0,76.0,76.0,81.0,78.0,77.0,78.0,74.0,81.0,79.0,76.0,72.0,78.0,79.0,77.0,80.0,83.0,80.0,78.0,79.0,79.0,76.0,80.0,82.0,81.0,76.0,88.0,90.0,95.0,96.0,111.0,114.0,110.0,102.0,100.0,96.0,87.0,82.0,87.0,82.0,77.0,72.0,70.0,65.0,70.0,70.0,71.0,67.0,71.0,73.0,72.0,69.0,70.0,73.0,76.0,70.0,79.0,74.0,69.0,74.0,68.0,73.0,71.0,74.0,73.0,85.0,83.0,80.0,83.0,78.0,76.0,75.0,81.0,80.0,79.0,78.0,74.0,81.0,75.0,77.0,76.0,76.0,73.0,71.0,75.0,77.0,76.0,72.0,71.0,68.0,73.0,67.0,64.0,61.0,62.0,60.0,64.0,65.0,71.0,76.0,82.0,91.0,90.0,89.0,87.0,88.0,92.0,87.0,91.0,88.0,98.0,97.0,88.0,83.0,90.0,86.0,80.0,81.0,82.0,80.0,86.0,83.0,87.0,85.0,87.0,86.0,83.0,85.0,91.0,90.0,87.0,88.0,88.0,91.0,96.0,96.0,96.0,109.0,111.0,110.0,110.0,112.0,107.0
