67.0,68.0,69.0,70.0,70.0,71.0,73.0,73.0,74.0,75.0,75.0,73.0,72.0,73.0,74.0,73.0,73.0,74.0,71.0,71.0,72.0,70.0,70.0,68.0,68.0,69.0,68.0,70.0,68.0,70.0,70.0,71.0,73.0,71.0,73.0,73.0,74.0,75.0,75.0,74.0,73.0,75.0,74.0,75.0,73.0,73.0,72.0,72.0,72.0,72.0,72.0,70.0,69.0,67.0,68.0,68.0,67.0,66.0,64.0,63.0,62.0,60.0,60.0,58.0,60.0,58.0,57.0,56.0,56.0,61.0,71.0,68.0,79.0,80.0,83.0,85.0,87.0,85.0,84.0,83.0,83.0,83.0,81.0,83.0,79.0,82.0,80.0,80.0,80.0,79.0,80.0,77.0,75.0,75.0,73.0,73.0,73.0,72.0,71.0,72.0,70.0,72.0,71.0,71.0,71.0,70.0,69.0,68.0,70.0,70.0,69.0,70.0,70.0,69.0,72.0,74.0,72.0,71.0,72.0,70.0,70.0,69.0,70.0,69.0,68.0,68.0,68.0,68.0,67.0,67.0,66.0,64.0,64.0,62.0,61.0,60.0,63.0,61.0,60.0,59.0,58.0,58.0,58.0,58.0,58.0,59.0,58.0,59.0,58.0,58.0,58.0,57.0,57.0,59.0,57.0,56.0,58.0,57.0,58.0,56.0,60.0,57.0,57.0,57.0,58.0,57.0,56.0,58.0,56.0,57.0,57.0,59.0,62.0,63.0,64.0,63.0,63.0,62.0,62.0,61.0,60.0,60.0,59.0,60.0,59.0,58.0,58.0,57.0,61.0,60.0,60.0,59.0,58.0,58.0,57.0,57.0,57.0,58.0,57.0,56.0,55.0,56.0,55.0,55.0,54.0,55.0,57.0,56.0,56.0,56.0,56.0,54.0,54.0,54.0,56.0,57.0,57.0,59.0,60.0,61.0,61.0,61.0,61.0,61.0,60.0,60.0,58.0,57.0,55.0,55.0,55.0,56.0,54.0,55.0,54.0,54.0,53.0,54.0,54.0,55.0,56.0,55.0,54.0,55.0,53.0,53.0,53.0,54.0,55.0,55.0,56.0,56.0,56.0,55.0,55.0,54.0,54.0,53.0,53.0,52.0,52.0,53.0,53.0,51.0,52.0,51.0,51.0,51.0,50.0,50.0,50.0,51.0,52.0,51.0,52.0,55.0,55.0,55.0,55.0,55.0,54.0,54.0,56.0,56.0,57.0,58.0,58.0,58.0,57.0,59.0,56.0,55.0,55.0,55.0,57.0,57.0,59.0,58.0,59.0,58.0,57.0,58.0,57.0,57.0,58.0,57.0,57.0,57.0,56.0,54.0,55.0,54.0,52.0,52.0,54.0,54.0,52.0,52.0,52.0,55.0,54.0,55.0,55.0,54.0,56.0,57.0,57.0,57.0,57.0,57.0,56.0,59.0,58.0,60.0,59.0,60.0,62.0,61.0,61.0,63.0,60.0,62.0,63.0,64.0,62.0,62.0,62.0,61.0,62.0,61.0,60.0,60.0,59.0,58.0,59.0,59.0,59.0,63.0,61.0,61.0,62.0,61.0,61.0,60.0,60.0,59.0,60.0,62.0,62.0,62.0,64.0,65.0,62.0,63.0,61.0,61.0,60.0,60.0,57.0,57.0,56.0,54.0,53.0,54.0,53.0,53.0,54.0,55.0,55.0,54.0,54.0,53.0,55.0,54.0,55.0,56.0,55.0,56.0,55.0,56.0,55.0,59.0,59.0,59.0,61.0,61.0,61.0,61.0,60.0,61.0,63.0,62.0,63.0,66.0,65.0,65.0,65.0,65.0,66.0,67.0,68.0,68.0,68.0,68.0,70.0,69.0,69.0,70.0,68.0,66.0,65.0,64.0,66.0,64.0,65.0,65.0,64.0,63.0,64.0,62.0,63.0,63.0,62.0,63.0,64.0,64.0,64.0,63.0,66.0,67.0,66.0,71.0,72.0,73.0,76.0,81.0,84.0,92.0,95.0,107.0,113.0,113.0,116.0,118.0,114.0,111.0,111.0,107.0,106.0,107.0,105.0,102.0,104.0,103.0,114.0,119.0,115.0,113.0,107.0,105.0,102.0,99.0,97.0,95.0,92.0,95.0,94.0,97.0,96.0,95.0,93.0,92.0,89.0,89.0,88.0,86.0,82.0,80.0,85.0,86.0,85.0,86.0,84.0,85.0,84.0,82.0,82.0,80.0,80.0,79.0,78.0,77.0,76.0,80.0,81.0,78.0,75.0,72.0,71.0,71.0,70.0,69.0,68.0,68.0,66.0,64.0,64.0,62.0,62.0,59.0,60.0,60.0,59.0,59.0,57.0,58.0,57.0,57.0,58.0,61.0,63.0,61.0,60.0,58.0,57.0,57.0,57.0,57.0,55.0,55.0,54.0,54.0,54.0,55.0,53.0,53.0,56.0,55.0,58.0,56.0,57.0,58.0,58.0,57.0,56.0,55.0,56.0,57.0,58.0,58.0,57.0,57.0,55.0,56.0,56.0,58.0,57.0,58.0,59.0,58.0,59.0,58.0,57.0,55.0,58.0,57.0,58.0,57.0,57.0,60.0,59.0,61.0,62.0,62.0,63.0,63.0,64.0,62.0,62.0,61.0,60.0,61.0,60.0,59.0,60.0,58.0,59.0,59.0,60.0,57.0,60.0,58.0,58.0,58.0,58.0,59.0,58.0,58.0,55.0,64.0,63.0,61.0,61.0,61.0,62.0,60.0,60.0,59.0,58.0,56.0,55.0,57.0,56.0,63.0,61.0,61.0,61.0,57.0,59.0,57.0,57.0,57.0,58.0,58.0,58.0,59.0,58.0,58.0,64.0,66.0,65.0,65.0,65.0,65.0,64.0,63.0,62.0,63.0,62.0,62.0,60.0,58.0,57.0,58.0,63.0,61.0,61.0,60.0,59.0,59.0,58.0,58.0,57.0,58.0,56.0,55.0,56.0,56.0,55.0,55.0,54.0,52.0,51.0,51.0,51.0,51.0,52.0,53.0,52.0,51.0,52.0,52.0,54.0,54.0,56.0,56.0,58.0,59.0,58.0,60.0,59.0,60.0,59.0,58.0,57.0,56.0,56.0,56.0,56.0,56.0,54.0,55.0,56.0,55.0,57.0,55.0,56.0,56.0,58.0,59.0,59.0,59.0,58.0,58.0,57.0,58.0,58.0,58.0,57.0,60.0,60.0,60.0,62.0,60.0,60.0,60.0,62.0,60.0,59.0,59.0,59.0,59.0,59.0,60.0,58.0,56.0,57.0,58.0,58.0,58.0,58.0,57.0,57.0,57.0,57.0,56.0,57.0,57.0,58.0,56.0,58.0,59.0,57.0,56.0,59.0,56.0,56.0,56.0,56.0,55.0,53.0,53.0,52.0,54.0,53.0,54.0,55.0,55.0,57.0,58.0,58.0,58.0,57.0,56.0,57.0,57.0,57.0,58.0,60.0,59.0,60.0,60.0,61.0,61.0,60.0,62.0,63.0,64.0,62.0,63.0,62.0,63.0,62.0,62.0,62.0,61.0,61.0,60.0,58.0,58.0,57.0,56.0,58.0,56.0,56.0,54.0,54.0,53.0,55.0,54.0,55.0,54.0,54.0,54.0,52.0,52.0,51.0,51.0,52.0,51.0,51.0,51.0,51.0,52.0,52.0,54.0,54.0,55.0,54.0,54.0,55.0,55.0,55.0,54.0,55.0,55.0,54.0,55.0,53.0,53.0,52.0,52.0,52.0,51.0,50.0,51.0,52.0,50.0,50.0,50.0,51.0,50.0,48.0,50.0,48.0,48.0,49.0,49.0,48.0,47.0,48.0,48.0,46.0,46.0,48.0,47.0,49.0,49.0,50.0,51.0,51.0,51.0,53.0,52.0,54.0,52.0,53.0,54.0,55.0,55.0,54.0,56.0,53.0,55.0,54.0,51.0,52.0,51.0,53.0,52.0,52.0,50.0,49.0,48.0,47.0,46.0,47.0,46.0,47.0,46.0,46.0,45.0,45.0,44.0,44.0,44.0,45.0,45.0,45.0,46.0,45.0,45.0,45.0,44.0,44.0,44.0,45.0,44.0,44.0,45.0,44.0,45.0,45.0,46.0,46.0,47.0,46.0,46.0,45.0,44.0,45.0,45.0,44.0,45.0,44.0,46.0,46.0,49.0,47.0,48.0,47.0,48.0,47.0,47.0,49.0,48.0,49.0,50.0,50.0,51.0,50.0,51.0,53.0,52.0,53.0,51.0,53.0,52.0,53.0,53.0,52.0,52.0,50.0,50.0,49.0,47.0,47.0,47.0,48.0,47.0,47.0,48.0,47.0,46.0,46.0,47.0,46.0,47.0,46.0,47.0,47.0,47.0,47.0,47.0,48.0,49.0,49.0,48.0,49.0,50.0
71.0,69.0,69.0,66.0,66.0,66.0,63.0,63.0,62.0,63.0,63.0,63.0,64.0,65.0,64.0,63.0,65.0,61.0,62.0,61.0,59.0,59.0,59.0,58.0,55.0,55.0,55.0,55.0,56.0,56.0,56.0,55.0,54.0,55.0,54.0,54.0,53.0,54.0,54.0,55.0,55.0,52.0,51.0,51.0,54.0,54.0,55.0,58.0,57.0,57.0,59.0,61.0,62.0,62.0,63.0,64.0,65.0,65.0,67.0,66.0,66.0,66.0,65.0,63.0,63.0,63.0,64.0,75.0,73.0,84.0,123.0,118.0,140.0,133.0,124.0,130.0,139.0,136.0,127.0,119.0,116.0,111.0,106.0,99.0,109.0,106.0,101.0,103.0,99.0,91.0,89.0,85.0,81.0,79.0,83.0,80.0,81.0,93.0,97.0,93.0,86.0,83.0,78.0,79.0,88.0,86.0,81.0,95.0,100.0,92.0,88.0,85.0,83.0,85.0,85.0,82.0,83.0,83.0,81.0,80.0,79.0,79.0,78.0,78.0,79.0,78.0,78.0,77.0,77.0,78.0,79.0,80.0,81.0,80.0,81.0,83.0,83.0,85.0,86.0,85.0,84.0,85.0,85.0,84.0,84.0,83.0,81.0,78.0,77.0,79.0,80.0,80.0,84.0,84.0,87.0,90.0,91.0,92.0,90.0,93.0,90.0,90.0,92.0,93.0,93.0,93.0,99.0,96.0,99.0,101.0,102.0,104.0,103.0,103.0,106.0,108.0,111.0,113.0,115.0,115.0,115.0,116.0,118.0,118.0,117.0,118.0,118.0,122.0,120.0,121.0,121.0,124.0,125.0,124.0,126.0,126.0,125.0,124.0,124.0,125.0,123.0,122.0,122.0,120.0,119.0,120.0,118.0,116.0,114.0,112.0,112.0,112.0,112.0,112.0,110.0,109.0,109.0,107.0,106.0,104.0,105.0,103.0,102.0,102.0,99.0,98.0,98.0,99.0,100.0,99.0,97.0,94.0,92.0,89.0,89.0,85.0,85.0,82.0,83.0,80.0,79.0,79.0,79.0,79.0,79.0,81.0,79.0,79.0,81.0,81.0,81.0,81.0,81.0,80.0,82.0,82.0,84.0,84.0,84.0,84.0,84.0,85.0,85.0,84.0,84.0,86.0,84.0,85.0,85.0,82.0,82.0,79.0,80.0,78.0,78.0,75.0,76.0,74.0,73.0,73.0,72.0,74.0,72.0,71.0,69.0,67.0,66.0,66.0,66.0,66.0,68.0,67.0,68.0,70.0,69.0,70.0,70.0,71.0,70.0,72.0,71.0,71.0,73.0,72.0,73.0,73.0,75.0,75.0,75.0,75.0,75.0,76.0,76.0,78.0,74.0,75.0,76.0,76.0,77.0,75.0,74.0,74.0,74.0,78.0,75.0,75.0,76.0,77.0,79.0,80.0,80.0,80.0,79.0,79.0,78.0,78.0,78.0,78.0,81.0,79.0,82.0,80.0,79.0,78.0,78.0,78.0,79.0,79.0,78.0,79.0,78.0,80.0,81.0,84.0,83.0,86.0,93.0,91.0,94.0,93.0,92.0,93.0,92.0,94.0,94.0,95.0,95.0,93.0,94.0,92.0,91.0,92.0,92.0,90.0,91.0,88.0,86.0,85.0,86.0,86.0,85.0,86.0,86.0,85.0,84.0,84.0,80.0,78.0,77.0,76.0,76.0,76.0,74.0,75.0,73.0,73.0,73.0,71.0,73.0,73.0,76.0,73.0,73.0,73.0,70.0,71.0,74.0,73.0,73.0,73.0,73.0,74.0,73.0,74.0,74.0,74.0,74.0,73.0,71.0,71.0,68.0,69.0,67.0,68.0,65.0,66.0,68.0,70.0,68.0,66.0,67.0,66.0,66.0,68.0,67.0,67.0,67.0,66.0,66.0,66.0,65.0,64.0,65.0,64.0,63.0,62.0,60.0,62.0,69.0,69.0,76.0,78.0,82.0,83.0,82.0,82.0,89.0,85.0,85.0,90.0,89.0,91.0,86.0,80.0,78.0,79.0,79.0,76.0,76.0,73.0,73.0,69.0,69.0,71.0,68.0,65.0,61.0,58.0,58.0,55.0,53.0,52.0,51.0,49.0,48.0,49.0,47.0,53.0,54.0,54.0,54.0,56.0,55.0,56.0,58.0,56.0,56.0,54.0,55.0,57.0,57.0,57.0,54.0,55.0,54.0,54.0,56.0,57.0,59.0,59.0,59.0,59.0,58.0,60.0,63.0,64.0,62.0,62.0,61.0,61.0,62.0,61.0,63.0,62.0,60.0,57.0,56.0,55.0,55.0,55.0,55.0,57.0,55.0,54.0,53.0,51.0,51.0,52.0,52.0,50.0,50.0,48.0,47.0,46.0,45.0,46.0,45.0,46.0,44.0,43.0,43.0,42.0,44.0,45.0,43.0,43.0,43.0,43.0,43.0,44.0,45.0,45.0,44.0,43.0,43.0,42.0,42.0,44.0,42.0,42.0,41.0,41.0,40.0,42.0,41.0,43.0,42.0,42.0,41.0,41.0,40.0,41.0,41.0,42.0,42.0,43.0,42.0,43.0,43.0,43.0,45.0,48.0,47.0,47.0,50.0,51.0,52.0,53.0,53.0,54.0,54.0,53.0,54.0,54.0,54.0,55.0,56.0,55.0,55.0,56.0,56.0,57.0,59.0,57.0,58.0,57.0,57.0,56.0,57.0,56.0,56.0,55.0,55.0,55.0,54.0,53.0,52.0,52.0,51.0,50.0,52.0,49.0,48.0,47.0,49.0,47.0,46.0,47.0,49.0,47.0,46.0,47.0,46.0,44.0,44.0,42.0,43.0,41.0,42.0,43.0,42.0,43.0,43.0,43.0,44.0,42.0,47.0,44.0,44.0,43.0,42.0,40.0,39.0,39.0,39.0,38.0,41.0,40.0,40.0,40.0,41.0,39.0,41.0,41.0,43.0,44.0,43.0,43.0,42.0,43.0,42.0,41.0,45.0,43.0,42.0,42.0,41.0,40.0,40.0,39.0,40.0,42.0,40.0,43.0,42.0,43.0,44.0,43.0,44.0,44.0,45.0,45.0,45.0,45.0,44.0,44.0,43.0,44.0,43.0,41.0,42.0,40.0,40.0,37.0,38.0,39.0,39.0,40.0,40.0,40.0,38.0,37.0,38.0,37.0,38.0,37.0,39.0,37.0,37.0,38.0,38.0,39.0,40.0,39.0,39.0,39.0,39.0,39.0,39.0,40.0,43.0,42.0,40.0,40.0,39.0,38.0,39.0,41.0,42.0,40.0,40.0,39.0,40.0,41.0,42.0,41.0,43.0,43.0,43.0,43.0,43.0,43.0,41.0,40.0,40.0,41.0,40.0,39.0,40.0,39.0,39.0,37.0,37.0,37.0,38.0,40.0,39.0,39.0,40.0,42.0,42.0,41.0,42.0,42.0,43.0,44.0,44.0,44.0,43.0,45.0,44.0,44.0,45.0,45.0,46.0,44.0,45.0,44.0,44.0,46.0,46.0,48.0,45.0,50.0,49.0,51.0,52.0,51.0,51.0,51.0,53.0,52.0,54.0,54.0,54.0,55.0,56.0,57.0,60.0,62.0,63.0,63.0,64.0,65.0,66.0,66.0,63.0,64.0,65.0,66.0,66.0,66.0,66.0,67.0,68.0,67.0,67.0,68.0,67.0,66.0,66.0,66.0,65.0,64.0,63.0,64.0,64.0,65.0,66.0,66.0,68.0,69.0,71.0,73.0,74.0,77.0,78.0,78.0,77.0,79.0,81.0,81.0,80.0,81.0,81.0,81.0,84.0,85.0,84.0,84.0,86.0,85.0,83.0,84.0,84.0,83.0,84.0,82.0,82.0,82.0,81.0,81.0,80.0,81.0,82.0,79.0,81.0,83.0,84.0,84.0,86.0,86.0,84.0,86.0,85.0,82.0,82.0,81.0,79.0,77.0,76.0,74.0,73.0,70.0,69.0,68.0,64.0,62.0,62.0,60.0,58.0,56.0,56.0,57.0,57.0,58.0,59.0,59.0,59.0,56.0,58.0,58.0,57.0,59.0,58.0,58.0,59.0,59.0,59.0,58.0,55.0,55.0,56.0,57.0,58.0,58.0,57.0,57.0,56.0,56.0,56.0,58.0,60.0,61.0,62.0,62.0,61.0,61.0,59.0,60.0,57.0,59.0,56.0,55.0,54.0,51.0,49.0,47.0,47.0,46.0,44.0,42.0,42.0,42.0,41.0,44.0,41.0,41.0,43.0,42.0,42.0,41.0,42.0,41.0,42.0,42.0,43.0,46.0,46.0,46.0,46.0,46.0,46.0,46.0,45.0,47.0,46.0,47.0,49.0,48.0,49.0,51.0,49.0,51.0,52.0,53.0,54.0,57.0,61.0,60.0
33.0,31.0,41.0,43.0,37.0,43.0,38.0,34.0,32.0,27.0,25.0,25.0,40.0,40.0,38.0,33.0,29.0,26.0,30.0,30.0,32.0,32.0,30.0,26.0,27.0,25.0,26.0,25.0,28.0,27.0,24.0,23.0,21.0,22.0,20.0,18.0,16.0,14.0,13.0,27.0,30.0,30.0,28.0,26.0,23.0,21.0,31.0,30.0,28.0,26.0,24.0,21.0,19.0,34.0,35.0,31.0,27.0,24.0,22.0,20.0,20.0,31.0,30.0,26.0,24.0,21.0,19.0,18.0,16.0,19.0,29.0,33.0,41.0,38.0,38.0,41.0,43.0,39.0,36.0,32.0,30.0,29.0,28.0,25.0,23.0,33.0,32.0,34.0,30.0,28.0,27.0,23.0,26.0,26.0,26.0,30.0,29.0,31.0,32.0,35.0,32.0,42.0,41.0,40.0,43.0,40.0,47.0,46.0,53.0,58.0,49.0,45.0,38.0,38.0,35.0,34.0,41.0,41.0,40.0,34.0,37.0,33.0,29.0,26.0,37.0,43.0,44.0,39.0,37.0,34.0,30.0,26.0,28.0,26.0,23.0,40.0,36.0,37.0,33.0,30.0,26.0,23.0,21.0,31.0,28.0,25.0,23.0,19.0,19.0,19.0,20.0,22.0,23.0,21.0,20.0,28.0,24.0,27.0,26.0,24.0,23.0,20.0,19.0,18.0,16.0,15.0,20.0,22.0,22.0,20.0,20.0,22.0,20.0,17.0,19.0,18.0,23.0,26.0,25.0,23.0,20.0,25.0,22.0,36.0,30.0,27.0,25.0,33.0,30.0,26.0,24.0,25.0,22.0,20.0,19.0,31.0,26.0,26.0,24.0,25.0,24.0,21.0,21.0,18.0,17.0,25.0,24.0,23.0,20.0,19.0,18.0,16.0,18.0,20.0,30.0,25.0,26.0,23.0,20.0,18.0,17.0,20.0,20.0,21.0,18.0,17.0,16.0,15.0,15.0,31.0,29.0,26.0,23.0,21.0,19.0,18.0,19.0,19.0,19.0,19.0,18.0,17.0,15.0,15.0,15.0,23.0,20.0,20.0,26.0,25.0,25.0,23.0,23.0,22.0,28.0,24.0,25.0,23.0,32.0,28.0,25.0,23.0,20.0,18.0,17.0,25.0,28.0,26.0,23.0,20.0,24.0,29.0,42.0,41.0,42.0,38.0,33.0,29.0,26.0,26.0,23.0,23.0,29.0,24.0,24.0,23.0,22.0,20.0,25.0,24.0,21.0,20.0,21.0,20.0,27.0,28.0,26.0,23.0,21.0,19.0,23.0,26.0,25.0,22.0,30.0,27.0,25.0,23.0,22.0,18.0,22.0,20.0,18.0,35.0,31.0,28.0,24.0,22.0,22.0,21.0,23.0,24.0,25.0,27.0,30.0,25.0,22.0,22.0,21.0,22.0,28.0,28.0,23.0,21.0,19.0,19.0,17.0,16.0,19.0,19.0,26.0,31.0,27.0,25.0,22.0,20.0,20.0,19.0,20.0,18.0,16.0,14.0,13.0,13.0,13.0,13.0,35.0,33.0,30.0,28.0,26.0,23.0,20.0,19.0,19.0,19.0,20.0,19.0,17.0,15.0,15.0,15.0,14.0,17.0,28.0,25.0,24.0,21.0,20.0,17.0,16.0,14.0,14.0,16.0,15.0,21.0,20.0,20.0,17.0,16.0,16.0,19.0,18.0,22.0,21.0,18.0,17.0,16.0,14.0,21.0,36.0,37.0,32.0,27.0,25.0,22.0,21.0,19.0,21.0,19.0,18.0,20.0,17.0,17.0,14.0,13.0,17.0,15.0,19.0,27.0,24.0,20.0,21.0,18.0,16.0,16.0,15.0,23.0,20.0,17.0,16.0,15.0,24.0,39.0,35.0,30.0,26.0,24.0,22.0,20.0,18.0,25.0,26.0,36.0,33.0,29.0,28.0,29.0,70.0,84.0,153.0,196.0,242.0,255.0,253.0,245.0,296.0,271.0,280.0,272.0,271.0,282.0,289.0,265.0,244.0,231.0,253.0,246.0,244.0,219.0,192.0,170.0,156.0,152.0,156.0,161.0,144.0,133.0,130.0,132.0,130.0,118.0,118.0,113.0,106.0,97.0,93.0,103.0,98.0,90.0,92.0,81.0,91.0,93.0,83.0,77.0,82.0,74.0,66.0,67.0,67.0,64.0,65.0,59.0,61.0,59.0,60.0,60.0,55.0,54.0,49.0,51.0,50.0,48.0,50.0,51.0,50.0,49.0,51.0,58.0,56.0,64.0,57.0,54.0,47.0,47.0,44.0,44.0,42.0,38.0,40.0,35.0,39.0,40.0,36.0,33.0,39.0,38.0,37.0,39.0,36.0,37.0,33.0,32.0,32.0,36.0,41.0,43.0,45.0,42.0,38.0,48.0,53.0,47.0,48.0,46.0,45.0,40.0,44.0,49.0,45.0,42.0,36.0,34.0,37.0,42.0,42.0,47.0,42.0,38.0,36.0,35.0,35.0,41.0,36.0,52.0,46.0,41.0,39.0,38.0,35.0,31.0,28.0,35.0,38.0,32.0,29.0,33.0,34.0,31.0,28.0,37.0,33.0,30.0,28.0,25.0,24.0,22.0,22.0,37.0,35.0,34.0,29.0,29.0,32.0,29.0,32.0,43.0,46.0,39.0,37.0,32.0,31.0,27.0,27.0,40.0,35.0,33.0,34.0,33.0,28.0,26.0,31.0,33.0,41.0,42.0,37.0,34.0,30.0,34.0,38.0,42.0,37.0,34.0,31.0,27.0,25.0,28.0,43.0,38.0,34.0,31.0,31.0,27.0,25.0,28.0,30.0,27.0,34.0,35.0,31.0,28.0,27.0,28.0,30.0,26.0,37.0,36.0,33.0,35.0,32.0,28.0,25.0,22.0,20.0,17.0,29.0,35.0,34.0,31.0,37.0,35.0,34.0,31.0,34.0,35.0,33.0,33.0,30.0,27.0,26.0,22.0,25.0,23.0,21.0,20.0,21.0,20.0,16.0,16.0,16.0,27.0,25.0,22.0,20.0,18.0,18.0,16.0,17.0,34.0,31.0,31.0,27.0,25.0,23.0,20.0,22.0,35.0,32.0,27.0,26.0,24.0,21.0,19.0,19.0,24.0,29.0,34.0,33.0,31.0,28.0,25.0,27.0,24.0,34.0,30.0,27.0,27.0,29.0,29.0,29.0,32.0,33.0,35.0,35.0,32.0,30.0,26.0,25.0,23.0,31.0,28.0,28.0,29.0,30.0,28.0,29.0,27.0,39.0,37.0,33.0,28.0,27.0,27.0,25.0,24.0,40.0,40.0,34.0,30.0,27.0,29.0,27.0,25.0,24.0,28.0,33.0,39.0,37.0,33.0,29.0,27.0,28.0,31.0,36.0,39.0,37.0,33.0,33.0,28.0,26.0,26.0,22.0,23.0,34.0,33.0,29.0,30.0,26.0,24.0,28.0,25.0,25.0,25.0,31.0,30.0,26.0,26.0,22.0,23.0,20.0,18.0,23.0,23.0,22.0,24.0,34.0,35.0,30.0,29.0,34.0,32.0,33.0,29.0,30.0,28.0,28.0,30.0,39.0,34.0,32.0,30.0,30.0,27.0,27.0,28.0,27.0,37.0,37.0,34.0,31.0,27.0,24.0,21.0,21.0,21.0,30.0,27.0,29.0,28.0,30.0,28.0,25.0,22.0,22.0,25.0,27.0,27.0,25.0,26.0,33.0,34.0,30.0,29.0,27.0,25.0,27.0,35.0,43.0,40.0,35.0,33.0,29.0,32.0,28.0,28.0,26.0,25.0,27.0,37.0,34.0,30.0,31.0,41.0,37.0,43.0,37.0,41.0,36.0,30.0,29.0,25.0,23.0,21.0,19.0,45.0,46.0,40.0,36.0,33.0,34.0,32.0,29.0,31.0,27.0,33.0,30.0,27.0,27.0,30.0,33.0,34.0,31.0,28.0,25.0,36.0,32.0,31.0,30.0,26.0,24.0,21.0,23.0,22.0,22.0,30.0,30.0,33.0,29.0,30.0,32.0,29.0,41.0,41.0,38.0,33.0,31.0,27.0,23.0,23.0,20.0,21.0,28.0,25.0,23.0,27.0,24.0,22.0,20.0,21.0,23.0,31.0,27.0,24.0,24.0,23.0,25.0,32.0,30.0,26.0,24.0,30.0,34.0,32.0,29.0,28.0,23.0,26.0,31.0,39.0,33.0,34.0,30.0,27.0,24.0,23.0,28.0,24.0,35.0,34.0,31.0,30.0,28.0,29.0,32.0,33.0,27.0,32.0,30.0,26.0,30.0,31.0,29.0,28.0,26.0,27.0,24.0,24.0,26.0,24.0,24.0,34.0,31.0,28.0,30.0,32.0,32.0,28.0,33.0,37.0
108.0,121.0,131.0,134.0,130.0,130.0,132.0,126.0,117.0,114.0,118.0,110.0,109.0,103.0,96.0,93.0,91.0,85.0,83.0,82.0,82.0,83.0,78.0,79.0,82.0,80.0,85.0,84.0,85.0,81.0,80.0,92.0,94.0,95.0,94.0,91.0,88.0,88.0,87.0,89.0,91.0,92.0,88.0,93.0,97.0,93.0,90.0,92.0,90.0,91.0,87.0,90.0,88.0,81.0,82.0,87.0,92.0,89.0,86.0,90.0,93.0,94.0,91.0,90.0,94.0,109.0,110.0,111.0,136.0,144.0,155.0,189.0,181.0,190.0,241.0,255.0,235.0,241.0,249.0,248.0,248.0,249.0,230.0,216.0,205.0,260.0,278.0,270.0,271.0,251.0,245.0,229.0,211.0,217.0,237.0,241.0,253.0,237.0,230.0,237.0,245.0,250.0,279.0,285.0,292.0,280.0,312.0,347.0,327.0,379.0,376.0,347.0,318.0,305.0,295.0,276.0,265.0,258.0,268.0,269.0,265.0,249.0,251.0,247.0,226.0,247.0,249.0,241.0,237.0,235.0,222.0,209.0,204.0,198.0,189.0,185.0,222.0,221.0,219.0,219.0,212.0,205.0,204.0,195.0,181.0,179.0,181.0,177.0,180.0,175.0,174.0,200.0,185.0,176.0,175.0,179.0,164.0,153.0,177.0,178.0,170.0,174.0,162.0,169.0,172.0,176.0,180.0,178.0,207.0,189.0,174.0,181.0,182.0,183.0,210.0,204.0,191.0,178.0,178.0,176.0,181.0,180.0,174.0,172.0,163.0,161.0,162.0,163.0,186.0,182.0,184.0,177.0,185.0,174.0,176.0,172.0,166.0,179.0,180.0,173.0,169.0,163.0,176.0,169.0,177.0,172.0,188.0,196.0,194.0,178.0,163.0,157.0,156.0,156.0,155.0,166.0,175.0,183.0,173.0,157.0,155.0,155.0,150.0,168.0,155.0,149.0,147.0,176.0,198.0,210.0,218.0,225.0,210.0,215.0,205.0,198.0,207.0,198.0,194.0,193.0,195.0,186.0,169.0,202.0,193.0,197.0,182.0,180.0,186.0,180.0,169.0,170.0,215.0,202.0,189.0,186.0,187.0,187.0,184.0,170.0,160.0,191.0,186.0,190.0,181.0,170.0,164.0,158.0,150.0,151.0,195.0,213.0,198.0,198.0,199.0,195.0,182.0,172.0,160.0,155.0,164.0,161.0,172.0,176.0,180.0,201.0,204.0,189.0,172.0,171.0,160.0,147.0,165.0,159.0,159.0,163.0,166.0,169.0,168.0,158.0,149.0,144.0,146.0,149.0,147.0,167.0,189.0,183.0,167.0,160.0,190.0,195.0,193.0,182.0,174.0,173.0,189.0,199.0,194.0,200.0,195.0,184.0,188.0,180.0,179.0,169.0,167.0,181.0,174.0,160.0,171.0,176.0,169.0,163.0,158.0,190.0,203.0,203.0,182.0,178.0,168.0,183.0,184.0,182.0,173.0,170.0,165.0,154.0,183.0,188.0,175.0,158.0,142.0,158.0,169.0,162.0,152.0,163.0,188.0,177.0,167.0,159.0,163.0,167.0,153.0,139.0,139.0,150.0,158.0,161.0,178.0,219.0,216.0,202.0,201.0,186.0,179.0,170.0,162.0,169.0,177.0,166.0,165.0,158.0,150.0,143.0,130.0,139.0,145.0,149.0,142.0,140.0,130.0,133.0,141.0,136.0,133.0,126.0,121.0,131.0,134.0,162.0,173.0,167.0,160.0,147.0,139.0,135.0,131.0,130.0,124.0,127.0,125.0,144.0,136.0,125.0,132.0,135.0,128.0,119.0,112.0,117.0,128.0,130.0,131.0,124.0,113.0,139.0,138.0,131.0,122.0,118.0,112.0,126.0,122.0,119.0,112.0,123.0,128.0,116.0,126.0,127.0,117.0,115.0,116.0,107.0,104.0,104.0,119.0,112.0,173.0,206.0,269.0,282.0,275.0,284.0,335.0,311.0,309.0,321.0,316.0,338.0,326.0,314.0,343.0,328.0,335.0,332.0,358.0,332.0,311.0,293.0,294.0,302.0,280.0,276.0,276.0,264.0,249.0,241.0,232.0,218.0,215.0,201.0,197.0,196.0,185.0,225.0,223.0,216.0,198.0,189.0,195.0,196.0,199.0,190.0,194.0,199.0,201.0,189.0,188.0,175.0,182.0,180.0,174.0,181.0,182.0,169.0,177.0,182.0,175.0,177.0,175.0,173.0,191.0,183.0,174.0,160.0,153.0,146.0,145.0,149.0,149.0,144.0,140.0,129.0,134.0,130.0,134.0,133.0,124.0,134.0,125.0,122.0,130.0,133.0,135.0,133.0,143.0,136.0,129.0,121.0,124.0,125.0,124.0,118.0,118.0,122.0,121.0,125.0,122.0,120.0,117.0,115.0,116.0,120.0,122.0,121.0,148.0,139.0,134.0,131.0,134.0,131.0,140.0,130.0,126.0,116.0,136.0,126.0,120.0,112.0,131.0,140.0,138.0,146.0,134.0,121.0,119.0,122.0,125.0,115.0,110.0,115.0,111.0,113.0,109.0,104.0,106.0,123.0,135.0,132.0,126.0,116.0,116.0,112.0,118.0,127.0,123.0,133.0,131.0,131.0,129.0,122.0,118.0,124.0,130.0,140.0,138.0,124.0,131.0,134.0,133.0,125.0,118.0,108.0,102.0,98.0,112.0,105.0,111.0,105.0,105.0,131.0,121.0,118.0,108.0,122.0,120.0,113.0,111.0,116.0,108.0,104.0,112.0,113.0,106.0,102.0,101.0,108.0,104.0,100.0,94.0,92.0,98.0,95.0,111.0,102.0,110.0,112.0,105.0,110.0,104.0,100.0,93.0,94.0,91.0,100.0,96.0,88.0,86.0,88.0,86.0,81.0,80.0,81.0,115.0,115.0,117.0,114.0,132.0,131.0,127.0,123.0,119.0,111.0,125.0,136.0,126.0,116.0,115.0,109.0,113.0,110.0,103.0,97.0,95.0,105.0,107.0,101.0,100.0,91.0,94.0,103.0,95.0,94.0,90.0,87.0,93.0,91.0,89.0,90.0,88.0,91.0,95.0,97.0,101.0,99.0,99.0,96.0,98.0,96.0,100.0,97.0,98.0,105.0,103.0,105.0,108.0,102.0,104.0,102.0,108.0,107.0,104.0,97.0,105.0,98.0,100.0,105.0,107.0,109.0,109.0,117.0,110.0,108.0,101.0,99.0,106.0,111.0,115.0,112.0,108.0,106.0,102.0,97.0,103.0,104.0,106.0,121.0,122.0,113.0,114.0,113.0,110.0,116.0,116.0,115.0,113.0,109.0,105.0,120.0,116.0,111.0,107.0,110.0,102.0,103.0,99.0,110.0,114.0,108.0,101.0,104.0,99.0,100.0,101.0,109.0,110.0,104.0,96.0,105.0,103.0,104.0,105.0,100.0,96.0,105.0,104.0,100.0,98.0,94.0,91.0,105.0,101.0,103.0,99.0,92.0,84.0,91.0,91.0,95.0,100.0,106.0,101.0,106.0,102.0,106.0,102.0,99.0,98.0,94.0,96.0,99.0,99.0,95.0,96.0,97.0,100.0,96.0,97.0,95.0,104.0,107.0,104.0,94.0,91.0,87.0,85.0,89.0,88.0,93.0,94.0,86.0,95.0,99.0,99.0,100.0,99.0,98.0,110.0,112.0,108.0,110.0,115.0,111.0,105.0,100.0,98.0,105.0,102.0,98.0,99.0,90.0,97.0,99.0,91.0,96.0,95.0,93.0,98.0,92.0,92.0,94.0,93.0,97.0,93.0,88.0,82.0,78.0,81.0,98.0,92.0,97.0,100.0,98.0,91.0,95.0,93.0,88.0,91.0,88.0,83.0,98.0,102.0,107.0,103.0,106.0,102.0,106.0,101.0,105.0,100.0,104.0,100.0,94.0,91.0,93.0,93.0,101.0,99.0,95.0,94.0,86.0,96.0,94.0,93.0,93.0,92.0,94.0,92.0,98.0,96.0,106.0,108.0,104.0,102.0,105.0,102.0,96.0,99.0,93.0,96.0,88.0,99.0,99.0,93.0,91.0,93.0,103.0,96.0,97.0,98.0,98.0,100.0,106.0,102.0,101.0,95.0,98.0,100.0,117.0,109.0,101.0,101.0,96.0,97.0,94.0,98.0,92.0,92.0,89.0,94.0,96.0,91.0,101.0,98.0,95.0,90.0,96.0,90.0,87.0,89.0,93.0,99.0,105.0,105.0,99.0,93.0,90.0,99.0,111.0,105.0,98.0,92.0,88.0,81.0,96.0,107.0,96.0,92.0,97.0,99.0,121.0,117.0,106.0,106.0,106.0,109.0,103.0,115.0,108.0,112.0,110.0,110.0,106.0,102.0,105.0,100.0,98.0
