52.0,54.0,54.0,52.0,53.0,51.0,51.0,51.0,49.0,51.0,49.0,48.0,47.0,46.0,46.0,45.0,44.0,44.0,45.0,46.0,46.0,48.0,49.0,50.0,50.0,48.0,48.0,48.0,50.0,49.0,50.0,48.0,48.0,49.0,49.0,48.0,48.0,49.0,48.0,47.0,47.0,46.0,46.0,45.0,46.0,44.0,45.0,45.0,43.0,44.0,44.0,44.0,44.0,44.0,44.0,43.0,44.0,45.0,46.0,46.0,48.0,47.0,46.0,47.0,45.0,47.0,45.0,45.0,45.0,44.0,44.0,45.0,45.0,44.0,44.0,43.0,43.0,44.0,44.0,46.0,45.0,46.0,46.0,46.0,46.0,47.0,48.0,53.0,54.0,60.0,66.0,71.0,79.0,81.0,80.0,84.0,80.0,75.0,73.0,70.0,76.0,72.0,70.0,70.0,66.0,64.0,62.0,66.0,64.0,65.0,66.0,70.0,68.0,67.0,64.0,66.0,64.0,62.0,61.0,63.0,61.0,61.0,59.0,57.0,56.0,54.0,55.0,53.0,54.0,54.0,57.0,55.0,54.0,52.0,52.0,52.0,50.0,50.0,50.0,49.0,49.0,47.0,47.0,48.0,48.0,49.0,48.0,49.0,48.0,51.0,50.0,50.0,48.0,47.0,47.0,45.0,46.0,45.0,45.0,46.0,46.0,46.0,47.0,47.0,45.0,46.0,47.0,46.0,48.0,47.0,49.0,50.0,50.0,51.0,53.0,52.0,51.0,53.0,52.0,50.0,51.0,50.0,49.0,47.0,47.0,48.0,47.0,48.0,47.0,48.0,48.0,48.0,47.0,47.0,47.0,47.0,47.0,46.0,47.0,44.0,44.0,44.0,43.0,43.0,41.0,43.0,42.0,43.0,44.0,47.0,48.0,47.0,47.0,47.0,50.0,56.0,56.0,69.0,75.0,100.0,104.0,108.0,110.0,107.0,114.0,109.0,113.0,117.0,117.0,121.0,116.0,121.0,122.0,129.0,132.0,130.0,133.0,136.0,137.0,137.0,138.0,135.0,135.0,135.0,134.0,133.0,138.0,137.0,135.0,132.0,131.0,130.0,127.0,123.0,120.0,116.0,114.0,111.0,110.0,111.0,105.0,109.0,108.0,106.0,106.0,105.0,105.0,104.0,102.0,100.0,100.0,99.0,95.0,93.0,89.0,88.0,94.0,93.0,93.0,90.0,88.0,85.0,83.0,79.0,80.0,80.0,78.0,77.0,77.0,80.0,79.0,78.0,75.0,73.0,73.0,73.0,71.0,69.0,68.0,67.0,67.0,64.0,64.0,66.0,65.0,63.0,63.0,62.0,64.0,62.0,62.0,60.0,59.0,60.0,59.0,60.0,61.0,61.0,60.0,58.0,60.0,64.0,62.0,60.0,60.0,60.0,60.0,60.0,59.0,60.0,57.0,57.0,58.0,58.0,58.0,57.0,57.0,56.0,55.0,54.0,52.0,52.0,52.0,54.0,54.0,53.0,50.0,48.0,49.0,48.0,49.0,49.0,49.0,49.0,48.0,49.0,50.0,50.0,52.0,52.0,52.0,53.0,55.0,56.0,56.0,56.0,54.0,54.0,53.0,51.0,51.0,51.0,50.0,50.0,52.0,50.0,50.0,49.0,48.0,49.0,47.0,48.0,48.0,47.0,48.0,48.0,48.0,47.0,47.0,46.0,47.0,47.0,47.0,48.0,49.0,49.0,48.0,51.0,51.0,51.0,49.0,49.0,49.0,49.0,48.0,48.0,49.0,49.0,49.0,49.0,50.0,48.0,50.0,50.0,51.0,51.0,50.0,51.0,50.0,50.0,50.0,51.0,52.0,52.0,52.0,52.0,53.0,52.0,52.0,52.0,52.0,52.0,52.0,53.0,53.0,53.0,53.0,54.0,52.0,51.0,51.0,51.0,51.0,51.0,49.0,48.0,48.0,49.0,49.0,48.0,49.0,50.0,49.0,52.0,53.0,53.0,53.0,55.0,56.0,55.0,53.0,52.0,51.0,49.0,49.0,50.0,50.0,50.0,50.0,49.0,51.0,50.0,50.0,48.0,48.0,48.0,51.0,50.0,51.0,51.0,50.0,49.0,49.0,49.0,48.0,48.0,48.0,47.0,48.0,48.0,47.0,48.0,47.0,48.0,45.0,45.0,47.0,48.0,47.0,47.0,46.0,46.0,47.0,47.0,47.0,47.0,47.0,46.0,45.0,45.0,47.0,46.0,45.0,46.0,46.0,46.0,46.0,46.0,46.0,46.0,47.0,47.0,46.0,46.0,45.0,45.0,48.0,47.0,49.0,48.0,49.0,49.0,49.0,48.0,49.0,51.0,50.0,50.0,52.0,53.0,53.0,53.0,56.0,55.0,57.0,58.0,56.0,57.0,57.0,58.0,56.0,57.0,57.0,56.0,56.0,53.0,56.0,53.0,53.0,53.0,53.0,53.0,52.0,53.0,52.0,54.0,53.0,53.0,51.0,51.0,52.0,50.0,49.0,49.0,48.0,49.0,47.0,48.0,47.0,47.0,46.0,46.0,46.0,45.0,47.0,47.0,46.0,46.0,45.0,44.0,45.0,46.0,45.0,47.0,47.0,46.0,45.0,45.0,45.0,44.0,49.0,49.0,48.0,48.0,47.0,49.0,48.0,49.0,49.0,51.0,50.0,50.0,50.0,50.0,51.0,51.0,52.0,51.0,51.0,53.0,51.0,50.0,50.0,49.0,49.0,49.0,51.0,48.0,49.0,48.0,48.0,47.0,47.0,47.0,46.0,47.0,46.0,46.0,45.0,45.0,45.0,44.0,43.0,46.0,46.0,46.0,47.0,47.0,45.0,45.0,45.0,43.0,45.0,45.0,46.0,48.0,47.0,47.0,47.0,47.0,48.0,48.0,46.0,45.0,46.0,45.0,44.0,43.0,45.0,44.0,45.0,44.0,45.0,44.0,44.0,44.0,42.0,43.0,42.0,44.0,44.0,43.0,44.0,42.0,44.0,43.0,43.0,43.0,41.0,44.0,42.0,42.0,43.0,42.0,43.0,43.0,44.0,44.0,43.0,43.0,43.0,43.0,43.0,44.0,42.0,43.0,43.0,43.0,43.0,43.0,44.0,44.0,45.0,44.0,45.0,45.0,44.0,45.0,44.0,45.0,45.0,45.0,45.0,44.0,44.0,43.0,44.0,43.0,43.0,43.0,43.0,45.0,44.0,44.0,45.0,45.0,45.0,44.0,44.0,44.0,45.0,46.0,46.0,49.0,49.0,50.0,50.0,49.0,49.0,48.0,48.0,49.0,48.0,48.0,47.0,47.0,47.0,47.0,47.0,47.0,46.0,49.0,49.0,48.0,48.0,47.0,48.0,48.0,49.0,49.0,49.0,50.0,51.0,53.0,53.0,53.0,54.0,54.0,55.0,57.0,60.0,60.0,59.0,59.0,58.0,58.0,57.0,59.0,58.0,59.0,60.0,61.0,61.0,61.0,61.0,60.0,60.0,61.0,62.0,63.0,64.0,64.0,64.0,66.0,66.0,68.0,68.0,67.0,70.0,69.0,69.0,69.0,71.0,72.0,72.0,71.0,71.0,71.0,71.0,72.0,72.0,73.0,73.0,70.0,72.0,72.0,71.0,70.0,70.0,71.0,68.0,67.0,67.0,65.0,66.0,65.0,68.0,66.0,67.0,67.0,67.0,67.0,65.0,65.0,64.0,65.0,64.0,63.0,62.0,62.0,62.0,60.0,62.0,62.0,62.0,62.0,62.0,62.0,60.0,59.0,60.0,60.0,60.0,59.0,58.0,56.0,55.0,55.0,54.0,54.0,53.0,55.0,53.0,52.0,53.0,53.0,53.0,55.0,54.0,53.0,53.0,54.0,54.0,54.0,55.0,56.0,54.0,56.0,57.0,57.0,58.0,56.0,57.0,57.0,56.0,57.0,56.0,55.0,55.0,57.0,56.0,55.0,55.0,55.0,55.0,56.0,59.0,58.0,60.0,61.0,62.0,63.0,63.0,62.0,62.0,60.0,59.0,57.0,56.0,55.0,55.0,54.0,53.0,51.0,52.0,50.0,49.0,49.0,47.0,47.0,46.0,48.0,49.0,49.0,49.0,48.0,49.0,48.0,48.0,49.0,48.0,50.0,50.0,50.0,50.0,51.0,51.0,52.0,53.0,52.0,52.0,51.0,51.0,50.0,50.0,51.0,49.0,48.0,48.0,46.0,47.0,45.0,47.0,46.0,45.0,46.0,46.0,45.0,45.0,45.0,44.0,44.0,44.0,44.0,44.0,45.0,46.0,44.0,45.0,44.0,45.0,45.0,45.0,47.0,47.0,49.0,48.0,49.0,48.0,49.0,49.0,48.0,49.0,50.0,50.0,49.0,49.0,50.0,50.0,50.0
75.0,75.0,74.0,73.0,72.0,72.0,70.0,69.0,68.0,66.0,65.0,64.0,63.0,62.0,63.0,63.0,63.0,65.0,65.0,65.0,67.0,66.0,65.0,64.0,62.0,61.0,60.0,59.0,58.0,57.0,58.0,58.0,58.0,61.0,60.0,60.0,60.0,61.0,59.0,59.0,60.0,60.0,56.0,58.0,56.0,54.0,52.0,51.0,50.0,50.0,48.0,47.0,46.0,44.0,41.0,41.0,39.0,40.0,40.0,40.0,39.0,39.0,37.0,36.0,37.0,37.0,37.0,36.0,36.0,37.0,36.0,37.0,37.0,36.0,37.0,37.0,40.0,42.0,42.0,43.0,43.0,51.0,52.0,51.0,58.0,63.0,78.0,82.0,85.0,104.0,133.0,146.0,141.0,154.0,162.0,156.0,145.0,139.0,128.0,118.0,119.0,109.0,107.0,100.0,94.0,91.0,85.0,95.0,97.0,95.0,95.0,103.0,97.0,99.0,90.0,100.0,96.0,91.0,93.0,98.0,95.0,97.0,94.0,94.0,97.0,98.0,100.0,101.0,100.0,103.0,104.0,103.0,105.0,103.0,109.0,109.0,108.0,108.0,109.0,109.0,108.0,107.0,109.0,112.0,112.0,111.0,112.0,111.0,114.0,110.0,109.0,107.0,107.0,106.0,105.0,107.0,106.0,107.0,109.0,107.0,107.0,106.0,104.0,101.0,104.0,105.0,105.0,106.0,102.0,104.0,102.0,104.0,105.0,103.0,99.0,98.0,98.0,96.0,95.0,94.0,92.0,94.0,94.0,94.0,93.0,94.0,94.0,93.0,95.0,94.0,95.0,94.0,92.0,92.0,90.0,91.0,87.0,85.0,85.0,83.0,82.0,84.0,82.0,82.0,81.0,81.0,82.0,79.0,80.0,84.0,82.0,82.0,81.0,82.0,88.0,94.0,99.0,106.0,117.0,119.0,113.0,110.0,109.0,110.0,104.0,99.0,95.0,96.0,96.0,98.0,99.0,92.0,96.0,92.0,90.0,96.0,95.0,92.0,90.0,93.0,93.0,95.0,95.0,99.0,96.0,98.0,96.0,96.0,95.0,95.0,94.0,91.0,90.0,88.0,85.0,84.0,84.0,81.0,80.0,77.0,76.0,73.0,72.0,71.0,69.0,71.0,69.0,66.0,68.0,67.0,65.0,64.0,63.0,61.0,60.0,58.0,62.0,59.0,58.0,57.0,55.0,56.0,54.0,54.0,53.0,51.0,53.0,53.0,54.0,55.0,54.0,51.0,51.0,50.0,49.0,48.0,48.0,50.0,49.0,47.0,47.0,46.0,49.0,47.0,46.0,45.0,45.0,44.0,42.0,42.0,40.0,41.0,41.0,41.0,45.0,43.0,42.0,42.0,43.0,42.0,41.0,40.0,39.0,43.0,42.0,42.0,42.0,41.0,41.0,40.0,41.0,41.0,39.0,39.0,41.0,41.0,40.0,42.0,42.0,40.0,40.0,41.0,41.0,39.0,39.0,39.0,39.0,39.0,38.0,40.0,39.0,39.0,41.0,41.0,41.0,41.0,44.0,42.0,42.0,41.0,41.0,41.0,41.0,41.0,39.0,41.0,41.0,39.0,39.0,39.0,39.0,36.0,38.0,38.0,43.0,42.0,41.0,43.0,41.0,41.0,41.0,40.0,40.0,39.0,40.0,42.0,41.0,41.0,41.0,42.0,44.0,44.0,44.0,46.0,47.0,47.0,49.0,49.0,53.0,53.0,55.0,57.0,59.0,62.0,65.0,66.0,66.0,66.0,66.0,69.0,70.0,70.0,69.0,71.0,72.0,74.0,74.0,75.0,76.0,76.0,75.0,73.0,75.0,75.0,75.0,73.0,73.0,70.0,68.0,66.0,65.0,65.0,64.0,64.0,62.0,62.0,60.0,59.0,60.0,58.0,58.0,58.0,58.0,54.0,54.0,52.0,49.0,50.0,50.0,49.0,48.0,48.0,47.0,48.0,48.0,46.0,45.0,45.0,45.0,46.0,44.0,45.0,44.0,43.0,42.0,44.0,45.0,43.0,44.0,43.0,44.0,42.0,43.0,44.0,44.0,46.0,48.0,46.0,47.0,46.0,45.0,45.0,45.0,43.0,42.0,41.0,41.0,41.0,41.0,41.0,40.0,41.0,39.0,39.0,38.0,37.0,38.0,37.0,37.0,37.0,36.0,38.0,38.0,43.0,40.0,40.0,41.0,41.0,43.0,41.0,44.0,44.0,44.0,46.0,46.0,48.0,47.0,48.0,47.0,49.0,48.0,47.0,48.0,49.0,51.0,52.0,52.0,53.0,54.0,56.0,55.0,55.0,56.0,56.0,56.0,58.0,58.0,57.0,57.0,56.0,55.0,56.0,54.0,55.0,55.0,56.0,56.0,54.0,55.0,54.0,55.0,57.0,56.0,54.0,54.0,55.0,54.0,55.0,53.0,54.0,54.0,55.0,56.0,56.0,55.0,53.0,55.0,52.0,54.0,52.0,51.0,51.0,49.0,49.0,49.0,49.0,49.0,47.0,46.0,44.0,44.0,44.0,44.0,45.0,45.0,46.0,46.0,47.0,46.0,46.0,47.0,47.0,45.0,45.0,47.0,46.0,48.0,49.0,51.0,53.0,55.0,55.0,54.0,54.0,54.0,55.0,55.0,53.0,57.0,54.0,55.0,54.0,54.0,55.0,53.0,57.0,56.0,58.0,59.0,61.0,61.0,61.0,63.0,62.0,63.0,66.0,64.0,65.0,65.0,68.0,70.0,69.0,69.0,70.0,71.0,70.0,73.0,71.0,71.0,73.0,73.0,74.0,73.0,77.0,76.0,78.0,80.0,80.0,81.0,81.0,83.0,82.0,82.0,84.0,80.0,79.0,77.0,77.0,75.0,75.0,75.0,75.0,76.0,76.0,78.0,78.0,80.0,79.0,80.0,81.0,80.0,80.0,80.0,81.0,82.0,82.0,82.0,82.0,82.0,81.0,80.0,80.0,79.0,77.0,75.0,76.0,72.0,70.0,69.0,67.0,68.0,67.0,67.0,64.0,62.0,61.0,59.0,61.0,60.0,61.0,60.0,62.0,62.0,62.0,61.0,61.0,60.0,58.0,58.0,57.0,55.0,54.0,53.0,54.0,52.0,51.0,52.0,51.0,51.0,49.0,52.0,50.0,49.0,49.0,47.0,48.0,47.0,48.0,46.0,48.0,49.0,48.0,49.0,49.0,51.0,53.0,54.0,55.0,56.0,57.0,59.0,61.0,62.0,62.0,61.0,59.0,59.0,57.0,58.0,56.0,54.0,51.0,51.0,50.0,49.0,50.0,49.0,50.0,52.0,54.0,57.0,57.0,60.0,62.0,62.0,64.0,64.0,64.0,63.0,63.0,61.0,59.0,59.0,57.0,57.0,57.0,58.0,58.0,58.0,59.0,59.0,61.0,61.0,62.0,61.0,61.0,62.0,63.0,63.0,63.0,62.0,62.0,63.0,65.0,65.0,65.0,64.0,65.0,66.0,66.0,66.0,65.0,66.0,64.0,65.0,62.0,60.0,61.0,61.0,59.0,61.0,62.0,60.0,60.0,61.0,63.0,63.0,64.0,65.0,64.0,63.0,64.0,64.0,66.0,66.0,67.0,66.0,68.0,69.0,67.0,67.0,67.0,68.0,65.0,63.0,64.0,62.0,61.0,61.0,60.0,58.0,57.0,55.0,55.0,54.0,53.0,53.0,54.0,55.0,56.0,55.0,57.0,56.0,57.0,57.0,57.0,58.0,59.0,60.0,61.0,63.0,62.0,63.0,64.0,64.0,64.0,64.0,63.0,62.0,63.0,62.0,59.0,58.0,59.0,58.0,58.0,58.0,58.0,59.0,58.0,58.0,59.0,58.0,59.0,59.0,58.0,58.0,57.0,59.0,58.0,56.0,56.0,54.0,54.0,53.0,54.0,54.0,54.0,54.0,53.0,54.0,53.0,55.0,55.0,57.0,56.0,56.0,56.0,53.0,55.0,54.0,54.0,55.0,57.0,56.0,55.0,57.0,56.0,58.0,59.0,58.0,58.0,57.0,59.0,56.0,57.0,59.0,58.0,59.0,59.0,60.0,58.0,59.0,57.0,57.0,58.0,57.0,58.0,56.0,56.0,58.0,57.0,58.0,57.0,59.0,57.0,59.0,58.0,58.0,58.0,57.0,59.0,60.0,62.0,61.0,63.0,63.0,64.0,66.0,64.0,63.0,64.0,63.0,63.0,63.0,64.0,64.0,63.0,64.0,62.0,61.0,60.0,62.0,60.0,58.0,58.0,59.0,61.0,62.0,64.0,62.0,63.0,62.0,62.0,60.0,60.0,60.0,58.0,57.0,56.0,52.0,53.0,51.0,53.0,50.0,51.0,50.0,49.0,49.0,51.0
10.0,11.0,11.0,8.0,10.0,11.0,10.0,11.0,11.0,11.0,10.0,10.0,8.0,8.0,8.0,7.0,7.0,7.0,6.0,6.0,7.0,8.0,7.0,8.0,6.0,7.0,7.0,6.0,6.0,5.0,6.0,6.0,5.0,5.0,5.0,5.0,5.0,7.0,7.0,6.0,7.0,8.0,8.0,8.0,13.0,10.0,10.0,9.0,8.0,8.0,8.0,9.0,10.0,11.0,10.0,9.0,8.0,8.0,11.0,9.0,9.0,8.0,7.0,6.0,7.0,10.0,12.0,11.0,10.0,10.0,9.0,9.0,11.0,7.0,7.0,7.0,10.0,13.0,11.0,26.0,22.0,21.0,20.0,19.0,24.0,24.0,32.0,33.0,39.0,43.0,68.0,72.0,69.0,74.0,78.0,75.0,68.0,60.0,55.0,47.0,47.0,50.0,61.0,54.0,48.0,44.0,40.0,37.0,33.0,33.0,31.0,28.0,27.0,31.0,32.0,27.0,25.0,24.0,21.0,26.0,38.0,57.0,56.0,51.0,47.0,42.0,40.0,40.0,42.0,39.0,50.0,51.0,45.0,40.0,39.0,46.0,39.0,36.0,40.0,37.0,34.0,29.0,26.0,26.0,29.0,26.0,25.0,28.0,37.0,38.0,32.0,31.0,27.0,23.0,21.0,19.0,19.0,21.0,29.0,28.0,25.0,23.0,21.0,20.0,19.0,20.0,20.0,22.0,29.0,27.0,25.0,24.0,24.0,21.0,19.0,19.0,22.0,32.0,27.0,23.0,21.0,19.0,17.0,16.0,16.0,16.0,15.0,14.0,19.0,17.0,17.0,17.0,14.0,14.0,12.0,11.0,11.0,9.0,13.0,8.0,9.0,15.0,13.0,12.0,11.0,11.0,16.0,14.0,17.0,24.0,27.0,23.0,21.0,20.0,42.0,66.0,79.0,149.0,165.0,218.0,244.0,250.0,275.0,311.0,297.0,274.0,249.0,237.0,235.0,228.0,218.0,197.0,195.0,181.0,160.0,151.0,146.0,131.0,125.0,111.0,105.0,105.0,99.0,102.0,104.0,94.0,92.0,83.0,78.0,100.0,110.0,103.0,97.0,93.0,88.0,96.0,91.0,88.0,102.0,90.0,85.0,81.0,80.0,79.0,84.0,83.0,76.0,67.0,74.0,72.0,66.0,69.0,69.0,63.0,65.0,66.0,79.0,74.0,65.0,58.0,63.0,61.0,56.0,57.0,63.0,57.0,53.0,52.0,45.0,42.0,45.0,39.0,36.0,41.0,50.0,43.0,43.0,52.0,55.0,48.0,42.0,39.0,48.0,51.0,45.0,50.0,45.0,40.0,35.0,33.0,29.0,36.0,32.0,29.0,47.0,48.0,45.0,51.0,48.0,43.0,37.0,33.0,30.0,35.0,55.0,54.0,48.0,43.0,37.0,33.0,36.0,39.0,34.0,30.0,32.0,31.0,28.0,36.0,43.0,38.0,35.0,34.0,30.0,27.0,26.0,26.0,34.0,36.0,33.0,31.0,32.0,29.0,28.0,28.0,25.0,25.0,32.0,34.0,30.0,29.0,26.0,24.0,21.0,25.0,23.0,29.0,30.0,26.0,23.0,22.0,19.0,17.0,16.0,20.0,26.0,23.0,22.0,21.0,22.0,20.0,18.0,19.0,20.0,18.0,17.0,28.0,26.0,25.0,22.0,22.0,23.0,24.0,21.0,29.0,30.0,26.0,23.0,27.0,37.0,33.0,29.0,28.0,24.0,25.0,23.0,21.0,19.0,21.0,20.0,20.0,18.0,17.0,24.0,22.0,29.0,25.0,29.0,28.0,25.0,23.0,21.0,24.0,25.0,21.0,23.0,24.0,25.0,22.0,20.0,20.0,17.0,22.0,30.0,34.0,32.0,28.0,28.0,24.0,21.0,24.0,25.0,29.0,26.0,24.0,24.0,22.0,23.0,19.0,18.0,17.0,15.0,22.0,23.0,31.0,30.0,27.0,24.0,26.0,24.0,28.0,24.0,21.0,19.0,18.0,17.0,15.0,27.0,24.0,22.0,22.0,21.0,19.0,18.0,16.0,17.0,19.0,22.0,19.0,23.0,23.0,20.0,24.0,21.0,20.0,21.0,19.0,20.0,25.0,25.0,22.0,24.0,21.0,20.0,18.0,15.0,17.0,16.0,15.0,13.0,15.0,13.0,12.0,12.0,31.0,29.0,29.0,26.0,26.0,24.0,21.0,19.0,19.0,18.0,17.0,19.0,20.0,20.0,18.0,16.0,17.0,21.0,18.0,18.0,19.0,17.0,21.0,19.0,17.0,16.0,14.0,13.0,13.0,14.0,15.0,15.0,14.0,12.0,14.0,13.0,15.0,13.0,14.0,13.0,10.0,18.0,22.0,20.0,19.0,19.0,19.0,16.0,18.0,19.0,17.0,18.0,20.0,17.0,18.0,16.0,14.0,13.0,15.0,17.0,17.0,14.0,14.0,13.0,11.0,14.0,17.0,15.0,14.0,13.0,11.0,13.0,15.0,19.0,18.0,15.0,15.0,13.0,17.0,15.0,13.0,13.0,12.0,12.0,11.0,10.0,12.0,16.0,20.0,16.0,17.0,17.0,15.0,15.0,16.0,14.0,18.0,23.0,20.0,18.0,21.0,21.0,24.0,22.0,20.0,19.0,19.0,20.0,19.0,17.0,16.0,14.0,14.0,14.0,17.0,24.0,21.0,20.0,17.0,16.0,15.0,13.0,13.0,12.0,10.0,12.0,11.0,15.0,14.0,13.0,13.0,14.0,13.0,19.0,18.0,17.0,15.0,14.0,12.0,11.0,11.0,13.0,11.0,14.0,14.0,12.0,12.0,10.0,10.0,8.0,15.0,18.0,18.0,16.0,15.0,13.0,11.0,11.0,10.0,10.0,10.0,11.0,14.0,13.0,11.0,11.0,10.0,11.0,11.0,12.0,13.0,17.0,15.0,14.0,13.0,12.0,16.0,14.0,17.0,16.0,14.0,14.0,17.0,15.0,17.0,15.0,15.0,12.0,14.0,14.0,16.0,14.0,13.0,12.0,11.0,12.0,13.0,12.0,13.0,15.0,16.0,14.0,13.0,13.0,15.0,13.0,13.0,12.0,14.0,13.0,13.0,12.0,10.0,15.0,15.0,13.0,12.0,11.0,14.0,12.0,16.0,16.0,14.0,15.0,13.0,11.0,13.0,14.0,13.0,12.0,11.0,10.0,12.0,12.0,11.0,10.0,10.0,11.0,8.0,13.0,13.0,15.0,14.0,12.0,11.0,11.0,15.0,18.0,16.0,15.0,12.0,12.0,14.0,13.0,13.0,13.0,16.0,16.0,15.0,14.0,18.0,16.0,15.0,18.0,16.0,23.0,22.0,20.0,17.0,17.0,15.0,14.0,13.0,13.0,12.0,13.0,15.0,14.0,12.0,12.0,12.0,11.0,12.0,13.0,15.0,14.0,14.0,13.0,11.0,13.0,12.0,12.0,14.0,16.0,17.0,16.0,15.0,13.0,13.0,11.0,13.0,11.0,10.0,12.0,12.0,12.0,11.0,10.0,10.0,10.0,9.0,8.0,10.0,11.0,9.0,13.0,13.0,12.0,11.0,11.0,12.0,14.0,11.0,11.0,12.0,13.0,12.0,12.0,17.0,19.0,16.0,14.0,15.0,14.0,14.0,17.0,16.0,15.0,15.0,13.0,15.0,14.0,15.0,17.0,16.0,15.0,21.0,19.0,18.0,17.0,18.0,17.0,17.0,17.0,15.0,14.0,15.0,14.0,12.0,12.0,15.0,14.0,12.0,12.0,12.0,11.0,10.0,10.0,12.0,10.0,12.0,14.0,13.0,13.0,13.0,13.0,11.0,12.0,11.0,14.0,19.0,21.0,19.0,16.0,16.0,16.0,19.0,18.0,17.0,15.0,14.0,14.0,17.0,14.0,13.0,13.0,12.0,10.0,11.0,11.0,13.0,12.0,12.0,13.0,10.0,12.0,11.0,11.0,12.0,9.0,14.0,12.0,13.0,11.0,11.0,10.0,10.0,8.0,7.0,11.0,13.0,12.0,10.0,11.0,9.0,7.0,10.0,10.0,10.0,10.0,9.0,10.0,10.0,10.0,11.0,13.0,12.0,15.0,16.0,14.0,13.0,14.0,14.0,14.0,12.0,11.0,10.0,10.0,10.0,10.0,12.0,13.0,14.0,12.0,12.0,11.0,12.0,11.0,13.0,14.0,12.0,11.0,10.0,14.0,13.0,17.0,14.0,12.0,12.0,11.0,10.0,9.0,13.0,12.0,10.0,10.0,10.0,9.0,12.0,12.0,12.0,10.0,10.0,9.0,11.0,12.0,14.0,12.0,12.0,11.0,11.0,10.0,12.0,12.0,11.0,12.0,11.0
57.0,64.0,66.0,65.0,61.0,67.0,62.0,63.0,70.0,72.0,67.0,71.0,69.0,65.0,72.0,73.0,70.0,74.0,76.0,71.0,82.0,83.0,78.0,73.0,72.0,68.0,74.0,72.0,74.0,70.0,66.0,62.0,59.0,58.0,54.0,55.0,53.0,55.0,55.0,57.0,67.0,67.0,68.0,68.0,67.0,68.0,71.0,71.0,70.0,75.0,76.0,70.0,73.0,72.0,68.0,68.0,77.0,78.0,80.0,86.0,88.0,87.0,80.0,76.0,72.0,73.0,78.0,81.0,80.0,74.0,76.0,83.0,86.0,82.0,97.0,91.0,95.0,95.0,91.0,108.0,111.0,110.0,113.0,110.0,109.0,108.0,101.0,95.0,120.0,129.0,138.0,184.0,191.0,183.0,187.0,187.0,180.0,166.0,152.0,138.0,135.0,132.0,126.0,132.0,124.0,131.0,134.0,126.0,130.0,129.0,127.0,125.0,133.0,146.0,148.0,148.0,150.0,148.0,134.0,126.0,126.0,119.0,122.0,119.0,114.0,105.0,105.0,108.0,112.0,106.0,107.0,111.0,105.0,102.0,103.0,101.0,103.0,99.0,95.0,97.0,102.0,93.0,98.0,95.0,92.0,92.0,90.0,92.0,87.0,95.0,95.0,89.0,90.0,88.0,83.0,83.0,82.0,80.0,83.0,80.0,74.0,79.0,83.0,80.0,76.0,72.0,70.0,71.0,69.0,71.0,69.0,73.0,71.0,70.0,68.0,64.0,63.0,71.0,66.0,63.0,60.0,58.0,54.0,62.0,64.0,65.0,61.0,59.0,57.0,55.0,53.0,50.0,46.0,45.0,44.0,41.0,43.0,41.0,43.0,41.0,39.0,41.0,38.0,38.0,37.0,37.0,37.0,37.0,42.0,44.0,54.0,59.0,58.0,59.0,84.0,90.0,152.0,206.0,221.0,324.0,396.0,418.0,433.0,479.0,537.0,516.0,485.0,476.0,493.0,464.0,453.0,433.0,435.0,409.0,405.0,394.0,383.0,359.0,332.0,308.0,287.0,287.0,270.0,278.0,269.0,246.0,238.0,221.0,250.0,233.0,246.0,239.0,239.0,227.0,219.0,206.0,199.0,200.0,197.0,188.0,173.0,159.0,156.0,144.0,140.0,146.0,143.0,139.0,131.0,127.0,136.0,136.0,130.0,129.0,134.0,146.0,141.0,139.0,151.0,147.0,141.0,153.0,147.0,144.0,131.0,129.0,131.0,125.0,130.0,128.0,121.0,131.0,139.0,137.0,137.0,127.0,119.0,135.0,131.0,130.0,123.0,122.0,126.0,126.0,134.0,129.0,122.0,120.0,110.0,104.0,96.0,108.0,99.0,110.0,107.0,112.0,104.0,96.0,92.0,82.0,82.0,93.0,94.0,96.0,99.0,95.0,86.0,79.0,82.0,89.0,98.0,102.0,100.0,96.0,94.0,97.0,94.0,94.0,88.0,93.0,98.0,101.0,101.0,100.0,99.0,94.0,88.0,91.0,84.0,85.0,82.0,83.0,85.0,81.0,80.0,81.0,83.0,78.0,75.0,69.0,69.0,73.0,75.0,78.0,78.0,76.0,73.0,68.0,65.0,77.0,78.0,76.0,76.0,75.0,73.0,72.0,70.0,69.0,72.0,70.0,73.0,73.0,70.0,73.0,70.0,66.0,72.0,83.0,79.0,74.0,73.0,71.0,74.0,74.0,73.0,74.0,70.0,75.0,77.0,79.0,74.0,71.0,69.0,66.0,69.0,76.0,76.0,72.0,76.0,71.0,71.0,70.0,73.0,74.0,73.0,68.0,64.0,65.0,63.0,62.0,73.0,71.0,71.0,66.0,69.0,67.0,68.0,64.0,66.0,67.0,69.0,71.0,89.0,96.0,94.0,89.0,89.0,84.0,80.0,79.0,79.0,80.0,78.0,81.0,81.0,77.0,77.0,75.0,79.0,87.0,82.0,82.0,82.0,86.0,83.0,82.0,79.0,76.0,79.0,88.0,83.0,79.0,79.0,75.0,70.0,65.0,62.0,60.0,69.0,70.0,72.0,70.0,67.0,62.0,63.0,66.0,71.0,75.0,89.0,104.0,112.0,123.0,133.0,137.0,149.0,154.0,154.0,157.0,165.0,162.0,166.0,165.0,166.0,166.0,162.0,155.0,158.0,151.0,156.0,160.0,151.0,154.0,144.0,148.0,148.0,140.0,140.0,131.0,133.0,129.0,126.0,125.0,121.0,117.0,112.0,110.0,111.0,113.0,104.0,100.0,99.0,94.0,95.0,93.0,95.0,92.0,95.0,91.0,87.0,87.0,88.0,89.0,84.0,84.0,79.0,80.0,81.0,84.0,84.0,80.0,80.0,77.0,73.0,71.0,73.0,76.0,75.0,77.0,72.0,73.0,71.0,72.0,72.0,69.0,66.0,65.0,67.0,65.0,69.0,65.0,61.0,61.0,62.0,64.0,65.0,64.0,62.0,58.0,63.0,68.0,70.0,69.0,71.0,69.0,67.0,64.0,66.0,63.0,61.0,62.0,60.0,58.0,61.0,58.0,57.0,61.0,60.0,61.0,59.0,57.0,53.0,55.0,56.0,58.0,59.0,63.0,63.0,63.0,63.0,69.0,77.0,75.0,75.0,72.0,70.0,67.0,69.0,66.0,66.0,65.0,65.0,61.0,58.0,61.0,61.0,58.0,56.0,55.0,53.0,59.0,57.0,56.0,57.0,54.0,55.0,62.0,62.0,62.0,61.0,60.0,62.0,68.0,64.0,63.0,68.0,67.0,67.0,64.0,61.0,61.0,63.0,62.0,64.0,64.0,64.0,60.0,63.0,62.0,58.0,57.0,55.0,50.0,50.0,61.0,63.0,64.0,65.0,62.0,56.0,54.0,55.0,54.0,61.0,59.0,61.0,60.0,60.0,56.0,56.0,52.0,53.0,56.0,53.0,54.0,59.0,60.0,56.0,56.0,55.0,54.0,52.0,53.0,53.0,53.0,55.0,60.0,61.0,58.0,58.0,56.0,55.0,59.0,67.0,66.0,65.0,61.0,61.0,58.0,56.0,56.0,52.0,52.0,51.0,56.0,56.0,53.0,52.0,52.0,52.0,51.0,48.0,60.0,55.0,52.0,55.0,55.0,56.0,56.0,56.0,55.0,54.0,54.0,53.0,53.0,50.0,52.0,51.0,50.0,46.0,52.0,56.0,54.0,55.0,51.0,51.0,49.0,49.0,49.0,49.0,47.0,50.0,49.0,48.0,47.0,48.0,47.0,47.0,45.0,46.0,48.0,47.0,51.0,50.0,49.0,49.0,49.0,52.0,52.0,55.0,50.0,51.0,49.0,50.0,48.0,50.0,51.0,49.0,48.0,47.0,49.0,48.0,47.0,50.0,48.0,48.0,49.0,48.0,46.0,45.0,43.0,42.0,45.0,47.0,51.0,50.0,53.0,50.0,53.0,52.0,52.0,52.0,53.0,56.0,54.0,53.0,50.0,49.0,52.0,54.0,53.0,54.0,51.0,51.0,49.0,55.0,54.0,52.0,55.0,55.0,53.0,49.0,51.0,50.0,54.0,53.0,52.0,49.0,51.0,49.0,46.0,47.0,45.0,48.0,52.0,58.0,61.0,56.0,58.0,58.0,56.0,58.0,60.0,57.0,55.0,59.0,56.0,55.0,54.0,52.0,51.0,51.0,51.0,51.0,61.0,60.0,55.0,54.0,55.0,57.0,55.0,54.0,53.0,50.0,49.0,53.0,58.0,58.0,56.0,53.0,52.0,50.0,50.0,54.0,58.0,59.0,57.0,52.0,51.0,52.0,57.0,60.0,64.0,62.0,59.0,60.0,60.0,58.0,58.0,58.0,57.0,56.0,59.0,55.0,59.0,62.0,59.0,57.0,53.0,53.0,56.0,60.0,58.0,55.0,56.0,55.0,57.0,54.0,58.0,58.0,58.0,56.0,56.0,54.0,54.0,69.0,70.0,67.0,66.0,63.0,62.0,58.0,61.0,60.0,59.0,59.0,56.0,54.0,50.0,51.0,52.0,51.0,48.0,49.0,51.0,50.0,50.0,49.0,47.0,46.0,45.0,48.0,48.0,53.0,53.0,55.0,56.0,55.0,56.0,55.0,58.0,54.0,54.0,57.0,57.0,61.0,64.0,64.0,61.0,62.0,60.0,56.0,56.0,56.0,55.0,53.0,51.0,49.0,47.0,48.0,50.0,50.0,55.0,55.0,53.0,53.0,54.0,56.0,55.0,55.0,56.0,53.0,59.0,61.0,62.0,58.0,59.0,65.0,62.0,62.0,61.0,56.0,65.0,61.0,58.0,56.0,56.0,53.0,51.0,55.0,57.0,55.0,52.0,49.0,56.0,52.0,54.0,51.0,51.0,49.0,49.0
