60.0,61.0,62.0,62.0,63.0,66.0,64.0,66.0,64.0,62.0,61.0,60.0,60.0,58.0,58.0,57.0,55.0,56.0,56.0,57.0,57.0,57.0,58.0,58.0,57.0,59.0,62.0,61.0,62.0,61.0,59.0,58.0,58.0,57.0,56.0,56.0,56.0,55.0,55.0,54.0,55.0,54.0,53.0,55.0,54.0,55.0,55.0,55.0,55.0,56.0,57.0,57.0,59.0,60.0,60.0,58.0,60.0,60.0,59.0,61.0,60.0,62.0,61.0,60.0,60.0,61.0,63.0,62.0,64.0,63.0,65.0,63.0,62.0,62.0,59.0,60.0,58.0,57.0,57.0,54.0,53.0,52.0,51.0,49.0,48.0,47.0,47.0,46.0,45.0,45.0,44.0,44.0,43.0,43.0,43.0,43.0,44.0,42.0,43.0,42.0,43.0,44.0,43.0,44.0,44.0,43.0,44.0,43.0,45.0,45.0,47.0,46.0,47.0,47.0,47.0,46.0,46.0,46.0,48.0,48.0,47.0,47.0,45.0,45.0,48.0,46.0,48.0,49.0,49.0,49.0,49.0,52.0,50.0,50.0,49.0,49.0,49.0,47.0,49.0,48.0,49.0,50.0,50.0,49.0,51.0,50.0,48.0,51.0,51.0,52.0,52.0,52.0,51.0,52.0,54.0,51.0,53.0,54.0,53.0,54.0,54.0,55.0,52.0,53.0,56.0,55.0,57.0,56.0,58.0,59.0,62.0,64.0,65.0,68.0,66.0,68.0,69.0,68.0,70.0,71.0,71.0,69.0,66.0,68.0,70.0,81.0,80.0,93.0,91.0,150.0,190.0,185.0,235.0,249.0,240.0,282.0,291.0,282.0,263.0,238.0,234.0,241.0,226.0,230.0,223.0,229.0,206.0,192.0,173.0,162.0,148.0,142.0,130.0,119.0,117.0,109.0,100.0,95.0,90.0,87.0,87.0,84.0,81.0,76.0,76.0,72.0,72.0,68.0,67.0,65.0,64.0,62.0,63.0,62.0,62.0,60.0,60.0,56.0,55.0,56.0,56.0,54.0,52.0,52.0,50.0,49.0,48.0,47.0,51.0,52.0,54.0,53.0,53.0,53.0,53.0,52.0,51.0,53.0,52.0,53.0,54.0,53.0,53.0,54.0,53.0,53.0,53.0,53.0,53.0,53.0,53.0,54.0,52.0,53.0,53.0,52.0,53.0,52.0,52.0,52.0,51.0,52.0,53.0,52.0,52.0,51.0,49.0,50.0,51.0,54.0,53.0,52.0,52.0,50.0,53.0,53.0,55.0,54.0,53.0,52.0,50.0,52.0,53.0,51.0,51.0,50.0,51.0,49.0,49.0,49.0,50.0,51.0,52.0,55.0,52.0,56.0,57.0,57.0,59.0,59.0,62.0,58.0,60.0,61.0,61.0,61.0,60.0,59.0,57.0,56.0,56.0,55.0,55.0,56.0,57.0,56.0,56.0,58.0,59.0,59.0,59.0,58.0,68.0,64.0,62.0,62.0,64.0,67.0,74.0,74.0,73.0,80.0,95.0,103.0,111.0,130.0,127.0,130.0,129.0,133.0,141.0,145.0,147.0,146.0,164.0,167.0,166.0,157.0,165.0,167.0,172.0,166.0,173.0,168.0,164.0,164.0,160.0,154.0,149.0,147.0,144.0,144.0,138.0,138.0,137.0,136.0,137.0,138.0,137.0,134.0,134.0,134.0,132.0,132.0,132.0,132.0,131.0,129.0,129.0,133.0,128.0,130.0,130.0,129.0,129.0,129.0,126.0,125.0,125.0,123.0,120.0,119.0,116.0,114.0,113.0,112.0,111.0,109.0,108.0,107.0,109.0,107.0,106.0,108.0,107.0,107.0,106.0,105.0,104.0,104.0,104.0,100.0,102.0,101.0,102.0,102.0,100.0,100.0,101.0,101.0,102.0,99.0,102.0,98.0,102.0,109.0,113.0,111.0,112.0,111.0,110.0,108.0,107.0,106.0,102.0,103.0,102.0,106.0,106.0,104.0,104.0,103.0,101.0,100.0,99.0,97.0,96.0,97.0,94.0,95.0,95.0,100.0,98.0,101.0,105.0,102.0,101.0,98.0,95.0,92.0,89.0,87.0,82.0,80.0,80.0,77.0,77.0,75.0,72.0,70.0,68.0,67.0,66.0,64.0,64.0,67.0,66.0,66.0,66.0,67.0,68.0,67.0,68.0,66.0,66.0,66.0,65.0,64.0,67.0,70.0,69.0,70.0,70.0,70.0,71.0,72.0,73.0,72.0,74.0,73.0,73.0,75.0,75.0,76.0,76.0,78.0,77.0,76.0,78.0,78.0,77.0,76.0,76.0,75.0,74.0,75.0,76.0,76.0,76.0,76.0,75.0,74.0,73.0,73.0,74.0,71.0,70.0,69.0,68.0,67.0,66.0,67.0,64.0,62.0,64.0,63.0,64.0,61.0,63.0,62.0,62.0,62.0,61.0,61.0,61.0,61.0,60.0,57.0,58.0,59.0,59.0,59.0,59.0,58.0,58.0,57.0,58.0,58.0,57.0,58.0,58.0,60.0,60.0,60.0,61.0,63.0,62.0,63.0,62.0,62.0,62.0,63.0,64.0,64.0,64.0,63.0,65.0,64.0,64.0,62.0,63.0,62.0,63.0,60.0,59.0,58.0,59.0,61.0,60.0,60.0,59.0,59.0,61.0,60.0,62.0,62.0,63.0,64.0,65.0,65.0,65.0,65.0,65.0,65.0,64.0,64.0,64.0,63.0,63.0,62.0,63.0,62.0,62.0,61.0,60.0,60.0,58.0,58.0,58.0,59.0,59.0,59.0,60.0,58.0,60.0,60.0,60.0,61.0,61.0,61.0,62.0,62.0,63.0,64.0,63.0,63.0,64.0,63.0,64.0,62.0,62.0,62.0,61.0,63.0,62.0,63.0,63.0,63.0,63.0,61.0,62.0,62.0,61.0,61.0,62.0,61.0,61.0,62.0,61.0,61.0,62.0,60.0,61.0,62.0,60.0,60.0,59.0,58.0,57.0,56.0,55.0,56.0,54.0,54.0,56.0,55.0,57.0,57.0,56.0,56.0,55.0,54.0,53.0,55.0,54.0,55.0,53.0,55.0,54.0,53.0,55.0,55.0,55.0,54.0,53.0,54.0,53.0,52.0,51.0,51.0,50.0,51.0,48.0,47.0,47.0,47.0,47.0,48.0,49.0,50.0,51.0,52.0,52.0,54.0,54.0,54.0,52.0,51.0,50.0,49.0,49.0,47.0,48.0,46.0,46.0,46.0,47.0,48.0,47.0,48.0,48.0,49.0,52.0,52.0,52.0,50.0,52.0,52.0,52.0,52.0,52.0,52.0,51.0,52.0,52.0,52.0,52.0,53.0,52.0,52.0,51.0,52.0,51.0,52.0,52.0,53.0,51.0,51.0,50.0,50.0,50.0,49.0,49.0,48.0,47.0,47.0,48.0,49.0,49.0,48.0,46.0,47.0,47.0,47.0,45.0,47.0,48.0,48.0,51.0,51.0,52.0,53.0,53.0,55.0,54.0,56.0,57.0,57.0,57.0,56.0,56.0,54.0,55.0,56.0,55.0,55.0,54.0,55.0,54.0,57.0,57.0,59.0,59.0,59.0,61.0,60.0,60.0,63.0,61.0,61.0,63.0,65.0,64.0,64.0,65.0,65.0,67.0,67.0,68.0,67.0,67.0,69.0,70.0,71.0,72.0,73.0,71.0,70.0,70.0,70.0,70.0,71.0,72.0,70.0,71.0,70.0,71.0,69.0,69.0,68.0,66.0,65.0,64.0,62.0,61.0,61.0,61.0,58.0,60.0,60.0,61.0,62.0,60.0,61.0,60.0,61.0,62.0,61.0,61.0,62.0,62.0,62.0,63.0,64.0,62.0,63.0,63.0,64.0,62.0,62.0,59.0,60.0,60.0,61.0,63.0,62.0,62.0,62.0,61.0,62.0,62.0,63.0,63.0,63.0,62.0,61.0,62.0,62.0,63.0,64.0,64.0,64.0,64.0,66.0,67.0,68.0,69.0,70.0,70.0,72.0,73.0,72.0,71.0,71.0,72.0,70.0,71.0,71.0,70.0,72.0,71.0,70.0,71.0,70.0,70.0,70.0,71.0,70.0,72.0,72.0,71.0,72.0,71.0,73.0,74.0,74.0,74.0,75.0,74.0,76.0,77.0,74.0,74.0,71.0,71.0,71.0,70.0,70.0,68.0,69.0,69.0,69.0,71.0,72.0,73.0,72.0,72.0,71.0,71.0,71.0,71.0,69.0,69.0,67.0,66.0,65.0,64.0,63.0,63.0,62.0,60.0,60.0,59.0,58.0,57.0,57.0,55.0,55.0,55.0,54.0,55.0,54.0,53.0,55.0,56.0,58.0,59.0,61.0,63.0,64.0
49.0,51.0,50.0,51.0,50.0,52.0,50.0,50.0,52.0,50.0,51.0,51.0,51.0,52.0,53.0,54.0,54.0,56.0,56.0,56.0,56.0,54.0,56.0,55.0,52.0,55.0,55.0,54.0,53.0,54.0,52.0,52.0,52.0,53.0,54.0,54.0,53.0,53.0,54.0,53.0,53.0,54.0,63.0,72.0,71.0,70.0,69.0,67.0,67.0,65.0,62.0,60.0,60.0,57.0,55.0,54.0,53.0,52.0,50.0,51.0,49.0,48.0,49.0,49.0,51.0,51.0,52.0,52.0,51.0,50.0,51.0,50.0,48.0,48.0,46.0,45.0,44.0,43.0,44.0,42.0,41.0,40.0,40.0,41.0,39.0,39.0,38.0,38.0,37.0,35.0,36.0,36.0,36.0,34.0,36.0,36.0,37.0,36.0,36.0,37.0,36.0,35.0,36.0,37.0,37.0,36.0,37.0,36.0,35.0,36.0,35.0,35.0,36.0,37.0,38.0,38.0,38.0,37.0,37.0,37.0,39.0,39.0,41.0,42.0,42.0,43.0,44.0,45.0,47.0,48.0,49.0,49.0,50.0,51.0,51.0,50.0,49.0,49.0,48.0,49.0,49.0,53.0,53.0,56.0,58.0,58.0,60.0,59.0,60.0,59.0,59.0,59.0,59.0,59.0,57.0,57.0,56.0,55.0,56.0,56.0,55.0,55.0,58.0,54.0,53.0,52.0,51.0,51.0,51.0,49.0,48.0,47.0,47.0,46.0,47.0,47.0,47.0,48.0,46.0,46.0,47.0,54.0,75.0,90.0,108.0,117.0,116.0,135.0,153.0,229.0,234.0,244.0,315.0,348.0,318.0,311.0,288.0,295.0,306.0,321.0,361.0,426.0,440.0,420.0,394.0,396.0,376.0,360.0,347.0,334.0,318.0,313.0,285.0,269.0,249.0,232.0,211.0,208.0,200.0,184.0,170.0,162.0,150.0,145.0,140.0,134.0,132.0,124.0,116.0,112.0,116.0,112.0,111.0,108.0,110.0,109.0,104.0,102.0,109.0,110.0,104.0,103.0,106.0,112.0,106.0,105.0,102.0,98.0,98.0,101.0,96.0,113.0,111.0,107.0,110.0,103.0,109.0,111.0,105.0,104.0,112.0,114.0,112.0,107.0,104.0,108.0,107.0,103.0,106.0,105.0,100.0,97.0,101.0,100.0,106.0,101.0,97.0,100.0,103.0,98.0,95.0,101.0,94.0,93.0,93.0,105.0,101.0,101.0,100.0,96.0,91.0,95.0,101.0,100.0,91.0,89.0,84.0,82.0,80.0,85.0,81.0,77.0,76.0,75.0,85.0,82.0,82.0,79.0,78.0,77.0,76.0,75.0,78.0,81.0,84.0,79.0,77.0,74.0,72.0,71.0,75.0,79.0,80.0,81.0,79.0,87.0,86.0,83.0,84.0,80.0,79.0,77.0,79.0,74.0,77.0,77.0,74.0,74.0,75.0,76.0,74.0,75.0,76.0,72.0,71.0,70.0,72.0,72.0,82.0,88.0,84.0,83.0,82.0,84.0,87.0,85.0,91.0,89.0,98.0,110.0,132.0,149.0,169.0,192.0,215.0,232.0,242.0,245.0,251.0,256.0,262.0,259.0,259.0,256.0,249.0,249.0,243.0,237.0,229.0,226.0,220.0,216.0,208.0,205.0,199.0,194.0,192.0,188.0,184.0,179.0,175.0,175.0,171.0,169.0,168.0,168.0,167.0,166.0,166.0,167.0,166.0,164.0,159.0,157.0,156.0,155.0,153.0,151.0,148.0,146.0,143.0,140.0,136.0,131.0,131.0,129.0,126.0,122.0,119.0,119.0,118.0,115.0,114.0,116.0,113.0,111.0,111.0,109.0,109.0,106.0,106.0,104.0,105.0,105.0,105.0,106.0,103.0,101.0,101.0,98.0,98.0,95.0,93.0,93.0,92.0,92.0,91.0,91.0,91.0,91.0,90.0,88.0,86.0,85.0,82.0,81.0,79.0,78.0,76.0,75.0,72.0,71.0,69.0,67.0,67.0,65.0,63.0,63.0,62.0,61.0,59.0,55.0,55.0,54.0,55.0,54.0,55.0,53.0,54.0,54.0,53.0,53.0,51.0,51.0,52.0,51.0,53.0,51.0,48.0,48.0,47.0,49.0,47.0,47.0,47.0,47.0,46.0,45.0,47.0,46.0,47.0,45.0,45.0,44.0,44.0,46.0,44.0,46.0,48.0,50.0,49.0,47.0,46.0,47.0,48.0,47.0,46.0,47.0,46.0,46.0,44.0,44.0,44.0,43.0,42.0,41.0,43.0,42.0,42.0,42.0,41.0,41.0,40.0,39.0,38.0,40.0,39.0,38.0,38.0,39.0,39.0,37.0,38.0,40.0,42.0,43.0,44.0,42.0,43.0,43.0,44.0,43.0,43.0,43.0,47.0,47.0,48.0,46.0,46.0,46.0,45.0,47.0,45.0,44.0,44.0,43.0,43.0,43.0,44.0,42.0,42.0,41.0,40.0,40.0,40.0,41.0,40.0,40.0,40.0,40.0,44.0,43.0,43.0,41.0,40.0,40.0,41.0,41.0,41.0,41.0,40.0,40.0,39.0,38.0,39.0,40.0,39.0,39.0,40.0,41.0,41.0,41.0,40.0,42.0,40.0,39.0,40.0,40.0,40.0,39.0,40.0,40.0,39.0,41.0,41.0,41.0,40.0,40.0,38.0,38.0,39.0,38.0,38.0,37.0,37.0,36.0,36.0,36.0,35.0,37.0,37.0,39.0,38.0,38.0,38.0,37.0,37.0,36.0,37.0,36.0,35.0,36.0,35.0,37.0,37.0,39.0,40.0,40.0,42.0,41.0,41.0,41.0,42.0,39.0,38.0,37.0,37.0,37.0,37.0,37.0,36.0,36.0,36.0,35.0,35.0,35.0,36.0,34.0,34.0,34.0,34.0,34.0,33.0,36.0,37.0,36.0,37.0,36.0,36.0,36.0,37.0,36.0,36.0,37.0,36.0,37.0,36.0,38.0,36.0,37.0,36.0,37.0,36.0,36.0,38.0,36.0,36.0,35.0,34.0,36.0,35.0,35.0,34.0,35.0,35.0,35.0,35.0,35.0,35.0,37.0,36.0,37.0,38.0,38.0,38.0,39.0,38.0,39.0,39.0,38.0,38.0,37.0,37.0,36.0,37.0,38.0,36.0,37.0,38.0,39.0,36.0,36.0,37.0,35.0,37.0,37.0,35.0,34.0,35.0,34.0,34.0,34.0,34.0,37.0,36.0,36.0,36.0,37.0,36.0,36.0,38.0,36.0,38.0,37.0,37.0,36.0,37.0,39.0,38.0,39.0,39.0,38.0,38.0,39.0,40.0,40.0,39.0,39.0,38.0,38.0,39.0,39.0,38.0,39.0,38.0,38.0,38.0,37.0,38.0,36.0,38.0,38.0,38.0,39.0,38.0,41.0,41.0,42.0,45.0,47.0,47.0,47.0,50.0,49.0,48.0,46.0,46.0,45.0,45.0,44.0,42.0,42.0,41.0,41.0,42.0,44.0,43.0,42.0,43.0,42.0,42.0,42.0,43.0,43.0,44.0,46.0,47.0,48.0,48.0,49.0,50.0,49.0,48.0,48.0,47.0,46.0,44.0,45.0,44.0,43.0,45.0,45.0,44.0,42.0,43.0,40.0,40.0,39.0,38.0,37.0,37.0,39.0,36.0,37.0,37.0,35.0,36.0,36.0,37.0,36.0,37.0,37.0,37.0,36.0,38.0,38.0,38.0,38.0,39.0,39.0,39.0,37.0,38.0,36.0,37.0,37.0,37.0,36.0,37.0,39.0,37.0,38.0,36.0,35.0,36.0,35.0,40.0,38.0,40.0,40.0,40.0,42.0,41.0,43.0,42.0,43.0,43.0,45.0,44.0,45.0,44.0,44.0,43.0,42.0,41.0,40.0,39.0,39.0,38.0,39.0,38.0,37.0,39.0,38.0,39.0,36.0,37.0,37.0,35.0,36.0,36.0,37.0,36.0,36.0,36.0,35.0,36.0,36.0,35.0,37.0,38.0,38.0,36.0,36.0,35.0,36.0,35.0,35.0,35.0,35.0,35.0,34.0,36.0,35.0,34.0,35.0,34.0,35.0,35.0,35.0,33.0,34.0,34.0,35.0,35.0,35.0,37.0,36.0,34.0,36.0,35.0,36.0,35.0,37.0,36.0,36.0,36.0,37.0,38.0,38.0,40.0,39.0,40.0,41.0,41.0,42.0,41.0,42.0,41.0,43.0,43.0,45.0,44.0,43.0,44.0,46.0,46.0,47.0,47.0,47.0,48.0,50.0,50.0,52.0,53.0,54.0,54.0,53.0,53.0,50.0,50.0,48.0,48.0,46.0,45.0,45.0,44.0,42.0,41.0,40.0
14.0,15.0,15.0,15.0,14.0,12.0,10.0,10.0,9.0,9.0,10.0,10.0,9.0,18.0,16.0,14.0,15.0,13.0,12.0,11.0,10.0,10.0,11.0,11.0,10.0,11.0,10.0,10.0,12.0,11.0,10.0,9.0,8.0,12.0,10.0,10.0,10.0,10.0,9.0,9.0,8.0,7.0,7.0,7.0,6.0,18.0,17.0,15.0,14.0,16.0,14.0,13.0,13.0,12.0,10.0,10.0,12.0,12.0,15.0,13.0,12.0,11.0,9.0,10.0,10.0,9.0,12.0,11.0,13.0,11.0,13.0,11.0,11.0,11.0,11.0,13.0,12.0,11.0,9.0,9.0,8.0,8.0,11.0,11.0,9.0,9.0,9.0,10.0,9.0,9.0,6.0,7.0,7.0,8.0,8.0,8.0,13.0,11.0,15.0,14.0,13.0,16.0,15.0,17.0,14.0,13.0,11.0,11.0,9.0,15.0,16.0,14.0,14.0,14.0,13.0,12.0,12.0,11.0,10.0,10.0,10.0,9.0,15.0,17.0,16.0,14.0,15.0,15.0,13.0,12.0,12.0,11.0,16.0,20.0,17.0,15.0,17.0,15.0,14.0,12.0,12.0,11.0,12.0,11.0,11.0,9.0,10.0,9.0,9.0,9.0,7.0,8.0,9.0,12.0,12.0,11.0,11.0,9.0,9.0,8.0,6.0,7.0,7.0,7.0,9.0,10.0,11.0,14.0,13.0,11.0,12.0,11.0,11.0,10.0,8.0,8.0,12.0,11.0,10.0,9.0,9.0,7.0,9.0,11.0,14.0,14.0,15.0,25.0,30.0,77.0,83.0,75.0,85.0,84.0,81.0,82.0,74.0,97.0,101.0,105.0,102.0,112.0,108.0,99.0,88.0,81.0,72.0,73.0,66.0,57.0,53.0,48.0,42.0,41.0,37.0,33.0,29.0,27.0,23.0,22.0,23.0,21.0,18.0,16.0,14.0,13.0,12.0,11.0,9.0,9.0,7.0,8.0,7.0,6.0,6.0,6.0,6.0,6.0,6.0,6.0,6.0,5.0,5.0,5.0,6.0,5.0,3.0,5.0,4.0,5.0,4.0,4.0,6.0,5.0,6.0,7.0,8.0,7.0,6.0,6.0,6.0,6.0,7.0,7.0,6.0,6.0,7.0,6.0,6.0,5.0,6.0,6.0,6.0,5.0,5.0,5.0,5.0,6.0,5.0,5.0,4.0,5.0,5.0,5.0,4.0,4.0,6.0,6.0,8.0,9.0,11.0,11.0,11.0,9.0,9.0,8.0,8.0,7.0,7.0,7.0,5.0,6.0,6.0,7.0,5.0,7.0,6.0,6.0,5.0,5.0,5.0,5.0,5.0,5.0,4.0,5.0,3.0,5.0,4.0,5.0,5.0,6.0,6.0,5.0,5.0,5.0,5.0,4.0,4.0,5.0,6.0,6.0,5.0,6.0,5.0,6.0,6.0,6.0,5.0,4.0,5.0,5.0,4.0,6.0,7.0,21.0,26.0,35.0,55.0,54.0,69.0,81.0,80.0,101.0,111.0,157.0,161.0,152.0,146.0,187.0,194.0,197.0,200.0,227.0,251.0,230.0,215.0,209.0,202.0,215.0,195.0,179.0,193.0,192.0,200.0,199.0,173.0,155.0,141.0,128.0,118.0,106.0,106.0,97.0,91.0,84.0,81.0,71.0,70.0,61.0,67.0,76.0,74.0,70.0,62.0,65.0,59.0,52.0,61.0,55.0,48.0,43.0,59.0,58.0,70.0,64.0,58.0,50.0,46.0,42.0,44.0,40.0,35.0,41.0,40.0,36.0,32.0,36.0,40.0,36.0,34.0,45.0,47.0,43.0,37.0,34.0,33.0,29.0,26.0,27.0,25.0,42.0,47.0,41.0,36.0,32.0,29.0,27.0,24.0,21.0,22.0,32.0,30.0,36.0,33.0,31.0,27.0,31.0,28.0,25.0,24.0,21.0,19.0,20.0,30.0,32.0,30.0,26.0,24.0,21.0,20.0,20.0,19.0,19.0,20.0,22.0,25.0,28.0,26.0,23.0,20.0,21.0,19.0,19.0,35.0,32.0,31.0,32.0,27.0,24.0,21.0,19.0,18.0,22.0,21.0,31.0,27.0,25.0,23.0,24.0,24.0,22.0,25.0,36.0,31.0,29.0,25.0,26.0,22.0,21.0,18.0,17.0,14.0,14.0,12.0,10.0,12.0,14.0,17.0,17.0,15.0,13.0,12.0,12.0,11.0,10.0,9.0,23.0,22.0,21.0,26.0,27.0,24.0,22.0,21.0,19.0,18.0,22.0,21.0,19.0,23.0,25.0,22.0,20.0,21.0,26.0,27.0,24.0,22.0,19.0,17.0,15.0,17.0,20.0,18.0,28.0,25.0,23.0,22.0,19.0,18.0,16.0,14.0,22.0,21.0,18.0,16.0,15.0,15.0,13.0,13.0,12.0,12.0,11.0,11.0,10.0,8.0,25.0,24.0,21.0,19.0,21.0,20.0,16.0,15.0,17.0,15.0,14.0,13.0,13.0,38.0,33.0,31.0,28.0,24.0,21.0,20.0,17.0,18.0,23.0,22.0,33.0,30.0,26.0,23.0,23.0,22.0,19.0,18.0,17.0,17.0,16.0,16.0,15.0,13.0,12.0,13.0,14.0,12.0,12.0,10.0,9.0,8.0,9.0,15.0,14.0,13.0,11.0,11.0,10.0,9.0,8.0,7.0,7.0,8.0,12.0,13.0,13.0,14.0,12.0,11.0,15.0,13.0,13.0,11.0,10.0,8.0,10.0,9.0,10.0,8.0,9.0,9.0,10.0,10.0,9.0,9.0,8.0,7.0,8.0,7.0,10.0,9.0,9.0,8.0,8.0,12.0,11.0,12.0,10.0,11.0,11.0,10.0,10.0,8.0,9.0,9.0,8.0,7.0,8.0,11.0,8.0,16.0,15.0,14.0,13.0,11.0,12.0,12.0,13.0,11.0,11.0,10.0,9.0,8.0,7.0,7.0,9.0,11.0,13.0,11.0,10.0,9.0,20.0,19.0,17.0,15.0,15.0,12.0,16.0,14.0,12.0,13.0,15.0,14.0,14.0,17.0,20.0,17.0,20.0,19.0,18.0,17.0,14.0,13.0,15.0,17.0,18.0,18.0,17.0,15.0,15.0,13.0,13.0,13.0,13.0,14.0,16.0,16.0,13.0,12.0,12.0,13.0,15.0,13.0,13.0,14.0,15.0,13.0,13.0,11.0,10.0,11.0,10.0,10.0,9.0,9.0,8.0,7.0,7.0,9.0,14.0,16.0,15.0,14.0,10.0,15.0,14.0,16.0,17.0,15.0,14.0,13.0,16.0,14.0,14.0,13.0,12.0,11.0,10.0,10.0,10.0,12.0,10.0,9.0,10.0,9.0,10.0,10.0,11.0,11.0,9.0,10.0,10.0,9.0,10.0,9.0,9.0,8.0,12.0,10.0,15.0,14.0,13.0,12.0,11.0,12.0,13.0,13.0,12.0,11.0,11.0,10.0,13.0,14.0,11.0,11.0,11.0,9.0,9.0,9.0,12.0,16.0,15.0,14.0,12.0,12.0,12.0,16.0,16.0,14.0,13.0,11.0,11.0,10.0,8.0,16.0,18.0,16.0,15.0,13.0,12.0,10.0,13.0,11.0,11.0,10.0,9.0,10.0,9.0,11.0,11.0,10.0,10.0,9.0,9.0,6.0,7.0,7.0,10.0,9.0,10.0,8.0,8.0,8.0,10.0,10.0,9.0,11.0,10.0,9.0,8.0,9.0,9.0,8.0,8.0,12.0,10.0,13.0,11.0,9.0,9.0,9.0,9.0,13.0,14.0,11.0,13.0,11.0,11.0,10.0,8.0,10.0,11.0,10.0,10.0,9.0,9.0,7.0,8.0,7.0,7.0,13.0,12.0,11.0,10.0,9.0,9.0,10.0,9.0,9.0,9.0,9.0,9.0,10.0,12.0,12.0,11.0,10.0,8.0,9.0,10.0,14.0,12.0,12.0,11.0,13.0,12.0,16.0,14.0,13.0,13.0,11.0,9.0,10.0,11.0,9.0,9.0,9.0,10.0,12.0,12.0,11.0,14.0,13.0,14.0,12.0,14.0,15.0,13.0,13.0,12.0,11.0,11.0,8.0,10.0,9.0,9.0,9.0,9.0,9.0,7.0,8.0,8.0,8.0,6.0,7.0,7.0,5.0,7.0,7.0,8.0,9.0,10.0,10.0,10.0,10.0,10.0,10.0,9.0,10.0,9.0,8.0,7.0,6.0,10.0,9.0,8.0,9.0,9.0,9.0,8.0,8.0,9.0,13.0,13.0,12.0,12.0,11.0,10.0,9.0,9.0,11.0,10.0,9.0,9.0,9.0,7.0,8.0,8.0
99.0,107.0,107.0,104.0,104.0,104.0,104.0,98.0,96.0,92.0,88.0,88.0,87.0,111.0,105.0,122.0,118.0,121.0,114.0,111.0,106.0,108.0,110.0,107.0,107.0,103.0,108.0,104.0,93.0,87.0,82.0,86.0,100.0,96.0,91.0,85.0,79.0,74.0,71.0,68.0,66.0,62.0,69.0,66.0,70.0,69.0,74.0,82.0,98.0,97.0,113.0,113.0,123.0,130.0,151.0,147.0,143.0,135.0,131.0,125.0,127.0,130.0,121.0,111.0,104.0,105.0,116.0,110.0,110.0,103.0,113.0,116.0,108.0,99.0,92.0,97.0,96.0,101.0,97.0,94.0,89.0,85.0,102.0,101.0,95.0,90.0,86.0,82.0,79.0,74.0,72.0,68.0,66.0,71.0,74.0,78.0,83.0,82.0,81.0,82.0,84.0,84.0,80.0,77.0,79.0,77.0,81.0,79.0,93.0,93.0,86.0,79.0,76.0,80.0,74.0,68.0,75.0,76.0,77.0,73.0,77.0,78.0,77.0,78.0,80.0,82.0,97.0,97.0,92.0,90.0,85.0,83.0,82.0,79.0,81.0,77.0,75.0,79.0,86.0,95.0,97.0,100.0,95.0,91.0,89.0,85.0,91.0,93.0,88.0,83.0,80.0,91.0,94.0,95.0,89.0,86.0,82.0,81.0,86.0,88.0,90.0,83.0,77.0,73.0,71.0,71.0,69.0,70.0,73.0,72.0,72.0,79.0,86.0,89.0,83.0,77.0,76.0,77.0,77.0,73.0,77.0,86.0,81.0,90.0,94.0,94.0,86.0,109.0,109.0,180.0,220.0,226.0,234.0,261.0,264.0,299.0,352.0,397.0,413.0,416.0,435.0,427.0,463.0,472.0,449.0,418.0,396.0,408.0,437.0,409.0,383.0,350.0,332.0,323.0,333.0,304.0,295.0,279.0,287.0,290.0,327.0,333.0,311.0,289.0,276.0,269.0,257.0,251.0,250.0,231.0,229.0,235.0,272.0,258.0,248.0,237.0,274.0,273.0,252.0,243.0,260.0,269.0,270.0,253.0,249.0,246.0,226.0,226.0,214.0,200.0,201.0,199.0,217.0,218.0,218.0,227.0,226.0,225.0,210.0,208.0,195.0,196.0,198.0,212.0,221.0,200.0,220.0,216.0,208.0,197.0,203.0,193.0,186.0,175.0,175.0,170.0,172.0,180.0,164.0,150.0,149.0,155.0,162.0,169.0,176.0,178.0,206.0,209.0,241.0,258.0,255.0,280.0,262.0,261.0,258.0,239.0,247.0,231.0,226.0,228.0,229.0,246.0,237.0,252.0,261.0,240.0,238.0,221.0,218.0,229.0,231.0,235.0,219.0,245.0,240.0,221.0,205.0,198.0,218.0,213.0,220.0,218.0,216.0,225.0,222.0,207.0,205.0,206.0,193.0,240.0,262.0,244.0,234.0,251.0,251.0,250.0,224.0,206.0,198.0,189.0,182.0,169.0,180.0,176.0,162.0,148.0,139.0,132.0,129.0,130.0,139.0,162.0,218.0,239.0,274.0,283.0,278.0,280.0,327.0,341.0,342.0,319.0,313.0,321.0,333.0,323.0,317.0,318.0,328.0,316.0,281.0,315.0,301.0,282.0,281.0,264.0,270.0,259.0,249.0,250.0,236.0,217.0,203.0,200.0,195.0,185.0,173.0,161.0,153.0,170.0,171.0,161.0,160.0,162.0,166.0,163.0,153.0,140.0,154.0,140.0,138.0,132.0,130.0,127.0,124.0,123.0,126.0,124.0,117.0,113.0,115.0,109.0,106.0,112.0,108.0,100.0,95.0,102.0,99.0,97.0,96.0,101.0,92.0,93.0,88.0,83.0,79.0,73.0,77.0,86.0,89.0,95.0,114.0,124.0,116.0,110.0,107.0,105.0,102.0,98.0,110.0,105.0,99.0,93.0,97.0,98.0,93.0,105.0,101.0,104.0,116.0,116.0,112.0,107.0,116.0,118.0,127.0,116.0,108.0,109.0,105.0,102.0,107.0,101.0,95.0,96.0,105.0,111.0,103.0,96.0,89.0,85.0,79.0,78.0,75.0,71.0,74.0,89.0,96.0,94.0,90.0,86.0,90.0,85.0,101.0,104.0,101.0,100.0,96.0,96.0,92.0,95.0,103.0,113.0,118.0,110.0,110.0,101.0,99.0,104.0,101.0,102.0,116.0,109.0,106.0,115.0,108.0,109.0,105.0,107.0,99.0,96.0,91.0,86.0,92.0,87.0,87.0,85.0,85.0,84.0,87.0,89.0,89.0,91.0,92.0,97.0,98.0,110.0,119.0,114.0,115.0,111.0,109.0,107.0,102.0,99.0,94.0,90.0,87.0,95.0,89.0,93.0,88.0,90.0,90.0,84.0,81.0,87.0,82.0,78.0,77.0,81.0,87.0,101.0,103.0,95.0,87.0,83.0,116.0,112.0,101.0,93.0,90.0,99.0,89.0,91.0,87.0,85.0,87.0,90.0,99.0,94.0,99.0,96.0,100.0,105.0,95.0,87.0,89.0,87.0,89.0,99.0,106.0,104.0,99.0,94.0,102.0,114.0,117.0,109.0,101.0,96.0,102.0,99.0,99.0,93.0,101.0,108.0,104.0,100.0,99.0,103.0,104.0,101.0,91.0,91.0,92.0,88.0,89.0,89.0,86.0,87.0,86.0,82.0,88.0,82.0,75.0,71.0,96.0,95.0,94.0,90.0,91.0,93.0,93.0,87.0,83.0,76.0,71.0,68.0,69.0,89.0,90.0,83.0,75.0,72.0,74.0,71.0,66.0,66.0,68.0,68.0,67.0,70.0,73.0,77.0,78.0,73.0,69.0,78.0,80.0,74.0,79.0,80.0,79.0,78.0,91.0,110.0,104.0,102.0,95.0,87.0,86.0,83.0,80.0,80.0,83.0,76.0,75.0,73.0,89.0,84.0,85.0,81.0,96.0,101.0,106.0,98.0,94.0,88.0,101.0,98.0,102.0,100.0,101.0,102.0,101.0,100.0,104.0,98.0,99.0,95.0,95.0,98.0,98.0,104.0,100.0,93.0,90.0,97.0,101.0,104.0,98.0,101.0,102.0,110.0,113.0,111.0,115.0,109.0,106.0,98.0,94.0,88.0,84.0,99.0,100.0,91.0,90.0,85.0,106.0,102.0,96.0,92.0,95.0,95.0,102.0,119.0,113.0,111.0,104.0,103.0,97.0,105.0,116.0,105.0,97.0,98.0,97.0,93.0,99.0,102.0,101.0,97.0,90.0,85.0,90.0,91.0,92.0,89.0,94.0,101.0,103.0,102.0,104.0,102.0,99.0,97.0,92.0,87.0,83.0,99.0,101.0,94.0,93.0,96.0,95.0,92.0,90.0,86.0,86.0,93.0,100.0,108.0,102.0,100.0,96.0,94.0,92.0,86.0,93.0,90.0,90.0,88.0,89.0,90.0,90.0,91.0,88.0,88.0,90.0,85.0,84.0,80.0,79.0,80.0,80.0,76.0,76.0,76.0,74.0,76.0,86.0,81.0,84.0,89.0,84.0,78.0,73.0,70.0,75.0,78.0,71.0,73.0,68.0,64.0,73.0,91.0,95.0,95.0,97.0,93.0,101.0,100.0,90.0,89.0,93.0,96.0,94.0,89.0,85.0,83.0,84.0,89.0,87.0,96.0,101.0,96.0,91.0,89.0,86.0,82.0,94.0,94.0,104.0,110.0,114.0,107.0,109.0,103.0,98.0,98.0,115.0,112.0,104.0,105.0,96.0,109.0,116.0,109.0,108.0,104.0,113.0,108.0,98.0,90.0,95.0,94.0,110.0,116.0,108.0,101.0,101.0,110.0,109.0,109.0,112.0,103.0,97.0,95.0,95.0,92.0,85.0,85.0,84.0,92.0,85.0,79.0,78.0,77.0,86.0,82.0,80.0,85.0,93.0,98.0,98.0,99.0,94.0,91.0,96.0,99.0,102.0,98.0,97.0,92.0,89.0,94.0,91.0,93.0,92.0,88.0,94.0,102.0,103.0,103.0,99.0,113.0,111.0,108.0,108.0,103.0,100.0,98.0,94.0,91.0,87.0,92.0,111.0,115.0,111.0,113.0,109.0,109.0,114.0,114.0,112.0,105.0,97.0,106.0,104.0,96.0,97.0,94.0,97.0,97.0,91.0,96.0,87.0,85.0,99.0,90.0,83.0,89.0,87.0,88.0,83.0,83.0,87.0,83.0,80.0,80.0,80.0,78.0,79.0,78.0,82.0,108.0,103.0,99.0,93.0,94.0,97.0,117.0,110.0,102.0,101.0,95.0,97.0,95.0,97.0,95.0,86.0,81.0,94.0,91.0,87.0,81.0,81.0,78.0,104.0,100.0,102.0,99.0,95.0,91.0,86.0,88.0,82.0,84.0
