54.0,55.0,58.0,60.0,62.0,61.0,62.0,62.0,62.0,63.0,61.0,60.0,60.0,58.0,59.0,57.0,58.0,57.0,57.0,58.0,57.0,58.0,58.0,60.0,59.0,61.0,61.0,61.0,63.0,65.0,67.0,68.0,67.0,67.0,67.0,68.0,68.0,67.0,66.0,65.0,63.0,63.0,61.0,61.0,60.0,60.0,60.0,61.0,61.0,62.0,60.0,61.0,59.0,59.0,60.0,60.0,60.0,59.0,58.0,58.0,59.0,60.0,59.0,60.0,58.0,60.0,60.0,59.0,58.0,58.0,58.0,56.0,55.0,55.0,55.0,54.0,54.0,55.0,52.0,53.0,52.0,51.0,52.0,52.0,54.0,52.0,52.0,54.0,54.0,54.0,54.0,54.0,55.0,54.0,55.0,54.0,54.0,53.0,54.0,52.0,54.0,53.0,52.0,52.0,52.0,53.0,53.0,54.0,54.0,54.0,55.0,53.0,56.0,54.0,54.0,56.0,57.0,59.0,59.0,59.0,59.0,60.0,60.0,59.0,60.0,59.0,59.0,57.0,55.0,54.0,53.0,53.0,52.0,52.0,51.0,50.0,50.0,51.0,53.0,52.0,54.0,54.0,54.0,54.0,56.0,58.0,58.0,60.0,58.0,58.0,58.0,58.0,60.0,59.0,59.0,59.0,58.0,60.0,59.0,58.0,57.0,58.0,58.0,58.0,58.0,58.0,58.0,58.0,57.0,56.0,56.0,55.0,56.0,56.0,57.0,59.0,58.0,60.0,61.0,62.0,63.0,61.0,63.0,62.0,62.0,62.0,60.0,60.0,57.0,57.0,57.0,55.0,55.0,56.0,55.0,55.0,55.0,54.0,55.0,53.0,52.0,52.0,51.0,50.0,50.0,49.0,50.0,50.0,50.0,49.0,50.0,49.0,49.0,50.0,51.0,53.0,51.0,54.0,54.0,54.0,54.0,56.0,55.0,55.0,57.0,55.0,55.0,54.0,53.0,55.0,53.0,54.0,54.0,53.0,52.0,51.0,51.0,49.0,51.0,50.0,49.0,48.0,48.0,50.0,48.0,51.0,48.0,49.0,50.0,51.0,51.0,51.0,51.0,50.0,51.0,51.0,51.0,51.0,51.0,52.0,52.0,52.0,51.0,51.0,51.0,51.0,51.0,49.0,48.0,47.0,46.0,48.0,48.0,48.0,48.0,50.0,50.0,50.0,50.0,49.0,53.0,54.0,54.0,55.0,56.0,57.0,57.0,56.0,54.0,54.0,56.0,57.0,57.0,56.0,58.0,56.0,55.0,56.0,55.0,55.0,55.0,55.0,54.0,54.0,54.0,55.0,55.0,55.0,55.0,54.0,55.0,56.0,55.0,56.0,58.0,58.0,58.0,59.0,59.0,59.0,58.0,57.0,58.0,58.0,58.0,57.0,58.0,58.0,58.0,57.0,57.0,56.0,54.0,55.0,56.0,55.0,54.0,50.0,50.0,50.0,48.0,49.0,49.0,50.0,49.0,49.0,50.0,50.0,52.0,52.0,53.0,54.0,55.0,56.0,57.0,57.0,57.0,58.0,58.0,60.0,59.0,59.0,58.0,57.0,60.0,57.0,57.0,57.0,58.0,58.0,57.0,61.0,58.0,60.0,59.0,61.0,62.0,63.0,64.0,63.0,63.0,65.0,66.0,66.0,65.0,66.0,64.0,63.0,62.0,61.0,75.0,93.0,116.0,164.0,189.0,203.0,206.0,238.0,248.0,232.0,231.0,214.0,196.0,196.0,222.0,222.0,216.0,203.0,192.0,176.0,160.0,153.0,143.0,136.0,125.0,121.0,120.0,114.0,106.0,103.0,100.0,96.0,90.0,85.0,82.0,82.0,79.0,79.0,75.0,73.0,70.0,71.0,70.0,71.0,70.0,66.0,63.0,65.0,65.0,65.0,64.0,64.0,62.0,61.0,61.0,59.0,57.0,57.0,56.0,54.0,54.0,55.0,54.0,53.0,52.0,52.0,52.0,51.0,51.0,50.0,51.0,50.0,51.0,50.0,52.0,51.0,51.0,51.0,49.0,52.0,52.0,51.0,50.0,49.0,49.0,52.0,51.0,50.0,50.0,49.0,49.0,50.0,49.0,50.0,50.0,50.0,49.0,49.0,49.0,47.0,48.0,48.0,47.0,48.0,46.0,47.0,45.0,48.0,48.0,48.0,46.0,47.0,47.0,47.0,46.0,46.0,48.0,47.0,46.0,48.0,47.0,48.0,46.0,47.0,47.0,47.0,48.0,47.0,50.0,50.0,49.0,49.0,50.0,50.0,48.0,50.0,49.0,50.0,51.0,51.0,51.0,49.0,50.0,48.0,49.0,47.0,47.0,49.0,49.0,49.0,48.0,47.0,49.0,49.0,55.0,63.0,68.0,71.0,79.0,81.0,93.0,96.0,97.0,100.0,106.0,107.0,113.0,117.0,119.0,121.0,127.0,126.0,131.0,132.0,135.0,135.0,137.0,141.0,139.0,142.0,140.0,140.0,139.0,137.0,135.0,132.0,132.0,128.0,123.0,122.0,120.0,120.0,117.0,117.0,114.0,112.0,111.0,111.0,110.0,108.0,108.0,105.0,104.0,106.0,105.0,104.0,101.0,102.0,101.0,97.0,97.0,95.0,96.0,93.0,90.0,90.0,90.0,87.0,87.0,85.0,85.0,86.0,83.0,86.0,83.0,83.0,84.0,82.0,82.0,82.0,80.0,81.0,82.0,85.0,82.0,85.0,85.0,83.0,83.0,85.0,85.0,84.0,84.0,86.0,84.0,83.0,85.0,86.0,85.0,83.0,83.0,80.0,80.0,80.0,79.0,79.0,79.0,76.0,77.0,76.0,77.0,77.0,75.0,76.0,77.0,75.0,79.0,78.0,79.0,78.0,79.0,76.0,76.0,75.0,72.0,72.0,70.0,71.0,71.0,68.0,68.0,67.0,69.0,68.0,71.0,71.0,72.0,71.0,69.0,70.0,70.0,71.0,70.0,69.0,70.0,71.0,71.0,71.0,70.0,70.0,69.0,69.0,68.0,68.0,68.0,67.0,67.0,66.0,65.0,64.0,64.0,64.0,65.0,66.0,65.0,66.0,67.0,68.0,68.0,67.0,66.0,65.0,65.0,67.0,69.0,68.0,71.0,70.0,70.0,71.0,71.0,71.0,68.0,72.0,70.0,69.0,69.0,67.0,67.0,65.0,64.0,65.0,65.0,64.0,64.0,64.0,63.0,63.0,63.0,62.0,63.0,63.0,63.0,63.0,64.0,62.0,63.0,64.0,64.0,65.0,64.0,65.0,66.0,67.0,69.0,69.0,70.0,70.0,70.0,70.0,70.0,72.0,70.0,71.0,70.0,70.0,68.0,69.0,69.0,67.0,66.0,64.0,65.0,62.0,64.0,63.0,64.0,65.0,62.0,63.0,63.0,62.0,62.0,61.0,61.0,60.0,61.0,59.0,58.0,59.0,59.0,60.0,60.0,58.0,58.0,57.0,56.0,56.0,55.0,55.0,55.0,56.0,56.0,57.0,57.0,58.0,57.0,55.0,55.0,54.0,54.0,53.0,53.0,52.0,52.0,52.0,53.0,52.0,52.0,52.0,51.0,53.0,52.0,51.0,51.0,51.0,51.0,48.0,48.0,48.0,49.0,49.0,49.0,49.0,50.0,50.0,49.0,48.0,49.0,50.0,51.0,51.0,52.0,52.0,52.0,51.0,50.0,51.0,49.0,48.0,48.0,48.0,47.0,47.0,47.0,46.0,48.0,47.0,46.0,47.0,45.0,46.0,45.0,45.0,44.0,44.0,45.0,45.0,45.0,45.0,47.0,49.0,51.0,53.0,55.0,57.0,55.0,58.0,56.0,56.0,57.0,55.0,57.0,56.0,58.0,58.0,59.0,61.0,59.0,58.0,57.0,58.0,55.0,55.0,54.0,53.0,56.0,54.0,55.0,56.0,58.0,58.0,61.0,60.0,60.0,61.0,61.0,62.0,61.0,61.0,64.0,64.0,65.0,65.0,65.0,65.0,65.0,67.0,66.0,67.0,66.0,65.0,64.0,65.0,66.0,64.0,62.0,62.0,62.0,62.0,61.0,62.0,60.0,59.0,59.0,59.0,58.0,57.0,59.0,56.0,57.0,55.0,55.0,54.0,52.0,52.0,50.0,50.0,50.0,50.0,51.0,50.0,51.0,50.0,49.0,49.0,48.0,49.0,49.0,49.0,50.0,51.0,50.0,50.0,50.0,50.0,52.0,52.0,52.0,54.0,56.0,57.0,58.0,60.0,58.0,62.0,62.0,61.0,62.0,60.0,60.0,58.0,59.0,60.0,60.0,61.0,59.0,59.0,59.0,61.0,60.0,60.0,59.0,61.0,62.0,62.0,62.0,63.0,63.0,63.0
46.0,46.0,47.0,47.0,46.0,44.0,45.0,42.0,42.0,41.0,40.0,39.0,38.0,39.0,37.0,38.0,37.0,37.0,38.0,38.0,37.0,38.0,36.0,37.0,37.0,37.0,36.0,37.0,35.0,36.0,36.0,36.0,35.0,34.0,34.0,35.0,35.0,36.0,37.0,37.0,39.0,39.0,39.0,40.0,40.0,40.0,40.0,39.0,40.0,40.0,40.0,40.0,41.0,40.0,40.0,42.0,43.0,44.0,46.0,46.0,47.0,45.0,45.0,43.0,43.0,43.0,44.0,44.0,46.0,44.0,43.0,42.0,43.0,41.0,40.0,39.0,41.0,40.0,40.0,39.0,39.0,40.0,38.0,39.0,39.0,40.0,41.0,41.0,42.0,44.0,44.0,43.0,43.0,47.0,47.0,50.0,50.0,51.0,53.0,53.0,52.0,52.0,53.0,54.0,52.0,51.0,53.0,52.0,53.0,52.0,51.0,52.0,53.0,53.0,54.0,53.0,52.0,51.0,51.0,51.0,53.0,52.0,52.0,51.0,49.0,49.0,50.0,48.0,48.0,49.0,49.0,48.0,48.0,48.0,48.0,48.0,48.0,48.0,48.0,49.0,48.0,49.0,51.0,50.0,50.0,50.0,51.0,51.0,51.0,51.0,52.0,52.0,49.0,51.0,52.0,52.0,53.0,55.0,57.0,58.0,59.0,57.0,57.0,56.0,56.0,55.0,54.0,55.0,53.0,52.0,52.0,53.0,55.0,54.0,54.0,53.0,53.0,52.0,51.0,49.0,48.0,48.0,47.0,46.0,46.0,47.0,46.0,44.0,45.0,43.0,44.0,45.0,43.0,42.0,40.0,40.0,39.0,39.0,38.0,39.0,38.0,39.0,39.0,39.0,41.0,41.0,43.0,41.0,41.0,41.0,42.0,42.0,43.0,44.0,43.0,42.0,43.0,43.0,42.0,41.0,43.0,41.0,39.0,39.0,39.0,39.0,39.0,41.0,42.0,42.0,44.0,45.0,47.0,47.0,47.0,48.0,48.0,50.0,50.0,51.0,51.0,53.0,53.0,52.0,53.0,51.0,50.0,47.0,47.0,47.0,46.0,45.0,43.0,42.0,41.0,41.0,40.0,39.0,38.0,37.0,37.0,36.0,38.0,37.0,36.0,36.0,35.0,35.0,36.0,37.0,38.0,38.0,38.0,39.0,42.0,44.0,47.0,48.0,50.0,53.0,53.0,55.0,57.0,59.0,59.0,58.0,57.0,57.0,58.0,57.0,56.0,55.0,54.0,55.0,53.0,54.0,54.0,53.0,52.0,52.0,51.0,51.0,50.0,48.0,49.0,47.0,46.0,47.0,47.0,49.0,49.0,50.0,50.0,50.0,50.0,48.0,48.0,49.0,50.0,49.0,50.0,50.0,50.0,49.0,49.0,49.0,49.0,50.0,51.0,52.0,52.0,51.0,53.0,51.0,48.0,48.0,47.0,48.0,47.0,49.0,47.0,46.0,45.0,45.0,47.0,49.0,49.0,48.0,47.0,46.0,46.0,46.0,45.0,46.0,44.0,45.0,46.0,47.0,45.0,44.0,45.0,42.0,42.0,43.0,42.0,43.0,44.0,46.0,45.0,44.0,45.0,46.0,46.0,46.0,47.0,47.0,47.0,48.0,49.0,49.0,49.0,49.0,50.0,50.0,49.0,49.0,50.0,49.0,55.0,66.0,103.0,134.0,131.0,196.0,214.0,201.0,247.0,231.0,242.0,218.0,226.0,217.0,215.0,230.0,243.0,291.0,292.0,289.0,309.0,334.0,312.0,316.0,315.0,310.0,313.0,338.0,323.0,312.0,303.0,295.0,286.0,278.0,271.0,274.0,271.0,257.0,249.0,239.0,233.0,230.0,221.0,212.0,215.0,206.0,199.0,197.0,189.0,192.0,191.0,189.0,178.0,180.0,172.0,167.0,166.0,160.0,158.0,153.0,151.0,154.0,161.0,150.0,144.0,146.0,143.0,138.0,136.0,133.0,134.0,136.0,135.0,139.0,137.0,133.0,131.0,132.0,131.0,128.0,131.0,131.0,126.0,125.0,122.0,118.0,117.0,117.0,117.0,111.0,108.0,105.0,102.0,100.0,100.0,97.0,100.0,94.0,101.0,101.0,103.0,97.0,95.0,96.0,92.0,95.0,88.0,92.0,90.0,92.0,97.0,92.0,90.0,88.0,83.0,85.0,90.0,87.0,87.0,86.0,86.0,84.0,80.0,85.0,95.0,99.0,93.0,94.0,91.0,88.0,86.0,84.0,93.0,90.0,90.0,90.0,90.0,86.0,85.0,81.0,77.0,81.0,81.0,78.0,82.0,87.0,87.0,82.0,79.0,80.0,81.0,82.0,82.0,76.0,74.0,72.0,86.0,87.0,91.0,94.0,97.0,93.0,96.0,103.0,101.0,104.0,114.0,121.0,145.0,171.0,195.0,219.0,243.0,259.0,273.0,285.0,291.0,294.0,297.0,297.0,293.0,291.0,288.0,284.0,280.0,276.0,270.0,266.0,262.0,256.0,249.0,246.0,242.0,239.0,236.0,232.0,227.0,222.0,220.0,219.0,216.0,210.0,206.0,202.0,195.0,193.0,188.0,180.0,175.0,169.0,167.0,159.0,158.0,154.0,152.0,149.0,145.0,143.0,140.0,133.0,134.0,130.0,129.0,126.0,121.0,121.0,116.0,114.0,112.0,108.0,106.0,105.0,101.0,99.0,100.0,101.0,97.0,97.0,95.0,92.0,89.0,91.0,89.0,89.0,87.0,86.0,84.0,80.0,82.0,82.0,83.0,84.0,84.0,80.0,80.0,81.0,79.0,81.0,81.0,80.0,81.0,80.0,81.0,79.0,78.0,79.0,79.0,75.0,77.0,76.0,73.0,74.0,74.0,73.0,71.0,70.0,70.0,69.0,70.0,69.0,71.0,68.0,68.0,66.0,67.0,65.0,67.0,65.0,65.0,63.0,60.0,58.0,58.0,57.0,57.0,54.0,54.0,52.0,52.0,51.0,49.0,53.0,52.0,53.0,53.0,52.0,53.0,51.0,55.0,53.0,54.0,53.0,52.0,52.0,51.0,51.0,50.0,49.0,49.0,48.0,47.0,46.0,47.0,47.0,47.0,47.0,48.0,50.0,51.0,51.0,52.0,52.0,53.0,52.0,52.0,54.0,54.0,54.0,55.0,54.0,52.0,53.0,52.0,52.0,52.0,51.0,51.0,50.0,49.0,48.0,49.0,49.0,48.0,47.0,46.0,45.0,45.0,43.0,42.0,40.0,40.0,40.0,41.0,40.0,39.0,39.0,38.0,37.0,38.0,38.0,37.0,36.0,36.0,36.0,36.0,37.0,38.0,38.0,38.0,36.0,36.0,36.0,34.0,35.0,39.0,39.0,38.0,37.0,38.0,36.0,36.0,36.0,37.0,36.0,36.0,36.0,35.0,36.0,37.0,38.0,38.0,39.0,39.0,39.0,39.0,39.0,40.0,39.0,38.0,38.0,37.0,36.0,35.0,38.0,37.0,36.0,36.0,37.0,36.0,37.0,37.0,37.0,37.0,37.0,37.0,37.0,37.0,36.0,36.0,36.0,36.0,35.0,36.0,35.0,38.0,38.0,38.0,38.0,37.0,39.0,37.0,39.0,39.0,39.0,37.0,38.0,39.0,39.0,38.0,37.0,38.0,38.0,35.0,37.0,37.0,38.0,38.0,40.0,41.0,40.0,39.0,40.0,40.0,41.0,41.0,41.0,42.0,42.0,41.0,41.0,41.0,41.0,40.0,42.0,41.0,41.0,40.0,39.0,39.0,38.0,37.0,37.0,37.0,37.0,36.0,37.0,37.0,38.0,38.0,38.0,40.0,40.0,39.0,41.0,41.0,42.0,40.0,39.0,39.0,38.0,39.0,38.0,37.0,38.0,39.0,37.0,38.0,38.0,38.0,40.0,40.0,39.0,39.0,38.0,38.0,39.0,40.0,39.0,41.0,40.0,42.0,43.0,43.0,43.0,43.0,43.0,43.0,42.0,41.0,40.0,39.0,38.0,39.0,38.0,38.0,39.0,39.0,38.0,37.0,38.0,36.0,37.0,38.0,39.0,38.0,37.0,39.0,38.0,38.0,39.0,39.0,40.0,39.0,40.0,40.0,40.0,40.0,40.0,43.0,46.0,50.0,53.0,56.0,59.0,60.0,64.0,66.0,67.0,67.0,68.0,69.0,69.0,69.0,70.0,72.0,71.0,72.0,75.0,77.0,79.0,81.0,83.0,83.0,84.0,87.0,88.0,92.0,92.0,93.0,96.0,96.0,97.0,96.0,96.0,95.0,93.0,94.0,93.0,93.0,93.0,91.0,90.0,90.0,90.0,92.0,91.0,88.0,88.0,85.0,85.0,83.0,82.0
16.0,14.0,12.0,11.0,11.0,11.0,9.0,9.0,12.0,12.0,16.0,15.0,15.0,13.0,14.0,12.0,12.0,10.0,12.0,12.0,12.0,12.0,10.0,11.0,9.0,8.0,9.0,9.0,10.0,8.0,8.0,8.0,7.0,7.0,8.0,9.0,6.0,9.0,9.0,9.0,10.0,8.0,8.0,7.0,9.0,8.0,7.0,6.0,7.0,9.0,7.0,8.0,8.0,9.0,9.0,10.0,11.0,7.0,13.0,12.0,12.0,11.0,10.0,10.0,9.0,9.0,8.0,7.0,13.0,13.0,13.0,12.0,11.0,11.0,9.0,9.0,9.0,12.0,10.0,11.0,9.0,9.0,9.0,9.0,9.0,7.0,11.0,11.0,10.0,11.0,10.0,8.0,7.0,12.0,11.0,10.0,13.0,17.0,17.0,14.0,13.0,11.0,11.0,9.0,9.0,16.0,17.0,17.0,14.0,14.0,11.0,10.0,13.0,11.0,12.0,10.0,12.0,13.0,12.0,12.0,10.0,9.0,9.0,8.0,8.0,7.0,9.0,8.0,8.0,7.0,7.0,6.0,5.0,6.0,6.0,12.0,11.0,13.0,13.0,14.0,14.0,12.0,14.0,12.0,11.0,10.0,9.0,10.0,8.0,8.0,13.0,12.0,12.0,12.0,15.0,12.0,12.0,11.0,11.0,10.0,11.0,13.0,10.0,10.0,21.0,18.0,19.0,19.0,17.0,14.0,15.0,13.0,13.0,12.0,11.0,11.0,10.0,11.0,10.0,9.0,9.0,9.0,12.0,10.0,9.0,9.0,15.0,13.0,12.0,14.0,12.0,13.0,12.0,11.0,11.0,11.0,11.0,10.0,11.0,9.0,9.0,9.0,9.0,10.0,10.0,10.0,10.0,9.0,8.0,7.0,11.0,10.0,10.0,14.0,12.0,11.0,10.0,9.0,10.0,11.0,14.0,16.0,14.0,13.0,13.0,10.0,10.0,11.0,11.0,12.0,13.0,12.0,12.0,10.0,12.0,13.0,13.0,12.0,11.0,10.0,10.0,7.0,10.0,9.0,9.0,9.0,10.0,8.0,8.0,11.0,10.0,12.0,11.0,14.0,13.0,11.0,13.0,11.0,11.0,10.0,10.0,10.0,9.0,9.0,9.0,8.0,8.0,7.0,7.0,6.0,13.0,15.0,13.0,12.0,12.0,10.0,10.0,9.0,8.0,8.0,8.0,6.0,7.0,7.0,6.0,9.0,8.0,9.0,6.0,9.0,8.0,8.0,8.0,8.0,8.0,7.0,8.0,10.0,9.0,9.0,8.0,8.0,8.0,8.0,8.0,8.0,8.0,7.0,7.0,6.0,8.0,11.0,13.0,14.0,16.0,15.0,12.0,12.0,11.0,10.0,14.0,13.0,16.0,14.0,13.0,12.0,12.0,11.0,9.0,11.0,11.0,10.0,10.0,12.0,11.0,9.0,9.0,7.0,8.0,8.0,9.0,10.0,10.0,10.0,9.0,12.0,10.0,9.0,8.0,11.0,11.0,9.0,9.0,8.0,8.0,7.0,7.0,8.0,12.0,12.0,11.0,11.0,10.0,9.0,9.0,9.0,8.0,8.0,10.0,9.0,9.0,10.0,8.0,9.0,8.0,7.0,7.0,7.0,8.0,6.0,6.0,7.0,8.0,8.0,9.0,9.0,6.0,7.0,6.0,7.0,17.0,31.0,36.0,64.0,71.0,72.0,74.0,65.0,64.0,60.0,67.0,69.0,60.0,56.0,59.0,64.0,58.0,54.0,50.0,43.0,39.0,36.0,33.0,33.0,35.0,33.0,32.0,28.0,25.0,22.0,19.0,17.0,15.0,14.0,13.0,11.0,11.0,10.0,9.0,9.0,7.0,7.0,8.0,7.0,9.0,8.0,10.0,9.0,8.0,7.0,12.0,11.0,10.0,10.0,9.0,8.0,8.0,8.0,7.0,7.0,8.0,10.0,9.0,9.0,9.0,9.0,8.0,9.0,8.0,8.0,7.0,7.0,6.0,6.0,5.0,6.0,6.0,6.0,6.0,6.0,6.0,5.0,5.0,5.0,5.0,5.0,6.0,6.0,7.0,7.0,6.0,7.0,7.0,6.0,5.0,6.0,5.0,5.0,5.0,5.0,5.0,4.0,5.0,5.0,6.0,5.0,5.0,6.0,4.0,5.0,5.0,4.0,5.0,4.0,5.0,4.0,4.0,7.0,6.0,6.0,6.0,5.0,9.0,8.0,8.0,8.0,7.0,7.0,6.0,6.0,6.0,7.0,8.0,8.0,8.0,8.0,6.0,7.0,6.0,6.0,7.0,7.0,7.0,8.0,9.0,8.0,9.0,9.0,8.0,7.0,6.0,6.0,10.0,19.0,60.0,89.0,150.0,154.0,170.0,187.0,170.0,173.0,182.0,188.0,182.0,170.0,178.0,174.0,155.0,161.0,150.0,161.0,159.0,149.0,136.0,137.0,128.0,115.0,113.0,111.0,110.0,110.0,103.0,97.0,87.0,82.0,73.0,70.0,93.0,88.0,85.0,78.0,71.0,63.0,58.0,55.0,56.0,51.0,46.0,48.0,49.0,56.0,56.0,49.0,43.0,38.0,44.0,41.0,39.0,46.0,45.0,44.0,39.0,34.0,30.0,27.0,27.0,40.0,39.0,37.0,32.0,36.0,40.0,42.0,41.0,37.0,36.0,32.0,33.0,29.0,38.0,44.0,41.0,37.0,38.0,36.0,31.0,28.0,34.0,50.0,44.0,38.0,34.0,32.0,28.0,26.0,27.0,25.0,21.0,21.0,19.0,24.0,21.0,19.0,21.0,20.0,18.0,32.0,31.0,28.0,25.0,26.0,23.0,21.0,23.0,32.0,29.0,27.0,28.0,25.0,23.0,24.0,21.0,21.0,30.0,26.0,24.0,23.0,22.0,20.0,18.0,20.0,26.0,30.0,29.0,28.0,25.0,23.0,21.0,21.0,32.0,31.0,31.0,27.0,25.0,27.0,24.0,25.0,23.0,35.0,34.0,31.0,28.0,25.0,24.0,28.0,39.0,34.0,30.0,27.0,24.0,20.0,21.0,23.0,36.0,33.0,29.0,26.0,23.0,20.0,18.0,17.0,23.0,23.0,31.0,26.0,24.0,21.0,19.0,18.0,17.0,17.0,18.0,17.0,14.0,25.0,23.0,20.0,21.0,23.0,24.0,24.0,21.0,19.0,17.0,15.0,17.0,27.0,27.0,26.0,23.0,21.0,19.0,17.0,17.0,17.0,15.0,14.0,13.0,14.0,15.0,24.0,20.0,18.0,19.0,17.0,16.0,14.0,15.0,12.0,12.0,11.0,19.0,21.0,22.0,24.0,20.0,18.0,16.0,15.0,13.0,15.0,26.0,32.0,30.0,26.0,23.0,21.0,18.0,16.0,16.0,16.0,15.0,13.0,13.0,12.0,11.0,9.0,12.0,11.0,10.0,10.0,8.0,8.0,8.0,8.0,13.0,13.0,14.0,12.0,11.0,19.0,18.0,16.0,15.0,17.0,14.0,13.0,11.0,11.0,14.0,12.0,13.0,14.0,12.0,12.0,11.0,9.0,9.0,9.0,10.0,11.0,9.0,9.0,10.0,9.0,8.0,8.0,15.0,22.0,25.0,26.0,21.0,25.0,22.0,19.0,17.0,15.0,15.0,15.0,15.0,12.0,12.0,10.0,9.0,13.0,14.0,14.0,12.0,12.0,12.0,11.0,9.0,11.0,11.0,12.0,12.0,10.0,11.0,11.0,9.0,16.0,15.0,15.0,13.0,14.0,15.0,13.0,12.0,12.0,14.0,11.0,10.0,11.0,10.0,13.0,12.0,14.0,10.0,13.0,12.0,12.0,15.0,19.0,17.0,14.0,14.0,14.0,13.0,13.0,10.0,14.0,12.0,11.0,10.0,9.0,11.0,14.0,12.0,14.0,13.0,12.0,11.0,14.0,12.0,12.0,10.0,11.0,11.0,11.0,11.0,10.0,20.0,19.0,18.0,18.0,17.0,15.0,14.0,14.0,13.0,12.0,13.0,17.0,16.0,14.0,12.0,11.0,11.0,16.0,19.0,19.0,16.0,14.0,15.0,19.0,17.0,15.0,15.0,13.0,12.0,11.0,10.0,10.0,8.0,8.0,8.0,13.0,11.0,10.0,13.0,15.0,13.0,11.0,12.0,10.0,13.0,12.0,13.0,12.0,12.0,12.0,17.0,15.0,14.0,19.0,19.0,16.0,15.0,13.0,13.0,14.0,15.0,15.0,14.0,13.0,10.0,11.0,11.0,25.0,22.0,18.0,18.0,16.0,17.0,17.0,15.0,27.0,25.0,24.0,21.0,18.0,17.0,19.0,17.0,16.0,16.0,14.0,13.0,15.0
100.0,95.0,96.0,93.0,96.0,92.0,96.0,101.0,101.0,97.0,100.0,97.0,102.0,103.0,99.0,99.0,93.0,93.0,90.0,95.0,101.0,110.0,104.0,95.0,90.0,92.0,94.0,96.0,105.0,106.0,102.0,102.0,100.0,99.0,102.0,106.0,102.0,94.0,104.0,99.0,93.0,92.0,90.0,85.0,82.0,83.0,87.0,100.0,106.0,99.0,90.0,88.0,84.0,86.0,87.0,86.0,82.0,85.0,83.0,89.0,86.0,92.0,92.0,91.0,88.0,89.0,96.0,97.0,90.0,89.0,89.0,87.0,87.0,86.0,80.0,74.0,68.0,67.0,64.0,70.0,68.0,75.0,81.0,92.0,91.0,93.0,93.0,89.0,82.0,78.0,90.0,86.0,93.0,85.0,87.0,96.0,98.0,95.0,94.0,92.0,84.0,79.0,88.0,89.0,104.0,108.0,104.0,100.0,100.0,103.0,99.0,91.0,91.0,88.0,84.0,85.0,87.0,83.0,85.0,87.0,87.0,88.0,87.0,88.0,87.0,86.0,83.0,78.0,72.0,85.0,90.0,90.0,87.0,82.0,94.0,99.0,99.0,92.0,94.0,100.0,96.0,94.0,89.0,83.0,86.0,82.0,83.0,94.0,95.0,88.0,83.0,83.0,87.0,82.0,90.0,94.0,90.0,93.0,88.0,87.0,88.0,91.0,96.0,109.0,110.0,108.0,108.0,111.0,103.0,97.0,92.0,98.0,92.0,89.0,88.0,87.0,86.0,83.0,88.0,92.0,93.0,89.0,87.0,87.0,89.0,98.0,89.0,93.0,87.0,91.0,94.0,101.0,105.0,99.0,96.0,89.0,97.0,97.0,99.0,96.0,90.0,101.0,99.0,96.0,91.0,97.0,95.0,94.0,89.0,86.0,81.0,75.0,85.0,93.0,111.0,106.0,98.0,88.0,91.0,96.0,96.0,96.0,88.0,86.0,88.0,89.0,85.0,93.0,90.0,90.0,89.0,83.0,88.0,104.0,106.0,99.0,93.0,103.0,102.0,107.0,102.0,101.0,114.0,108.0,108.0,106.0,97.0,95.0,101.0,97.0,97.0,97.0,94.0,89.0,87.0,86.0,97.0,100.0,97.0,95.0,91.0,94.0,100.0,100.0,95.0,106.0,107.0,120.0,113.0,111.0,104.0,115.0,104.0,103.0,100.0,96.0,107.0,99.0,93.0,89.0,86.0,78.0,85.0,88.0,86.0,79.0,77.0,76.0,78.0,81.0,80.0,79.0,81.0,81.0,75.0,87.0,91.0,96.0,98.0,101.0,100.0,96.0,97.0,89.0,87.0,87.0,95.0,87.0,90.0,87.0,85.0,80.0,84.0,96.0,116.0,110.0,102.0,95.0,111.0,119.0,113.0,108.0,100.0,96.0,101.0,104.0,104.0,100.0,98.0,98.0,97.0,100.0,96.0,92.0,90.0,88.0,88.0,82.0,95.0,103.0,100.0,102.0,99.0,102.0,97.0,101.0,101.0,100.0,94.0,106.0,101.0,104.0,101.0,104.0,96.0,97.0,96.0,97.0,93.0,89.0,85.0,79.0,80.0,79.0,80.0,85.0,95.0,102.0,96.0,94.0,85.0,79.0,72.0,67.0,65.0,59.0,58.0,61.0,72.0,74.0,72.0,86.0,83.0,78.0,79.0,76.0,71.0,68.0,65.0,68.0,99.0,123.0,130.0,170.0,187.0,223.0,207.0,194.0,215.0,220.0,212.0,207.0,195.0,184.0,221.0,222.0,259.0,308.0,366.0,357.0,319.0,291.0,276.0,312.0,316.0,305.0,300.0,302.0,285.0,270.0,259.0,255.0,257.0,251.0,242.0,233.0,242.0,223.0,216.0,211.0,201.0,204.0,185.0,186.0,179.0,183.0,209.0,200.0,190.0,186.0,182.0,187.0,181.0,173.0,163.0,178.0,193.0,179.0,172.0,158.0,181.0,173.0,160.0,156.0,184.0,197.0,204.0,190.0,183.0,174.0,183.0,172.0,161.0,151.0,141.0,135.0,153.0,176.0,171.0,171.0,198.0,197.0,190.0,182.0,166.0,157.0,164.0,175.0,179.0,180.0,192.0,201.0,218.0,208.0,209.0,189.0,176.0,162.0,170.0,178.0,160.0,165.0,165.0,187.0,180.0,193.0,195.0,189.0,187.0,177.0,167.0,158.0,147.0,139.0,134.0,133.0,129.0,132.0,132.0,154.0,142.0,141.0,142.0,130.0,131.0,139.0,141.0,139.0,136.0,137.0,140.0,150.0,155.0,171.0,207.0,194.0,188.0,180.0,179.0,164.0,153.0,143.0,136.0,149.0,166.0,170.0,171.0,171.0,165.0,176.0,183.0,169.0,163.0,149.0,158.0,179.0,210.0,211.0,201.0,206.0,214.0,215.0,232.0,261.0,248.0,239.0,252.0,242.0,252.0,245.0,235.0,219.0,208.0,198.0,203.0,182.0,172.0,154.0,156.0,193.0,184.0,168.0,158.0,169.0,173.0,168.0,161.0,164.0,168.0,157.0,146.0,138.0,130.0,134.0,135.0,140.0,136.0,138.0,132.0,140.0,139.0,137.0,129.0,133.0,123.0,120.0,123.0,124.0,124.0,127.0,126.0,126.0,115.0,113.0,108.0,98.0,91.0,100.0,94.0,90.0,98.0,100.0,100.0,100.0,101.0,102.0,131.0,128.0,117.0,109.0,112.0,107.0,120.0,127.0,119.0,116.0,119.0,119.0,122.0,120.0,115.0,110.0,107.0,108.0,106.0,104.0,111.0,109.0,116.0,117.0,111.0,108.0,124.0,120.0,118.0,126.0,131.0,123.0,119.0,114.0,108.0,100.0,95.0,98.0,107.0,101.0,106.0,97.0,97.0,110.0,103.0,118.0,113.0,117.0,112.0,107.0,103.0,103.0,101.0,100.0,101.0,98.0,91.0,97.0,114.0,110.0,108.0,99.0,112.0,118.0,113.0,110.0,104.0,102.0,106.0,107.0,101.0,95.0,89.0,103.0,118.0,111.0,107.0,101.0,119.0,111.0,108.0,101.0,95.0,96.0,108.0,101.0,106.0,107.0,102.0,102.0,106.0,103.0,102.0,99.0,98.0,101.0,104.0,103.0,102.0,102.0,102.0,109.0,109.0,100.0,100.0,106.0,104.0,99.0,105.0,103.0,112.0,106.0,124.0,120.0,113.0,118.0,110.0,110.0,108.0,106.0,110.0,105.0,113.0,105.0,112.0,109.0,102.0,104.0,95.0,89.0,86.0,84.0,91.0,100.0,103.0,103.0,100.0,101.0,95.0,90.0,94.0,110.0,101.0,99.0,97.0,95.0,104.0,109.0,101.0,96.0,96.0,86.0,93.0,100.0,95.0,101.0,99.0,95.0,98.0,96.0,93.0,89.0,96.0,95.0,97.0,91.0,88.0,88.0,101.0,100.0,96.0,98.0,97.0,93.0,101.0,103.0,105.0,98.0,99.0,103.0,99.0,96.0,95.0,89.0,95.0,91.0,95.0,94.0,93.0,89.0,90.0,89.0,109.0,101.0,99.0,99.0,94.0,93.0,115.0,112.0,106.0,103.0,97.0,102.0,109.0,102.0,102.0,95.0,94.0,95.0,90.0,95.0,101.0,104.0,99.0,97.0,107.0,118.0,123.0,114.0,118.0,117.0,114.0,106.0,102.0,109.0,104.0,122.0,118.0,109.0,113.0,113.0,113.0,109.0,105.0,120.0,118.0,114.0,107.0,101.0,103.0,98.0,100.0,103.0,100.0,103.0,108.0,107.0,105.0,111.0,108.0,112.0,110.0,105.0,108.0,106.0,105.0,112.0,118.0,128.0,119.0,113.0,113.0,116.0,110.0,107.0,112.0,115.0,113.0,114.0,120.0,123.0,123.0,128.0,122.0,136.0,134.0,123.0,117.0,109.0,102.0,106.0,101.0,98.0,90.0,89.0,89.0,88.0,86.0,81.0,81.0,93.0,95.0,95.0,95.0,98.0,95.0,93.0,90.0,85.0,90.0,83.0,83.0,78.0,79.0,79.0,78.0,79.0,77.0,74.0,74.0,84.0,92.0,92.0,91.0,99.0,98.0,92.0,97.0,89.0,86.0,87.0,105.0,106.0,103.0,97.0,96.0,92.0,97.0,95.0,98.0,93.0,100.0,99.0,99.0,105.0,99.0,96.0,101.0,97.0,95.0,109.0,109.0,99.0,106.0,103.0,99.0,95.0,102.0,105.0,97.0,92.0,85.0,101.0,97.0,94.0,108.0,108.0,108.0,103.0,108.0,108.0,100.0,96.0,90.0,103.0,107.0,112.0,106.0,103.0,98.0,102.0,122.0,121.0,113.0,109.0,106.0,100.0,98.0,99.0,97.0,94.0,86.0,90.0
