66.0,67.0,66.0,66.0,65.0,64.0,63.0,62.0,62.0,61.0,62.0,63.0,64.0,64.0,65.0,67.0,68.0,68.0,68.0,67.0,68.0,68.0,70.0,71.0,71.0,69.0,70.0,70.0,70.0,70.0,70.0,72.0,72.0,73.0,71.0,70.0,69.0,69.0,67.0,67.0,67.0,66.0,66.0,66.0,66.0,65.0,64.0,64.0,64.0,63.0,64.0,62.0,63.0,64.0,66.0,66.0,66.0,66.0,65.0,63.0,63.0,65.0,64.0,63.0,65.0,66.0,67.0,69.0,70.0,70.0,70.0,73.0,73.0,73.0,73.0,72.0,70.0,70.0,70.0,69.0,68.0,68.0,69.0,68.0,66.0,67.0,67.0,65.0,65.0,64.0,65.0,65.0,63.0,62.0,63.0,63.0,65.0,68.0,69.0,69.0,69.0,69.0,68.0,67.0,67.0,66.0,66.0,67.0,66.0,66.0,66.0,66.0,66.0,66.0,65.0,65.0,65.0,64.0,63.0,63.0,64.0,64.0,65.0,63.0,61.0,62.0,63.0,64.0,64.0,65.0,65.0,66.0,64.0,64.0,65.0,67.0,68.0,68.0,69.0,68.0,68.0,68.0,67.0,67.0,67.0,67.0,66.0,64.0,66.0,67.0,66.0,66.0,67.0,66.0,65.0,65.0,64.0,64.0,65.0,65.0,63.0,61.0,61.0,59.0,58.0,55.0,55.0,55.0,54.0,51.0,51.0,52.0,52.0,51.0,51.0,50.0,49.0,49.0,49.0,49.0,48.0,48.0,50.0,52.0,54.0,61.0,63.0,64.0,65.0,63.0,72.0,74.0,85.0,108.0,164.0,164.0,243.0,252.0,306.0,333.0,348.0,341.0,308.0,282.0,256.0,242.0,241.0,225.0,203.0,189.0,172.0,164.0,155.0,144.0,133.0,126.0,118.0,116.0,111.0,108.0,107.0,103.0,100.0,94.0,92.0,91.0,87.0,87.0,81.0,82.0,76.0,75.0,74.0,75.0,75.0,72.0,70.0,68.0,67.0,68.0,67.0,65.0,63.0,62.0,58.0,57.0,56.0,55.0,55.0,53.0,54.0,52.0,52.0,54.0,55.0,56.0,53.0,54.0,52.0,55.0,53.0,51.0,50.0,49.0,50.0,48.0,49.0,50.0,49.0,49.0,48.0,49.0,48.0,47.0,47.0,48.0,48.0,47.0,49.0,50.0,51.0,52.0,53.0,54.0,52.0,54.0,53.0,54.0,54.0,55.0,54.0,54.0,55.0,53.0,52.0,53.0,52.0,51.0,51.0,52.0,51.0,50.0,53.0,54.0,54.0,54.0,55.0,53.0,52.0,51.0,49.0,49.0,49.0,49.0,47.0,46.0,47.0,46.0,47.0,47.0,47.0,48.0,47.0,47.0,46.0,46.0,45.0,47.0,46.0,46.0,46.0,47.0,47.0,47.0,48.0,47.0,46.0,48.0,50.0,49.0,47.0,48.0,48.0,48.0,49.0,48.0,49.0,47.0,51.0,48.0,48.0,47.0,46.0,47.0,46.0,47.0,46.0,46.0,47.0,49.0,49.0,51.0,51.0,52.0,52.0,54.0,54.0,53.0,53.0,55.0,54.0,53.0,52.0,53.0,53.0,53.0,55.0,56.0,57.0,56.0,57.0,59.0,61.0,62.0,64.0,63.0,66.0,67.0,67.0,67.0,68.0,66.0,65.0,65.0,62.0,62.0,60.0,64.0,62.0,67.0,70.0,71.0,78.0,79.0,83.0,81.0,84.0,82.0,93.0,98.0,107.0,105.0,118.0,123.0,126.0,141.0,144.0,147.0,152.0,153.0,153.0,153.0,155.0,151.0,151.0,145.0,149.0,147.0,145.0,145.0,144.0,143.0,145.0,140.0,137.0,138.0,137.0,135.0,136.0,135.0,130.0,130.0,127.0,123.0,123.0,119.0,117.0,115.0,114.0,113.0,112.0,110.0,109.0,110.0,110.0,108.0,106.0,103.0,103.0,101.0,102.0,99.0,98.0,99.0,101.0,100.0,100.0,98.0,100.0,98.0,100.0,99.0,99.0,98.0,97.0,95.0,92.0,95.0,93.0,94.0,91.0,91.0,90.0,88.0,88.0,87.0,87.0,85.0,87.0,86.0,88.0,87.0,88.0,87.0,87.0,84.0,83.0,82.0,81.0,80.0,78.0,77.0,77.0,74.0,75.0,75.0,74.0,75.0,76.0,76.0,76.0,77.0,76.0,77.0,77.0,75.0,73.0,74.0,73.0,74.0,74.0,73.0,71.0,73.0,71.0,70.0,71.0,71.0,70.0,69.0,72.0,69.0,69.0,69.0,69.0,69.0,72.0,75.0,74.0,74.0,74.0,74.0,73.0,73.0,73.0,73.0,74.0,74.0,74.0,74.0,73.0,75.0,74.0,73.0,73.0,71.0,73.0,75.0,74.0,74.0,76.0,74.0,74.0,75.0,74.0,74.0,74.0,74.0,74.0,73.0,72.0,70.0,70.0,70.0,68.0,68.0,68.0,69.0,66.0,67.0,67.0,67.0,66.0,65.0,65.0,61.0,62.0,61.0,60.0,59.0,58.0,58.0,57.0,57.0,55.0,55.0,55.0,55.0,55.0,55.0,58.0,56.0,59.0,60.0,59.0,61.0,63.0,65.0,64.0,65.0,64.0,64.0,64.0,63.0,65.0,65.0,65.0,67.0,66.0,65.0,66.0,66.0,65.0,66.0,65.0,64.0,62.0,61.0,63.0,62.0,61.0,62.0,59.0,60.0,60.0,59.0,57.0,58.0,57.0,57.0,58.0,57.0,56.0,55.0,55.0,57.0,56.0,58.0,60.0,59.0,60.0,61.0,58.0,57.0,58.0,58.0,58.0,58.0,57.0,58.0,57.0,60.0,59.0,59.0,57.0,58.0,60.0,59.0,60.0,59.0,61.0,60.0,59.0,59.0,58.0,59.0,59.0,58.0,58.0,56.0,56.0,55.0,55.0,54.0,54.0,53.0,53.0,52.0,52.0,51.0,52.0,52.0,52.0,53.0,54.0,54.0,54.0,53.0,53.0,55.0,57.0,57.0,55.0,55.0,54.0,53.0,54.0,54.0,55.0,55.0,56.0,56.0,57.0,58.0,58.0,58.0,58.0,59.0,57.0,60.0,59.0,59.0,61.0,63.0,63.0,64.0,65.0,65.0,66.0,67.0,67.0,71.0,73.0,75.0,75.0,77.0,78.0,76.0,76.0,77.0,75.0,74.0,72.0,72.0,70.0,72.0,69.0,69.0,67.0,65.0,64.0,66.0,66.0,67.0,67.0,67.0,66.0,66.0,67.0,68.0,67.0,66.0,67.0,66.0,66.0,67.0,68.0,65.0,67.0,64.0,64.0,62.0,61.0,62.0,63.0,66.0,64.0,66.0,66.0,68.0,70.0,69.0,73.0,73.0,74.0,74.0,74.0,73.0,73.0,74.0,74.0,74.0,74.0,74.0,74.0,72.0,72.0,73.0,71.0,73.0,72.0,72.0,71.0,72.0,71.0,70.0,71.0,70.0,72.0,71.0,74.0,74.0,72.0,74.0,75.0,74.0,73.0,75.0,75.0,76.0,76.0,77.0,78.0,76.0,78.0,77.0,77.0,76.0,77.0,78.0,77.0,78.0,78.0,78.0,77.0,75.0,75.0,73.0,72.0,70.0,69.0,69.0,67.0,69.0,68.0,69.0,68.0,68.0,68.0,67.0,69.0,71.0,73.0,74.0,78.0,79.0,81.0,82.0,82.0,82.0,83.0,85.0,86.0,87.0,90.0,89.0,91.0,91.0,90.0,92.0,94.0,96.0,95.0,94.0,92.0,93.0,93.0,94.0,94.0,94.0,92.0,94.0,93.0,93.0,93.0,93.0,93.0,93.0,92.0,93.0,92.0,92.0,94.0,93.0,94.0,92.0,90.0,90.0,88.0,87.0,87.0,87.0,86.0,84.0,86.0,85.0,83.0,83.0,81.0,80.0,80.0,79.0,78.0,78.0,77.0,79.0,79.0,80.0,79.0,79.0,78.0,79.0,79.0,78.0,78.0,78.0,78.0,78.0,77.0,77.0,77.0,78.0,77.0,78.0,78.0,77.0,78.0,78.0,78.0,78.0,78.0,77.0,78.0,78.0,77.0,77.0,76.0,77.0,76.0,76.0,77.0,76.0,76.0,76.0,75.0,75.0,73.0,75.0,72.0,71.0,73.0,71.0,71.0,69.0,68.0,66.0,64.0,63.0,62.0,63.0,63.0,63.0,63.0,63.0,62.0,63.0,62.0,63.0,62.0,59.0,58.0,59.0,58.0,57.0,56.0,56.0,54.0,53.0,52.0,50.0,49.0,48.0,49.0,48.0,47.0,49.0,48.0,50.0,49.0,51.0
37.0,37.0,37.0,36.0,36.0,35.0,35.0,36.0,37.0,37.0,36.0,37.0,37.0,37.0,37.0,36.0,37.0,36.0,35.0,36.0,37.0,36.0,35.0,36.0,34.0,34.0,35.0,35.0,35.0,35.0,37.0,36.0,38.0,38.0,37.0,37.0,37.0,37.0,37.0,36.0,37.0,36.0,36.0,35.0,36.0,34.0,36.0,35.0,35.0,34.0,34.0,35.0,34.0,35.0,35.0,34.0,34.0,35.0,35.0,33.0,35.0,34.0,36.0,35.0,35.0,36.0,34.0,33.0,35.0,35.0,37.0,36.0,37.0,36.0,35.0,35.0,35.0,35.0,35.0,36.0,36.0,36.0,36.0,36.0,36.0,36.0,36.0,33.0,34.0,34.0,35.0,36.0,36.0,37.0,36.0,36.0,34.0,34.0,35.0,35.0,36.0,36.0,37.0,37.0,37.0,37.0,37.0,37.0,36.0,37.0,37.0,35.0,37.0,37.0,38.0,38.0,40.0,43.0,43.0,43.0,43.0,44.0,42.0,43.0,43.0,43.0,41.0,41.0,42.0,42.0,41.0,41.0,40.0,40.0,40.0,40.0,40.0,41.0,41.0,41.0,42.0,40.0,40.0,41.0,39.0,38.0,39.0,38.0,39.0,39.0,38.0,37.0,37.0,37.0,35.0,35.0,35.0,35.0,35.0,35.0,34.0,34.0,36.0,36.0,34.0,36.0,36.0,35.0,35.0,36.0,36.0,35.0,35.0,35.0,35.0,36.0,36.0,36.0,35.0,35.0,34.0,38.0,40.0,41.0,42.0,42.0,42.0,42.0,42.0,45.0,54.0,62.0,88.0,112.0,149.0,142.0,204.0,201.0,235.0,268.0,256.0,273.0,258.0,257.0,265.0,291.0,301.0,296.0,296.0,293.0,289.0,280.0,271.0,268.0,265.0,260.0,255.0,254.0,246.0,244.0,240.0,235.0,228.0,224.0,216.0,219.0,208.0,199.0,199.0,193.0,190.0,182.0,181.0,181.0,180.0,170.0,166.0,163.0,160.0,161.0,157.0,155.0,151.0,155.0,150.0,155.0,147.0,144.0,140.0,135.0,132.0,130.0,130.0,127.0,133.0,126.0,121.0,117.0,112.0,118.0,116.0,110.0,104.0,103.0,99.0,95.0,93.0,89.0,94.0,88.0,93.0,88.0,85.0,83.0,81.0,81.0,78.0,80.0,82.0,81.0,79.0,81.0,81.0,79.0,80.0,77.0,86.0,86.0,84.0,82.0,82.0,82.0,82.0,83.0,85.0,90.0,89.0,89.0,96.0,94.0,93.0,92.0,91.0,91.0,94.0,90.0,95.0,92.0,89.0,90.0,89.0,92.0,91.0,88.0,86.0,85.0,85.0,84.0,80.0,87.0,85.0,82.0,81.0,86.0,83.0,80.0,80.0,81.0,81.0,81.0,82.0,78.0,84.0,86.0,83.0,81.0,81.0,81.0,78.0,76.0,74.0,72.0,78.0,73.0,78.0,76.0,71.0,72.0,71.0,71.0,73.0,70.0,67.0,65.0,63.0,63.0,63.0,61.0,67.0,67.0,69.0,69.0,66.0,63.0,67.0,67.0,70.0,68.0,64.0,69.0,65.0,61.0,59.0,58.0,55.0,55.0,54.0,53.0,49.0,60.0,62.0,64.0,61.0,59.0,57.0,56.0,54.0,53.0,60.0,63.0,60.0,58.0,64.0,61.0,62.0,60.0,69.0,67.0,72.0,69.0,67.0,71.0,68.0,66.0,62.0,65.0,68.0,65.0,67.0,71.0,78.0,82.0,88.0,103.0,115.0,139.0,157.0,171.0,189.0,206.0,217.0,226.0,239.0,242.0,250.0,251.0,256.0,257.0,258.0,258.0,257.0,256.0,256.0,250.0,244.0,243.0,241.0,237.0,236.0,233.0,229.0,228.0,224.0,222.0,220.0,216.0,213.0,212.0,209.0,205.0,200.0,195.0,192.0,188.0,186.0,182.0,177.0,174.0,171.0,167.0,164.0,159.0,154.0,152.0,151.0,148.0,145.0,142.0,140.0,138.0,138.0,136.0,135.0,136.0,132.0,131.0,128.0,131.0,131.0,129.0,126.0,126.0,126.0,124.0,123.0,121.0,118.0,113.0,113.0,113.0,114.0,112.0,111.0,108.0,107.0,103.0,102.0,100.0,99.0,97.0,96.0,97.0,96.0,92.0,92.0,91.0,88.0,88.0,87.0,84.0,83.0,82.0,79.0,79.0,76.0,72.0,70.0,69.0,69.0,69.0,69.0,66.0,65.0,64.0,63.0,60.0,61.0,61.0,57.0,58.0,60.0,59.0,61.0,62.0,64.0,62.0,65.0,64.0,64.0,63.0,64.0,64.0,62.0,63.0,60.0,60.0,59.0,59.0,58.0,56.0,54.0,53.0,52.0,51.0,50.0,50.0,50.0,51.0,48.0,48.0,49.0,47.0,49.0,47.0,48.0,48.0,47.0,45.0,45.0,46.0,46.0,46.0,46.0,47.0,48.0,49.0,48.0,49.0,49.0,50.0,51.0,53.0,53.0,52.0,52.0,50.0,51.0,51.0,50.0,50.0,50.0,48.0,50.0,51.0,51.0,51.0,50.0,51.0,50.0,49.0,51.0,49.0,49.0,48.0,47.0,46.0,45.0,43.0,44.0,44.0,43.0,42.0,40.0,41.0,39.0,41.0,41.0,42.0,41.0,40.0,39.0,39.0,41.0,41.0,41.0,41.0,40.0,40.0,40.0,42.0,43.0,42.0,42.0,42.0,43.0,43.0,42.0,40.0,41.0,41.0,41.0,40.0,38.0,39.0,38.0,39.0,39.0,39.0,38.0,38.0,37.0,37.0,37.0,39.0,38.0,39.0,38.0,39.0,38.0,38.0,37.0,37.0,37.0,36.0,38.0,38.0,40.0,40.0,39.0,41.0,40.0,39.0,39.0,40.0,39.0,38.0,39.0,39.0,40.0,38.0,39.0,38.0,39.0,38.0,40.0,42.0,42.0,41.0,41.0,40.0,40.0,40.0,41.0,41.0,41.0,41.0,39.0,38.0,38.0,40.0,40.0,41.0,42.0,42.0,44.0,44.0,44.0,43.0,43.0,42.0,42.0,41.0,40.0,41.0,39.0,42.0,42.0,40.0,40.0,40.0,40.0,41.0,42.0,42.0,41.0,40.0,40.0,40.0,38.0,41.0,42.0,40.0,40.0,39.0,38.0,39.0,39.0,38.0,38.0,39.0,38.0,38.0,38.0,39.0,40.0,40.0,42.0,40.0,39.0,39.0,41.0,39.0,39.0,40.0,40.0,39.0,39.0,41.0,40.0,39.0,38.0,39.0,37.0,37.0,39.0,40.0,39.0,38.0,38.0,37.0,37.0,36.0,35.0,36.0,37.0,38.0,38.0,39.0,38.0,40.0,41.0,40.0,42.0,41.0,41.0,40.0,41.0,40.0,41.0,41.0,40.0,40.0,40.0,40.0,38.0,37.0,38.0,40.0,39.0,41.0,42.0,42.0,43.0,43.0,45.0,45.0,47.0,45.0,44.0,44.0,47.0,46.0,47.0,48.0,49.0,48.0,50.0,51.0,54.0,56.0,57.0,61.0,63.0,63.0,65.0,68.0,69.0,71.0,71.0,73.0,73.0,73.0,74.0,76.0,75.0,76.0,78.0,78.0,80.0,81.0,81.0,84.0,85.0,85.0,88.0,87.0,88.0,89.0,90.0,91.0,91.0,93.0,94.0,94.0,95.0,95.0,96.0,95.0,97.0,96.0,96.0,96.0,94.0,93.0,93.0,92.0,93.0,94.0,92.0,91.0,92.0,91.0,91.0,88.0,88.0,90.0,89.0,90.0,88.0,88.0,83.0,85.0,84.0,83.0,82.0,81.0,81.0,80.0,77.0,77.0,75.0,71.0,70.0,69.0,66.0,64.0,62.0,61.0,59.0,56.0,55.0,54.0,52.0,51.0,51.0,51.0,47.0,47.0,47.0,46.0,44.0,43.0,45.0,43.0,42.0,42.0,41.0,42.0,41.0,41.0,39.0,41.0,40.0,41.0,41.0,43.0,43.0,44.0,44.0,44.0,45.0,46.0,49.0,49.0,50.0,51.0,51.0,52.0,54.0,54.0,56.0,57.0,57.0,56.0,54.0,52.0,52.0,51.0,48.0,49.0,47.0,48.0,49.0,50.0,51.0,50.0,52.0,53.0,54.0,53.0,53.0,56.0,55.0,54.0,55.0,54.0,54.0,56.0,58.0,57.0,57.0,58.0,59.0,60.0,61.0,60.0,60.0,58.0,58.0,58.0,58.0,55.0,56.0,55.0,55.0,55.0,55.0,53.0,53.0,53.0,53.0,53.0,55.0,54.0,56.0,54.0,54.0,54.0,54.0,55.0
11.0,10.0,9.0,9.0,8.0,9.0,6.0,7.0,12.0,14.0,12.0,13.0,12.0,10.0,9.0,9.0,7.0,7.0,7.0,11.0,10.0,12.0,12.0,11.0,10.0,9.0,10.0,9.0,8.0,19.0,17.0,18.0,15.0,15.0,12.0,13.0,11.0,11.0,11.0,11.0,11.0,9.0,10.0,11.0,10.0,9.0,12.0,12.0,9.0,8.0,12.0,13.0,15.0,17.0,16.0,13.0,12.0,11.0,10.0,9.0,9.0,10.0,9.0,9.0,8.0,8.0,9.0,8.0,9.0,8.0,8.0,7.0,7.0,7.0,5.0,9.0,11.0,10.0,9.0,9.0,13.0,15.0,15.0,12.0,15.0,15.0,14.0,16.0,15.0,18.0,16.0,15.0,13.0,17.0,16.0,13.0,14.0,13.0,13.0,12.0,11.0,10.0,13.0,14.0,14.0,14.0,12.0,11.0,11.0,11.0,11.0,9.0,9.0,8.0,8.0,8.0,7.0,11.0,12.0,12.0,10.0,9.0,9.0,8.0,7.0,8.0,9.0,10.0,10.0,9.0,8.0,8.0,9.0,8.0,8.0,7.0,8.0,9.0,9.0,8.0,9.0,8.0,8.0,21.0,17.0,17.0,18.0,18.0,16.0,15.0,14.0,12.0,11.0,10.0,11.0,11.0,11.0,11.0,13.0,12.0,10.0,10.0,9.0,8.0,9.0,12.0,14.0,12.0,11.0,12.0,11.0,11.0,9.0,10.0,8.0,14.0,12.0,12.0,11.0,10.0,10.0,8.0,11.0,10.0,10.0,9.0,7.0,9.0,6.0,8.0,10.0,11.0,19.0,33.0,57.0,53.0,81.0,75.0,91.0,90.0,93.0,86.0,73.0,68.0,59.0,59.0,60.0,55.0,55.0,49.0,43.0,38.0,34.0,33.0,29.0,27.0,23.0,21.0,18.0,17.0,16.0,14.0,13.0,12.0,10.0,10.0,9.0,8.0,7.0,6.0,6.0,6.0,6.0,6.0,6.0,7.0,8.0,6.0,6.0,7.0,7.0,6.0,5.0,7.0,4.0,5.0,5.0,5.0,5.0,5.0,6.0,6.0,5.0,4.0,4.0,5.0,5.0,5.0,4.0,5.0,10.0,11.0,10.0,9.0,9.0,7.0,7.0,7.0,7.0,6.0,5.0,7.0,4.0,6.0,5.0,6.0,6.0,5.0,7.0,6.0,5.0,5.0,5.0,5.0,5.0,5.0,4.0,5.0,5.0,5.0,6.0,6.0,7.0,6.0,5.0,5.0,5.0,4.0,5.0,5.0,4.0,4.0,4.0,4.0,5.0,7.0,8.0,7.0,6.0,6.0,6.0,6.0,5.0,6.0,4.0,5.0,4.0,4.0,5.0,5.0,8.0,6.0,5.0,5.0,5.0,5.0,5.0,6.0,4.0,4.0,5.0,4.0,4.0,4.0,5.0,4.0,5.0,5.0,5.0,5.0,4.0,5.0,4.0,4.0,4.0,3.0,3.0,4.0,4.0,4.0,4.0,3.0,3.0,4.0,3.0,5.0,4.0,4.0,4.0,3.0,4.0,4.0,5.0,2.0,4.0,3.0,3.0,4.0,4.0,5.0,4.0,3.0,3.0,3.0,3.0,4.0,4.0,2.0,3.0,4.0,3.0,4.0,4.0,5.0,4.0,4.0,3.0,4.0,4.0,3.0,5.0,4.0,3.0,3.0,3.0,7.0,49.0,65.0,80.0,92.0,112.0,157.0,155.0,195.0,178.0,167.0,205.0,192.0,207.0,237.0,234.0,221.0,222.0,202.0,209.0,197.0,187.0,202.0,188.0,182.0,176.0,166.0,178.0,168.0,156.0,155.0,145.0,136.0,132.0,121.0,115.0,104.0,92.0,85.0,102.0,109.0,111.0,103.0,92.0,84.0,88.0,83.0,76.0,80.0,82.0,87.0,81.0,69.0,69.0,62.0,67.0,60.0,69.0,72.0,62.0,59.0,74.0,71.0,66.0,61.0,57.0,52.0,54.0,58.0,54.0,52.0,51.0,45.0,56.0,54.0,49.0,42.0,39.0,41.0,37.0,44.0,52.0,52.0,46.0,42.0,40.0,58.0,52.0,48.0,44.0,40.0,38.0,40.0,47.0,50.0,47.0,42.0,37.0,34.0,30.0,45.0,42.0,40.0,37.0,41.0,38.0,33.0,31.0,31.0,34.0,31.0,28.0,25.0,23.0,24.0,36.0,41.0,44.0,40.0,36.0,33.0,41.0,38.0,34.0,30.0,27.0,26.0,29.0,30.0,30.0,32.0,30.0,28.0,30.0,40.0,39.0,35.0,33.0,32.0,33.0,35.0,38.0,37.0,32.0,29.0,26.0,24.0,33.0,35.0,40.0,38.0,33.0,32.0,27.0,38.0,35.0,34.0,29.0,26.0,31.0,36.0,45.0,41.0,41.0,37.0,35.0,34.0,34.0,35.0,31.0,28.0,24.0,22.0,22.0,34.0,35.0,34.0,34.0,30.0,26.0,24.0,20.0,23.0,30.0,39.0,36.0,35.0,31.0,30.0,28.0,25.0,31.0,29.0,28.0,25.0,27.0,26.0,27.0,40.0,35.0,31.0,27.0,25.0,22.0,24.0,31.0,32.0,30.0,26.0,24.0,24.0,22.0,20.0,25.0,22.0,20.0,19.0,18.0,21.0,20.0,20.0,31.0,29.0,28.0,27.0,25.0,35.0,36.0,32.0,33.0,28.0,26.0,25.0,31.0,28.0,33.0,31.0,30.0,41.0,39.0,36.0,32.0,31.0,34.0,35.0,37.0,35.0,33.0,30.0,29.0,26.0,23.0,28.0,24.0,28.0,25.0,22.0,22.0,25.0,24.0,27.0,24.0,26.0,23.0,19.0,19.0,29.0,31.0,28.0,26.0,30.0,29.0,26.0,24.0,27.0,29.0,25.0,29.0,28.0,24.0,23.0,21.0,31.0,28.0,28.0,28.0,25.0,24.0,24.0,29.0,33.0,36.0,31.0,28.0,26.0,25.0,26.0,39.0,41.0,37.0,33.0,30.0,25.0,28.0,26.0,30.0,26.0,23.0,21.0,21.0,23.0,20.0,21.0,33.0,30.0,27.0,29.0,29.0,23.0,22.0,26.0,27.0,24.0,29.0,31.0,26.0,32.0,28.0,26.0,26.0,24.0,22.0,27.0,24.0,27.0,31.0,28.0,25.0,25.0,22.0,28.0,29.0,26.0,28.0,25.0,25.0,20.0,23.0,32.0,30.0,30.0,29.0,27.0,23.0,22.0,33.0,30.0,34.0,35.0,33.0,30.0,29.0,34.0,33.0,29.0,26.0,26.0,23.0,24.0,25.0,31.0,29.0,25.0,24.0,22.0,21.0,19.0,16.0,17.0,25.0,24.0,23.0,21.0,27.0,27.0,23.0,26.0,32.0,30.0,29.0,27.0,29.0,31.0,28.0,36.0,31.0,33.0,31.0,27.0,27.0,25.0,24.0,32.0,29.0,26.0,27.0,27.0,24.0,23.0,30.0,32.0,27.0,26.0,25.0,27.0,27.0,24.0,34.0,34.0,30.0,30.0,25.0,23.0,20.0,23.0,25.0,32.0,29.0,28.0,29.0,28.0,27.0,29.0,30.0,27.0,27.0,28.0,26.0,23.0,21.0,31.0,34.0,29.0,28.0,23.0,22.0,20.0,29.0,28.0,24.0,27.0,23.0,22.0,19.0,24.0,25.0,24.0,22.0,22.0,20.0,19.0,18.0,16.0,23.0,20.0,19.0,19.0,20.0,23.0,22.0,27.0,32.0,27.0,26.0,32.0,29.0,25.0,22.0,31.0,28.0,25.0,25.0,24.0,27.0,24.0,36.0,35.0,32.0,33.0,31.0,32.0,28.0,26.0,32.0,34.0,31.0,35.0,38.0,33.0,30.0,25.0,33.0,33.0,30.0,33.0,32.0,31.0,28.0,26.0,26.0,23.0,20.0,20.0,18.0,23.0,21.0,19.0,25.0,30.0,27.0,24.0,21.0,32.0,28.0,26.0,23.0,32.0,29.0,28.0,26.0,29.0,26.0,27.0,24.0,21.0,18.0,16.0,29.0,26.0,24.0,24.0,21.0,19.0,22.0,20.0,17.0,19.0,20.0,19.0,16.0,18.0,37.0,34.0,31.0,27.0,26.0,24.0,23.0,29.0,29.0,25.0,21.0,21.0,20.0,30.0,27.0,24.0,33.0,29.0,27.0,32.0,29.0,27.0,31.0,29.0,27.0,24.0,23.0,21.0,18.0,23.0,20.0,18.0,35.0,32.0,29.0,25.0,22.0,20.0,17.0,20.0,26.0,24.0,20.0,18.0,17.0,17.0,31.0,27.0,30.0,36.0,32.0,29.0,25.0,23.0
96.0,103.0,106.0,106.0,98.0,96.0,95.0,104.0,98.0,91.0,89.0,87.0,81.0,95.0,96.0,89.0,90.0,82.0,79.0,79.0,81.0,89.0,84.0,76.0,74.0,74.0,78.0,77.0,82.0,85.0,84.0,85.0,86.0,79.0,92.0,88.0,87.0,98.0,89.0,98.0,106.0,103.0,107.0,105.0,98.0,105.0,116.0,109.0,108.0,104.0,99.0,112.0,108.0,105.0,105.0,105.0,101.0,112.0,106.0,99.0,102.0,104.0,102.0,105.0,126.0,132.0,120.0,109.0,101.0,110.0,118.0,113.0,122.0,117.0,110.0,105.0,98.0,107.0,110.0,104.0,98.0,93.0,102.0,102.0,95.0,117.0,117.0,107.0,121.0,122.0,114.0,115.0,122.0,128.0,131.0,123.0,112.0,107.0,98.0,96.0,95.0,92.0,88.0,89.0,99.0,99.0,102.0,100.0,101.0,92.0,86.0,87.0,83.0,84.0,90.0,92.0,88.0,91.0,88.0,81.0,83.0,78.0,86.0,84.0,82.0,91.0,91.0,95.0,100.0,104.0,96.0,98.0,105.0,101.0,98.0,91.0,98.0,96.0,90.0,102.0,98.0,99.0,100.0,93.0,95.0,90.0,86.0,83.0,90.0,87.0,87.0,94.0,97.0,98.0,92.0,105.0,106.0,100.0,97.0,94.0,88.0,89.0,108.0,102.0,106.0,100.0,98.0,93.0,93.0,92.0,95.0,91.0,88.0,86.0,101.0,97.0,93.0,87.0,82.0,83.0,78.0,82.0,79.0,77.0,73.0,76.0,72.0,69.0,67.0,73.0,88.0,86.0,102.0,121.0,166.0,176.0,216.0,216.0,239.0,251.0,285.0,272.0,279.0,291.0,304.0,285.0,268.0,279.0,294.0,291.0,275.0,270.0,263.0,302.0,291.0,270.0,249.0,229.0,221.0,211.0,207.0,213.0,206.0,199.0,196.0,197.0,191.0,187.0,188.0,191.0,189.0,191.0,185.0,178.0,193.0,203.0,201.0,195.0,194.0,206.0,212.0,196.0,193.0,187.0,176.0,173.0,163.0,146.0,182.0,190.0,186.0,205.0,207.0,206.0,211.0,241.0,239.0,218.0,214.0,210.0,222.0,214.0,196.0,188.0,181.0,176.0,172.0,195.0,199.0,191.0,186.0,186.0,185.0,207.0,196.0,186.0,174.0,165.0,169.0,161.0,155.0,145.0,144.0,147.0,142.0,138.0,138.0,155.0,148.0,166.0,168.0,167.0,173.0,170.0,186.0,193.0,185.0,176.0,157.0,145.0,139.0,147.0,143.0,136.0,132.0,142.0,144.0,142.0,132.0,141.0,146.0,135.0,131.0,130.0,141.0,140.0,142.0,148.0,157.0,172.0,195.0,182.0,170.0,162.0,148.0,147.0,156.0,147.0,138.0,138.0,142.0,148.0,163.0,152.0,159.0,152.0,140.0,141.0,173.0,160.0,167.0,163.0,164.0,163.0,155.0,142.0,132.0,127.0,145.0,149.0,139.0,149.0,140.0,154.0,142.0,131.0,124.0,122.0,119.0,113.0,117.0,114.0,125.0,133.0,137.0,125.0,112.0,106.0,108.0,126.0,119.0,113.0,111.0,102.0,92.0,85.0,75.0,84.0,98.0,101.0,103.0,109.0,108.0,102.0,99.0,107.0,104.0,100.0,92.0,85.0,81.0,74.0,73.0,71.0,66.0,63.0,75.0,85.0,104.0,102.0,103.0,121.0,120.0,130.0,123.0,144.0,172.0,170.0,166.0,177.0,170.0,178.0,187.0,188.0,218.0,204.0,197.0,207.0,208.0,203.0,207.0,210.0,207.0,199.0,198.0,187.0,173.0,168.0,167.0,158.0,151.0,149.0,142.0,136.0,145.0,143.0,138.0,128.0,139.0,136.0,126.0,121.0,117.0,118.0,116.0,124.0,126.0,119.0,123.0,117.0,123.0,131.0,129.0,139.0,141.0,131.0,137.0,126.0,125.0,129.0,128.0,126.0,121.0,119.0,110.0,122.0,118.0,116.0,124.0,116.0,111.0,103.0,112.0,122.0,123.0,121.0,117.0,121.0,116.0,112.0,108.0,105.0,108.0,111.0,107.0,110.0,111.0,107.0,104.0,115.0,118.0,111.0,103.0,102.0,106.0,113.0,110.0,111.0,114.0,115.0,108.0,103.0,99.0,99.0,92.0,108.0,109.0,111.0,109.0,103.0,103.0,110.0,105.0,103.0,98.0,94.0,85.0,96.0,100.0,95.0,91.0,96.0,95.0,105.0,97.0,94.0,94.0,95.0,93.0,104.0,98.0,99.0,99.0,108.0,103.0,100.0,99.0,94.0,91.0,96.0,99.0,126.0,132.0,130.0,121.0,116.0,105.0,134.0,128.0,121.0,114.0,107.0,108.0,113.0,112.0,112.0,105.0,106.0,110.0,116.0,105.0,107.0,104.0,106.0,101.0,104.0,103.0,101.0,101.0,94.0,98.0,100.0,94.0,91.0,96.0,106.0,114.0,107.0,104.0,104.0,102.0,106.0,97.0,88.0,83.0,83.0,87.0,87.0,89.0,84.0,92.0,92.0,102.0,100.0,103.0,97.0,101.0,113.0,112.0,106.0,101.0,104.0,101.0,125.0,130.0,121.0,125.0,139.0,148.0,139.0,148.0,150.0,157.0,149.0,148.0,159.0,169.0,166.0,154.0,149.0,166.0,171.0,163.0,152.0,145.0,131.0,128.0,124.0,146.0,141.0,152.0,147.0,150.0,151.0,152.0,139.0,134.0,129.0,130.0,122.0,134.0,145.0,146.0,137.0,128.0,127.0,124.0,123.0,129.0,128.0,125.0,117.0,117.0,121.0,110.0,116.0,109.0,102.0,107.0,126.0,123.0,115.0,112.0,117.0,122.0,121.0,116.0,111.0,146.0,141.0,129.0,128.0,129.0,143.0,143.0,150.0,150.0,137.0,133.0,126.0,139.0,138.0,141.0,134.0,126.0,123.0,115.0,113.0,108.0,106.0,109.0,101.0,97.0,93.0,88.0,88.0,90.0,95.0,97.0,104.0,102.0,105.0,96.0,98.0,103.0,100.0,102.0,98.0,95.0,90.0,91.0,93.0,93.0,95.0,93.0,93.0,92.0,90.0,91.0,86.0,95.0,89.0,90.0,92.0,93.0,90.0,85.0,88.0,85.0,88.0,81.0,80.0,80.0,95.0,94.0,99.0,102.0,96.0,110.0,103.0,102.0,107.0,110.0,106.0,112.0,110.0,109.0,108.0,103.0,97.0,110.0,116.0,110.0,104.0,109.0,107.0,110.0,106.0,108.0,102.0,97.0,99.0,97.0,94.0,93.0,94.0,87.0,85.0,91.0,94.0,91.0,100.0,100.0,94.0,96.0,100.0,95.0,91.0,92.0,90.0,82.0,83.0,83.0,83.0,91.0,83.0,78.0,87.0,83.0,89.0,91.0,93.0,92.0,94.0,92.0,89.0,88.0,94.0,100.0,103.0,97.0,98.0,90.0,89.0,86.0,99.0,110.0,103.0,99.0,94.0,91.0,109.0,102.0,97.0,98.0,95.0,90.0,88.0,82.0,80.0,88.0,89.0,86.0,87.0,83.0,82.0,87.0,85.0,79.0,90.0,96.0,91.0,86.0,82.0,83.0,80.0,80.0,83.0,82.0,81.0,98.0,98.0,116.0,108.0,111.0,135.0,128.0,121.0,116.0,106.0,113.0,109.0,100.0,95.0,100.0,99.0,98.0,96.0,106.0,108.0,108.0,98.0,96.0,95.0,91.0,98.0,107.0,107.0,101.0,95.0,96.0,98.0,96.0,90.0,105.0,96.0,91.0,91.0,92.0,86.0,82.0,82.0,84.0,96.0,98.0,100.0,94.0,93.0,101.0,108.0,101.0,95.0,96.0,101.0,104.0,103.0,96.0,90.0,89.0,93.0,87.0,94.0,91.0,104.0,104.0,104.0,104.0,98.0,95.0,90.0,89.0,99.0,113.0,107.0,99.0,98.0,101.0,101.0,100.0,99.0,92.0,99.0,97.0,106.0,108.0,106.0,98.0,100.0,101.0,102.0,103.0,98.0,100.0,95.0,96.0,92.0,94.0,95.0,90.0,97.0,100.0,96.0,102.0,101.0,97.0,93.0,93.0,84.0,78.0,82.0,79.0,76.0,82.0,88.0,83.0,84.0,77.0,74.0,72.0,75.0,77.0,82.0,81.0,76.0,70.0,68.0,62.0,68.0,78.0,75.0,72.0,69.0,70.0,69.0,77.0,84.0,83.0,85.0,83.0,83.0,80.0,77.0,80.0,81.0,80.0,83.0,77.0,78.0,77.0,74.0,74.0,81.0,77.0,78.0,85.0,88.0,81.0,82.0,85.0,80.0
