176.0,177.0,176.0,176.0,173.0,169.0,167.0,165.0,162.0,159.0,155.0,151.0,146.0,144.0,139.0,136.0,133.0,129.0,124.0,118.0,114.0,111.0,109.0,104.0,101.0,95.0,91.0,87.0,84.0,79.0,76.0,72.0,69.0,67.0,64.0,61.0,58.0,56.0,56.0,55.0,52.0,52.0,51.0,49.0,48.0,48.0,49.0,49.0,49.0,50.0,49.0,48.0,48.0,50.0,52.0,54.0,57.0,59.0,63.0,63.0,66.0,66.0,69.0,70.0,71.0,72.0,75.0,76.0,77.0,78.0,79.0,81.0,82.0,85.0,84.0,84.0,87.0,88.0,90.0,92.0,93.0,94.0,95.0,96.0,97.0,95.0,97.0,98.0,100.0,100.0,100.0,99.0,99.0,98.0,99.0,99.0,98.0,99.0,99.0,99.0,99.0,101.0,100.0,98.0,100.0,99.0,100.0,100.0,101.0,102.0,102.0,101.0,102.0,101.0,102.0,103.0,103.0,103.0,106.0,105.0,105.0,102.0,104.0,108.0,107.0,123.0,126.0,150.0,155.0,209.0,220.0,212.0,205.0,226.0,248.0,235.0,237.0,218.0,206.0,201.0,192.0,188.0,180.0,180.0,174.0,167.0,163.0,166.0,161.0,158.0,154.0,149.0,147.0,144.0,143.0,140.0,138.0,136.0,132.0,133.0,136.0,129.0,129.0,123.0,121.0,119.0,118.0,117.0,114.0,111.0,112.0,113.0,112.0,110.0,111.0,107.0,105.0,103.0,101.0,102.0,100.0,102.0,101.0,100.0,99.0,99.0,101.0,100.0,98.0,99.0,100.0,100.0,104.0,101.0,106.0,102.0,100.0,99.0,99.0,100.0,102.0,98.0,98.0,96.0,95.0,95.0,96.0,97.0,97.0,97.0,95.0,97.0,97.0,96.0,96.0,93.0,94.0,93.0,91.0,91.0,91.0,89.0,86.0,87.0,88.0,89.0,86.0,85.0,86.0,84.0,83.0,82.0,80.0,79.0,79.0,77.0,75.0,74.0,74.0,72.0,70.0,71.0,69.0,66.0,68.0,68.0,68.0,67.0,65.0,64.0,63.0,64.0,65.0,63.0,61.0,62.0,62.0,63.0,64.0,63.0,63.0,62.0,63.0,62.0,60.0,60.0,58.0,58.0,57.0,55.0,54.0,52.0,55.0,53.0,51.0,51.0,51.0,50.0,49.0,50.0,49.0,49.0,49.0,49.0,49.0,48.0,48.0,48.0,50.0,49.0,50.0,50.0,48.0,49.0,48.0,49.0,48.0,49.0,48.0,51.0,51.0,50.0,49.0,48.0,48.0,46.0,46.0,46.0,46.0,45.0,47.0,49.0,48.0,47.0,48.0,47.0,46.0,46.0,46.0,48.0,47.0,46.0,46.0,47.0,45.0,45.0,45.0,44.0,45.0,45.0,45.0,43.0,45.0,45.0,45.0,45.0,47.0,47.0,47.0,49.0,49.0,50.0,61.0,62.0,62.0,81.0,95.0,104.0,111.0,109.0,128.0,127.0,132.0,138.0,136.0,137.0,137.0,141.0,141.0,141.0,137.0,139.0,137.0,137.0,136.0,134.0,133.0,141.0,140.0,140.0,138.0,137.0,135.0,131.0,127.0,126.0,121.0,120.0,117.0,115.0,111.0,111.0,110.0,108.0,108.0,106.0,105.0,101.0,100.0,100.0,97.0,96.0,95.0,92.0,90.0,91.0,92.0,90.0,88.0,87.0,86.0,83.0,85.0,81.0,80.0,79.0,75.0,75.0,73.0,72.0,71.0,69.0,69.0,67.0,70.0,70.0,69.0,70.0,68.0,69.0,67.0,66.0,66.0,66.0,63.0,63.0,62.0,62.0,61.0,59.0,61.0,59.0,60.0,58.0,60.0,62.0,62.0,63.0,62.0,60.0,59.0,57.0,55.0,57.0,59.0,58.0,57.0,56.0,54.0,54.0,53.0,54.0,55.0,53.0,53.0,52.0,53.0,53.0,54.0,52.0,53.0,53.0,51.0,50.0,50.0,49.0,48.0,49.0,48.0,48.0,50.0,49.0,49.0,49.0,50.0,51.0,51.0,51.0,50.0,51.0,53.0,54.0,55.0,55.0,54.0,53.0,53.0,51.0,52.0,52.0,52.0,53.0,53.0,53.0,53.0,53.0,53.0,51.0,52.0,52.0,53.0,53.0,54.0,54.0,54.0,55.0,56.0,57.0,56.0,57.0,57.0,57.0,57.0,58.0,57.0,56.0,55.0,55.0,55.0,55.0,56.0,56.0,55.0,54.0,55.0,54.0,53.0,53.0,54.0,53.0,52.0,52.0,51.0,50.0,49.0,50.0,49.0,49.0,50.0,51.0,51.0,53.0,53.0,54.0,55.0,55.0,55.0,57.0,57.0,60.0,62.0,62.0,62.0,62.0,62.0,61.0,61.0,59.0,59.0,59.0,60.0,60.0,60.0,61.0,59.0,59.0,58.0,58.0,59.0,58.0,59.0,58.0,58.0,59.0,58.0,59.0,58.0,59.0,59.0,59.0,59.0,60.0,59.0,57.0,59.0,57.0,55.0,57.0,57.0,57.0,59.0,60.0,60.0,60.0,60.0,58.0,57.0,56.0,56.0,56.0,55.0,57.0,54.0,56.0,56.0,55.0,56.0,57.0,56.0,54.0,56.0,55.0,55.0,55.0,57.0,56.0,56.0,55.0,56.0,56.0,56.0,54.0,55.0,55.0,55.0,53.0,55.0,57.0,58.0,57.0,58.0,58.0,57.0,59.0,58.0,58.0,58.0,58.0,57.0,57.0,57.0,56.0,55.0,57.0,58.0,58.0,56.0,59.0,60.0,60.0,60.0,59.0,60.0,60.0,61.0,62.0,61.0,63.0,63.0,64.0,65.0,65.0,64.0,64.0,65.0,62.0,65.0,65.0,66.0,66.0,65.0,65.0,65.0,65.0,65.0,65.0,66.0,66.0,67.0,67.0,66.0,65.0,64.0,62.0,61.0,61.0,61.0,59.0,57.0,59.0,59.0,59.0,58.0,58.0,58.0,58.0,59.0,58.0,58.0,57.0,58.0,61.0,60.0,61.0,60.0,59.0,58.0,59.0,60.0,60.0,62.0,63.0,62.0,61.0,62.0,61.0,61.0,61.0,62.0,60.0,61.0,61.0,61.0,61.0,61.0,61.0,62.0,63.0,63.0,64.0,62.0,63.0,63.0,62.0,63.0,61.0,60.0,60.0,61.0,60.0,58.0,59.0,59.0,58.0,58.0,59.0,57.0,56.0,56.0,55.0,56.0,57.0,58.0,56.0,56.0,57.0,55.0,55.0,53.0,54.0,54.0,54.0,54.0,53.0,53.0,51.0,53.0,53.0,54.0,57.0,57.0,58.0,57.0,59.0,57.0,55.0,55.0,57.0,57.0,59.0,58.0,58.0,58.0,57.0,57.0,59.0,58.0,58.0,57.0,57.0,56.0,54.0,54.0,54.0,54.0,54.0,52.0,52.0,50.0,51.0,50.0,50.0,51.0,52.0,52.0,51.0,55.0,54.0,57.0,56.0,57.0,58.0,59.0,60.0,60.0,61.0,62.0,61.0,61.0,61.0,61.0,61.0,61.0,62.0,60.0,60.0,58.0,58.0,58.0,59.0,58.0,58.0,59.0,59.0,57.0,56.0,57.0,57.0,55.0,55.0,54.0,54.0,53.0,54.0,52.0,52.0,51.0,50.0,49.0,51.0,51.0,50.0,48.0,48.0,49.0,51.0,51.0,52.0,53.0,52.0,53.0,54.0,54.0,53.0,54.0,55.0,54.0,56.0,57.0,58.0,59.0,61.0,61.0,62.0,63.0,62.0,61.0,60.0,60.0,60.0,60.0,61.0,61.0,60.0,61.0,63.0,63.0,64.0,64.0,64.0,62.0,64.0,64.0,63.0,62.0,61.0,60.0,62.0,63.0,64.0,64.0,64.0,65.0,65.0,64.0,64.0,65.0,62.0,63.0,62.0,61.0,60.0,59.0,58.0,58.0,55.0,55.0,54.0,54.0,54.0,55.0,55.0,54.0,54.0,54.0,54.0,55.0,55.0,56.0,56.0,58.0,58.0,58.0,59.0,59.0,58.0,58.0,58.0,60.0,61.0,62.0,61.0,59.0,59.0,58.0,57.0,57.0,56.0,55.0,52.0,51.0,51.0,50.0,51.0,49.0,50.0,50.0,48.0,49.0,50.0,49.0,48.0,49.0,48.0,48.0,49.0,50.0,50.0,51.0,51.0,49.0,49.0,48.0,47.0,47.0,48.0,49.0,49.0,50.0,51.0,51.0,54.0,55.0,56.0,56.0,57.0,57.0,57.0,58.0,57.0,59.0,59.0,58.0,61.0,59.0,62.0,63.0,65.0,64.0,65.0
218.0,216.0,215.0,213.0,211.0,206.0,207.0,207.0,204.0,202.0,200.0,197.0,194.0,193.0,193.0,192.0,190.0,188.0,185.0,182.0,179.0,182.0,182.0,179.0,177.0,174.0,172.0,169.0,167.0,162.0,163.0,160.0,157.0,156.0,153.0,150.0,146.0,143.0,141.0,138.0,135.0,131.0,130.0,128.0,126.0,122.0,119.0,115.0,111.0,107.0,106.0,106.0,105.0,104.0,103.0,101.0,101.0,97.0,94.0,95.0,93.0,92.0,90.0,90.0,88.0,89.0,86.0,87.0,85.0,81.0,83.0,80.0,79.0,77.0,76.0,77.0,74.0,75.0,72.0,71.0,73.0,73.0,74.0,76.0,79.0,80.0,79.0,81.0,81.0,82.0,83.0,85.0,84.0,83.0,81.0,80.0,79.0,78.0,77.0,76.0,75.0,73.0,73.0,72.0,72.0,72.0,69.0,70.0,68.0,70.0,70.0,69.0,71.0,70.0,69.0,67.0,66.0,65.0,61.0,61.0,60.0,60.0,58.0,56.0,57.0,56.0,61.0,63.0,66.0,83.0,86.0,96.0,93.0,106.0,124.0,120.0,121.0,120.0,113.0,106.0,105.0,97.0,92.0,86.0,81.0,79.0,77.0,77.0,76.0,78.0,82.0,88.0,93.0,93.0,93.0,92.0,92.0,96.0,98.0,98.0,99.0,105.0,105.0,110.0,113.0,116.0,117.0,118.0,120.0,120.0,120.0,120.0,120.0,121.0,120.0,123.0,121.0,119.0,120.0,118.0,116.0,113.0,112.0,110.0,106.0,105.0,102.0,101.0,100.0,98.0,92.0,90.0,83.0,82.0,81.0,84.0,84.0,80.0,79.0,76.0,71.0,72.0,71.0,71.0,67.0,66.0,62.0,59.0,58.0,56.0,57.0,55.0,53.0,52.0,49.0,48.0,47.0,46.0,44.0,44.0,42.0,42.0,42.0,41.0,43.0,41.0,40.0,39.0,39.0,39.0,39.0,40.0,39.0,44.0,47.0,53.0,57.0,61.0,65.0,66.0,69.0,72.0,72.0,72.0,72.0,76.0,75.0,75.0,74.0,73.0,75.0,73.0,74.0,74.0,73.0,75.0,75.0,75.0,76.0,77.0,76.0,76.0,75.0,75.0,76.0,77.0,78.0,77.0,78.0,76.0,77.0,77.0,76.0,74.0,72.0,71.0,70.0,70.0,67.0,67.0,67.0,66.0,69.0,68.0,71.0,71.0,71.0,72.0,72.0,74.0,75.0,76.0,76.0,77.0,76.0,76.0,76.0,76.0,75.0,75.0,73.0,73.0,72.0,73.0,73.0,73.0,74.0,76.0,79.0,76.0,77.0,76.0,76.0,75.0,76.0,76.0,77.0,79.0,78.0,79.0,80.0,79.0,78.0,78.0,76.0,75.0,75.0,74.0,73.0,73.0,72.0,73.0,72.0,74.0,71.0,74.0,71.0,68.0,67.0,67.0,66.0,70.0,84.0,79.0,90.0,100.0,102.0,100.0,101.0,110.0,105.0,105.0,104.0,101.0,105.0,104.0,103.0,96.0,93.0,93.0,98.0,96.0,95.0,97.0,98.0,97.0,96.0,92.0,87.0,84.0,83.0,78.0,74.0,72.0,74.0,69.0,66.0,64.0,63.0,58.0,57.0,57.0,55.0,53.0,51.0,49.0,46.0,46.0,45.0,46.0,44.0,44.0,44.0,42.0,44.0,44.0,45.0,43.0,44.0,44.0,42.0,44.0,46.0,43.0,42.0,41.0,41.0,38.0,38.0,37.0,37.0,37.0,37.0,38.0,40.0,41.0,42.0,44.0,44.0,45.0,43.0,44.0,45.0,43.0,45.0,45.0,47.0,49.0,50.0,49.0,48.0,47.0,47.0,47.0,50.0,48.0,47.0,46.0,45.0,45.0,44.0,45.0,46.0,49.0,51.0,52.0,50.0,49.0,50.0,50.0,51.0,50.0,51.0,50.0,50.0,50.0,48.0,48.0,48.0,46.0,47.0,46.0,46.0,44.0,43.0,41.0,41.0,42.0,41.0,41.0,39.0,40.0,38.0,40.0,39.0,39.0,39.0,38.0,40.0,40.0,39.0,42.0,41.0,41.0,38.0,40.0,37.0,37.0,37.0,37.0,38.0,36.0,37.0,36.0,36.0,36.0,37.0,38.0,36.0,39.0,37.0,37.0,40.0,39.0,39.0,38.0,41.0,42.0,43.0,45.0,45.0,44.0,44.0,45.0,46.0,46.0,47.0,47.0,46.0,46.0,48.0,48.0,48.0,45.0,44.0,44.0,42.0,41.0,39.0,40.0,40.0,39.0,39.0,39.0,41.0,40.0,41.0,40.0,39.0,40.0,39.0,38.0,39.0,40.0,39.0,40.0,40.0,38.0,38.0,38.0,38.0,38.0,37.0,37.0,35.0,35.0,38.0,38.0,38.0,39.0,38.0,38.0,37.0,37.0,38.0,39.0,41.0,41.0,41.0,45.0,43.0,42.0,42.0,41.0,42.0,40.0,41.0,41.0,42.0,41.0,40.0,40.0,39.0,39.0,39.0,38.0,37.0,39.0,40.0,38.0,38.0,38.0,36.0,36.0,35.0,37.0,36.0,36.0,36.0,35.0,36.0,35.0,36.0,36.0,36.0,36.0,38.0,38.0,37.0,37.0,37.0,37.0,36.0,37.0,36.0,35.0,38.0,38.0,39.0,38.0,38.0,37.0,37.0,38.0,37.0,37.0,38.0,39.0,39.0,39.0,39.0,38.0,38.0,38.0,36.0,36.0,37.0,38.0,36.0,37.0,36.0,36.0,35.0,35.0,36.0,36.0,38.0,38.0,38.0,38.0,37.0,37.0,36.0,36.0,35.0,35.0,37.0,37.0,39.0,36.0,37.0,37.0,37.0,37.0,37.0,38.0,37.0,38.0,38.0,37.0,36.0,36.0,35.0,36.0,36.0,36.0,36.0,36.0,37.0,38.0,36.0,36.0,36.0,36.0,35.0,36.0,37.0,36.0,38.0,40.0,40.0,39.0,39.0,38.0,36.0,37.0,38.0,37.0,39.0,39.0,39.0,38.0,38.0,37.0,36.0,38.0,37.0,39.0,38.0,39.0,39.0,39.0,38.0,38.0,39.0,39.0,38.0,37.0,38.0,37.0,37.0,37.0,36.0,35.0,36.0,36.0,37.0,37.0,38.0,38.0,38.0,38.0,38.0,37.0,37.0,39.0,38.0,38.0,37.0,37.0,37.0,36.0,37.0,36.0,35.0,35.0,35.0,36.0,37.0,37.0,37.0,36.0,37.0,36.0,35.0,36.0,35.0,36.0,37.0,37.0,37.0,37.0,36.0,37.0,36.0,36.0,37.0,37.0,41.0,40.0,40.0,39.0,41.0,41.0,43.0,43.0,44.0,42.0,42.0,42.0,43.0,43.0,43.0,45.0,46.0,44.0,44.0,43.0,44.0,44.0,43.0,44.0,42.0,42.0,40.0,40.0,40.0,42.0,42.0,42.0,44.0,46.0,45.0,47.0,45.0,48.0,46.0,46.0,45.0,44.0,45.0,45.0,45.0,46.0,46.0,47.0,47.0,50.0,49.0,50.0,48.0,48.0,47.0,47.0,48.0,48.0,50.0,50.0,51.0,51.0,54.0,54.0,54.0,56.0,57.0,58.0,58.0,58.0,58.0,61.0,59.0,58.0,58.0,59.0,60.0,61.0,62.0,64.0,65.0,65.0,65.0,64.0,64.0,63.0,61.0,58.0,57.0,54.0,53.0,54.0,54.0,57.0,60.0,58.0,59.0,57.0,57.0,56.0,56.0,54.0,53.0,51.0,50.0,48.0,49.0,47.0,46.0,46.0,46.0,45.0,45.0,44.0,44.0,45.0,45.0,48.0,47.0,47.0,47.0,48.0,50.0,51.0,50.0,50.0,50.0,51.0,54.0,52.0,53.0,54.0,55.0,56.0,57.0,59.0,58.0,59.0,58.0,60.0,58.0,59.0,59.0,58.0,61.0,60.0,61.0,63.0,63.0,63.0,62.0,63.0,63.0,62.0,60.0,60.0,60.0,58.0,57.0,56.0,55.0,53.0,53.0,54.0,52.0,51.0,51.0,50.0,48.0,46.0,45.0,42.0,43.0,43.0,43.0,46.0,47.0,47.0,44.0,44.0,44.0,45.0,45.0,45.0,48.0,46.0,50.0,48.0,48.0,49.0,49.0,50.0,48.0,49.0,49.0,48.0,47.0,45.0,47.0,44.0,47.0,45.0,45.0,44.0,44.0,44.0,42.0,42.0,41.0,42.0,41.0,40.0,41.0,39.0,39.0,39.0,40.0,39.0,39.0,38.0,36.0,37.0,36.0,36.0,35.0,35.0,36.0,35.0,34.0,34.0,36.0,35.0
54.0,51.0,49.0,47.0,42.0,47.0,51.0,53.0,52.0,53.0,49.0,46.0,49.0,58.0,56.0,54.0,50.0,49.0,48.0,55.0,61.0,58.0,56.0,53.0,57.0,60.0,59.0,62.0,54.0,55.0,60.0,57.0,51.0,47.0,45.0,45.0,44.0,45.0,45.0,51.0,48.0,50.0,46.0,43.0,41.0,40.0,36.0,39.0,43.0,68.0,66.0,59.0,58.0,51.0,49.0,44.0,41.0,50.0,63.0,58.0,56.0,49.0,60.0,60.0,54.0,50.0,47.0,42.0,37.0,47.0,57.0,53.0,47.0,42.0,40.0,38.0,45.0,48.0,51.0,48.0,46.0,43.0,39.0,48.0,51.0,46.0,40.0,36.0,35.0,32.0,32.0,40.0,38.0,37.0,37.0,33.0,32.0,30.0,29.0,40.0,35.0,38.0,34.0,30.0,27.0,25.0,27.0,26.0,30.0,31.0,28.0,25.0,24.0,22.0,20.0,17.0,16.0,14.0,13.0,10.0,11.0,10.0,10.0,9.0,7.0,8.0,7.0,7.0,6.0,9.0,8.0,7.0,10.0,20.0,22.0,21.0,19.0,16.0,15.0,14.0,16.0,14.0,13.0,21.0,22.0,20.0,22.0,22.0,21.0,23.0,21.0,18.0,16.0,14.0,14.0,17.0,15.0,14.0,12.0,12.0,12.0,11.0,9.0,9.0,10.0,9.0,7.0,7.0,7.0,7.0,9.0,9.0,8.0,7.0,8.0,7.0,7.0,5.0,6.0,6.0,6.0,5.0,5.0,5.0,4.0,5.0,4.0,4.0,4.0,3.0,4.0,4.0,5.0,5.0,4.0,5.0,5.0,4.0,4.0,5.0,5.0,4.0,5.0,5.0,5.0,4.0,5.0,4.0,4.0,4.0,3.0,4.0,3.0,4.0,3.0,5.0,3.0,3.0,4.0,3.0,3.0,4.0,4.0,3.0,3.0,4.0,4.0,5.0,3.0,4.0,4.0,4.0,4.0,4.0,5.0,4.0,4.0,4.0,3.0,3.0,3.0,4.0,4.0,4.0,3.0,3.0,4.0,3.0,4.0,4.0,4.0,3.0,3.0,4.0,3.0,5.0,3.0,3.0,4.0,3.0,4.0,3.0,3.0,4.0,3.0,4.0,4.0,4.0,3.0,5.0,3.0,3.0,3.0,3.0,4.0,3.0,3.0,3.0,4.0,4.0,3.0,4.0,4.0,4.0,4.0,3.0,4.0,3.0,4.0,4.0,5.0,4.0,4.0,4.0,3.0,4.0,3.0,5.0,4.0,3.0,4.0,3.0,4.0,3.0,5.0,4.0,3.0,3.0,3.0,4.0,4.0,3.0,4.0,3.0,4.0,3.0,3.0,3.0,4.0,2.0,3.0,3.0,3.0,3.0,3.0,4.0,3.0,3.0,3.0,3.0,3.0,3.0,5.0,4.0,5.0,3.0,3.0,4.0,5.0,11.0,10.0,12.0,47.0,61.0,103.0,160.0,186.0,222.0,219.0,302.0,307.0,306.0,311.0,279.0,266.0,246.0,225.0,219.0,201.0,186.0,167.0,155.0,144.0,139.0,126.0,117.0,114.0,119.0,105.0,98.0,93.0,85.0,81.0,78.0,84.0,86.0,79.0,77.0,71.0,64.0,64.0,67.0,66.0,64.0,59.0,62.0,61.0,68.0,65.0,56.0,56.0,49.0,45.0,45.0,52.0,48.0,44.0,51.0,46.0,43.0,40.0,47.0,47.0,40.0,36.0,32.0,29.0,26.0,23.0,22.0,21.0,20.0,23.0,35.0,36.0,34.0,31.0,27.0,24.0,21.0,20.0,24.0,31.0,39.0,34.0,30.0,33.0,31.0,31.0,29.0,27.0,37.0,36.0,35.0,50.0,46.0,40.0,35.0,30.0,27.0,30.0,30.0,34.0,31.0,28.0,24.0,21.0,32.0,29.0,34.0,33.0,36.0,33.0,31.0,35.0,30.0,30.0,28.0,31.0,30.0,27.0,23.0,21.0,19.0,16.0,15.0,20.0,20.0,18.0,18.0,16.0,15.0,13.0,22.0,25.0,22.0,19.0,19.0,28.0,31.0,27.0,34.0,30.0,27.0,27.0,24.0,22.0,18.0,17.0,18.0,16.0,16.0,13.0,13.0,12.0,15.0,20.0,19.0,19.0,27.0,27.0,23.0,32.0,27.0,25.0,21.0,19.0,18.0,18.0,19.0,20.0,27.0,26.0,23.0,21.0,17.0,18.0,16.0,14.0,13.0,12.0,30.0,26.0,23.0,22.0,19.0,17.0,20.0,18.0,17.0,15.0,15.0,16.0,15.0,25.0,25.0,21.0,20.0,17.0,15.0,14.0,13.0,19.0,28.0,26.0,23.0,24.0,22.0,20.0,18.0,16.0,15.0,14.0,13.0,11.0,13.0,30.0,34.0,36.0,33.0,32.0,30.0,25.0,23.0,20.0,18.0,16.0,16.0,15.0,21.0,21.0,17.0,15.0,14.0,13.0,11.0,11.0,13.0,28.0,23.0,21.0,18.0,17.0,15.0,17.0,15.0,18.0,32.0,31.0,30.0,28.0,25.0,21.0,20.0,17.0,16.0,17.0,21.0,29.0,34.0,31.0,27.0,24.0,22.0,19.0,18.0,29.0,27.0,24.0,26.0,23.0,20.0,19.0,21.0,19.0,17.0,19.0,25.0,24.0,23.0,20.0,17.0,18.0,15.0,20.0,19.0,31.0,26.0,24.0,24.0,22.0,19.0,17.0,17.0,14.0,16.0,20.0,18.0,18.0,15.0,15.0,12.0,12.0,11.0,12.0,13.0,16.0,21.0,18.0,17.0,16.0,14.0,13.0,11.0,11.0,10.0,22.0,30.0,30.0,26.0,23.0,21.0,18.0,16.0,15.0,16.0,16.0,21.0,23.0,20.0,18.0,16.0,15.0,15.0,15.0,17.0,16.0,18.0,19.0,17.0,16.0,13.0,14.0,12.0,11.0,10.0,9.0,9.0,13.0,18.0,16.0,15.0,14.0,11.0,11.0,9.0,11.0,9.0,16.0,18.0,16.0,15.0,15.0,15.0,12.0,12.0,11.0,9.0,9.0,23.0,21.0,18.0,18.0,16.0,14.0,21.0,20.0,20.0,17.0,16.0,16.0,15.0,14.0,12.0,12.0,10.0,18.0,18.0,16.0,16.0,17.0,20.0,17.0,16.0,14.0,15.0,15.0,21.0,20.0,16.0,15.0,14.0,17.0,16.0,14.0,14.0,11.0,17.0,18.0,17.0,18.0,15.0,14.0,12.0,12.0,11.0,10.0,11.0,11.0,14.0,18.0,18.0,16.0,16.0,15.0,17.0,17.0,15.0,27.0,24.0,21.0,19.0,17.0,16.0,15.0,14.0,13.0,12.0,12.0,10.0,11.0,10.0,8.0,13.0,29.0,25.0,21.0,20.0,18.0,17.0,15.0,13.0,13.0,11.0,11.0,8.0,8.0,18.0,16.0,15.0,13.0,15.0,13.0,11.0,11.0,19.0,19.0,16.0,15.0,13.0,12.0,11.0,10.0,9.0,9.0,9.0,10.0,10.0,21.0,19.0,17.0,17.0,15.0,13.0,12.0,11.0,10.0,11.0,20.0,22.0,19.0,18.0,16.0,14.0,14.0,12.0,11.0,10.0,9.0,15.0,19.0,18.0,15.0,15.0,12.0,11.0,10.0,9.0,18.0,19.0,18.0,17.0,15.0,14.0,13.0,13.0,11.0,10.0,9.0,7.0,8.0,7.0,13.0,13.0,13.0,10.0,10.0,9.0,10.0,11.0,10.0,10.0,9.0,8.0,17.0,18.0,20.0,17.0,18.0,15.0,15.0,14.0,11.0,18.0,17.0,24.0,28.0,26.0,23.0,21.0,20.0,17.0,17.0,14.0,13.0,13.0,27.0,32.0,27.0,26.0,22.0,20.0,18.0,16.0,16.0,15.0,16.0,19.0,25.0,22.0,19.0,19.0,16.0,16.0,14.0,12.0,11.0,10.0,11.0,11.0,21.0,19.0,17.0,16.0,14.0,13.0,12.0,11.0,10.0,11.0,10.0,9.0,13.0,21.0,21.0,18.0,17.0,16.0,16.0,14.0,13.0,12.0,10.0,20.0,26.0,31.0,29.0,25.0,24.0,21.0,18.0,16.0,16.0,16.0,23.0,31.0,28.0,24.0,21.0,19.0,18.0,15.0,15.0,13.0,13.0,12.0,11.0,11.0,23.0,23.0,20.0,17.0,16.0,15.0,15.0,14.0,13.0,10.0,10.0,9.0,11.0,11.0,9.0,12.0,24.0,23.0,21.0,19.0,18.0,17.0,15.0,14.0,12.0,11.0,11.0,10.0,9.0,12.0,12.0,11.0
116.0,126.0,118.0,109.0,118.0,110.0,127.0,124.0,121.0,115.0,111.0,110.0,115.0,110.0,129.0,127.0,115.0,110.0,107.0,109.0,110.0,119.0,117.0,116.0,113.0,102.0,115.0,109.0,112.0,109.0,100.0,103.0,102.0,102.0,109.0,109.0,98.0,105.0,107.0,105.0,112.0,117.0,113.0,110.0,104.0,100.0,98.0,97.0,99.0,92.0,93.0,104.0,109.0,105.0,107.0,104.0,96.0,90.0,90.0,88.0,83.0,84.0,92.0,94.0,100.0,100.0,101.0,104.0,102.0,98.0,101.0,102.0,104.0,102.0,111.0,119.0,118.0,116.0,109.0,111.0,107.0,97.0,95.0,102.0,108.0,108.0,102.0,105.0,108.0,116.0,124.0,138.0,129.0,119.0,125.0,131.0,129.0,121.0,117.0,121.0,117.0,112.0,113.0,108.0,100.0,100.0,101.0,107.0,107.0,111.0,113.0,116.0,114.0,112.0,108.0,100.0,93.0,85.0,85.0,89.0,82.0,81.0,78.0,88.0,97.0,89.0,86.0,82.0,87.0,91.0,89.0,95.0,89.0,92.0,94.0,92.0,95.0,92.0,98.0,98.0,110.0,135.0,132.0,124.0,126.0,138.0,137.0,143.0,142.0,135.0,140.0,136.0,145.0,141.0,135.0,127.0,125.0,149.0,147.0,145.0,149.0,145.0,145.0,144.0,139.0,137.0,132.0,127.0,126.0,116.0,114.0,116.0,115.0,121.0,117.0,128.0,129.0,125.0,120.0,126.0,123.0,118.0,120.0,136.0,131.0,126.0,133.0,152.0,146.0,134.0,129.0,124.0,128.0,130.0,134.0,135.0,154.0,162.0,174.0,179.0,178.0,181.0,190.0,185.0,183.0,181.0,173.0,159.0,156.0,156.0,161.0,154.0,142.0,146.0,147.0,173.0,169.0,158.0,151.0,155.0,160.0,166.0,154.0,153.0,146.0,151.0,144.0,136.0,131.0,132.0,131.0,125.0,116.0,110.0,113.0,114.0,121.0,118.0,127.0,121.0,124.0,121.0,126.0,122.0,130.0,121.0,113.0,117.0,116.0,114.0,112.0,120.0,116.0,123.0,122.0,118.0,111.0,103.0,103.0,105.0,110.0,111.0,102.0,105.0,106.0,113.0,117.0,112.0,104.0,93.0,92.0,93.0,103.0,117.0,113.0,139.0,135.0,141.0,130.0,119.0,119.0,114.0,123.0,114.0,120.0,132.0,143.0,162.0,154.0,147.0,147.0,136.0,137.0,133.0,130.0,128.0,121.0,117.0,122.0,126.0,129.0,126.0,117.0,119.0,118.0,112.0,112.0,108.0,108.0,106.0,110.0,116.0,126.0,132.0,123.0,116.0,109.0,113.0,111.0,108.0,110.0,108.0,111.0,110.0,112.0,110.0,107.0,107.0,122.0,115.0,118.0,112.0,110.0,104.0,105.0,108.0,149.0,156.0,146.0,138.0,132.0,132.0,141.0,158.0,182.0,193.0,206.0,230.0,276.0,329.0,322.0,337.0,378.0,351.0,382.0,360.0,388.0,381.0,344.0,311.0,333.0,340.0,306.0,283.0,262.0,253.0,237.0,239.0,227.0,209.0,193.0,182.0,195.0,179.0,182.0,176.0,189.0,187.0,174.0,176.0,174.0,167.0,180.0,166.0,163.0,150.0,174.0,167.0,155.0,155.0,146.0,141.0,141.0,128.0,132.0,133.0,133.0,133.0,131.0,135.0,141.0,129.0,128.0,119.0,109.0,111.0,109.0,106.0,98.0,97.0,96.0,99.0,96.0,98.0,111.0,123.0,128.0,134.0,141.0,132.0,121.0,114.0,129.0,120.0,119.0,113.0,118.0,116.0,112.0,120.0,120.0,111.0,113.0,115.0,119.0,114.0,111.0,103.0,111.0,109.0,108.0,126.0,129.0,124.0,119.0,110.0,116.0,118.0,115.0,119.0,111.0,107.0,112.0,114.0,109.0,105.0,96.0,91.0,92.0,111.0,135.0,129.0,127.0,124.0,119.0,120.0,122.0,115.0,107.0,113.0,110.0,107.0,112.0,106.0,115.0,111.0,107.0,117.0,116.0,111.0,109.0,103.0,98.0,94.0,114.0,124.0,114.0,109.0,106.0,100.0,97.0,114.0,113.0,103.0,104.0,99.0,93.0,107.0,103.0,110.0,105.0,103.0,104.0,97.0,106.0,103.0,100.0,95.0,89.0,86.0,85.0,83.0,94.0,109.0,107.0,103.0,102.0,100.0,107.0,103.0,103.0,101.0,103.0,115.0,115.0,118.0,108.0,106.0,98.0,100.0,101.0,100.0,105.0,108.0,107.0,114.0,107.0,100.0,106.0,110.0,122.0,128.0,123.0,114.0,112.0,108.0,100.0,100.0,107.0,116.0,113.0,108.0,104.0,115.0,119.0,114.0,116.0,120.0,116.0,112.0,106.0,106.0,99.0,93.0,91.0,87.0,88.0,90.0,84.0,84.0,82.0,87.0,98.0,96.0,93.0,91.0,88.0,82.0,81.0,77.0,77.0,72.0,82.0,79.0,85.0,84.0,81.0,77.0,80.0,94.0,91.0,95.0,91.0,91.0,91.0,88.0,92.0,93.0,98.0,98.0,96.0,97.0,102.0,108.0,105.0,100.0,98.0,97.0,108.0,125.0,122.0,121.0,118.0,107.0,98.0,89.0,82.0,94.0,97.0,99.0,95.0,89.0,93.0,93.0,88.0,100.0,94.0,87.0,85.0,82.0,77.0,71.0,88.0,90.0,94.0,88.0,101.0,99.0,98.0,96.0,89.0,89.0,83.0,86.0,95.0,87.0,86.0,83.0,76.0,70.0,65.0,62.0,59.0,60.0,57.0,55.0,64.0,67.0,64.0,60.0,55.0,51.0,50.0,56.0,60.0,63.0,67.0,67.0,67.0,64.0,59.0,54.0,56.0,66.0,66.0,67.0,67.0,81.0,86.0,82.0,87.0,79.0,74.0,71.0,65.0,65.0,74.0,94.0,100.0,106.0,109.0,106.0,98.0,92.0,84.0,90.0,92.0,87.0,81.0,79.0,76.0,86.0,92.0,104.0,101.0,96.0,89.0,88.0,87.0,84.0,86.0,92.0,83.0,83.0,80.0,82.0,79.0,85.0,84.0,84.0,82.0,87.0,87.0,85.0,87.0,89.0,83.0,81.0,80.0,87.0,94.0,91.0,83.0,79.0,78.0,97.0,96.0,94.0,88.0,85.0,83.0,82.0,88.0,82.0,85.0,78.0,76.0,79.0,85.0,90.0,90.0,84.0,79.0,78.0,81.0,77.0,72.0,72.0,73.0,74.0,74.0,73.0,72.0,74.0,73.0,68.0,68.0,65.0,67.0,77.0,84.0,76.0,76.0,71.0,72.0,71.0,103.0,109.0,100.0,95.0,91.0,87.0,80.0,75.0,78.0,82.0,84.0,82.0,81.0,81.0,82.0,80.0,80.0,74.0,69.0,68.0,64.0,63.0,61.0,56.0,52.0,51.0,52.0,49.0,47.0,51.0,48.0,51.0,55.0,61.0,61.0,61.0,76.0,74.0,72.0,69.0,67.0,68.0,69.0,70.0,70.0,79.0,75.0,74.0,70.0,65.0,66.0,71.0,79.0,83.0,85.0,85.0,80.0,82.0,78.0,73.0,78.0,77.0,78.0,82.0,79.0,78.0,78.0,74.0,68.0,65.0,60.0,60.0,55.0,55.0,53.0,50.0,52.0,60.0,64.0,66.0,68.0,70.0,70.0,65.0,63.0,62.0,60.0,68.0,71.0,72.0,72.0,69.0,72.0,67.0,70.0,67.0,65.0,65.0,73.0,78.0,72.0,74.0,71.0,74.0,74.0,74.0,73.0,74.0,74.0,77.0,74.0,81.0,88.0,80.0,79.0,80.0,77.0,78.0,75.0,75.0,82.0,74.0,77.0,82.0,83.0,93.0,96.0,97.0,100.0,98.0,90.0,87.0,85.0,91.0,88.0,99.0,102.0,99.0,90.0,83.0,87.0,81.0,84.0,84.0,87.0,89.0,84.0,88.0,85.0,84.0,79.0,81.0,84.0,89.0,94.0,90.0,87.0,89.0,89.0,92.0,89.0,98.0,97.0,95.0,91.0,86.0,83.0,77.0,79.0,92.0,88.0,97.0,99.0,93.0,101.0,106.0,100.0,98.0,98.0,98.0,93.0,89.0,83.0,78.0,72.0,68.0,73.0,75.0,83.0,79.0,75.0,74.0,82.0,80.0,87.0,81.0,79.0,74.0,83.0,86.0,81.0,90.0,91.0,89.0,88.0,89.0,85.0,87.0,91.0,86.0,87.0,80.0,78.0,84.0,82.0,86.0,81.0,81.0,78.0,80.0,75.0,70.0,65.0,63.0
