52.0,53.0,51.0,52.0,53.0,54.0,55.0,54.0,55.0,57.0,57.0,57.0,58.0,57.0,56.0,56.0,57.0,56.0,55.0,56.0,55.0,55.0,58.0,58.0,59.0,58.0,58.0,59.0,58.0,58.0,58.0,57.0,56.0,56.0,56.0,54.0,55.0,54.0,55.0,55.0,55.0,56.0,55.0,56.0,57.0,57.0,57.0,56.0,55.0,54.0,53.0,54.0,54.0,55.0,57.0,58.0,59.0,58.0,59.0,60.0,60.0,60.0,60.0,60.0,61.0,62.0,64.0,65.0,67.0,68.0,70.0,72.0,72.0,71.0,72.0,72.0,72.0,70.0,69.0,69.0,70.0,68.0,67.0,67.0,66.0,64.0,64.0,64.0,64.0,64.0,64.0,64.0,63.0,63.0,62.0,62.0,63.0,63.0,60.0,60.0,61.0,62.0,63.0,64.0,63.0,62.0,62.0,63.0,64.0,64.0,65.0,64.0,64.0,66.0,66.0,67.0,68.0,71.0,72.0,71.0,72.0,72.0,72.0,73.0,74.0,75.0,76.0,76.0,74.0,75.0,72.0,73.0,73.0,71.0,71.0,71.0,70.0,70.0,70.0,69.0,67.0,65.0,65.0,64.0,61.0,60.0,59.0,58.0,57.0,57.0,59.0,59.0,61.0,62.0,62.0,63.0,63.0,63.0,63.0,65.0,64.0,64.0,65.0,65.0,64.0,63.0,63.0,63.0,62.0,61.0,61.0,60.0,60.0,59.0,58.0,55.0,55.0,54.0,53.0,53.0,53.0,54.0,54.0,55.0,55.0,55.0,55.0,55.0,56.0,55.0,56.0,56.0,56.0,57.0,59.0,59.0,59.0,59.0,59.0,60.0,60.0,60.0,62.0,62.0,64.0,67.0,66.0,68.0,68.0,66.0,66.0,68.0,67.0,68.0,69.0,68.0,66.0,64.0,65.0,65.0,64.0,63.0,64.0,64.0,63.0,64.0,64.0,63.0,63.0,64.0,66.0,65.0,65.0,64.0,63.0,62.0,61.0,62.0,60.0,62.0,62.0,61.0,61.0,60.0,60.0,60.0,60.0,60.0,60.0,61.0,61.0,62.0,62.0,60.0,59.0,59.0,59.0,58.0,58.0,57.0,56.0,57.0,57.0,56.0,55.0,53.0,52.0,53.0,53.0,53.0,53.0,54.0,53.0,52.0,54.0,54.0,54.0,53.0,55.0,54.0,52.0,52.0,54.0,54.0,53.0,55.0,54.0,55.0,55.0,54.0,54.0,54.0,54.0,55.0,54.0,55.0,55.0,57.0,58.0,58.0,58.0,60.0,60.0,60.0,62.0,64.0,64.0,63.0,62.0,61.0,61.0,60.0,60.0,61.0,60.0,59.0,61.0,59.0,59.0,58.0,57.0,57.0,55.0,54.0,53.0,55.0,54.0,54.0,54.0,52.0,53.0,51.0,50.0,50.0,51.0,51.0,50.0,52.0,53.0,54.0,54.0,55.0,57.0,56.0,57.0,56.0,57.0,56.0,57.0,73.0,74.0,95.0,91.0,96.0,131.0,166.0,192.0,188.0,236.0,268.0,296.0,327.0,319.0,382.0,357.0,351.0,352.0,337.0,324.0,311.0,296.0,274.0,249.0,227.0,206.0,189.0,191.0,188.0,174.0,162.0,149.0,139.0,129.0,119.0,124.0,126.0,118.0,113.0,110.0,104.0,102.0,108.0,102.0,97.0,102.0,97.0,94.0,89.0,89.0,88.0,86.0,84.0,82.0,79.0,78.0,78.0,79.0,79.0,83.0,84.0,87.0,86.0,87.0,85.0,82.0,84.0,81.0,81.0,81.0,82.0,81.0,81.0,80.0,79.0,76.0,82.0,82.0,82.0,81.0,80.0,78.0,74.0,75.0,72.0,74.0,72.0,70.0,70.0,68.0,69.0,68.0,66.0,65.0,64.0,65.0,64.0,64.0,65.0,63.0,63.0,63.0,60.0,59.0,59.0,63.0,71.0,70.0,68.0,66.0,66.0,65.0,66.0,66.0,67.0,68.0,65.0,65.0,63.0,61.0,64.0,63.0,60.0,64.0,61.0,60.0,61.0,60.0,58.0,56.0,54.0,54.0,54.0,53.0,53.0,55.0,55.0,54.0,56.0,59.0,59.0,57.0,58.0,56.0,55.0,54.0,57.0,56.0,56.0,58.0,58.0,58.0,57.0,58.0,58.0,57.0,55.0,54.0,57.0,57.0,58.0,57.0,56.0,56.0,55.0,54.0,53.0,53.0,53.0,53.0,51.0,51.0,51.0,53.0,53.0,54.0,54.0,53.0,51.0,51.0,52.0,52.0,52.0,51.0,54.0,54.0,53.0,52.0,51.0,51.0,50.0,51.0,50.0,51.0,51.0,51.0,51.0,52.0,56.0,53.0,56.0,55.0,53.0,55.0,58.0,58.0,58.0,57.0,56.0,60.0,57.0,56.0,57.0,58.0,58.0,57.0,57.0,57.0,57.0,58.0,56.0,58.0,56.0,56.0,62.0,61.0,62.0,62.0,62.0,62.0,62.0,59.0,60.0,58.0,58.0,60.0,58.0,56.0,55.0,54.0,54.0,53.0,53.0,53.0,53.0,54.0,53.0,52.0,53.0,52.0,51.0,51.0,51.0,48.0,49.0,49.0,50.0,51.0,55.0,54.0,52.0,53.0,52.0,51.0,53.0,52.0,51.0,50.0,52.0,51.0,51.0,51.0,50.0,52.0,52.0,51.0,51.0,53.0,54.0,65.0,63.0,71.0,72.0,76.0,89.0,96.0,94.0,101.0,103.0,117.0,118.0,123.0,135.0,147.0,157.0,162.0,163.0,166.0,169.0,169.0,169.0,176.0,178.0,180.0,180.0,179.0,180.0,180.0,177.0,180.0,178.0,177.0,176.0,173.0,173.0,172.0,165.0,166.0,159.0,162.0,161.0,159.0,159.0,155.0,151.0,148.0,148.0,146.0,143.0,144.0,140.0,139.0,137.0,131.0,131.0,129.0,128.0,126.0,123.0,123.0,120.0,119.0,116.0,116.0,114.0,113.0,110.0,108.0,108.0,106.0,104.0,102.0,104.0,101.0,101.0,101.0,98.0,96.0,93.0,94.0,95.0,93.0,93.0,91.0,93.0,90.0,89.0,90.0,87.0,89.0,87.0,89.0,87.0,86.0,86.0,86.0,86.0,86.0,87.0,84.0,84.0,81.0,81.0,81.0,80.0,81.0,78.0,78.0,78.0,79.0,77.0,76.0,76.0,75.0,76.0,77.0,74.0,76.0,76.0,76.0,73.0,75.0,74.0,73.0,73.0,72.0,71.0,69.0,68.0,66.0,65.0,66.0,67.0,67.0,66.0,68.0,67.0,66.0,66.0,65.0,66.0,64.0,66.0,68.0,70.0,71.0,71.0,73.0,71.0,70.0,70.0,68.0,67.0,65.0,66.0,64.0,64.0,63.0,62.0,62.0,61.0,59.0,59.0,60.0,60.0,59.0,57.0,56.0,59.0,56.0,55.0,56.0,56.0,56.0,57.0,59.0,56.0,58.0,60.0,59.0,58.0,59.0,62.0,60.0,61.0,60.0,61.0,60.0,59.0,59.0,58.0,57.0,57.0,56.0,55.0,55.0,54.0,52.0,52.0,51.0,50.0,50.0,49.0,51.0,50.0,52.0,50.0,51.0,52.0,51.0,53.0,56.0,55.0,56.0,56.0,55.0,55.0,54.0,53.0,52.0,52.0,51.0,52.0,50.0,51.0,52.0,52.0,53.0,53.0,52.0,51.0,52.0,52.0,52.0,53.0,54.0,54.0,53.0,53.0,52.0,54.0,53.0,53.0,54.0,55.0,55.0,55.0,54.0,55.0,55.0,53.0,51.0,51.0,51.0,50.0,50.0,48.0,48.0,47.0,49.0,48.0,48.0,47.0,46.0,47.0,47.0,49.0,48.0,48.0,48.0,49.0,50.0,49.0,51.0,53.0,53.0,55.0,57.0,58.0,60.0,62.0,62.0,64.0,63.0,62.0,63.0,63.0,63.0,62.0,59.0,60.0,58.0,57.0,57.0,57.0,58.0,58.0,57.0,58.0,58.0,59.0,59.0,57.0,58.0,58.0,58.0,58.0,57.0,59.0,58.0,55.0,56.0,54.0,55.0,55.0,56.0,53.0,54.0,53.0,53.0,54.0,53.0,52.0,52.0,49.0,49.0,49.0,49.0,48.0,50.0,49.0,48.0,48.0,48.0,48.0,49.0,51.0,50.0,50.0,51.0,51.0,50.0,49.0,49.0,48.0,48.0,48.0,49.0,49.0,50.0,50.0,51.0,50.0,51.0,52.0,52.0,52.0,53.0,53.0,53.0,52.0,51.0,51.0,51.0,50.0,49.0,48.0,48.0,47.0,47.0,45.0
39.0,40.0,41.0,40.0,40.0,40.0,41.0,43.0,45.0,46.0,46.0,47.0,46.0,46.0,47.0,47.0,49.0,49.0,51.0,49.0,50.0,50.0,49.0,50.0,50.0,52.0,52.0,51.0,52.0,49.0,51.0,50.0,49.0,49.0,49.0,48.0,47.0,47.0,44.0,44.0,43.0,43.0,44.0,44.0,44.0,42.0,43.0,42.0,43.0,43.0,42.0,44.0,42.0,40.0,39.0,39.0,38.0,38.0,39.0,38.0,38.0,41.0,42.0,42.0,42.0,44.0,42.0,40.0,39.0,38.0,38.0,37.0,40.0,39.0,41.0,41.0,40.0,39.0,39.0,39.0,37.0,36.0,36.0,35.0,36.0,37.0,37.0,36.0,37.0,37.0,38.0,38.0,37.0,39.0,38.0,40.0,38.0,40.0,40.0,40.0,43.0,40.0,42.0,43.0,43.0,43.0,43.0,43.0,40.0,42.0,43.0,43.0,43.0,41.0,42.0,41.0,41.0,42.0,43.0,45.0,45.0,45.0,44.0,45.0,44.0,47.0,48.0,47.0,51.0,50.0,51.0,52.0,54.0,56.0,57.0,59.0,58.0,58.0,57.0,57.0,56.0,56.0,54.0,54.0,54.0,53.0,51.0,51.0,49.0,53.0,50.0,50.0,49.0,50.0,49.0,49.0,51.0,48.0,48.0,46.0,46.0,46.0,46.0,47.0,46.0,46.0,46.0,46.0,47.0,45.0,46.0,44.0,43.0,42.0,43.0,43.0,44.0,44.0,45.0,46.0,45.0,45.0,45.0,42.0,44.0,44.0,45.0,48.0,46.0,48.0,47.0,50.0,48.0,50.0,49.0,49.0,49.0,47.0,48.0,46.0,47.0,48.0,48.0,48.0,45.0,46.0,44.0,43.0,42.0,41.0,40.0,39.0,38.0,38.0,38.0,39.0,40.0,40.0,39.0,40.0,40.0,40.0,40.0,39.0,39.0,39.0,41.0,39.0,41.0,41.0,40.0,39.0,37.0,38.0,36.0,37.0,35.0,34.0,35.0,35.0,35.0,34.0,34.0,34.0,35.0,36.0,35.0,34.0,34.0,35.0,35.0,36.0,37.0,37.0,38.0,36.0,36.0,37.0,38.0,38.0,39.0,40.0,38.0,39.0,41.0,41.0,41.0,42.0,43.0,44.0,43.0,43.0,43.0,43.0,43.0,43.0,42.0,43.0,42.0,43.0,44.0,43.0,43.0,40.0,42.0,41.0,40.0,39.0,37.0,39.0,38.0,38.0,41.0,42.0,42.0,41.0,43.0,42.0,41.0,41.0,42.0,42.0,44.0,45.0,44.0,44.0,44.0,43.0,44.0,43.0,44.0,42.0,43.0,41.0,42.0,44.0,43.0,44.0,43.0,42.0,41.0,41.0,41.0,41.0,43.0,42.0,43.0,43.0,43.0,42.0,44.0,44.0,44.0,43.0,43.0,45.0,46.0,45.0,46.0,43.0,44.0,43.0,43.0,44.0,43.0,43.0,42.0,43.0,43.0,48.0,49.0,53.0,52.0,52.0,61.0,68.0,73.0,77.0,94.0,108.0,117.0,121.0,125.0,139.0,145.0,161.0,160.0,153.0,148.0,152.0,154.0,159.0,174.0,178.0,178.0,187.0,206.0,205.0,207.0,205.0,203.0,200.0,202.0,196.0,204.0,196.0,189.0,189.0,188.0,180.0,179.0,177.0,173.0,169.0,175.0,171.0,166.0,159.0,156.0,152.0,149.0,147.0,146.0,143.0,141.0,139.0,137.0,139.0,136.0,132.0,134.0,131.0,132.0,127.0,124.0,126.0,124.0,121.0,121.0,122.0,123.0,117.0,114.0,111.0,110.0,111.0,107.0,107.0,102.0,103.0,101.0,100.0,99.0,97.0,96.0,93.0,93.0,92.0,91.0,93.0,90.0,90.0,83.0,83.0,82.0,81.0,79.0,77.0,75.0,74.0,75.0,71.0,70.0,70.0,68.0,67.0,65.0,64.0,66.0,68.0,68.0,66.0,71.0,71.0,74.0,74.0,76.0,77.0,76.0,78.0,77.0,78.0,80.0,76.0,75.0,74.0,72.0,72.0,69.0,66.0,65.0,64.0,65.0,62.0,63.0,64.0,63.0,62.0,62.0,62.0,63.0,63.0,63.0,63.0,62.0,64.0,62.0,61.0,61.0,62.0,61.0,64.0,63.0,64.0,63.0,60.0,58.0,59.0,61.0,59.0,61.0,63.0,61.0,61.0,58.0,59.0,61.0,61.0,59.0,60.0,61.0,60.0,60.0,60.0,59.0,59.0,59.0,61.0,58.0,60.0,61.0,61.0,60.0,60.0,59.0,57.0,60.0,61.0,61.0,62.0,59.0,60.0,60.0,62.0,62.0,61.0,59.0,59.0,61.0,62.0,62.0,62.0,63.0,64.0,64.0,65.0,65.0,67.0,67.0,67.0,67.0,69.0,68.0,67.0,69.0,69.0,69.0,68.0,69.0,68.0,67.0,68.0,70.0,69.0,66.0,67.0,67.0,66.0,68.0,68.0,67.0,67.0,67.0,68.0,64.0,64.0,64.0,65.0,64.0,63.0,65.0,68.0,67.0,68.0,67.0,67.0,66.0,67.0,70.0,69.0,69.0,71.0,74.0,77.0,79.0,77.0,78.0,79.0,78.0,79.0,79.0,79.0,78.0,81.0,79.0,80.0,79.0,79.0,78.0,76.0,75.0,73.0,73.0,72.0,72.0,76.0,83.0,90.0,112.0,106.0,123.0,127.0,125.0,153.0,161.0,153.0,155.0,146.0,140.0,141.0,142.0,143.0,139.0,136.0,127.0,122.0,120.0,119.0,114.0,109.0,114.0,112.0,110.0,108.0,104.0,105.0,106.0,106.0,111.0,112.0,116.0,120.0,121.0,125.0,127.0,125.0,129.0,123.0,127.0,128.0,126.0,126.0,125.0,122.0,120.0,119.0,119.0,116.0,117.0,115.0,116.0,118.0,113.0,116.0,115.0,116.0,114.0,111.0,110.0,107.0,105.0,101.0,100.0,98.0,97.0,97.0,96.0,95.0,94.0,94.0,96.0,96.0,96.0,98.0,98.0,98.0,97.0,94.0,96.0,94.0,94.0,93.0,92.0,93.0,90.0,88.0,88.0,83.0,82.0,79.0,79.0,77.0,74.0,75.0,75.0,73.0,74.0,74.0,73.0,72.0,71.0,70.0,71.0,70.0,69.0,68.0,69.0,71.0,70.0,69.0,69.0,67.0,66.0,64.0,63.0,59.0,58.0,58.0,56.0,54.0,56.0,57.0,57.0,57.0,57.0,56.0,57.0,57.0,57.0,55.0,56.0,58.0,56.0,55.0,56.0,56.0,55.0,54.0,54.0,54.0,53.0,53.0,55.0,56.0,54.0,54.0,53.0,54.0,53.0,53.0,54.0,54.0,53.0,50.0,49.0,48.0,48.0,46.0,46.0,47.0,45.0,46.0,47.0,46.0,47.0,46.0,46.0,46.0,44.0,44.0,45.0,46.0,46.0,46.0,47.0,47.0,49.0,51.0,49.0,47.0,46.0,47.0,46.0,46.0,47.0,48.0,46.0,46.0,47.0,46.0,45.0,46.0,46.0,44.0,45.0,44.0,45.0,44.0,44.0,44.0,44.0,44.0,43.0,45.0,45.0,45.0,47.0,48.0,50.0,51.0,54.0,52.0,54.0,55.0,54.0,55.0,54.0,55.0,55.0,55.0,55.0,55.0,52.0,50.0,51.0,49.0,49.0,47.0,44.0,42.0,42.0,40.0,41.0,41.0,39.0,38.0,37.0,37.0,36.0,35.0,36.0,36.0,36.0,36.0,35.0,35.0,35.0,35.0,34.0,34.0,35.0,36.0,35.0,36.0,36.0,36.0,36.0,37.0,37.0,36.0,37.0,37.0,39.0,38.0,38.0,37.0,36.0,36.0,35.0,36.0,34.0,36.0,36.0,35.0,36.0,36.0,35.0,36.0,36.0,35.0,35.0,35.0,35.0,35.0,34.0,36.0,35.0,35.0,36.0,35.0,37.0,36.0,36.0,38.0,38.0,38.0,39.0,39.0,40.0,39.0,38.0,39.0,38.0,37.0,38.0,36.0,39.0,37.0,37.0,37.0,35.0,37.0,36.0,36.0,36.0,35.0,36.0,35.0,35.0,35.0,34.0,34.0,34.0,35.0,35.0,37.0,35.0,34.0,34.0,35.0,34.0,35.0,35.0,34.0,36.0,35.0,35.0,36.0,36.0,37.0,34.0,36.0,36.0,36.0,35.0,36.0,37.0,36.0,36.0,37.0,36.0,37.0,37.0,38.0,38.0,38.0,39.0,37.0,37.0,37.0,38.0,36.0,37.0,37.0,37.0,36.0,37.0,37.0,36.0,35.0
6.0,7.0,7.0,8.0,7.0,6.0,6.0,6.0,6.0,5.0,6.0,5.0,7.0,5.0,4.0,5.0,5.0,5.0,6.0,7.0,5.0,4.0,4.0,5.0,5.0,4.0,6.0,5.0,4.0,4.0,3.0,4.0,5.0,6.0,5.0,4.0,5.0,5.0,4.0,4.0,4.0,4.0,4.0,5.0,5.0,5.0,7.0,7.0,6.0,6.0,6.0,6.0,7.0,5.0,7.0,6.0,6.0,6.0,7.0,7.0,5.0,6.0,8.0,7.0,8.0,8.0,12.0,11.0,11.0,12.0,11.0,10.0,11.0,11.0,20.0,20.0,17.0,14.0,17.0,15.0,15.0,15.0,14.0,13.0,12.0,12.0,12.0,13.0,12.0,12.0,12.0,11.0,10.0,10.0,10.0,9.0,10.0,9.0,9.0,9.0,9.0,9.0,8.0,9.0,8.0,7.0,8.0,10.0,9.0,9.0,8.0,8.0,8.0,9.0,8.0,7.0,7.0,7.0,8.0,7.0,7.0,7.0,7.0,5.0,7.0,6.0,6.0,7.0,6.0,6.0,8.0,9.0,8.0,7.0,8.0,7.0,6.0,7.0,7.0,6.0,5.0,6.0,5.0,6.0,5.0,7.0,6.0,6.0,5.0,8.0,8.0,7.0,8.0,8.0,7.0,7.0,7.0,7.0,8.0,8.0,8.0,8.0,7.0,7.0,6.0,5.0,7.0,6.0,6.0,7.0,6.0,6.0,5.0,6.0,5.0,5.0,5.0,5.0,5.0,7.0,7.0,7.0,6.0,6.0,6.0,6.0,5.0,15.0,14.0,12.0,12.0,13.0,12.0,10.0,10.0,9.0,9.0,8.0,8.0,7.0,7.0,7.0,6.0,7.0,7.0,7.0,6.0,6.0,6.0,5.0,5.0,5.0,6.0,5.0,5.0,6.0,5.0,5.0,6.0,6.0,6.0,5.0,5.0,4.0,4.0,4.0,4.0,4.0,14.0,18.0,14.0,13.0,12.0,11.0,10.0,9.0,9.0,8.0,9.0,12.0,11.0,10.0,9.0,9.0,7.0,7.0,7.0,6.0,7.0,7.0,9.0,7.0,6.0,6.0,6.0,6.0,5.0,7.0,6.0,5.0,6.0,6.0,6.0,5.0,6.0,6.0,6.0,6.0,5.0,6.0,4.0,5.0,4.0,4.0,5.0,3.0,4.0,4.0,5.0,4.0,6.0,6.0,5.0,5.0,5.0,5.0,6.0,6.0,6.0,6.0,6.0,5.0,6.0,5.0,4.0,5.0,3.0,6.0,7.0,5.0,4.0,4.0,5.0,3.0,4.0,5.0,6.0,4.0,4.0,5.0,3.0,4.0,4.0,5.0,4.0,4.0,4.0,4.0,6.0,5.0,6.0,5.0,5.0,5.0,6.0,7.0,5.0,7.0,6.0,6.0,5.0,3.0,5.0,4.0,5.0,4.0,6.0,7.0,7.0,6.0,6.0,6.0,6.0,6.0,5.0,5.0,5.0,5.0,6.0,4.0,4.0,5.0,3.0,4.0,4.0,5.0,6.0,6.0,12.0,11.0,24.0,27.0,24.0,28.0,33.0,36.0,32.0,31.0,35.0,41.0,51.0,56.0,68.0,65.0,72.0,88.0,115.0,129.0,150.0,166.0,183.0,205.0,229.0,231.0,238.0,240.0,241.0,246.0,255.0,249.0,250.0,249.0,243.0,237.0,240.0,231.0,221.0,211.0,201.0,195.0,190.0,184.0,182.0,170.0,164.0,159.0,155.0,148.0,138.0,130.0,124.0,118.0,114.0,105.0,103.0,99.0,90.0,84.0,84.0,86.0,86.0,78.0,71.0,66.0,64.0,64.0,65.0,61.0,57.0,54.0,55.0,50.0,50.0,48.0,46.0,42.0,38.0,36.0,35.0,40.0,36.0,36.0,32.0,36.0,35.0,37.0,33.0,33.0,30.0,34.0,30.0,29.0,28.0,27.0,26.0,25.0,26.0,25.0,27.0,28.0,28.0,26.0,33.0,32.0,30.0,30.0,27.0,30.0,30.0,33.0,31.0,34.0,38.0,37.0,39.0,39.0,40.0,42.0,41.0,40.0,45.0,49.0,52.0,51.0,51.0,55.0,56.0,54.0,54.0,53.0,57.0,59.0,55.0,59.0,58.0,63.0,59.0,59.0,61.0,61.0,63.0,69.0,71.0,78.0,84.0,83.0,90.0,88.0,95.0,98.0,106.0,116.0,108.0,110.0,115.0,119.0,126.0,129.0,128.0,129.0,134.0,135.0,136.0,139.0,138.0,138.0,141.0,143.0,141.0,140.0,143.0,142.0,147.0,148.0,144.0,142.0,144.0,149.0,152.0,159.0,155.0,155.0,155.0,160.0,162.0,159.0,156.0,153.0,157.0,160.0,159.0,164.0,162.0,163.0,162.0,163.0,167.0,172.0,172.0,174.0,174.0,181.0,172.0,172.0,170.0,171.0,171.0,170.0,173.0,175.0,176.0,177.0,178.0,175.0,175.0,176.0,176.0,176.0,177.0,181.0,175.0,173.0,176.0,178.0,178.0,175.0,176.0,177.0,175.0,177.0,176.0,180.0,180.0,182.0,174.0,173.0,172.0,169.0,169.0,161.0,159.0,158.0,159.0,163.0,157.0,152.0,153.0,150.0,146.0,149.0,151.0,150.0,149.0,150.0,153.0,152.0,154.0,154.0,157.0,160.0,160.0,160.0,158.0,151.0,155.0,157.0,195.0,214.0,255.0,325.0,385.0,398.0,443.0,540.0,546.0,576.0,615.0,616.0,599.0,598.0,623.0,634.0,645.0,585.0,545.0,489.0,437.0,393.0,355.0,312.0,274.0,240.0,209.0,190.0,172.0,172.0,156.0,155.0,140.0,125.0,117.0,102.0,104.0,98.0,91.0,93.0,99.0,104.0,106.0,97.0,88.0,85.0,84.0,86.0,94.0,102.0,101.0,104.0,95.0,94.0,93.0,90.0,93.0,96.0,94.0,99.0,94.0,96.0,94.0,87.0,85.0,95.0,107.0,99.0,104.0,107.0,105.0,104.0,110.0,105.0,108.0,108.0,102.0,100.0,102.0,101.0,99.0,104.0,112.0,112.0,109.0,111.0,108.0,106.0,119.0,112.0,118.0,113.0,113.0,103.0,104.0,103.0,109.0,96.0,97.0,97.0,107.0,100.0,96.0,96.0,94.0,86.0,81.0,75.0,74.0,82.0,88.0,84.0,80.0,84.0,83.0,86.0,90.0,92.0,88.0,92.0,88.0,83.0,79.0,77.0,82.0,84.0,82.0,76.0,79.0,73.0,66.0,64.0,68.0,66.0,76.0,76.0,75.0,74.0,71.0,73.0,70.0,71.0,65.0,67.0,68.0,65.0,77.0,80.0,80.0,78.0,76.0,80.0,77.0,76.0,77.0,71.0,73.0,72.0,72.0,71.0,74.0,74.0,73.0,72.0,74.0,84.0,90.0,87.0,88.0,87.0,88.0,94.0,96.0,89.0,86.0,89.0,83.0,83.0,84.0,80.0,86.0,83.0,75.0,88.0,77.0,77.0,70.0,75.0,77.0,88.0,86.0,87.0,83.0,74.0,70.0,73.0,80.0,81.0,77.0,73.0,75.0,72.0,69.0,69.0,69.0,65.0,72.0,74.0,71.0,68.0,65.0,61.0,69.0,65.0,62.0,63.0,69.0,65.0,63.0,57.0,56.0,52.0,50.0,48.0,43.0,43.0,41.0,41.0,38.0,38.0,37.0,33.0,32.0,33.0,37.0,40.0,38.0,36.0,34.0,34.0,33.0,34.0,33.0,35.0,38.0,41.0,42.0,39.0,42.0,39.0,45.0,44.0,42.0,42.0,40.0,49.0,48.0,50.0,47.0,46.0,44.0,45.0,43.0,40.0,40.0,46.0,45.0,43.0,41.0,40.0,40.0,40.0,43.0,40.0,39.0,37.0,39.0,42.0,39.0,38.0,34.0,34.0,39.0,37.0,34.0,32.0,35.0,37.0,40.0,41.0,39.0,35.0,39.0,36.0,33.0,32.0,32.0,32.0,30.0,28.0,33.0,29.0,31.0,32.0,32.0,30.0,30.0,35.0,34.0,32.0,35.0,38.0,34.0,31.0,28.0,35.0,34.0,33.0,31.0,29.0,26.0,23.0,21.0,26.0,23.0,26.0,22.0,20.0,21.0,19.0,19.0,23.0,25.0,24.0,28.0,25.0,24.0,27.0,27.0,27.0,27.0,26.0,26.0,24.0,24.0,25.0,27.0,28.0,26.0,29.0,26.0,30.0,28.0,25.0,22.0,22.0,26.0,23.0,22.0,21.0,23.0,21.0,21.0,19.0,19.0,19.0,17.0,17.0,16.0,18.0,16.0,17.0,16.0,15.0
45.0,45.0,44.0,46.0,47.0,47.0,51.0,53.0,53.0,53.0,54.0,55.0,53.0,55.0,54.0,53.0,55.0,52.0,54.0,55.0,54.0,50.0,53.0,56.0,51.0,51.0,50.0,50.0,54.0,52.0,51.0,48.0,51.0,51.0,51.0,55.0,55.0,59.0,62.0,60.0,60.0,60.0,62.0,60.0,60.0,60.0,59.0,59.0,57.0,56.0,56.0,59.0,58.0,57.0,55.0,53.0,52.0,49.0,49.0,46.0,47.0,46.0,43.0,44.0,44.0,44.0,46.0,43.0,43.0,42.0,42.0,41.0,41.0,39.0,41.0,47.0,47.0,45.0,44.0,43.0,42.0,44.0,44.0,45.0,43.0,41.0,40.0,39.0,40.0,47.0,48.0,47.0,45.0,46.0,44.0,43.0,46.0,49.0,46.0,45.0,44.0,40.0,42.0,40.0,46.0,48.0,46.0,47.0,46.0,46.0,43.0,45.0,46.0,47.0,47.0,46.0,46.0,44.0,42.0,40.0,39.0,41.0,38.0,39.0,38.0,37.0,37.0,40.0,48.0,46.0,46.0,47.0,45.0,44.0,43.0,42.0,40.0,43.0,45.0,48.0,45.0,47.0,47.0,45.0,44.0,43.0,44.0,41.0,41.0,40.0,39.0,41.0,40.0,40.0,39.0,37.0,38.0,36.0,40.0,40.0,39.0,39.0,37.0,40.0,39.0,40.0,39.0,39.0,38.0,40.0,38.0,36.0,36.0,37.0,36.0,35.0,33.0,33.0,34.0,38.0,37.0,37.0,37.0,37.0,37.0,36.0,36.0,39.0,39.0,39.0,37.0,44.0,42.0,43.0,43.0,43.0,45.0,47.0,48.0,44.0,42.0,40.0,39.0,42.0,41.0,41.0,38.0,39.0,38.0,36.0,37.0,37.0,38.0,38.0,37.0,39.0,39.0,38.0,37.0,36.0,35.0,36.0,39.0,40.0,40.0,38.0,37.0,35.0,43.0,42.0,40.0,45.0,43.0,43.0,40.0,47.0,47.0,46.0,49.0,47.0,47.0,50.0,49.0,46.0,45.0,46.0,45.0,46.0,50.0,49.0,48.0,46.0,44.0,42.0,46.0,44.0,44.0,43.0,41.0,43.0,42.0,41.0,44.0,41.0,43.0,43.0,42.0,45.0,45.0,44.0,45.0,43.0,42.0,45.0,42.0,42.0,40.0,39.0,37.0,36.0,38.0,41.0,42.0,44.0,42.0,41.0,40.0,43.0,41.0,43.0,40.0,40.0,39.0,38.0,37.0,38.0,37.0,39.0,39.0,41.0,41.0,40.0,41.0,41.0,38.0,41.0,39.0,38.0,37.0,37.0,37.0,36.0,36.0,37.0,37.0,37.0,37.0,42.0,40.0,41.0,41.0,42.0,44.0,44.0,44.0,42.0,44.0,44.0,46.0,44.0,43.0,44.0,44.0,43.0,41.0,41.0,43.0,42.0,42.0,40.0,41.0,41.0,41.0,41.0,40.0,43.0,42.0,41.0,42.0,48.0,50.0,56.0,58.0,54.0,56.0,59.0,65.0,71.0,103.0,112.0,149.0,160.0,165.0,190.0,176.0,181.0,201.0,203.0,207.0,231.0,231.0,228.0,295.0,293.0,272.0,276.0,267.0,258.0,244.0,225.0,222.0,236.0,292.0,286.0,268.0,298.0,289.0,283.0,255.0,247.0,234.0,223.0,222.0,216.0,231.0,213.0,209.0,214.0,214.0,200.0,193.0,189.0,191.0,181.0,172.0,184.0,195.0,191.0,185.0,179.0,176.0,194.0,182.0,186.0,173.0,168.0,172.0,176.0,166.0,156.0,158.0,158.0,155.0,162.0,153.0,151.0,144.0,141.0,137.0,138.0,131.0,134.0,131.0,124.0,130.0,131.0,128.0,122.0,119.0,113.0,115.0,116.0,107.0,102.0,107.0,111.0,127.0,122.0,131.0,136.0,134.0,135.0,146.0,145.0,135.0,127.0,125.0,119.0,116.0,108.0,106.0,103.0,125.0,142.0,160.0,150.0,147.0,137.0,131.0,125.0,112.0,101.0,102.0,97.0,95.0,97.0,90.0,91.0,94.0,91.0,95.0,98.0,103.0,99.0,95.0,95.0,101.0,104.0,107.0,104.0,96.0,94.0,93.0,98.0,94.0,98.0,102.0,100.0,97.0,93.0,102.0,134.0,127.0,115.0,118.0,112.0,111.0,114.0,105.0,95.0,104.0,107.0,108.0,107.0,103.0,97.0,101.0,98.0,92.0,89.0,89.0,82.0,87.0,87.0,84.0,77.0,74.0,85.0,107.0,106.0,109.0,110.0,115.0,115.0,107.0,99.0,95.0,87.0,95.0,101.0,100.0,96.0,96.0,92.0,96.0,103.0,98.0,98.0,99.0,93.0,91.0,95.0,94.0,96.0,101.0,96.0,97.0,93.0,93.0,89.0,88.0,93.0,95.0,91.0,104.0,104.0,101.0,103.0,96.0,88.0,87.0,85.0,83.0,89.0,99.0,101.0,97.0,89.0,85.0,91.0,95.0,93.0,104.0,104.0,100.0,97.0,98.0,97.0,92.0,100.0,101.0,92.0,95.0,104.0,120.0,115.0,119.0,156.0,144.0,143.0,143.0,147.0,141.0,136.0,128.0,121.0,116.0,118.0,117.0,113.0,120.0,115.0,116.0,118.0,109.0,101.0,105.0,101.0,104.0,102.0,115.0,126.0,128.0,130.0,121.0,115.0,153.0,168.0,223.0,256.0,329.0,370.0,420.0,522.0,560.0,569.0,574.0,518.0,515.0,518.0,535.0,527.0,525.0,545.0,531.0,510.0,482.0,446.0,438.0,448.0,398.0,401.0,396.0,394.0,386.0,374.0,378.0,372.0,349.0,349.0,343.0,319.0,322.0,322.0,313.0,309.0,301.0,316.0,293.0,276.0,280.0,258.0,259.0,271.0,261.0,244.0,235.0,236.0,226.0,225.0,213.0,230.0,225.0,205.0,197.0,194.0,193.0,187.0,199.0,196.0,190.0,189.0,178.0,190.0,185.0,182.0,175.0,164.0,163.0,166.0,172.0,171.0,171.0,159.0,160.0,150.0,152.0,143.0,147.0,145.0,146.0,137.0,127.0,136.0,128.0,121.0,125.0,115.0,110.0,117.0,107.0,110.0,106.0,123.0,118.0,121.0,111.0,103.0,107.0,97.0,97.0,92.0,98.0,98.0,93.0,101.0,97.0,97.0,91.0,97.0,97.0,98.0,94.0,87.0,96.0,91.0,93.0,97.0,94.0,104.0,109.0,107.0,100.0,100.0,94.0,91.0,87.0,85.0,84.0,91.0,88.0,83.0,90.0,91.0,93.0,90.0,84.0,80.0,75.0,72.0,78.0,83.0,84.0,78.0,79.0,82.0,81.0,77.0,86.0,84.0,80.0,77.0,76.0,72.0,75.0,75.0,73.0,94.0,95.0,90.0,88.0,87.0,87.0,83.0,82.0,75.0,77.0,78.0,75.0,77.0,74.0,74.0,72.0,71.0,70.0,69.0,64.0,67.0,64.0,65.0,74.0,77.0,74.0,77.0,79.0,84.0,85.0,82.0,90.0,87.0,89.0,93.0,94.0,90.0,84.0,77.0,79.0,77.0,88.0,94.0,86.0,82.0,83.0,76.0,71.0,73.0,76.0,80.0,81.0,77.0,74.0,68.0,70.0,71.0,67.0,66.0,66.0,67.0,77.0,79.0,76.0,75.0,72.0,74.0,76.0,75.0,71.0,66.0,63.0,61.0,61.0,60.0,60.0,62.0,58.0,52.0,49.0,47.0,45.0,43.0,44.0,52.0,55.0,60.0,58.0,57.0,57.0,57.0,58.0,59.0,59.0,57.0,55.0,54.0,58.0,55.0,54.0,53.0,53.0,53.0,51.0,51.0,58.0,61.0,63.0,63.0,63.0,68.0,64.0,59.0,63.0,67.0,68.0,65.0,62.0,61.0,60.0,62.0,64.0,65.0,61.0,58.0,71.0,71.0,71.0,68.0,66.0,66.0,68.0,67.0,69.0,66.0,64.0,63.0,66.0,68.0,69.0,70.0,71.0,74.0,75.0,71.0,68.0,65.0,67.0,62.0,63.0,59.0,60.0,60.0,58.0,61.0,66.0,63.0,64.0,62.0,64.0,59.0,58.0,57.0,57.0,55.0,53.0,58.0,63.0,65.0,66.0,66.0,64.0,63.0,60.0,65.0,61.0,60.0,58.0,63.0,59.0,59.0,60.0,57.0,58.0,57.0,58.0,63.0,62.0,64.0,60.0,55.0,56.0,54.0,57.0,58.0,56.0,54.0,54.0,54.0,53.0,52.0,49.0,45.0,49.0,49.0,47.0,50.0,52.0,53.0,63.0,63.0,60.0,57.0
