64.0,64.0,63.0,64.0,63.0,63.0,61.0,61.0,62.0,63.0,62.0,61.0,62.0,60.0,60.0,61.0,61.0,61.0,60.0,62.0,61.0,64.0,65.0,65.0,66.0,65.0,66.0,65.0,67.0,68.0,68.0,69.0,68.0,68.0,68.0,68.0,67.0,67.0,66.0,67.0,66.0,66.0,67.0,66.0,66.0,64.0,64.0,63.0,62.0,62.0,61.0,60.0,61.0,61.0,62.0,63.0,62.0,65.0,65.0,65.0,64.0,65.0,64.0,63.0,63.0,64.0,63.0,63.0,64.0,64.0,65.0,64.0,65.0,66.0,65.0,67.0,67.0,67.0,66.0,65.0,64.0,62.0,61.0,59.0,59.0,58.0,57.0,57.0,57.0,60.0,62.0,62.0,63.0,63.0,62.0,63.0,62.0,64.0,66.0,65.0,67.0,68.0,68.0,68.0,65.0,65.0,65.0,64.0,63.0,61.0,63.0,62.0,63.0,62.0,63.0,63.0,61.0,62.0,62.0,61.0,61.0,61.0,63.0,64.0,66.0,66.0,67.0,67.0,67.0,67.0,64.0,65.0,62.0,61.0,63.0,61.0,58.0,57.0,57.0,58.0,58.0,55.0,54.0,53.0,52.0,52.0,50.0,52.0,51.0,50.0,52.0,51.0,53.0,53.0,51.0,51.0,50.0,49.0,49.0,49.0,47.0,48.0,47.0,47.0,47.0,47.0,49.0,46.0,47.0,46.0,46.0,45.0,46.0,47.0,46.0,48.0,49.0,51.0,51.0,51.0,53.0,53.0,53.0,54.0,53.0,53.0,51.0,51.0,48.0,47.0,46.0,45.0,45.0,44.0,47.0,46.0,47.0,46.0,47.0,48.0,47.0,49.0,49.0,48.0,51.0,51.0,53.0,52.0,53.0,53.0,53.0,53.0,53.0,54.0,53.0,53.0,54.0,55.0,58.0,59.0,60.0,63.0,64.0,64.0,65.0,67.0,67.0,67.0,65.0,67.0,64.0,63.0,63.0,63.0,63.0,61.0,64.0,64.0,64.0,64.0,63.0,65.0,64.0,66.0,67.0,68.0,68.0,67.0,67.0,67.0,67.0,66.0,63.0,65.0,66.0,66.0,66.0,67.0,68.0,68.0,68.0,67.0,67.0,65.0,67.0,63.0,63.0,64.0,64.0,64.0,64.0,63.0,65.0,63.0,63.0,61.0,60.0,60.0,60.0,59.0,58.0,59.0,59.0,58.0,56.0,58.0,58.0,57.0,58.0,59.0,58.0,56.0,57.0,56.0,55.0,57.0,56.0,55.0,53.0,53.0,51.0,52.0,51.0,51.0,52.0,53.0,56.0,58.0,58.0,63.0,70.0,67.0,66.0,70.0,72.0,86.0,84.0,87.0,86.0,91.0,93.0,92.0,102.0,102.0,94.0,89.0,83.0,83.0,82.0,89.0,93.0,89.0,86.0,88.0,91.0,93.0,90.0,87.0,84.0,80.0,79.0,83.0,87.0,86.0,97.0,94.0,87.0,83.0,78.0,76.0,74.0,75.0,77.0,74.0,71.0,71.0,71.0,70.0,71.0,68.0,65.0,63.0,59.0,58.0,61.0,60.0,59.0,60.0,59.0,60.0,59.0,60.0,61.0,57.0,57.0,56.0,55.0,56.0,60.0,60.0,65.0,68.0,69.0,66.0,65.0,66.0,65.0,65.0,63.0,63.0,62.0,65.0,64.0,66.0,64.0,67.0,64.0,61.0,60.0,59.0,59.0,58.0,58.0,59.0,60.0,59.0,61.0,60.0,58.0,57.0,58.0,57.0,58.0,56.0,58.0,59.0,58.0,57.0,57.0,57.0,55.0,60.0,63.0,63.0,61.0,60.0,60.0,57.0,59.0,61.0,64.0,63.0,61.0,62.0,58.0,59.0,60.0,60.0,58.0,57.0,58.0,55.0,54.0,53.0,54.0,56.0,60.0,60.0,58.0,59.0,57.0,56.0,56.0,55.0,57.0,55.0,57.0,58.0,56.0,55.0,53.0,54.0,52.0,53.0,53.0,54.0,55.0,55.0,55.0,56.0,54.0,53.0,51.0,53.0,52.0,53.0,53.0,51.0,52.0,51.0,54.0,55.0,55.0,55.0,55.0,57.0,57.0,56.0,57.0,58.0,59.0,60.0,59.0,59.0,59.0,57.0,58.0,57.0,60.0,59.0,61.0,62.0,61.0,64.0,63.0,64.0,64.0,64.0,63.0,61.0,62.0,62.0,61.0,62.0,61.0,60.0,60.0,60.0,58.0,58.0,62.0,62.0,62.0,61.0,61.0,60.0,64.0,65.0,65.0,64.0,64.0,65.0,64.0,63.0,64.0,64.0,65.0,63.0,64.0,62.0,60.0,61.0,60.0,61.0,64.0,65.0,63.0,63.0,65.0,65.0,65.0,65.0,68.0,66.0,70.0,71.0,73.0,75.0,76.0,76.0,80.0,82.0,87.0,89.0,92.0,93.0,99.0,110.0,111.0,114.0,118.0,121.0,124.0,126.0,126.0,126.0,127.0,127.0,129.0,130.0,129.0,128.0,127.0,127.0,125.0,123.0,121.0,119.0,118.0,116.0,115.0,112.0,110.0,109.0,109.0,108.0,109.0,105.0,107.0,105.0,104.0,102.0,101.0,102.0,98.0,98.0,96.0,93.0,95.0,94.0,90.0,89.0,89.0,88.0,88.0,88.0,87.0,88.0,88.0,85.0,86.0,85.0,87.0,85.0,84.0,85.0,86.0,85.0,83.0,83.0,82.0,84.0,83.0,82.0,79.0,78.0,78.0,77.0,74.0,74.0,74.0,75.0,74.0,74.0,74.0,73.0,74.0,71.0,73.0,73.0,73.0,71.0,72.0,72.0,71.0,71.0,70.0,69.0,68.0,67.0,70.0,67.0,69.0,67.0,67.0,69.0,69.0,70.0,68.0,71.0,70.0,71.0,69.0,70.0,70.0,68.0,68.0,68.0,68.0,68.0,68.0,67.0,65.0,65.0,65.0,65.0,65.0,66.0,65.0,64.0,64.0,64.0,63.0,63.0,64.0,63.0,63.0,62.0,61.0,63.0,62.0,63.0,63.0,63.0,61.0,60.0,61.0,61.0,60.0,59.0,59.0,59.0,58.0,58.0,58.0,57.0,57.0,58.0,56.0,55.0,55.0,55.0,54.0,55.0,55.0,55.0,55.0,54.0,54.0,52.0,52.0,51.0,51.0,51.0,51.0,51.0,49.0,48.0,48.0,49.0,49.0,51.0,50.0,50.0,52.0,52.0,53.0,53.0,55.0,56.0,56.0,57.0,58.0,60.0,61.0,61.0,63.0,64.0,62.0,63.0,62.0,61.0,62.0,64.0,63.0,63.0,63.0,62.0,63.0,63.0,63.0,62.0,62.0,64.0,64.0,64.0,63.0,66.0,64.0,64.0,64.0,64.0,66.0,65.0,68.0,66.0,67.0,67.0,67.0,70.0,69.0,68.0,68.0,69.0,68.0,69.0,70.0,70.0,71.0,69.0,72.0,71.0,74.0,75.0,75.0,76.0,74.0,74.0,74.0,75.0,75.0,73.0,74.0,72.0,73.0,74.0,71.0,72.0,72.0,73.0,71.0,74.0,75.0,76.0,76.0,79.0,79.0,77.0,78.0,77.0,77.0,76.0,76.0,76.0,76.0,77.0,75.0,75.0,73.0,73.0,72.0,71.0,71.0,71.0,70.0,69.0,67.0,69.0,67.0,66.0,67.0,67.0,69.0,69.0,71.0,70.0,71.0,72.0,73.0,73.0,73.0,75.0,74.0,76.0,78.0,77.0,78.0,77.0,77.0,76.0,75.0,75.0,75.0,75.0,73.0,74.0,75.0,76.0,76.0,74.0,74.0,73.0,72.0,72.0,72.0,72.0,71.0,72.0,72.0,72.0,72.0,72.0,73.0,73.0,74.0,75.0,72.0,73.0,73.0,74.0,72.0,73.0,72.0,70.0,70.0,70.0,72.0,70.0,71.0,71.0,75.0,74.0,75.0,76.0,75.0,75.0,74.0,75.0,74.0,73.0,73.0,73.0,73.0,74.0,75.0,76.0,75.0,74.0,72.0,71.0,69.0,68.0,68.0,67.0,65.0,63.0,65.0,64.0,64.0,64.0,62.0,63.0,61.0,62.0,61.0,63.0,61.0,60.0,60.0,59.0,58.0,58.0,60.0,58.0,59.0,59.0,59.0,58.0,57.0,57.0,56.0,55.0,57.0,57.0,57.0,57.0,58.0,58.0,60.0,60.0,59.0,60.0,60.0,60.0,60.0,58.0,58.0,57.0,58.0,56.0,57.0,56.0,55.0,55.0,56.0,55.0,57.0,58.0,59.0,58.0,56.0,56.0,56.0,55.0,55.0,55.0,58.0,59.0,58.0,59.0
46.0,47.0,46.0,46.0,46.0,46.0,47.0,49.0,48.0,46.0,46.0,45.0,43.0,44.0,41.0,41.0,40.0,39.0,39.0,39.0,38.0,37.0,38.0,39.0,38.0,39.0,39.0,39.0,37.0,38.0,38.0,39.0,43.0,45.0,44.0,45.0,46.0,46.0,48.0,50.0,50.0,49.0,48.0,49.0,48.0,50.0,48.0,48.0,47.0,46.0,45.0,44.0,44.0,43.0,43.0,44.0,45.0,45.0,44.0,45.0,45.0,43.0,43.0,44.0,46.0,47.0,47.0,47.0,46.0,46.0,47.0,47.0,47.0,47.0,51.0,48.0,49.0,49.0,53.0,53.0,53.0,56.0,54.0,54.0,53.0,57.0,56.0,56.0,59.0,57.0,55.0,55.0,53.0,52.0,51.0,50.0,48.0,48.0,46.0,47.0,45.0,44.0,44.0,45.0,45.0,45.0,44.0,47.0,45.0,46.0,45.0,45.0,45.0,46.0,45.0,44.0,43.0,42.0,44.0,41.0,41.0,40.0,39.0,38.0,39.0,38.0,40.0,41.0,40.0,40.0,42.0,41.0,40.0,38.0,38.0,38.0,38.0,38.0,38.0,38.0,37.0,37.0,36.0,35.0,36.0,35.0,36.0,35.0,35.0,38.0,36.0,37.0,39.0,39.0,41.0,42.0,43.0,42.0,44.0,42.0,43.0,43.0,44.0,45.0,43.0,42.0,42.0,42.0,41.0,41.0,40.0,39.0,42.0,40.0,40.0,38.0,38.0,38.0,37.0,39.0,38.0,38.0,38.0,41.0,40.0,39.0,39.0,38.0,38.0,37.0,37.0,36.0,37.0,36.0,37.0,37.0,40.0,40.0,41.0,40.0,41.0,40.0,39.0,39.0,39.0,38.0,36.0,38.0,38.0,38.0,38.0,38.0,38.0,38.0,37.0,36.0,37.0,37.0,38.0,38.0,39.0,39.0,39.0,38.0,38.0,39.0,38.0,39.0,40.0,39.0,40.0,39.0,38.0,38.0,36.0,38.0,38.0,41.0,40.0,39.0,38.0,38.0,38.0,38.0,37.0,38.0,39.0,38.0,36.0,38.0,37.0,37.0,36.0,37.0,38.0,38.0,39.0,38.0,39.0,39.0,39.0,40.0,40.0,41.0,40.0,40.0,40.0,41.0,41.0,42.0,43.0,41.0,43.0,42.0,41.0,40.0,39.0,38.0,37.0,39.0,38.0,37.0,38.0,37.0,37.0,38.0,39.0,38.0,37.0,38.0,36.0,44.0,49.0,48.0,58.0,65.0,67.0,65.0,67.0,66.0,65.0,64.0,61.0,62.0,61.0,66.0,103.0,104.0,125.0,157.0,144.0,147.0,166.0,238.0,269.0,332.0,302.0,279.0,260.0,319.0,321.0,301.0,346.0,343.0,334.0,342.0,346.0,357.0,376.0,382.0,347.0,340.0,342.0,336.0,349.0,338.0,347.0,328.0,315.0,306.0,317.0,304.0,292.0,290.0,306.0,289.0,279.0,274.0,273.0,272.0,258.0,257.0,257.0,265.0,243.0,252.0,247.0,235.0,229.0,224.0,218.0,217.0,212.0,208.0,214.0,213.0,204.0,212.0,205.0,204.0,202.0,196.0,194.0,192.0,188.0,189.0,183.0,185.0,188.0,181.0,191.0,192.0,188.0,182.0,175.0,176.0,171.0,177.0,173.0,165.0,165.0,166.0,189.0,177.0,172.0,174.0,165.0,160.0,159.0,161.0,155.0,159.0,164.0,156.0,167.0,166.0,160.0,156.0,153.0,148.0,148.0,150.0,147.0,144.0,157.0,154.0,147.0,142.0,139.0,134.0,137.0,134.0,138.0,136.0,134.0,130.0,126.0,125.0,131.0,137.0,131.0,131.0,129.0,125.0,125.0,127.0,122.0,125.0,126.0,124.0,123.0,119.0,121.0,127.0,120.0,122.0,123.0,118.0,114.0,117.0,117.0,118.0,118.0,114.0,110.0,109.0,115.0,110.0,106.0,106.0,104.0,105.0,106.0,105.0,114.0,105.0,108.0,108.0,106.0,101.0,98.0,98.0,100.0,97.0,99.0,95.0,93.0,100.0,100.0,95.0,107.0,104.0,106.0,104.0,110.0,106.0,108.0,116.0,112.0,110.0,113.0,108.0,117.0,108.0,106.0,106.0,108.0,110.0,105.0,112.0,116.0,113.0,109.0,109.0,106.0,101.0,105.0,103.0,100.0,103.0,99.0,106.0,103.0,104.0,100.0,98.0,104.0,96.0,98.0,100.0,99.0,97.0,97.0,96.0,97.0,106.0,102.0,98.0,96.0,96.0,95.0,91.0,95.0,96.0,94.0,94.0,91.0,89.0,86.0,81.0,81.0,81.0,84.0,88.0,83.0,78.0,75.0,72.0,69.0,67.0,65.0,63.0,61.0,60.0,57.0,55.0,56.0,54.0,54.0,58.0,66.0,68.0,72.0,85.0,97.0,110.0,127.0,148.0,169.0,192.0,209.0,222.0,237.0,245.0,251.0,255.0,263.0,268.0,269.0,269.0,269.0,272.0,268.0,268.0,264.0,258.0,255.0,252.0,249.0,244.0,242.0,237.0,231.0,230.0,225.0,222.0,219.0,213.0,214.0,210.0,208.0,205.0,201.0,202.0,197.0,196.0,193.0,190.0,189.0,187.0,182.0,180.0,178.0,175.0,175.0,171.0,169.0,169.0,167.0,162.0,160.0,159.0,157.0,155.0,150.0,148.0,146.0,143.0,142.0,139.0,134.0,133.0,131.0,129.0,124.0,125.0,120.0,118.0,113.0,110.0,109.0,108.0,104.0,102.0,103.0,103.0,104.0,103.0,105.0,106.0,106.0,104.0,104.0,104.0,102.0,102.0,103.0,100.0,101.0,98.0,97.0,97.0,95.0,93.0,91.0,93.0,94.0,93.0,91.0,92.0,91.0,92.0,90.0,90.0,89.0,87.0,86.0,86.0,86.0,85.0,85.0,82.0,81.0,81.0,82.0,80.0,80.0,78.0,77.0,76.0,75.0,75.0,74.0,73.0,73.0,73.0,74.0,70.0,70.0,70.0,68.0,69.0,66.0,67.0,64.0,63.0,65.0,65.0,65.0,63.0,63.0,64.0,65.0,65.0,64.0,64.0,63.0,64.0,63.0,62.0,62.0,62.0,62.0,59.0,59.0,57.0,56.0,55.0,53.0,52.0,52.0,54.0,53.0,51.0,53.0,53.0,53.0,53.0,53.0,52.0,52.0,52.0,51.0,51.0,49.0,50.0,47.0,45.0,44.0,43.0,44.0,43.0,44.0,44.0,45.0,46.0,47.0,50.0,49.0,51.0,50.0,50.0,52.0,54.0,56.0,56.0,58.0,57.0,60.0,63.0,63.0,63.0,61.0,65.0,64.0,62.0,61.0,61.0,59.0,56.0,58.0,58.0,58.0,57.0,55.0,54.0,52.0,51.0,51.0,53.0,51.0,49.0,51.0,50.0,48.0,48.0,48.0,47.0,46.0,46.0,47.0,47.0,50.0,50.0,51.0,51.0,50.0,49.0,50.0,48.0,48.0,46.0,45.0,43.0,42.0,44.0,42.0,44.0,43.0,41.0,40.0,40.0,41.0,40.0,39.0,41.0,40.0,40.0,40.0,42.0,42.0,42.0,41.0,41.0,40.0,38.0,41.0,41.0,40.0,41.0,40.0,40.0,41.0,41.0,40.0,40.0,40.0,40.0,39.0,42.0,43.0,42.0,40.0,41.0,40.0,41.0,42.0,43.0,41.0,40.0,41.0,42.0,44.0,44.0,45.0,44.0,45.0,46.0,46.0,49.0,47.0,47.0,47.0,47.0,48.0,50.0,48.0,46.0,45.0,45.0,44.0,43.0,44.0,44.0,43.0,42.0,41.0,39.0,39.0,40.0,41.0,40.0,39.0,38.0,38.0,39.0,41.0,41.0,40.0,39.0,40.0,39.0,38.0,39.0,40.0,39.0,39.0,38.0,38.0,37.0,37.0,38.0,38.0,39.0,38.0,38.0,39.0,37.0,38.0,37.0,37.0,38.0,40.0,41.0,41.0,41.0,39.0,40.0,40.0,40.0,39.0,39.0,38.0,38.0,37.0,40.0,40.0,41.0,40.0,39.0,38.0,38.0,40.0,38.0,39.0,39.0,39.0,38.0,39.0,39.0,39.0,38.0,38.0,38.0,38.0,37.0,37.0,36.0,37.0,38.0,39.0,37.0,37.0,39.0,38.0,37.0,38.0,38.0,38.0,41.0,41.0,41.0,42.0,42.0,43.0,44.0,44.0,44.0,42.0,42.0,41.0,40.0,41.0,40.0,40.0,40.0,39.0,39.0,39.0,40.0,40.0,39.0,38.0,39.0,41.0,41.0,42.0,41.0,41.0,38.0
30.0,27.0,27.0,25.0,22.0,21.0,22.0,31.0,37.0,33.0,30.0,27.0,26.0,25.0,23.0,21.0,21.0,24.0,33.0,29.0,26.0,24.0,22.0,36.0,32.0,28.0,25.0,23.0,24.0,21.0,19.0,17.0,27.0,28.0,24.0,24.0,23.0,21.0,20.0,17.0,21.0,22.0,19.0,18.0,16.0,19.0,29.0,26.0,22.0,21.0,19.0,19.0,17.0,16.0,16.0,14.0,27.0,31.0,28.0,26.0,24.0,21.0,19.0,17.0,19.0,31.0,27.0,31.0,31.0,26.0,25.0,22.0,22.0,20.0,26.0,26.0,22.0,20.0,18.0,16.0,15.0,15.0,15.0,13.0,12.0,11.0,10.0,13.0,29.0,28.0,26.0,24.0,21.0,20.0,17.0,24.0,22.0,18.0,18.0,29.0,30.0,25.0,22.0,21.0,17.0,17.0,19.0,30.0,29.0,28.0,31.0,27.0,24.0,22.0,20.0,17.0,15.0,18.0,22.0,18.0,16.0,17.0,15.0,14.0,15.0,15.0,17.0,26.0,23.0,21.0,21.0,24.0,20.0,19.0,18.0,19.0,18.0,17.0,26.0,22.0,20.0,18.0,16.0,17.0,16.0,15.0,16.0,15.0,13.0,25.0,22.0,19.0,21.0,18.0,18.0,17.0,16.0,16.0,21.0,20.0,18.0,16.0,16.0,15.0,16.0,15.0,14.0,12.0,12.0,10.0,11.0,12.0,27.0,25.0,22.0,20.0,18.0,17.0,15.0,19.0,26.0,25.0,22.0,35.0,31.0,28.0,25.0,25.0,20.0,21.0,18.0,19.0,20.0,20.0,23.0,22.0,25.0,22.0,21.0,19.0,17.0,18.0,16.0,15.0,14.0,13.0,12.0,17.0,20.0,20.0,18.0,16.0,15.0,15.0,13.0,15.0,14.0,12.0,14.0,13.0,17.0,15.0,18.0,17.0,16.0,14.0,16.0,18.0,29.0,26.0,22.0,20.0,18.0,17.0,15.0,14.0,17.0,28.0,25.0,26.0,23.0,20.0,20.0,19.0,18.0,17.0,26.0,26.0,23.0,21.0,20.0,18.0,19.0,18.0,19.0,18.0,16.0,16.0,16.0,19.0,22.0,24.0,30.0,27.0,23.0,22.0,22.0,19.0,19.0,23.0,30.0,32.0,28.0,24.0,23.0,19.0,21.0,17.0,16.0,26.0,25.0,27.0,23.0,21.0,20.0,21.0,24.0,22.0,19.0,17.0,21.0,37.0,33.0,29.0,28.0,25.0,22.0,20.0,17.0,16.0,14.0,14.0,12.0,13.0,12.0,12.0,33.0,32.0,36.0,41.0,38.0,34.0,41.0,58.0,50.0,70.0,64.0,55.0,54.0,68.0,68.0,59.0,64.0,65.0,59.0,54.0,73.0,77.0,84.0,79.0,84.0,77.0,70.0,65.0,70.0,70.0,72.0,78.0,71.0,62.0,70.0,65.0,58.0,54.0,51.0,54.0,53.0,48.0,42.0,50.0,44.0,44.0,42.0,40.0,36.0,57.0,52.0,51.0,49.0,52.0,45.0,39.0,40.0,35.0,31.0,29.0,27.0,27.0,24.0,44.0,48.0,42.0,37.0,32.0,28.0,31.0,28.0,27.0,30.0,27.0,46.0,42.0,36.0,35.0,31.0,30.0,27.0,23.0,20.0,21.0,20.0,21.0,20.0,18.0,20.0,19.0,17.0,16.0,16.0,15.0,14.0,12.0,12.0,11.0,15.0,16.0,15.0,13.0,12.0,10.0,11.0,11.0,10.0,14.0,21.0,19.0,18.0,16.0,14.0,14.0,13.0,14.0,16.0,14.0,14.0,13.0,14.0,12.0,11.0,10.0,9.0,8.0,9.0,11.0,11.0,10.0,8.0,8.0,9.0,8.0,8.0,7.0,7.0,8.0,8.0,9.0,12.0,16.0,14.0,12.0,12.0,11.0,11.0,10.0,9.0,8.0,11.0,10.0,11.0,11.0,11.0,9.0,8.0,9.0,10.0,10.0,9.0,11.0,10.0,10.0,9.0,9.0,8.0,7.0,7.0,7.0,6.0,6.0,6.0,7.0,7.0,8.0,7.0,6.0,6.0,6.0,9.0,8.0,8.0,10.0,9.0,8.0,11.0,11.0,10.0,10.0,9.0,9.0,9.0,8.0,10.0,9.0,9.0,10.0,10.0,9.0,8.0,9.0,8.0,7.0,7.0,6.0,7.0,6.0,7.0,8.0,8.0,7.0,6.0,6.0,7.0,6.0,5.0,7.0,8.0,6.0,7.0,6.0,6.0,7.0,9.0,8.0,8.0,8.0,9.0,9.0,10.0,8.0,9.0,10.0,10.0,10.0,10.0,12.0,11.0,11.0,10.0,10.0,13.0,16.0,16.0,15.0,18.0,17.0,20.0,24.0,24.0,27.0,26.0,40.0,38.0,48.0,46.0,53.0,55.0,65.0,70.0,76.0,75.0,80.0,95.0,107.0,111.0,104.0,98.0,101.0,104.0,105.0,96.0,93.0,122.0,106.0,109.0,103.0,102.0,104.0,99.0,89.0,91.0,91.0,90.0,92.0,91.0,83.0,80.0,77.0,73.0,72.0,74.0,78.0,77.0,80.0,86.0,89.0,91.0,83.0,77.0,69.0,65.0,60.0,63.0,62.0,57.0,54.0,62.0,71.0,70.0,63.0,55.0,57.0,59.0,53.0,61.0,67.0,74.0,73.0,67.0,64.0,64.0,67.0,74.0,68.0,61.0,54.0,59.0,72.0,69.0,60.0,53.0,53.0,52.0,47.0,45.0,57.0,50.0,45.0,40.0,44.0,62.0,60.0,53.0,53.0,48.0,48.0,45.0,47.0,47.0,53.0,47.0,50.0,44.0,40.0,36.0,37.0,42.0,38.0,37.0,34.0,38.0,34.0,35.0,35.0,32.0,34.0,33.0,29.0,29.0,33.0,30.0,27.0,29.0,27.0,24.0,34.0,29.0,30.0,28.0,28.0,26.0,32.0,29.0,39.0,39.0,38.0,36.0,32.0,30.0,27.0,25.0,23.0,25.0,23.0,24.0,21.0,20.0,31.0,38.0,33.0,35.0,42.0,42.0,42.0,37.0,36.0,32.0,29.0,31.0,42.0,39.0,33.0,32.0,29.0,26.0,24.0,31.0,28.0,28.0,28.0,26.0,24.0,32.0,30.0,28.0,27.0,32.0,27.0,32.0,31.0,27.0,25.0,23.0,20.0,19.0,26.0,29.0,29.0,33.0,29.0,27.0,25.0,33.0,32.0,31.0,31.0,28.0,25.0,24.0,20.0,28.0,26.0,24.0,25.0,23.0,21.0,20.0,28.0,24.0,34.0,37.0,33.0,30.0,29.0,29.0,33.0,30.0,32.0,33.0,30.0,28.0,30.0,36.0,34.0,32.0,31.0,28.0,29.0,26.0,34.0,36.0,32.0,29.0,36.0,34.0,33.0,30.0,42.0,37.0,34.0,35.0,36.0,31.0,33.0,40.0,34.0,32.0,33.0,30.0,36.0,38.0,34.0,37.0,34.0,33.0,30.0,29.0,25.0,44.0,43.0,40.0,34.0,30.0,27.0,35.0,37.0,41.0,37.0,34.0,36.0,45.0,50.0,45.0,40.0,38.0,34.0,30.0,27.0,28.0,27.0,26.0,24.0,28.0,24.0,29.0,33.0,30.0,28.0,27.0,24.0,21.0,32.0,28.0,27.0,25.0,21.0,20.0,18.0,24.0,45.0,42.0,37.0,32.0,30.0,38.0,39.0,36.0,32.0,30.0,27.0,25.0,37.0,42.0,37.0,33.0,31.0,29.0,38.0,36.0,35.0,32.0,31.0,28.0,26.0,35.0,32.0,29.0,26.0,28.0,32.0,30.0,37.0,39.0,38.0,33.0,31.0,29.0,27.0,44.0,45.0,42.0,37.0,35.0,37.0,33.0,31.0,36.0,33.0,29.0,29.0,32.0,29.0,27.0,23.0,28.0,29.0,26.0,23.0,19.0,19.0,17.0,18.0,17.0,17.0,21.0,19.0,18.0,15.0,14.0,15.0,19.0,39.0,34.0,37.0,32.0,30.0,27.0,29.0,36.0,33.0,30.0,25.0,27.0,24.0,23.0,39.0,38.0,34.0,30.0,28.0,28.0,24.0,33.0,32.0,29.0,25.0,29.0,27.0,25.0,25.0,24.0,25.0,30.0,28.0,27.0,31.0,28.0,27.0,23.0,21.0,22.0,35.0,31.0,40.0,37.0,34.0,30.0,30.0,41.0,35.0,31.0,29.0,28.0,27.0,26.0,26.0,24.0,30.0,25.0,24.0,21.0,19.0,19.0,17.0,20.0,17.0,21.0,18.0,16.0,14.0,14.0,14.0
57.0,57.0,55.0,56.0,58.0,53.0,62.0,67.0,69.0,66.0,62.0,60.0,63.0,66.0,65.0,63.0,60.0,59.0,58.0,61.0,61.0,58.0,57.0,58.0,58.0,59.0,58.0,55.0,57.0,58.0,54.0,53.0,54.0,53.0,54.0,49.0,50.0,50.0,49.0,51.0,56.0,52.0,52.0,51.0,48.0,48.0,52.0,52.0,52.0,50.0,53.0,50.0,50.0,50.0,49.0,49.0,53.0,56.0,52.0,55.0,55.0,55.0,56.0,56.0,61.0,59.0,58.0,59.0,57.0,58.0,56.0,56.0,65.0,63.0,65.0,61.0,60.0,60.0,57.0,56.0,52.0,53.0,55.0,54.0,53.0,50.0,46.0,47.0,45.0,48.0,49.0,57.0,57.0,54.0,66.0,76.0,84.0,84.0,81.0,83.0,82.0,78.0,74.0,71.0,76.0,87.0,95.0,94.0,90.0,92.0,89.0,81.0,80.0,81.0,76.0,73.0,77.0,78.0,87.0,83.0,84.0,77.0,73.0,69.0,75.0,76.0,73.0,70.0,70.0,73.0,72.0,79.0,79.0,75.0,74.0,69.0,63.0,61.0,72.0,77.0,76.0,80.0,78.0,76.0,71.0,70.0,68.0,69.0,68.0,68.0,67.0,72.0,73.0,74.0,81.0,80.0,76.0,75.0,72.0,67.0,67.0,64.0,66.0,71.0,73.0,74.0,68.0,72.0,67.0,69.0,66.0,64.0,64.0,61.0,68.0,67.0,64.0,64.0,62.0,58.0,55.0,58.0,57.0,60.0,55.0,57.0,54.0,54.0,55.0,55.0,53.0,56.0,57.0,60.0,59.0,63.0,61.0,65.0,64.0,65.0,63.0,65.0,64.0,69.0,68.0,66.0,64.0,62.0,61.0,59.0,60.0,57.0,55.0,51.0,50.0,48.0,53.0,52.0,77.0,77.0,76.0,73.0,69.0,70.0,68.0,67.0,77.0,77.0,78.0,75.0,74.0,71.0,67.0,67.0,64.0,69.0,68.0,71.0,71.0,71.0,77.0,72.0,76.0,73.0,71.0,69.0,71.0,74.0,70.0,72.0,75.0,83.0,80.0,79.0,84.0,86.0,84.0,84.0,90.0,90.0,91.0,84.0,82.0,79.0,72.0,74.0,78.0,81.0,77.0,78.0,77.0,80.0,77.0,89.0,88.0,83.0,82.0,87.0,96.0,93.0,91.0,92.0,89.0,91.0,89.0,88.0,91.0,93.0,91.0,99.0,98.0,99.0,101.0,99.0,94.0,92.0,101.0,102.0,105.0,110.0,101.0,100.0,97.0,92.0,88.0,82.0,91.0,85.0,79.0,86.0,86.0,89.0,101.0,96.0,104.0,103.0,103.0,99.0,96.0,95.0,100.0,100.0,104.0,109.0,113.0,109.0,116.0,148.0,141.0,148.0,152.0,164.0,153.0,154.0,152.0,162.0,162.0,159.0,151.0,134.0,122.0,134.0,136.0,140.0,136.0,134.0,122.0,126.0,119.0,130.0,136.0,128.0,124.0,120.0,110.0,112.0,107.0,103.0,107.0,106.0,100.0,98.0,102.0,103.0,117.0,129.0,119.0,110.0,108.0,101.0,105.0,110.0,109.0,105.0,102.0,99.0,91.0,99.0,98.0,91.0,91.0,88.0,86.0,83.0,78.0,93.0,101.0,94.0,109.0,110.0,106.0,102.0,95.0,96.0,108.0,99.0,97.0,90.0,92.0,98.0,89.0,92.0,88.0,84.0,94.0,99.0,100.0,91.0,94.0,94.0,96.0,99.0,102.0,111.0,127.0,132.0,122.0,122.0,116.0,121.0,121.0,113.0,117.0,113.0,121.0,129.0,127.0,124.0,123.0,116.0,109.0,117.0,114.0,110.0,111.0,106.0,100.0,100.0,96.0,101.0,106.0,101.0,101.0,96.0,98.0,105.0,101.0,109.0,104.0,96.0,94.0,108.0,108.0,105.0,109.0,104.0,105.0,106.0,109.0,100.0,99.0,94.0,96.0,91.0,98.0,92.0,89.0,88.0,90.0,91.0,86.0,89.0,95.0,92.0,88.0,87.0,94.0,99.0,93.0,84.0,79.0,76.0,74.0,71.0,73.0,71.0,76.0,74.0,82.0,82.0,87.0,96.0,102.0,100.0,101.0,99.0,103.0,102.0,113.0,118.0,117.0,110.0,104.0,102.0,101.0,105.0,107.0,101.0,98.0,97.0,99.0,95.0,92.0,101.0,102.0,100.0,104.0,104.0,100.0,95.0,89.0,83.0,76.0,75.0,85.0,85.0,77.0,85.0,87.0,82.0,80.0,78.0,85.0,79.0,81.0,81.0,83.0,80.0,77.0,76.0,81.0,100.0,102.0,101.0,95.0,88.0,82.0,76.0,74.0,75.0,74.0,69.0,82.0,81.0,81.0,79.0,84.0,82.0,90.0,94.0,96.0,97.0,103.0,106.0,113.0,123.0,163.0,210.0,233.0,234.0,224.0,228.0,222.0,223.0,218.0,210.0,202.0,190.0,183.0,180.0,191.0,190.0,185.0,180.0,184.0,183.0,187.0,180.0,168.0,167.0,168.0,158.0,151.0,148.0,136.0,130.0,124.0,119.0,128.0,143.0,147.0,146.0,144.0,143.0,151.0,160.0,152.0,143.0,138.0,129.0,139.0,149.0,160.0,144.0,142.0,173.0,160.0,164.0,151.0,146.0,179.0,172.0,161.0,152.0,152.0,153.0,158.0,161.0,146.0,134.0,153.0,147.0,140.0,134.0,128.0,130.0,122.0,112.0,131.0,147.0,143.0,134.0,129.0,144.0,149.0,143.0,133.0,143.0,140.0,133.0,123.0,120.0,117.0,140.0,135.0,136.0,128.0,123.0,115.0,140.0,139.0,130.0,124.0,118.0,125.0,121.0,123.0,115.0,108.0,109.0,118.0,114.0,117.0,111.0,108.0,102.0,96.0,95.0,108.0,108.0,106.0,115.0,119.0,118.0,115.0,111.0,114.0,112.0,119.0,141.0,130.0,121.0,120.0,117.0,119.0,116.0,113.0,103.0,110.0,103.0,115.0,115.0,107.0,104.0,104.0,111.0,111.0,112.0,113.0,122.0,117.0,114.0,106.0,100.0,103.0,101.0,101.0,95.0,90.0,83.0,80.0,79.0,76.0,74.0,77.0,72.0,69.0,74.0,74.0,85.0,81.0,79.0,78.0,80.0,80.0,77.0,74.0,73.0,82.0,78.0,93.0,89.0,93.0,88.0,93.0,89.0,92.0,91.0,88.0,98.0,94.0,97.0,100.0,93.0,90.0,89.0,87.0,84.0,95.0,93.0,92.0,91.0,95.0,89.0,88.0,84.0,82.0,85.0,83.0,80.0,83.0,78.0,84.0,86.0,95.0,90.0,92.0,93.0,88.0,87.0,95.0,90.0,89.0,90.0,91.0,88.0,87.0,94.0,92.0,89.0,85.0,88.0,88.0,87.0,84.0,84.0,78.0,76.0,82.0,99.0,106.0,103.0,98.0,100.0,91.0,87.0,91.0,91.0,91.0,84.0,79.0,83.0,79.0,81.0,78.0,82.0,76.0,85.0,82.0,83.0,84.0,80.0,81.0,80.0,86.0,82.0,80.0,76.0,81.0,78.0,87.0,86.0,88.0,89.0,90.0,89.0,86.0,79.0,78.0,74.0,72.0,68.0,73.0,78.0,81.0,85.0,78.0,76.0,73.0,83.0,85.0,80.0,84.0,84.0,88.0,88.0,85.0,90.0,87.0,84.0,78.0,76.0,72.0,81.0,82.0,79.0,80.0,77.0,74.0,96.0,92.0,94.0,87.0,86.0,86.0,91.0,96.0,91.0,91.0,89.0,90.0,91.0,86.0,84.0,77.0,76.0,74.0,76.0,79.0,80.0,84.0,81.0,79.0,81.0,86.0,88.0,86.0,81.0,83.0,87.0,87.0,84.0,76.0,76.0,76.0,75.0,74.0,74.0,71.0,78.0,80.0,78.0,75.0,83.0,77.0,73.0,71.0,72.0,70.0,69.0,67.0,74.0,69.0,69.0,65.0,66.0,68.0,68.0,69.0,72.0,70.0,69.0,72.0,72.0,69.0,68.0,69.0,73.0,75.0,73.0,88.0,87.0,86.0,86.0,86.0,83.0,81.0,85.0,89.0,90.0,88.0,83.0,75.0,80.0,89.0,83.0,79.0,76.0,75.0,76.0,80.0,78.0,79.0,80.0,84.0,80.0,78.0,76.0,72.0,76.0,73.0,70.0,68.0,66.0,73.0,68.0,68.0,72.0,72.0,71.0,74.0,77.0,86.0,87.0,83.0,80.0,76.0,78.0,75.0,77.0,74.0,72.0,74.0,71.0,70.0,68.0,64.0,65.0,63.0,58.0
