86.0,87.0,85.0,86.0,85.0,86.0,82.0,82.0,82.0,83.0,81.0,79.0,78.0,76.0,75.0,76.0,77.0,76.0,77.0,77.0,76.0,76.0,74.0,74.0,75.0,74.0,74.0,72.0,72.0,71.0,71.0,68.0,67.0,66.0,64.0,63.0,63.0,64.0,64.0,63.0,65.0,62.0,63.0,62.0,61.0,61.0,60.0,60.0,58.0,57.0,57.0,58.0,58.0,58.0,57.0,57.0,56.0,57.0,58.0,57.0,57.0,59.0,60.0,60.0,59.0,59.0,60.0,59.0,61.0,60.0,62.0,62.0,61.0,61.0,61.0,58.0,56.0,54.0,53.0,53.0,52.0,52.0,53.0,52.0,53.0,51.0,53.0,52.0,50.0,54.0,52.0,53.0,52.0,53.0,54.0,51.0,52.0,52.0,52.0,51.0,50.0,50.0,49.0,51.0,51.0,51.0,52.0,53.0,52.0,53.0,54.0,54.0,54.0,55.0,55.0,55.0,53.0,54.0,57.0,55.0,56.0,61.0,63.0,63.0,62.0,62.0,61.0,60.0,61.0,60.0,57.0,63.0,77.0,86.0,93.0,110.0,128.0,129.0,123.0,114.0,105.0,100.0,96.0,92.0,103.0,105.0,100.0,103.0,105.0,101.0,99.0,103.0,105.0,115.0,112.0,109.0,112.0,120.0,113.0,110.0,118.0,116.0,112.0,115.0,113.0,123.0,115.0,111.0,107.0,104.0,104.0,102.0,99.0,102.0,102.0,106.0,101.0,99.0,94.0,94.0,93.0,88.0,84.0,88.0,98.0,94.0,94.0,88.0,86.0,85.0,90.0,87.0,82.0,83.0,81.0,77.0,79.0,76.0,78.0,85.0,81.0,80.0,78.0,86.0,86.0,87.0,93.0,95.0,94.0,92.0,87.0,88.0,88.0,99.0,94.0,100.0,101.0,102.0,104.0,102.0,101.0,98.0,97.0,91.0,92.0,90.0,91.0,90.0,92.0,97.0,103.0,106.0,116.0,118.0,121.0,127.0,129.0,133.0,134.0,129.0,129.0,133.0,130.0,129.0,135.0,128.0,129.0,127.0,128.0,128.0,131.0,130.0,130.0,129.0,130.0,135.0,137.0,144.0,164.0,162.0,157.0,230.0,242.0,238.0,224.0,209.0,195.0,185.0,172.0,160.0,154.0,147.0,142.0,130.0,121.0,111.0,102.0,95.0,92.0,90.0,86.0,80.0,76.0,76.0,74.0,70.0,68.0,66.0,67.0,66.0,66.0,65.0,65.0,67.0,66.0,69.0,69.0,68.0,68.0,68.0,69.0,68.0,71.0,71.0,74.0,71.0,73.0,77.0,74.0,74.0,79.0,79.0,79.0,79.0,81.0,81.0,81.0,79.0,81.0,81.0,81.0,81.0,78.0,77.0,78.0,79.0,81.0,81.0,84.0,82.0,82.0,83.0,86.0,88.0,87.0,89.0,91.0,94.0,95.0,95.0,95.0,96.0,99.0,99.0,98.0,97.0,98.0,98.0,99.0,100.0,98.0,102.0,103.0,103.0,102.0,105.0,107.0,108.0,108.0,108.0,109.0,110.0,107.0,109.0,105.0,106.0,107.0,104.0,104.0,103.0,103.0,100.0,103.0,104.0,104.0,103.0,101.0,101.0,101.0,99.0,100.0,101.0,100.0,99.0,100.0,99.0,99.0,99.0,100.0,100.0,99.0,100.0,99.0,99.0,101.0,101.0,100.0,101.0,100.0,99.0,98.0,98.0,99.0,98.0,98.0,100.0,99.0,100.0,101.0,99.0,99.0,99.0,97.0,94.0,94.0,94.0,94.0,94.0,94.0,96.0,97.0,94.0,95.0,94.0,94.0,93.0,93.0,95.0,94.0,95.0,94.0,95.0,94.0,95.0,94.0,92.0,94.0,95.0,96.0,98.0,100.0,100.0,99.0,99.0,101.0,102.0,102.0,101.0,101.0,98.0,99.0,98.0,99.0,99.0,97.0,99.0,98.0,98.0,96.0,97.0,96.0,97.0,97.0,96.0,94.0,94.0,93.0,93.0,94.0,95.0,94.0,96.0,95.0,94.0,95.0,93.0,95.0,92.0,94.0,93.0,93.0,91.0,90.0,90.0,87.0,89.0,89.0,91.0,91.0,89.0,90.0,88.0,88.0,86.0,85.0,85.0,85.0,87.0,84.0,85.0,86.0,86.0,84.0,84.0,83.0,80.0,80.0,80.0,79.0,79.0,77.0,78.0,76.0,77.0,77.0,76.0,77.0,76.0,76.0,76.0,77.0,75.0,73.0,73.0,73.0,75.0,73.0,72.0,71.0,70.0,68.0,68.0,69.0,68.0,66.0,66.0,64.0,61.0,61.0,61.0,60.0,60.0,59.0,59.0,57.0,57.0,59.0,60.0,61.0,63.0,63.0,64.0,64.0,65.0,64.0,63.0,64.0,64.0,64.0,64.0,64.0,64.0,62.0,62.0,60.0,61.0,61.0,62.0,62.0,62.0,64.0,64.0,64.0,63.0,64.0,64.0,63.0,64.0,64.0,63.0,64.0,63.0,64.0,67.0,68.0,67.0,67.0,68.0,68.0,68.0,66.0,65.0,65.0,65.0,65.0,65.0,62.0,63.0,65.0,65.0,66.0,65.0,64.0,65.0,64.0,65.0,65.0,65.0,64.0,65.0,64.0,64.0,64.0,63.0,62.0,63.0,62.0,60.0,58.0,60.0,60.0,60.0,61.0,61.0,61.0,61.0,62.0,62.0,65.0,64.0,64.0,62.0,65.0,64.0,63.0,66.0,65.0,66.0,66.0,68.0,67.0,67.0,67.0,65.0,67.0,65.0,63.0,63.0,63.0,63.0,62.0,64.0,64.0,64.0,65.0,66.0,66.0,67.0,65.0,67.0,66.0,67.0,67.0,67.0,67.0,67.0,66.0,64.0,65.0,63.0,63.0,62.0,61.0,60.0,58.0,59.0,58.0,59.0,59.0,59.0,59.0,58.0,58.0,58.0,58.0,57.0,57.0,58.0,58.0,57.0,59.0,58.0,57.0,59.0,59.0,56.0,56.0,56.0,55.0,57.0,57.0,55.0,54.0,53.0,55.0,54.0,56.0,55.0,54.0,54.0,54.0,53.0,52.0,52.0,53.0,56.0,55.0,58.0,56.0,57.0,57.0,58.0,58.0,58.0,58.0,57.0,56.0,55.0,56.0,56.0,54.0,56.0,55.0,56.0,56.0,56.0,56.0,57.0,57.0,57.0,60.0,63.0,62.0,63.0,64.0,68.0,69.0,70.0,69.0,68.0,66.0,64.0,63.0,61.0,61.0,60.0,61.0,64.0,65.0,67.0,67.0,69.0,69.0,69.0,71.0,70.0,71.0,71.0,73.0,72.0,73.0,73.0,72.0,74.0,73.0,72.0,74.0,72.0,72.0,71.0,71.0,70.0,69.0,72.0,72.0,73.0,71.0,73.0,74.0,75.0,74.0,76.0,76.0,76.0,75.0,72.0,71.0,69.0,69.0,69.0,67.0,67.0,68.0,68.0,66.0,66.0,69.0,68.0,66.0,65.0,65.0,65.0,64.0,66.0,64.0,65.0,64.0,65.0,65.0,64.0,65.0,64.0,63.0,62.0,61.0,60.0,61.0,62.0,62.0,62.0,63.0,63.0,63.0,64.0,65.0,64.0,65.0,65.0,64.0,64.0,63.0,65.0,64.0,64.0,66.0,67.0,67.0,67.0,69.0,69.0,69.0,68.0,67.0,67.0,68.0,67.0,66.0,65.0,65.0,64.0,63.0,64.0,63.0,61.0,61.0,60.0,59.0,59.0,57.0,57.0,55.0,54.0,55.0,57.0,58.0,57.0,58.0,56.0,57.0,57.0,58.0,60.0,59.0,60.0,62.0,62.0,62.0,63.0,61.0,61.0,63.0,60.0,62.0,63.0,62.0,62.0,62.0,63.0,64.0,64.0,67.0,67.0,69.0,69.0,70.0,69.0,69.0,69.0,67.0,67.0,68.0,68.0,68.0,67.0,68.0,67.0,67.0,67.0,67.0,67.0,67.0,68.0,68.0,68.0,69.0,69.0,69.0,71.0,71.0,72.0,73.0,73.0,73.0,73.0,71.0,73.0,71.0,71.0,71.0,70.0,68.0,66.0,64.0,62.0,62.0,60.0,60.0,58.0,56.0,55.0,54.0,54.0,55.0,56.0,55.0,53.0,55.0,53.0,51.0,52.0,51.0,51.0,51.0,50.0,50.0,50.0,49.0,47.0,49.0,48.0,49.0,49.0,49.0,48.0,48.0,47.0,46.0,45.0,47.0,47.0,47.0,47.0,48.0,48.0,50.0,50.0,49.0,51.0,52.0,52.0,52.0,53.0,53.0,54.0,54.0,54.0,54.0,54.0,55.0,54.0
210.0,209.0,207.0,205.0,205.0,205.0,204.0,204.0,205.0,206.0,203.0,201.0,201.0,199.0,197.0,200.0,198.0,195.0,194.0,191.0,189.0,185.0,183.0,182.0,180.0,180.0,178.0,179.0,179.0,181.0,182.0,180.0,180.0,179.0,180.0,177.0,175.0,172.0,169.0,167.0,166.0,164.0,164.0,164.0,164.0,163.0,163.0,162.0,160.0,160.0,158.0,157.0,155.0,154.0,150.0,149.0,145.0,146.0,144.0,141.0,138.0,136.0,134.0,132.0,130.0,128.0,126.0,124.0,125.0,122.0,121.0,121.0,120.0,120.0,120.0,121.0,123.0,120.0,117.0,124.0,125.0,129.0,129.0,130.0,130.0,129.0,128.0,123.0,126.0,129.0,129.0,128.0,126.0,127.0,128.0,125.0,119.0,120.0,121.0,120.0,118.0,115.0,114.0,112.0,111.0,109.0,109.0,108.0,106.0,105.0,106.0,107.0,108.0,108.0,107.0,104.0,102.0,102.0,107.0,105.0,109.0,124.0,129.0,128.0,125.0,123.0,121.0,118.0,116.0,109.0,112.0,118.0,204.0,207.0,316.0,344.0,413.0,400.0,367.0,342.0,306.0,291.0,266.0,266.0,291.0,290.0,274.0,286.0,279.0,267.0,262.0,270.0,289.0,308.0,302.0,284.0,280.0,293.0,289.0,277.0,294.0,280.0,270.0,272.0,272.0,297.0,276.0,267.0,262.0,254.0,254.0,246.0,251.0,247.0,252.0,265.0,243.0,241.0,226.0,222.0,222.0,211.0,211.0,213.0,234.0,218.0,213.0,207.0,200.0,204.0,208.0,198.0,182.0,179.0,175.0,170.0,211.0,193.0,193.0,199.0,186.0,181.0,181.0,197.0,186.0,184.0,195.0,198.0,200.0,213.0,222.0,233.0,257.0,284.0,291.0,299.0,294.0,296.0,287.0,281.0,267.0,274.0,266.0,266.0,274.0,273.0,279.0,274.0,288.0,286.0,311.0,291.0,295.0,295.0,288.0,298.0,288.0,288.0,284.0,265.0,261.0,271.0,251.0,230.0,225.0,208.0,195.0,184.0,178.0,168.0,161.0,155.0,146.0,133.0,123.0,116.0,112.0,112.0,113.0,115.0,107.0,112.0,110.0,107.0,108.0,103.0,111.0,119.0,134.0,158.0,188.0,210.0,241.0,268.0,288.0,307.0,317.0,329.0,335.0,346.0,349.0,352.0,357.0,355.0,357.0,356.0,358.0,358.0,357.0,354.0,348.0,342.0,338.0,336.0,332.0,327.0,322.0,316.0,310.0,304.0,298.0,292.0,289.0,284.0,280.0,272.0,268.0,264.0,256.0,248.0,245.0,238.0,232.0,225.0,222.0,217.0,212.0,202.0,201.0,195.0,190.0,186.0,180.0,175.0,173.0,170.0,168.0,165.0,163.0,159.0,157.0,154.0,153.0,151.0,149.0,148.0,147.0,145.0,146.0,144.0,138.0,137.0,138.0,136.0,133.0,130.0,129.0,129.0,130.0,128.0,125.0,126.0,125.0,125.0,120.0,119.0,118.0,117.0,115.0,113.0,109.0,108.0,104.0,105.0,101.0,103.0,105.0,104.0,103.0,103.0,103.0,99.0,101.0,103.0,102.0,100.0,98.0,96.0,95.0,91.0,93.0,92.0,91.0,90.0,89.0,89.0,87.0,86.0,87.0,84.0,84.0,83.0,79.0,81.0,81.0,80.0,78.0,77.0,76.0,75.0,72.0,72.0,73.0,72.0,70.0,68.0,67.0,66.0,65.0,63.0,60.0,60.0,58.0,59.0,58.0,59.0,59.0,58.0,59.0,60.0,63.0,62.0,63.0,65.0,64.0,63.0,62.0,63.0,61.0,59.0,60.0,61.0,60.0,60.0,58.0,56.0,55.0,55.0,53.0,55.0,57.0,57.0,56.0,55.0,55.0,54.0,54.0,53.0,51.0,52.0,53.0,54.0,52.0,52.0,51.0,51.0,53.0,51.0,51.0,52.0,50.0,51.0,51.0,51.0,49.0,51.0,50.0,50.0,51.0,51.0,50.0,49.0,51.0,50.0,52.0,52.0,53.0,52.0,53.0,53.0,53.0,52.0,52.0,53.0,53.0,53.0,54.0,54.0,53.0,52.0,51.0,50.0,49.0,49.0,47.0,46.0,45.0,43.0,43.0,41.0,45.0,44.0,42.0,42.0,42.0,41.0,41.0,43.0,42.0,42.0,43.0,42.0,41.0,40.0,42.0,40.0,41.0,41.0,40.0,39.0,39.0,39.0,37.0,36.0,38.0,39.0,40.0,39.0,40.0,38.0,39.0,38.0,38.0,40.0,39.0,38.0,38.0,39.0,39.0,38.0,38.0,37.0,38.0,37.0,36.0,37.0,38.0,39.0,40.0,41.0,40.0,39.0,39.0,39.0,38.0,37.0,39.0,38.0,37.0,37.0,37.0,38.0,37.0,37.0,38.0,38.0,38.0,38.0,39.0,40.0,40.0,40.0,40.0,39.0,40.0,41.0,40.0,41.0,41.0,40.0,40.0,38.0,39.0,39.0,39.0,38.0,38.0,40.0,39.0,39.0,40.0,40.0,40.0,39.0,40.0,39.0,40.0,39.0,40.0,41.0,41.0,43.0,42.0,42.0,42.0,42.0,42.0,40.0,42.0,41.0,42.0,42.0,41.0,44.0,48.0,47.0,46.0,45.0,45.0,45.0,46.0,45.0,46.0,46.0,45.0,44.0,45.0,46.0,44.0,43.0,43.0,44.0,43.0,43.0,44.0,44.0,43.0,43.0,43.0,43.0,44.0,44.0,44.0,43.0,43.0,42.0,41.0,41.0,43.0,42.0,41.0,40.0,39.0,39.0,39.0,38.0,40.0,40.0,42.0,41.0,42.0,47.0,45.0,47.0,47.0,48.0,48.0,48.0,47.0,48.0,48.0,48.0,48.0,48.0,49.0,47.0,49.0,46.0,47.0,47.0,45.0,44.0,43.0,43.0,42.0,44.0,43.0,42.0,41.0,40.0,39.0,40.0,40.0,39.0,38.0,40.0,40.0,43.0,42.0,43.0,42.0,43.0,44.0,44.0,45.0,42.0,43.0,43.0,43.0,44.0,44.0,46.0,48.0,47.0,51.0,51.0,51.0,50.0,53.0,52.0,51.0,49.0,48.0,50.0,47.0,48.0,48.0,49.0,49.0,49.0,49.0,48.0,51.0,48.0,48.0,48.0,47.0,47.0,45.0,48.0,44.0,43.0,45.0,45.0,45.0,45.0,46.0,46.0,46.0,47.0,47.0,47.0,45.0,47.0,46.0,46.0,50.0,48.0,47.0,45.0,46.0,44.0,43.0,41.0,41.0,40.0,41.0,44.0,44.0,44.0,42.0,43.0,42.0,42.0,42.0,42.0,41.0,41.0,41.0,41.0,40.0,41.0,42.0,41.0,41.0,41.0,41.0,41.0,45.0,43.0,43.0,43.0,42.0,43.0,41.0,45.0,45.0,46.0,45.0,44.0,43.0,43.0,41.0,43.0,44.0,43.0,42.0,42.0,42.0,41.0,40.0,39.0,43.0,41.0,40.0,39.0,40.0,39.0,38.0,39.0,41.0,41.0,41.0,42.0,41.0,42.0,42.0,40.0,40.0,40.0,39.0,40.0,39.0,39.0,38.0,38.0,38.0,38.0,38.0,38.0,37.0,37.0,36.0,36.0,36.0,36.0,38.0,38.0,39.0,38.0,39.0,39.0,39.0,39.0,40.0,43.0,42.0,43.0,41.0,43.0,42.0,41.0,41.0,41.0,41.0,42.0,42.0,42.0,41.0,41.0,40.0,40.0,43.0,42.0,41.0,40.0,38.0,39.0,38.0,37.0,36.0,36.0,37.0,36.0,38.0,37.0,37.0,37.0,36.0,37.0,35.0,37.0,39.0,38.0,38.0,38.0,38.0,38.0,40.0,39.0,42.0,43.0,42.0,40.0,40.0,39.0,40.0,40.0,41.0,40.0,40.0,40.0,40.0,39.0,38.0,38.0,37.0,39.0,38.0,38.0,38.0,37.0,38.0,36.0,36.0,36.0,39.0,40.0,40.0,41.0,39.0,39.0,38.0,39.0,41.0,40.0,39.0,38.0,38.0,37.0,37.0,37.0,37.0,38.0,38.0,37.0,37.0,38.0,37.0,37.0,37.0,36.0,36.0,36.0,35.0,36.0,35.0,36.0,36.0,36.0,35.0,37.0,36.0,36.0,37.0,34.0,36.0,40.0,38.0,38.0,37.0,38.0,36.0,37.0,36.0,37.0,38.0,40.0,42.0,42.0,40.0,41.0,40.0,42.0,41.0,43.0,44.0,44.0,46.0,46.0,46.0,47.0,47.0,44.0,43.0,42.0,43.0,43.0,43.0,42.0
20.0,18.0,17.0,16.0,15.0,14.0,14.0,14.0,11.0,11.0,9.0,10.0,9.0,10.0,12.0,21.0,20.0,18.0,15.0,15.0,14.0,13.0,11.0,11.0,13.0,19.0,17.0,14.0,13.0,13.0,13.0,12.0,11.0,11.0,10.0,11.0,11.0,11.0,12.0,13.0,14.0,12.0,14.0,16.0,16.0,16.0,15.0,17.0,16.0,15.0,15.0,14.0,14.0,13.0,14.0,16.0,16.0,17.0,17.0,17.0,19.0,19.0,18.0,16.0,17.0,15.0,15.0,14.0,13.0,12.0,11.0,11.0,11.0,14.0,12.0,12.0,10.0,9.0,9.0,9.0,8.0,8.0,8.0,6.0,8.0,6.0,6.0,6.0,6.0,6.0,5.0,7.0,6.0,6.0,7.0,5.0,9.0,8.0,7.0,9.0,9.0,9.0,8.0,9.0,6.0,8.0,7.0,7.0,9.0,12.0,12.0,10.0,10.0,9.0,7.0,8.0,9.0,10.0,8.0,8.0,8.0,8.0,7.0,7.0,7.0,6.0,5.0,5.0,5.0,6.0,5.0,9.0,38.0,37.0,60.0,67.0,69.0,61.0,57.0,49.0,45.0,43.0,47.0,48.0,57.0,58.0,52.0,54.0,53.0,46.0,47.0,49.0,59.0,58.0,54.0,50.0,48.0,51.0,49.0,56.0,56.0,55.0,51.0,50.0,53.0,56.0,51.0,52.0,53.0,48.0,48.0,46.0,43.0,49.0,48.0,50.0,47.0,45.0,42.0,41.0,44.0,39.0,37.0,37.0,41.0,36.0,35.0,34.0,32.0,34.0,36.0,33.0,32.0,39.0,41.0,38.0,43.0,39.0,40.0,42.0,41.0,48.0,43.0,46.0,50.0,47.0,57.0,68.0,65.0,72.0,63.0,61.0,96.0,153.0,196.0,204.0,190.0,219.0,245.0,233.0,221.0,215.0,244.0,250.0,261.0,252.0,235.0,205.0,189.0,173.0,157.0,146.0,148.0,138.0,128.0,115.0,103.0,96.0,90.0,87.0,83.0,82.0,80.0,72.0,75.0,70.0,62.0,55.0,49.0,47.0,51.0,60.0,65.0,62.0,58.0,54.0,51.0,52.0,68.0,77.0,76.0,85.0,120.0,156.0,166.0,173.0,158.0,144.0,149.0,138.0,141.0,134.0,140.0,124.0,119.0,116.0,109.0,100.0,104.0,97.0,86.0,78.0,72.0,70.0,77.0,79.0,92.0,84.0,79.0,75.0,75.0,71.0,69.0,64.0,65.0,57.0,53.0,58.0,67.0,61.0,61.0,58.0,57.0,63.0,58.0,56.0,53.0,49.0,44.0,55.0,48.0,43.0,37.0,41.0,37.0,32.0,30.0,34.0,37.0,42.0,41.0,39.0,34.0,52.0,54.0,49.0,43.0,37.0,35.0,34.0,45.0,44.0,45.0,43.0,41.0,45.0,39.0,35.0,31.0,28.0,35.0,40.0,40.0,34.0,35.0,46.0,43.0,44.0,40.0,36.0,36.0,33.0,29.0,27.0,32.0,37.0,35.0,30.0,28.0,30.0,27.0,38.0,37.0,34.0,34.0,39.0,45.0,47.0,41.0,41.0,40.0,48.0,47.0,43.0,37.0,34.0,32.0,35.0,30.0,31.0,35.0,31.0,32.0,29.0,35.0,30.0,27.0,43.0,40.0,36.0,33.0,31.0,32.0,46.0,42.0,37.0,35.0,31.0,27.0,26.0,27.0,32.0,43.0,39.0,35.0,37.0,31.0,37.0,33.0,30.0,36.0,31.0,28.0,30.0,26.0,34.0,31.0,28.0,24.0,23.0,20.0,23.0,36.0,33.0,30.0,25.0,25.0,22.0,24.0,23.0,34.0,34.0,30.0,28.0,24.0,22.0,20.0,19.0,30.0,36.0,32.0,28.0,24.0,26.0,25.0,26.0,35.0,40.0,36.0,33.0,31.0,30.0,28.0,28.0,26.0,31.0,34.0,35.0,34.0,33.0,30.0,27.0,24.0,22.0,31.0,35.0,33.0,41.0,40.0,38.0,34.0,31.0,28.0,32.0,37.0,39.0,37.0,37.0,33.0,28.0,25.0,24.0,28.0,31.0,28.0,25.0,22.0,20.0,21.0,21.0,32.0,27.0,25.0,24.0,27.0,24.0,21.0,20.0,23.0,21.0,27.0,26.0,25.0,24.0,23.0,20.0,25.0,25.0,31.0,29.0,26.0,30.0,26.0,25.0,26.0,22.0,34.0,31.0,27.0,23.0,22.0,19.0,27.0,28.0,33.0,36.0,31.0,28.0,27.0,27.0,31.0,32.0,29.0,32.0,35.0,33.0,29.0,29.0,25.0,25.0,22.0,21.0,20.0,18.0,27.0,41.0,39.0,34.0,36.0,35.0,31.0,27.0,28.0,26.0,23.0,21.0,19.0,19.0,19.0,20.0,22.0,32.0,29.0,29.0,29.0,30.0,29.0,28.0,28.0,43.0,40.0,35.0,32.0,29.0,32.0,28.0,24.0,22.0,19.0,34.0,31.0,28.0,26.0,24.0,21.0,18.0,20.0,21.0,25.0,24.0,29.0,29.0,29.0,29.0,25.0,29.0,26.0,25.0,23.0,24.0,28.0,37.0,43.0,38.0,34.0,29.0,31.0,28.0,25.0,25.0,21.0,21.0,18.0,17.0,22.0,21.0,23.0,23.0,39.0,38.0,35.0,33.0,43.0,47.0,44.0,44.0,47.0,61.0,55.0,47.0,45.0,39.0,40.0,35.0,31.0,48.0,41.0,40.0,42.0,37.0,34.0,31.0,46.0,41.0,38.0,34.0,33.0,39.0,42.0,42.0,37.0,35.0,29.0,28.0,26.0,25.0,39.0,33.0,35.0,33.0,30.0,49.0,45.0,41.0,36.0,36.0,34.0,29.0,27.0,25.0,36.0,40.0,39.0,32.0,29.0,26.0,22.0,20.0,17.0,28.0,26.0,23.0,21.0,18.0,19.0,29.0,31.0,26.0,23.0,21.0,21.0,20.0,24.0,22.0,19.0,30.0,28.0,33.0,49.0,45.0,41.0,37.0,32.0,32.0,33.0,30.0,30.0,28.0,37.0,33.0,29.0,27.0,33.0,32.0,31.0,36.0,34.0,31.0,27.0,24.0,23.0,21.0,20.0,26.0,28.0,25.0,26.0,23.0,23.0,19.0,22.0,19.0,27.0,26.0,23.0,24.0,27.0,29.0,29.0,38.0,35.0,32.0,30.0,33.0,33.0,36.0,31.0,28.0,24.0,22.0,20.0,18.0,16.0,14.0,14.0,20.0,20.0,23.0,25.0,25.0,39.0,36.0,31.0,30.0,27.0,23.0,30.0,42.0,47.0,45.0,45.0,39.0,33.0,34.0,29.0,32.0,36.0,32.0,33.0,28.0,25.0,23.0,39.0,35.0,36.0,31.0,29.0,29.0,27.0,30.0,34.0,32.0,28.0,24.0,25.0,26.0,30.0,41.0,37.0,33.0,29.0,28.0,24.0,33.0,38.0,35.0,31.0,26.0,24.0,21.0,19.0,17.0,25.0,27.0,22.0,21.0,20.0,18.0,17.0,17.0,19.0,24.0,23.0,21.0,19.0,17.0,17.0,16.0,14.0,14.0,13.0,25.0,23.0,21.0,22.0,18.0,17.0,16.0,18.0,27.0,24.0,23.0,18.0,18.0,16.0,15.0,17.0,25.0,23.0,20.0,21.0,19.0,17.0,17.0,17.0,25.0,22.0,25.0,27.0,27.0,23.0,21.0,21.0,20.0,26.0,26.0,24.0,22.0,19.0,20.0,17.0,18.0,31.0,27.0,25.0,22.0,21.0,18.0,16.0,19.0,18.0,16.0,17.0,18.0,28.0,27.0,33.0,29.0,28.0,25.0,24.0,29.0,32.0,29.0,26.0,23.0,21.0,24.0,24.0,23.0,36.0,35.0,33.0,29.0,28.0,26.0,24.0,22.0,21.0,49.0,43.0,42.0,46.0,39.0,35.0,31.0,27.0,37.0,42.0,38.0,34.0,31.0,27.0,24.0,21.0,21.0,24.0,22.0,21.0,19.0,18.0,15.0,15.0,16.0,22.0,22.0,20.0,19.0,17.0,16.0,14.0,13.0,28.0,27.0,24.0,20.0,19.0,18.0,16.0,15.0,16.0,34.0,31.0,29.0,24.0,23.0,19.0,18.0,22.0,33.0,31.0,29.0,26.0,23.0,21.0,18.0,15.0,21.0,22.0,21.0,19.0,19.0,17.0,17.0,15.0,14.0,11.0,16.0,26.0,26.0,23.0,23.0,19.0,18.0,15.0,14.0,15.0,14.0,20.0,31.0,27.0,27.0,25.0,24.0,24.0,23.0,28.0,25.0,23.0,20.0
115.0,120.0,124.0,117.0,111.0,105.0,105.0,105.0,106.0,114.0,121.0,125.0,123.0,123.0,116.0,134.0,148.0,136.0,125.0,120.0,123.0,122.0,126.0,122.0,116.0,112.0,102.0,102.0,105.0,114.0,108.0,100.0,101.0,97.0,97.0,90.0,90.0,83.0,82.0,97.0,120.0,114.0,117.0,127.0,118.0,115.0,109.0,105.0,114.0,117.0,112.0,110.0,103.0,111.0,105.0,112.0,105.0,112.0,113.0,108.0,100.0,99.0,106.0,113.0,105.0,114.0,118.0,111.0,119.0,123.0,117.0,127.0,126.0,137.0,137.0,135.0,133.0,125.0,117.0,114.0,115.0,115.0,117.0,120.0,119.0,110.0,105.0,114.0,110.0,106.0,106.0,117.0,124.0,123.0,117.0,128.0,133.0,125.0,119.0,117.0,108.0,107.0,106.0,104.0,101.0,121.0,141.0,128.0,122.0,114.0,107.0,98.0,108.0,111.0,112.0,119.0,123.0,125.0,126.0,121.0,112.0,105.0,111.0,105.0,111.0,103.0,94.0,99.0,95.0,108.0,100.0,104.0,112.0,111.0,123.0,124.0,138.0,143.0,129.0,121.0,111.0,101.0,98.0,96.0,94.0,88.0,95.0,96.0,102.0,97.0,110.0,102.0,96.0,93.0,88.0,89.0,99.0,95.0,89.0,87.0,89.0,92.0,96.0,90.0,87.0,98.0,99.0,94.0,89.0,91.0,93.0,98.0,92.0,88.0,85.0,84.0,84.0,82.0,79.0,84.0,83.0,83.0,83.0,102.0,103.0,100.0,109.0,121.0,119.0,117.0,126.0,142.0,130.0,128.0,147.0,152.0,140.0,135.0,124.0,119.0,115.0,106.0,99.0,91.0,84.0,80.0,78.0,88.0,88.0,84.0,86.0,85.0,102.0,146.0,164.0,200.0,190.0,209.0,212.0,198.0,214.0,218.0,213.0,234.0,272.0,254.0,232.0,228.0,241.0,243.0,250.0,243.0,273.0,262.0,260.0,253.0,231.0,236.0,236.0,229.0,236.0,230.0,221.0,212.0,219.0,200.0,190.0,187.0,183.0,183.0,191.0,179.0,172.0,165.0,172.0,165.0,159.0,198.0,201.0,237.0,235.0,236.0,295.0,311.0,313.0,316.0,344.0,356.0,349.0,330.0,329.0,363.0,392.0,384.0,406.0,398.0,358.0,354.0,352.0,353.0,328.0,309.0,289.0,272.0,276.0,284.0,268.0,287.0,290.0,296.0,268.0,248.0,232.0,249.0,244.0,230.0,227.0,230.0,212.0,216.0,208.0,196.0,185.0,188.0,187.0,190.0,200.0,197.0,183.0,189.0,195.0,184.0,172.0,178.0,190.0,179.0,170.0,165.0,165.0,153.0,154.0,151.0,145.0,141.0,142.0,146.0,145.0,148.0,157.0,156.0,179.0,176.0,171.0,160.0,151.0,150.0,153.0,141.0,136.0,130.0,152.0,172.0,170.0,160.0,152.0,148.0,141.0,155.0,150.0,137.0,128.0,127.0,124.0,116.0,119.0,128.0,117.0,112.0,103.0,101.0,106.0,107.0,109.0,111.0,114.0,119.0,115.0,110.0,110.0,110.0,105.0,103.0,107.0,100.0,98.0,98.0,108.0,112.0,116.0,105.0,109.0,104.0,97.0,92.0,101.0,101.0,99.0,105.0,104.0,99.0,105.0,99.0,101.0,104.0,111.0,113.0,102.0,97.0,98.0,94.0,91.0,97.0,90.0,88.0,82.0,78.0,77.0,79.0,87.0,88.0,89.0,84.0,80.0,79.0,79.0,79.0,83.0,82.0,81.0,77.0,73.0,73.0,70.0,70.0,72.0,70.0,82.0,81.0,79.0,76.0,75.0,69.0,72.0,69.0,72.0,67.0,73.0,79.0,74.0,73.0,75.0,70.0,69.0,75.0,81.0,78.0,85.0,80.0,78.0,76.0,79.0,76.0,70.0,68.0,70.0,73.0,69.0,77.0,75.0,74.0,70.0,71.0,67.0,73.0,77.0,78.0,83.0,82.0,82.0,77.0,74.0,72.0,70.0,71.0,69.0,69.0,71.0,69.0,68.0,68.0,64.0,62.0,61.0,59.0,70.0,72.0,76.0,70.0,65.0,70.0,69.0,69.0,69.0,77.0,81.0,79.0,76.0,81.0,83.0,81.0,85.0,78.0,75.0,77.0,75.0,76.0,88.0,85.0,81.0,78.0,72.0,70.0,72.0,67.0,66.0,59.0,59.0,59.0,63.0,58.0,58.0,62.0,70.0,72.0,68.0,70.0,64.0,65.0,62.0,58.0,61.0,59.0,59.0,57.0,53.0,56.0,55.0,63.0,64.0,66.0,66.0,60.0,61.0,60.0,63.0,69.0,68.0,65.0,64.0,68.0,76.0,77.0,76.0,74.0,71.0,71.0,70.0,67.0,68.0,69.0,66.0,62.0,61.0,59.0,54.0,56.0,59.0,66.0,68.0,71.0,65.0,61.0,58.0,62.0,66.0,73.0,69.0,65.0,60.0,62.0,63.0,62.0,62.0,62.0,63.0,58.0,57.0,58.0,64.0,69.0,65.0,66.0,70.0,70.0,66.0,70.0,69.0,66.0,69.0,68.0,65.0,71.0,76.0,75.0,69.0,68.0,70.0,67.0,65.0,62.0,62.0,62.0,59.0,56.0,52.0,51.0,51.0,59.0,59.0,62.0,58.0,60.0,64.0,61.0,65.0,65.0,66.0,65.0,66.0,67.0,64.0,67.0,63.0,61.0,58.0,62.0,60.0,59.0,62.0,60.0,57.0,54.0,52.0,50.0,47.0,53.0,55.0,55.0,57.0,62.0,60.0,60.0,58.0,63.0,65.0,61.0,60.0,60.0,60.0,63.0,65.0,65.0,66.0,66.0,61.0,59.0,59.0,61.0,60.0,64.0,63.0,60.0,59.0,59.0,61.0,58.0,57.0,54.0,57.0,62.0,59.0,54.0,64.0,61.0,58.0,59.0,62.0,58.0,57.0,61.0,63.0,68.0,70.0,64.0,60.0,56.0,59.0,67.0,62.0,61.0,58.0,56.0,56.0,56.0,61.0,58.0,58.0,58.0,62.0,62.0,65.0,63.0,60.0,60.0,64.0,63.0,60.0,57.0,55.0,52.0,52.0,55.0,57.0,54.0,52.0,49.0,60.0,56.0,53.0,53.0,52.0,49.0,54.0,52.0,54.0,56.0,55.0,57.0,55.0,56.0,56.0,54.0,62.0,62.0,61.0,61.0,61.0,58.0,55.0,50.0,50.0,47.0,44.0,43.0,41.0,42.0,53.0,54.0,57.0,57.0,57.0,54.0,53.0,49.0,47.0,46.0,49.0,57.0,60.0,60.0,57.0,53.0,51.0,48.0,49.0,50.0,53.0,50.0,50.0,50.0,49.0,50.0,55.0,52.0,52.0,49.0,47.0,51.0,51.0,51.0,50.0,50.0,47.0,51.0,50.0,50.0,48.0,47.0,50.0,48.0,48.0,55.0,53.0,52.0,50.0,50.0,50.0,48.0,47.0,50.0,48.0,44.0,45.0,47.0,48.0,47.0,47.0,46.0,45.0,44.0,47.0,51.0,47.0,49.0,47.0,45.0,48.0,49.0,52.0,49.0,50.0,51.0,53.0,54.0,53.0,56.0,56.0,58.0,56.0,56.0,55.0,53.0,54.0,56.0,58.0,58.0,55.0,54.0,57.0,58.0,53.0,56.0,52.0,50.0,57.0,55.0,56.0,53.0,54.0,60.0,62.0,59.0,65.0,61.0,57.0,54.0,50.0,47.0,50.0,50.0,53.0,52.0,61.0,59.0,56.0,54.0,53.0,52.0,52.0,53.0,54.0,55.0,53.0,53.0,54.0,58.0,59.0,57.0,58.0,57.0,54.0,54.0,51.0,49.0,51.0,50.0,49.0,48.0,48.0,49.0,51.0,47.0,52.0,53.0,53.0,51.0,47.0,47.0,47.0,51.0,57.0,57.0,63.0,60.0,61.0,56.0,55.0,56.0,62.0,58.0,55.0,51.0,49.0,50.0,46.0,45.0,55.0,53.0,57.0,60.0,59.0,56.0,52.0,53.0,52.0,50.0,49.0,46.0,47.0,46.0,45.0,45.0,53.0,59.0,58.0,56.0,54.0,51.0,47.0,45.0,52.0,55.0,53.0,50.0,49.0,57.0,56.0,52.0,51.0,53.0,51.0,51.0,49.0,55.0,55.0,50.0,48.0,55.0,62.0,60.0,57.0,58.0,56.0,54.0,53.0,50.0,49.0,52.0,52.0,50.0,50.0,49.0,47.0,48.0,44.0,43.0,39.0,41.0,44.0,46.0,47.0,47.0,52.0,52.0,56.0,58.0,59.0,56.0,53.0,55.0
