72.0,76.0,76.0,76.0,76.0,75.0,75.0,76.0,76.0,76.0,76.0,77.0,77.0,74.0,73.0,73.0,72.0,73.0,73.0,72.0,70.0,67.0,67.0,66.0,65.0,65.0,64.0,65.0,65.0,67.0,67.0,66.0,68.0,67.0,67.0,68.0,68.0,68.0,67.0,68.0,67.0,68.0,68.0,68.0,67.0,66.0,66.0,67.0,67.0,68.0,68.0,67.0,66.0,65.0,64.0,63.0,62.0,60.0,61.0,60.0,60.0,60.0,62.0,62.0,60.0,61.0,60.0,62.0,64.0,63.0,65.0,65.0,66.0,64.0,66.0,67.0,69.0,71.0,72.0,73.0,72.0,72.0,72.0,73.0,72.0,75.0,76.0,76.0,78.0,77.0,77.0,77.0,77.0,77.0,76.0,77.0,76.0,75.0,73.0,73.0,73.0,71.0,69.0,68.0,67.0,67.0,68.0,68.0,66.0,64.0,63.0,62.0,64.0,63.0,64.0,64.0,63.0,65.0,65.0,63.0,63.0,63.0,60.0,63.0,63.0,63.0,62.0,61.0,62.0,61.0,61.0,61.0,61.0,62.0,62.0,63.0,63.0,67.0,69.0,70.0,71.0,71.0,73.0,72.0,72.0,74.0,74.0,73.0,73.0,73.0,69.0,67.0,65.0,63.0,63.0,65.0,76.0,79.0,92.0,89.0,97.0,98.0,97.0,92.0,90.0,90.0,91.0,91.0,98.0,100.0,102.0,101.0,103.0,112.0,145.0,158.0,161.0,171.0,184.0,188.0,201.0,206.0,213.0,218.0,225.0,243.0,235.0,240.0,237.0,235.0,231.0,231.0,230.0,230.0,226.0,228.0,229.0,229.0,222.0,222.0,220.0,218.0,219.0,213.0,221.0,217.0,214.0,215.0,215.0,219.0,219.0,218.0,222.0,218.0,215.0,221.0,237.0,232.0,228.0,220.0,217.0,206.0,198.0,193.0,187.0,186.0,176.0,179.0,180.0,181.0,191.0,179.0,180.0,174.0,159.0,146.0,141.0,134.0,131.0,137.0,128.0,127.0,124.0,128.0,128.0,129.0,126.0,123.0,116.0,112.0,112.0,109.0,106.0,101.0,95.0,95.0,92.0,96.0,91.0,86.0,83.0,83.0,88.0,87.0,85.0,83.0,85.0,89.0,89.0,97.0,111.0,110.0,109.0,117.0,119.0,116.0,116.0,116.0,116.0,117.0,120.0,121.0,123.0,120.0,124.0,127.0,125.0,125.0,125.0,123.0,124.0,120.0,119.0,120.0,120.0,121.0,117.0,122.0,122.0,119.0,123.0,121.0,118.0,117.0,117.0,112.0,113.0,114.0,111.0,109.0,108.0,109.0,108.0,106.0,106.0,108.0,108.0,107.0,106.0,106.0,105.0,105.0,105.0,107.0,107.0,108.0,110.0,112.0,114.0,115.0,117.0,118.0,120.0,121.0,121.0,120.0,119.0,119.0,119.0,120.0,118.0,118.0,120.0,119.0,119.0,120.0,121.0,120.0,122.0,122.0,121.0,119.0,119.0,121.0,119.0,118.0,116.0,117.0,115.0,113.0,111.0,109.0,108.0,108.0,109.0,108.0,105.0,106.0,104.0,102.0,101.0,100.0,102.0,102.0,103.0,102.0,102.0,102.0,102.0,101.0,101.0,102.0,103.0,102.0,103.0,103.0,103.0,101.0,101.0,102.0,100.0,100.0,99.0,98.0,97.0,99.0,101.0,102.0,102.0,102.0,104.0,104.0,105.0,105.0,103.0,104.0,104.0,103.0,103.0,105.0,106.0,103.0,106.0,104.0,104.0,103.0,101.0,101.0,100.0,100.0,99.0,98.0,96.0,95.0,94.0,94.0,96.0,96.0,95.0,95.0,94.0,94.0,92.0,92.0,91.0,91.0,90.0,89.0,90.0,88.0,91.0,93.0,95.0,94.0,92.0,93.0,93.0,93.0,94.0,91.0,91.0,89.0,91.0,88.0,89.0,86.0,86.0,86.0,85.0,86.0,86.0,84.0,84.0,85.0,85.0,84.0,88.0,87.0,87.0,88.0,88.0,86.0,87.0,88.0,87.0,86.0,84.0,83.0,86.0,85.0,85.0,83.0,82.0,82.0,79.0,80.0,81.0,80.0,80.0,79.0,80.0,78.0,81.0,81.0,81.0,80.0,80.0,79.0,79.0,78.0,78.0,78.0,76.0,77.0,74.0,75.0,76.0,76.0,79.0,77.0,79.0,81.0,82.0,84.0,81.0,83.0,82.0,82.0,82.0,81.0,80.0,79.0,79.0,78.0,77.0,76.0,75.0,73.0,73.0,75.0,73.0,72.0,72.0,71.0,71.0,69.0,72.0,70.0,70.0,70.0,69.0,70.0,69.0,70.0,69.0,66.0,66.0,65.0,65.0,63.0,61.0,58.0,55.0,54.0,52.0,52.0,54.0,53.0,52.0,52.0,53.0,53.0,55.0,55.0,57.0,56.0,56.0,56.0,56.0,55.0,56.0,56.0,56.0,55.0,54.0,53.0,53.0,53.0,53.0,52.0,53.0,54.0,55.0,55.0,55.0,55.0,53.0,53.0,53.0,53.0,52.0,53.0,54.0,54.0,55.0,58.0,59.0,61.0,61.0,62.0,62.0,62.0,62.0,63.0,63.0,63.0,64.0,64.0,64.0,64.0,62.0,62.0,62.0,61.0,61.0,58.0,58.0,58.0,58.0,58.0,59.0,59.0,58.0,60.0,59.0,59.0,61.0,60.0,60.0,60.0,59.0,59.0,61.0,62.0,63.0,63.0,62.0,63.0,62.0,62.0,61.0,63.0,62.0,62.0,62.0,61.0,60.0,60.0,61.0,63.0,62.0,64.0,64.0,64.0,63.0,62.0,62.0,60.0,60.0,59.0,59.0,58.0,57.0,57.0,58.0,59.0,59.0,57.0,58.0,59.0,60.0,60.0,61.0,62.0,65.0,67.0,66.0,69.0,69.0,70.0,69.0,69.0,69.0,68.0,71.0,70.0,72.0,73.0,72.0,74.0,72.0,72.0,72.0,71.0,72.0,72.0,71.0,70.0,71.0,68.0,68.0,68.0,68.0,68.0,69.0,72.0,70.0,70.0,70.0,68.0,69.0,68.0,70.0,70.0,68.0,69.0,67.0,66.0,65.0,67.0,64.0,63.0,63.0,61.0,60.0,59.0,60.0,58.0,57.0,57.0,57.0,55.0,55.0,55.0,54.0,55.0,54.0,55.0,55.0,53.0,54.0,52.0,51.0,51.0,50.0,49.0,49.0,50.0,48.0,48.0,47.0,46.0,45.0,44.0,44.0,44.0,43.0,44.0,43.0,44.0,43.0,44.0,43.0,44.0,44.0,45.0,43.0,43.0,44.0,44.0,46.0,47.0,48.0,47.0,47.0,47.0,46.0,46.0,45.0,45.0,46.0,45.0,46.0,46.0,46.0,45.0,45.0,44.0,43.0,44.0,43.0,44.0,45.0,45.0,48.0,49.0,51.0,51.0,53.0,53.0,53.0,52.0,52.0,54.0,53.0,52.0,50.0,50.0,49.0,50.0,47.0,47.0,48.0,47.0,48.0,47.0,47.0,47.0,49.0,48.0,49.0,49.0,50.0,50.0,52.0,53.0,52.0,53.0,54.0,54.0,53.0,53.0,55.0,54.0,55.0,55.0,54.0,54.0,54.0,54.0,52.0,53.0,53.0,51.0,50.0,51.0,50.0,49.0,49.0,48.0,49.0,49.0,49.0,50.0,50.0,50.0,51.0,52.0,52.0,52.0,52.0,51.0,52.0,53.0,53.0,53.0,53.0,53.0,52.0,53.0,52.0,51.0,51.0,51.0,51.0,50.0,52.0,51.0,51.0,52.0,52.0,52.0,50.0,53.0,53.0,52.0,53.0,51.0,51.0,51.0,51.0,51.0,51.0,52.0,52.0,52.0,52.0,54.0,53.0,54.0,54.0,53.0,54.0,53.0,52.0,51.0,51.0,50.0,50.0,51.0,50.0,51.0,51.0,50.0,51.0,50.0,51.0,50.0,50.0,51.0,51.0,51.0,49.0,53.0,52.0,52.0,52.0,53.0,52.0,52.0,52.0,54.0,54.0,55.0,55.0,55.0,55.0,57.0,56.0,57.0,54.0,54.0,53.0,51.0,51.0,50.0,50.0,50.0,49.0,49.0,47.0,50.0,48.0,48.0,47.0,47.0,46.0,45.0,47.0,47.0,49.0,49.0,50.0,49.0,49.0,51.0,52.0,51.0,50.0,52.0,53.0,54.0,56.0,58.0,59.0,59.0,58.0,57.0,56.0,55.0,55.0,57.0,58.0,58.0,58.0,59.0,59.0,58.0,58.0,58.0,59.0,59.0,58.0,59.0,58.0,61.0,60.0,61.0,59.0,57.0
54.0,55.0,54.0,54.0,54.0,55.0,54.0,55.0,54.0,54.0,54.0,54.0,56.0,52.0,54.0,55.0,54.0,55.0,54.0,52.0,52.0,51.0,51.0,51.0,53.0,53.0,53.0,52.0,52.0,52.0,51.0,51.0,51.0,51.0,50.0,50.0,49.0,49.0,51.0,51.0,52.0,52.0,54.0,54.0,53.0,52.0,52.0,53.0,53.0,53.0,52.0,51.0,51.0,49.0,50.0,48.0,49.0,47.0,48.0,48.0,48.0,48.0,47.0,45.0,44.0,43.0,42.0,42.0,43.0,42.0,42.0,41.0,40.0,39.0,39.0,40.0,40.0,41.0,41.0,40.0,40.0,39.0,40.0,40.0,39.0,39.0,38.0,38.0,37.0,37.0,37.0,38.0,38.0,38.0,38.0,39.0,38.0,38.0,38.0,40.0,38.0,37.0,37.0,38.0,38.0,38.0,39.0,38.0,38.0,37.0,38.0,36.0,36.0,36.0,35.0,35.0,35.0,37.0,36.0,36.0,36.0,36.0,36.0,37.0,37.0,38.0,38.0,39.0,38.0,38.0,39.0,40.0,39.0,38.0,39.0,39.0,39.0,39.0,41.0,39.0,39.0,38.0,39.0,39.0,40.0,41.0,41.0,41.0,42.0,41.0,41.0,43.0,44.0,43.0,53.0,102.0,117.0,139.0,245.0,350.0,381.0,358.0,345.0,317.0,322.0,309.0,294.0,309.0,316.0,292.0,283.0,269.0,265.0,265.0,317.0,357.0,335.0,331.0,334.0,330.0,363.0,366.0,354.0,348.0,352.0,378.0,369.0,387.0,377.0,377.0,368.0,365.0,353.0,362.0,351.0,351.0,351.0,352.0,334.0,334.0,325.0,314.0,312.0,295.0,302.0,294.0,279.0,279.0,283.0,273.0,264.0,265.0,259.0,251.0,247.0,261.0,265.0,244.0,269.0,263.0,257.0,240.0,236.0,245.0,263.0,273.0,282.0,290.0,303.0,303.0,331.0,323.0,321.0,310.0,300.0,277.0,286.0,277.0,272.0,289.0,280.0,283.0,299.0,315.0,330.0,349.0,363.0,370.0,374.0,371.0,375.0,371.0,362.0,354.0,343.0,339.0,324.0,329.0,321.0,291.0,271.0,257.0,242.0,231.0,208.0,189.0,177.0,161.0,152.0,141.0,141.0,150.0,159.0,181.0,210.0,234.0,255.0,275.0,289.0,310.0,327.0,342.0,354.0,365.0,382.0,393.0,403.0,413.0,417.0,418.0,420.0,419.0,416.0,414.0,410.0,406.0,397.0,394.0,387.0,380.0,376.0,367.0,356.0,348.0,341.0,330.0,325.0,321.0,311.0,304.0,297.0,293.0,288.0,282.0,278.0,273.0,267.0,259.0,252.0,248.0,242.0,238.0,232.0,228.0,225.0,219.0,215.0,213.0,210.0,205.0,199.0,195.0,191.0,187.0,183.0,177.0,173.0,168.0,163.0,160.0,154.0,153.0,151.0,147.0,143.0,140.0,134.0,129.0,130.0,127.0,124.0,118.0,117.0,117.0,114.0,113.0,106.0,109.0,106.0,105.0,102.0,100.0,98.0,98.0,98.0,94.0,95.0,95.0,94.0,94.0,93.0,91.0,90.0,90.0,88.0,87.0,85.0,85.0,85.0,81.0,81.0,78.0,77.0,78.0,77.0,78.0,76.0,76.0,78.0,80.0,80.0,79.0,79.0,77.0,76.0,74.0,77.0,78.0,76.0,76.0,76.0,77.0,76.0,74.0,72.0,71.0,69.0,68.0,67.0,67.0,68.0,66.0,69.0,69.0,68.0,67.0,67.0,65.0,64.0,64.0,65.0,62.0,60.0,57.0,55.0,55.0,53.0,53.0,51.0,49.0,48.0,47.0,47.0,46.0,46.0,45.0,44.0,44.0,45.0,46.0,47.0,51.0,53.0,53.0,54.0,53.0,51.0,49.0,50.0,47.0,48.0,47.0,49.0,47.0,47.0,47.0,46.0,45.0,45.0,46.0,45.0,44.0,45.0,44.0,42.0,41.0,43.0,42.0,42.0,41.0,40.0,39.0,39.0,38.0,38.0,37.0,38.0,39.0,39.0,40.0,41.0,41.0,41.0,42.0,42.0,42.0,43.0,42.0,42.0,41.0,43.0,42.0,42.0,41.0,40.0,40.0,38.0,38.0,38.0,38.0,38.0,38.0,39.0,40.0,40.0,40.0,39.0,39.0,39.0,39.0,37.0,38.0,37.0,36.0,37.0,37.0,37.0,36.0,37.0,36.0,36.0,36.0,35.0,35.0,36.0,36.0,35.0,36.0,37.0,35.0,35.0,35.0,35.0,35.0,35.0,35.0,35.0,35.0,33.0,35.0,35.0,34.0,34.0,35.0,35.0,35.0,37.0,37.0,38.0,39.0,40.0,40.0,38.0,38.0,38.0,36.0,37.0,35.0,35.0,35.0,35.0,36.0,35.0,35.0,34.0,34.0,35.0,35.0,35.0,35.0,35.0,37.0,36.0,36.0,36.0,36.0,35.0,35.0,35.0,35.0,36.0,36.0,37.0,36.0,37.0,36.0,35.0,35.0,35.0,36.0,34.0,35.0,36.0,35.0,37.0,36.0,36.0,34.0,35.0,35.0,35.0,36.0,36.0,36.0,35.0,36.0,35.0,35.0,35.0,35.0,36.0,34.0,36.0,36.0,35.0,35.0,35.0,37.0,36.0,36.0,35.0,36.0,36.0,36.0,37.0,35.0,37.0,37.0,38.0,40.0,38.0,41.0,40.0,42.0,41.0,41.0,40.0,39.0,40.0,38.0,38.0,38.0,38.0,37.0,37.0,38.0,36.0,36.0,36.0,36.0,36.0,36.0,37.0,36.0,36.0,36.0,35.0,36.0,37.0,38.0,37.0,37.0,37.0,39.0,38.0,38.0,40.0,39.0,39.0,39.0,38.0,38.0,36.0,38.0,36.0,37.0,36.0,35.0,36.0,36.0,36.0,34.0,34.0,35.0,35.0,36.0,36.0,37.0,34.0,36.0,36.0,35.0,36.0,36.0,38.0,36.0,35.0,35.0,35.0,35.0,35.0,37.0,36.0,36.0,36.0,36.0,36.0,36.0,37.0,36.0,36.0,37.0,37.0,37.0,36.0,38.0,37.0,37.0,37.0,38.0,39.0,37.0,39.0,38.0,38.0,38.0,37.0,37.0,37.0,37.0,37.0,36.0,37.0,37.0,37.0,38.0,38.0,38.0,38.0,37.0,37.0,39.0,40.0,41.0,41.0,41.0,43.0,43.0,42.0,41.0,41.0,42.0,40.0,41.0,40.0,40.0,40.0,42.0,40.0,42.0,41.0,40.0,40.0,40.0,40.0,40.0,38.0,38.0,39.0,38.0,40.0,41.0,42.0,39.0,40.0,39.0,39.0,38.0,37.0,37.0,38.0,38.0,38.0,39.0,40.0,39.0,39.0,38.0,37.0,37.0,37.0,36.0,36.0,35.0,35.0,35.0,35.0,35.0,35.0,36.0,37.0,36.0,36.0,38.0,37.0,37.0,37.0,38.0,38.0,40.0,38.0,38.0,40.0,40.0,42.0,40.0,39.0,39.0,40.0,41.0,41.0,41.0,41.0,42.0,41.0,40.0,39.0,38.0,39.0,37.0,37.0,37.0,35.0,36.0,35.0,36.0,35.0,36.0,35.0,35.0,36.0,36.0,37.0,36.0,37.0,37.0,36.0,37.0,37.0,38.0,37.0,38.0,37.0,37.0,39.0,38.0,39.0,37.0,37.0,36.0,36.0,37.0,37.0,38.0,36.0,36.0,35.0,35.0,37.0,36.0,37.0,36.0,36.0,36.0,35.0,38.0,37.0,37.0,37.0,37.0,36.0,36.0,36.0,36.0,37.0,36.0,35.0,36.0,35.0,38.0,37.0,38.0,36.0,39.0,41.0,42.0,44.0,45.0,46.0,45.0,45.0,44.0,44.0,46.0,45.0,44.0,43.0,41.0,40.0,39.0,39.0,41.0,41.0,40.0,42.0,44.0,44.0,45.0,43.0,45.0,42.0,41.0,40.0,40.0,39.0,38.0,38.0,39.0,38.0,39.0,39.0,38.0,37.0,37.0,39.0,38.0,37.0,38.0,40.0,40.0,40.0,40.0,38.0,40.0,38.0,37.0,37.0,38.0,37.0,36.0,37.0,38.0,37.0,37.0,39.0,38.0,37.0,38.0,40.0,41.0,41.0,41.0,40.0,38.0,38.0,37.0,38.0,37.0,37.0,38.0,38.0,37.0,37.0,37.0,37.0,39.0,39.0,39.0,38.0,38.0,39.0,41.0,39.0,41.0,40.0,40.0,39.0,40.0,41.0,41.0,41.0,39.0,40.0,40.0,41.0,41.0,40.0,40.0,38.0,37.0
36.0,37.0,32.0,27.0,25.0,22.0,20.0,17.0,18.0,34.0,34.0,30.0,27.0,32.0,32.0,28.0,31.0,33.0,33.0,29.0,25.0,22.0,22.0,20.0,20.0,18.0,25.0,25.0,37.0,33.0,30.0,34.0,31.0,27.0,28.0,24.0,29.0,34.0,41.0,38.0,33.0,29.0,25.0,24.0,22.0,19.0,25.0,23.0,34.0,30.0,27.0,26.0,22.0,21.0,18.0,17.0,16.0,17.0,21.0,20.0,32.0,33.0,29.0,25.0,24.0,21.0,20.0,19.0,17.0,19.0,21.0,19.0,17.0,16.0,14.0,17.0,17.0,15.0,15.0,15.0,16.0,15.0,18.0,19.0,16.0,15.0,14.0,12.0,12.0,11.0,10.0,10.0,9.0,9.0,12.0,11.0,10.0,10.0,9.0,9.0,9.0,10.0,16.0,16.0,15.0,14.0,12.0,11.0,10.0,9.0,10.0,11.0,14.0,13.0,15.0,12.0,14.0,13.0,13.0,12.0,12.0,11.0,10.0,10.0,9.0,13.0,14.0,13.0,13.0,12.0,11.0,10.0,9.0,10.0,9.0,11.0,9.0,9.0,9.0,10.0,10.0,8.0,9.0,7.0,7.0,6.0,6.0,7.0,5.0,7.0,5.0,6.0,5.0,5.0,8.0,15.0,16.0,21.0,46.0,66.0,74.0,64.0,57.0,56.0,52.0,46.0,47.0,59.0,61.0,71.0,67.0,59.0,57.0,53.0,62.0,65.0,68.0,62.0,54.0,54.0,58.0,56.0,54.0,49.0,63.0,66.0,77.0,73.0,72.0,121.0,105.0,92.0,80.0,70.0,61.0,53.0,53.0,61.0,57.0,52.0,59.0,61.0,59.0,52.0,49.0,47.0,40.0,37.0,34.0,30.0,27.0,25.0,25.0,20.0,22.0,25.0,24.0,21.0,25.0,23.0,19.0,18.0,15.0,17.0,18.0,17.0,35.0,61.0,78.0,119.0,279.0,365.0,408.0,484.0,485.0,509.0,541.0,510.0,457.0,455.0,423.0,366.0,316.0,278.0,244.0,216.0,211.0,225.0,202.0,179.0,173.0,155.0,137.0,123.0,125.0,117.0,118.0,122.0,115.0,109.0,109.0,100.0,86.0,76.0,81.0,85.0,87.0,87.0,88.0,90.0,93.0,95.0,105.0,119.0,113.0,108.0,103.0,100.0,93.0,95.0,102.0,98.0,111.0,111.0,103.0,98.0,88.0,78.0,81.0,83.0,99.0,94.0,91.0,79.0,73.0,69.0,77.0,85.0,76.0,71.0,62.0,55.0,68.0,73.0,78.0,76.0,74.0,70.0,63.0,55.0,49.0,60.0,69.0,65.0,61.0,59.0,55.0,47.0,47.0,40.0,38.0,34.0,37.0,35.0,31.0,38.0,55.0,61.0,56.0,51.0,52.0,47.0,58.0,58.0,53.0,51.0,45.0,41.0,44.0,41.0,48.0,46.0,41.0,39.0,38.0,35.0,32.0,42.0,56.0,50.0,49.0,47.0,41.0,39.0,34.0,30.0,48.0,51.0,48.0,41.0,44.0,42.0,39.0,35.0,32.0,37.0,32.0,31.0,26.0,25.0,42.0,50.0,47.0,41.0,37.0,32.0,34.0,31.0,27.0,27.0,25.0,30.0,46.0,41.0,37.0,35.0,33.0,28.0,27.0,24.0,20.0,18.0,16.0,15.0,17.0,28.0,28.0,25.0,24.0,24.0,23.0,21.0,19.0,25.0,22.0,22.0,19.0,18.0,17.0,17.0,15.0,15.0,15.0,16.0,16.0,15.0,17.0,14.0,14.0,14.0,14.0,13.0,11.0,11.0,10.0,9.0,9.0,7.0,8.0,7.0,7.0,6.0,6.0,6.0,5.0,5.0,5.0,8.0,16.0,38.0,43.0,58.0,50.0,44.0,39.0,34.0,30.0,27.0,25.0,24.0,38.0,40.0,41.0,34.0,30.0,27.0,25.0,23.0,21.0,21.0,18.0,19.0,19.0,19.0,17.0,20.0,18.0,14.0,14.0,13.0,13.0,13.0,13.0,13.0,11.0,14.0,17.0,18.0,17.0,15.0,15.0,13.0,13.0,13.0,13.0,14.0,14.0,13.0,12.0,13.0,13.0,11.0,11.0,10.0,12.0,10.0,10.0,10.0,10.0,11.0,11.0,12.0,11.0,12.0,14.0,12.0,11.0,10.0,11.0,14.0,19.0,17.0,15.0,15.0,15.0,15.0,12.0,12.0,12.0,11.0,10.0,13.0,15.0,12.0,14.0,14.0,11.0,18.0,17.0,17.0,14.0,15.0,13.0,15.0,16.0,13.0,14.0,12.0,11.0,13.0,11.0,10.0,9.0,9.0,10.0,12.0,12.0,13.0,14.0,15.0,15.0,12.0,11.0,10.0,10.0,9.0,9.0,10.0,8.0,8.0,9.0,9.0,8.0,8.0,11.0,8.0,9.0,10.0,9.0,14.0,17.0,16.0,14.0,12.0,11.0,10.0,10.0,9.0,10.0,8.0,7.0,10.0,15.0,14.0,13.0,13.0,12.0,12.0,10.0,9.0,9.0,9.0,13.0,10.0,10.0,9.0,9.0,8.0,7.0,12.0,13.0,11.0,12.0,11.0,10.0,10.0,13.0,11.0,10.0,9.0,19.0,17.0,18.0,20.0,18.0,16.0,15.0,14.0,12.0,15.0,15.0,14.0,13.0,12.0,11.0,10.0,9.0,10.0,9.0,7.0,11.0,11.0,11.0,15.0,13.0,12.0,14.0,12.0,11.0,11.0,12.0,15.0,14.0,14.0,13.0,13.0,12.0,13.0,13.0,11.0,10.0,10.0,9.0,8.0,12.0,12.0,10.0,9.0,11.0,10.0,14.0,16.0,18.0,18.0,18.0,17.0,16.0,14.0,16.0,15.0,17.0,18.0,16.0,15.0,15.0,18.0,18.0,17.0,14.0,14.0,13.0,11.0,11.0,17.0,19.0,18.0,16.0,13.0,12.0,12.0,12.0,11.0,12.0,15.0,15.0,14.0,13.0,13.0,12.0,12.0,14.0,15.0,14.0,13.0,13.0,14.0,12.0,17.0,16.0,15.0,15.0,15.0,16.0,14.0,18.0,17.0,17.0,17.0,15.0,14.0,12.0,12.0,10.0,12.0,12.0,12.0,14.0,12.0,12.0,10.0,12.0,12.0,11.0,11.0,8.0,12.0,11.0,12.0,11.0,9.0,11.0,14.0,14.0,14.0,15.0,16.0,14.0,14.0,12.0,15.0,14.0,12.0,11.0,10.0,15.0,12.0,14.0,13.0,12.0,12.0,10.0,11.0,10.0,14.0,13.0,11.0,11.0,13.0,14.0,12.0,13.0,15.0,13.0,13.0,12.0,12.0,10.0,12.0,12.0,15.0,15.0,13.0,17.0,15.0,13.0,14.0,13.0,13.0,12.0,17.0,16.0,14.0,15.0,14.0,12.0,11.0,11.0,10.0,11.0,11.0,10.0,13.0,13.0,12.0,10.0,10.0,9.0,8.0,9.0,10.0,10.0,13.0,16.0,15.0,13.0,12.0,9.0,11.0,10.0,11.0,11.0,13.0,15.0,13.0,13.0,12.0,13.0,11.0,10.0,10.0,16.0,17.0,14.0,15.0,15.0,14.0,16.0,13.0,13.0,12.0,12.0,13.0,11.0,10.0,10.0,10.0,8.0,8.0,7.0,8.0,12.0,13.0,13.0,12.0,10.0,12.0,13.0,13.0,11.0,13.0,11.0,14.0,14.0,13.0,13.0,11.0,10.0,10.0,10.0,10.0,11.0,11.0,21.0,19.0,17.0,18.0,18.0,19.0,18.0,17.0,15.0,14.0,16.0,15.0,14.0,12.0,11.0,10.0,11.0,10.0,9.0,9.0,12.0,11.0,11.0,10.0,7.0,9.0,8.0,7.0,11.0,10.0,11.0,10.0,10.0,11.0,10.0,9.0,9.0,9.0,10.0,10.0,11.0,10.0,9.0,13.0,16.0,14.0,18.0,22.0,19.0,20.0,20.0,17.0,14.0,14.0,13.0,19.0,19.0,21.0,18.0,17.0,15.0,14.0,11.0,11.0,10.0,11.0,8.0,9.0,8.0,10.0,8.0,11.0,11.0,8.0,14.0,12.0,11.0,13.0,12.0,12.0,14.0,14.0,14.0,13.0,14.0,12.0,14.0,14.0,13.0,11.0,11.0,12.0,12.0,11.0,10.0,9.0,10.0,11.0,10.0,8.0,9.0,7.0,7.0,10.0,9.0,11.0,9.0,13.0,18.0,20.0,18.0,17.0,15.0,16.0,16.0,14.0,15.0,14.0,12.0,11.0,11.0,14.0,16.0,14.0,14.0,12.0,11.0,9.0
91.0,91.0,92.0,86.0,84.0,77.0,80.0,82.0,79.0,76.0,77.0,76.0,74.0,70.0,72.0,74.0,75.0,77.0,81.0,78.0,71.0,72.0,70.0,65.0,63.0,68.0,73.0,72.0,74.0,70.0,71.0,73.0,73.0,72.0,70.0,74.0,73.0,72.0,73.0,71.0,71.0,70.0,70.0,67.0,65.0,68.0,68.0,72.0,74.0,71.0,73.0,83.0,85.0,82.0,78.0,74.0,77.0,79.0,83.0,77.0,73.0,75.0,70.0,67.0,64.0,69.0,71.0,72.0,72.0,68.0,75.0,69.0,65.0,70.0,67.0,67.0,62.0,63.0,61.0,64.0,67.0,67.0,66.0,66.0,67.0,66.0,70.0,73.0,69.0,66.0,66.0,69.0,68.0,65.0,67.0,65.0,68.0,68.0,65.0,63.0,60.0,59.0,61.0,60.0,60.0,58.0,59.0,56.0,54.0,51.0,49.0,49.0,48.0,55.0,58.0,60.0,63.0,60.0,55.0,53.0,51.0,49.0,63.0,65.0,65.0,68.0,64.0,61.0,59.0,60.0,60.0,56.0,58.0,65.0,63.0,62.0,64.0,65.0,62.0,59.0,56.0,68.0,73.0,69.0,88.0,94.0,87.0,84.0,88.0,86.0,84.0,80.0,74.0,70.0,74.0,82.0,80.0,82.0,100.0,117.0,119.0,110.0,112.0,104.0,103.0,101.0,108.0,120.0,117.0,116.0,113.0,109.0,100.0,108.0,108.0,109.0,118.0,116.0,106.0,101.0,101.0,99.0,105.0,110.0,119.0,112.0,107.0,111.0,109.0,114.0,105.0,107.0,100.0,99.0,93.0,103.0,110.0,108.0,118.0,114.0,120.0,111.0,117.0,116.0,109.0,107.0,112.0,110.0,108.0,109.0,108.0,102.0,107.0,122.0,116.0,116.0,108.0,97.0,92.0,86.0,96.0,96.0,100.0,97.0,95.0,97.0,94.0,104.0,98.0,147.0,228.0,268.0,304.0,302.0,296.0,287.0,281.0,296.0,307.0,296.0,274.0,250.0,242.0,224.0,220.0,212.0,226.0,226.0,206.0,185.0,175.0,162.0,160.0,152.0,147.0,143.0,134.0,127.0,130.0,126.0,131.0,139.0,148.0,192.0,211.0,237.0,307.0,309.0,311.0,315.0,359.0,413.0,493.0,504.0,472.0,447.0,519.0,517.0,484.0,456.0,503.0,457.0,420.0,396.0,372.0,355.0,340.0,316.0,297.0,295.0,309.0,288.0,279.0,265.0,254.0,254.0,238.0,227.0,215.0,219.0,222.0,227.0,208.0,210.0,203.0,228.0,228.0,222.0,226.0,213.0,222.0,221.0,227.0,215.0,197.0,196.0,191.0,178.0,175.0,180.0,180.0,169.0,171.0,170.0,175.0,175.0,173.0,167.0,168.0,165.0,180.0,173.0,167.0,161.0,161.0,165.0,157.0,161.0,152.0,144.0,137.0,145.0,143.0,147.0,139.0,137.0,141.0,166.0,168.0,161.0,153.0,155.0,151.0,152.0,151.0,140.0,154.0,164.0,163.0,158.0,143.0,136.0,132.0,126.0,132.0,122.0,113.0,109.0,109.0,111.0,120.0,131.0,140.0,136.0,131.0,128.0,129.0,120.0,111.0,120.0,116.0,124.0,117.0,111.0,111.0,118.0,111.0,112.0,112.0,130.0,132.0,121.0,113.0,129.0,124.0,129.0,123.0,119.0,117.0,122.0,117.0,111.0,100.0,115.0,116.0,122.0,117.0,116.0,113.0,112.0,118.0,114.0,109.0,126.0,118.0,115.0,110.0,109.0,115.0,109.0,102.0,102.0,103.0,98.0,105.0,105.0,97.0,90.0,80.0,74.0,67.0,64.0,62.0,58.0,54.0,59.0,72.0,93.0,107.0,115.0,148.0,141.0,141.0,139.0,129.0,125.0,120.0,113.0,109.0,112.0,122.0,123.0,123.0,116.0,117.0,112.0,109.0,108.0,105.0,101.0,99.0,116.0,123.0,116.0,114.0,113.0,109.0,123.0,127.0,120.0,120.0,114.0,111.0,109.0,104.0,102.0,109.0,106.0,103.0,99.0,95.0,98.0,96.0,105.0,97.0,93.0,90.0,100.0,96.0,89.0,96.0,93.0,97.0,91.0,94.0,95.0,97.0,97.0,93.0,86.0,85.0,93.0,99.0,102.0,99.0,103.0,101.0,117.0,111.0,108.0,102.0,96.0,90.0,112.0,123.0,120.0,120.0,113.0,121.0,113.0,106.0,103.0,99.0,92.0,99.0,103.0,115.0,108.0,107.0,105.0,104.0,109.0,103.0,100.0,95.0,99.0,103.0,96.0,91.0,89.0,84.0,80.0,88.0,85.0,82.0,88.0,95.0,91.0,88.0,106.0,98.0,101.0,108.0,105.0,101.0,100.0,96.0,91.0,90.0,92.0,94.0,95.0,96.0,98.0,97.0,94.0,99.0,99.0,94.0,90.0,89.0,87.0,109.0,104.0,97.0,94.0,86.0,84.0,93.0,92.0,86.0,83.0,91.0,92.0,91.0,94.0,91.0,88.0,89.0,90.0,92.0,101.0,102.0,106.0,111.0,109.0,107.0,113.0,121.0,115.0,115.0,108.0,115.0,109.0,98.0,102.0,103.0,103.0,95.0,104.0,106.0,124.0,121.0,114.0,126.0,126.0,116.0,107.0,103.0,102.0,128.0,122.0,122.0,114.0,116.0,115.0,119.0,115.0,115.0,119.0,120.0,114.0,111.0,106.0,116.0,109.0,115.0,119.0,117.0,116.0,110.0,113.0,114.0,111.0,107.0,105.0,100.0,102.0,107.0,110.0,111.0,104.0,112.0,109.0,114.0,111.0,107.0,107.0,105.0,108.0,106.0,115.0,114.0,113.0,109.0,111.0,126.0,122.0,123.0,118.0,113.0,113.0,116.0,118.0,112.0,111.0,106.0,106.0,104.0,100.0,95.0,98.0,100.0,109.0,118.0,117.0,119.0,131.0,126.0,118.0,113.0,116.0,137.0,143.0,143.0,138.0,126.0,127.0,136.0,129.0,120.0,115.0,110.0,116.0,125.0,126.0,123.0,117.0,130.0,126.0,128.0,118.0,122.0,116.0,113.0,115.0,112.0,108.0,109.0,104.0,100.0,96.0,98.0,90.0,86.0,91.0,103.0,98.0,93.0,95.0,112.0,109.0,105.0,106.0,111.0,116.0,117.0,118.0,109.0,99.0,97.0,123.0,131.0,125.0,114.0,111.0,120.0,115.0,115.0,111.0,113.0,106.0,100.0,98.0,97.0,100.0,112.0,115.0,111.0,117.0,117.0,106.0,107.0,113.0,111.0,120.0,113.0,130.0,130.0,122.0,122.0,117.0,123.0,120.0,112.0,112.0,110.0,112.0,110.0,107.0,102.0,99.0,113.0,126.0,116.0,105.0,101.0,102.0,111.0,115.0,121.0,113.0,107.0,111.0,107.0,112.0,106.0,106.0,98.0,96.0,108.0,120.0,118.0,113.0,115.0,119.0,112.0,105.0,104.0,106.0,104.0,118.0,121.0,119.0,110.0,106.0,119.0,131.0,130.0,126.0,129.0,121.0,128.0,134.0,125.0,124.0,117.0,111.0,110.0,112.0,103.0,103.0,99.0,96.0,96.0,99.0,107.0,104.0,110.0,108.0,111.0,107.0,110.0,108.0,102.0,97.0,93.0,94.0,93.0,115.0,109.0,107.0,103.0,105.0,119.0,121.0,125.0,113.0,103.0,109.0,111.0,110.0,106.0,106.0,104.0,99.0,110.0,107.0,105.0,105.0,106.0,112.0,107.0,102.0,99.0,110.0,101.0,98.0,88.0,85.0,88.0,93.0,96.0,96.0,95.0,89.0,92.0,95.0,105.0,106.0,104.0,103.0,97.0,106.0,104.0,105.0,110.0,113.0,109.0,104.0,105.0,99.0,109.0,107.0,100.0,96.0,96.0,99.0,96.0,94.0,95.0,92.0,99.0,96.0,92.0,96.0,93.0,89.0,97.0,92.0,92.0,84.0,90.0,90.0,94.0,92.0,90.0,92.0,92.0,101.0,112.0,103.0,97.0,92.0,100.0,105.0,104.0,110.0,104.0,102.0,111.0,108.0,102.0,92.0,86.0,83.0,89.0,98.0,94.0,92.0,88.0,89.0,84.0,77.0,76.0,82.0,78.0,78.0,83.0,94.0,94.0,95.0,94.0,96.0,90.0,99.0,95.0,89.0,96.0,102.0,100.0,103.0,97.0,89.0,86.0,85.0,82.0,86.0,88.0,92.0,92.0,89.0,89.0,102.0,110.0,106.0,99.0,102.0,106.0,113.0,110.0,100.0,99.0,97.0,114.0,120.0,119.0,106.0,96.0,96.0
