113.0,116.0,119.0,121.0,123.0,127.0,129.0,132.0,134.0,138.0,139.0,141.0,148.0,150.0,156.0,159.0,162.0,167.0,171.0,177.0,180.0,185.0,190.0,192.0,197.0,200.0,205.0,208.0,211.0,215.0,219.0,222.0,225.0,231.0,238.0,241.0,245.0,251.0,255.0,260.0,265.0,266.0,270.0,275.0,282.0,286.0,291.0,297.0,301.0,305.0,310.0,313.0,317.0,321.0,327.0,330.0,333.0,336.0,338.0,341.0,345.0,347.0,350.0,350.0,353.0,352.0,352.0,353.0,354.0,355.0,354.0,354.0,354.0,353.0,354.0,354.0,355.0,356.0,356.0,357.0,358.0,359.0,360.0,361.0,362.0,364.0,365.0,366.0,366.0,366.0,369.0,366.0,366.0,365.0,363.0,363.0,360.0,361.0,357.0,355.0,352.0,352.0,352.0,349.0,350.0,349.0,346.0,347.0,346.0,344.0,343.0,343.0,341.0,340.0,338.0,336.0,336.0,335.0,335.0,332.0,330.0,331.0,331.0,330.0,330.0,329.0,326.0,325.0,325.0,322.0,321.0,318.0,318.0,315.0,314.0,311.0,307.0,305.0,302.0,298.0,296.0,291.0,289.0,287.0,285.0,283.0,285.0,282.0,282.0,281.0,279.0,278.0,277.0,276.0,276.0,275.0,274.0,271.0,269.0,267.0,267.0,264.0,262.0,259.0,257.0,255.0,253.0,251.0,249.0,247.0,247.0,243.0,242.0,243.0,242.0,240.0,238.0,235.0,233.0,231.0,227.0,225.0,221.0,218.0,217.0,214.0,213.0,210.0,209.0,206.0,202.0,199.0,193.0,189.0,186.0,180.0,175.0,171.0,167.0,163.0,161.0,156.0,153.0,147.0,142.0,138.0,133.0,129.0,126.0,121.0,116.0,110.0,108.0,104.0,98.0,95.0,92.0,86.0,84.0,81.0,79.0,76.0,73.0,70.0,66.0,62.0,60.0,57.0,56.0,54.0,53.0,51.0,49.0,50.0,49.0,49.0,49.0,51.0,51.0,52.0,54.0,53.0,55.0,55.0,56.0,57.0,58.0,61.0,61.0,64.0,65.0,65.0,66.0,66.0,68.0,69.0,70.0,72.0,73.0,75.0,76.0,79.0,80.0,82.0,82.0,84.0,83.0,84.0,84.0,83.0,85.0,86.0,86.0,89.0,90.0,92.0,91.0,92.0,94.0,93.0,93.0,92.0,94.0,95.0,95.0,96.0,98.0,100.0,98.0,101.0,102.0,103.0,104.0,105.0,107.0,110.0,111.0,110.0,111.0,111.0,111.0,113.0,110.0,110.0,107.0,107.0,106.0,105.0,106.0,105.0,106.0,106.0,107.0,106.0,105.0,106.0,106.0,109.0,110.0,109.0,109.0,109.0,110.0,110.0,108.0,108.0,108.0,110.0,109.0,108.0,108.0,107.0,105.0,106.0,104.0,101.0,102.0,101.0,100.0,99.0,99.0,98.0,98.0,100.0,98.0,98.0,97.0,95.0,95.0,93.0,95.0,93.0,94.0,91.0,92.0,93.0,93.0,93.0,91.0,90.0,89.0,87.0,87.0,85.0,86.0,86.0,85.0,84.0,84.0,84.0,83.0,84.0,83.0,83.0,83.0,85.0,84.0,84.0,89.0,86.0,87.0,89.0,99.0,116.0,121.0,138.0,176.0,169.0,174.0,185.0,191.0,185.0,172.0,166.0,175.0,157.0,154.0,150.0,147.0,139.0,128.0,128.0,136.0,129.0,120.0,115.0,110.0,104.0,106.0,99.0,99.0,94.0,92.0,88.0,84.0,85.0,91.0,91.0,91.0,89.0,87.0,83.0,80.0,82.0,83.0,82.0,79.0,90.0,87.0,84.0,82.0,81.0,79.0,75.0,81.0,78.0,78.0,79.0,76.0,75.0,75.0,83.0,78.0,77.0,82.0,84.0,82.0,83.0,86.0,86.0,87.0,93.0,98.0,100.0,108.0,120.0,116.0,112.0,111.0,107.0,100.0,92.0,89.0,90.0,93.0,89.0,89.0,86.0,85.0,90.0,90.0,92.0,94.0,101.0,97.0,98.0,98.0,99.0,99.0,99.0,101.0,101.0,101.0,99.0,95.0,91.0,92.0,87.0,85.0,79.0,76.0,74.0,70.0,67.0,64.0,61.0,62.0,65.0,62.0,62.0,61.0,60.0,59.0,58.0,59.0,62.0,66.0,78.0,91.0,93.0,96.0,93.0,99.0,102.0,102.0,103.0,105.0,104.0,109.0,108.0,110.0,111.0,111.0,108.0,110.0,110.0,107.0,103.0,104.0,103.0,103.0,100.0,99.0,96.0,93.0,92.0,90.0,87.0,85.0,83.0,80.0,76.0,75.0,72.0,72.0,69.0,68.0,69.0,67.0,66.0,64.0,63.0,64.0,61.0,61.0,60.0,59.0,56.0,56.0,55.0,54.0,54.0,52.0,53.0,52.0,53.0,53.0,52.0,51.0,50.0,51.0,49.0,48.0,48.0,48.0,48.0,48.0,47.0,48.0,48.0,47.0,46.0,47.0,46.0,46.0,46.0,46.0,47.0,48.0,47.0,46.0,46.0,47.0,48.0,47.0,48.0,47.0,47.0,47.0,46.0,46.0,46.0,45.0,47.0,46.0,47.0,46.0,46.0,45.0,45.0,45.0,44.0,43.0,44.0,43.0,43.0,43.0,45.0,44.0,44.0,43.0,45.0,46.0,47.0,49.0,48.0,49.0,50.0,51.0,52.0,50.0,49.0,48.0,48.0,47.0,47.0,47.0,46.0,46.0,46.0,46.0,46.0,45.0,44.0,43.0,45.0,44.0,44.0,44.0,44.0,44.0,43.0,45.0,44.0,43.0,43.0,43.0,44.0,44.0,45.0,46.0,44.0,43.0,46.0,46.0,47.0,47.0,48.0,51.0,51.0,51.0,52.0,53.0,56.0,56.0,58.0,56.0,55.0,55.0,56.0,57.0,56.0,55.0,56.0,57.0,56.0,57.0,58.0,60.0,60.0,61.0,63.0,64.0,64.0,64.0,63.0,63.0,63.0,64.0,64.0,64.0,64.0,66.0,66.0,66.0,65.0,65.0,63.0,64.0,64.0,64.0,66.0,66.0,66.0,67.0,67.0,66.0,67.0,68.0,67.0,69.0,69.0,68.0,69.0,70.0,69.0,70.0,69.0,68.0,68.0,69.0,66.0,66.0,64.0,62.0,63.0,65.0,64.0,64.0,68.0,67.0,67.0,67.0,67.0,67.0,66.0,66.0,64.0,63.0,61.0,60.0,60.0,58.0,57.0,58.0,57.0,56.0,56.0,54.0,54.0,53.0,53.0,51.0,54.0,53.0,54.0,54.0,56.0,57.0,59.0,57.0,57.0,58.0,58.0,57.0,57.0,56.0,57.0,57.0,58.0,56.0,59.0,59.0,59.0,60.0,61.0,63.0,62.0,61.0,61.0,62.0,61.0,61.0,62.0,62.0,60.0,60.0,59.0,60.0,61.0,59.0,58.0,59.0,60.0,61.0,62.0,61.0,60.0,59.0,59.0,60.0,59.0,60.0,60.0,60.0,61.0,60.0,59.0,58.0,57.0,57.0,57.0,56.0,55.0,54.0,54.0,53.0,51.0,52.0,50.0,49.0,48.0,48.0,48.0,48.0,49.0,50.0,49.0,51.0,51.0,51.0,49.0,50.0,48.0,47.0,48.0,48.0,50.0,49.0,51.0,50.0,51.0,51.0,51.0,49.0,49.0,51.0,50.0,52.0,50.0,52.0,53.0,52.0,53.0,55.0,55.0,57.0,58.0,59.0,58.0,57.0,57.0,57.0,58.0,57.0,57.0,56.0,56.0,56.0,56.0,55.0,54.0,54.0,52.0,53.0,52.0,53.0,52.0,53.0,53.0,51.0,52.0,51.0,52.0,52.0,51.0,52.0,53.0,54.0,54.0,54.0,56.0,55.0,55.0,56.0,57.0,56.0,56.0,57.0,58.0,58.0,57.0,58.0,56.0,55.0,55.0,54.0,53.0,53.0,54.0,53.0,52.0,54.0,54.0,56.0,56.0,57.0,58.0,59.0,62.0,61.0,60.0,61.0,62.0,63.0,61.0,61.0,61.0,62.0,63.0,65.0,65.0,66.0,64.0,65.0,66.0,65.0,65.0,64.0,63.0,63.0,65.0,65.0,65.0,64.0,63.0,62.0,60.0,59.0,58.0,56.0,57.0,57.0,55.0,56.0,56.0,55.0,55.0,55.0,56.0,54.0,56.0,56.0,57.0,55.0,53.0,53.0,50.0,52.0,51.0,51.0,50.0,49.0,49.0,48.0,49.0,50.0,51.0,51.0,53.0,55.0,56.0,58.0,59.0,61.0,61.0,61.0,61.0,61.0,58.0
138.0,140.0,144.0,146.0,149.0,152.0,155.0,157.0,160.0,164.0,163.0,166.0,169.0,172.0,177.0,179.0,181.0,186.0,189.0,194.0,199.0,201.0,205.0,207.0,210.0,214.0,218.0,223.0,227.0,232.0,237.0,242.0,249.0,255.0,263.0,268.0,272.0,279.0,282.0,286.0,290.0,292.0,298.0,302.0,308.0,310.0,314.0,319.0,322.0,325.0,330.0,334.0,338.0,343.0,348.0,352.0,355.0,358.0,360.0,361.0,367.0,369.0,372.0,373.0,376.0,378.0,380.0,384.0,387.0,391.0,392.0,393.0,394.0,394.0,396.0,395.0,395.0,395.0,393.0,395.0,396.0,396.0,396.0,398.0,397.0,394.0,393.0,391.0,388.0,386.0,388.0,387.0,386.0,387.0,385.0,387.0,384.0,386.0,384.0,383.0,383.0,382.0,382.0,381.0,382.0,382.0,380.0,383.0,384.0,386.0,385.0,385.0,385.0,385.0,386.0,384.0,384.0,386.0,387.0,385.0,384.0,385.0,384.0,380.0,378.0,378.0,376.0,374.0,375.0,373.0,373.0,375.0,377.0,376.0,375.0,375.0,372.0,369.0,366.0,363.0,361.0,355.0,352.0,347.0,341.0,334.0,328.0,324.0,319.0,318.0,313.0,310.0,308.0,307.0,306.0,305.0,304.0,299.0,296.0,294.0,293.0,293.0,291.0,292.0,290.0,287.0,286.0,285.0,284.0,283.0,283.0,280.0,279.0,280.0,280.0,281.0,280.0,281.0,283.0,283.0,284.0,285.0,286.0,287.0,287.0,286.0,286.0,286.0,286.0,285.0,284.0,282.0,280.0,277.0,277.0,274.0,271.0,269.0,268.0,266.0,265.0,264.0,262.0,257.0,255.0,252.0,249.0,245.0,240.0,235.0,230.0,224.0,220.0,217.0,210.0,208.0,205.0,200.0,196.0,193.0,191.0,188.0,185.0,183.0,180.0,176.0,174.0,173.0,170.0,167.0,165.0,163.0,161.0,157.0,159.0,155.0,153.0,146.0,144.0,140.0,135.0,133.0,129.0,128.0,125.0,122.0,120.0,118.0,115.0,110.0,108.0,108.0,105.0,102.0,97.0,96.0,92.0,89.0,86.0,82.0,78.0,75.0,74.0,68.0,67.0,65.0,63.0,59.0,58.0,57.0,54.0,53.0,51.0,49.0,48.0,45.0,45.0,44.0,43.0,43.0,43.0,44.0,46.0,47.0,46.0,47.0,47.0,47.0,49.0,50.0,53.0,52.0,53.0,54.0,54.0,55.0,55.0,56.0,56.0,57.0,59.0,59.0,63.0,64.0,66.0,68.0,69.0,70.0,71.0,73.0,75.0,77.0,76.0,77.0,77.0,78.0,79.0,81.0,83.0,82.0,82.0,83.0,84.0,86.0,85.0,85.0,86.0,85.0,85.0,84.0,86.0,88.0,89.0,90.0,90.0,91.0,91.0,93.0,92.0,93.0,94.0,92.0,93.0,93.0,92.0,94.0,95.0,94.0,94.0,94.0,95.0,97.0,97.0,97.0,96.0,97.0,98.0,97.0,98.0,98.0,100.0,100.0,102.0,101.0,102.0,103.0,102.0,103.0,101.0,100.0,99.0,98.0,99.0,98.0,100.0,101.0,100.0,99.0,110.0,112.0,111.0,121.0,174.0,245.0,259.0,356.0,516.0,561.0,606.0,669.0,669.0,668.0,625.0,580.0,602.0,577.0,580.0,590.0,581.0,595.0,572.0,568.0,563.0,569.0,540.0,540.0,520.0,528.0,529.0,497.0,489.0,475.0,465.0,453.0,444.0,443.0,442.0,429.0,412.0,399.0,397.0,394.0,373.0,367.0,358.0,353.0,349.0,358.0,342.0,337.0,327.0,320.0,316.0,315.0,315.0,312.0,306.0,296.0,287.0,280.0,287.0,285.0,276.0,269.0,270.0,271.0,259.0,255.0,256.0,253.0,254.0,255.0,265.0,268.0,276.0,291.0,297.0,297.0,317.0,310.0,309.0,320.0,313.0,328.0,327.0,326.0,354.0,360.0,382.0,406.0,426.0,447.0,468.0,501.0,494.0,503.0,504.0,504.0,499.0,499.0,496.0,483.0,471.0,458.0,445.0,426.0,414.0,391.0,374.0,348.0,328.0,318.0,298.0,281.0,261.0,248.0,244.0,227.0,209.0,202.0,187.0,177.0,167.0,154.0,147.0,135.0,126.0,121.0,116.0,118.0,116.0,114.0,128.0,143.0,163.0,193.0,223.0,244.0,268.0,279.0,291.0,299.0,309.0,311.0,320.0,327.0,332.0,336.0,341.0,341.0,345.0,346.0,349.0,348.0,348.0,346.0,345.0,343.0,341.0,339.0,337.0,335.0,333.0,329.0,326.0,322.0,319.0,317.0,311.0,306.0,302.0,297.0,293.0,288.0,283.0,284.0,279.0,274.0,272.0,267.0,261.0,257.0,253.0,248.0,244.0,240.0,238.0,234.0,230.0,226.0,222.0,218.0,217.0,215.0,211.0,208.0,204.0,200.0,197.0,195.0,193.0,190.0,185.0,184.0,179.0,177.0,174.0,170.0,168.0,162.0,159.0,157.0,155.0,150.0,150.0,148.0,144.0,142.0,136.0,135.0,133.0,130.0,127.0,126.0,123.0,119.0,117.0,115.0,112.0,109.0,107.0,106.0,104.0,103.0,101.0,98.0,96.0,93.0,90.0,89.0,87.0,86.0,84.0,84.0,80.0,80.0,79.0,77.0,78.0,76.0,74.0,74.0,72.0,72.0,71.0,69.0,68.0,70.0,68.0,68.0,69.0,69.0,69.0,70.0,71.0,70.0,69.0,69.0,68.0,68.0,68.0,68.0,66.0,67.0,67.0,65.0,64.0,64.0,62.0,63.0,61.0,60.0,57.0,59.0,57.0,60.0,58.0,59.0,58.0,56.0,55.0,55.0,55.0,55.0,56.0,56.0,55.0,55.0,53.0,53.0,51.0,51.0,52.0,51.0,54.0,52.0,53.0,54.0,55.0,55.0,55.0,56.0,54.0,57.0,55.0,54.0,53.0,52.0,51.0,49.0,48.0,48.0,48.0,48.0,47.0,45.0,45.0,43.0,43.0,43.0,42.0,43.0,43.0,40.0,42.0,41.0,41.0,41.0,39.0,40.0,38.0,38.0,39.0,39.0,40.0,40.0,43.0,41.0,42.0,40.0,40.0,39.0,40.0,41.0,40.0,43.0,45.0,43.0,45.0,45.0,44.0,43.0,42.0,43.0,43.0,42.0,41.0,41.0,38.0,39.0,39.0,41.0,40.0,39.0,40.0,38.0,39.0,39.0,39.0,40.0,39.0,39.0,40.0,39.0,42.0,43.0,43.0,41.0,42.0,42.0,43.0,43.0,45.0,45.0,45.0,46.0,46.0,46.0,45.0,45.0,46.0,47.0,47.0,46.0,46.0,45.0,45.0,44.0,44.0,46.0,45.0,45.0,47.0,46.0,46.0,46.0,47.0,45.0,45.0,43.0,43.0,44.0,43.0,43.0,44.0,44.0,45.0,47.0,48.0,48.0,47.0,49.0,48.0,48.0,49.0,46.0,45.0,47.0,47.0,46.0,46.0,46.0,45.0,47.0,49.0,49.0,49.0,50.0,48.0,49.0,49.0,49.0,50.0,51.0,52.0,52.0,52.0,53.0,54.0,54.0,57.0,55.0,57.0,56.0,57.0,58.0,58.0,58.0,58.0,59.0,59.0,58.0,59.0,58.0,58.0,58.0,59.0,60.0,59.0,61.0,60.0,58.0,59.0,59.0,58.0,57.0,59.0,58.0,56.0,56.0,57.0,56.0,55.0,55.0,56.0,54.0,54.0,54.0,55.0,55.0,55.0,57.0,58.0,60.0,59.0,59.0,59.0,59.0,59.0,60.0,59.0,60.0,59.0,59.0,57.0,57.0,54.0,55.0,53.0,53.0,52.0,51.0,53.0,50.0,48.0,48.0,51.0,48.0,47.0,46.0,44.0,43.0,43.0,43.0,44.0,43.0,44.0,42.0,44.0,43.0,43.0,44.0,43.0,46.0,44.0,45.0,46.0,46.0,46.0,45.0,46.0,46.0,45.0,45.0,45.0,47.0,45.0,47.0,46.0,44.0,46.0,44.0,43.0,45.0,45.0,44.0,42.0,42.0,41.0,40.0,41.0,43.0,42.0,40.0,41.0,41.0,40.0,40.0,41.0,41.0,41.0,41.0,40.0,39.0,39.0,40.0,40.0,40.0,39.0,38.0,38.0,37.0,38.0,38.0,41.0,40.0,42.0,43.0,44.0,45.0,46.0,46.0,45.0,45.0,45.0,45.0,47.0,48.0,49.0,51.0,50.0,49.0,49.0,51.0,50.0,50.0,49.0,49.0,49.0,52.0
23.0,23.0,21.0,28.0,33.0,32.0,30.0,26.0,30.0,27.0,27.0,33.0,32.0,28.0,27.0,29.0,29.0,40.0,39.0,35.0,30.0,27.0,24.0,24.0,25.0,28.0,33.0,30.0,29.0,28.0,25.0,25.0,25.0,28.0,31.0,31.0,30.0,29.0,27.0,23.0,25.0,23.0,23.0,26.0,24.0,27.0,25.0,24.0,22.0,22.0,21.0,19.0,20.0,23.0,23.0,28.0,25.0,23.0,21.0,25.0,25.0,24.0,26.0,25.0,22.0,25.0,27.0,25.0,23.0,22.0,20.0,19.0,19.0,20.0,17.0,16.0,15.0,15.0,13.0,15.0,17.0,20.0,20.0,18.0,16.0,17.0,17.0,17.0,15.0,18.0,22.0,18.0,19.0,18.0,19.0,16.0,17.0,15.0,16.0,16.0,16.0,19.0,17.0,19.0,18.0,18.0,21.0,22.0,20.0,19.0,17.0,16.0,14.0,13.0,15.0,17.0,21.0,23.0,25.0,22.0,19.0,17.0,17.0,16.0,14.0,15.0,14.0,14.0,13.0,16.0,17.0,19.0,17.0,17.0,17.0,14.0,14.0,13.0,16.0,25.0,22.0,25.0,23.0,21.0,20.0,26.0,24.0,22.0,22.0,21.0,19.0,24.0,21.0,21.0,22.0,22.0,24.0,21.0,27.0,29.0,34.0,32.0,29.0,27.0,25.0,25.0,26.0,32.0,36.0,33.0,31.0,35.0,34.0,39.0,40.0,38.0,41.0,42.0,42.0,39.0,40.0,41.0,39.0,42.0,41.0,48.0,46.0,45.0,46.0,43.0,43.0,45.0,43.0,44.0,45.0,48.0,46.0,43.0,46.0,43.0,45.0,49.0,48.0,50.0,51.0,47.0,43.0,44.0,45.0,43.0,40.0,44.0,42.0,37.0,42.0,40.0,38.0,48.0,50.0,48.0,45.0,42.0,40.0,39.0,44.0,42.0,43.0,39.0,38.0,36.0,39.0,37.0,37.0,35.0,35.0,33.0,31.0,41.0,36.0,35.0,35.0,33.0,34.0,34.0,37.0,39.0,39.0,36.0,31.0,31.0,36.0,35.0,32.0,30.0,31.0,31.0,34.0,32.0,33.0,28.0,27.0,28.0,27.0,31.0,28.0,26.0,25.0,25.0,22.0,22.0,22.0,21.0,20.0,20.0,23.0,20.0,18.0,22.0,21.0,21.0,19.0,16.0,17.0,16.0,15.0,15.0,17.0,16.0,16.0,16.0,17.0,19.0,17.0,17.0,23.0,28.0,25.0,23.0,22.0,20.0,19.0,16.0,16.0,14.0,16.0,20.0,19.0,17.0,15.0,17.0,17.0,17.0,15.0,13.0,13.0,14.0,12.0,21.0,25.0,23.0,20.0,21.0,22.0,20.0,21.0,18.0,21.0,19.0,18.0,16.0,16.0,20.0,17.0,16.0,17.0,20.0,17.0,20.0,19.0,17.0,17.0,16.0,13.0,13.0,12.0,11.0,22.0,23.0,20.0,19.0,18.0,18.0,20.0,18.0,16.0,16.0,15.0,20.0,18.0,17.0,16.0,16.0,15.0,13.0,14.0,19.0,22.0,22.0,21.0,21.0,19.0,17.0,15.0,16.0,18.0,17.0,21.0,19.0,18.0,16.0,15.0,13.0,21.0,47.0,50.0,74.0,130.0,136.0,153.0,165.0,156.0,148.0,137.0,122.0,129.0,118.0,110.0,98.0,89.0,88.0,87.0,82.0,75.0,67.0,60.0,52.0,49.0,58.0,52.0,47.0,43.0,40.0,35.0,34.0,32.0,29.0,27.0,24.0,21.0,21.0,20.0,22.0,19.0,18.0,18.0,17.0,15.0,16.0,14.0,14.0,13.0,13.0,12.0,11.0,12.0,10.0,10.0,11.0,10.0,10.0,13.0,15.0,14.0,12.0,11.0,10.0,9.0,8.0,9.0,7.0,9.0,19.0,75.0,86.0,141.0,158.0,156.0,215.0,290.0,307.0,301.0,288.0,275.0,268.0,261.0,247.0,229.0,201.0,183.0,175.0,153.0,143.0,150.0,135.0,121.0,114.0,103.0,96.0,95.0,81.0,72.0,70.0,64.0,74.0,64.0,58.0,61.0,54.0,56.0,53.0,47.0,48.0,49.0,50.0,50.0,46.0,41.0,37.0,33.0,42.0,43.0,45.0,40.0,39.0,36.0,50.0,58.0,76.0,70.0,79.0,77.0,77.0,77.0,78.0,75.0,75.0,71.0,78.0,88.0,82.0,77.0,72.0,77.0,78.0,72.0,69.0,66.0,60.0,57.0,67.0,76.0,82.0,79.0,71.0,74.0,77.0,68.0,61.0,60.0,55.0,60.0,67.0,62.0,64.0,56.0,52.0,51.0,58.0,57.0,50.0,44.0,49.0,46.0,49.0,56.0,56.0,59.0,54.0,48.0,43.0,49.0,49.0,43.0,56.0,50.0,46.0,39.0,37.0,40.0,39.0,39.0,41.0,44.0,39.0,37.0,34.0,36.0,33.0,29.0,33.0,30.0,26.0,23.0,22.0,20.0,19.0,20.0,23.0,30.0,29.0,28.0,25.0,24.0,34.0,37.0,33.0,30.0,27.0,30.0,31.0,28.0,32.0,28.0,27.0,24.0,42.0,38.0,33.0,34.0,35.0,35.0,36.0,45.0,40.0,35.0,32.0,28.0,27.0,26.0,26.0,40.0,37.0,34.0,32.0,32.0,28.0,26.0,25.0,24.0,21.0,23.0,29.0,25.0,24.0,20.0,19.0,25.0,23.0,26.0,22.0,21.0,23.0,20.0,18.0,15.0,16.0,19.0,19.0,25.0,35.0,31.0,27.0,26.0,22.0,19.0,23.0,29.0,34.0,31.0,30.0,28.0,25.0,26.0,30.0,28.0,26.0,33.0,29.0,28.0,30.0,27.0,28.0,26.0,28.0,42.0,37.0,33.0,31.0,30.0,29.0,30.0,28.0,41.0,36.0,31.0,36.0,33.0,31.0,26.0,24.0,23.0,21.0,27.0,28.0,26.0,22.0,21.0,23.0,21.0,19.0,20.0,23.0,32.0,29.0,28.0,26.0,22.0,20.0,18.0,18.0,21.0,19.0,24.0,24.0,28.0,25.0,27.0,23.0,21.0,19.0,19.0,17.0,18.0,16.0,16.0,24.0,32.0,29.0,29.0,28.0,26.0,23.0,22.0,21.0,24.0,25.0,22.0,22.0,28.0,27.0,25.0,30.0,29.0,26.0,23.0,20.0,18.0,23.0,22.0,23.0,27.0,46.0,42.0,40.0,37.0,34.0,32.0,28.0,25.0,23.0,22.0,19.0,17.0,16.0,25.0,36.0,30.0,31.0,29.0,27.0,26.0,27.0,31.0,28.0,28.0,24.0,21.0,20.0,19.0,21.0,20.0,31.0,29.0,31.0,27.0,24.0,21.0,18.0,19.0,18.0,16.0,15.0,25.0,25.0,23.0,22.0,19.0,18.0,16.0,17.0,16.0,28.0,26.0,25.0,34.0,30.0,27.0,25.0,22.0,23.0,21.0,18.0,18.0,15.0,17.0,14.0,14.0,13.0,22.0,24.0,24.0,23.0,18.0,18.0,15.0,15.0,16.0,19.0,20.0,32.0,29.0,28.0,27.0,24.0,25.0,28.0,24.0,21.0,21.0,19.0,33.0,29.0,34.0,32.0,29.0,28.0,25.0,23.0,21.0,21.0,20.0,21.0,20.0,18.0,18.0,28.0,29.0,26.0,23.0,29.0,26.0,23.0,21.0,33.0,28.0,26.0,23.0,24.0,23.0,21.0,31.0,30.0,26.0,24.0,21.0,22.0,19.0,20.0,18.0,21.0,18.0,17.0,15.0,15.0,14.0,12.0,12.0,11.0,11.0,10.0,8.0,9.0,7.0,10.0,11.0,13.0,14.0,12.0,13.0,14.0,16.0,14.0,15.0,15.0,13.0,15.0,20.0,19.0,18.0,16.0,14.0,12.0,13.0,10.0,11.0,10.0,13.0,11.0,13.0,12.0,12.0,26.0,26.0,24.0,24.0,21.0,19.0,16.0,18.0,17.0,15.0,14.0,15.0,14.0,12.0,16.0,14.0,13.0,15.0,15.0,15.0,14.0,13.0,16.0,30.0,36.0,32.0,39.0,37.0,35.0,38.0,51.0,47.0,41.0,39.0,32.0,31.0,29.0,27.0,31.0,32.0,32.0,28.0,27.0,23.0,21.0,36.0,31.0,29.0,25.0,20.0,20.0,18.0,34.0,30.0,27.0,27.0,29.0,46.0,45.0,48.0,60.0,55.0,48.0,42.0,38.0,34.0,32.0,32.0,37.0,34.0,32.0,33.0,42.0,40.0,42.0,38.0,36.0,31.0,35.0
117.0,110.0,122.0,118.0,120.0,120.0,115.0,113.0,123.0,123.0,124.0,120.0,115.0,119.0,119.0,116.0,112.0,123.0,136.0,145.0,135.0,125.0,126.0,122.0,128.0,127.0,123.0,123.0,122.0,118.0,112.0,114.0,121.0,111.0,138.0,133.0,126.0,126.0,118.0,117.0,128.0,125.0,129.0,123.0,118.0,118.0,114.0,114.0,106.0,104.0,109.0,110.0,103.0,109.0,99.0,103.0,100.0,93.0,97.0,101.0,96.0,95.0,92.0,99.0,111.0,112.0,112.0,111.0,107.0,116.0,112.0,109.0,104.0,98.0,99.0,103.0,120.0,119.0,111.0,106.0,100.0,103.0,99.0,104.0,108.0,109.0,105.0,103.0,110.0,115.0,119.0,128.0,130.0,127.0,144.0,134.0,138.0,129.0,121.0,129.0,127.0,122.0,115.0,122.0,118.0,115.0,117.0,122.0,116.0,120.0,118.0,114.0,114.0,105.0,109.0,106.0,121.0,116.0,115.0,110.0,109.0,103.0,100.0,102.0,99.0,104.0,109.0,110.0,106.0,109.0,105.0,106.0,106.0,112.0,111.0,112.0,108.0,100.0,112.0,111.0,112.0,111.0,104.0,94.0,97.0,94.0,92.0,92.0,99.0,127.0,128.0,130.0,129.0,121.0,117.0,113.0,119.0,114.0,112.0,122.0,128.0,134.0,127.0,128.0,127.0,131.0,126.0,122.0,117.0,113.0,112.0,110.0,107.0,121.0,119.0,115.0,113.0,114.0,114.0,107.0,100.0,97.0,105.0,114.0,122.0,119.0,114.0,109.0,110.0,114.0,113.0,111.0,119.0,115.0,121.0,123.0,115.0,114.0,111.0,116.0,128.0,126.0,123.0,124.0,120.0,117.0,126.0,142.0,139.0,137.0,124.0,114.0,111.0,111.0,108.0,111.0,109.0,112.0,111.0,121.0,118.0,110.0,112.0,119.0,116.0,114.0,117.0,124.0,129.0,130.0,145.0,137.0,126.0,125.0,122.0,113.0,112.0,117.0,116.0,117.0,117.0,121.0,116.0,127.0,121.0,116.0,132.0,129.0,130.0,122.0,122.0,137.0,137.0,144.0,130.0,125.0,128.0,127.0,126.0,121.0,117.0,122.0,117.0,116.0,112.0,115.0,113.0,111.0,111.0,107.0,110.0,108.0,113.0,111.0,109.0,104.0,109.0,110.0,103.0,102.0,99.0,100.0,94.0,111.0,101.0,98.0,99.0,102.0,99.0,97.0,104.0,104.0,104.0,104.0,116.0,115.0,112.0,110.0,128.0,126.0,125.0,121.0,114.0,108.0,106.0,113.0,107.0,104.0,99.0,114.0,111.0,111.0,110.0,132.0,127.0,125.0,118.0,117.0,112.0,112.0,107.0,112.0,107.0,109.0,113.0,113.0,119.0,114.0,110.0,115.0,116.0,108.0,117.0,114.0,131.0,130.0,129.0,127.0,121.0,124.0,112.0,111.0,104.0,112.0,120.0,112.0,108.0,110.0,111.0,128.0,123.0,121.0,115.0,127.0,130.0,128.0,129.0,129.0,140.0,128.0,127.0,124.0,118.0,116.0,113.0,115.0,124.0,132.0,128.0,123.0,118.0,111.0,114.0,119.0,118.0,112.0,116.0,112.0,110.0,99.0,90.0,89.0,94.0,111.0,111.0,133.0,175.0,175.0,190.0,187.0,178.0,165.0,157.0,144.0,141.0,140.0,138.0,130.0,129.0,139.0,130.0,128.0,124.0,122.0,119.0,113.0,111.0,107.0,102.0,109.0,104.0,110.0,105.0,101.0,102.0,115.0,121.0,111.0,107.0,125.0,118.0,119.0,125.0,132.0,135.0,132.0,120.0,142.0,138.0,123.0,112.0,122.0,118.0,114.0,104.0,96.0,93.0,92.0,83.0,76.0,70.0,66.0,66.0,63.0,62.0,59.0,62.0,63.0,62.0,62.0,59.0,61.0,80.0,83.0,110.0,130.0,132.0,156.0,166.0,192.0,223.0,214.0,213.0,199.0,193.0,184.0,170.0,163.0,155.0,145.0,140.0,146.0,151.0,145.0,134.0,134.0,127.0,132.0,121.0,112.0,104.0,103.0,103.0,108.0,98.0,99.0,100.0,97.0,87.0,83.0,80.0,82.0,77.0,75.0,72.0,68.0,74.0,69.0,74.0,68.0,70.0,71.0,80.0,74.0,107.0,130.0,172.0,230.0,277.0,271.0,260.0,301.0,296.0,335.0,330.0,358.0,334.0,365.0,387.0,375.0,412.0,397.0,398.0,366.0,342.0,316.0,315.0,351.0,326.0,340.0,338.0,349.0,353.0,333.0,333.0,319.0,306.0,288.0,270.0,270.0,263.0,252.0,259.0,245.0,251.0,237.0,226.0,203.0,198.0,190.0,184.0,192.0,191.0,176.0,175.0,169.0,160.0,154.0,160.0,163.0,157.0,165.0,167.0,173.0,163.0,168.0,175.0,158.0,161.0,159.0,158.0,165.0,154.0,147.0,139.0,131.0,126.0,136.0,133.0,130.0,121.0,117.0,123.0,128.0,132.0,126.0,122.0,126.0,116.0,119.0,118.0,113.0,115.0,111.0,110.0,114.0,110.0,111.0,113.0,107.0,105.0,100.0,111.0,121.0,120.0,123.0,118.0,129.0,139.0,139.0,131.0,123.0,115.0,114.0,109.0,106.0,100.0,110.0,113.0,121.0,131.0,124.0,120.0,113.0,113.0,111.0,109.0,106.0,102.0,99.0,118.0,114.0,110.0,114.0,121.0,120.0,124.0,141.0,135.0,134.0,136.0,149.0,140.0,128.0,123.0,120.0,126.0,124.0,114.0,104.0,98.0,111.0,106.0,110.0,104.0,109.0,109.0,110.0,115.0,106.0,96.0,97.0,89.0,94.0,106.0,104.0,122.0,122.0,120.0,114.0,109.0,119.0,122.0,121.0,115.0,110.0,109.0,105.0,106.0,120.0,134.0,130.0,128.0,125.0,127.0,132.0,125.0,121.0,120.0,126.0,123.0,121.0,119.0,109.0,103.0,98.0,98.0,104.0,112.0,106.0,112.0,119.0,116.0,113.0,113.0,108.0,117.0,112.0,106.0,107.0,109.0,105.0,107.0,104.0,104.0,96.0,98.0,113.0,116.0,109.0,106.0,102.0,100.0,111.0,102.0,100.0,98.0,98.0,97.0,107.0,114.0,114.0,117.0,123.0,116.0,122.0,115.0,117.0,122.0,115.0,116.0,118.0,113.0,115.0,119.0,112.0,121.0,124.0,114.0,118.0,127.0,151.0,140.0,128.0,121.0,127.0,122.0,123.0,119.0,117.0,119.0,121.0,116.0,119.0,111.0,115.0,111.0,116.0,119.0,114.0,107.0,114.0,121.0,123.0,113.0,114.0,118.0,116.0,122.0,127.0,119.0,127.0,129.0,125.0,127.0,126.0,117.0,126.0,117.0,114.0,120.0,120.0,126.0,120.0,114.0,103.0,101.0,99.0,103.0,107.0,103.0,98.0,104.0,113.0,110.0,116.0,119.0,111.0,114.0,113.0,110.0,112.0,121.0,139.0,143.0,136.0,130.0,131.0,122.0,117.0,114.0,105.0,104.0,105.0,105.0,110.0,108.0,100.0,105.0,113.0,105.0,104.0,100.0,96.0,91.0,96.0,101.0,100.0,98.0,92.0,103.0,109.0,109.0,108.0,108.0,108.0,104.0,100.0,107.0,113.0,114.0,113.0,115.0,114.0,111.0,113.0,115.0,116.0,121.0,130.0,124.0,116.0,118.0,112.0,111.0,105.0,97.0,95.0,105.0,105.0,111.0,106.0,108.0,112.0,106.0,102.0,96.0,91.0,103.0,96.0,100.0,95.0,91.0,86.0,83.0,82.0,86.0,87.0,81.0,80.0,74.0,70.0,71.0,93.0,103.0,106.0,113.0,122.0,128.0,123.0,125.0,124.0,117.0,114.0,114.0,138.0,133.0,126.0,131.0,132.0,135.0,140.0,134.0,125.0,118.0,112.0,114.0,110.0,116.0,116.0,134.0,133.0,139.0,134.0,148.0,142.0,143.0,133.0,140.0,132.0,126.0,118.0,138.0,134.0,136.0,145.0,137.0,133.0,135.0,131.0,138.0,143.0,135.0,143.0,142.0,135.0,139.0,137.0,135.0,127.0,121.0,119.0,112.0,108.0,110.0,109.0,115.0,125.0,120.0,116.0,110.0,117.0,122.0,117.0,115.0,113.0,116.0,109.0,105.0,103.0,104.0,102.0,98.0,104.0,101.0,127.0,132.0,123.0,127.0,116.0,108.0,102.0,100.0,103.0,94.0,111.0,116.0,108.0,107.0,109.0,111.0,104.0,109.0,109.0,110.0,106.0,102.0,99.0,95.0,98.0
