52.0,52.0,53.0,52.0,53.0,54.0,55.0,57.0,58.0,59.0,58.0,60.0,62.0,61.0,63.0,64.0,64.0,64.0,66.0,66.0,67.0,67.0,66.0,68.0,67.0,68.0,68.0,69.0,69.0,69.0,70.0,68.0,69.0,72.0,71.0,71.0,71.0,69.0,70.0,68.0,68.0,64.0,65.0,64.0,65.0,66.0,66.0,67.0,66.0,67.0,66.0,67.0,66.0,66.0,68.0,67.0,67.0,67.0,69.0,69.0,69.0,71.0,71.0,71.0,70.0,71.0,69.0,70.0,69.0,69.0,68.0,68.0,68.0,67.0,67.0,67.0,67.0,67.0,67.0,67.0,67.0,68.0,68.0,67.0,67.0,67.0,66.0,66.0,66.0,66.0,66.0,66.0,65.0,65.0,64.0,64.0,63.0,63.0,62.0,62.0,61.0,60.0,57.0,57.0,57.0,58.0,58.0,57.0,57.0,56.0,57.0,57.0,57.0,58.0,56.0,57.0,56.0,56.0,56.0,58.0,57.0,57.0,55.0,54.0,53.0,52.0,52.0,52.0,51.0,52.0,50.0,50.0,48.0,48.0,48.0,47.0,46.0,45.0,45.0,45.0,45.0,46.0,45.0,45.0,44.0,43.0,43.0,43.0,43.0,43.0,43.0,42.0,43.0,43.0,42.0,43.0,41.0,43.0,48.0,53.0,56.0,70.0,79.0,81.0,97.0,116.0,119.0,189.0,198.0,208.0,229.0,221.0,208.0,220.0,227.0,220.0,215.0,207.0,206.0,196.0,188.0,204.0,197.0,180.0,166.0,159.0,144.0,144.0,136.0,129.0,125.0,124.0,132.0,128.0,121.0,113.0,107.0,107.0,104.0,98.0,94.0,94.0,94.0,95.0,97.0,89.0,85.0,80.0,80.0,85.0,86.0,81.0,81.0,81.0,100.0,111.0,108.0,102.0,95.0,92.0,91.0,100.0,102.0,96.0,90.0,85.0,81.0,79.0,77.0,80.0,78.0,76.0,77.0,75.0,75.0,71.0,72.0,69.0,71.0,88.0,89.0,85.0,80.0,75.0,72.0,69.0,68.0,65.0,68.0,64.0,63.0,63.0,62.0,63.0,64.0,65.0,62.0,61.0,64.0,67.0,67.0,69.0,67.0,68.0,68.0,67.0,67.0,74.0,76.0,78.0,79.0,79.0,81.0,80.0,86.0,85.0,83.0,77.0,78.0,76.0,74.0,74.0,76.0,77.0,72.0,71.0,69.0,67.0,67.0,68.0,66.0,66.0,66.0,65.0,65.0,67.0,65.0,65.0,63.0,62.0,62.0,61.0,62.0,60.0,63.0,67.0,64.0,66.0,64.0,62.0,61.0,62.0,62.0,60.0,59.0,56.0,56.0,53.0,52.0,50.0,50.0,50.0,58.0,57.0,57.0,58.0,64.0,75.0,82.0,85.0,90.0,95.0,109.0,116.0,120.0,131.0,133.0,138.0,144.0,149.0,155.0,158.0,159.0,162.0,161.0,160.0,158.0,157.0,156.0,156.0,155.0,154.0,151.0,148.0,148.0,145.0,142.0,143.0,141.0,138.0,136.0,135.0,136.0,135.0,135.0,134.0,133.0,131.0,133.0,130.0,130.0,126.0,124.0,121.0,121.0,121.0,118.0,118.0,116.0,115.0,112.0,111.0,112.0,110.0,109.0,107.0,108.0,108.0,106.0,106.0,104.0,105.0,103.0,102.0,101.0,99.0,98.0,96.0,95.0,94.0,93.0,91.0,93.0,93.0,90.0,91.0,90.0,88.0,89.0,86.0,86.0,84.0,84.0,84.0,84.0,83.0,83.0,86.0,84.0,86.0,86.0,87.0,88.0,87.0,88.0,87.0,86.0,85.0,85.0,84.0,83.0,84.0,84.0,83.0,82.0,80.0,79.0,77.0,77.0,77.0,79.0,77.0,77.0,77.0,76.0,76.0,75.0,76.0,75.0,75.0,75.0,75.0,74.0,73.0,74.0,73.0,73.0,74.0,73.0,76.0,75.0,73.0,74.0,74.0,70.0,71.0,70.0,67.0,67.0,65.0,63.0,63.0,62.0,63.0,61.0,59.0,58.0,58.0,57.0,57.0,55.0,54.0,55.0,55.0,54.0,53.0,53.0,52.0,51.0,50.0,49.0,49.0,49.0,48.0,49.0,48.0,48.0,49.0,50.0,51.0,50.0,51.0,50.0,50.0,50.0,50.0,49.0,47.0,49.0,48.0,48.0,48.0,48.0,48.0,49.0,50.0,49.0,49.0,49.0,47.0,46.0,45.0,45.0,45.0,45.0,44.0,43.0,43.0,44.0,44.0,43.0,44.0,44.0,44.0,45.0,46.0,47.0,48.0,49.0,50.0,50.0,50.0,51.0,50.0,52.0,52.0,51.0,53.0,52.0,52.0,53.0,52.0,52.0,52.0,51.0,51.0,51.0,51.0,52.0,52.0,53.0,55.0,55.0,52.0,55.0,54.0,54.0,54.0,54.0,54.0,54.0,53.0,53.0,52.0,53.0,53.0,53.0,53.0,55.0,53.0,53.0,55.0,54.0,55.0,57.0,59.0,60.0,60.0,62.0,64.0,64.0,63.0,63.0,61.0,61.0,60.0,59.0,56.0,56.0,56.0,56.0,54.0,54.0,51.0,52.0,51.0,50.0,49.0,48.0,50.0,50.0,51.0,50.0,50.0,51.0,50.0,51.0,51.0,51.0,52.0,53.0,54.0,52.0,53.0,54.0,54.0,55.0,56.0,55.0,54.0,55.0,53.0,54.0,53.0,51.0,52.0,51.0,51.0,51.0,51.0,50.0,50.0,51.0,50.0,50.0,49.0,50.0,50.0,50.0,50.0,52.0,52.0,53.0,53.0,53.0,53.0,55.0,55.0,55.0,56.0,55.0,53.0,53.0,52.0,50.0,49.0,49.0,50.0,49.0,47.0,47.0,48.0,47.0,47.0,47.0,49.0,49.0,52.0,50.0,50.0,49.0,49.0,49.0,49.0,49.0,48.0,47.0,49.0,51.0,52.0,53.0,53.0,54.0,56.0,56.0,55.0,55.0,53.0,55.0,54.0,55.0,56.0,57.0,56.0,56.0,56.0,54.0,54.0,54.0,53.0,52.0,51.0,51.0,47.0,47.0,47.0,46.0,47.0,46.0,48.0,48.0,47.0,48.0,49.0,50.0,50.0,52.0,52.0,52.0,52.0,52.0,54.0,54.0,56.0,55.0,57.0,58.0,58.0,58.0,58.0,59.0,59.0,60.0,60.0,59.0,61.0,60.0,61.0,60.0,61.0,61.0,60.0,62.0,61.0,61.0,60.0,60.0,61.0,62.0,60.0,60.0,64.0,66.0,67.0,65.0,64.0,63.0,61.0,62.0,61.0,60.0,62.0,60.0,61.0,63.0,61.0,60.0,61.0,62.0,61.0,61.0,62.0,62.0,62.0,62.0,64.0,64.0,65.0,65.0,64.0,62.0,62.0,61.0,60.0,60.0,59.0,59.0,58.0,60.0,60.0,59.0,60.0,60.0,60.0,60.0,60.0,62.0,61.0,62.0,63.0,61.0,64.0,66.0,68.0,70.0,72.0,75.0,77.0,77.0,77.0,78.0,79.0,78.0,79.0,79.0,78.0,76.0,76.0,76.0,76.0,74.0,74.0,72.0,70.0,70.0,69.0,68.0,68.0,68.0,68.0,68.0,68.0,67.0,68.0,68.0,67.0,67.0,66.0,66.0,66.0,66.0,65.0,65.0,64.0,64.0,64.0,65.0,66.0,65.0,65.0,65.0,65.0,64.0,66.0,66.0,67.0,66.0,65.0,62.0,62.0,62.0,63.0,63.0,61.0,63.0,60.0,62.0,63.0,63.0,63.0,62.0,61.0,62.0,62.0,61.0,59.0,57.0,57.0,56.0,55.0,55.0,56.0,56.0,55.0,54.0,54.0,54.0,54.0,54.0,55.0,54.0,56.0,57.0,55.0,58.0,57.0,56.0,56.0,57.0,58.0,58.0,58.0,57.0,57.0,56.0,55.0,57.0,57.0,57.0,57.0,57.0,58.0,57.0,57.0,54.0,56.0,56.0,56.0,57.0,57.0,59.0,58.0,58.0,57.0,56.0,56.0,55.0,55.0,53.0,52.0,52.0,52.0,53.0,53.0,55.0,54.0,55.0,55.0,55.0,54.0,53.0,53.0,52.0,53.0,54.0,55.0,55.0,56.0,55.0,53.0,53.0,52.0,52.0,53.0,53.0,53.0,52.0,52.0,52.0,51.0,51.0,51.0,51.0,50.0,52.0,54.0,55.0,58.0,61.0,67.0,71.0,76.0,81.0,86.0,91.0,96.0,102.0,108.0,114.0,118.0,123.0,126.0,127.0,127.0,128.0,127.0,127.0,126.0,125.0,121.0
102.0,104.0,105.0,107.0,109.0,110.0,113.0,116.0,116.0,117.0,118.0,120.0,121.0,120.0,120.0,121.0,121.0,121.0,121.0,120.0,118.0,117.0,116.0,115.0,116.0,117.0,117.0,118.0,120.0,121.0,120.0,120.0,120.0,121.0,122.0,120.0,120.0,118.0,117.0,115.0,114.0,111.0,112.0,110.0,111.0,111.0,110.0,110.0,110.0,110.0,110.0,111.0,112.0,113.0,114.0,114.0,112.0,112.0,112.0,111.0,111.0,110.0,109.0,106.0,104.0,102.0,101.0,102.0,101.0,102.0,100.0,101.0,100.0,99.0,100.0,99.0,101.0,100.0,101.0,100.0,99.0,101.0,101.0,103.0,103.0,106.0,106.0,106.0,105.0,104.0,104.0,103.0,102.0,103.0,100.0,100.0,99.0,99.0,98.0,97.0,95.0,94.0,93.0,93.0,96.0,95.0,94.0,94.0,93.0,94.0,95.0,96.0,94.0,93.0,91.0,88.0,87.0,85.0,85.0,85.0,83.0,83.0,82.0,82.0,79.0,82.0,83.0,82.0,84.0,83.0,85.0,85.0,87.0,86.0,86.0,87.0,86.0,86.0,85.0,85.0,84.0,83.0,82.0,81.0,79.0,78.0,79.0,80.0,80.0,80.0,80.0,81.0,78.0,78.0,75.0,72.0,69.0,67.0,67.0,64.0,63.0,62.0,60.0,59.0,67.0,73.0,77.0,88.0,90.0,93.0,95.0,89.0,99.0,105.0,116.0,150.0,192.0,231.0,252.0,290.0,341.0,388.0,433.0,435.0,453.0,469.0,488.0,502.0,490.0,484.0,478.0,467.0,457.0,442.0,425.0,411.0,396.0,378.0,366.0,345.0,344.0,320.0,305.0,294.0,286.0,275.0,267.0,259.0,256.0,253.0,252.0,250.0,251.0,258.0,272.0,271.0,278.0,287.0,296.0,310.0,317.0,331.0,333.0,340.0,340.0,350.0,351.0,356.0,360.0,360.0,364.0,363.0,369.0,366.0,362.0,358.0,361.0,358.0,354.0,350.0,344.0,339.0,335.0,328.0,321.0,316.0,306.0,302.0,294.0,285.0,277.0,270.0,263.0,253.0,248.0,239.0,231.0,224.0,219.0,210.0,204.0,198.0,193.0,191.0,187.0,180.0,176.0,174.0,167.0,161.0,160.0,158.0,155.0,158.0,154.0,155.0,156.0,155.0,155.0,158.0,160.0,161.0,160.0,161.0,156.0,153.0,150.0,149.0,145.0,141.0,137.0,135.0,128.0,127.0,125.0,122.0,119.0,116.0,114.0,112.0,111.0,111.0,107.0,107.0,106.0,106.0,106.0,104.0,106.0,106.0,106.0,104.0,104.0,103.0,102.0,102.0,98.0,96.0,93.0,90.0,86.0,83.0,82.0,74.0,75.0,70.0,69.0,80.0,95.0,108.0,122.0,133.0,152.0,163.0,172.0,191.0,201.0,218.0,237.0,243.0,259.0,270.0,278.0,288.0,293.0,298.0,298.0,299.0,302.0,301.0,300.0,298.0,296.0,293.0,293.0,292.0,285.0,288.0,285.0,283.0,282.0,280.0,281.0,281.0,281.0,279.0,279.0,278.0,279.0,277.0,274.0,269.0,266.0,262.0,257.0,253.0,247.0,245.0,242.0,236.0,229.0,226.0,222.0,215.0,209.0,204.0,198.0,193.0,186.0,182.0,179.0,177.0,173.0,170.0,166.0,161.0,159.0,155.0,152.0,150.0,148.0,143.0,142.0,141.0,140.0,138.0,136.0,133.0,132.0,130.0,128.0,127.0,124.0,123.0,121.0,118.0,117.0,117.0,116.0,115.0,114.0,116.0,115.0,114.0,113.0,111.0,109.0,108.0,105.0,102.0,99.0,98.0,98.0,95.0,93.0,89.0,86.0,82.0,78.0,77.0,76.0,75.0,74.0,72.0,73.0,72.0,71.0,71.0,70.0,68.0,66.0,65.0,64.0,62.0,62.0,61.0,61.0,58.0,56.0,54.0,53.0,51.0,49.0,49.0,46.0,45.0,45.0,43.0,43.0,43.0,43.0,42.0,42.0,40.0,39.0,39.0,39.0,39.0,38.0,39.0,38.0,38.0,39.0,40.0,41.0,40.0,43.0,43.0,44.0,44.0,45.0,46.0,45.0,46.0,46.0,45.0,45.0,44.0,44.0,44.0,44.0,43.0,43.0,41.0,40.0,39.0,38.0,37.0,37.0,37.0,37.0,36.0,38.0,38.0,38.0,39.0,40.0,40.0,40.0,41.0,40.0,40.0,39.0,39.0,39.0,39.0,39.0,38.0,38.0,37.0,37.0,37.0,37.0,39.0,37.0,37.0,37.0,37.0,36.0,36.0,36.0,34.0,35.0,34.0,35.0,34.0,33.0,34.0,34.0,34.0,34.0,33.0,33.0,33.0,34.0,33.0,35.0,34.0,35.0,34.0,33.0,37.0,36.0,35.0,34.0,35.0,35.0,35.0,37.0,36.0,36.0,36.0,35.0,34.0,34.0,34.0,34.0,33.0,34.0,33.0,33.0,35.0,35.0,34.0,36.0,37.0,37.0,37.0,37.0,39.0,37.0,37.0,37.0,36.0,35.0,35.0,36.0,35.0,35.0,34.0,35.0,34.0,35.0,35.0,36.0,36.0,36.0,35.0,35.0,35.0,37.0,37.0,37.0,36.0,36.0,38.0,39.0,40.0,42.0,42.0,40.0,40.0,39.0,38.0,38.0,38.0,39.0,41.0,39.0,41.0,44.0,44.0,44.0,45.0,45.0,47.0,47.0,51.0,52.0,54.0,55.0,56.0,56.0,54.0,53.0,54.0,54.0,55.0,56.0,55.0,57.0,56.0,56.0,54.0,54.0,53.0,54.0,55.0,55.0,56.0,55.0,54.0,58.0,56.0,57.0,57.0,59.0,60.0,60.0,61.0,61.0,63.0,62.0,63.0,64.0,64.0,64.0,63.0,62.0,61.0,61.0,61.0,62.0,63.0,63.0,63.0,63.0,65.0,65.0,66.0,66.0,65.0,66.0,67.0,68.0,68.0,69.0,68.0,69.0,67.0,67.0,68.0,68.0,68.0,69.0,69.0,68.0,68.0,65.0,65.0,63.0,64.0,63.0,61.0,60.0,61.0,60.0,60.0,59.0,57.0,58.0,57.0,60.0,61.0,60.0,61.0,62.0,63.0,64.0,67.0,67.0,68.0,70.0,71.0,71.0,70.0,71.0,70.0,69.0,69.0,67.0,66.0,65.0,65.0,65.0,66.0,64.0,64.0,66.0,67.0,67.0,67.0,70.0,71.0,72.0,73.0,73.0,76.0,78.0,79.0,82.0,83.0,85.0,87.0,87.0,90.0,90.0,90.0,89.0,88.0,87.0,86.0,86.0,84.0,83.0,81.0,80.0,80.0,79.0,79.0,78.0,79.0,77.0,78.0,78.0,79.0,81.0,80.0,82.0,82.0,83.0,85.0,88.0,91.0,94.0,96.0,99.0,99.0,100.0,100.0,99.0,99.0,97.0,96.0,97.0,98.0,99.0,102.0,100.0,101.0,101.0,101.0,101.0,100.0,100.0,98.0,98.0,98.0,98.0,98.0,98.0,99.0,98.0,101.0,100.0,101.0,103.0,104.0,108.0,108.0,108.0,110.0,110.0,110.0,111.0,110.0,108.0,106.0,104.0,104.0,103.0,101.0,101.0,98.0,96.0,94.0,94.0,94.0,93.0,92.0,91.0,89.0,89.0,86.0,85.0,84.0,82.0,80.0,78.0,79.0,77.0,78.0,77.0,77.0,74.0,75.0,76.0,75.0,75.0,75.0,74.0,72.0,72.0,72.0,72.0,72.0,73.0,73.0,70.0,70.0,68.0,67.0,68.0,67.0,70.0,68.0,68.0,69.0,67.0,69.0,68.0,68.0,68.0,66.0,66.0,64.0,63.0,61.0,63.0,60.0,60.0,59.0,57.0,55.0,54.0,54.0,52.0,50.0,51.0,49.0,49.0,49.0,48.0,47.0,46.0,46.0,45.0,44.0,43.0,43.0,41.0,41.0,39.0,39.0,39.0,39.0,40.0,40.0,40.0,41.0,41.0,41.0,41.0,44.0,43.0,44.0,45.0,45.0,46.0,45.0,46.0,44.0,45.0,44.0,43.0,42.0,43.0,41.0,40.0,39.0,37.0,36.0,38.0,37.0,37.0,36.0,35.0,36.0,35.0,36.0,37.0,39.0,40.0,41.0,42.0,43.0,43.0,44.0,43.0,43.0,42.0,44.0,42.0,43.0,42.0,41.0,40.0,39.0,40.0,39.0,41.0,41.0,41.0,42.0,42.0,43.0,43.0,44.0,43.0,41.0,40.0,38.0,37.0,37.0,38.0,37.0,39.0,40.0,40.0,43.0
4.0,5.0,5.0,4.0,4.0,5.0,4.0,4.0,4.0,8.0,8.0,10.0,9.0,9.0,10.0,11.0,12.0,10.0,11.0,11.0,16.0,17.0,15.0,14.0,12.0,11.0,11.0,10.0,10.0,8.0,9.0,8.0,7.0,6.0,8.0,8.0,9.0,9.0,8.0,7.0,7.0,14.0,14.0,19.0,23.0,20.0,20.0,19.0,17.0,16.0,13.0,13.0,15.0,16.0,14.0,11.0,12.0,12.0,12.0,11.0,10.0,9.0,8.0,7.0,7.0,10.0,11.0,12.0,11.0,10.0,9.0,9.0,9.0,8.0,7.0,8.0,7.0,7.0,6.0,7.0,5.0,5.0,5.0,5.0,6.0,6.0,7.0,6.0,5.0,5.0,7.0,6.0,6.0,7.0,11.0,11.0,9.0,8.0,8.0,7.0,9.0,8.0,7.0,7.0,7.0,7.0,6.0,6.0,6.0,5.0,5.0,5.0,5.0,5.0,6.0,5.0,4.0,4.0,7.0,7.0,6.0,6.0,5.0,4.0,5.0,6.0,5.0,5.0,5.0,5.0,4.0,6.0,6.0,5.0,5.0,5.0,5.0,4.0,4.0,8.0,8.0,7.0,7.0,7.0,6.0,6.0,5.0,6.0,5.0,12.0,11.0,10.0,9.0,8.0,8.0,7.0,8.0,8.0,7.0,8.0,7.0,7.0,6.0,9.0,8.0,7.0,15.0,20.0,29.0,34.0,30.0,32.0,32.0,31.0,34.0,37.0,33.0,32.0,35.0,30.0,31.0,31.0,34.0,37.0,33.0,29.0,26.0,26.0,23.0,25.0,22.0,25.0,25.0,20.0,20.0,18.0,18.0,18.0,17.0,19.0,26.0,25.0,23.0,24.0,23.0,28.0,26.0,23.0,26.0,27.0,24.0,23.0,21.0,32.0,46.0,54.0,53.0,48.0,47.0,47.0,51.0,46.0,56.0,52.0,55.0,51.0,49.0,43.0,44.0,44.0,50.0,55.0,49.0,49.0,47.0,43.0,38.0,34.0,38.0,39.0,37.0,34.0,31.0,28.0,26.0,24.0,22.0,21.0,22.0,24.0,27.0,38.0,38.0,46.0,44.0,48.0,46.0,46.0,45.0,48.0,44.0,41.0,40.0,35.0,37.0,35.0,35.0,49.0,49.0,47.0,46.0,45.0,44.0,42.0,40.0,37.0,35.0,31.0,30.0,27.0,25.0,22.0,20.0,23.0,20.0,20.0,17.0,19.0,21.0,19.0,17.0,15.0,14.0,13.0,14.0,14.0,15.0,15.0,21.0,20.0,18.0,15.0,14.0,15.0,17.0,18.0,16.0,15.0,14.0,15.0,19.0,18.0,16.0,14.0,13.0,14.0,18.0,16.0,23.0,24.0,23.0,28.0,29.0,34.0,69.0,73.0,66.0,64.0,75.0,78.0,73.0,66.0,63.0,56.0,87.0,105.0,118.0,117.0,125.0,140.0,136.0,119.0,105.0,98.0,95.0,91.0,91.0,90.0,91.0,92.0,90.0,89.0,86.0,92.0,82.0,76.0,81.0,101.0,94.0,90.0,101.0,92.0,81.0,80.0,79.0,76.0,73.0,71.0,64.0,61.0,60.0,56.0,66.0,62.0,55.0,53.0,66.0,60.0,53.0,52.0,56.0,64.0,58.0,50.0,47.0,46.0,41.0,38.0,39.0,35.0,32.0,28.0,39.0,39.0,38.0,35.0,36.0,35.0,42.0,39.0,40.0,44.0,47.0,53.0,48.0,45.0,41.0,42.0,38.0,41.0,37.0,34.0,39.0,35.0,31.0,32.0,32.0,29.0,30.0,30.0,35.0,38.0,34.0,36.0,37.0,32.0,28.0,25.0,24.0,23.0,25.0,33.0,32.0,28.0,25.0,24.0,23.0,20.0,20.0,18.0,19.0,18.0,16.0,17.0,17.0,17.0,16.0,14.0,14.0,14.0,19.0,17.0,21.0,20.0,17.0,16.0,15.0,16.0,15.0,13.0,13.0,13.0,12.0,11.0,12.0,12.0,12.0,12.0,12.0,11.0,10.0,10.0,8.0,11.0,11.0,11.0,10.0,16.0,15.0,13.0,12.0,15.0,14.0,13.0,11.0,11.0,11.0,11.0,8.0,9.0,8.0,7.0,8.0,13.0,14.0,11.0,10.0,10.0,9.0,8.0,14.0,20.0,18.0,16.0,15.0,14.0,14.0,12.0,12.0,12.0,11.0,11.0,10.0,9.0,9.0,10.0,12.0,12.0,11.0,10.0,10.0,9.0,10.0,10.0,9.0,13.0,11.0,11.0,10.0,11.0,9.0,8.0,8.0,8.0,7.0,5.0,7.0,10.0,9.0,8.0,11.0,10.0,9.0,8.0,9.0,11.0,10.0,9.0,12.0,12.0,12.0,10.0,9.0,9.0,8.0,8.0,7.0,9.0,6.0,12.0,10.0,10.0,9.0,8.0,7.0,8.0,8.0,9.0,10.0,12.0,11.0,11.0,10.0,10.0,10.0,10.0,12.0,11.0,10.0,10.0,14.0,15.0,12.0,11.0,11.0,11.0,10.0,10.0,9.0,9.0,8.0,7.0,8.0,8.0,9.0,8.0,10.0,10.0,9.0,9.0,8.0,7.0,7.0,10.0,10.0,9.0,9.0,8.0,6.0,7.0,9.0,11.0,12.0,11.0,10.0,10.0,10.0,9.0,7.0,8.0,8.0,9.0,9.0,8.0,7.0,7.0,6.0,9.0,8.0,8.0,8.0,8.0,7.0,7.0,8.0,8.0,8.0,8.0,8.0,8.0,7.0,7.0,7.0,6.0,7.0,6.0,7.0,7.0,7.0,6.0,6.0,8.0,6.0,7.0,6.0,8.0,7.0,7.0,7.0,6.0,6.0,5.0,5.0,6.0,10.0,10.0,11.0,10.0,11.0,15.0,15.0,12.0,15.0,17.0,15.0,15.0,13.0,12.0,12.0,11.0,17.0,16.0,14.0,13.0,12.0,10.0,10.0,10.0,9.0,8.0,8.0,9.0,7.0,7.0,6.0,7.0,6.0,5.0,5.0,12.0,13.0,12.0,10.0,9.0,9.0,9.0,8.0,6.0,6.0,6.0,7.0,8.0,8.0,5.0,6.0,6.0,7.0,7.0,5.0,9.0,8.0,9.0,7.0,7.0,7.0,7.0,7.0,6.0,5.0,6.0,5.0,5.0,5.0,7.0,5.0,6.0,5.0,5.0,5.0,5.0,7.0,6.0,6.0,6.0,6.0,5.0,5.0,6.0,6.0,6.0,5.0,5.0,6.0,5.0,6.0,5.0,4.0,4.0,4.0,4.0,5.0,6.0,4.0,5.0,4.0,5.0,5.0,4.0,4.0,4.0,4.0,4.0,4.0,4.0,6.0,8.0,6.0,6.0,6.0,6.0,6.0,5.0,10.0,8.0,9.0,8.0,7.0,7.0,5.0,9.0,8.0,7.0,8.0,7.0,6.0,5.0,6.0,5.0,6.0,5.0,5.0,5.0,4.0,8.0,8.0,7.0,9.0,8.0,7.0,8.0,11.0,10.0,8.0,8.0,7.0,7.0,6.0,7.0,6.0,6.0,6.0,5.0,5.0,5.0,5.0,5.0,5.0,10.0,10.0,10.0,9.0,9.0,8.0,6.0,8.0,8.0,8.0,7.0,7.0,6.0,6.0,6.0,5.0,5.0,6.0,7.0,6.0,6.0,8.0,6.0,7.0,7.0,7.0,5.0,5.0,5.0,6.0,6.0,5.0,6.0,5.0,5.0,5.0,5.0,5.0,5.0,5.0,5.0,6.0,6.0,4.0,5.0,5.0,5.0,5.0,4.0,5.0,4.0,4.0,4.0,4.0,5.0,4.0,6.0,5.0,5.0,5.0,5.0,5.0,4.0,7.0,6.0,6.0,5.0,5.0,6.0,6.0,7.0,7.0,7.0,6.0,5.0,5.0,4.0,7.0,5.0,6.0,5.0,5.0,10.0,8.0,8.0,7.0,7.0,6.0,7.0,6.0,5.0,5.0,5.0,5.0,4.0,4.0,6.0,6.0,7.0,7.0,6.0,7.0,6.0,6.0,4.0,6.0,5.0,5.0,5.0,5.0,5.0,4.0,4.0,4.0,3.0,4.0,4.0,5.0,4.0,4.0,3.0,4.0,5.0,5.0,5.0,8.0,9.0,9.0,8.0,8.0,7.0,8.0,5.0,7.0,5.0,7.0,7.0,5.0,6.0,4.0,5.0,4.0,5.0,4.0,4.0,4.0,4.0,4.0,4.0,4.0,7.0,6.0,6.0,4.0,6.0,5.0,5.0,7.0,7.0,7.0,6.0,6.0,5.0,5.0,5.0,5.0,6.0,4.0,5.0,4.0,3.0,4.0,4.0
65.0,66.0,71.0,73.0,76.0,76.0,70.0,68.0,67.0,69.0,75.0,79.0,75.0,92.0,98.0,111.0,114.0,114.0,113.0,117.0,118.0,114.0,105.0,112.0,108.0,103.0,102.0,102.0,103.0,99.0,101.0,101.0,100.0,98.0,99.0,98.0,102.0,94.0,98.0,100.0,100.0,113.0,116.0,124.0,139.0,131.0,125.0,124.0,121.0,119.0,114.0,115.0,121.0,115.0,116.0,112.0,130.0,129.0,124.0,123.0,123.0,120.0,124.0,119.0,117.0,108.0,102.0,112.0,139.0,135.0,122.0,113.0,109.0,117.0,112.0,104.0,103.0,98.0,93.0,91.0,88.0,91.0,89.0,91.0,90.0,85.0,78.0,78.0,82.0,93.0,98.0,91.0,84.0,85.0,87.0,103.0,100.0,93.0,92.0,93.0,92.0,92.0,89.0,83.0,79.0,77.0,76.0,82.0,89.0,87.0,82.0,85.0,82.0,77.0,75.0,78.0,82.0,83.0,84.0,86.0,82.0,80.0,80.0,85.0,81.0,78.0,84.0,88.0,93.0,93.0,91.0,105.0,105.0,107.0,102.0,106.0,98.0,113.0,117.0,120.0,114.0,128.0,125.0,128.0,122.0,117.0,133.0,152.0,151.0,142.0,138.0,134.0,145.0,134.0,126.0,116.0,122.0,115.0,113.0,110.0,108.0,99.0,102.0,108.0,106.0,103.0,107.0,118.0,120.0,119.0,121.0,121.0,128.0,127.0,134.0,136.0,131.0,141.0,143.0,226.0,257.0,307.0,346.0,393.0,358.0,342.0,321.0,304.0,293.0,266.0,293.0,289.0,264.0,243.0,243.0,224.0,239.0,247.0,248.0,227.0,218.0,220.0,218.0,204.0,192.0,193.0,194.0,193.0,195.0,181.0,164.0,166.0,156.0,147.0,172.0,160.0,164.0,189.0,186.0,186.0,185.0,188.0,206.0,195.0,189.0,191.0,202.0,186.0,180.0,165.0,155.0,153.0,182.0,187.0,178.0,172.0,165.0,161.0,185.0,179.0,169.0,164.0,167.0,167.0,161.0,151.0,145.0,148.0,149.0,155.0,149.0,141.0,144.0,151.0,148.0,142.0,136.0,137.0,136.0,134.0,124.0,126.0,120.0,117.0,121.0,122.0,129.0,135.0,132.0,135.0,144.0,140.0,153.0,160.0,151.0,143.0,129.0,125.0,119.0,127.0,127.0,124.0,119.0,132.0,133.0,144.0,167.0,172.0,180.0,186.0,172.0,164.0,157.0,160.0,154.0,146.0,146.0,143.0,148.0,146.0,150.0,149.0,138.0,134.0,127.0,128.0,121.0,117.0,123.0,119.0,123.0,123.0,123.0,117.0,116.0,121.0,122.0,116.0,109.0,105.0,102.0,101.0,104.0,100.0,94.0,112.0,124.0,120.0,114.0,117.0,115.0,116.0,119.0,112.0,106.0,116.0,136.0,167.0,167.0,194.0,238.0,231.0,218.0,232.0,228.0,254.0,242.0,229.0,229.0,218.0,200.0,200.0,192.0,205.0,189.0,186.0,189.0,185.0,178.0,169.0,169.0,163.0,153.0,142.0,137.0,166.0,158.0,145.0,144.0,140.0,129.0,123.0,119.0,118.0,107.0,98.0,103.0,120.0,119.0,116.0,123.0,129.0,125.0,117.0,121.0,128.0,118.0,118.0,118.0,115.0,109.0,108.0,111.0,109.0,107.0,101.0,95.0,89.0,85.0,80.0,87.0,83.0,85.0,97.0,110.0,109.0,119.0,120.0,133.0,135.0,127.0,126.0,118.0,112.0,112.0,114.0,120.0,114.0,112.0,102.0,105.0,101.0,102.0,101.0,94.0,93.0,89.0,93.0,84.0,84.0,96.0,107.0,107.0,101.0,97.0,104.0,102.0,99.0,98.0,93.0,85.0,85.0,86.0,98.0,97.0,97.0,105.0,104.0,96.0,101.0,112.0,108.0,105.0,111.0,108.0,103.0,93.0,92.0,91.0,90.0,86.0,89.0,103.0,106.0,100.0,97.0,98.0,93.0,92.0,90.0,89.0,86.0,79.0,95.0,109.0,116.0,108.0,104.0,100.0,93.0,100.0,141.0,135.0,126.0,118.0,114.0,110.0,109.0,111.0,101.0,94.0,88.0,95.0,92.0,99.0,101.0,96.0,97.0,94.0,85.0,92.0,89.0,96.0,93.0,87.0,96.0,93.0,92.0,106.0,115.0,111.0,106.0,98.0,94.0,86.0,80.0,96.0,91.0,86.0,86.0,80.0,75.0,71.0,76.0,75.0,74.0,73.0,69.0,67.0,66.0,71.0,73.0,83.0,88.0,81.0,81.0,77.0,88.0,90.0,88.0,83.0,75.0,70.0,71.0,73.0,68.0,79.0,83.0,88.0,85.0,83.0,82.0,79.0,77.0,84.0,79.0,76.0,70.0,79.0,79.0,77.0,77.0,73.0,72.0,70.0,86.0,84.0,79.0,81.0,77.0,78.0,82.0,77.0,75.0,75.0,80.0,80.0,86.0,85.0,80.0,78.0,81.0,80.0,84.0,81.0,77.0,72.0,67.0,71.0,68.0,64.0,62.0,63.0,62.0,62.0,67.0,65.0,69.0,69.0,64.0,61.0,73.0,69.0,68.0,73.0,78.0,80.0,85.0,100.0,101.0,95.0,93.0,91.0,86.0,84.0,87.0,83.0,82.0,80.0,78.0,83.0,85.0,90.0,92.0,89.0,81.0,76.0,70.0,74.0,74.0,71.0,69.0,69.0,71.0,79.0,86.0,89.0,83.0,90.0,90.0,89.0,89.0,85.0,89.0,98.0,106.0,103.0,97.0,92.0,87.0,86.0,87.0,80.0,74.0,72.0,77.0,85.0,83.0,79.0,80.0,76.0,84.0,86.0,86.0,86.0,97.0,103.0,96.0,92.0,98.0,102.0,114.0,114.0,116.0,108.0,100.0,95.0,93.0,89.0,85.0,86.0,86.0,88.0,94.0,94.0,93.0,98.0,101.0,95.0,87.0,80.0,80.0,75.0,82.0,85.0,85.0,79.0,80.0,80.0,79.0,84.0,91.0,82.0,80.0,79.0,74.0,80.0,77.0,78.0,81.0,89.0,85.0,80.0,80.0,81.0,76.0,70.0,68.0,63.0,72.0,72.0,72.0,74.0,86.0,83.0,77.0,72.0,74.0,71.0,75.0,75.0,76.0,78.0,87.0,86.0,80.0,88.0,82.0,79.0,81.0,86.0,84.0,75.0,73.0,70.0,68.0,69.0,73.0,74.0,68.0,69.0,67.0,70.0,87.0,83.0,85.0,81.0,79.0,79.0,85.0,92.0,91.0,86.0,81.0,87.0,85.0,82.0,78.0,74.0,69.0,67.0,75.0,75.0,70.0,77.0,73.0,80.0,87.0,93.0,92.0,87.0,85.0,82.0,86.0,93.0,90.0,83.0,80.0,79.0,74.0,81.0,81.0,79.0,80.0,79.0,77.0,71.0,64.0,59.0,57.0,56.0,56.0,55.0,57.0,64.0,66.0,82.0,79.0,84.0,80.0,75.0,71.0,66.0,62.0,66.0,61.0,59.0,72.0,78.0,82.0,77.0,72.0,66.0,62.0,87.0,98.0,93.0,87.0,86.0,78.0,74.0,69.0,65.0,60.0,61.0,60.0,58.0,62.0,57.0,54.0,52.0,50.0,49.0,48.0,54.0,54.0,51.0,57.0,61.0,58.0,53.0,50.0,48.0,50.0,51.0,50.0,52.0,47.0,48.0,52.0,51.0,50.0,52.0,49.0,46.0,44.0,42.0,43.0,41.0,39.0,38.0,42.0,47.0,46.0,43.0,42.0,44.0,51.0,52.0,55.0,52.0,49.0,50.0,48.0,51.0,48.0,47.0,44.0,51.0,47.0,45.0,51.0,55.0,71.0,67.0,62.0,60.0,61.0,65.0,75.0,73.0,67.0,63.0,62.0,60.0,58.0,54.0,54.0,52.0,51.0,51.0,56.0,57.0,52.0,49.0,46.0,43.0,43.0,41.0,43.0,41.0,41.0,39.0,41.0,40.0,40.0,40.0,38.0,39.0,39.0,38.0,38.0,37.0,41.0,39.0,38.0,36.0,35.0,36.0,35.0,35.0,34.0,40.0,39.0,50.0,62.0,70.0,74.0,74.0,71.0,69.0,67.0,66.0,63.0,63.0,61.0,58.0,54.0,55.0,65.0,67.0,65.0,60.0,61.0,58.0,53.0,50.0,45.0,43.0,41.0,39.0,38.0,36.0,38.0,35.0,36.0,38.0,38.0,39.0,36.0,37.0,37.0,43.0,40.0,41.0,41.0,41.0,41.0,39.0,40.0,49.0,49.0,47.0,45.0,44.0,41.0,41.0,40.0,38.0,39.0
