57.0,59.0,56.0,59.0,58.0,57.0,56.0,57.0,58.0,58.0,58.0,58.0,59.0,59.0,59.0,60.0,60.0,62.0,64.0,65.0,66.0,65.0,67.0,66.0,65.0,64.0,64.0,64.0,63.0,63.0,62.0,62.0,63.0,62.0,61.0,60.0,61.0,59.0,58.0,58.0,55.0,55.0,54.0,56.0,54.0,56.0,55.0,55.0,54.0,54.0,54.0,54.0,54.0,55.0,55.0,55.0,56.0,57.0,56.0,55.0,54.0,54.0,55.0,53.0,54.0,52.0,52.0,54.0,54.0,55.0,55.0,56.0,56.0,56.0,57.0,59.0,61.0,61.0,65.0,66.0,69.0,70.0,70.0,78.0,78.0,84.0,95.0,110.0,123.0,133.0,158.0,173.0,172.0,173.0,171.0,234.0,243.0,238.0,240.0,243.0,222.0,202.0,200.0,193.0,188.0,187.0,189.0,198.0,218.0,204.0,198.0,196.0,202.0,217.0,202.0,193.0,181.0,185.0,176.0,182.0,173.0,159.0,152.0,146.0,145.0,140.0,137.0,129.0,123.0,116.0,115.0,127.0,126.0,121.0,117.0,110.0,102.0,102.0,98.0,95.0,92.0,89.0,85.0,88.0,97.0,93.0,88.0,86.0,86.0,83.0,83.0,81.0,80.0,76.0,77.0,74.0,73.0,77.0,76.0,71.0,71.0,77.0,74.0,70.0,68.0,68.0,66.0,68.0,65.0,67.0,68.0,67.0,73.0,72.0,73.0,73.0,75.0,72.0,74.0,79.0,78.0,79.0,80.0,81.0,80.0,80.0,85.0,88.0,87.0,85.0,87.0,86.0,87.0,86.0,87.0,88.0,89.0,89.0,88.0,87.0,87.0,85.0,83.0,83.0,83.0,82.0,80.0,82.0,81.0,80.0,77.0,77.0,79.0,78.0,77.0,78.0,79.0,83.0,81.0,80.0,80.0,80.0,80.0,81.0,84.0,80.0,78.0,78.0,80.0,80.0,81.0,81.0,84.0,82.0,81.0,79.0,80.0,79.0,78.0,76.0,76.0,74.0,73.0,72.0,72.0,72.0,69.0,69.0,68.0,67.0,66.0,65.0,71.0,75.0,76.0,78.0,84.0,89.0,94.0,101.0,109.0,115.0,120.0,124.0,126.0,128.0,130.0,132.0,137.0,136.0,136.0,139.0,141.0,141.0,142.0,144.0,147.0,151.0,151.0,149.0,151.0,153.0,154.0,154.0,153.0,152.0,152.0,152.0,150.0,150.0,148.0,147.0,145.0,143.0,142.0,140.0,138.0,134.0,133.0,131.0,129.0,127.0,125.0,125.0,122.0,119.0,119.0,117.0,116.0,113.0,115.0,114.0,111.0,112.0,111.0,108.0,107.0,108.0,104.0,103.0,101.0,99.0,97.0,95.0,93.0,90.0,88.0,85.0,83.0,81.0,80.0,80.0,78.0,78.0,75.0,74.0,74.0,74.0,74.0,72.0,71.0,73.0,73.0,74.0,73.0,74.0,74.0,75.0,75.0,75.0,76.0,76.0,77.0,77.0,78.0,78.0,77.0,77.0,77.0,79.0,79.0,79.0,78.0,78.0,78.0,77.0,79.0,76.0,76.0,74.0,75.0,75.0,73.0,73.0,71.0,70.0,70.0,68.0,67.0,67.0,67.0,68.0,67.0,68.0,67.0,68.0,69.0,71.0,71.0,70.0,70.0,70.0,71.0,72.0,72.0,70.0,70.0,70.0,71.0,71.0,69.0,72.0,70.0,69.0,70.0,68.0,69.0,68.0,69.0,68.0,68.0,68.0,66.0,65.0,64.0,64.0,64.0,62.0,60.0,59.0,58.0,57.0,58.0,56.0,55.0,55.0,56.0,57.0,56.0,58.0,58.0,58.0,58.0,59.0,59.0,60.0,60.0,60.0,60.0,61.0,59.0,62.0,61.0,62.0,64.0,64.0,64.0,65.0,65.0,66.0,67.0,67.0,66.0,65.0,65.0,65.0,64.0,64.0,63.0,63.0,64.0,64.0,64.0,64.0,64.0,63.0,62.0,60.0,58.0,57.0,57.0,57.0,58.0,58.0,57.0,57.0,56.0,55.0,55.0,55.0,54.0,54.0,54.0,53.0,53.0,53.0,54.0,53.0,53.0,51.0,51.0,52.0,51.0,53.0,50.0,52.0,51.0,52.0,51.0,51.0,52.0,50.0,48.0,48.0,47.0,46.0,45.0,47.0,45.0,46.0,46.0,45.0,46.0,46.0,48.0,48.0,48.0,49.0,49.0,51.0,51.0,53.0,52.0,52.0,51.0,51.0,51.0,50.0,50.0,48.0,50.0,50.0,50.0,49.0,48.0,50.0,49.0,50.0,50.0,49.0,50.0,49.0,48.0,47.0,47.0,48.0,47.0,47.0,47.0,48.0,48.0,48.0,50.0,51.0,51.0,50.0,51.0,50.0,51.0,52.0,52.0,53.0,53.0,53.0,50.0,50.0,51.0,49.0,49.0,49.0,50.0,48.0,49.0,49.0,48.0,46.0,45.0,45.0,44.0,44.0,45.0,45.0,45.0,45.0,48.0,49.0,48.0,49.0,50.0,50.0,52.0,53.0,51.0,51.0,50.0,50.0,50.0,50.0,49.0,48.0,49.0,48.0,48.0,48.0,48.0,49.0,48.0,49.0,49.0,49.0,49.0,49.0,51.0,50.0,49.0,49.0,50.0,49.0,51.0,53.0,54.0,56.0,58.0,58.0,59.0,59.0,61.0,60.0,62.0,61.0,60.0,62.0,61.0,61.0,59.0,59.0,58.0,57.0,57.0,55.0,57.0,55.0,55.0,55.0,55.0,55.0,55.0,57.0,55.0,57.0,57.0,58.0,57.0,57.0,58.0,56.0,55.0,55.0,55.0,54.0,53.0,53.0,52.0,52.0,52.0,51.0,51.0,49.0,49.0,48.0,47.0,47.0,46.0,46.0,45.0,46.0,44.0,44.0,44.0,42.0,44.0,44.0,45.0,44.0,44.0,45.0,47.0,47.0,47.0,50.0,50.0,51.0,50.0,51.0,53.0,52.0,53.0,52.0,52.0,54.0,55.0,56.0,55.0,56.0,53.0,55.0,55.0,56.0,57.0,57.0,58.0,55.0,56.0,57.0,57.0,58.0,57.0,57.0,56.0,56.0,58.0,58.0,57.0,57.0,60.0,58.0,60.0,59.0,59.0,58.0,59.0,59.0,58.0,60.0,61.0,59.0,60.0,59.0,58.0,57.0,55.0,54.0,53.0,54.0,53.0,54.0,51.0,52.0,51.0,51.0,52.0,51.0,52.0,50.0,49.0,48.0,48.0,47.0,48.0,48.0,46.0,46.0,46.0,47.0,48.0,47.0,47.0,46.0,46.0,45.0,45.0,46.0,46.0,47.0,47.0,48.0,48.0,51.0,52.0,52.0,54.0,52.0,51.0,50.0,50.0,51.0,51.0,53.0,52.0,53.0,53.0,53.0,53.0,53.0,54.0,53.0,54.0,53.0,52.0,52.0,51.0,51.0,50.0,50.0,51.0,51.0,53.0,53.0,54.0,53.0,54.0,54.0,54.0,54.0,53.0,52.0,52.0,51.0,50.0,50.0,50.0,49.0,49.0,48.0,48.0,47.0,48.0,47.0,47.0,49.0,48.0,48.0,49.0,49.0,50.0,51.0,53.0,54.0,54.0,54.0,54.0,53.0,53.0,52.0,52.0,50.0,49.0,48.0,47.0,47.0,47.0,46.0,46.0,47.0,47.0,47.0,45.0,46.0,46.0,47.0,48.0,49.0,50.0,50.0,51.0,50.0,51.0,52.0,51.0,51.0,52.0,52.0,53.0,52.0,53.0,51.0,51.0,49.0,48.0,48.0,46.0,46.0,46.0,47.0,47.0,47.0,48.0,47.0,47.0,46.0,47.0,46.0,46.0,46.0,46.0,46.0,46.0,46.0,46.0,46.0,46.0,47.0,48.0,49.0,50.0,51.0,51.0,51.0,52.0,53.0,53.0,54.0,54.0,56.0,57.0,58.0,59.0,60.0,61.0,61.0,63.0,61.0,60.0,59.0,59.0,58.0,57.0,58.0,58.0,56.0,55.0,55.0,55.0,55.0,55.0,56.0,55.0,56.0,54.0,56.0,57.0,57.0,58.0,58.0,56.0,57.0,55.0,56.0,54.0,53.0,53.0,54.0,53.0,54.0,53.0,53.0,53.0,52.0,52.0,50.0,49.0,49.0,49.0,49.0,48.0,49.0,48.0,48.0,48.0,47.0,50.0,50.0,51.0,51.0,51.0,51.0,50.0,51.0,50.0,50.0,52.0,53.0,54.0,55.0,55.0,55.0,55.0,56.0,57.0,57.0,57.0,58.0,56.0,59.0,59.0,59.0,59.0,60.0,60.0,61.0
50.0,51.0,54.0,56.0,58.0,59.0,61.0,62.0,61.0,62.0,61.0,61.0,60.0,58.0,57.0,56.0,56.0,54.0,54.0,52.0,52.0,50.0,49.0,50.0,48.0,47.0,47.0,46.0,46.0,47.0,48.0,47.0,48.0,48.0,48.0,50.0,49.0,50.0,51.0,52.0,52.0,52.0,51.0,49.0,49.0,49.0,49.0,50.0,50.0,51.0,51.0,51.0,52.0,51.0,52.0,51.0,51.0,49.0,48.0,47.0,48.0,47.0,46.0,47.0,47.0,48.0,48.0,48.0,48.0,48.0,49.0,48.0,48.0,48.0,49.0,49.0,50.0,52.0,53.0,54.0,54.0,57.0,58.0,57.0,64.0,63.0,75.0,82.0,80.0,87.0,95.0,100.0,96.0,108.0,108.0,153.0,216.0,239.0,289.0,304.0,290.0,289.0,304.0,343.0,380.0,422.0,482.0,552.0,580.0,599.0,642.0,669.0,669.0,668.0,668.0,668.0,668.0,670.0,668.0,668.0,668.0,668.0,668.0,668.0,668.0,669.0,668.0,668.0,668.0,667.0,668.0,668.0,668.0,667.0,667.0,656.0,649.0,639.0,636.0,623.0,616.0,606.0,599.0,598.0,593.0,590.0,587.0,581.0,580.0,576.0,571.0,567.0,559.0,551.0,545.0,536.0,528.0,517.0,507.0,498.0,488.0,476.0,466.0,452.0,442.0,430.0,419.0,404.0,392.0,379.0,362.0,349.0,336.0,321.0,307.0,294.0,275.0,261.0,244.0,230.0,211.0,194.0,179.0,160.0,147.0,134.0,121.0,111.0,102.0,94.0,90.0,83.0,80.0,77.0,75.0,74.0,74.0,72.0,70.0,71.0,71.0,72.0,71.0,70.0,71.0,71.0,72.0,74.0,73.0,72.0,75.0,76.0,77.0,78.0,75.0,77.0,76.0,77.0,76.0,77.0,79.0,76.0,77.0,74.0,75.0,75.0,72.0,72.0,75.0,75.0,74.0,75.0,75.0,75.0,74.0,74.0,77.0,77.0,80.0,82.0,83.0,84.0,85.0,87.0,87.0,87.0,87.0,87.0,87.0,85.0,81.0,82.0,75.0,83.0,87.0,94.0,102.0,114.0,122.0,132.0,142.0,155.0,173.0,196.0,219.0,242.0,265.0,286.0,307.0,323.0,337.0,349.0,359.0,365.0,370.0,370.0,373.0,375.0,373.0,367.0,363.0,359.0,352.0,343.0,335.0,329.0,323.0,319.0,314.0,309.0,309.0,307.0,307.0,306.0,304.0,304.0,305.0,304.0,305.0,304.0,304.0,302.0,301.0,300.0,297.0,294.0,292.0,289.0,287.0,283.0,281.0,281.0,278.0,278.0,278.0,275.0,273.0,272.0,268.0,265.0,263.0,260.0,257.0,255.0,252.0,251.0,249.0,247.0,245.0,240.0,241.0,240.0,237.0,236.0,232.0,229.0,226.0,224.0,221.0,218.0,215.0,212.0,209.0,205.0,201.0,198.0,196.0,194.0,192.0,189.0,183.0,183.0,181.0,180.0,179.0,177.0,175.0,172.0,171.0,168.0,166.0,164.0,162.0,161.0,157.0,154.0,153.0,149.0,149.0,145.0,145.0,143.0,140.0,139.0,137.0,134.0,132.0,131.0,128.0,127.0,124.0,123.0,121.0,119.0,115.0,111.0,112.0,109.0,108.0,105.0,104.0,104.0,100.0,101.0,100.0,99.0,100.0,98.0,99.0,98.0,96.0,96.0,94.0,93.0,92.0,91.0,90.0,88.0,85.0,81.0,79.0,76.0,74.0,73.0,71.0,70.0,68.0,68.0,65.0,66.0,62.0,62.0,60.0,59.0,58.0,57.0,56.0,55.0,55.0,55.0,55.0,54.0,53.0,55.0,54.0,52.0,51.0,50.0,49.0,47.0,45.0,44.0,44.0,43.0,42.0,42.0,42.0,43.0,44.0,45.0,45.0,46.0,45.0,43.0,45.0,44.0,43.0,44.0,42.0,43.0,41.0,42.0,42.0,43.0,44.0,43.0,44.0,41.0,41.0,38.0,38.0,37.0,37.0,36.0,36.0,36.0,34.0,34.0,34.0,33.0,33.0,33.0,33.0,33.0,33.0,33.0,34.0,35.0,35.0,36.0,35.0,36.0,36.0,35.0,35.0,35.0,36.0,36.0,36.0,36.0,37.0,36.0,36.0,37.0,36.0,36.0,35.0,35.0,35.0,35.0,36.0,34.0,34.0,34.0,35.0,36.0,36.0,37.0,36.0,37.0,38.0,38.0,39.0,39.0,41.0,40.0,40.0,39.0,38.0,38.0,37.0,40.0,40.0,41.0,43.0,45.0,46.0,47.0,49.0,48.0,50.0,50.0,50.0,49.0,49.0,51.0,48.0,49.0,46.0,46.0,47.0,45.0,47.0,46.0,45.0,44.0,43.0,42.0,43.0,43.0,43.0,42.0,43.0,43.0,42.0,41.0,42.0,40.0,39.0,39.0,38.0,38.0,37.0,39.0,38.0,38.0,39.0,38.0,39.0,40.0,41.0,40.0,39.0,39.0,40.0,40.0,41.0,43.0,44.0,44.0,46.0,45.0,43.0,43.0,43.0,44.0,43.0,45.0,44.0,44.0,44.0,43.0,42.0,39.0,40.0,39.0,39.0,37.0,39.0,38.0,38.0,37.0,37.0,36.0,36.0,37.0,36.0,38.0,38.0,38.0,38.0,39.0,39.0,37.0,36.0,36.0,35.0,36.0,36.0,37.0,37.0,37.0,38.0,39.0,42.0,42.0,43.0,44.0,44.0,46.0,45.0,45.0,45.0,46.0,48.0,48.0,48.0,50.0,51.0,53.0,55.0,56.0,56.0,57.0,58.0,59.0,59.0,59.0,57.0,56.0,56.0,55.0,54.0,53.0,52.0,52.0,50.0,51.0,50.0,48.0,47.0,46.0,47.0,46.0,46.0,45.0,44.0,45.0,47.0,48.0,48.0,50.0,50.0,50.0,49.0,50.0,49.0,47.0,48.0,46.0,46.0,45.0,47.0,47.0,47.0,48.0,48.0,49.0,49.0,49.0,49.0,48.0,49.0,48.0,47.0,48.0,48.0,49.0,48.0,50.0,53.0,56.0,57.0,58.0,62.0,60.0,61.0,62.0,63.0,62.0,61.0,60.0,60.0,60.0,60.0,61.0,60.0,61.0,60.0,60.0,60.0,59.0,60.0,58.0,59.0,60.0,60.0,60.0,58.0,59.0,60.0,58.0,58.0,55.0,55.0,54.0,55.0,56.0,55.0,56.0,55.0,57.0,57.0,59.0,59.0,59.0,60.0,60.0,63.0,66.0,68.0,69.0,69.0,70.0,69.0,70.0,70.0,70.0,71.0,69.0,69.0,68.0,67.0,65.0,65.0,64.0,65.0,65.0,63.0,63.0,63.0,63.0,63.0,64.0,64.0,61.0,61.0,59.0,59.0,59.0,59.0,58.0,58.0,57.0,58.0,58.0,57.0,57.0,57.0,55.0,54.0,56.0,54.0,54.0,54.0,53.0,52.0,50.0,50.0,47.0,46.0,45.0,44.0,42.0,41.0,40.0,40.0,40.0,41.0,41.0,40.0,41.0,43.0,43.0,43.0,44.0,47.0,46.0,48.0,49.0,50.0,50.0,50.0,52.0,51.0,53.0,52.0,52.0,52.0,52.0,52.0,52.0,53.0,52.0,51.0,51.0,50.0,49.0,48.0,48.0,48.0,47.0,46.0,46.0,47.0,46.0,47.0,46.0,47.0,48.0,49.0,49.0,48.0,49.0,50.0,50.0,50.0,49.0,50.0,50.0,50.0,50.0,51.0,51.0,51.0,52.0,52.0,51.0,51.0,49.0,49.0,49.0,48.0,47.0,48.0,47.0,49.0,50.0,49.0,51.0,52.0,53.0,54.0,53.0,53.0,53.0,55.0,52.0,55.0,54.0,54.0,53.0,52.0,53.0,53.0,55.0,56.0,57.0,57.0,57.0,57.0,57.0,57.0,57.0,57.0,57.0,57.0,57.0,56.0,55.0,54.0,52.0,52.0,49.0,51.0,49.0,50.0,51.0,50.0,52.0,52.0,51.0,51.0,53.0,54.0,55.0,55.0,56.0,56.0,55.0,54.0,53.0,52.0,51.0,49.0,49.0,46.0,45.0,43.0,42.0,41.0,43.0,43.0,42.0,42.0,42.0,41.0,41.0,41.0,43.0,42.0,42.0,42.0,44.0,44.0,43.0,45.0,44.0,47.0,47.0,48.0,50.0,51.0,54.0,53.0,53.0,56.0,55.0,55.0,53.0,54.0,56.0,58.0,59.0,59.0,59.0,60.0,62.0,62.0,61.0,62.0,62.0,63.0,62.0,63.0,62.0,61.0,61.0,61.0,61.0
7.0,7.0,6.0,7.0,5.0,5.0,6.0,6.0,6.0,6.0,6.0,4.0,5.0,5.0,5.0,6.0,4.0,5.0,5.0,5.0,5.0,5.0,5.0,4.0,6.0,6.0,6.0,5.0,5.0,6.0,4.0,8.0,9.0,8.0,8.0,7.0,7.0,6.0,6.0,6.0,6.0,6.0,5.0,6.0,4.0,6.0,5.0,4.0,4.0,5.0,5.0,4.0,4.0,4.0,9.0,12.0,11.0,11.0,8.0,8.0,10.0,10.0,9.0,8.0,8.0,7.0,7.0,6.0,7.0,6.0,5.0,6.0,5.0,6.0,6.0,5.0,5.0,5.0,8.0,7.0,7.0,7.0,6.0,5.0,5.0,6.0,6.0,6.0,7.0,6.0,8.0,9.0,9.0,12.0,16.0,31.0,37.0,40.0,40.0,44.0,52.0,51.0,45.0,42.0,37.0,33.0,33.0,46.0,51.0,45.0,49.0,44.0,45.0,47.0,44.0,38.0,37.0,37.0,35.0,37.0,34.0,31.0,29.0,35.0,40.0,40.0,34.0,33.0,33.0,35.0,36.0,35.0,34.0,29.0,32.0,30.0,30.0,28.0,29.0,27.0,29.0,29.0,24.0,27.0,25.0,22.0,19.0,17.0,20.0,18.0,16.0,15.0,14.0,14.0,14.0,13.0,14.0,13.0,14.0,12.0,12.0,13.0,12.0,10.0,15.0,14.0,13.0,12.0,15.0,17.0,14.0,18.0,18.0,16.0,15.0,13.0,15.0,13.0,12.0,16.0,15.0,21.0,19.0,17.0,14.0,14.0,15.0,13.0,12.0,17.0,15.0,16.0,14.0,14.0,13.0,12.0,11.0,10.0,10.0,10.0,10.0,11.0,11.0,11.0,12.0,10.0,10.0,10.0,13.0,12.0,11.0,11.0,11.0,10.0,13.0,13.0,13.0,13.0,12.0,14.0,11.0,12.0,11.0,14.0,14.0,12.0,12.0,12.0,10.0,9.0,10.0,9.0,9.0,8.0,7.0,7.0,7.0,8.0,8.0,8.0,7.0,6.0,6.0,6.0,5.0,5.0,5.0,5.0,5.0,7.0,8.0,31.0,73.0,83.0,86.0,86.0,84.0,80.0,75.0,78.0,72.0,67.0,66.0,58.0,50.0,43.0,39.0,34.0,29.0,26.0,24.0,22.0,21.0,19.0,17.0,22.0,21.0,21.0,25.0,33.0,43.0,39.0,39.0,38.0,33.0,29.0,28.0,25.0,23.0,20.0,17.0,16.0,15.0,14.0,13.0,12.0,13.0,12.0,11.0,11.0,10.0,10.0,9.0,9.0,7.0,7.0,7.0,6.0,6.0,5.0,6.0,8.0,7.0,6.0,6.0,6.0,5.0,6.0,4.0,6.0,6.0,5.0,6.0,5.0,6.0,4.0,7.0,6.0,7.0,6.0,7.0,7.0,4.0,6.0,5.0,6.0,6.0,5.0,6.0,5.0,5.0,5.0,6.0,5.0,4.0,6.0,5.0,5.0,5.0,3.0,4.0,4.0,5.0,4.0,4.0,4.0,4.0,4.0,4.0,5.0,8.0,7.0,6.0,7.0,6.0,5.0,7.0,6.0,5.0,5.0,3.0,6.0,5.0,6.0,5.0,4.0,5.0,4.0,4.0,4.0,4.0,4.0,4.0,4.0,3.0,4.0,3.0,7.0,5.0,5.0,5.0,5.0,5.0,4.0,5.0,6.0,6.0,7.0,6.0,6.0,5.0,7.0,6.0,4.0,5.0,5.0,5.0,5.0,5.0,4.0,4.0,4.0,3.0,5.0,5.0,5.0,4.0,4.0,4.0,3.0,4.0,4.0,5.0,4.0,4.0,4.0,3.0,4.0,4.0,5.0,4.0,4.0,6.0,6.0,6.0,5.0,8.0,6.0,6.0,5.0,6.0,5.0,5.0,6.0,4.0,5.0,5.0,5.0,6.0,5.0,6.0,4.0,4.0,5.0,3.0,4.0,3.0,5.0,3.0,4.0,4.0,3.0,3.0,3.0,5.0,4.0,3.0,4.0,3.0,3.0,3.0,4.0,4.0,3.0,4.0,4.0,3.0,3.0,5.0,3.0,3.0,4.0,3.0,4.0,3.0,4.0,6.0,6.0,5.0,10.0,9.0,8.0,8.0,7.0,11.0,11.0,10.0,9.0,8.0,8.0,8.0,6.0,6.0,6.0,5.0,5.0,5.0,5.0,4.0,5.0,4.0,4.0,4.0,7.0,8.0,6.0,7.0,6.0,5.0,5.0,5.0,5.0,4.0,6.0,6.0,5.0,5.0,5.0,8.0,6.0,6.0,6.0,6.0,5.0,5.0,6.0,4.0,4.0,3.0,5.0,4.0,5.0,5.0,4.0,4.0,4.0,4.0,4.0,4.0,4.0,4.0,4.0,5.0,5.0,4.0,4.0,5.0,4.0,4.0,4.0,4.0,4.0,5.0,5.0,4.0,4.0,4.0,4.0,4.0,4.0,5.0,4.0,5.0,5.0,5.0,5.0,5.0,4.0,4.0,5.0,4.0,4.0,4.0,4.0,5.0,4.0,4.0,4.0,4.0,4.0,4.0,4.0,2.0,4.0,4.0,4.0,4.0,5.0,5.0,4.0,4.0,4.0,4.0,4.0,5.0,6.0,4.0,4.0,4.0,3.0,4.0,3.0,5.0,2.0,6.0,7.0,7.0,18.0,17.0,16.0,14.0,14.0,11.0,10.0,10.0,8.0,8.0,6.0,9.0,7.0,8.0,7.0,6.0,8.0,6.0,6.0,6.0,5.0,5.0,5.0,5.0,4.0,5.0,5.0,5.0,5.0,5.0,5.0,4.0,6.0,6.0,5.0,5.0,4.0,6.0,4.0,4.0,5.0,4.0,4.0,4.0,5.0,6.0,5.0,5.0,4.0,4.0,4.0,6.0,4.0,5.0,5.0,4.0,5.0,4.0,5.0,4.0,4.0,4.0,4.0,4.0,4.0,5.0,4.0,4.0,4.0,4.0,4.0,5.0,5.0,4.0,4.0,4.0,4.0,5.0,5.0,5.0,4.0,4.0,4.0,4.0,6.0,5.0,7.0,5.0,5.0,6.0,6.0,6.0,5.0,6.0,6.0,6.0,6.0,6.0,5.0,5.0,6.0,4.0,5.0,6.0,6.0,6.0,5.0,7.0,5.0,5.0,5.0,5.0,5.0,4.0,5.0,4.0,4.0,4.0,3.0,4.0,4.0,5.0,6.0,5.0,5.0,3.0,4.0,4.0,5.0,3.0,6.0,6.0,6.0,5.0,5.0,6.0,4.0,5.0,4.0,5.0,5.0,5.0,6.0,4.0,5.0,5.0,5.0,4.0,4.0,5.0,4.0,5.0,4.0,3.0,4.0,7.0,6.0,6.0,5.0,6.0,5.0,5.0,5.0,6.0,5.0,4.0,5.0,4.0,5.0,5.0,5.0,4.0,5.0,4.0,3.0,4.0,4.0,4.0,3.0,4.0,3.0,3.0,4.0,4.0,5.0,4.0,4.0,4.0,3.0,4.0,4.0,5.0,4.0,4.0,7.0,6.0,6.0,5.0,5.0,5.0,4.0,4.0,5.0,5.0,5.0,5.0,5.0,4.0,5.0,5.0,4.0,4.0,5.0,4.0,4.0,4.0,3.0,5.0,4.0,3.0,4.0,3.0,3.0,2.0,4.0,4.0,4.0,4.0,3.0,4.0,3.0,4.0,3.0,5.0,3.0,4.0,4.0,5.0,5.0,5.0,4.0,4.0,5.0,5.0,5.0,5.0,4.0,6.0,4.0,5.0,5.0,5.0,5.0,5.0,5.0,4.0,4.0,4.0,3.0,4.0,4.0,4.0,4.0,4.0,4.0,3.0,4.0,4.0,4.0,4.0,4.0,4.0,3.0,4.0,3.0,5.0,5.0,4.0,5.0,3.0,4.0,4.0,5.0,5.0,5.0,5.0,5.0,5.0,4.0,5.0,4.0,5.0,4.0,3.0,4.0,3.0,4.0,4.0,4.0,3.0,4.0,5.0,4.0,5.0,4.0,4.0,3.0,3.0,4.0,4.0,5.0,4.0,4.0,4.0,4.0,4.0,4.0,5.0,4.0,5.0,4.0,4.0,4.0,4.0,5.0,4.0,3.0,4.0,3.0,4.0,4.0,3.0,3.0,3.0,5.0,5.0,5.0,5.0,4.0,6.0,5.0,5.0,4.0,5.0,4.0,5.0,4.0,4.0,4.0,4.0,4.0,3.0,5.0,5.0,4.0,4.0,3.0,5.0,4.0,6.0,8.0,7.0,6.0,6.0,6.0,5.0,8.0,7.0,7.0,6.0,6.0,6.0,5.0,5.0,6.0,6.0,6.0,4.0,5.0,5.0,5.0,4.0,6.0
67.0,66.0,68.0,67.0,68.0,66.0,65.0,64.0,67.0,69.0,70.0,66.0,66.0,68.0,73.0,69.0,73.0,70.0,67.0,66.0,69.0,80.0,77.0,73.0,67.0,69.0,66.0,67.0,67.0,63.0,65.0,66.0,67.0,68.0,63.0,63.0,65.0,64.0,63.0,66.0,60.0,60.0,62.0,65.0,70.0,70.0,72.0,71.0,71.0,71.0,73.0,71.0,69.0,68.0,78.0,74.0,78.0,87.0,81.0,80.0,78.0,75.0,87.0,90.0,87.0,81.0,83.0,78.0,76.0,73.0,75.0,71.0,68.0,64.0,61.0,67.0,72.0,75.0,75.0,72.0,76.0,74.0,73.0,68.0,67.0,65.0,74.0,79.0,83.0,82.0,93.0,90.0,94.0,118.0,128.0,189.0,296.0,349.0,381.0,360.0,350.0,329.0,309.0,282.0,266.0,286.0,283.0,251.0,231.0,224.0,245.0,242.0,276.0,270.0,298.0,279.0,281.0,288.0,268.0,258.0,231.0,220.0,272.0,255.0,240.0,228.0,209.0,195.0,192.0,173.0,161.0,154.0,157.0,146.0,152.0,146.0,168.0,178.0,170.0,166.0,172.0,165.0,159.0,160.0,148.0,162.0,157.0,149.0,171.0,181.0,183.0,185.0,174.0,182.0,187.0,170.0,171.0,165.0,183.0,171.0,168.0,170.0,166.0,160.0,157.0,193.0,192.0,201.0,242.0,262.0,232.0,231.0,243.0,236.0,232.0,243.0,248.0,242.0,244.0,233.0,230.0,220.0,239.0,241.0,223.0,229.0,218.0,201.0,193.0,223.0,217.0,207.0,208.0,212.0,208.0,196.0,190.0,183.0,183.0,183.0,181.0,201.0,194.0,200.0,194.0,180.0,183.0,177.0,164.0,160.0,178.0,174.0,162.0,150.0,159.0,176.0,166.0,178.0,193.0,201.0,187.0,179.0,177.0,169.0,179.0,178.0,172.0,181.0,173.0,169.0,158.0,148.0,152.0,154.0,162.0,158.0,160.0,180.0,175.0,193.0,198.0,186.0,174.0,159.0,157.0,162.0,149.0,135.0,123.0,115.0,113.0,116.0,123.0,142.0,143.0,162.0,160.0,159.0,155.0,150.0,137.0,133.0,127.0,117.0,131.0,138.0,142.0,143.0,146.0,174.0,198.0,208.0,204.0,189.0,174.0,179.0,178.0,188.0,193.0,193.0,195.0,185.0,181.0,172.0,194.0,185.0,176.0,160.0,151.0,137.0,132.0,130.0,122.0,109.0,105.0,115.0,125.0,129.0,121.0,115.0,130.0,130.0,129.0,123.0,112.0,110.0,103.0,122.0,123.0,120.0,116.0,157.0,154.0,155.0,160.0,158.0,154.0,144.0,147.0,141.0,152.0,154.0,150.0,142.0,142.0,144.0,144.0,151.0,148.0,138.0,137.0,138.0,124.0,121.0,120.0,123.0,147.0,142.0,142.0,138.0,129.0,141.0,148.0,136.0,126.0,131.0,124.0,146.0,151.0,140.0,131.0,134.0,128.0,115.0,114.0,108.0,101.0,105.0,105.0,105.0,116.0,116.0,106.0,108.0,103.0,97.0,111.0,102.0,104.0,95.0,95.0,94.0,95.0,91.0,95.0,92.0,105.0,118.0,114.0,106.0,114.0,112.0,107.0,110.0,108.0,98.0,93.0,91.0,100.0,112.0,121.0,112.0,119.0,119.0,112.0,106.0,114.0,111.0,112.0,113.0,108.0,102.0,107.0,97.0,94.0,111.0,102.0,96.0,103.0,100.0,97.0,111.0,115.0,106.0,103.0,106.0,113.0,102.0,116.0,111.0,104.0,96.0,98.0,103.0,117.0,109.0,104.0,102.0,96.0,97.0,99.0,106.0,100.0,92.0,83.0,80.0,97.0,101.0,95.0,86.0,97.0,97.0,109.0,105.0,99.0,103.0,100.0,98.0,96.0,92.0,87.0,88.0,81.0,84.0,91.0,90.0,85.0,81.0,82.0,97.0,101.0,102.0,101.0,100.0,121.0,114.0,105.0,100.0,96.0,94.0,92.0,93.0,89.0,96.0,97.0,92.0,96.0,90.0,87.0,82.0,94.0,87.0,83.0,123.0,117.0,109.0,103.0,96.0,92.0,117.0,120.0,113.0,111.0,112.0,107.0,103.0,104.0,99.0,97.0,102.0,95.0,90.0,91.0,96.0,89.0,87.0,87.0,81.0,81.0,79.0,86.0,87.0,82.0,92.0,110.0,109.0,105.0,100.0,92.0,90.0,93.0,90.0,86.0,88.0,94.0,88.0,84.0,84.0,110.0,108.0,107.0,105.0,95.0,95.0,107.0,100.0,91.0,89.0,91.0,97.0,99.0,91.0,83.0,88.0,85.0,86.0,90.0,85.0,86.0,82.0,101.0,100.0,96.0,88.0,85.0,94.0,97.0,98.0,89.0,90.0,87.0,84.0,84.0,100.0,97.0,92.0,95.0,92.0,90.0,85.0,83.0,90.0,89.0,87.0,83.0,79.0,71.0,76.0,85.0,83.0,79.0,75.0,71.0,66.0,66.0,86.0,89.0,87.0,78.0,77.0,87.0,92.0,88.0,87.0,87.0,84.0,94.0,91.0,84.0,93.0,93.0,86.0,101.0,102.0,105.0,106.0,104.0,96.0,89.0,79.0,77.0,74.0,67.0,62.0,60.0,56.0,55.0,58.0,54.0,55.0,57.0,58.0,55.0,55.0,55.0,54.0,51.0,50.0,52.0,50.0,48.0,50.0,51.0,49.0,47.0,45.0,45.0,44.0,44.0,48.0,48.0,49.0,46.0,45.0,43.0,43.0,42.0,43.0,44.0,45.0,47.0,44.0,43.0,43.0,42.0,41.0,45.0,43.0,41.0,39.0,39.0,40.0,42.0,40.0,40.0,39.0,39.0,41.0,40.0,39.0,39.0,38.0,40.0,38.0,38.0,35.0,35.0,35.0,34.0,33.0,34.0,32.0,31.0,32.0,32.0,36.0,37.0,38.0,38.0,37.0,37.0,37.0,38.0,40.0,39.0,40.0,38.0,39.0,37.0,42.0,43.0,42.0,41.0,42.0,41.0,44.0,46.0,49.0,46.0,44.0,43.0,44.0,42.0,43.0,45.0,45.0,43.0,42.0,41.0,47.0,46.0,43.0,42.0,40.0,38.0,41.0,38.0,38.0,38.0,37.0,37.0,35.0,38.0,36.0,35.0,36.0,39.0,38.0,38.0,38.0,36.0,35.0,36.0,36.0,38.0,37.0,37.0,40.0,41.0,44.0,46.0,43.0,43.0,42.0,44.0,46.0,44.0,46.0,47.0,47.0,48.0,47.0,46.0,46.0,47.0,45.0,44.0,43.0,43.0,45.0,46.0,46.0,49.0,47.0,45.0,43.0,44.0,42.0,42.0,39.0,38.0,36.0,36.0,35.0,36.0,38.0,39.0,37.0,36.0,36.0,35.0,34.0,34.0,35.0,34.0,38.0,37.0,37.0,36.0,36.0,37.0,37.0,37.0,39.0,40.0,38.0,37.0,36.0,34.0,36.0,35.0,38.0,37.0,36.0,36.0,36.0,37.0,36.0,39.0,38.0,36.0,36.0,36.0,35.0,34.0,33.0,32.0,36.0,34.0,34.0,33.0,33.0,34.0,33.0,33.0,32.0,34.0,33.0,33.0,33.0,34.0,34.0,38.0,37.0,37.0,35.0,37.0,34.0,34.0,34.0,35.0,39.0,40.0,40.0,38.0,39.0,39.0,40.0,40.0,39.0,39.0,37.0,36.0,37.0,37.0,37.0,38.0,39.0,39.0,36.0,38.0,38.0,37.0,37.0,37.0,37.0,34.0,34.0,36.0,35.0,35.0,35.0,36.0,36.0,34.0,35.0,35.0,35.0,36.0,36.0,34.0,36.0,35.0,35.0,33.0,34.0,35.0,34.0,32.0,34.0,35.0,33.0,33.0,32.0,31.0,31.0,31.0,32.0,32.0,35.0,35.0,34.0,35.0,35.0,37.0,36.0,37.0,37.0,37.0,38.0,36.0,35.0,33.0,33.0,33.0,35.0,37.0,35.0,35.0,37.0,34.0,37.0,36.0,34.0,34.0,34.0,33.0,32.0,31.0,32.0,34.0,33.0,33.0,32.0,32.0,34.0,35.0,37.0,38.0,37.0,37.0,35.0,37.0,36.0,35.0,34.0,35.0,34.0,36.0,36.0,34.0,33.0,35.0,34.0,36.0,37.0,36.0,35.0,35.0,34.0,35.0,34.0,33.0,37.0,36.0,36.0,34.0,33.0,32.0,32.0,33.0,34.0,33.0,34.0,33.0,32.0,33.0,34.0,34.0,34.0,32.0,33.0,33.0,33.0,36.0,36.0,38.0,37.0,39.0,39.0
