51.0,52.0,53.0,52.0,52.0,51.0,50.0,51.0,51.0,54.0,53.0,55.0,56.0,55.0,56.0,55.0,55.0,54.0,54.0,54.0,51.0,51.0,49.0,49.0,49.0,47.0,47.0,46.0,47.0,47.0,49.0,47.0,48.0,48.0,47.0,47.0,48.0,51.0,50.0,50.0,52.0,53.0,54.0,56.0,57.0,57.0,57.0,57.0,59.0,58.0,57.0,58.0,58.0,57.0,57.0,57.0,57.0,57.0,59.0,58.0,58.0,59.0,59.0,60.0,60.0,62.0,61.0,60.0,58.0,59.0,57.0,56.0,57.0,54.0,55.0,53.0,53.0,55.0,53.0,57.0,58.0,57.0,58.0,58.0,60.0,58.0,58.0,63.0,65.0,77.0,94.0,166.0,198.0,234.0,346.0,331.0,319.0,287.0,267.0,254.0,241.0,225.0,235.0,238.0,228.0,217.0,219.0,227.0,212.0,191.0,180.0,173.0,158.0,145.0,151.0,158.0,151.0,141.0,131.0,125.0,121.0,122.0,121.0,114.0,112.0,110.0,122.0,124.0,117.0,115.0,112.0,105.0,120.0,114.0,109.0,107.0,100.0,96.0,95.0,92.0,89.0,88.0,84.0,85.0,83.0,82.0,80.0,77.0,77.0,75.0,72.0,70.0,68.0,69.0,70.0,69.0,67.0,65.0,63.0,66.0,63.0,66.0,66.0,63.0,61.0,58.0,60.0,63.0,66.0,64.0,64.0,63.0,63.0,64.0,63.0,63.0,60.0,63.0,63.0,61.0,62.0,62.0,63.0,61.0,61.0,64.0,63.0,62.0,61.0,60.0,61.0,61.0,61.0,56.0,58.0,59.0,60.0,60.0,59.0,58.0,57.0,56.0,54.0,58.0,59.0,61.0,60.0,58.0,56.0,56.0,59.0,59.0,60.0,63.0,60.0,61.0,59.0,58.0,57.0,56.0,56.0,56.0,57.0,57.0,58.0,57.0,60.0,57.0,56.0,58.0,57.0,58.0,58.0,57.0,56.0,55.0,55.0,54.0,55.0,55.0,54.0,57.0,56.0,55.0,53.0,51.0,53.0,56.0,55.0,54.0,53.0,54.0,53.0,54.0,55.0,55.0,54.0,53.0,54.0,55.0,53.0,53.0,52.0,54.0,54.0,53.0,54.0,53.0,53.0,52.0,51.0,49.0,50.0,51.0,49.0,50.0,49.0,50.0,49.0,50.0,51.0,51.0,52.0,55.0,54.0,55.0,53.0,51.0,51.0,53.0,53.0,52.0,53.0,51.0,51.0,51.0,52.0,53.0,52.0,53.0,51.0,51.0,50.0,50.0,50.0,52.0,52.0,50.0,49.0,49.0,48.0,48.0,52.0,53.0,51.0,51.0,50.0,50.0,50.0,50.0,50.0,54.0,54.0,53.0,54.0,52.0,52.0,53.0,52.0,51.0,50.0,52.0,54.0,53.0,52.0,52.0,53.0,52.0,52.0,52.0,52.0,52.0,51.0,52.0,51.0,52.0,51.0,50.0,51.0,49.0,49.0,48.0,49.0,49.0,48.0,50.0,49.0,49.0,49.0,51.0,51.0,48.0,49.0,50.0,49.0,50.0,51.0,48.0,50.0,50.0,50.0,49.0,49.0,48.0,47.0,47.0,49.0,49.0,48.0,50.0,49.0,49.0,49.0,50.0,50.0,50.0,50.0,51.0,51.0,51.0,51.0,51.0,51.0,51.0,51.0,50.0,50.0,50.0,50.0,50.0,51.0,51.0,52.0,50.0,50.0,49.0,48.0,49.0,49.0,48.0,49.0,51.0,53.0,51.0,54.0,53.0,54.0,53.0,52.0,53.0,55.0,54.0,55.0,53.0,51.0,50.0,51.0,53.0,53.0,56.0,55.0,54.0,53.0,51.0,52.0,52.0,54.0,55.0,54.0,56.0,56.0,59.0,59.0,61.0,62.0,60.0,61.0,59.0,57.0,58.0,59.0,60.0,60.0,58.0,59.0,59.0,60.0,62.0,65.0,68.0,66.0,63.0,63.0,64.0,64.0,67.0,66.0,66.0,69.0,71.0,72.0,69.0,68.0,68.0,70.0,70.0,69.0,68.0,69.0,70.0,68.0,67.0,67.0,68.0,66.0,68.0,66.0,64.0,63.0,64.0,65.0,63.0,63.0,63.0,63.0,67.0,66.0,65.0,68.0,68.0,67.0,65.0,66.0,65.0,64.0,65.0,66.0,67.0,66.0,67.0,65.0,65.0,64.0,63.0,64.0,64.0,65.0,64.0,65.0,63.0,65.0,63.0,64.0,63.0,64.0,64.0,62.0,61.0,59.0,60.0,60.0,59.0,60.0,65.0,65.0,68.0,66.0,69.0,66.0,71.0,69.0,71.0,70.0,70.0,70.0,68.0,69.0,72.0,69.0,67.0,66.0,65.0,67.0,69.0,73.0,72.0,70.0,68.0,67.0,67.0,67.0,68.0,69.0,68.0,70.0,68.0,67.0,67.0,65.0,68.0,70.0,69.0,68.0,67.0,68.0,67.0,68.0,68.0,70.0,70.0,71.0,70.0,69.0,71.0,73.0,71.0,71.0,71.0,70.0,69.0,73.0,74.0,70.0,70.0,70.0,69.0,67.0,66.0,65.0,64.0,62.0,63.0,65.0,68.0,68.0,67.0,66.0,65.0,66.0,67.0,66.0,68.0,69.0,68.0,69.0,71.0,70.0,72.0,69.0,70.0,68.0,67.0,66.0,66.0,67.0,67.0,66.0,64.0,66.0,65.0,65.0,62.0,65.0,64.0,62.0,62.0,61.0,59.0,60.0,59.0,58.0,56.0,57.0,57.0,68.0,87.0,97.0,106.0,104.0,102.0,104.0,105.0,101.0,100.0,102.0,103.0,111.0,113.0,120.0,125.0,125.0,138.0,151.0,158.0,162.0,164.0,163.0,163.0,163.0,162.0,163.0,163.0,163.0,163.0,161.0,159.0,158.0,153.0,154.0,154.0,153.0,151.0,150.0,147.0,144.0,143.0,143.0,140.0,138.0,133.0,132.0,131.0,129.0,127.0,123.0,120.0,120.0,116.0,117.0,113.0,115.0,114.0,111.0,113.0,110.0,108.0,104.0,102.0,99.0,97.0,97.0,96.0,95.0,94.0,94.0,92.0,92.0,91.0,90.0,89.0,87.0,87.0,85.0,84.0,83.0,82.0,81.0,80.0,81.0,80.0,79.0,78.0,78.0,78.0,76.0,74.0,73.0,73.0,71.0,69.0,67.0,68.0,69.0,69.0,67.0,67.0,64.0,63.0,64.0,62.0,62.0,60.0,62.0,61.0,62.0,63.0,65.0,65.0,67.0,66.0,64.0,65.0,66.0,65.0,65.0,64.0,64.0,62.0,63.0,63.0,61.0,61.0,61.0,63.0,61.0,61.0,60.0,58.0,58.0,57.0,57.0,56.0,57.0,56.0,56.0,56.0,56.0,58.0,58.0,61.0,59.0,59.0,60.0,59.0,60.0,59.0,60.0,60.0,59.0,60.0,60.0,61.0,59.0,58.0,59.0,59.0,58.0,58.0,59.0,56.0,55.0,55.0,54.0,54.0,53.0,53.0,50.0,49.0,47.0,48.0,47.0,45.0,48.0,48.0,50.0,51.0,54.0,55.0,57.0,59.0,60.0,59.0,59.0,58.0,56.0,57.0,57.0,54.0,54.0,53.0,53.0,53.0,52.0,51.0,50.0,49.0,48.0,47.0,48.0,45.0,47.0,44.0,44.0,44.0,44.0,45.0,44.0,45.0,44.0,44.0,43.0,42.0,43.0,43.0,44.0,43.0,43.0,43.0,43.0,42.0,41.0,43.0,42.0,42.0,42.0,43.0,44.0,43.0,45.0,46.0,45.0,46.0,46.0,47.0,47.0,48.0,48.0,50.0,49.0,51.0,53.0,53.0,57.0,56.0,57.0,57.0,57.0,58.0,59.0,58.0,59.0,58.0,58.0,56.0,57.0,56.0,57.0,56.0,58.0,57.0,56.0,56.0,55.0,55.0,54.0,54.0,56.0,55.0,55.0,53.0,55.0,53.0,55.0,53.0,52.0,53.0,51.0,52.0,50.0,49.0,51.0,51.0,52.0,54.0,55.0,56.0,56.0,58.0,59.0,59.0,60.0,60.0,61.0,61.0,61.0,59.0,59.0,57.0,57.0,54.0,54.0,53.0,54.0,55.0,53.0,55.0,53.0,52.0,52.0,51.0,51.0,50.0,51.0,49.0,50.0,53.0,53.0,54.0,55.0,57.0,54.0,56.0,55.0,55.0,56.0,56.0,57.0,55.0,55.0,55.0,56.0,58.0,57.0,57.0,55.0,55.0,56.0,56.0,56.0,57.0,58.0,58.0,58.0,58.0,56.0,57.0,57.0,57.0,57.0,55.0
59.0,59.0,58.0,57.0,57.0,60.0,60.0,60.0,59.0,57.0,57.0,56.0,55.0,54.0,54.0,54.0,53.0,51.0,50.0,49.0,51.0,50.0,49.0,48.0,47.0,47.0,46.0,48.0,45.0,44.0,43.0,42.0,42.0,42.0,43.0,41.0,41.0,40.0,40.0,39.0,39.0,38.0,37.0,38.0,37.0,39.0,39.0,39.0,39.0,38.0,39.0,39.0,38.0,38.0,39.0,39.0,38.0,39.0,38.0,38.0,38.0,39.0,39.0,38.0,39.0,38.0,38.0,39.0,41.0,41.0,41.0,42.0,43.0,45.0,45.0,46.0,48.0,46.0,48.0,46.0,47.0,48.0,50.0,51.0,52.0,55.0,55.0,57.0,60.0,73.0,112.0,183.0,203.0,214.0,230.0,225.0,207.0,192.0,183.0,181.0,185.0,199.0,219.0,245.0,268.0,319.0,336.0,385.0,432.0,420.0,441.0,480.0,486.0,502.0,528.0,537.0,549.0,558.0,569.0,592.0,601.0,603.0,598.0,597.0,601.0,593.0,593.0,586.0,580.0,574.0,569.0,558.0,551.0,541.0,533.0,530.0,519.0,510.0,507.0,494.0,484.0,477.0,476.0,461.0,448.0,436.0,426.0,417.0,403.0,394.0,383.0,377.0,365.0,364.0,355.0,350.0,343.0,336.0,326.0,321.0,311.0,305.0,297.0,294.0,286.0,282.0,281.0,273.0,268.0,263.0,260.0,253.0,254.0,246.0,244.0,239.0,236.0,231.0,229.0,224.0,221.0,216.0,212.0,209.0,206.0,201.0,196.0,195.0,186.0,182.0,180.0,176.0,174.0,170.0,169.0,165.0,164.0,157.0,153.0,151.0,150.0,149.0,148.0,146.0,146.0,143.0,141.0,141.0,142.0,141.0,136.0,135.0,134.0,129.0,126.0,130.0,127.0,124.0,122.0,121.0,119.0,119.0,121.0,116.0,114.0,112.0,109.0,108.0,107.0,111.0,108.0,105.0,104.0,102.0,101.0,101.0,99.0,104.0,102.0,100.0,96.0,93.0,91.0,88.0,90.0,88.0,87.0,87.0,83.0,85.0,81.0,80.0,78.0,76.0,77.0,76.0,75.0,79.0,75.0,74.0,74.0,74.0,73.0,72.0,74.0,72.0,70.0,71.0,72.0,74.0,77.0,77.0,82.0,83.0,85.0,84.0,83.0,83.0,84.0,87.0,84.0,82.0,81.0,81.0,79.0,76.0,74.0,72.0,72.0,70.0,69.0,67.0,65.0,64.0,62.0,64.0,64.0,63.0,63.0,63.0,64.0,62.0,62.0,64.0,65.0,68.0,67.0,68.0,68.0,69.0,69.0,68.0,70.0,68.0,68.0,64.0,65.0,65.0,63.0,63.0,65.0,67.0,65.0,66.0,65.0,63.0,65.0,65.0,64.0,64.0,65.0,66.0,64.0,64.0,64.0,64.0,62.0,62.0,60.0,60.0,59.0,57.0,58.0,55.0,54.0,55.0,53.0,57.0,57.0,58.0,59.0,59.0,63.0,62.0,60.0,61.0,61.0,59.0,59.0,58.0,58.0,56.0,55.0,55.0,54.0,56.0,55.0,53.0,55.0,53.0,53.0,50.0,54.0,54.0,52.0,51.0,52.0,53.0,50.0,48.0,49.0,49.0,48.0,49.0,49.0,48.0,49.0,48.0,46.0,48.0,48.0,49.0,46.0,46.0,45.0,47.0,47.0,47.0,49.0,48.0,49.0,50.0,50.0,53.0,53.0,52.0,52.0,53.0,53.0,52.0,52.0,53.0,55.0,54.0,52.0,51.0,53.0,53.0,54.0,54.0,53.0,52.0,52.0,51.0,49.0,48.0,49.0,48.0,48.0,49.0,47.0,46.0,45.0,47.0,47.0,46.0,46.0,46.0,47.0,49.0,51.0,54.0,55.0,58.0,60.0,61.0,62.0,63.0,64.0,68.0,71.0,70.0,68.0,65.0,65.0,60.0,60.0,59.0,57.0,59.0,58.0,56.0,52.0,52.0,50.0,49.0,47.0,46.0,48.0,48.0,48.0,48.0,49.0,49.0,49.0,52.0,50.0,51.0,52.0,52.0,51.0,52.0,55.0,52.0,53.0,53.0,53.0,53.0,53.0,54.0,54.0,55.0,55.0,55.0,53.0,53.0,55.0,52.0,54.0,54.0,53.0,52.0,53.0,52.0,50.0,49.0,48.0,49.0,49.0,47.0,46.0,44.0,43.0,42.0,43.0,43.0,43.0,42.0,40.0,41.0,41.0,40.0,41.0,40.0,41.0,39.0,39.0,39.0,37.0,38.0,37.0,41.0,40.0,42.0,42.0,43.0,42.0,41.0,44.0,44.0,42.0,43.0,43.0,41.0,41.0,42.0,42.0,41.0,41.0,41.0,40.0,40.0,40.0,42.0,43.0,42.0,43.0,45.0,43.0,44.0,42.0,42.0,41.0,42.0,43.0,44.0,46.0,45.0,45.0,43.0,43.0,44.0,42.0,43.0,40.0,42.0,43.0,42.0,42.0,43.0,43.0,42.0,42.0,42.0,42.0,40.0,40.0,40.0,38.0,39.0,41.0,42.0,41.0,39.0,41.0,40.0,39.0,40.0,39.0,40.0,39.0,40.0,38.0,39.0,40.0,39.0,39.0,38.0,40.0,38.0,40.0,40.0,40.0,42.0,41.0,44.0,42.0,43.0,44.0,43.0,42.0,42.0,41.0,38.0,39.0,40.0,39.0,39.0,41.0,42.0,40.0,40.0,43.0,42.0,42.0,41.0,41.0,39.0,39.0,39.0,38.0,37.0,37.0,39.0,38.0,39.0,41.0,42.0,45.0,47.0,56.0,62.0,62.0,58.0,56.0,57.0,55.0,55.0,55.0,61.0,64.0,67.0,73.0,77.0,88.0,92.0,100.0,103.0,107.0,111.0,116.0,123.0,126.0,128.0,130.0,131.0,130.0,131.0,132.0,136.0,137.0,138.0,139.0,138.0,136.0,137.0,136.0,134.0,131.0,130.0,131.0,133.0,136.0,138.0,139.0,140.0,141.0,141.0,141.0,140.0,142.0,142.0,140.0,141.0,138.0,135.0,132.0,131.0,129.0,129.0,129.0,128.0,125.0,125.0,122.0,118.0,117.0,115.0,116.0,117.0,117.0,120.0,122.0,125.0,126.0,130.0,129.0,133.0,135.0,135.0,138.0,135.0,138.0,139.0,138.0,135.0,137.0,137.0,137.0,136.0,134.0,135.0,135.0,132.0,130.0,128.0,126.0,124.0,125.0,124.0,124.0,121.0,119.0,118.0,115.0,115.0,115.0,112.0,111.0,108.0,106.0,104.0,102.0,98.0,96.0,96.0,95.0,94.0,93.0,93.0,91.0,91.0,90.0,89.0,86.0,85.0,84.0,82.0,82.0,82.0,80.0,82.0,81.0,79.0,79.0,76.0,76.0,74.0,74.0,73.0,71.0,70.0,70.0,69.0,68.0,68.0,69.0,69.0,68.0,69.0,68.0,67.0,64.0,61.0,59.0,58.0,55.0,56.0,57.0,55.0,53.0,54.0,53.0,51.0,51.0,50.0,52.0,53.0,51.0,53.0,52.0,52.0,54.0,54.0,55.0,57.0,60.0,61.0,62.0,61.0,60.0,57.0,57.0,55.0,52.0,51.0,51.0,51.0,48.0,47.0,47.0,46.0,46.0,47.0,45.0,46.0,47.0,46.0,46.0,44.0,43.0,41.0,40.0,40.0,39.0,38.0,37.0,36.0,36.0,36.0,36.0,37.0,37.0,40.0,41.0,41.0,44.0,45.0,45.0,44.0,44.0,44.0,45.0,44.0,44.0,43.0,44.0,43.0,41.0,41.0,40.0,39.0,38.0,36.0,37.0,35.0,35.0,35.0,35.0,36.0,36.0,36.0,36.0,36.0,35.0,36.0,36.0,35.0,35.0,34.0,35.0,35.0,35.0,35.0,35.0,36.0,35.0,35.0,35.0,34.0,35.0,34.0,34.0,35.0,35.0,36.0,35.0,36.0,36.0,36.0,36.0,35.0,35.0,34.0,34.0,34.0,33.0,33.0,33.0,33.0,34.0,33.0,33.0,36.0,34.0,35.0,35.0,35.0,35.0,36.0,36.0,36.0,36.0,36.0,37.0,36.0,34.0,35.0,35.0,33.0,33.0,33.0,34.0,33.0,34.0,34.0,35.0,35.0,35.0,36.0,34.0,36.0,35.0,37.0,36.0,36.0,36.0,36.0,36.0,35.0,34.0,34.0,35.0,35.0,34.0,35.0,34.0,35.0,34.0,35.0,35.0,35.0,35.0,35.0,36.0,36.0,36.0,36.0,34.0,35.0,35.0,35.0,35.0,34.0,35.0,34.0,34.0,34.0,34.0,36.0
11.0,10.0,12.0,10.0,9.0,9.0,7.0,8.0,7.0,7.0,6.0,7.0,7.0,6.0,6.0,6.0,7.0,4.0,5.0,5.0,6.0,8.0,9.0,8.0,7.0,7.0,7.0,7.0,8.0,11.0,10.0,9.0,9.0,9.0,7.0,7.0,6.0,8.0,7.0,7.0,7.0,6.0,8.0,7.0,7.0,5.0,6.0,11.0,10.0,9.0,8.0,9.0,6.0,7.0,6.0,6.0,6.0,5.0,7.0,5.0,6.0,6.0,5.0,5.0,5.0,5.0,4.0,4.0,5.0,7.0,7.0,7.0,8.0,6.0,7.0,6.0,6.0,7.0,7.0,8.0,6.0,7.0,7.0,6.0,6.0,5.0,7.0,7.0,8.0,9.0,23.0,49.0,55.0,51.0,56.0,61.0,58.0,51.0,49.0,42.0,40.0,34.0,30.0,27.0,26.0,29.0,29.0,32.0,28.0,29.0,27.0,29.0,27.0,33.0,43.0,44.0,39.0,35.0,31.0,36.0,41.0,42.0,46.0,47.0,49.0,45.0,65.0,57.0,51.0,48.0,51.0,51.0,45.0,39.0,39.0,37.0,32.0,29.0,28.0,23.0,25.0,24.0,23.0,38.0,34.0,31.0,34.0,32.0,28.0,30.0,26.0,27.0,24.0,21.0,19.0,22.0,29.0,25.0,22.0,23.0,19.0,19.0,17.0,16.0,15.0,17.0,19.0,16.0,15.0,13.0,14.0,12.0,11.0,11.0,10.0,9.0,8.0,9.0,10.0,10.0,9.0,8.0,8.0,7.0,8.0,6.0,7.0,8.0,7.0,8.0,8.0,8.0,7.0,7.0,6.0,6.0,6.0,5.0,5.0,4.0,6.0,5.0,4.0,5.0,5.0,5.0,4.0,5.0,5.0,8.0,8.0,7.0,8.0,7.0,6.0,8.0,7.0,7.0,6.0,6.0,6.0,6.0,7.0,6.0,6.0,5.0,6.0,5.0,5.0,5.0,4.0,7.0,6.0,7.0,6.0,6.0,6.0,7.0,7.0,6.0,6.0,5.0,10.0,9.0,8.0,7.0,8.0,10.0,8.0,8.0,7.0,7.0,8.0,7.0,7.0,6.0,6.0,6.0,5.0,5.0,5.0,5.0,4.0,4.0,7.0,8.0,8.0,7.0,8.0,6.0,5.0,6.0,5.0,5.0,7.0,7.0,6.0,6.0,6.0,5.0,6.0,5.0,5.0,5.0,5.0,5.0,5.0,5.0,5.0,6.0,4.0,4.0,5.0,5.0,4.0,4.0,5.0,4.0,5.0,5.0,3.0,5.0,5.0,6.0,4.0,4.0,5.0,5.0,4.0,6.0,6.0,4.0,6.0,5.0,5.0,5.0,5.0,9.0,12.0,10.0,10.0,10.0,9.0,9.0,10.0,8.0,8.0,8.0,7.0,7.0,7.0,8.0,8.0,6.0,6.0,7.0,6.0,9.0,9.0,8.0,7.0,7.0,6.0,6.0,7.0,8.0,6.0,7.0,6.0,6.0,6.0,5.0,6.0,6.0,5.0,5.0,6.0,5.0,4.0,5.0,8.0,7.0,7.0,8.0,8.0,7.0,8.0,6.0,7.0,7.0,6.0,6.0,5.0,7.0,4.0,6.0,10.0,9.0,8.0,8.0,8.0,6.0,6.0,6.0,6.0,8.0,7.0,7.0,6.0,6.0,6.0,5.0,5.0,5.0,6.0,5.0,4.0,7.0,7.0,7.0,6.0,8.0,6.0,9.0,9.0,8.0,7.0,7.0,8.0,6.0,7.0,9.0,9.0,8.0,8.0,8.0,6.0,6.0,7.0,7.0,6.0,6.0,6.0,6.0,6.0,7.0,6.0,6.0,5.0,7.0,6.0,6.0,5.0,6.0,6.0,9.0,9.0,9.0,8.0,8.0,8.0,8.0,8.0,14.0,12.0,10.0,10.0,9.0,8.0,9.0,13.0,12.0,10.0,10.0,9.0,9.0,13.0,13.0,14.0,30.0,26.0,24.0,21.0,19.0,18.0,15.0,13.0,13.0,13.0,12.0,11.0,10.0,10.0,10.0,9.0,9.0,8.0,12.0,14.0,12.0,10.0,11.0,9.0,12.0,13.0,14.0,12.0,12.0,11.0,11.0,10.0,9.0,12.0,10.0,10.0,11.0,11.0,11.0,9.0,9.0,8.0,8.0,8.0,8.0,7.0,6.0,10.0,8.0,7.0,8.0,8.0,8.0,8.0,8.0,6.0,7.0,6.0,8.0,8.0,9.0,11.0,10.0,9.0,8.0,8.0,7.0,7.0,8.0,6.0,6.0,5.0,5.0,9.0,8.0,8.0,8.0,7.0,7.0,8.0,7.0,8.0,9.0,7.0,7.0,7.0,7.0,7.0,6.0,9.0,8.0,9.0,9.0,8.0,8.0,5.0,7.0,14.0,14.0,13.0,11.0,10.0,9.0,9.0,8.0,10.0,10.0,9.0,9.0,8.0,8.0,7.0,10.0,12.0,13.0,12.0,11.0,11.0,10.0,9.0,9.0,7.0,8.0,8.0,9.0,10.0,8.0,8.0,7.0,7.0,8.0,10.0,9.0,10.0,9.0,9.0,8.0,7.0,8.0,8.0,6.0,6.0,7.0,8.0,9.0,10.0,8.0,7.0,7.0,7.0,6.0,5.0,7.0,6.0,6.0,6.0,11.0,10.0,9.0,10.0,11.0,10.0,11.0,9.0,10.0,8.0,9.0,7.0,6.0,6.0,7.0,8.0,7.0,15.0,14.0,12.0,11.0,10.0,9.0,8.0,9.0,10.0,8.0,8.0,9.0,7.0,7.0,8.0,16.0,23.0,42.0,54.0,52.0,46.0,40.0,43.0,48.0,50.0,55.0,54.0,67.0,100.0,106.0,108.0,106.0,107.0,99.0,95.0,86.0,93.0,88.0,95.0,88.0,87.0,101.0,93.0,88.0,82.0,84.0,81.0,82.0,76.0,89.0,84.0,85.0,80.0,93.0,87.0,81.0,73.0,73.0,68.0,65.0,58.0,60.0,61.0,61.0,57.0,58.0,74.0,67.0,72.0,64.0,60.0,52.0,50.0,48.0,46.0,41.0,43.0,47.0,46.0,40.0,42.0,37.0,35.0,33.0,31.0,29.0,26.0,36.0,41.0,39.0,37.0,33.0,31.0,28.0,27.0,24.0,22.0,20.0,19.0,28.0,39.0,35.0,32.0,29.0,29.0,28.0,25.0,24.0,22.0,19.0,19.0,17.0,15.0,16.0,16.0,15.0,13.0,12.0,11.0,10.0,10.0,9.0,9.0,10.0,11.0,11.0,9.0,12.0,12.0,11.0,15.0,13.0,12.0,11.0,11.0,10.0,9.0,8.0,8.0,8.0,7.0,10.0,8.0,8.0,7.0,11.0,11.0,12.0,11.0,10.0,10.0,8.0,8.0,9.0,12.0,14.0,14.0,13.0,12.0,11.0,10.0,9.0,10.0,12.0,12.0,11.0,10.0,9.0,9.0,10.0,7.0,10.0,9.0,10.0,10.0,11.0,11.0,9.0,9.0,8.0,7.0,7.0,6.0,7.0,6.0,5.0,4.0,5.0,6.0,12.0,18.0,16.0,22.0,19.0,17.0,15.0,13.0,13.0,10.0,11.0,11.0,11.0,12.0,10.0,11.0,8.0,8.0,12.0,14.0,12.0,11.0,11.0,12.0,12.0,10.0,9.0,10.0,9.0,10.0,7.0,7.0,7.0,7.0,6.0,5.0,6.0,4.0,6.0,10.0,10.0,9.0,9.0,14.0,16.0,14.0,13.0,12.0,11.0,10.0,10.0,8.0,9.0,9.0,11.0,12.0,12.0,12.0,10.0,11.0,9.0,8.0,7.0,7.0,7.0,6.0,7.0,9.0,9.0,8.0,7.0,8.0,7.0,6.0,7.0,11.0,11.0,9.0,10.0,8.0,7.0,7.0,7.0,7.0,7.0,10.0,8.0,10.0,10.0,9.0,8.0,8.0,7.0,7.0,8.0,8.0,10.0,12.0,12.0,11.0,12.0,12.0,10.0,9.0,9.0,8.0,9.0,7.0,7.0,8.0,6.0,6.0,11.0,10.0,9.0,9.0,8.0,7.0,9.0,9.0,10.0,12.0,14.0,14.0,13.0,12.0,11.0,11.0,10.0,9.0,8.0,9.0,9.0,8.0,9.0,8.0,8.0,7.0,6.0,6.0,6.0,7.0,11.0,11.0,10.0,11.0,11.0,9.0,10.0,8.0,8.0,7.0,7.0,10.0,8.0,9.0,8.0,8.0,7.0,8.0,8.0,8.0,8.0,6.0,6.0,6.0,9.0,11.0,13.0,13.0,10.0,10.0,9.0,8.0,8.0,7.0,12.0,12.0,12.0
90.0,86.0,79.0,79.0,81.0,98.0,98.0,91.0,87.0,88.0,86.0,80.0,83.0,82.0,85.0,86.0,82.0,87.0,81.0,87.0,89.0,85.0,86.0,82.0,88.0,87.0,84.0,80.0,79.0,82.0,75.0,74.0,69.0,69.0,72.0,71.0,74.0,74.0,74.0,73.0,74.0,80.0,84.0,84.0,82.0,85.0,82.0,84.0,82.0,81.0,82.0,90.0,84.0,82.0,79.0,82.0,81.0,82.0,86.0,80.0,101.0,101.0,98.0,95.0,90.0,83.0,77.0,72.0,77.0,80.0,82.0,88.0,80.0,80.0,79.0,82.0,88.0,89.0,83.0,82.0,81.0,78.0,75.0,80.0,87.0,81.0,78.0,83.0,102.0,101.0,120.0,195.0,226.0,214.0,210.0,200.0,197.0,196.0,198.0,180.0,171.0,155.0,156.0,151.0,153.0,141.0,147.0,166.0,179.0,185.0,177.0,190.0,198.0,196.0,204.0,226.0,211.0,196.0,178.0,164.0,179.0,184.0,203.0,197.0,189.0,187.0,199.0,191.0,203.0,191.0,189.0,185.0,171.0,163.0,153.0,149.0,157.0,172.0,170.0,159.0,164.0,177.0,178.0,179.0,172.0,163.0,164.0,164.0,156.0,144.0,161.0,159.0,153.0,173.0,173.0,174.0,169.0,168.0,165.0,161.0,159.0,164.0,156.0,156.0,147.0,145.0,138.0,133.0,130.0,132.0,144.0,144.0,142.0,152.0,145.0,141.0,136.0,143.0,149.0,152.0,150.0,142.0,134.0,140.0,145.0,142.0,134.0,158.0,167.0,177.0,185.0,186.0,184.0,184.0,182.0,176.0,179.0,178.0,179.0,172.0,180.0,177.0,171.0,160.0,155.0,150.0,155.0,159.0,156.0,165.0,173.0,160.0,154.0,158.0,156.0,158.0,157.0,178.0,169.0,169.0,161.0,164.0,168.0,165.0,152.0,149.0,148.0,153.0,154.0,152.0,151.0,146.0,147.0,144.0,144.0,141.0,136.0,132.0,144.0,137.0,134.0,156.0,149.0,149.0,146.0,146.0,143.0,138.0,132.0,127.0,133.0,140.0,134.0,136.0,136.0,123.0,124.0,120.0,124.0,138.0,142.0,136.0,138.0,141.0,147.0,151.0,152.0,144.0,137.0,139.0,132.0,129.0,130.0,132.0,130.0,118.0,111.0,120.0,111.0,112.0,110.0,106.0,108.0,118.0,126.0,127.0,133.0,126.0,126.0,131.0,128.0,120.0,114.0,125.0,131.0,130.0,128.0,124.0,140.0,143.0,139.0,134.0,133.0,131.0,134.0,132.0,143.0,145.0,150.0,141.0,142.0,143.0,146.0,143.0,146.0,140.0,142.0,146.0,148.0,160.0,157.0,142.0,133.0,137.0,145.0,139.0,139.0,135.0,129.0,132.0,132.0,133.0,133.0,127.0,125.0,132.0,132.0,128.0,134.0,125.0,143.0,143.0,138.0,126.0,125.0,127.0,123.0,121.0,119.0,148.0,140.0,130.0,125.0,123.0,136.0,129.0,120.0,130.0,123.0,115.0,136.0,133.0,149.0,167.0,163.0,150.0,142.0,144.0,137.0,154.0,152.0,146.0,144.0,135.0,133.0,158.0,165.0,168.0,164.0,152.0,163.0,150.0,144.0,135.0,129.0,120.0,119.0,112.0,123.0,121.0,124.0,125.0,128.0,127.0,123.0,126.0,132.0,137.0,140.0,128.0,132.0,133.0,130.0,132.0,126.0,140.0,146.0,147.0,147.0,143.0,145.0,171.0,164.0,150.0,134.0,131.0,127.0,122.0,126.0,129.0,118.0,107.0,112.0,121.0,124.0,121.0,126.0,122.0,123.0,128.0,124.0,122.0,123.0,153.0,147.0,145.0,136.0,131.0,141.0,161.0,176.0,164.0,152.0,137.0,129.0,123.0,143.0,149.0,135.0,126.0,118.0,111.0,114.0,125.0,118.0,109.0,111.0,106.0,106.0,128.0,129.0,121.0,121.0,117.0,110.0,100.0,102.0,110.0,117.0,114.0,109.0,105.0,101.0,104.0,107.0,103.0,102.0,109.0,120.0,138.0,132.0,134.0,140.0,126.0,135.0,139.0,135.0,153.0,144.0,136.0,144.0,145.0,136.0,149.0,136.0,132.0,130.0,138.0,140.0,138.0,137.0,134.0,124.0,121.0,116.0,116.0,109.0,108.0,121.0,117.0,118.0,123.0,123.0,126.0,124.0,121.0,120.0,128.0,126.0,122.0,121.0,130.0,135.0,127.0,115.0,109.0,107.0,110.0,110.0,103.0,133.0,156.0,152.0,147.0,138.0,158.0,170.0,202.0,195.0,188.0,206.0,205.0,197.0,196.0,198.0,202.0,194.0,182.0,173.0,189.0,197.0,188.0,186.0,174.0,167.0,172.0,178.0,192.0,192.0,189.0,190.0,176.0,177.0,173.0,174.0,163.0,153.0,150.0,151.0,142.0,140.0,149.0,157.0,173.0,166.0,170.0,170.0,166.0,158.0,155.0,140.0,132.0,133.0,131.0,126.0,124.0,132.0,123.0,116.0,117.0,125.0,120.0,141.0,135.0,126.0,122.0,111.0,113.0,113.0,125.0,121.0,115.0,137.0,141.0,133.0,130.0,147.0,148.0,138.0,133.0,133.0,131.0,129.0,125.0,120.0,128.0,124.0,127.0,131.0,119.0,109.0,118.0,116.0,132.0,134.0,130.0,128.0,124.0,132.0,131.0,120.0,114.0,127.0,125.0,119.0,111.0,115.0,105.0,96.0,102.0,104.0,101.0,95.0,90.0,84.0,82.0,89.0,98.0,98.0,111.0,119.0,121.0,126.0,120.0,119.0,112.0,131.0,132.0,142.0,157.0,175.0,204.0,219.0,234.0,237.0,240.0,248.0,243.0,224.0,224.0,221.0,222.0,231.0,217.0,200.0,185.0,172.0,200.0,220.0,224.0,203.0,190.0,193.0,242.0,221.0,215.0,198.0,199.0,185.0,196.0,184.0,175.0,174.0,168.0,169.0,161.0,149.0,150.0,180.0,172.0,174.0,162.0,159.0,151.0,142.0,132.0,133.0,123.0,120.0,125.0,137.0,144.0,141.0,132.0,142.0,143.0,132.0,126.0,119.0,115.0,123.0,124.0,127.0,118.0,110.0,112.0,113.0,106.0,106.0,104.0,98.0,97.0,114.0,121.0,123.0,116.0,144.0,167.0,161.0,150.0,136.0,135.0,133.0,128.0,129.0,128.0,127.0,148.0,146.0,133.0,126.0,130.0,132.0,128.0,124.0,121.0,116.0,110.0,109.0,117.0,115.0,105.0,123.0,116.0,129.0,128.0,120.0,113.0,108.0,101.0,91.0,87.0,88.0,100.0,100.0,91.0,85.0,94.0,100.0,98.0,95.0,89.0,84.0,82.0,82.0,102.0,101.0,95.0,94.0,109.0,108.0,104.0,100.0,94.0,91.0,92.0,101.0,98.0,92.0,89.0,113.0,120.0,110.0,104.0,105.0,102.0,103.0,112.0,109.0,107.0,101.0,102.0,103.0,100.0,95.0,87.0,81.0,75.0,70.0,68.0,80.0,75.0,91.0,112.0,107.0,124.0,115.0,108.0,112.0,110.0,100.0,110.0,105.0,98.0,94.0,94.0,106.0,107.0,100.0,100.0,96.0,100.0,96.0,94.0,89.0,89.0,86.0,92.0,96.0,97.0,90.0,88.0,87.0,81.0,86.0,82.0,77.0,77.0,75.0,84.0,93.0,89.0,95.0,93.0,91.0,93.0,97.0,98.0,92.0,89.0,88.0,84.0,84.0,89.0,111.0,108.0,101.0,95.0,88.0,95.0,99.0,111.0,108.0,103.0,102.0,102.0,104.0,101.0,99.0,95.0,90.0,86.0,92.0,99.0,95.0,90.0,97.0,94.0,93.0,90.0,92.0,90.0,96.0,107.0,100.0,107.0,105.0,105.0,101.0,101.0,97.0,92.0,87.0,87.0,84.0,94.0,97.0,94.0,89.0,90.0,91.0,100.0,93.0,90.0,81.0,78.0,107.0,104.0,101.0,93.0,88.0,84.0,98.0,112.0,107.0,105.0,96.0,97.0,99.0,98.0,98.0,98.0,102.0,98.0,106.0,105.0,108.0,104.0,103.0,99.0,95.0,96.0,93.0,100.0,98.0,114.0,110.0,102.0,102.0,98.0,94.0,100.0,90.0,89.0,87.0,81.0,92.0,89.0,84.0,83.0,79.0,86.0,83.0,86.0,82.0,88.0,88.0,116.0,111.0,104.0,100.0,95.0,90.0,91.0,94.0,99.0,102.0,104.0,102.0,104.0,107.0,103.0,100.0,101.0,99.0,100.0,95.0,90.0,99.0,97.0
