52.0,53.0,52.0,53.0,52.0,51.0,51.0,50.0,51.0,50.0,50.0,49.0,49.0,47.0,47.0,48.0,46.0,47.0,46.0,46.0,46.0,45.0,46.0,45.0,46.0,46.0,47.0,47.0,47.0,46.0,48.0,50.0,50.0,50.0,50.0,49.0,51.0,50.0,49.0,48.0,47.0,47.0,48.0,49.0,49.0,49.0,51.0,58.0,61.0,66.0,65.0,65.0,70.0,82.0,101.0,112.0,117.0,126.0,123.0,135.0,143.0,139.0,146.0,160.0,174.0,183.0,195.0,205.0,211.0,222.0,222.0,214.0,198.0,186.0,176.0,170.0,164.0,160.0,165.0,154.0,156.0,154.0,162.0,156.0,145.0,145.0,144.0,133.0,126.0,121.0,116.0,112.0,111.0,106.0,106.0,114.0,121.0,119.0,111.0,109.0,102.0,103.0,96.0,90.0,88.0,83.0,80.0,78.0,76.0,73.0,74.0,74.0,73.0,73.0,74.0,72.0,69.0,67.0,71.0,69.0,69.0,66.0,66.0,63.0,63.0,62.0,61.0,63.0,63.0,62.0,62.0,62.0,61.0,63.0,60.0,60.0,60.0,62.0,59.0,60.0,58.0,60.0,61.0,62.0,62.0,61.0,59.0,57.0,58.0,61.0,60.0,59.0,58.0,57.0,57.0,58.0,58.0,56.0,57.0,56.0,56.0,57.0,56.0,57.0,55.0,55.0,53.0,55.0,54.0,55.0,54.0,54.0,59.0,59.0,57.0,57.0,57.0,58.0,58.0,57.0,57.0,56.0,57.0,57.0,56.0,54.0,53.0,52.0,56.0,57.0,59.0,56.0,55.0,57.0,57.0,55.0,53.0,56.0,57.0,56.0,57.0,57.0,60.0,58.0,57.0,57.0,54.0,55.0,54.0,53.0,56.0,57.0,57.0,54.0,54.0,53.0,52.0,52.0,52.0,52.0,50.0,51.0,51.0,51.0,51.0,54.0,53.0,53.0,53.0,53.0,59.0,58.0,58.0,57.0,58.0,59.0,59.0,58.0,57.0,57.0,55.0,56.0,59.0,59.0,58.0,59.0,61.0,60.0,60.0,60.0,60.0,59.0,60.0,57.0,57.0,58.0,63.0,63.0,62.0,64.0,63.0,66.0,68.0,71.0,69.0,70.0,71.0,79.0,84.0,90.0,95.0,99.0,102.0,105.0,109.0,109.0,106.0,106.0,105.0,108.0,105.0,104.0,103.0,101.0,101.0,103.0,103.0,103.0,101.0,100.0,98.0,95.0,97.0,94.0,92.0,90.0,92.0,91.0,88.0,88.0,86.0,84.0,86.0,84.0,81.0,80.0,80.0,78.0,75.0,73.0,74.0,70.0,70.0,69.0,68.0,67.0,65.0,64.0,62.0,61.0,61.0,60.0,60.0,60.0,59.0,58.0,60.0,61.0,59.0,59.0,59.0,58.0,58.0,57.0,59.0,60.0,61.0,59.0,60.0,60.0,61.0,59.0,60.0,59.0,58.0,58.0,55.0,57.0,58.0,59.0,60.0,59.0,57.0,56.0,56.0,57.0,57.0,57.0,56.0,55.0,56.0,57.0,56.0,57.0,55.0,56.0,57.0,54.0,57.0,56.0,55.0,53.0,55.0,53.0,52.0,52.0,52.0,52.0,51.0,49.0,49.0,49.0,48.0,47.0,46.0,48.0,47.0,48.0,48.0,48.0,47.0,47.0,48.0,50.0,50.0,52.0,54.0,53.0,54.0,55.0,56.0,56.0,54.0,55.0,55.0,54.0,54.0,53.0,52.0,52.0,52.0,53.0,53.0,53.0,53.0,55.0,54.0,54.0,53.0,53.0,53.0,53.0,55.0,54.0,54.0,55.0,55.0,54.0,54.0,55.0,52.0,53.0,53.0,53.0,52.0,51.0,53.0,50.0,51.0,53.0,53.0,53.0,53.0,52.0,52.0,52.0,54.0,55.0,55.0,56.0,57.0,55.0,55.0,56.0,56.0,56.0,57.0,58.0,56.0,58.0,57.0,57.0,57.0,57.0,57.0,55.0,56.0,57.0,58.0,57.0,59.0,59.0,56.0,57.0,58.0,57.0,59.0,59.0,61.0,60.0,59.0,59.0,58.0,57.0,56.0,57.0,56.0,55.0,56.0,56.0,54.0,53.0,55.0,54.0,55.0,54.0,55.0,55.0,53.0,55.0,53.0,55.0,55.0,55.0,58.0,57.0,60.0,58.0,59.0,59.0,61.0,61.0,61.0,62.0,62.0,63.0,63.0,62.0,64.0,64.0,66.0,66.0,63.0,63.0,63.0,62.0,61.0,63.0,62.0,60.0,59.0,58.0,56.0,55.0,54.0,52.0,53.0,54.0,54.0,54.0,53.0,54.0,55.0,54.0,55.0,54.0,53.0,55.0,54.0,54.0,53.0,51.0,50.0,50.0,49.0,49.0,48.0,48.0,47.0,48.0,48.0,47.0,50.0,50.0,52.0,51.0,51.0,52.0,52.0,54.0,54.0,55.0,54.0,54.0,55.0,55.0,57.0,55.0,56.0,54.0,53.0,55.0,56.0,56.0,54.0,53.0,53.0,52.0,53.0,51.0,54.0,52.0,53.0,54.0,53.0,52.0,51.0,53.0,54.0,53.0,54.0,55.0,56.0,55.0,54.0,54.0,54.0,57.0,56.0,56.0,57.0,59.0,56.0,57.0,57.0,55.0,56.0,55.0,57.0,56.0,58.0,58.0,59.0,61.0,61.0,63.0,62.0,63.0,62.0,65.0,65.0,65.0,66.0,65.0,64.0,62.0,61.0,62.0,60.0,61.0,58.0,60.0,61.0,61.0,61.0,60.0,60.0,60.0,62.0,63.0,62.0,63.0,63.0,66.0,64.0,63.0,63.0,63.0,62.0,61.0,63.0,62.0,63.0,63.0,64.0,62.0,60.0,62.0,60.0,60.0,60.0,61.0,60.0,60.0,60.0,59.0,60.0,61.0,62.0,60.0,60.0,62.0,62.0,62.0,63.0,64.0,64.0,64.0,65.0,64.0,63.0,65.0,64.0,64.0,64.0,64.0,62.0,62.0,61.0,61.0,60.0,59.0,59.0,58.0,57.0,57.0,57.0,58.0,58.0,59.0,58.0,58.0,58.0,59.0,58.0,59.0,58.0,56.0,57.0,58.0,58.0,57.0,57.0,57.0,55.0,55.0,57.0,57.0,56.0,57.0,58.0,60.0,61.0,62.0,63.0,64.0,65.0,64.0,64.0,64.0,66.0,66.0,68.0,68.0,70.0,70.0,69.0,70.0,70.0,70.0,69.0,70.0,69.0,70.0,68.0,67.0,67.0,65.0,66.0,64.0,63.0,61.0,61.0,62.0,64.0,64.0,64.0,62.0,61.0,61.0,60.0,59.0,58.0,58.0,55.0,56.0,55.0,54.0,54.0,54.0,54.0,54.0,55.0,55.0,54.0,53.0,54.0,54.0,53.0,53.0,53.0,54.0,54.0,54.0,54.0,54.0,53.0,53.0,52.0,52.0,53.0,52.0,52.0,52.0,50.0,50.0,49.0,50.0,50.0,50.0,50.0,49.0,51.0,52.0,53.0,53.0,52.0,52.0,53.0,51.0,51.0,52.0,51.0,52.0,51.0,51.0,50.0,49.0,49.0,50.0,48.0,51.0,50.0,52.0,52.0,54.0,54.0,54.0,55.0,54.0,53.0,53.0,54.0,53.0,53.0,53.0,54.0,53.0,52.0,52.0,53.0,54.0,54.0,53.0,53.0,53.0,54.0,52.0,53.0,53.0,53.0,54.0,54.0,56.0,55.0,54.0,57.0,56.0,57.0,56.0,59.0,58.0,58.0,58.0,59.0,61.0,61.0,62.0,63.0,62.0,62.0,64.0,64.0,65.0,65.0,66.0,65.0,66.0,68.0,69.0,69.0,71.0,72.0,73.0,74.0,74.0,73.0,73.0,73.0,73.0,73.0,75.0,75.0,77.0,76.0,78.0,79.0,79.0,79.0,79.0,80.0,80.0,81.0,81.0,80.0,79.0,78.0,78.0,76.0,76.0,74.0,72.0,72.0,73.0,72.0,71.0,72.0,71.0,70.0,69.0,69.0,70.0,67.0,69.0,68.0,66.0,67.0,67.0,67.0,67.0,66.0,66.0,66.0,66.0,66.0,67.0,69.0,71.0,71.0,70.0,71.0,70.0,69.0,68.0,69.0,68.0,66.0,66.0,66.0,65.0,64.0,64.0,64.0,62.0,62.0,61.0,62.0,61.0,61.0,62.0,59.0,60.0,59.0,59.0,60.0,60.0,62.0,60.0,61.0,60.0,60.0,61.0,62.0,60.0,60.0,60.0,59.0,57.0,55.0,56.0,56.0,56.0,57.0,57.0,59.0,60.0,63.0,64.0,64.0,66.0
42.0,42.0,44.0,45.0,46.0,46.0,48.0,48.0,48.0,48.0,50.0,51.0,52.0,53.0,51.0,51.0,51.0,50.0,51.0,50.0,48.0,46.0,45.0,44.0,43.0,43.0,40.0,38.0,40.0,38.0,37.0,37.0,38.0,37.0,36.0,35.0,35.0,35.0,36.0,37.0,36.0,36.0,40.0,39.0,40.0,54.0,56.0,88.0,94.0,106.0,104.0,101.0,115.0,136.0,132.0,143.0,178.0,182.0,179.0,207.0,197.0,212.0,208.0,214.0,204.0,223.0,221.0,214.0,204.0,194.0,189.0,232.0,233.0,216.0,221.0,214.0,206.0,207.0,203.0,188.0,178.0,180.0,176.0,170.0,177.0,170.0,166.0,152.0,146.0,163.0,158.0,154.0,147.0,139.0,138.0,129.0,128.0,132.0,137.0,131.0,125.0,124.0,114.0,106.0,100.0,106.0,112.0,105.0,100.0,104.0,104.0,100.0,99.0,105.0,103.0,104.0,97.0,94.0,89.0,94.0,98.0,98.0,94.0,96.0,107.0,100.0,94.0,91.0,85.0,87.0,85.0,86.0,88.0,86.0,82.0,80.0,84.0,88.0,103.0,104.0,101.0,95.0,92.0,96.0,92.0,86.0,84.0,80.0,76.0,81.0,79.0,77.0,72.0,68.0,68.0,69.0,71.0,69.0,69.0,74.0,79.0,81.0,81.0,98.0,95.0,87.0,86.0,95.0,90.0,94.0,95.0,91.0,106.0,105.0,96.0,93.0,92.0,93.0,93.0,94.0,92.0,94.0,90.0,85.0,95.0,92.0,100.0,94.0,94.0,91.0,88.0,93.0,90.0,94.0,97.0,96.0,91.0,91.0,90.0,88.0,94.0,95.0,96.0,91.0,88.0,87.0,87.0,89.0,89.0,86.0,97.0,96.0,91.0,89.0,84.0,83.0,79.0,80.0,78.0,83.0,80.0,83.0,82.0,82.0,96.0,107.0,102.0,97.0,95.0,90.0,92.0,88.0,89.0,85.0,82.0,93.0,88.0,88.0,83.0,79.0,77.0,74.0,73.0,83.0,82.0,81.0,78.0,78.0,77.0,73.0,83.0,82.0,80.0,87.0,91.0,88.0,87.0,86.0,86.0,79.0,78.0,77.0,77.0,76.0,76.0,76.0,74.0,76.0,73.0,73.0,73.0,75.0,74.0,82.0,95.0,106.0,118.0,129.0,138.0,146.0,150.0,151.0,150.0,150.0,148.0,146.0,140.0,135.0,130.0,124.0,121.0,115.0,114.0,106.0,101.0,95.0,91.0,88.0,82.0,83.0,77.0,73.0,68.0,63.0,62.0,59.0,56.0,54.0,53.0,52.0,50.0,49.0,47.0,48.0,44.0,43.0,43.0,43.0,46.0,46.0,50.0,50.0,52.0,53.0,54.0,56.0,57.0,63.0,62.0,63.0,65.0,66.0,67.0,66.0,70.0,70.0,70.0,68.0,69.0,69.0,69.0,68.0,66.0,66.0,65.0,65.0,63.0,63.0,64.0,63.0,65.0,63.0,62.0,60.0,59.0,60.0,57.0,56.0,56.0,53.0,55.0,53.0,54.0,53.0,52.0,50.0,51.0,51.0,55.0,57.0,56.0,54.0,57.0,54.0,54.0,53.0,55.0,54.0,54.0,51.0,49.0,51.0,49.0,48.0,45.0,46.0,44.0,43.0,45.0,44.0,43.0,42.0,41.0,40.0,40.0,47.0,45.0,44.0,42.0,42.0,41.0,40.0,41.0,40.0,41.0,39.0,39.0,38.0,39.0,39.0,40.0,42.0,40.0,40.0,40.0,40.0,39.0,37.0,39.0,38.0,38.0,37.0,42.0,42.0,42.0,42.0,39.0,39.0,39.0,38.0,39.0,40.0,41.0,40.0,38.0,38.0,37.0,39.0,39.0,39.0,37.0,38.0,38.0,39.0,39.0,40.0,40.0,38.0,38.0,38.0,38.0,39.0,39.0,40.0,38.0,38.0,38.0,38.0,41.0,41.0,41.0,41.0,41.0,41.0,40.0,39.0,40.0,40.0,38.0,38.0,38.0,38.0,39.0,41.0,42.0,42.0,42.0,43.0,43.0,43.0,43.0,44.0,43.0,42.0,41.0,40.0,40.0,39.0,41.0,41.0,39.0,39.0,40.0,39.0,40.0,41.0,39.0,39.0,40.0,40.0,39.0,39.0,40.0,41.0,40.0,42.0,41.0,41.0,41.0,42.0,40.0,40.0,41.0,41.0,41.0,41.0,41.0,39.0,38.0,38.0,40.0,39.0,39.0,40.0,42.0,42.0,43.0,45.0,43.0,41.0,42.0,41.0,39.0,40.0,40.0,41.0,41.0,41.0,40.0,38.0,39.0,39.0,39.0,37.0,39.0,38.0,39.0,40.0,41.0,40.0,40.0,42.0,41.0,42.0,41.0,40.0,41.0,40.0,40.0,39.0,38.0,39.0,38.0,41.0,40.0,40.0,40.0,41.0,40.0,40.0,41.0,40.0,42.0,40.0,39.0,39.0,38.0,38.0,36.0,39.0,41.0,42.0,43.0,42.0,41.0,39.0,39.0,39.0,38.0,39.0,39.0,39.0,37.0,38.0,36.0,36.0,36.0,35.0,36.0,36.0,38.0,38.0,36.0,37.0,38.0,38.0,37.0,37.0,38.0,38.0,39.0,37.0,40.0,41.0,43.0,42.0,42.0,42.0,42.0,44.0,41.0,45.0,43.0,42.0,42.0,40.0,40.0,40.0,40.0,40.0,39.0,42.0,43.0,42.0,41.0,42.0,41.0,38.0,38.0,39.0,40.0,39.0,38.0,40.0,39.0,38.0,38.0,38.0,38.0,39.0,38.0,38.0,39.0,40.0,41.0,40.0,40.0,39.0,38.0,39.0,41.0,41.0,40.0,39.0,38.0,38.0,40.0,39.0,40.0,40.0,43.0,42.0,42.0,43.0,43.0,43.0,42.0,43.0,43.0,43.0,44.0,42.0,41.0,40.0,40.0,39.0,38.0,39.0,42.0,43.0,43.0,41.0,41.0,39.0,39.0,39.0,39.0,37.0,40.0,40.0,39.0,39.0,39.0,38.0,39.0,39.0,40.0,39.0,40.0,40.0,40.0,41.0,40.0,40.0,41.0,41.0,40.0,40.0,41.0,42.0,42.0,40.0,41.0,40.0,42.0,43.0,45.0,45.0,44.0,44.0,45.0,45.0,45.0,43.0,42.0,42.0,41.0,40.0,41.0,40.0,39.0,39.0,38.0,38.0,38.0,37.0,37.0,36.0,37.0,38.0,41.0,38.0,39.0,43.0,43.0,43.0,42.0,41.0,41.0,41.0,40.0,42.0,41.0,39.0,40.0,39.0,39.0,41.0,40.0,40.0,40.0,41.0,42.0,43.0,43.0,43.0,42.0,42.0,42.0,43.0,43.0,43.0,44.0,44.0,42.0,42.0,42.0,40.0,40.0,38.0,39.0,36.0,37.0,36.0,35.0,36.0,36.0,36.0,35.0,36.0,35.0,35.0,36.0,36.0,37.0,36.0,35.0,36.0,36.0,37.0,36.0,36.0,36.0,37.0,35.0,35.0,35.0,36.0,37.0,37.0,38.0,37.0,37.0,36.0,37.0,37.0,38.0,39.0,39.0,39.0,39.0,41.0,41.0,39.0,39.0,38.0,38.0,39.0,37.0,38.0,36.0,38.0,37.0,37.0,37.0,37.0,38.0,38.0,38.0,38.0,37.0,36.0,37.0,37.0,36.0,36.0,37.0,37.0,37.0,36.0,36.0,36.0,36.0,35.0,35.0,38.0,37.0,39.0,37.0,39.0,39.0,40.0,41.0,42.0,43.0,41.0,41.0,42.0,41.0,42.0,44.0,43.0,41.0,44.0,45.0,45.0,46.0,46.0,47.0,46.0,47.0,47.0,46.0,46.0,45.0,47.0,44.0,44.0,43.0,43.0,42.0,40.0,39.0,38.0,37.0,38.0,36.0,36.0,36.0,38.0,36.0,36.0,35.0,35.0,35.0,35.0,36.0,36.0,35.0,35.0,35.0,35.0,35.0,37.0,35.0,34.0,35.0,35.0,34.0,33.0,35.0,34.0,36.0,37.0,37.0,37.0,37.0,37.0,36.0,38.0,38.0,37.0,36.0,37.0,41.0,40.0,41.0,42.0,43.0,43.0,44.0,46.0,44.0,46.0,46.0,45.0,46.0,47.0,48.0,46.0,47.0,47.0,47.0,47.0,47.0,47.0,44.0,44.0,43.0,42.0,41.0,41.0,40.0,38.0,38.0,38.0,38.0,38.0,37.0,40.0,38.0,39.0,38.0,39.0,39.0,39.0,41.0,41.0,42.0,41.0,41.0,44.0,44.0,47.0,46.0,47.0,46.0,46.0,46.0,44.0
11.0,11.0,11.0,10.0,10.0,9.0,8.0,7.0,7.0,6.0,7.0,6.0,6.0,12.0,10.0,10.0,8.0,9.0,8.0,9.0,11.0,11.0,11.0,10.0,9.0,8.0,7.0,7.0,11.0,10.0,8.0,9.0,8.0,7.0,7.0,7.0,7.0,5.0,6.0,6.0,6.0,5.0,5.0,6.0,5.0,10.0,10.0,10.0,10.0,11.0,12.0,12.0,16.0,37.0,41.0,43.0,47.0,58.0,56.0,65.0,74.0,86.0,117.0,128.0,121.0,158.0,180.0,191.0,186.0,199.0,208.0,238.0,232.0,236.0,246.0,259.0,276.0,292.0,290.0,286.0,274.0,275.0,279.0,260.0,261.0,245.0,225.0,233.0,223.0,202.0,185.0,183.0,169.0,166.0,157.0,150.0,173.0,171.0,157.0,180.0,172.0,189.0,185.0,168.0,158.0,148.0,157.0,148.0,148.0,140.0,131.0,120.0,114.0,106.0,112.0,117.0,121.0,120.0,115.0,114.0,122.0,122.0,133.0,126.0,118.0,122.0,125.0,124.0,120.0,114.0,118.0,117.0,120.0,119.0,121.0,138.0,125.0,127.0,129.0,140.0,127.0,121.0,128.0,126.0,127.0,123.0,110.0,104.0,96.0,92.0,91.0,85.0,80.0,77.0,88.0,89.0,119.0,111.0,112.0,105.0,111.0,113.0,104.0,102.0,100.0,91.0,93.0,108.0,108.0,100.0,92.0,86.0,125.0,117.0,107.0,101.0,99.0,90.0,123.0,114.0,105.0,99.0,89.0,86.0,98.0,89.0,86.0,75.0,73.0,86.0,86.0,78.0,76.0,80.0,83.0,82.0,76.0,69.0,64.0,56.0,77.0,75.0,79.0,79.0,77.0,103.0,96.0,90.0,83.0,78.0,69.0,84.0,76.0,70.0,65.0,58.0,55.0,49.0,60.0,56.0,59.0,53.0,55.0,51.0,57.0,58.0,51.0,49.0,44.0,44.0,64.0,61.0,58.0,60.0,58.0,57.0,63.0,57.0,52.0,49.0,57.0,58.0,70.0,64.0,65.0,64.0,57.0,60.0,66.0,60.0,54.0,49.0,53.0,66.0,84.0,78.0,80.0,69.0,79.0,76.0,74.0,70.0,67.0,61.0,58.0,50.0,45.0,54.0,60.0,62.0,58.0,49.0,44.0,39.0,36.0,50.0,50.0,53.0,48.0,43.0,38.0,51.0,49.0,46.0,41.0,38.0,59.0,62.0,55.0,51.0,46.0,46.0,57.0,59.0,53.0,59.0,66.0,58.0,66.0,73.0,66.0,61.0,55.0,50.0,54.0,55.0,49.0,43.0,41.0,42.0,36.0,38.0,46.0,45.0,40.0,35.0,39.0,43.0,38.0,51.0,46.0,41.0,37.0,33.0,37.0,39.0,47.0,41.0,36.0,32.0,30.0,26.0,22.0,21.0,27.0,25.0,33.0,29.0,25.0,24.0,22.0,24.0,29.0,28.0,29.0,36.0,45.0,49.0,58.0,62.0,55.0,60.0,55.0,48.0,44.0,40.0,46.0,41.0,37.0,36.0,35.0,32.0,51.0,46.0,41.0,40.0,44.0,47.0,49.0,54.0,47.0,48.0,49.0,51.0,44.0,42.0,53.0,47.0,43.0,39.0,46.0,58.0,52.0,46.0,42.0,38.0,36.0,35.0,49.0,47.0,43.0,38.0,34.0,30.0,30.0,52.0,46.0,41.0,37.0,32.0,33.0,32.0,48.0,44.0,43.0,39.0,35.0,35.0,39.0,38.0,45.0,46.0,40.0,36.0,41.0,46.0,41.0,36.0,32.0,35.0,37.0,33.0,40.0,36.0,35.0,35.0,31.0,28.0,25.0,24.0,26.0,34.0,32.0,29.0,25.0,29.0,28.0,34.0,45.0,50.0,44.0,41.0,37.0,38.0,36.0,35.0,34.0,34.0,39.0,42.0,41.0,48.0,46.0,43.0,38.0,33.0,33.0,34.0,48.0,46.0,46.0,56.0,52.0,47.0,42.0,36.0,38.0,38.0,41.0,35.0,32.0,28.0,26.0,32.0,31.0,32.0,44.0,39.0,38.0,43.0,41.0,41.0,45.0,45.0,45.0,41.0,36.0,35.0,33.0,46.0,40.0,40.0,42.0,36.0,38.0,35.0,31.0,36.0,35.0,35.0,32.0,31.0,28.0,38.0,35.0,45.0,46.0,39.0,35.0,34.0,32.0,29.0,26.0,28.0,26.0,23.0,19.0,19.0,16.0,14.0,16.0,14.0,15.0,19.0,31.0,39.0,47.0,53.0,46.0,41.0,37.0,33.0,31.0,30.0,32.0,42.0,38.0,35.0,33.0,29.0,25.0,24.0,20.0,20.0,18.0,16.0,15.0,20.0,32.0,28.0,24.0,22.0,20.0,25.0,21.0,29.0,42.0,38.0,34.0,33.0,29.0,33.0,40.0,49.0,45.0,39.0,35.0,45.0,39.0,39.0,39.0,34.0,42.0,40.0,36.0,32.0,30.0,24.0,24.0,23.0,25.0,26.0,23.0,22.0,18.0,17.0,17.0,19.0,19.0,20.0,35.0,32.0,29.0,27.0,24.0,25.0,27.0,25.0,20.0,20.0,20.0,27.0,25.0,23.0,27.0,22.0,22.0,21.0,19.0,18.0,15.0,15.0,14.0,25.0,22.0,24.0,23.0,23.0,21.0,22.0,21.0,31.0,31.0,30.0,28.0,26.0,26.0,24.0,22.0,19.0,16.0,25.0,38.0,42.0,39.0,38.0,34.0,31.0,27.0,26.0,26.0,23.0,23.0,24.0,34.0,31.0,31.0,28.0,25.0,22.0,21.0,19.0,24.0,29.0,30.0,27.0,24.0,21.0,20.0,25.0,46.0,42.0,37.0,32.0,28.0,28.0,26.0,26.0,22.0,31.0,45.0,41.0,36.0,32.0,32.0,28.0,28.0,24.0,26.0,27.0,37.0,35.0,30.0,32.0,29.0,25.0,23.0,21.0,25.0,36.0,32.0,29.0,26.0,24.0,21.0,22.0,20.0,17.0,35.0,33.0,31.0,29.0,27.0,32.0,36.0,31.0,27.0,25.0,21.0,21.0,20.0,20.0,19.0,21.0,35.0,34.0,34.0,32.0,43.0,43.0,43.0,37.0,33.0,31.0,26.0,23.0,21.0,20.0,21.0,18.0,21.0,23.0,34.0,29.0,27.0,27.0,24.0,23.0,20.0,18.0,16.0,17.0,17.0,17.0,15.0,14.0,14.0,13.0,11.0,11.0,17.0,17.0,15.0,29.0,24.0,22.0,19.0,17.0,17.0,15.0,14.0,14.0,14.0,15.0,13.0,17.0,14.0,14.0,14.0,11.0,11.0,9.0,18.0,19.0,18.0,16.0,14.0,14.0,13.0,15.0,12.0,11.0,12.0,11.0,11.0,12.0,17.0,14.0,13.0,12.0,11.0,11.0,10.0,19.0,18.0,19.0,17.0,15.0,15.0,14.0,15.0,14.0,16.0,15.0,14.0,22.0,20.0,19.0,18.0,16.0,15.0,14.0,14.0,15.0,15.0,12.0,12.0,11.0,11.0,12.0,13.0,13.0,12.0,12.0,15.0,14.0,13.0,12.0,11.0,10.0,10.0,14.0,11.0,11.0,9.0,14.0,13.0,12.0,13.0,14.0,13.0,12.0,13.0,10.0,10.0,14.0,13.0,12.0,12.0,13.0,12.0,12.0,11.0,11.0,11.0,15.0,20.0,18.0,17.0,17.0,16.0,15.0,13.0,13.0,12.0,24.0,22.0,19.0,17.0,16.0,19.0,16.0,14.0,15.0,15.0,14.0,12.0,11.0,10.0,10.0,11.0,9.0,9.0,8.0,9.0,9.0,8.0,8.0,8.0,9.0,8.0,12.0,13.0,12.0,11.0,10.0,10.0,8.0,11.0,9.0,14.0,13.0,11.0,12.0,11.0,10.0,10.0,9.0,8.0,17.0,14.0,15.0,14.0,12.0,10.0,10.0,9.0,8.0,8.0,9.0,7.0,11.0,10.0,9.0,8.0,8.0,8.0,8.0,6.0,7.0,7.0,7.0,9.0,11.0,16.0,14.0,14.0,13.0,12.0,11.0,10.0,9.0,8.0,9.0,10.0,12.0,11.0,11.0,10.0,9.0,14.0,13.0,17.0,20.0,19.0,16.0,16.0,21.0,21.0,19.0,16.0,16.0,15.0,16.0,21.0,19.0,18.0,16.0,15.0,14.0,18.0,20.0,17.0,17.0,17.0,15.0,14.0,15.0,13.0,15.0,15.0,15.0,15.0,12.0,15.0,15.0,13.0,12.0,11.0,11.0,10.0,13.0,11.0,13.0,12.0,12.0,13.0,18.0,20.0,21.0
97.0,99.0,109.0,102.0,101.0,98.0,91.0,105.0,108.0,111.0,118.0,115.0,121.0,114.0,116.0,109.0,107.0,106.0,102.0,94.0,93.0,96.0,93.0,95.0,91.0,88.0,91.0,98.0,93.0,90.0,94.0,93.0,98.0,98.0,95.0,88.0,83.0,99.0,116.0,123.0,122.0,116.0,121.0,122.0,129.0,183.0,189.0,190.0,200.0,218.0,209.0,202.0,206.0,267.0,295.0,277.0,279.0,266.0,280.0,275.0,299.0,298.0,354.0,417.0,408.0,419.0,430.0,445.0,420.0,442.0,439.0,421.0,420.0,524.0,498.0,569.0,614.0,588.0,572.0,575.0,572.0,668.0,648.0,626.0,630.0,630.0,598.0,568.0,571.0,580.0,541.0,518.0,503.0,482.0,458.0,492.0,467.0,452.0,424.0,425.0,392.0,437.0,435.0,423.0,434.0,432.0,438.0,435.0,403.0,412.0,396.0,399.0,375.0,348.0,349.0,351.0,351.0,401.0,394.0,375.0,384.0,365.0,357.0,361.0,365.0,369.0,391.0,384.0,353.0,337.0,346.0,364.0,378.0,369.0,363.0,331.0,339.0,345.0,374.0,371.0,382.0,383.0,359.0,353.0,341.0,330.0,331.0,327.0,321.0,333.0,322.0,309.0,300.0,281.0,276.0,265.0,283.0,288.0,303.0,322.0,310.0,304.0,292.0,312.0,296.0,300.0,313.0,319.0,298.0,303.0,291.0,314.0,328.0,306.0,290.0,270.0,252.0,251.0,259.0,258.0,274.0,263.0,245.0,265.0,259.0,259.0,287.0,278.0,279.0,274.0,266.0,245.0,237.0,270.0,269.0,250.0,247.0,230.0,260.0,242.0,240.0,252.0,292.0,305.0,287.0,265.0,251.0,249.0,232.0,246.0,246.0,283.0,275.0,261.0,247.0,235.0,233.0,229.0,218.0,210.0,204.0,201.0,234.0,228.0,220.0,212.0,231.0,243.0,275.0,265.0,276.0,272.0,265.0,264.0,273.0,261.0,255.0,252.0,248.0,237.0,241.0,230.0,227.0,214.0,223.0,274.0,255.0,247.0,227.0,212.0,205.0,210.0,209.0,216.0,221.0,206.0,210.0,202.0,208.0,193.0,178.0,166.0,161.0,152.0,147.0,148.0,143.0,142.0,138.0,163.0,158.0,155.0,146.0,144.0,143.0,147.0,139.0,141.0,145.0,146.0,134.0,144.0,139.0,136.0,139.0,140.0,138.0,145.0,147.0,152.0,144.0,165.0,170.0,167.0,152.0,152.0,155.0,146.0,148.0,153.0,140.0,141.0,151.0,139.0,149.0,145.0,132.0,131.0,144.0,162.0,152.0,145.0,169.0,172.0,158.0,148.0,162.0,149.0,135.0,127.0,145.0,138.0,147.0,143.0,131.0,143.0,143.0,143.0,132.0,137.0,138.0,127.0,116.0,120.0,116.0,122.0,125.0,123.0,121.0,115.0,112.0,104.0,103.0,102.0,100.0,109.0,113.0,113.0,117.0,116.0,118.0,116.0,119.0,121.0,121.0,119.0,128.0,125.0,119.0,148.0,146.0,137.0,149.0,152.0,144.0,147.0,152.0,141.0,144.0,137.0,134.0,132.0,130.0,134.0,129.0,119.0,128.0,135.0,128.0,129.0,130.0,135.0,151.0,135.0,132.0,136.0,135.0,127.0,135.0,127.0,123.0,117.0,129.0,130.0,135.0,143.0,148.0,155.0,146.0,144.0,138.0,135.0,140.0,143.0,133.0,124.0,141.0,143.0,140.0,137.0,153.0,152.0,140.0,135.0,133.0,139.0,147.0,140.0,148.0,144.0,151.0,141.0,153.0,156.0,151.0,158.0,160.0,152.0,150.0,136.0,128.0,125.0,124.0,122.0,117.0,127.0,135.0,124.0,118.0,110.0,110.0,115.0,120.0,113.0,110.0,132.0,142.0,140.0,128.0,123.0,123.0,120.0,117.0,118.0,122.0,126.0,120.0,126.0,118.0,127.0,127.0,130.0,140.0,143.0,142.0,132.0,125.0,123.0,116.0,110.0,119.0,125.0,120.0,133.0,140.0,142.0,137.0,126.0,148.0,153.0,155.0,168.0,154.0,164.0,171.0,157.0,154.0,166.0,159.0,166.0,160.0,157.0,152.0,145.0,139.0,138.0,128.0,127.0,139.0,149.0,143.0,149.0,143.0,144.0,141.0,137.0,129.0,123.0,113.0,125.0,140.0,140.0,146.0,141.0,147.0,151.0,146.0,148.0,146.0,145.0,167.0,169.0,171.0,174.0,165.0,166.0,163.0,153.0,151.0,140.0,165.0,153.0,158.0,156.0,149.0,152.0,149.0,163.0,158.0,174.0,173.0,179.0,166.0,164.0,173.0,163.0,149.0,192.0,190.0,191.0,177.0,181.0,167.0,163.0,163.0,170.0,162.0,161.0,156.0,152.0,174.0,165.0,162.0,163.0,177.0,177.0,175.0,167.0,163.0,154.0,185.0,178.0,166.0,153.0,142.0,138.0,138.0,132.0,130.0,153.0,153.0,160.0,161.0,159.0,164.0,177.0,183.0,166.0,178.0,164.0,167.0,174.0,159.0,168.0,172.0,170.0,167.0,155.0,159.0,148.0,160.0,157.0,158.0,162.0,152.0,151.0,142.0,158.0,150.0,150.0,147.0,156.0,157.0,145.0,160.0,148.0,150.0,169.0,159.0,180.0,171.0,164.0,170.0,168.0,165.0,152.0,151.0,151.0,146.0,150.0,158.0,175.0,186.0,176.0,179.0,177.0,166.0,166.0,150.0,159.0,148.0,162.0,167.0,167.0,153.0,151.0,145.0,137.0,152.0,150.0,151.0,144.0,154.0,159.0,146.0,141.0,134.0,143.0,137.0,134.0,131.0,130.0,124.0,134.0,139.0,132.0,129.0,126.0,125.0,116.0,121.0,118.0,110.0,108.0,109.0,110.0,112.0,110.0,110.0,121.0,118.0,114.0,116.0,115.0,109.0,114.0,119.0,112.0,111.0,120.0,117.0,121.0,124.0,121.0,130.0,135.0,128.0,121.0,127.0,131.0,126.0,124.0,122.0,119.0,126.0,126.0,116.0,116.0,113.0,117.0,125.0,119.0,115.0,118.0,110.0,115.0,115.0,109.0,107.0,120.0,120.0,118.0,112.0,114.0,112.0,128.0,127.0,127.0,117.0,113.0,105.0,106.0,110.0,109.0,105.0,104.0,99.0,98.0,100.0,100.0,95.0,88.0,82.0,77.0,72.0,71.0,79.0,81.0,79.0,86.0,98.0,100.0,111.0,111.0,103.0,113.0,126.0,120.0,114.0,105.0,99.0,114.0,114.0,126.0,123.0,118.0,114.0,114.0,125.0,120.0,109.0,100.0,93.0,96.0,100.0,120.0,127.0,123.0,115.0,113.0,114.0,117.0,122.0,114.0,110.0,108.0,122.0,123.0,111.0,105.0,98.0,94.0,100.0,97.0,102.0,102.0,107.0,106.0,96.0,100.0,103.0,103.0,96.0,93.0,114.0,119.0,113.0,107.0,106.0,105.0,110.0,113.0,106.0,101.0,97.0,90.0,100.0,101.0,105.0,102.0,107.0,107.0,101.0,94.0,96.0,119.0,135.0,125.0,115.0,110.0,109.0,117.0,120.0,114.0,139.0,134.0,130.0,122.0,124.0,124.0,119.0,121.0,115.0,129.0,131.0,119.0,121.0,128.0,133.0,133.0,129.0,125.0,122.0,114.0,114.0,111.0,107.0,104.0,101.0,108.0,107.0,104.0,100.0,101.0,102.0,97.0,100.0,93.0,85.0,86.0,97.0,99.0,96.0,94.0,97.0,94.0,90.0,96.0,94.0,89.0,95.0,89.0,84.0,84.0,91.0,102.0,99.0,100.0,92.0,88.0,87.0,86.0,95.0,90.0,90.0,90.0,100.0,100.0,104.0,98.0,97.0,100.0,107.0,110.0,124.0,114.0,106.0,106.0,111.0,117.0,112.0,110.0,102.0,100.0,95.0,95.0,106.0,103.0,103.0,98.0,98.0,99.0,109.0,106.0,102.0,101.0,100.0,100.0,103.0,103.0,95.0,88.0,107.0,111.0,102.0,103.0,103.0,95.0,94.0,98.0,98.0,91.0,89.0,97.0,118.0,124.0,116.0,108.0,118.0,124.0,124.0,117.0,112.0,110.0,109.0,107.0,126.0,120.0,111.0,113.0,105.0,99.0,117.0,121.0,126.0,124.0,112.0,108.0,108.0,133.0,127.0,116.0,110.0,105.0,99.0,103.0,107.0,107.0,100.0,99.0,94.0,96.0,96.0,90.0,89.0,103.0,97.0,104.0,97.0,95.0,90.0,88.0,85.0,88.0,92.0,105.0,100.0,98.0,103.0,105.0
