45.0,45.0,46.0,46.0,46.0,48.0,47.0,47.0,46.0,46.0,46.0,45.0,44.0,45.0,44.0,44.0,44.0,44.0,43.0,44.0,43.0,44.0,43.0,43.0,43.0,44.0,44.0,45.0,45.0,46.0,46.0,47.0,49.0,50.0,52.0,51.0,51.0,52.0,53.0,54.0,54.0,54.0,53.0,52.0,53.0,54.0,52.0,53.0,53.0,52.0,51.0,51.0,51.0,51.0,49.0,47.0,48.0,48.0,49.0,51.0,50.0,49.0,50.0,50.0,52.0,53.0,54.0,59.0,59.0,61.0,62.0,61.0,64.0,75.0,99.0,98.0,105.0,114.0,126.0,155.0,203.0,237.0,259.0,265.0,325.0,355.0,397.0,361.0,369.0,371.0,352.0,332.0,299.0,266.0,240.0,227.0,222.0,207.0,192.0,194.0,189.0,176.0,166.0,158.0,149.0,150.0,141.0,134.0,128.0,120.0,115.0,110.0,109.0,109.0,106.0,111.0,104.0,100.0,98.0,97.0,93.0,89.0,87.0,81.0,80.0,77.0,77.0,75.0,73.0,71.0,71.0,70.0,67.0,67.0,64.0,63.0,62.0,61.0,62.0,61.0,62.0,61.0,66.0,64.0,62.0,65.0,64.0,64.0,66.0,69.0,69.0,70.0,66.0,64.0,64.0,64.0,68.0,66.0,66.0,66.0,67.0,65.0,64.0,63.0,62.0,61.0,59.0,61.0,63.0,61.0,60.0,59.0,57.0,57.0,59.0,59.0,58.0,58.0,59.0,62.0,61.0,58.0,58.0,58.0,61.0,59.0,58.0,56.0,55.0,57.0,54.0,55.0,55.0,54.0,54.0,55.0,57.0,55.0,56.0,57.0,56.0,56.0,53.0,54.0,52.0,56.0,54.0,53.0,55.0,56.0,57.0,55.0,53.0,53.0,54.0,54.0,56.0,56.0,55.0,57.0,58.0,56.0,56.0,56.0,57.0,56.0,58.0,61.0,62.0,63.0,63.0,63.0,62.0,60.0,59.0,61.0,61.0,60.0,62.0,63.0,61.0,62.0,65.0,67.0,85.0,88.0,90.0,94.0,103.0,110.0,111.0,116.0,117.0,120.0,124.0,128.0,129.0,124.0,128.0,135.0,132.0,133.0,137.0,140.0,139.0,145.0,144.0,144.0,145.0,146.0,144.0,144.0,141.0,140.0,135.0,134.0,130.0,126.0,125.0,121.0,118.0,113.0,111.0,105.0,103.0,101.0,99.0,96.0,94.0,94.0,93.0,91.0,91.0,89.0,91.0,89.0,87.0,87.0,87.0,89.0,87.0,87.0,87.0,86.0,86.0,85.0,84.0,84.0,85.0,83.0,83.0,84.0,81.0,81.0,80.0,80.0,78.0,80.0,80.0,79.0,80.0,79.0,79.0,79.0,78.0,77.0,76.0,76.0,73.0,74.0,71.0,73.0,71.0,70.0,69.0,67.0,68.0,68.0,68.0,67.0,67.0,65.0,64.0,65.0,62.0,62.0,60.0,61.0,60.0,60.0,59.0,58.0,55.0,54.0,51.0,52.0,52.0,52.0,50.0,50.0,51.0,51.0,51.0,52.0,52.0,50.0,51.0,52.0,51.0,52.0,52.0,53.0,52.0,52.0,54.0,55.0,56.0,55.0,57.0,55.0,55.0,54.0,53.0,53.0,52.0,54.0,51.0,52.0,51.0,50.0,50.0,50.0,52.0,52.0,52.0,52.0,52.0,51.0,52.0,54.0,52.0,52.0,55.0,55.0,57.0,55.0,56.0,57.0,57.0,58.0,57.0,56.0,57.0,59.0,57.0,57.0,55.0,57.0,55.0,53.0,55.0,54.0,55.0,57.0,59.0,58.0,61.0,61.0,60.0,62.0,63.0,64.0,63.0,64.0,63.0,63.0,63.0,63.0,63.0,63.0,63.0,64.0,64.0,64.0,67.0,67.0,67.0,67.0,65.0,65.0,64.0,62.0,61.0,62.0,61.0,65.0,66.0,63.0,67.0,64.0,64.0,64.0,64.0,61.0,60.0,59.0,58.0,57.0,57.0,58.0,58.0,55.0,57.0,55.0,55.0,55.0,56.0,57.0,55.0,55.0,56.0,57.0,56.0,58.0,58.0,56.0,58.0,58.0,59.0,58.0,61.0,60.0,60.0,58.0,56.0,57.0,55.0,54.0,56.0,55.0,56.0,56.0,57.0,58.0,59.0,59.0,60.0,61.0,63.0,63.0,64.0,63.0,62.0,62.0,64.0,64.0,65.0,63.0,64.0,64.0,64.0,63.0,62.0,61.0,60.0,62.0,63.0,63.0,64.0,63.0,65.0,65.0,67.0,67.0,67.0,67.0,65.0,65.0,65.0,66.0,66.0,65.0,67.0,68.0,67.0,68.0,68.0,68.0,68.0,69.0,67.0,66.0,68.0,66.0,66.0,66.0,63.0,62.0,63.0,61.0,61.0,61.0,58.0,60.0,58.0,58.0,59.0,59.0,59.0,58.0,59.0,59.0,59.0,61.0,62.0,63.0,64.0,66.0,65.0,63.0,64.0,65.0,65.0,64.0,65.0,64.0,64.0,64.0,65.0,64.0,64.0,65.0,63.0,64.0,63.0,64.0,64.0,63.0,63.0,62.0,61.0,62.0,61.0,62.0,62.0,61.0,61.0,62.0,62.0,63.0,63.0,64.0,63.0,63.0,62.0,61.0,60.0,61.0,60.0,60.0,59.0,59.0,58.0,58.0,58.0,56.0,58.0,58.0,59.0,61.0,59.0,60.0,58.0,59.0,59.0,58.0,59.0,59.0,59.0,59.0,60.0,59.0,58.0,58.0,57.0,59.0,57.0,60.0,59.0,61.0,61.0,61.0,60.0,58.0,58.0,57.0,58.0,57.0,59.0,58.0,60.0,60.0,60.0,60.0,62.0,62.0,63.0,63.0,63.0,63.0,64.0,64.0,65.0,68.0,67.0,66.0,65.0,64.0,63.0,63.0,62.0,62.0,63.0,64.0,64.0,64.0,65.0,66.0,64.0,63.0,62.0,62.0,61.0,60.0,61.0,60.0,61.0,60.0,60.0,60.0,60.0,62.0,60.0,59.0,60.0,61.0,59.0,60.0,60.0,60.0,60.0,60.0,61.0,61.0,62.0,64.0,63.0,63.0,64.0,65.0,67.0,66.0,68.0,65.0,66.0,67.0,66.0,65.0,66.0,66.0,64.0,63.0,61.0,59.0,60.0,57.0,58.0,55.0,56.0,56.0,56.0,56.0,59.0,59.0,58.0,57.0,58.0,58.0,58.0,59.0,58.0,58.0,59.0,57.0,56.0,55.0,56.0,56.0,54.0,53.0,52.0,52.0,52.0,51.0,52.0,50.0,50.0,50.0,49.0,51.0,51.0,54.0,54.0,55.0,55.0,56.0,54.0,54.0,53.0,52.0,51.0,50.0,49.0,48.0,47.0,50.0,52.0,53.0,54.0,54.0,56.0,56.0,57.0,57.0,60.0,59.0,60.0,61.0,63.0,64.0,64.0,63.0,64.0,64.0,64.0,63.0,65.0,64.0,64.0,64.0,65.0,66.0,65.0,67.0,66.0,66.0,64.0,64.0,63.0,63.0,64.0,61.0,63.0,62.0,64.0,64.0,65.0,66.0,65.0,67.0,66.0,65.0,65.0,64.0,65.0,62.0,63.0,62.0,60.0,61.0,59.0,61.0,60.0,59.0,60.0,59.0,60.0,61.0,62.0,63.0,63.0,63.0,63.0,63.0,62.0,61.0,60.0,59.0,58.0,59.0,58.0,57.0,55.0,55.0,55.0,57.0,57.0,58.0,60.0,60.0,60.0,60.0,60.0,59.0,60.0,59.0,61.0,62.0,64.0,64.0,66.0,68.0,69.0,71.0,72.0,73.0,75.0,76.0,77.0,75.0,76.0,72.0,73.0,70.0,68.0,69.0,69.0,70.0,68.0,67.0,65.0,66.0,66.0,66.0,66.0,65.0,66.0,66.0,67.0,66.0,67.0,68.0,66.0,65.0,64.0,64.0,63.0,63.0,64.0,62.0,63.0,64.0,63.0,65.0,64.0,64.0,61.0,61.0,61.0,60.0,58.0,57.0,57.0,56.0,57.0,56.0,55.0,54.0,53.0,55.0,55.0,57.0,55.0,56.0,55.0,57.0,59.0,60.0,62.0,61.0,62.0,63.0,63.0,63.0,61.0,63.0,60.0,59.0,59.0,57.0,57.0,56.0,55.0,54.0,53.0,53.0,50.0,51.0,49.0,49.0,49.0,48.0,47.0,45.0,47.0,45.0,46.0,45.0,45.0,44.0,44.0,45.0,44.0,44.0,43.0,45.0,46.0,45.0,47.0,46.0,47.0,48.0,49.0,50.0,48.0,49.0,50.0,51.0,50.0,49.0
42.0,42.0,42.0,42.0,42.0,40.0,40.0,39.0,38.0,37.0,38.0,36.0,38.0,39.0,38.0,37.0,37.0,37.0,36.0,36.0,38.0,40.0,39.0,37.0,38.0,38.0,37.0,38.0,36.0,38.0,37.0,40.0,42.0,43.0,43.0,41.0,41.0,40.0,40.0,40.0,40.0,39.0,38.0,37.0,40.0,41.0,39.0,40.0,42.0,42.0,41.0,41.0,41.0,39.0,39.0,38.0,39.0,38.0,38.0,39.0,36.0,36.0,36.0,35.0,35.0,35.0,37.0,35.0,39.0,40.0,40.0,40.0,49.0,68.0,84.0,87.0,107.0,137.0,147.0,181.0,192.0,234.0,289.0,293.0,357.0,388.0,407.0,379.0,394.0,386.0,355.0,345.0,320.0,293.0,278.0,260.0,253.0,263.0,250.0,230.0,215.0,208.0,191.0,180.0,185.0,178.0,181.0,169.0,156.0,154.0,145.0,141.0,143.0,143.0,135.0,138.0,128.0,122.0,122.0,115.0,119.0,122.0,126.0,122.0,122.0,135.0,131.0,124.0,125.0,122.0,114.0,110.0,112.0,105.0,99.0,106.0,100.0,102.0,107.0,102.0,102.0,98.0,101.0,99.0,94.0,103.0,98.0,95.0,96.0,97.0,98.0,101.0,102.0,99.0,99.0,97.0,99.0,98.0,92.0,89.0,88.0,101.0,99.0,94.0,92.0,87.0,84.0,84.0,90.0,90.0,85.0,83.0,79.0,87.0,89.0,85.0,91.0,89.0,85.0,80.0,76.0,73.0,79.0,86.0,89.0,86.0,89.0,83.0,78.0,73.0,71.0,69.0,66.0,62.0,65.0,68.0,72.0,82.0,77.0,74.0,70.0,66.0,64.0,59.0,63.0,61.0,68.0,65.0,63.0,72.0,73.0,69.0,78.0,80.0,78.0,75.0,70.0,67.0,65.0,62.0,62.0,62.0,66.0,70.0,81.0,80.0,76.0,76.0,72.0,70.0,71.0,75.0,78.0,77.0,74.0,70.0,69.0,69.0,69.0,67.0,71.0,75.0,70.0,71.0,76.0,80.0,77.0,75.0,73.0,73.0,68.0,65.0,65.0,70.0,77.0,87.0,93.0,94.0,105.0,115.0,115.0,119.0,126.0,127.0,123.0,124.0,116.0,114.0,110.0,107.0,100.0,98.0,94.0,89.0,83.0,79.0,74.0,70.0,69.0,68.0,64.0,62.0,62.0,61.0,59.0,59.0,59.0,57.0,56.0,56.0,56.0,54.0,52.0,52.0,51.0,49.0,49.0,48.0,46.0,44.0,46.0,46.0,48.0,46.0,47.0,46.0,48.0,46.0,46.0,46.0,44.0,45.0,44.0,44.0,44.0,43.0,46.0,47.0,47.0,45.0,44.0,44.0,45.0,46.0,44.0,45.0,43.0,43.0,43.0,45.0,44.0,42.0,43.0,44.0,44.0,44.0,46.0,46.0,46.0,46.0,46.0,46.0,46.0,46.0,46.0,46.0,46.0,47.0,46.0,45.0,47.0,47.0,45.0,45.0,46.0,44.0,45.0,45.0,47.0,46.0,46.0,46.0,50.0,50.0,49.0,49.0,49.0,50.0,48.0,48.0,49.0,48.0,46.0,47.0,45.0,45.0,46.0,46.0,43.0,43.0,41.0,41.0,43.0,42.0,42.0,44.0,42.0,42.0,41.0,40.0,39.0,41.0,40.0,39.0,39.0,39.0,39.0,39.0,39.0,40.0,40.0,40.0,41.0,42.0,42.0,40.0,41.0,41.0,40.0,40.0,39.0,41.0,41.0,42.0,40.0,41.0,42.0,43.0,43.0,45.0,46.0,48.0,49.0,49.0,50.0,51.0,50.0,49.0,50.0,49.0,47.0,47.0,48.0,46.0,48.0,47.0,47.0,47.0,47.0,45.0,45.0,46.0,49.0,48.0,48.0,49.0,48.0,49.0,51.0,48.0,48.0,46.0,47.0,46.0,47.0,45.0,43.0,45.0,43.0,44.0,46.0,45.0,45.0,45.0,46.0,46.0,45.0,46.0,49.0,51.0,51.0,52.0,52.0,51.0,50.0,51.0,51.0,49.0,49.0,49.0,48.0,46.0,46.0,46.0,46.0,44.0,43.0,45.0,43.0,43.0,42.0,42.0,42.0,41.0,43.0,44.0,43.0,44.0,43.0,43.0,43.0,43.0,43.0,44.0,48.0,48.0,48.0,49.0,49.0,48.0,49.0,51.0,52.0,54.0,53.0,55.0,53.0,56.0,54.0,54.0,53.0,53.0,54.0,52.0,53.0,50.0,51.0,51.0,51.0,51.0,49.0,48.0,46.0,47.0,48.0,45.0,45.0,44.0,46.0,43.0,42.0,43.0,41.0,44.0,42.0,42.0,41.0,40.0,42.0,41.0,41.0,39.0,40.0,39.0,38.0,38.0,37.0,39.0,38.0,37.0,37.0,36.0,36.0,36.0,40.0,38.0,39.0,37.0,36.0,36.0,35.0,37.0,37.0,39.0,40.0,39.0,40.0,39.0,41.0,42.0,42.0,42.0,42.0,40.0,39.0,40.0,39.0,43.0,41.0,39.0,39.0,39.0,41.0,40.0,40.0,40.0,39.0,39.0,39.0,39.0,38.0,38.0,37.0,38.0,39.0,37.0,38.0,36.0,37.0,37.0,36.0,36.0,37.0,38.0,39.0,38.0,39.0,41.0,42.0,42.0,43.0,42.0,42.0,42.0,40.0,40.0,42.0,41.0,40.0,39.0,38.0,38.0,38.0,39.0,40.0,38.0,40.0,38.0,38.0,39.0,40.0,39.0,40.0,41.0,41.0,41.0,44.0,43.0,45.0,46.0,46.0,47.0,50.0,56.0,67.0,80.0,88.0,99.0,107.0,115.0,123.0,129.0,137.0,142.0,147.0,152.0,155.0,159.0,160.0,164.0,166.0,167.0,168.0,169.0,170.0,171.0,172.0,170.0,172.0,170.0,169.0,167.0,165.0,165.0,162.0,161.0,157.0,152.0,149.0,145.0,142.0,139.0,138.0,135.0,132.0,131.0,129.0,127.0,126.0,124.0,125.0,123.0,121.0,121.0,119.0,115.0,114.0,113.0,111.0,109.0,108.0,109.0,106.0,108.0,105.0,104.0,101.0,100.0,99.0,96.0,96.0,95.0,94.0,94.0,93.0,92.0,90.0,90.0,87.0,85.0,85.0,82.0,82.0,80.0,80.0,81.0,81.0,82.0,79.0,78.0,78.0,77.0,74.0,73.0,70.0,71.0,70.0,70.0,70.0,69.0,72.0,71.0,72.0,73.0,72.0,72.0,70.0,71.0,71.0,72.0,73.0,72.0,74.0,74.0,72.0,74.0,74.0,74.0,74.0,73.0,73.0,74.0,74.0,77.0,77.0,76.0,78.0,78.0,77.0,77.0,77.0,77.0,75.0,76.0,74.0,74.0,72.0,71.0,70.0,71.0,67.0,67.0,65.0,63.0,63.0,64.0,62.0,62.0,61.0,62.0,63.0,64.0,65.0,63.0,63.0,64.0,63.0,64.0,63.0,63.0,62.0,63.0,64.0,62.0,62.0,61.0,64.0,63.0,63.0,62.0,59.0,61.0,59.0,60.0,58.0,58.0,57.0,55.0,56.0,53.0,53.0,54.0,52.0,52.0,51.0,53.0,54.0,53.0,51.0,51.0,51.0,50.0,50.0,52.0,52.0,52.0,50.0,50.0,49.0,49.0,49.0,49.0,48.0,48.0,49.0,50.0,48.0,48.0,49.0,46.0,47.0,46.0,45.0,45.0,45.0,47.0,44.0,47.0,47.0,48.0,48.0,47.0,48.0,47.0,49.0,47.0,44.0,43.0,43.0,42.0,44.0,44.0,45.0,45.0,44.0,45.0,46.0,45.0,44.0,46.0,46.0,47.0,47.0,48.0,49.0,48.0,48.0,46.0,48.0,48.0,50.0,50.0,48.0,48.0,51.0,51.0,50.0,52.0,52.0,52.0,52.0,50.0,54.0,54.0,55.0,55.0,56.0,56.0,55.0,55.0,53.0,53.0,53.0,51.0,51.0,50.0,51.0,52.0,51.0,52.0,51.0,51.0,49.0,48.0,48.0,50.0,49.0,48.0,50.0,50.0,51.0,51.0,54.0,52.0,52.0,51.0,51.0,51.0,49.0,53.0,52.0,51.0,52.0,49.0,49.0,49.0,51.0,50.0,49.0,50.0,49.0,48.0,49.0,49.0,47.0,46.0,47.0,47.0,47.0,48.0,48.0,48.0,48.0,50.0,50.0,51.0,53.0,53.0,51.0,52.0,50.0,50.0,52.0,50.0,49.0,47.0,47.0,46.0,46.0,46.0,45.0,47.0,45.0,45.0,47.0,46.0,46.0,47.0,46.0,46.0
19.0,30.0,26.0,22.0,25.0,23.0,25.0,21.0,18.0,17.0,15.0,14.0,16.0,27.0,34.0,30.0,26.0,23.0,21.0,18.0,19.0,29.0,30.0,27.0,24.0,22.0,20.0,19.0,16.0,16.0,15.0,24.0,28.0,25.0,24.0,22.0,27.0,27.0,33.0,41.0,36.0,33.0,30.0,28.0,33.0,29.0,32.0,29.0,41.0,35.0,30.0,28.0,25.0,24.0,24.0,22.0,21.0,22.0,21.0,19.0,19.0,17.0,18.0,16.0,14.0,12.0,11.0,17.0,35.0,38.0,32.0,29.0,27.0,24.0,23.0,21.0,25.0,32.0,35.0,52.0,57.0,67.0,63.0,63.0,80.0,84.0,81.0,94.0,97.0,97.0,97.0,91.0,80.0,81.0,85.0,81.0,83.0,84.0,93.0,98.0,99.0,91.0,86.0,85.0,87.0,82.0,90.0,99.0,94.0,108.0,101.0,95.0,107.0,99.0,91.0,83.0,74.0,89.0,81.0,74.0,113.0,108.0,97.0,95.0,85.0,77.0,72.0,72.0,68.0,84.0,92.0,88.0,80.0,72.0,64.0,62.0,64.0,58.0,51.0,53.0,64.0,60.0,63.0,74.0,74.0,85.0,78.0,78.0,74.0,71.0,67.0,65.0,60.0,58.0,56.0,50.0,47.0,48.0,47.0,44.0,47.0,48.0,47.0,43.0,39.0,67.0,73.0,65.0,61.0,56.0,53.0,51.0,51.0,59.0,51.0,46.0,44.0,42.0,39.0,35.0,31.0,29.0,30.0,39.0,48.0,51.0,54.0,49.0,45.0,43.0,43.0,65.0,60.0,56.0,56.0,51.0,51.0,54.0,66.0,61.0,64.0,60.0,57.0,51.0,46.0,45.0,42.0,43.0,38.0,34.0,31.0,27.0,28.0,30.0,37.0,39.0,39.0,37.0,42.0,45.0,46.0,41.0,47.0,45.0,53.0,46.0,42.0,42.0,39.0,37.0,36.0,33.0,30.0,33.0,33.0,31.0,33.0,35.0,35.0,30.0,30.0,50.0,59.0,59.0,77.0,109.0,158.0,173.0,177.0,166.0,149.0,132.0,150.0,148.0,144.0,136.0,175.0,197.0,221.0,209.0,204.0,207.0,186.0,170.0,179.0,162.0,155.0,172.0,168.0,147.0,133.0,128.0,125.0,118.0,106.0,94.0,83.0,98.0,102.0,96.0,92.0,91.0,82.0,89.0,85.0,82.0,74.0,82.0,82.0,96.0,91.0,84.0,80.0,70.0,67.0,64.0,58.0,65.0,67.0,63.0,65.0,88.0,80.0,79.0,70.0,67.0,72.0,65.0,65.0,62.0,55.0,58.0,56.0,67.0,63.0,60.0,59.0,53.0,51.0,47.0,46.0,43.0,63.0,61.0,62.0,63.0,55.0,50.0,46.0,49.0,42.0,38.0,35.0,42.0,41.0,37.0,45.0,40.0,42.0,37.0,34.0,33.0,31.0,32.0,28.0,41.0,41.0,37.0,40.0,36.0,50.0,50.0,46.0,43.0,43.0,41.0,41.0,42.0,46.0,49.0,45.0,40.0,47.0,53.0,46.0,41.0,37.0,41.0,40.0,39.0,41.0,41.0,35.0,33.0,29.0,28.0,31.0,47.0,43.0,36.0,34.0,33.0,39.0,42.0,55.0,54.0,58.0,54.0,53.0,54.0,61.0,63.0,75.0,73.0,77.0,73.0,69.0,77.0,68.0,83.0,82.0,79.0,77.0,91.0,90.0,84.0,80.0,84.0,78.0,69.0,65.0,66.0,69.0,69.0,62.0,64.0,59.0,66.0,68.0,67.0,62.0,66.0,68.0,66.0,62.0,62.0,57.0,51.0,50.0,64.0,59.0,54.0,56.0,49.0,51.0,56.0,52.0,49.0,46.0,40.0,41.0,39.0,40.0,44.0,43.0,44.0,43.0,40.0,49.0,55.0,56.0,50.0,44.0,49.0,47.0,52.0,46.0,42.0,38.0,39.0,36.0,32.0,40.0,39.0,36.0,36.0,33.0,34.0,31.0,43.0,46.0,48.0,51.0,44.0,40.0,45.0,49.0,42.0,38.0,36.0,42.0,45.0,47.0,50.0,45.0,39.0,37.0,43.0,42.0,43.0,47.0,44.0,48.0,50.0,48.0,48.0,45.0,45.0,39.0,35.0,31.0,31.0,28.0,24.0,37.0,38.0,40.0,39.0,35.0,33.0,31.0,32.0,38.0,48.0,44.0,45.0,46.0,44.0,56.0,49.0,46.0,43.0,39.0,39.0,48.0,50.0,52.0,49.0,45.0,47.0,48.0,47.0,43.0,40.0,44.0,39.0,34.0,34.0,33.0,31.0,31.0,37.0,32.0,29.0,30.0,27.0,28.0,24.0,43.0,47.0,41.0,38.0,39.0,38.0,34.0,30.0,32.0,46.0,41.0,36.0,33.0,28.0,25.0,23.0,32.0,31.0,27.0,26.0,23.0,21.0,22.0,19.0,24.0,33.0,34.0,34.0,31.0,30.0,32.0,43.0,47.0,43.0,37.0,32.0,29.0,26.0,23.0,31.0,30.0,27.0,26.0,23.0,22.0,20.0,18.0,24.0,20.0,19.0,17.0,16.0,19.0,24.0,21.0,26.0,33.0,29.0,27.0,25.0,25.0,25.0,21.0,24.0,32.0,30.0,27.0,25.0,23.0,21.0,22.0,33.0,34.0,31.0,29.0,26.0,24.0,37.0,32.0,30.0,28.0,24.0,22.0,20.0,18.0,33.0,31.0,32.0,30.0,27.0,25.0,36.0,33.0,28.0,27.0,27.0,27.0,25.0,32.0,34.0,30.0,28.0,24.0,21.0,19.0,18.0,15.0,19.0,29.0,29.0,30.0,28.0,23.0,23.0,21.0,18.0,16.0,31.0,34.0,39.0,36.0,33.0,30.0,37.0,40.0,35.0,31.0,36.0,33.0,29.0,31.0,37.0,34.0,32.0,29.0,30.0,27.0,30.0,36.0,35.0,30.0,28.0,28.0,27.0,28.0,35.0,33.0,29.0,31.0,31.0,34.0,30.0,44.0,39.0,34.0,31.0,31.0,29.0,25.0,42.0,40.0,38.0,33.0,32.0,28.0,29.0,32.0,28.0,24.0,24.0,21.0,19.0,38.0,41.0,36.0,32.0,29.0,25.0,23.0,28.0,39.0,35.0,34.0,30.0,26.0,25.0,23.0,23.0,28.0,26.0,26.0,22.0,22.0,23.0,29.0,28.0,24.0,22.0,18.0,22.0,20.0,17.0,27.0,28.0,35.0,30.0,26.0,27.0,24.0,38.0,33.0,30.0,27.0,25.0,21.0,19.0,17.0,26.0,29.0,27.0,25.0,23.0,21.0,20.0,20.0,35.0,37.0,36.0,31.0,28.0,26.0,24.0,22.0,21.0,19.0,25.0,26.0,26.0,25.0,23.0,20.0,22.0,19.0,17.0,16.0,16.0,16.0,15.0,13.0,13.0,29.0,26.0,23.0,19.0,19.0,16.0,16.0,31.0,28.0,24.0,23.0,21.0,18.0,18.0,29.0,27.0,22.0,22.0,21.0,21.0,19.0,18.0,17.0,20.0,21.0,30.0,26.0,24.0,21.0,19.0,19.0,20.0,20.0,44.0,43.0,38.0,34.0,35.0,45.0,40.0,35.0,31.0,27.0,27.0,23.0,21.0,35.0,33.0,29.0,25.0,23.0,20.0,18.0,18.0,17.0,16.0,16.0,25.0,29.0,28.0,32.0,29.0,33.0,31.0,26.0,24.0,22.0,19.0,19.0,25.0,32.0,29.0,27.0,24.0,23.0,21.0,34.0,34.0,33.0,32.0,34.0,38.0,40.0,34.0,36.0,44.0,47.0,44.0,48.0,46.0,41.0,38.0,34.0,36.0,36.0,35.0,44.0,39.0,36.0,32.0,36.0,38.0,45.0,48.0,43.0,38.0,38.0,36.0,36.0,48.0,48.0,42.0,37.0,32.0,36.0,35.0,36.0,40.0,37.0,34.0,32.0,33.0,28.0,26.0,32.0,29.0,26.0,24.0,22.0,23.0,22.0,34.0,36.0,34.0,30.0,33.0,31.0,38.0,39.0,36.0,33.0,30.0,29.0,28.0,34.0,30.0,27.0,23.0,24.0,25.0,24.0,26.0,31.0,27.0,26.0,27.0,23.0,25.0,32.0,27.0,26.0,24.0,25.0,26.0,38.0,33.0,31.0,28.0,24.0,24.0,20.0,35.0,37.0,33.0,31.0,28.0,31.0,28.0,33.0,36.0,31.0,31.0,29.0,27.0,32.0,33.0,31.0,31.0,27.0,24.0,24.0,21.0,32.0,30.0,27.0,26.0,24.0,22.0,22.0,30.0,27.0,25.0
102.0,101.0,95.0,96.0,108.0,101.0,105.0,105.0,103.0,107.0,114.0,106.0,100.0,96.0,96.0,99.0,93.0,87.0,84.0,86.0,82.0,89.0,100.0,111.0,111.0,126.0,123.0,125.0,127.0,123.0,113.0,116.0,122.0,130.0,131.0,127.0,121.0,116.0,117.0,118.0,112.0,105.0,101.0,110.0,108.0,110.0,106.0,120.0,123.0,120.0,115.0,116.0,117.0,120.0,126.0,130.0,125.0,125.0,124.0,122.0,140.0,132.0,129.0,142.0,135.0,131.0,146.0,136.0,127.0,136.0,130.0,132.0,130.0,123.0,129.0,154.0,153.0,165.0,160.0,202.0,259.0,285.0,323.0,355.0,371.0,378.0,348.0,321.0,347.0,395.0,414.0,418.0,398.0,413.0,426.0,424.0,404.0,392.0,454.0,464.0,495.0,480.0,457.0,448.0,447.0,474.0,464.0,461.0,419.0,430.0,461.0,460.0,468.0,458.0,482.0,444.0,423.0,457.0,432.0,424.0,419.0,390.0,383.0,362.0,361.0,379.0,383.0,360.0,341.0,399.0,372.0,374.0,359.0,369.0,382.0,404.0,500.0,475.0,455.0,443.0,438.0,401.0,388.0,388.0,394.0,412.0,395.0,372.0,417.0,439.0,412.0,434.0,428.0,388.0,374.0,344.0,341.0,390.0,371.0,358.0,339.0,349.0,328.0,334.0,328.0,302.0,304.0,340.0,356.0,332.0,333.0,333.0,318.0,325.0,306.0,306.0,298.0,296.0,316.0,328.0,302.0,293.0,294.0,280.0,257.0,247.0,262.0,245.0,236.0,237.0,249.0,271.0,250.0,254.0,276.0,297.0,307.0,302.0,307.0,303.0,294.0,294.0,280.0,259.0,238.0,253.0,240.0,238.0,241.0,244.0,243.0,241.0,246.0,243.0,242.0,246.0,259.0,248.0,287.0,260.0,272.0,263.0,254.0,254.0,246.0,266.0,260.0,244.0,242.0,267.0,263.0,253.0,266.0,249.0,240.0,225.0,230.0,237.0,256.0,277.0,246.0,236.0,212.0,200.0,184.0,203.0,195.0,184.0,178.0,170.0,161.0,155.0,183.0,180.0,189.0,196.0,192.0,221.0,222.0,261.0,264.0,284.0,257.0,243.0,263.0,271.0,260.0,245.0,227.0,212.0,221.0,213.0,205.0,199.0,187.0,186.0,186.0,222.0,223.0,208.0,196.0,205.0,193.0,190.0,197.0,181.0,171.0,168.0,196.0,187.0,191.0,183.0,176.0,163.0,169.0,153.0,145.0,152.0,156.0,158.0,165.0,153.0,149.0,149.0,145.0,152.0,156.0,149.0,146.0,138.0,137.0,143.0,150.0,151.0,147.0,142.0,136.0,129.0,150.0,145.0,141.0,136.0,145.0,139.0,133.0,141.0,133.0,141.0,141.0,135.0,133.0,129.0,124.0,121.0,119.0,118.0,119.0,115.0,109.0,103.0,98.0,92.0,116.0,121.0,138.0,130.0,120.0,121.0,110.0,112.0,117.0,113.0,107.0,98.0,114.0,110.0,103.0,104.0,99.0,105.0,100.0,96.0,98.0,104.0,109.0,109.0,105.0,105.0,112.0,103.0,99.0,98.0,96.0,93.0,90.0,90.0,96.0,95.0,95.0,92.0,105.0,102.0,102.0,108.0,104.0,100.0,96.0,88.0,88.0,89.0,84.0,80.0,80.0,73.0,70.0,77.0,96.0,109.0,111.0,118.0,119.0,119.0,122.0,137.0,151.0,144.0,142.0,134.0,124.0,115.0,122.0,128.0,118.0,115.0,110.0,106.0,118.0,134.0,128.0,124.0,120.0,117.0,111.0,104.0,96.0,115.0,108.0,103.0,102.0,98.0,97.0,98.0,94.0,91.0,96.0,94.0,95.0,91.0,95.0,91.0,90.0,92.0,88.0,89.0,85.0,85.0,82.0,79.0,81.0,81.0,96.0,89.0,88.0,82.0,80.0,79.0,90.0,84.0,85.0,81.0,84.0,93.0,89.0,83.0,85.0,87.0,91.0,94.0,90.0,98.0,94.0,93.0,91.0,95.0,102.0,97.0,94.0,86.0,81.0,86.0,92.0,98.0,93.0,92.0,89.0,86.0,82.0,108.0,106.0,104.0,103.0,97.0,94.0,88.0,82.0,84.0,92.0,89.0,88.0,92.0,97.0,118.0,118.0,113.0,106.0,99.0,104.0,100.0,94.0,87.0,79.0,78.0,78.0,83.0,83.0,79.0,75.0,76.0,79.0,79.0,76.0,76.0,75.0,73.0,71.0,68.0,74.0,76.0,82.0,77.0,71.0,72.0,66.0,64.0,64.0,61.0,61.0,61.0,61.0,56.0,56.0,59.0,64.0,65.0,62.0,64.0,65.0,64.0,75.0,81.0,92.0,130.0,131.0,124.0,113.0,103.0,97.0,91.0,85.0,81.0,74.0,77.0,73.0,67.0,76.0,74.0,71.0,82.0,78.0,71.0,73.0,68.0,73.0,69.0,65.0,64.0,65.0,75.0,75.0,70.0,89.0,91.0,86.0,82.0,76.0,76.0,75.0,74.0,67.0,66.0,61.0,60.0,62.0,61.0,64.0,69.0,64.0,61.0,58.0,61.0,61.0,65.0,62.0,60.0,57.0,57.0,56.0,54.0,57.0,55.0,55.0,52.0,55.0,57.0,55.0,57.0,56.0,62.0,61.0,62.0,60.0,61.0,60.0,59.0,57.0,60.0,59.0,58.0,56.0,54.0,52.0,52.0,52.0,57.0,58.0,60.0,61.0,57.0,62.0,62.0,58.0,66.0,70.0,67.0,62.0,60.0,57.0,53.0,55.0,53.0,53.0,50.0,47.0,46.0,47.0,51.0,50.0,52.0,52.0,54.0,52.0,51.0,51.0,52.0,52.0,49.0,51.0,50.0,51.0,56.0,57.0,58.0,56.0,53.0,56.0,57.0,58.0,58.0,57.0,63.0,64.0,60.0,57.0,59.0,60.0,61.0,62.0,66.0,65.0,66.0,64.0,66.0,67.0,65.0,62.0,61.0,57.0,57.0,64.0,61.0,57.0,58.0,57.0,56.0,61.0,60.0,56.0,53.0,60.0,61.0,60.0,63.0,60.0,60.0,60.0,59.0,59.0,69.0,67.0,62.0,67.0,70.0,70.0,69.0,64.0,60.0,58.0,65.0,64.0,61.0,58.0,56.0,53.0,52.0,54.0,53.0,52.0,54.0,56.0,56.0,53.0,55.0,52.0,54.0,55.0,53.0,53.0,51.0,51.0,50.0,48.0,55.0,63.0,63.0,61.0,56.0,53.0,54.0,52.0,55.0,57.0,56.0,59.0,56.0,55.0,59.0,55.0,55.0,52.0,54.0,52.0,51.0,49.0,53.0,53.0,50.0,52.0,52.0,51.0,52.0,52.0,52.0,49.0,50.0,49.0,51.0,52.0,51.0,52.0,56.0,60.0,60.0,57.0,56.0,56.0,60.0,57.0,59.0,61.0,59.0,56.0,55.0,60.0,54.0,56.0,59.0,59.0,58.0,57.0,56.0,56.0,54.0,55.0,54.0,54.0,51.0,52.0,52.0,54.0,55.0,54.0,53.0,55.0,60.0,58.0,60.0,58.0,57.0,57.0,57.0,55.0,61.0,58.0,60.0,61.0,59.0,57.0,58.0,55.0,54.0,54.0,52.0,54.0,52.0,56.0,55.0,53.0,53.0,56.0,55.0,51.0,50.0,50.0,49.0,52.0,50.0,57.0,58.0,76.0,72.0,71.0,68.0,63.0,59.0,58.0,63.0,60.0,61.0,60.0,60.0,62.0,57.0,59.0,62.0,62.0,61.0,61.0,58.0,56.0,57.0,60.0,60.0,58.0,58.0,59.0,57.0,59.0,54.0,54.0,53.0,53.0,52.0,52.0,54.0,53.0,53.0,50.0,49.0,48.0,51.0,50.0,48.0,49.0,54.0,53.0,50.0,52.0,53.0,55.0,56.0,56.0,52.0,55.0,57.0,54.0,50.0,54.0,52.0,51.0,48.0,51.0,54.0,49.0,48.0,47.0,45.0,50.0,49.0,51.0,49.0,46.0,50.0,51.0,53.0,57.0,59.0,59.0,59.0,59.0,55.0,56.0,56.0,55.0,56.0,55.0,51.0,55.0,60.0,58.0,57.0,55.0,54.0,56.0,55.0,52.0,51.0,60.0,56.0,54.0,53.0,54.0,56.0,55.0,58.0,58.0,56.0,54.0,53.0,51.0,53.0,52.0,48.0,49.0,57.0,55.0,54.0,60.0,62.0,60.0,60.0,59.0,57.0,62.0,59.0,62.0,60.0,58.0,59.0,57.0,56.0,56.0,62.0,56.0,60.0,63.0,59.0,60.0,59.0,58.0,57.0
