60.0,63.0,64.0,63.0,66.0,64.0,64.0,64.0,64.0,63.0,62.0,63.0,61.0,62.0,62.0,64.0,64.0,63.0,64.0,64.0,62.0,63.0,62.0,61.0,60.0,58.0,59.0,59.0,61.0,58.0,61.0,62.0,62.0,63.0,64.0,64.0,64.0,65.0,62.0,61.0,61.0,59.0,58.0,58.0,58.0,58.0,58.0,56.0,57.0,57.0,56.0,55.0,56.0,55.0,55.0,56.0,55.0,55.0,56.0,54.0,53.0,52.0,51.0,52.0,51.0,52.0,52.0,52.0,50.0,50.0,51.0,52.0,54.0,52.0,54.0,53.0,55.0,58.0,60.0,61.0,58.0,61.0,61.0,59.0,61.0,61.0,61.0,60.0,60.0,60.0,59.0,58.0,59.0,59.0,59.0,59.0,60.0,59.0,61.0,63.0,65.0,64.0,66.0,67.0,66.0,66.0,68.0,67.0,66.0,69.0,67.0,69.0,70.0,69.0,70.0,68.0,69.0,68.0,67.0,66.0,64.0,65.0,62.0,62.0,62.0,62.0,62.0,61.0,62.0,62.0,63.0,61.0,62.0,62.0,61.0,60.0,58.0,60.0,61.0,62.0,62.0,61.0,62.0,63.0,62.0,63.0,63.0,64.0,63.0,63.0,62.0,63.0,62.0,62.0,63.0,61.0,63.0,62.0,61.0,62.0,63.0,63.0,63.0,64.0,63.0,63.0,63.0,63.0,64.0,65.0,65.0,65.0,64.0,64.0,63.0,65.0,64.0,66.0,66.0,65.0,65.0,64.0,64.0,63.0,61.0,60.0,61.0,62.0,62.0,62.0,62.0,62.0,61.0,60.0,60.0,59.0,59.0,57.0,56.0,56.0,54.0,54.0,54.0,55.0,56.0,56.0,56.0,58.0,58.0,56.0,57.0,56.0,58.0,55.0,55.0,54.0,53.0,53.0,52.0,54.0,53.0,53.0,53.0,51.0,52.0,53.0,53.0,52.0,53.0,54.0,53.0,56.0,55.0,55.0,54.0,54.0,55.0,54.0,54.0,54.0,56.0,57.0,57.0,58.0,61.0,61.0,61.0,63.0,61.0,60.0,63.0,63.0,64.0,66.0,68.0,65.0,74.0,90.0,104.0,146.0,208.0,235.0,266.0,292.0,302.0,306.0,295.0,272.0,253.0,237.0,213.0,200.0,183.0,172.0,163.0,160.0,154.0,156.0,155.0,152.0,149.0,146.0,141.0,140.0,136.0,143.0,137.0,136.0,128.0,125.0,123.0,118.0,117.0,114.0,111.0,109.0,109.0,109.0,108.0,101.0,98.0,100.0,100.0,99.0,97.0,95.0,94.0,92.0,90.0,88.0,87.0,86.0,86.0,84.0,80.0,80.0,79.0,77.0,75.0,72.0,72.0,70.0,70.0,67.0,67.0,65.0,64.0,62.0,63.0,61.0,62.0,62.0,64.0,63.0,64.0,64.0,64.0,65.0,66.0,67.0,66.0,66.0,63.0,62.0,62.0,60.0,60.0,58.0,57.0,58.0,61.0,59.0,57.0,56.0,54.0,55.0,54.0,53.0,52.0,52.0,51.0,51.0,51.0,50.0,49.0,48.0,47.0,49.0,50.0,51.0,51.0,51.0,50.0,49.0,51.0,50.0,50.0,51.0,49.0,49.0,52.0,51.0,52.0,52.0,53.0,53.0,54.0,53.0,55.0,54.0,53.0,55.0,53.0,52.0,52.0,51.0,51.0,51.0,52.0,51.0,53.0,52.0,53.0,54.0,53.0,53.0,52.0,52.0,50.0,51.0,49.0,49.0,48.0,48.0,48.0,47.0,49.0,48.0,48.0,52.0,51.0,52.0,49.0,53.0,51.0,52.0,51.0,52.0,56.0,55.0,55.0,54.0,54.0,54.0,54.0,54.0,53.0,54.0,54.0,54.0,54.0,55.0,56.0,55.0,57.0,56.0,55.0,56.0,56.0,55.0,53.0,54.0,53.0,52.0,51.0,51.0,50.0,49.0,52.0,50.0,51.0,51.0,51.0,53.0,51.0,51.0,54.0,54.0,56.0,56.0,56.0,54.0,57.0,56.0,56.0,55.0,55.0,55.0,57.0,58.0,54.0,55.0,55.0,56.0,53.0,53.0,53.0,52.0,53.0,53.0,53.0,51.0,49.0,51.0,60.0,64.0,61.0,58.0,56.0,56.0,56.0,59.0,61.0,62.0,70.0,77.0,84.0,88.0,92.0,97.0,95.0,94.0,93.0,94.0,90.0,89.0,87.0,86.0,85.0,84.0,81.0,82.0,79.0,78.0,76.0,75.0,74.0,70.0,69.0,68.0,67.0,66.0,66.0,66.0,67.0,67.0,67.0,65.0,67.0,68.0,66.0,65.0,67.0,67.0,67.0,66.0,65.0,64.0,61.0,62.0,60.0,58.0,58.0,56.0,57.0,56.0,56.0,56.0,55.0,56.0,55.0,56.0,56.0,57.0,56.0,56.0,58.0,58.0,58.0,58.0,58.0,58.0,60.0,60.0,60.0,60.0,60.0,61.0,62.0,62.0,64.0,62.0,62.0,64.0,66.0,65.0,64.0,67.0,66.0,67.0,66.0,66.0,65.0,64.0,63.0,62.0,60.0,58.0,59.0,59.0,58.0,60.0,59.0,62.0,62.0,63.0,62.0,63.0,63.0,61.0,60.0,62.0,62.0,61.0,60.0,59.0,57.0,57.0,56.0,56.0,54.0,52.0,52.0,52.0,51.0,51.0,53.0,52.0,51.0,55.0,57.0,58.0,60.0,61.0,62.0,61.0,63.0,62.0,61.0,63.0,65.0,65.0,64.0,63.0,63.0,63.0,64.0,65.0,67.0,66.0,68.0,67.0,68.0,69.0,70.0,71.0,71.0,70.0,69.0,69.0,69.0,68.0,69.0,68.0,69.0,68.0,67.0,69.0,69.0,67.0,66.0,66.0,65.0,63.0,62.0,60.0,60.0,60.0,61.0,61.0,63.0,63.0,63.0,64.0,61.0,60.0,61.0,62.0,61.0,63.0,65.0,65.0,65.0,65.0,64.0,65.0,64.0,64.0,62.0,61.0,60.0,58.0,59.0,58.0,60.0,60.0,61.0,59.0,60.0,61.0,61.0,64.0,63.0,64.0,65.0,67.0,67.0,67.0,67.0,67.0,67.0,67.0,67.0,67.0,68.0,69.0,68.0,68.0,66.0,67.0,67.0,67.0,67.0,68.0,67.0,67.0,66.0,65.0,64.0,63.0,61.0,60.0,61.0,61.0,61.0,61.0,62.0,62.0,60.0,60.0,61.0,61.0,61.0,65.0,66.0,67.0,67.0,67.0,68.0,65.0,67.0,64.0,64.0,64.0,64.0,64.0,63.0,63.0,63.0,61.0,61.0,62.0,63.0,62.0,61.0,60.0,61.0,61.0,61.0,60.0,60.0,60.0,58.0,60.0,59.0,59.0,60.0,60.0,61.0,58.0,58.0,56.0,57.0,56.0,55.0,57.0,56.0,56.0,56.0,58.0,57.0,57.0,60.0,58.0,59.0,60.0,60.0,60.0,61.0,62.0,62.0,63.0,63.0,63.0,61.0,61.0,61.0,58.0,57.0,56.0,55.0,54.0,54.0,53.0,52.0,52.0,54.0,54.0,54.0,51.0,52.0,50.0,50.0,50.0,50.0,49.0,49.0,52.0,52.0,53.0,55.0,58.0,59.0,60.0,61.0,60.0,60.0,61.0,61.0,61.0,60.0,61.0,59.0,60.0,60.0,58.0,60.0,60.0,58.0,59.0,60.0,60.0,60.0,59.0,60.0,61.0,61.0,61.0,62.0,62.0,62.0,61.0,63.0,63.0,63.0,66.0,65.0,65.0,67.0,68.0,67.0,68.0,68.0,67.0,68.0,70.0,70.0,71.0,71.0,71.0,72.0,73.0,73.0,72.0,71.0,71.0,69.0,68.0,68.0,67.0,65.0,65.0,63.0,63.0,62.0,62.0,60.0,60.0,60.0,58.0,59.0,59.0,58.0,59.0,58.0,60.0,60.0,60.0,59.0,61.0,61.0,61.0,63.0,62.0,62.0,63.0,63.0,63.0,64.0,65.0,63.0,64.0,63.0,63.0,63.0,63.0,64.0,64.0,65.0,65.0,66.0,67.0,69.0,71.0,71.0,74.0,74.0,73.0,72.0,71.0,70.0,68.0,68.0,67.0,67.0,66.0,66.0,67.0,65.0,66.0,66.0,66.0,67.0,69.0,70.0,68.0,69.0,69.0,67.0,67.0,67.0,67.0,68.0,68.0,69.0,69.0,69.0,69.0,69.0,70.0,69.0,69.0,68.0,67.0,67.0,69.0,69.0,69.0,66.0,65.0,65.0,65.0,65.0,62.0,62.0,60.0,59.0,59.0,59.0,59.0
51.0,49.0,48.0,47.0,45.0,49.0,46.0,46.0,46.0,46.0,46.0,45.0,45.0,44.0,45.0,44.0,46.0,46.0,45.0,47.0,49.0,48.0,46.0,45.0,44.0,44.0,43.0,42.0,41.0,44.0,42.0,42.0,43.0,43.0,43.0,43.0,43.0,42.0,42.0,43.0,43.0,41.0,42.0,41.0,42.0,42.0,42.0,43.0,42.0,41.0,42.0,42.0,42.0,42.0,44.0,42.0,42.0,41.0,41.0,44.0,45.0,45.0,46.0,46.0,48.0,47.0,47.0,47.0,48.0,48.0,46.0,47.0,46.0,46.0,47.0,48.0,46.0,44.0,44.0,45.0,45.0,44.0,45.0,47.0,46.0,49.0,49.0,50.0,50.0,51.0,51.0,50.0,49.0,49.0,47.0,46.0,46.0,46.0,45.0,44.0,42.0,43.0,42.0,41.0,41.0,44.0,43.0,41.0,40.0,40.0,39.0,38.0,38.0,37.0,36.0,39.0,38.0,37.0,37.0,37.0,37.0,35.0,37.0,37.0,37.0,39.0,39.0,39.0,38.0,38.0,37.0,37.0,36.0,36.0,36.0,36.0,38.0,38.0,38.0,39.0,41.0,42.0,43.0,42.0,41.0,43.0,43.0,42.0,44.0,44.0,45.0,43.0,44.0,45.0,44.0,44.0,44.0,44.0,46.0,43.0,43.0,41.0,41.0,41.0,41.0,41.0,43.0,42.0,42.0,41.0,41.0,41.0,40.0,43.0,43.0,42.0,42.0,43.0,43.0,44.0,44.0,44.0,44.0,46.0,49.0,47.0,48.0,47.0,47.0,48.0,48.0,48.0,48.0,47.0,47.0,48.0,46.0,49.0,47.0,47.0,45.0,46.0,46.0,46.0,46.0,46.0,46.0,45.0,45.0,47.0,46.0,46.0,45.0,44.0,45.0,44.0,46.0,46.0,46.0,48.0,47.0,47.0,45.0,46.0,45.0,45.0,45.0,46.0,44.0,47.0,65.0,70.0,68.0,63.0,69.0,68.0,65.0,64.0,70.0,70.0,66.0,65.0,63.0,71.0,75.0,68.0,63.0,64.0,65.0,65.0,72.0,88.0,90.0,92.0,86.0,86.0,128.0,184.0,218.0,330.0,371.0,515.0,669.0,669.0,669.0,669.0,628.0,561.0,536.0,503.0,454.0,439.0,426.0,395.0,381.0,363.0,342.0,324.0,311.0,290.0,274.0,265.0,257.0,241.0,257.0,244.0,231.0,213.0,206.0,199.0,189.0,179.0,181.0,182.0,167.0,161.0,155.0,151.0,154.0,153.0,153.0,150.0,141.0,135.0,135.0,134.0,136.0,137.0,142.0,135.0,138.0,134.0,131.0,129.0,128.0,125.0,124.0,127.0,134.0,135.0,145.0,140.0,141.0,152.0,154.0,149.0,141.0,139.0,137.0,133.0,131.0,132.0,125.0,136.0,131.0,125.0,122.0,119.0,119.0,117.0,118.0,121.0,121.0,121.0,137.0,128.0,130.0,123.0,117.0,114.0,119.0,116.0,115.0,119.0,116.0,115.0,113.0,113.0,114.0,117.0,119.0,110.0,107.0,109.0,107.0,109.0,111.0,116.0,110.0,103.0,99.0,94.0,94.0,94.0,91.0,92.0,90.0,92.0,93.0,94.0,90.0,91.0,88.0,84.0,85.0,84.0,83.0,81.0,77.0,84.0,81.0,82.0,76.0,75.0,76.0,75.0,77.0,75.0,74.0,75.0,74.0,74.0,73.0,75.0,76.0,75.0,71.0,76.0,73.0,72.0,71.0,70.0,75.0,74.0,71.0,74.0,71.0,69.0,73.0,76.0,77.0,74.0,72.0,67.0,66.0,63.0,66.0,63.0,63.0,63.0,62.0,60.0,58.0,58.0,55.0,54.0,60.0,59.0,58.0,56.0,55.0,54.0,53.0,54.0,53.0,55.0,56.0,60.0,58.0,55.0,53.0,51.0,51.0,49.0,52.0,58.0,58.0,60.0,57.0,57.0,55.0,57.0,54.0,58.0,64.0,59.0,58.0,57.0,57.0,61.0,58.0,55.0,57.0,57.0,55.0,67.0,66.0,63.0,64.0,61.0,61.0,62.0,63.0,68.0,62.0,63.0,59.0,59.0,57.0,57.0,56.0,55.0,54.0,54.0,55.0,53.0,51.0,48.0,46.0,48.0,47.0,48.0,49.0,55.0,63.0,72.0,87.0,95.0,108.0,123.0,137.0,149.0,159.0,169.0,174.0,181.0,188.0,190.0,188.0,189.0,186.0,182.0,178.0,176.0,170.0,167.0,163.0,160.0,156.0,156.0,155.0,154.0,152.0,148.0,149.0,143.0,140.0,133.0,130.0,127.0,120.0,116.0,111.0,111.0,108.0,105.0,102.0,98.0,96.0,93.0,90.0,87.0,86.0,86.0,84.0,85.0,83.0,83.0,81.0,81.0,80.0,78.0,77.0,76.0,74.0,74.0,73.0,72.0,71.0,71.0,70.0,67.0,68.0,65.0,65.0,63.0,63.0,62.0,62.0,62.0,61.0,63.0,62.0,64.0,65.0,65.0,64.0,65.0,65.0,64.0,64.0,64.0,62.0,61.0,59.0,59.0,55.0,55.0,54.0,55.0,54.0,52.0,53.0,52.0,53.0,51.0,50.0,51.0,48.0,50.0,49.0,50.0,50.0,48.0,48.0,46.0,48.0,46.0,47.0,46.0,44.0,44.0,43.0,43.0,41.0,43.0,44.0,45.0,46.0,48.0,51.0,50.0,53.0,52.0,54.0,55.0,55.0,56.0,55.0,59.0,60.0,60.0,61.0,60.0,62.0,60.0,61.0,61.0,62.0,61.0,61.0,62.0,62.0,62.0,62.0,62.0,61.0,57.0,57.0,55.0,57.0,57.0,58.0,58.0,56.0,57.0,56.0,56.0,54.0,51.0,52.0,52.0,53.0,52.0,52.0,52.0,51.0,54.0,53.0,56.0,57.0,58.0,57.0,57.0,57.0,57.0,57.0,56.0,54.0,55.0,56.0,55.0,53.0,54.0,52.0,51.0,50.0,50.0,51.0,50.0,51.0,50.0,51.0,51.0,50.0,50.0,49.0,49.0,50.0,50.0,49.0,51.0,51.0,52.0,54.0,55.0,55.0,54.0,52.0,52.0,51.0,51.0,50.0,50.0,51.0,51.0,50.0,51.0,51.0,51.0,50.0,51.0,48.0,48.0,48.0,49.0,47.0,47.0,47.0,45.0,44.0,43.0,43.0,43.0,42.0,42.0,42.0,43.0,41.0,43.0,43.0,42.0,42.0,43.0,42.0,44.0,44.0,43.0,44.0,42.0,43.0,44.0,44.0,45.0,46.0,46.0,46.0,45.0,47.0,44.0,44.0,44.0,44.0,43.0,42.0,42.0,41.0,41.0,40.0,38.0,38.0,38.0,38.0,37.0,37.0,39.0,38.0,37.0,36.0,36.0,35.0,36.0,36.0,36.0,37.0,38.0,37.0,37.0,37.0,39.0,38.0,38.0,37.0,37.0,36.0,36.0,35.0,36.0,36.0,37.0,37.0,39.0,40.0,41.0,42.0,42.0,42.0,41.0,40.0,40.0,39.0,37.0,37.0,37.0,37.0,37.0,37.0,38.0,36.0,38.0,38.0,38.0,37.0,37.0,38.0,36.0,36.0,35.0,34.0,35.0,36.0,35.0,34.0,36.0,35.0,37.0,37.0,37.0,38.0,37.0,38.0,39.0,39.0,40.0,41.0,42.0,44.0,43.0,43.0,42.0,42.0,41.0,40.0,40.0,40.0,41.0,41.0,41.0,40.0,40.0,38.0,38.0,38.0,37.0,37.0,37.0,37.0,36.0,36.0,36.0,36.0,36.0,36.0,38.0,38.0,37.0,38.0,38.0,39.0,39.0,40.0,39.0,41.0,40.0,42.0,42.0,42.0,43.0,42.0,42.0,43.0,43.0,44.0,41.0,43.0,42.0,44.0,43.0,42.0,42.0,41.0,41.0,39.0,39.0,40.0,39.0,38.0,37.0,37.0,36.0,38.0,38.0,38.0,38.0,39.0,40.0,39.0,41.0,41.0,40.0,40.0,40.0,41.0,39.0,41.0,41.0,40.0,41.0,40.0,43.0,42.0,42.0,41.0,41.0,40.0,39.0,39.0,38.0,37.0,36.0,36.0,36.0,36.0,36.0,34.0,35.0,34.0,35.0,34.0,33.0,35.0,33.0,34.0,35.0,35.0,35.0,35.0,36.0,36.0,36.0,35.0,35.0,37.0,36.0,37.0,38.0,38.0,39.0,40.0,39.0,39.0,40.0,40.0,40.0,41.0,41.0,42.0,42.0,44.0,43.0,44.0,44.0,43.0,43.0,43.0,43.0,40.0,39.0,39.0,39.0
28.0,31.0,28.0,29.0,27.0,25.0,23.0,23.0,24.0,24.0,22.0,28.0,31.0,28.0,25.0,22.0,21.0,18.0,16.0,16.0,32.0,32.0,30.0,29.0,25.0,23.0,20.0,18.0,16.0,19.0,19.0,16.0,29.0,28.0,26.0,24.0,21.0,22.0,23.0,22.0,21.0,18.0,16.0,15.0,28.0,26.0,25.0,22.0,19.0,21.0,19.0,22.0,21.0,27.0,33.0,29.0,25.0,25.0,24.0,20.0,20.0,17.0,18.0,15.0,28.0,26.0,27.0,25.0,20.0,21.0,21.0,20.0,19.0,20.0,22.0,35.0,37.0,32.0,29.0,28.0,22.0,23.0,21.0,25.0,32.0,29.0,28.0,24.0,24.0,20.0,18.0,18.0,17.0,33.0,30.0,27.0,23.0,25.0,27.0,25.0,22.0,27.0,26.0,24.0,21.0,48.0,41.0,37.0,32.0,35.0,30.0,30.0,29.0,25.0,24.0,39.0,39.0,34.0,31.0,30.0,27.0,26.0,24.0,22.0,26.0,40.0,37.0,33.0,30.0,26.0,26.0,22.0,20.0,19.0,17.0,15.0,12.0,13.0,10.0,10.0,10.0,9.0,13.0,11.0,14.0,15.0,29.0,26.0,22.0,21.0,20.0,20.0,18.0,17.0,16.0,15.0,14.0,12.0,20.0,24.0,22.0,20.0,24.0,23.0,20.0,19.0,16.0,15.0,13.0,12.0,12.0,12.0,11.0,23.0,22.0,19.0,19.0,18.0,16.0,16.0,14.0,13.0,13.0,12.0,21.0,30.0,28.0,24.0,21.0,19.0,17.0,17.0,18.0,16.0,17.0,16.0,16.0,21.0,22.0,22.0,20.0,19.0,18.0,17.0,15.0,16.0,19.0,18.0,27.0,27.0,24.0,23.0,21.0,19.0,21.0,18.0,16.0,16.0,17.0,25.0,22.0,19.0,17.0,16.0,16.0,15.0,15.0,16.0,18.0,15.0,14.0,27.0,24.0,26.0,24.0,21.0,19.0,17.0,18.0,19.0,19.0,16.0,15.0,23.0,21.0,19.0,17.0,17.0,21.0,19.0,18.0,19.0,31.0,29.0,27.0,23.0,28.0,36.0,41.0,74.0,106.0,136.0,161.0,175.0,171.0,165.0,167.0,170.0,159.0,142.0,127.0,115.0,108.0,101.0,99.0,97.0,88.0,87.0,90.0,82.0,74.0,65.0,79.0,74.0,73.0,67.0,73.0,67.0,61.0,55.0,59.0,58.0,54.0,49.0,47.0,45.0,41.0,36.0,35.0,33.0,41.0,49.0,47.0,47.0,43.0,44.0,44.0,42.0,39.0,41.0,50.0,45.0,39.0,35.0,31.0,28.0,25.0,24.0,23.0,30.0,34.0,32.0,50.0,45.0,41.0,40.0,36.0,40.0,38.0,35.0,32.0,43.0,50.0,45.0,41.0,45.0,41.0,41.0,41.0,40.0,53.0,50.0,45.0,48.0,47.0,44.0,47.0,43.0,43.0,37.0,55.0,50.0,49.0,44.0,43.0,48.0,46.0,46.0,47.0,45.0,57.0,54.0,48.0,42.0,38.0,35.0,34.0,34.0,30.0,33.0,35.0,31.0,31.0,41.0,38.0,39.0,40.0,35.0,31.0,31.0,31.0,30.0,30.0,29.0,27.0,41.0,37.0,33.0,30.0,33.0,31.0,30.0,26.0,26.0,32.0,30.0,32.0,45.0,40.0,46.0,44.0,40.0,39.0,33.0,30.0,28.0,25.0,28.0,25.0,25.0,21.0,21.0,19.0,19.0,19.0,17.0,18.0,18.0,18.0,39.0,40.0,35.0,38.0,33.0,28.0,27.0,26.0,28.0,27.0,26.0,24.0,22.0,19.0,18.0,17.0,19.0,19.0,19.0,18.0,17.0,18.0,18.0,17.0,24.0,29.0,24.0,22.0,38.0,38.0,36.0,32.0,29.0,25.0,22.0,21.0,20.0,18.0,17.0,20.0,22.0,24.0,25.0,21.0,20.0,17.0,19.0,26.0,23.0,22.0,19.0,18.0,17.0,23.0,20.0,19.0,17.0,23.0,20.0,20.0,19.0,20.0,20.0,23.0,23.0,24.0,33.0,32.0,28.0,27.0,24.0,23.0,21.0,20.0,32.0,34.0,30.0,27.0,23.0,26.0,24.0,23.0,20.0,29.0,39.0,41.0,51.0,65.0,74.0,66.0,60.0,53.0,51.0,69.0,71.0,65.0,57.0,56.0,51.0,59.0,61.0,58.0,50.0,52.0,51.0,54.0,53.0,61.0,53.0,49.0,42.0,39.0,37.0,38.0,39.0,48.0,42.0,39.0,37.0,33.0,29.0,25.0,30.0,28.0,31.0,26.0,24.0,20.0,19.0,17.0,17.0,22.0,26.0,40.0,35.0,32.0,28.0,25.0,22.0,20.0,20.0,18.0,29.0,31.0,28.0,26.0,30.0,27.0,24.0,21.0,19.0,21.0,18.0,19.0,21.0,35.0,32.0,28.0,25.0,22.0,22.0,20.0,19.0,19.0,17.0,15.0,14.0,14.0,18.0,37.0,36.0,37.0,41.0,40.0,36.0,32.0,27.0,26.0,24.0,34.0,34.0,30.0,32.0,31.0,28.0,25.0,23.0,20.0,18.0,18.0,26.0,36.0,33.0,29.0,26.0,23.0,21.0,19.0,19.0,16.0,16.0,16.0,14.0,13.0,11.0,11.0,10.0,11.0,10.0,12.0,30.0,26.0,23.0,22.0,21.0,18.0,17.0,15.0,14.0,18.0,26.0,25.0,22.0,19.0,17.0,16.0,17.0,20.0,18.0,17.0,14.0,13.0,11.0,11.0,12.0,11.0,9.0,9.0,8.0,15.0,18.0,16.0,15.0,17.0,16.0,14.0,15.0,13.0,12.0,11.0,14.0,12.0,14.0,11.0,11.0,10.0,9.0,9.0,8.0,8.0,9.0,9.0,13.0,11.0,13.0,11.0,9.0,10.0,10.0,11.0,9.0,10.0,9.0,9.0,8.0,9.0,8.0,8.0,8.0,7.0,9.0,9.0,8.0,10.0,9.0,7.0,7.0,8.0,7.0,8.0,8.0,10.0,12.0,11.0,11.0,12.0,11.0,11.0,10.0,14.0,12.0,12.0,11.0,11.0,11.0,12.0,11.0,10.0,12.0,11.0,10.0,9.0,9.0,10.0,10.0,10.0,9.0,8.0,8.0,8.0,12.0,10.0,16.0,14.0,13.0,12.0,13.0,13.0,10.0,10.0,9.0,9.0,8.0,7.0,9.0,10.0,9.0,9.0,9.0,9.0,7.0,8.0,7.0,7.0,7.0,8.0,8.0,13.0,14.0,12.0,13.0,13.0,17.0,16.0,13.0,13.0,13.0,12.0,12.0,12.0,14.0,12.0,13.0,10.0,10.0,11.0,13.0,15.0,13.0,13.0,11.0,11.0,14.0,11.0,11.0,9.0,9.0,9.0,11.0,11.0,10.0,10.0,9.0,10.0,8.0,7.0,7.0,8.0,8.0,9.0,17.0,14.0,13.0,12.0,11.0,10.0,9.0,11.0,9.0,9.0,10.0,9.0,9.0,9.0,12.0,10.0,10.0,11.0,10.0,9.0,11.0,11.0,14.0,15.0,14.0,12.0,12.0,11.0,11.0,10.0,8.0,11.0,10.0,9.0,9.0,11.0,10.0,11.0,11.0,10.0,12.0,13.0,14.0,12.0,10.0,15.0,15.0,15.0,13.0,13.0,11.0,10.0,9.0,9.0,16.0,15.0,14.0,13.0,13.0,13.0,13.0,13.0,12.0,12.0,13.0,12.0,11.0,14.0,14.0,12.0,12.0,12.0,10.0,10.0,13.0,13.0,12.0,12.0,10.0,11.0,10.0,9.0,8.0,9.0,9.0,7.0,7.0,10.0,11.0,13.0,13.0,16.0,14.0,12.0,11.0,11.0,12.0,12.0,13.0,18.0,19.0,21.0,18.0,18.0,16.0,17.0,14.0,16.0,15.0,13.0,13.0,12.0,13.0,12.0,12.0,12.0,11.0,10.0,9.0,9.0,8.0,7.0,10.0,9.0,10.0,15.0,15.0,14.0,12.0,11.0,12.0,14.0,13.0,12.0,12.0,12.0,12.0,10.0,10.0,9.0,8.0,7.0,6.0,9.0,12.0,10.0,9.0,10.0,8.0,7.0,7.0,8.0,7.0,11.0,10.0,9.0,9.0,8.0,8.0,10.0,11.0,10.0,13.0,12.0,12.0,11.0,10.0,9.0,10.0,10.0,10.0,9.0,8.0,10.0,8.0,8.0,9.0,7.0,8.0,9.0,8.0,8.0,9.0,10.0,8.0,10.0,9.0,8.0,7.0,8.0,11.0
74.0,72.0,70.0,71.0,77.0,81.0,78.0,79.0,78.0,76.0,80.0,81.0,76.0,77.0,79.0,86.0,89.0,87.0,81.0,80.0,84.0,93.0,99.0,102.0,100.0,92.0,96.0,104.0,102.0,103.0,102.0,105.0,97.0,90.0,84.0,87.0,94.0,90.0,86.0,82.0,81.0,87.0,93.0,88.0,84.0,80.0,77.0,73.0,74.0,77.0,83.0,92.0,98.0,103.0,117.0,112.0,109.0,104.0,101.0,94.0,114.0,118.0,112.0,106.0,101.0,91.0,94.0,99.0,96.0,101.0,102.0,100.0,96.0,90.0,98.0,94.0,106.0,118.0,108.0,115.0,111.0,103.0,100.0,99.0,98.0,104.0,99.0,92.0,94.0,91.0,89.0,88.0,88.0,90.0,86.0,81.0,78.0,76.0,84.0,80.0,85.0,81.0,78.0,74.0,75.0,81.0,86.0,84.0,79.0,74.0,88.0,104.0,101.0,95.0,90.0,84.0,80.0,87.0,87.0,81.0,77.0,73.0,82.0,93.0,104.0,97.0,93.0,85.0,82.0,82.0,85.0,87.0,93.0,89.0,84.0,78.0,74.0,74.0,71.0,74.0,77.0,73.0,82.0,85.0,89.0,95.0,90.0,90.0,103.0,101.0,97.0,91.0,88.0,90.0,91.0,87.0,82.0,79.0,77.0,80.0,86.0,88.0,84.0,82.0,79.0,73.0,99.0,107.0,102.0,98.0,94.0,90.0,88.0,105.0,112.0,106.0,101.0,96.0,96.0,106.0,112.0,105.0,104.0,104.0,101.0,97.0,114.0,111.0,103.0,100.0,115.0,115.0,117.0,117.0,125.0,114.0,103.0,99.0,99.0,102.0,92.0,99.0,109.0,104.0,98.0,91.0,109.0,120.0,116.0,114.0,105.0,97.0,92.0,91.0,101.0,109.0,108.0,110.0,103.0,100.0,112.0,109.0,107.0,102.0,100.0,111.0,107.0,104.0,100.0,92.0,92.0,105.0,103.0,102.0,100.0,96.0,91.0,89.0,90.0,95.0,92.0,94.0,101.0,105.0,102.0,98.0,93.0,87.0,88.0,87.0,89.0,95.0,96.0,104.0,107.0,105.0,119.0,113.0,147.0,199.0,252.0,287.0,290.0,363.0,413.0,429.0,469.0,433.0,447.0,440.0,412.0,384.0,350.0,333.0,337.0,325.0,325.0,312.0,315.0,301.0,292.0,287.0,267.0,264.0,258.0,275.0,269.0,259.0,270.0,280.0,285.0,266.0,254.0,253.0,244.0,253.0,272.0,300.0,287.0,291.0,298.0,297.0,285.0,262.0,284.0,305.0,291.0,275.0,272.0,256.0,245.0,236.0,273.0,255.0,260.0,274.0,263.0,253.0,249.0,254.0,276.0,267.0,265.0,263.0,268.0,267.0,272.0,283.0,297.0,293.0,284.0,289.0,271.0,278.0,277.0,262.0,253.0,320.0,337.0,312.0,318.0,300.0,296.0,283.0,277.0,263.0,250.0,269.0,261.0,250.0,253.0,247.0,243.0,230.0,257.0,261.0,252.0,245.0,249.0,243.0,235.0,242.0,247.0,237.0,245.0,249.0,232.0,247.0,238.0,246.0,247.0,239.0,251.0,243.0,251.0,243.0,247.0,241.0,230.0,230.0,229.0,235.0,241.0,249.0,255.0,249.0,250.0,240.0,240.0,231.0,227.0,237.0,216.0,239.0,229.0,220.0,235.0,239.0,222.0,212.0,229.0,232.0,267.0,248.0,243.0,241.0,246.0,246.0,242.0,240.0,219.0,219.0,213.0,200.0,228.0,213.0,215.0,211.0,212.0,208.0,206.0,189.0,195.0,199.0,194.0,202.0,199.0,190.0,193.0,195.0,204.0,188.0,192.0,185.0,197.0,190.0,192.0,185.0,197.0,204.0,197.0,221.0,211.0,214.0,195.0,188.0,178.0,191.0,192.0,202.0,188.0,178.0,189.0,183.0,180.0,177.0,165.0,176.0,174.0,178.0,175.0,182.0,167.0,175.0,174.0,160.0,230.0,231.0,215.0,194.0,191.0,183.0,192.0,189.0,181.0,168.0,171.0,176.0,210.0,202.0,194.0,180.0,189.0,200.0,186.0,180.0,171.0,166.0,153.0,144.0,141.0,134.0,128.0,123.0,122.0,111.0,103.0,96.0,92.0,84.0,82.0,90.0,91.0,107.0,128.0,126.0,121.0,123.0,120.0,131.0,134.0,134.0,129.0,126.0,128.0,125.0,127.0,139.0,140.0,162.0,157.0,154.0,151.0,141.0,141.0,147.0,143.0,146.0,135.0,126.0,137.0,146.0,145.0,138.0,137.0,125.0,133.0,128.0,120.0,112.0,112.0,126.0,134.0,135.0,134.0,129.0,144.0,134.0,122.0,127.0,120.0,127.0,124.0,114.0,121.0,120.0,120.0,123.0,120.0,138.0,130.0,122.0,117.0,114.0,110.0,105.0,100.0,93.0,99.0,99.0,102.0,99.0,93.0,91.0,84.0,83.0,81.0,80.0,84.0,86.0,85.0,84.0,90.0,100.0,112.0,111.0,109.0,112.0,117.0,114.0,117.0,106.0,101.0,102.0,104.0,104.0,103.0,99.0,92.0,92.0,96.0,91.0,90.0,86.0,89.0,89.0,89.0,95.0,100.0,96.0,93.0,91.0,91.0,89.0,86.0,81.0,77.0,74.0,72.0,78.0,75.0,73.0,73.0,73.0,75.0,88.0,91.0,92.0,97.0,106.0,107.0,98.0,107.0,107.0,97.0,96.0,92.0,90.0,82.0,135.0,135.0,124.0,131.0,132.0,127.0,125.0,131.0,127.0,116.0,111.0,133.0,127.0,126.0,116.0,110.0,103.0,97.0,98.0,97.0,96.0,93.0,97.0,102.0,115.0,108.0,106.0,118.0,111.0,106.0,105.0,100.0,108.0,105.0,98.0,93.0,94.0,94.0,92.0,86.0,83.0,88.0,98.0,104.0,99.0,94.0,87.0,93.0,91.0,92.0,96.0,94.0,92.0,89.0,113.0,116.0,106.0,102.0,99.0,102.0,103.0,115.0,103.0,98.0,94.0,95.0,91.0,94.0,95.0,89.0,85.0,81.0,79.0,80.0,83.0,93.0,96.0,96.0,92.0,89.0,99.0,113.0,111.0,110.0,110.0,106.0,107.0,106.0,107.0,108.0,104.0,103.0,104.0,103.0,106.0,108.0,113.0,108.0,102.0,94.0,105.0,110.0,114.0,109.0,103.0,103.0,102.0,104.0,101.0,91.0,91.0,90.0,96.0,96.0,92.0,90.0,90.0,84.0,89.0,82.0,85.0,86.0,82.0,78.0,76.0,85.0,80.0,76.0,75.0,75.0,75.0,79.0,81.0,83.0,81.0,90.0,91.0,91.0,89.0,86.0,81.0,83.0,79.0,79.0,76.0,78.0,76.0,71.0,86.0,88.0,83.0,80.0,84.0,84.0,84.0,95.0,97.0,93.0,92.0,92.0,88.0,83.0,89.0,88.0,88.0,95.0,91.0,89.0,90.0,86.0,83.0,82.0,81.0,79.0,80.0,82.0,78.0,81.0,77.0,71.0,72.0,72.0,92.0,89.0,82.0,83.0,83.0,86.0,84.0,84.0,82.0,76.0,76.0,72.0,71.0,66.0,74.0,74.0,70.0,68.0,64.0,65.0,72.0,76.0,76.0,71.0,77.0,81.0,81.0,80.0,81.0,81.0,85.0,87.0,83.0,79.0,79.0,80.0,73.0,75.0,76.0,85.0,93.0,88.0,90.0,89.0,86.0,83.0,97.0,97.0,94.0,97.0,97.0,90.0,90.0,92.0,85.0,87.0,86.0,85.0,80.0,82.0,80.0,79.0,79.0,75.0,79.0,76.0,73.0,80.0,88.0,92.0,88.0,81.0,77.0,72.0,70.0,68.0,64.0,64.0,74.0,75.0,80.0,77.0,72.0,72.0,72.0,83.0,85.0,87.0,81.0,80.0,80.0,82.0,84.0,84.0,81.0,80.0,82.0,77.0,82.0,85.0,84.0,83.0,79.0,76.0,78.0,80.0,81.0,78.0,76.0,75.0,76.0,77.0,76.0,77.0,93.0,87.0,84.0,78.0,74.0,72.0,81.0,80.0,74.0,70.0,69.0,65.0,74.0,73.0,76.0,70.0,72.0,76.0,75.0,72.0,73.0,76.0,78.0,74.0,77.0,83.0,79.0,81.0,91.0,101.0,93.0,87.0,82.0,83.0,83.0,83.0,80.0,79.0,83.0,85.0,82.0,77.0,73.0,67.0,64.0,66.0,62.0,64.0,62.0,61.0,67.0,69.0,69.0,67.0,72.0,80.0,76.0,80.0,79.0,75.0,76.0,78.0,78.0,80.0,82.0
