51.0,51.0,53.0,53.0,53.0,53.0,53.0,52.0,52.0,52.0,52.0,52.0,52.0,52.0,52.0,51.0,51.0,51.0,52.0,52.0,52.0,53.0,52.0,52.0,53.0,55.0,54.0,57.0,56.0,56.0,56.0,56.0,56.0,56.0,55.0,56.0,54.0,56.0,55.0,55.0,55.0,53.0,54.0,52.0,53.0,51.0,51.0,51.0,52.0,53.0,54.0,53.0,52.0,51.0,50.0,49.0,49.0,48.0,48.0,46.0,46.0,45.0,44.0,45.0,45.0,46.0,47.0,48.0,47.0,47.0,50.0,50.0,51.0,51.0,53.0,55.0,55.0,57.0,56.0,55.0,56.0,55.0,56.0,55.0,55.0,52.0,53.0,53.0,53.0,53.0,53.0,54.0,54.0,55.0,55.0,56.0,56.0,57.0,59.0,58.0,59.0,58.0,58.0,59.0,59.0,60.0,58.0,60.0,60.0,61.0,62.0,61.0,62.0,62.0,62.0,64.0,63.0,66.0,67.0,68.0,68.0,68.0,69.0,72.0,71.0,72.0,71.0,72.0,72.0,73.0,73.0,75.0,74.0,75.0,73.0,72.0,72.0,71.0,73.0,73.0,75.0,73.0,74.0,73.0,72.0,72.0,70.0,71.0,68.0,68.0,67.0,67.0,68.0,67.0,68.0,67.0,66.0,68.0,67.0,67.0,65.0,65.0,64.0,63.0,63.0,65.0,65.0,65.0,65.0,66.0,64.0,63.0,62.0,63.0,63.0,63.0,63.0,61.0,60.0,61.0,61.0,62.0,63.0,63.0,62.0,61.0,60.0,60.0,61.0,61.0,63.0,60.0,60.0,59.0,58.0,57.0,57.0,57.0,55.0,55.0,53.0,55.0,55.0,55.0,56.0,55.0,56.0,56.0,55.0,55.0,56.0,59.0,57.0,55.0,55.0,56.0,57.0,56.0,58.0,56.0,56.0,58.0,57.0,58.0,61.0,62.0,62.0,63.0,66.0,71.0,73.0,77.0,81.0,86.0,92.0,94.0,90.0,88.0,89.0,89.0,88.0,86.0,92.0,94.0,92.0,99.0,103.0,100.0,108.0,110.0,108.0,103.0,108.0,111.0,112.0,110.0,107.0,99.0,98.0,97.0,92.0,90.0,87.0,94.0,93.0,89.0,97.0,95.0,91.0,86.0,80.0,76.0,75.0,73.0,74.0,76.0,76.0,76.0,83.0,79.0,75.0,71.0,68.0,67.0,66.0,65.0,62.0,62.0,63.0,66.0,66.0,67.0,67.0,66.0,63.0,64.0,62.0,60.0,59.0,58.0,59.0,61.0,60.0,59.0,57.0,58.0,56.0,55.0,55.0,55.0,55.0,55.0,54.0,56.0,57.0,58.0,56.0,58.0,55.0,54.0,54.0,53.0,53.0,53.0,53.0,54.0,56.0,54.0,52.0,52.0,52.0,50.0,51.0,54.0,53.0,53.0,53.0,53.0,56.0,55.0,54.0,54.0,53.0,53.0,52.0,51.0,52.0,51.0,51.0,52.0,51.0,50.0,52.0,51.0,50.0,50.0,49.0,49.0,47.0,48.0,48.0,48.0,48.0,48.0,48.0,47.0,48.0,47.0,48.0,50.0,48.0,48.0,49.0,48.0,48.0,48.0,49.0,49.0,49.0,50.0,51.0,49.0,49.0,49.0,48.0,49.0,47.0,47.0,47.0,48.0,49.0,49.0,49.0,47.0,49.0,50.0,50.0,51.0,50.0,50.0,49.0,50.0,48.0,48.0,48.0,47.0,48.0,49.0,51.0,52.0,51.0,52.0,53.0,53.0,53.0,53.0,51.0,52.0,52.0,53.0,53.0,51.0,53.0,53.0,54.0,55.0,55.0,57.0,59.0,59.0,57.0,56.0,59.0,71.0,77.0,78.0,79.0,86.0,100.0,106.0,105.0,101.0,107.0,114.0,121.0,116.0,129.0,135.0,147.0,153.0,145.0,152.0,152.0,156.0,152.0,146.0,151.0,151.0,147.0,145.0,140.0,135.0,131.0,128.0,125.0,124.0,118.0,111.0,112.0,111.0,111.0,109.0,105.0,106.0,103.0,100.0,99.0,94.0,92.0,93.0,87.0,91.0,91.0,90.0,88.0,85.0,85.0,80.0,79.0,77.0,77.0,82.0,79.0,77.0,74.0,73.0,72.0,75.0,75.0,73.0,71.0,76.0,76.0,74.0,72.0,70.0,68.0,68.0,64.0,63.0,63.0,62.0,66.0,68.0,68.0,66.0,74.0,71.0,71.0,69.0,68.0,67.0,64.0,63.0,65.0,70.0,70.0,67.0,66.0,63.0,62.0,61.0,61.0,60.0,60.0,62.0,63.0,62.0,63.0,61.0,69.0,72.0,69.0,67.0,64.0,61.0,60.0,59.0,57.0,56.0,56.0,56.0,57.0,63.0,61.0,60.0,59.0,58.0,55.0,57.0,56.0,56.0,56.0,57.0,55.0,62.0,62.0,61.0,60.0,60.0,59.0,60.0,60.0,60.0,59.0,60.0,59.0,59.0,58.0,57.0,58.0,59.0,58.0,58.0,61.0,62.0,60.0,59.0,58.0,59.0,58.0,57.0,57.0,56.0,55.0,56.0,58.0,60.0,59.0,58.0,58.0,57.0,57.0,58.0,57.0,56.0,57.0,56.0,58.0,58.0,57.0,57.0,56.0,57.0,54.0,55.0,56.0,55.0,57.0,57.0,58.0,56.0,55.0,55.0,56.0,57.0,57.0,57.0,58.0,59.0,60.0,59.0,59.0,58.0,61.0,58.0,58.0,59.0,58.0,57.0,55.0,60.0,59.0,60.0,62.0,66.0,67.0,68.0,69.0,68.0,67.0,67.0,68.0,69.0,68.0,69.0,68.0,67.0,65.0,65.0,64.0,64.0,65.0,62.0,61.0,58.0,56.0,56.0,54.0,56.0,56.0,56.0,55.0,54.0,55.0,55.0,57.0,59.0,58.0,59.0,59.0,59.0,61.0,61.0,61.0,60.0,60.0,61.0,59.0,60.0,60.0,60.0,58.0,58.0,57.0,58.0,59.0,59.0,59.0,60.0,62.0,62.0,62.0,61.0,60.0,60.0,60.0,59.0,59.0,59.0,57.0,55.0,56.0,54.0,55.0,54.0,54.0,55.0,53.0,54.0,50.0,50.0,50.0,51.0,50.0,49.0,51.0,52.0,52.0,52.0,51.0,51.0,52.0,51.0,52.0,53.0,53.0,53.0,51.0,49.0,53.0,50.0,54.0,54.0,56.0,57.0,56.0,56.0,58.0,61.0,62.0,63.0,62.0,63.0,63.0,62.0,62.0,60.0,62.0,61.0,60.0,61.0,58.0,58.0,59.0,58.0,56.0,56.0,56.0,54.0,56.0,54.0,55.0,55.0,53.0,55.0,55.0,56.0,58.0,58.0,60.0,60.0,62.0,62.0,62.0,61.0,62.0,63.0,63.0,65.0,63.0,62.0,62.0,63.0,65.0,65.0,64.0,63.0,62.0,61.0,59.0,58.0,60.0,60.0,62.0,60.0,60.0,61.0,60.0,61.0,61.0,60.0,60.0,60.0,59.0,60.0,59.0,60.0,61.0,60.0,59.0,58.0,56.0,55.0,55.0,57.0,56.0,56.0,56.0,57.0,57.0,55.0,55.0,54.0,53.0,52.0,52.0,53.0,52.0,53.0,53.0,53.0,55.0,55.0,56.0,56.0,56.0,54.0,56.0,54.0,56.0,56.0,55.0,56.0,53.0,54.0,52.0,51.0,52.0,51.0,52.0,51.0,50.0,52.0,54.0,55.0,54.0,55.0,54.0,56.0,56.0,56.0,55.0,57.0,56.0,55.0,54.0,55.0,56.0,55.0,56.0,56.0,55.0,57.0,57.0,58.0,59.0,57.0,61.0,61.0,60.0,61.0,61.0,61.0,60.0,60.0,58.0,55.0,56.0,56.0,55.0,53.0,55.0,54.0,56.0,55.0,56.0,56.0,57.0,57.0,56.0,57.0,57.0,58.0,59.0,58.0,60.0,58.0,58.0,57.0,55.0,55.0,54.0,55.0,56.0,56.0,57.0,57.0,58.0,59.0,61.0,60.0,60.0,61.0,59.0,60.0,61.0,61.0,64.0,64.0,63.0,62.0,63.0,64.0,64.0,66.0,64.0,63.0,65.0,64.0,63.0,64.0,64.0,64.0,65.0,64.0,66.0,65.0,64.0,66.0,64.0,63.0,63.0,63.0,62.0,62.0,63.0,64.0,66.0,66.0,66.0,67.0,68.0,68.0,67.0,66.0,68.0,68.0,69.0,71.0,71.0,70.0,72.0,73.0,74.0,73.0,73.0,73.0,72.0,74.0,72.0,70.0,70.0,68.0,67.0,65.0,63.0,63.0,63.0,63.0
38.0,39.0,40.0,40.0,38.0,40.0,38.0,39.0,38.0,38.0,39.0,38.0,38.0,38.0,40.0,40.0,41.0,41.0,40.0,41.0,42.0,41.0,41.0,41.0,43.0,40.0,41.0,41.0,42.0,41.0,43.0,44.0,44.0,45.0,47.0,47.0,48.0,46.0,47.0,46.0,47.0,46.0,44.0,44.0,41.0,42.0,40.0,39.0,39.0,38.0,37.0,37.0,39.0,37.0,37.0,36.0,37.0,37.0,36.0,36.0,36.0,36.0,35.0,34.0,33.0,34.0,35.0,34.0,34.0,35.0,35.0,36.0,36.0,36.0,35.0,35.0,34.0,35.0,36.0,37.0,38.0,39.0,41.0,44.0,45.0,45.0,46.0,47.0,47.0,46.0,47.0,47.0,48.0,49.0,49.0,50.0,50.0,52.0,53.0,55.0,57.0,56.0,57.0,56.0,56.0,56.0,54.0,54.0,53.0,53.0,52.0,52.0,51.0,52.0,52.0,52.0,52.0,54.0,54.0,54.0,54.0,53.0,53.0,54.0,54.0,57.0,59.0,61.0,63.0,65.0,67.0,68.0,70.0,69.0,69.0,69.0,67.0,68.0,68.0,66.0,66.0,66.0,65.0,64.0,64.0,62.0,61.0,62.0,62.0,63.0,63.0,65.0,64.0,67.0,67.0,67.0,67.0,69.0,70.0,71.0,74.0,76.0,77.0,78.0,79.0,84.0,85.0,87.0,89.0,91.0,92.0,93.0,94.0,94.0,94.0,94.0,95.0,95.0,95.0,96.0,94.0,95.0,94.0,93.0,93.0,88.0,87.0,93.0,94.0,95.0,94.0,92.0,93.0,94.0,92.0,91.0,92.0,91.0,91.0,91.0,89.0,87.0,86.0,85.0,85.0,84.0,84.0,83.0,81.0,79.0,80.0,79.0,77.0,81.0,80.0,81.0,83.0,79.0,79.0,78.0,80.0,82.0,82.0,80.0,80.0,81.0,80.0,77.0,75.0,74.0,72.0,78.0,81.0,97.0,112.0,109.0,116.0,114.0,121.0,124.0,147.0,137.0,127.0,117.0,107.0,100.0,92.0,88.0,89.0,85.0,80.0,76.0,77.0,77.0,76.0,82.0,78.0,84.0,78.0,78.0,80.0,82.0,88.0,89.0,91.0,95.0,94.0,94.0,93.0,94.0,93.0,94.0,93.0,93.0,91.0,92.0,90.0,91.0,95.0,91.0,92.0,90.0,91.0,92.0,93.0,94.0,90.0,90.0,90.0,87.0,85.0,83.0,82.0,78.0,77.0,73.0,70.0,69.0,67.0,66.0,66.0,63.0,61.0,59.0,58.0,57.0,55.0,54.0,53.0,52.0,52.0,55.0,53.0,57.0,55.0,57.0,56.0,56.0,57.0,56.0,59.0,58.0,57.0,57.0,56.0,55.0,53.0,53.0,53.0,54.0,54.0,54.0,54.0,53.0,54.0,52.0,52.0,52.0,51.0,53.0,52.0,51.0,50.0,50.0,50.0,51.0,51.0,49.0,52.0,51.0,50.0,51.0,53.0,53.0,53.0,55.0,53.0,53.0,53.0,53.0,57.0,53.0,54.0,54.0,52.0,53.0,54.0,54.0,57.0,58.0,57.0,58.0,59.0,59.0,59.0,58.0,60.0,58.0,56.0,56.0,55.0,54.0,52.0,52.0,53.0,52.0,51.0,50.0,49.0,49.0,49.0,49.0,49.0,50.0,51.0,51.0,52.0,51.0,51.0,52.0,51.0,50.0,49.0,48.0,49.0,49.0,49.0,50.0,48.0,48.0,48.0,48.0,47.0,47.0,49.0,50.0,57.0,56.0,57.0,59.0,55.0,58.0,55.0,53.0,51.0,51.0,52.0,50.0,49.0,50.0,51.0,56.0,61.0,80.0,80.0,81.0,80.0,83.0,91.0,88.0,83.0,82.0,80.0,79.0,82.0,77.0,81.0,89.0,95.0,105.0,112.0,117.0,118.0,126.0,126.0,124.0,130.0,131.0,130.0,134.0,133.0,136.0,134.0,134.0,133.0,134.0,132.0,129.0,131.0,131.0,133.0,131.0,127.0,127.0,126.0,128.0,126.0,122.0,121.0,121.0,121.0,120.0,122.0,123.0,122.0,120.0,121.0,120.0,119.0,118.0,114.0,116.0,114.0,111.0,109.0,107.0,105.0,100.0,98.0,96.0,94.0,89.0,86.0,84.0,79.0,76.0,73.0,70.0,69.0,69.0,68.0,66.0,62.0,64.0,64.0,62.0,63.0,62.0,64.0,60.0,62.0,62.0,59.0,58.0,57.0,58.0,56.0,56.0,54.0,52.0,51.0,50.0,49.0,47.0,46.0,45.0,44.0,43.0,41.0,42.0,40.0,41.0,39.0,39.0,39.0,37.0,38.0,38.0,38.0,37.0,38.0,37.0,37.0,39.0,38.0,39.0,39.0,38.0,38.0,37.0,39.0,38.0,38.0,39.0,39.0,38.0,37.0,37.0,36.0,36.0,36.0,35.0,36.0,36.0,38.0,36.0,35.0,36.0,35.0,36.0,35.0,35.0,35.0,38.0,37.0,37.0,38.0,37.0,40.0,39.0,41.0,42.0,42.0,41.0,44.0,44.0,42.0,43.0,42.0,41.0,42.0,40.0,40.0,39.0,39.0,39.0,39.0,39.0,37.0,37.0,37.0,37.0,38.0,37.0,39.0,39.0,40.0,40.0,38.0,38.0,40.0,39.0,38.0,40.0,40.0,39.0,39.0,39.0,39.0,39.0,40.0,39.0,39.0,39.0,39.0,41.0,39.0,39.0,38.0,38.0,37.0,38.0,37.0,36.0,37.0,37.0,36.0,38.0,39.0,40.0,41.0,39.0,40.0,39.0,38.0,38.0,39.0,40.0,40.0,39.0,38.0,39.0,39.0,40.0,39.0,40.0,39.0,38.0,39.0,41.0,41.0,42.0,41.0,44.0,42.0,43.0,43.0,42.0,44.0,43.0,43.0,42.0,41.0,40.0,39.0,39.0,37.0,38.0,37.0,38.0,37.0,37.0,37.0,36.0,37.0,36.0,36.0,37.0,37.0,39.0,37.0,39.0,38.0,39.0,38.0,38.0,39.0,37.0,39.0,38.0,37.0,36.0,35.0,35.0,35.0,36.0,36.0,36.0,36.0,35.0,36.0,36.0,39.0,36.0,37.0,40.0,39.0,39.0,38.0,39.0,38.0,37.0,37.0,37.0,37.0,37.0,37.0,37.0,38.0,40.0,39.0,42.0,41.0,40.0,39.0,38.0,39.0,41.0,39.0,38.0,40.0,39.0,38.0,38.0,40.0,39.0,37.0,40.0,39.0,38.0,38.0,40.0,41.0,41.0,40.0,39.0,42.0,41.0,41.0,40.0,40.0,40.0,40.0,39.0,40.0,42.0,41.0,40.0,40.0,41.0,39.0,39.0,38.0,38.0,39.0,40.0,42.0,42.0,42.0,41.0,41.0,41.0,41.0,43.0,42.0,42.0,44.0,43.0,42.0,41.0,40.0,38.0,40.0,39.0,39.0,39.0,37.0,38.0,36.0,37.0,38.0,37.0,37.0,36.0,37.0,36.0,35.0,35.0,34.0,34.0,33.0,34.0,34.0,34.0,34.0,34.0,34.0,34.0,35.0,34.0,33.0,34.0,34.0,33.0,33.0,34.0,32.0,34.0,33.0,34.0,34.0,35.0,37.0,36.0,36.0,36.0,35.0,35.0,35.0,36.0,36.0,35.0,36.0,37.0,36.0,36.0,36.0,36.0,39.0,38.0,37.0,37.0,36.0,38.0,39.0,38.0,41.0,40.0,41.0,42.0,43.0,42.0,41.0,43.0,42.0,43.0,45.0,46.0,47.0,47.0,48.0,47.0,47.0,48.0,47.0,47.0,46.0,45.0,47.0,46.0,47.0,47.0,48.0,46.0,49.0,48.0,47.0,45.0,46.0,49.0,47.0,47.0,46.0,45.0,44.0,43.0,43.0,41.0,43.0,43.0,45.0,46.0,45.0,45.0,44.0,45.0,45.0,43.0,43.0,41.0,41.0,40.0,41.0,39.0,40.0,41.0,40.0,40.0,37.0,36.0,38.0,37.0,37.0,37.0,38.0,37.0,37.0,38.0,39.0,39.0,39.0,39.0,38.0,39.0,38.0,39.0,38.0,37.0,39.0,38.0,38.0,37.0,37.0,37.0,37.0,37.0,36.0,36.0,36.0,36.0,35.0,35.0,36.0,36.0,37.0,36.0,37.0,38.0,39.0,40.0,38.0,38.0,40.0,39.0,39.0,39.0,40.0,39.0,39.0,39.0,39.0,38.0,38.0,38.0,37.0,36.0,37.0,35.0,36.0,36.0,36.0,34.0,34.0,35.0,35.0,36.0,37.0,37.0,36.0,36.0
8.0,8.0,7.0,7.0,6.0,7.0,8.0,6.0,9.0,8.0,6.0,7.0,6.0,6.0,6.0,6.0,6.0,7.0,6.0,5.0,7.0,6.0,5.0,6.0,6.0,5.0,5.0,6.0,5.0,6.0,6.0,6.0,6.0,5.0,5.0,6.0,6.0,8.0,8.0,7.0,8.0,8.0,7.0,7.0,9.0,10.0,11.0,11.0,10.0,10.0,8.0,9.0,8.0,8.0,7.0,12.0,11.0,12.0,10.0,9.0,9.0,8.0,8.0,7.0,7.0,7.0,6.0,7.0,6.0,8.0,9.0,8.0,9.0,9.0,10.0,9.0,8.0,7.0,7.0,7.0,7.0,7.0,8.0,8.0,8.0,6.0,7.0,9.0,8.0,7.0,7.0,7.0,6.0,7.0,9.0,8.0,9.0,9.0,10.0,9.0,8.0,9.0,10.0,9.0,10.0,10.0,8.0,9.0,13.0,15.0,13.0,12.0,11.0,9.0,10.0,9.0,8.0,8.0,7.0,9.0,6.0,7.0,7.0,7.0,6.0,5.0,7.0,4.0,6.0,6.0,7.0,8.0,7.0,8.0,7.0,6.0,6.0,6.0,7.0,7.0,8.0,9.0,8.0,8.0,8.0,7.0,8.0,8.0,6.0,6.0,6.0,5.0,5.0,5.0,6.0,6.0,5.0,5.0,6.0,6.0,5.0,8.0,7.0,6.0,6.0,6.0,5.0,5.0,6.0,6.0,4.0,5.0,5.0,5.0,4.0,5.0,5.0,6.0,5.0,4.0,4.0,8.0,8.0,8.0,10.0,10.0,11.0,10.0,9.0,9.0,9.0,7.0,8.0,7.0,7.0,10.0,11.0,10.0,7.0,8.0,8.0,8.0,8.0,9.0,9.0,8.0,8.0,7.0,7.0,7.0,7.0,7.0,6.0,5.0,5.0,6.0,5.0,5.0,5.0,4.0,5.0,4.0,5.0,4.0,5.0,5.0,4.0,5.0,5.0,5.0,4.0,4.0,11.0,19.0,24.0,30.0,30.0,39.0,47.0,51.0,54.0,48.0,43.0,38.0,34.0,29.0,29.0,28.0,27.0,30.0,28.0,29.0,28.0,32.0,36.0,37.0,35.0,39.0,40.0,42.0,43.0,48.0,53.0,54.0,54.0,54.0,51.0,51.0,49.0,46.0,45.0,49.0,50.0,45.0,42.0,42.0,41.0,42.0,43.0,41.0,42.0,39.0,39.0,40.0,41.0,41.0,40.0,41.0,43.0,43.0,41.0,41.0,39.0,40.0,38.0,37.0,33.0,31.0,30.0,27.0,28.0,25.0,24.0,22.0,21.0,22.0,19.0,18.0,16.0,15.0,15.0,15.0,14.0,14.0,14.0,15.0,15.0,15.0,15.0,15.0,16.0,15.0,16.0,15.0,14.0,13.0,13.0,11.0,12.0,11.0,11.0,9.0,9.0,9.0,9.0,9.0,8.0,8.0,8.0,6.0,6.0,6.0,6.0,5.0,6.0,5.0,4.0,5.0,5.0,5.0,4.0,5.0,4.0,4.0,4.0,3.0,4.0,3.0,4.0,4.0,4.0,4.0,4.0,3.0,3.0,4.0,4.0,2.0,3.0,4.0,4.0,3.0,3.0,3.0,2.0,3.0,3.0,3.0,4.0,3.0,4.0,2.0,3.0,2.0,3.0,3.0,3.0,3.0,2.0,3.0,3.0,3.0,4.0,3.0,3.0,2.0,4.0,3.0,3.0,3.0,3.0,4.0,3.0,3.0,4.0,3.0,3.0,2.0,3.0,4.0,3.0,3.0,3.0,3.0,3.0,4.0,2.0,4.0,3.0,3.0,3.0,3.0,5.0,4.0,4.0,3.0,3.0,4.0,4.0,8.0,5.0,7.0,17.0,67.0,105.0,140.0,137.0,152.0,162.0,146.0,144.0,149.0,163.0,146.0,166.0,166.0,198.0,222.0,212.0,209.0,205.0,208.0,217.0,211.0,199.0,200.0,203.0,186.0,167.0,172.0,160.0,142.0,131.0,131.0,121.0,112.0,103.0,103.0,113.0,99.0,97.0,99.0,93.0,89.0,81.0,80.0,76.0,85.0,83.0,97.0,103.0,96.0,86.0,82.0,77.0,82.0,76.0,72.0,65.0,61.0,63.0,66.0,60.0,57.0,55.0,49.0,48.0,48.0,44.0,41.0,40.0,36.0,33.0,33.0,31.0,30.0,27.0,25.0,24.0,26.0,28.0,25.0,28.0,29.0,27.0,28.0,30.0,27.0,25.0,23.0,24.0,23.0,18.0,18.0,17.0,16.0,16.0,15.0,14.0,12.0,12.0,11.0,11.0,9.0,9.0,9.0,8.0,11.0,10.0,10.0,9.0,8.0,9.0,8.0,7.0,7.0,8.0,8.0,8.0,9.0,8.0,7.0,9.0,11.0,11.0,9.0,11.0,9.0,8.0,9.0,9.0,10.0,11.0,15.0,14.0,12.0,12.0,11.0,10.0,9.0,10.0,8.0,14.0,14.0,15.0,17.0,16.0,15.0,13.0,12.0,11.0,10.0,12.0,13.0,13.0,12.0,10.0,9.0,9.0,9.0,7.0,7.0,8.0,7.0,7.0,7.0,7.0,7.0,8.0,7.0,6.0,7.0,6.0,6.0,6.0,11.0,14.0,12.0,12.0,10.0,10.0,9.0,9.0,8.0,6.0,7.0,6.0,7.0,6.0,6.0,7.0,5.0,6.0,8.0,8.0,9.0,8.0,9.0,6.0,7.0,7.0,7.0,7.0,9.0,9.0,12.0,11.0,10.0,10.0,11.0,13.0,13.0,12.0,13.0,12.0,14.0,16.0,15.0,21.0,20.0,18.0,18.0,17.0,17.0,19.0,17.0,16.0,15.0,14.0,12.0,11.0,10.0,11.0,9.0,8.0,8.0,9.0,9.0,9.0,10.0,7.0,7.0,10.0,9.0,10.0,9.0,10.0,8.0,7.0,9.0,11.0,10.0,10.0,10.0,8.0,8.0,8.0,7.0,6.0,5.0,7.0,6.0,6.0,5.0,5.0,6.0,6.0,11.0,13.0,12.0,12.0,11.0,10.0,9.0,9.0,9.0,8.0,14.0,13.0,12.0,11.0,10.0,10.0,8.0,8.0,7.0,7.0,6.0,7.0,6.0,5.0,6.0,6.0,6.0,6.0,8.0,9.0,7.0,9.0,9.0,9.0,8.0,9.0,9.0,8.0,8.0,8.0,7.0,7.0,8.0,7.0,6.0,7.0,6.0,6.0,5.0,5.0,6.0,4.0,5.0,7.0,8.0,7.0,7.0,8.0,6.0,6.0,6.0,5.0,5.0,5.0,7.0,6.0,6.0,5.0,4.0,6.0,5.0,6.0,4.0,7.0,6.0,6.0,6.0,4.0,6.0,6.0,7.0,7.0,7.0,7.0,9.0,9.0,7.0,6.0,7.0,7.0,8.0,8.0,8.0,9.0,9.0,8.0,7.0,7.0,5.0,9.0,10.0,10.0,9.0,8.0,8.0,7.0,8.0,6.0,7.0,9.0,8.0,8.0,7.0,8.0,7.0,7.0,6.0,7.0,8.0,7.0,8.0,6.0,7.0,7.0,7.0,8.0,9.0,9.0,8.0,7.0,9.0,8.0,8.0,7.0,7.0,6.0,6.0,6.0,5.0,6.0,5.0,6.0,6.0,6.0,5.0,5.0,6.0,6.0,6.0,6.0,4.0,6.0,7.0,9.0,8.0,8.0,8.0,6.0,6.0,6.0,6.0,6.0,6.0,6.0,5.0,5.0,5.0,5.0,6.0,5.0,5.0,4.0,5.0,4.0,3.0,4.0,4.0,5.0,6.0,7.0,6.0,8.0,7.0,7.0,6.0,6.0,6.0,6.0,7.0,7.0,5.0,7.0,6.0,6.0,7.0,7.0,7.0,6.0,6.0,5.0,6.0,5.0,5.0,5.0,4.0,5.0,5.0,5.0,4.0,4.0,4.0,6.0,5.0,4.0,5.0,4.0,4.0,6.0,5.0,6.0,5.0,6.0,5.0,6.0,7.0,6.0,7.0,7.0,6.0,7.0,6.0,5.0,5.0,7.0,6.0,5.0,5.0,5.0,6.0,5.0,6.0,5.0,5.0,5.0,4.0,5.0,4.0,5.0,5.0,4.0,5.0,5.0,6.0,5.0,10.0,10.0,8.0,9.0,7.0,7.0,6.0,7.0,6.0,7.0,7.0,8.0,8.0,7.0,7.0,8.0,6.0,8.0,7.0,6.0,5.0,5.0,6.0,4.0,4.0,5.0,4.0,5.0,5.0,5.0,4.0,5.0,3.0,4.0,6.0,6.0,7.0,6.0,6.0,5.0,5.0,5.0,5.0,6.0,5.0,5.0,4.0,5.0,6.0
102.0,98.0,94.0,96.0,95.0,95.0,99.0,98.0,96.0,103.0,108.0,100.0,93.0,86.0,94.0,85.0,105.0,111.0,106.0,108.0,103.0,110.0,106.0,109.0,109.0,100.0,108.0,116.0,115.0,124.0,116.0,115.0,121.0,119.0,112.0,116.0,131.0,125.0,124.0,124.0,125.0,117.0,117.0,112.0,127.0,138.0,135.0,136.0,127.0,121.0,134.0,127.0,121.0,110.0,118.0,120.0,121.0,119.0,106.0,101.0,118.0,114.0,115.0,110.0,128.0,125.0,125.0,124.0,117.0,121.0,114.0,108.0,108.0,105.0,100.0,101.0,99.0,98.0,97.0,101.0,112.0,109.0,113.0,106.0,105.0,106.0,105.0,109.0,102.0,99.0,106.0,108.0,102.0,99.0,102.0,101.0,102.0,100.0,98.0,105.0,107.0,105.0,110.0,108.0,107.0,103.0,98.0,103.0,113.0,130.0,122.0,116.0,121.0,121.0,126.0,119.0,124.0,122.0,126.0,117.0,110.0,108.0,117.0,116.0,116.0,122.0,116.0,111.0,110.0,103.0,95.0,98.0,101.0,99.0,93.0,93.0,96.0,91.0,92.0,100.0,99.0,103.0,106.0,113.0,116.0,121.0,116.0,110.0,107.0,111.0,104.0,102.0,98.0,104.0,106.0,99.0,96.0,97.0,102.0,100.0,106.0,111.0,114.0,106.0,109.0,115.0,110.0,107.0,114.0,115.0,109.0,103.0,102.0,98.0,108.0,107.0,103.0,97.0,107.0,106.0,103.0,106.0,104.0,103.0,104.0,98.0,116.0,110.0,108.0,109.0,114.0,111.0,124.0,118.0,119.0,146.0,146.0,143.0,141.0,139.0,133.0,123.0,117.0,114.0,119.0,116.0,113.0,111.0,116.0,130.0,127.0,120.0,110.0,109.0,120.0,125.0,122.0,116.0,111.0,112.0,114.0,111.0,100.0,96.0,114.0,117.0,112.0,106.0,111.0,102.0,108.0,104.0,99.0,104.0,101.0,93.0,92.0,94.0,88.0,93.0,89.0,81.0,76.0,70.0,64.0,61.0,61.0,59.0,64.0,79.0,86.0,90.0,94.0,90.0,86.0,81.0,81.0,75.0,72.0,71.0,64.0,62.0,59.0,58.0,56.0,52.0,51.0,48.0,49.0,46.0,45.0,43.0,45.0,47.0,47.0,47.0,46.0,45.0,46.0,46.0,45.0,44.0,42.0,39.0,37.0,38.0,34.0,33.0,33.0,33.0,32.0,31.0,32.0,31.0,31.0,29.0,29.0,28.0,28.0,29.0,28.0,29.0,29.0,29.0,29.0,29.0,30.0,28.0,29.0,29.0,28.0,27.0,28.0,28.0,27.0,26.0,27.0,27.0,26.0,27.0,28.0,26.0,26.0,27.0,27.0,27.0,27.0,28.0,26.0,28.0,28.0,27.0,27.0,27.0,30.0,28.0,31.0,29.0,29.0,29.0,28.0,28.0,28.0,27.0,27.0,26.0,26.0,26.0,26.0,26.0,26.0,26.0,26.0,26.0,25.0,27.0,25.0,26.0,26.0,26.0,27.0,27.0,34.0,38.0,46.0,47.0,45.0,43.0,41.0,40.0,37.0,35.0,33.0,31.0,30.0,31.0,33.0,33.0,35.0,35.0,34.0,33.0,33.0,32.0,32.0,31.0,30.0,32.0,34.0,34.0,35.0,32.0,32.0,42.0,52.0,53.0,52.0,51.0,48.0,49.0,54.0,51.0,48.0,45.0,47.0,48.0,46.0,44.0,43.0,46.0,44.0,45.0,50.0,56.0,52.0,48.0,45.0,43.0,41.0,38.0,36.0,39.0,38.0,36.0,44.0,46.0,44.0,44.0,42.0,41.0,43.0,48.0,89.0,115.0,131.0,169.0,182.0,199.0,199.0,198.0,194.0,226.0,229.0,245.0,306.0,291.0,301.0,310.0,302.0,302.0,290.0,308.0,308.0,334.0,340.0,356.0,386.0,362.0,362.0,344.0,342.0,327.0,336.0,337.0,329.0,308.0,288.0,285.0,280.0,299.0,309.0,292.0,297.0,272.0,258.0,255.0,255.0,263.0,245.0,239.0,248.0,233.0,230.0,228.0,211.0,223.0,213.0,197.0,199.0,190.0,183.0,172.0,161.0,153.0,144.0,142.0,145.0,147.0,135.0,130.0,126.0,132.0,123.0,129.0,132.0,131.0,124.0,121.0,120.0,137.0,148.0,145.0,140.0,137.0,145.0,151.0,158.0,150.0,143.0,148.0,152.0,144.0,154.0,151.0,151.0,156.0,166.0,165.0,158.0,148.0,143.0,141.0,142.0,140.0,134.0,131.0,137.0,139.0,139.0,132.0,126.0,123.0,115.0,124.0,125.0,121.0,113.0,133.0,129.0,123.0,132.0,119.0,117.0,133.0,129.0,129.0,127.0,121.0,122.0,118.0,121.0,116.0,123.0,126.0,125.0,116.0,111.0,110.0,102.0,122.0,119.0,117.0,114.0,113.0,111.0,104.0,103.0,98.0,121.0,119.0,146.0,163.0,159.0,170.0,186.0,191.0,184.0,169.0,161.0,168.0,165.0,163.0,192.0,186.0,178.0,173.0,173.0,173.0,168.0,160.0,152.0,143.0,137.0,142.0,140.0,142.0,136.0,131.0,133.0,129.0,134.0,134.0,129.0,121.0,117.0,115.0,112.0,110.0,114.0,118.0,117.0,111.0,114.0,123.0,118.0,119.0,122.0,118.0,114.0,117.0,116.0,121.0,123.0,116.0,116.0,122.0,122.0,117.0,114.0,129.0,134.0,134.0,140.0,157.0,158.0,243.0,251.0,249.0,264.0,276.0,266.0,245.0,258.0,276.0,256.0,249.0,241.0,241.0,231.0,224.0,217.0,203.0,185.0,178.0,169.0,160.0,167.0,161.0,153.0,143.0,164.0,163.0,156.0,149.0,151.0,165.0,156.0,148.0,152.0,158.0,152.0,151.0,148.0,151.0,146.0,135.0,121.0,120.0,124.0,138.0,139.0,142.0,138.0,152.0,153.0,144.0,140.0,151.0,143.0,145.0,137.0,131.0,128.0,135.0,128.0,132.0,132.0,137.0,135.0,137.0,147.0,144.0,144.0,135.0,133.0,133.0,130.0,129.0,117.0,116.0,116.0,110.0,114.0,117.0,108.0,115.0,120.0,127.0,139.0,140.0,136.0,131.0,135.0,127.0,127.0,127.0,127.0,128.0,124.0,119.0,113.0,109.0,113.0,117.0,108.0,103.0,97.0,95.0,89.0,88.0,95.0,94.0,94.0,91.0,88.0,96.0,93.0,101.0,107.0,104.0,107.0,101.0,108.0,103.0,109.0,110.0,106.0,104.0,99.0,99.0,95.0,93.0,92.0,87.0,98.0,104.0,110.0,107.0,113.0,110.0,124.0,113.0,114.0,126.0,121.0,127.0,131.0,133.0,126.0,129.0,128.0,117.0,116.0,110.0,106.0,110.0,113.0,116.0,115.0,111.0,108.0,108.0,108.0,101.0,116.0,121.0,119.0,113.0,110.0,124.0,125.0,118.0,117.0,111.0,123.0,121.0,120.0,112.0,103.0,100.0,113.0,116.0,122.0,118.0,123.0,119.0,127.0,128.0,126.0,132.0,126.0,122.0,123.0,127.0,132.0,127.0,124.0,126.0,125.0,129.0,129.0,120.0,128.0,128.0,122.0,130.0,125.0,136.0,141.0,145.0,140.0,135.0,130.0,131.0,130.0,127.0,116.0,106.0,125.0,127.0,125.0,123.0,110.0,111.0,111.0,109.0,101.0,97.0,97.0,103.0,104.0,104.0,98.0,103.0,105.0,107.0,99.0,99.0,101.0,107.0,102.0,99.0,95.0,93.0,101.0,100.0,99.0,97.0,99.0,109.0,107.0,102.0,104.0,100.0,97.0,95.0,102.0,107.0,114.0,128.0,117.0,105.0,98.0,104.0,107.0,109.0,104.0,100.0,113.0,118.0,119.0,119.0,111.0,109.0,106.0,113.0,105.0,95.0,91.0,117.0,111.0,119.0,120.0,116.0,115.0,120.0,122.0,121.0,113.0,114.0,112.0,118.0,109.0,107.0,106.0,100.0,111.0,114.0,115.0,109.0,107.0,114.0,114.0,111.0,110.0,103.0,95.0,103.0,99.0,106.0,100.0,98.0,115.0,116.0,122.0,116.0,112.0,104.0,106.0,116.0,112.0,108.0,102.0,98.0,97.0,106.0,112.0,113.0,105.0,103.0,112.0,122.0,117.0,110.0,111.0,103.0,119.0,116.0,108.0,103.0,99.0,97.0,98.0,106.0,97.0,113.0,117.0,115.0,109.0,100.0,93.0,85.0,92.0,90.0,85.0,88.0,93.0,97.0,96.0,107.0
