67.0,66.0,66.0,66.0,65.0,67.0,64.0,63.0,64.0,64.0,63.0,61.0,63.0,64.0,64.0,65.0,66.0,65.0,65.0,67.0,66.0,65.0,67.0,67.0,69.0,70.0,73.0,74.0,75.0,76.0,76.0,77.0,76.0,78.0,78.0,79.0,83.0,86.0,89.0,92.0,94.0,96.0,99.0,101.0,102.0,104.0,105.0,109.0,110.0,112.0,114.0,115.0,116.0,119.0,121.0,123.0,125.0,127.0,130.0,131.0,132.0,134.0,135.0,138.0,141.0,143.0,147.0,149.0,152.0,157.0,158.0,164.0,168.0,174.0,177.0,180.0,183.0,189.0,194.0,199.0,204.0,207.0,211.0,216.0,220.0,225.0,230.0,234.0,238.0,242.0,247.0,250.0,255.0,260.0,264.0,268.0,271.0,274.0,276.0,279.0,281.0,283.0,284.0,287.0,288.0,290.0,292.0,293.0,297.0,298.0,300.0,302.0,302.0,303.0,302.0,302.0,304.0,304.0,308.0,306.0,308.0,309.0,309.0,309.0,310.0,312.0,312.0,312.0,312.0,311.0,310.0,309.0,309.0,307.0,306.0,306.0,305.0,304.0,301.0,302.0,299.0,299.0,299.0,300.0,301.0,300.0,301.0,301.0,301.0,300.0,298.0,296.0,294.0,293.0,292.0,290.0,289.0,287.0,287.0,287.0,287.0,286.0,286.0,286.0,287.0,286.0,285.0,286.0,285.0,284.0,285.0,285.0,286.0,286.0,285.0,284.0,283.0,280.0,279.0,278.0,276.0,275.0,274.0,273.0,273.0,272.0,270.0,268.0,266.0,264.0,263.0,262.0,262.0,262.0,261.0,259.0,259.0,255.0,254.0,251.0,250.0,246.0,243.0,239.0,235.0,233.0,231.0,229.0,227.0,224.0,222.0,220.0,220.0,218.0,216.0,215.0,213.0,214.0,212.0,213.0,213.0,213.0,214.0,213.0,213.0,212.0,210.0,208.0,206.0,207.0,205.0,205.0,204.0,203.0,202.0,200.0,199.0,197.0,197.0,195.0,193.0,192.0,191.0,189.0,188.0,188.0,187.0,188.0,188.0,187.0,187.0,186.0,187.0,187.0,187.0,185.0,185.0,186.0,185.0,186.0,185.0,184.0,184.0,182.0,181.0,181.0,180.0,179.0,178.0,177.0,175.0,174.0,173.0,172.0,172.0,171.0,172.0,173.0,172.0,171.0,172.0,170.0,170.0,168.0,168.0,168.0,165.0,166.0,165.0,163.0,163.0,161.0,161.0,160.0,160.0,158.0,156.0,154.0,153.0,150.0,148.0,147.0,144.0,140.0,137.0,137.0,135.0,134.0,133.0,133.0,130.0,128.0,126.0,124.0,121.0,120.0,120.0,117.0,116.0,114.0,112.0,111.0,110.0,111.0,109.0,109.0,109.0,108.0,106.0,104.0,103.0,100.0,99.0,96.0,92.0,90.0,86.0,85.0,80.0,77.0,75.0,72.0,72.0,69.0,67.0,64.0,63.0,60.0,57.0,55.0,53.0,54.0,51.0,50.0,49.0,48.0,47.0,45.0,46.0,44.0,44.0,44.0,43.0,52.0,59.0,62.0,67.0,90.0,88.0,84.0,94.0,88.0,82.0,80.0,73.0,80.0,93.0,104.0,107.0,116.0,122.0,139.0,147.0,150.0,178.0,189.0,184.0,177.0,166.0,177.0,178.0,168.0,155.0,145.0,138.0,130.0,132.0,126.0,124.0,120.0,121.0,125.0,121.0,123.0,119.0,116.0,116.0,121.0,118.0,116.0,117.0,115.0,115.0,117.0,115.0,113.0,112.0,108.0,109.0,110.0,110.0,109.0,112.0,110.0,111.0,109.0,111.0,108.0,108.0,109.0,108.0,108.0,108.0,108.0,109.0,107.0,105.0,103.0,101.0,98.0,98.0,95.0,93.0,90.0,90.0,90.0,88.0,87.0,85.0,85.0,82.0,80.0,80.0,77.0,80.0,81.0,81.0,81.0,78.0,81.0,78.0,76.0,74.0,73.0,71.0,68.0,71.0,68.0,67.0,65.0,65.0,65.0,64.0,61.0,60.0,58.0,62.0,62.0,65.0,66.0,67.0,70.0,74.0,81.0,88.0,98.0,107.0,116.0,124.0,128.0,141.0,148.0,153.0,160.0,162.0,168.0,170.0,173.0,176.0,178.0,179.0,178.0,178.0,177.0,175.0,173.0,172.0,171.0,170.0,168.0,168.0,165.0,161.0,160.0,159.0,157.0,155.0,153.0,150.0,148.0,145.0,144.0,142.0,139.0,136.0,133.0,133.0,129.0,127.0,125.0,124.0,122.0,120.0,118.0,116.0,113.0,112.0,110.0,110.0,108.0,106.0,104.0,104.0,103.0,104.0,103.0,102.0,101.0,99.0,98.0,94.0,94.0,91.0,89.0,88.0,85.0,87.0,84.0,82.0,79.0,80.0,79.0,77.0,80.0,79.0,79.0,79.0,78.0,77.0,75.0,75.0,72.0,73.0,71.0,71.0,71.0,70.0,69.0,70.0,70.0,68.0,69.0,70.0,67.0,71.0,68.0,71.0,70.0,70.0,70.0,70.0,69.0,70.0,70.0,72.0,71.0,74.0,76.0,77.0,76.0,77.0,78.0,78.0,76.0,76.0,77.0,76.0,77.0,78.0,79.0,77.0,78.0,80.0,78.0,80.0,78.0,80.0,80.0,80.0,82.0,83.0,84.0,86.0,87.0,88.0,88.0,88.0,89.0,89.0,91.0,91.0,90.0,91.0,91.0,91.0,90.0,90.0,90.0,91.0,92.0,90.0,89.0,88.0,89.0,89.0,89.0,89.0,89.0,88.0,90.0,89.0,90.0,89.0,89.0,91.0,92.0,91.0,92.0,92.0,93.0,94.0,93.0,95.0,94.0,93.0,95.0,95.0,100.0,104.0,108.0,105.0,109.0,114.0,118.0,121.0,120.0,119.0,120.0,122.0,133.0,133.0,143.0,149.0,156.0,164.0,160.0,181.0,185.0,188.0,189.0,193.0,190.0,192.0,192.0,191.0,187.0,187.0,184.0,183.0,180.0,178.0,176.0,167.0,169.0,171.0,170.0,166.0,161.0,161.0,159.0,156.0,154.0,149.0,147.0,145.0,147.0,147.0,146.0,143.0,138.0,136.0,132.0,132.0,132.0,129.0,126.0,126.0,121.0,121.0,114.0,119.0,116.0,119.0,116.0,113.0,114.0,110.0,109.0,107.0,105.0,106.0,106.0,105.0,103.0,102.0,100.0,100.0,101.0,98.0,98.0,96.0,95.0,96.0,94.0,93.0,92.0,89.0,87.0,86.0,85.0,85.0,88.0,86.0,87.0,83.0,87.0,87.0,84.0,84.0,82.0,80.0,80.0,77.0,78.0,76.0,78.0,74.0,72.0,69.0,67.0,73.0,71.0,69.0,66.0,63.0,61.0,59.0,58.0,56.0,55.0,54.0,53.0,51.0,51.0,51.0,49.0,52.0,49.0,48.0,48.0,50.0,58.0,57.0,57.0,54.0,53.0,52.0,51.0,51.0,49.0,51.0,50.0,50.0,48.0,47.0,47.0,49.0,49.0,49.0,48.0,49.0,49.0,49.0,57.0,59.0,59.0,56.0,56.0,54.0,53.0,53.0,52.0,53.0,53.0,53.0,52.0,50.0,49.0,50.0,51.0,51.0,53.0,53.0,54.0,54.0,55.0,54.0,54.0,54.0,55.0,54.0,55.0,57.0,58.0,60.0,60.0,59.0,59.0,58.0,57.0,59.0,58.0,59.0,57.0,57.0,56.0,55.0,55.0,52.0,52.0,51.0,52.0,52.0,52.0,53.0,54.0,53.0,53.0,52.0,52.0,52.0,54.0,52.0,51.0,51.0,51.0,49.0,49.0,50.0,48.0,49.0,48.0,47.0,47.0,48.0,49.0,48.0,49.0,49.0,49.0,49.0,48.0,49.0,50.0,49.0,48.0,48.0,48.0,47.0,47.0,46.0,46.0,47.0,46.0,46.0,45.0,46.0,46.0,46.0,46.0,46.0,46.0,45.0,47.0,45.0,45.0,44.0,45.0,44.0,44.0,46.0,46.0,46.0,46.0,45.0,45.0,44.0,45.0,44.0,46.0,47.0,47.0,47.0,46.0,47.0,44.0,45.0,46.0,45.0,46.0,45.0,47.0,46.0,46.0,46.0,45.0,45.0,46.0,46.0,46.0,46.0,46.0,46.0,46.0,47.0,47.0,48.0,48.0,50.0,50.0,50.0,49.0,50.0,50.0,50.0,52.0,51.0,51.0,52.0,51.0,50.0,50.0,50.0,49.0,49.0,49.0,50.0,53.0,50.0,50.0,51.0,51.0,52.0,53.0,53.0,54.0,54.0,53.0,54.0,55.0
30.0,29.0,29.0,29.0,29.0,30.0,30.0,29.0,29.0,29.0,30.0,29.0,28.0,30.0,29.0,30.0,30.0,29.0,30.0,30.0,30.0,29.0,29.0,30.0,29.0,30.0,30.0,30.0,29.0,30.0,30.0,30.0,30.0,30.0,30.0,29.0,30.0,30.0,28.0,30.0,29.0,30.0,30.0,30.0,30.0,30.0,30.0,31.0,30.0,30.0,29.0,31.0,30.0,30.0,30.0,30.0,30.0,29.0,31.0,30.0,30.0,30.0,30.0,30.0,29.0,31.0,30.0,31.0,30.0,31.0,30.0,30.0,31.0,30.0,30.0,30.0,30.0,31.0,29.0,31.0,30.0,30.0,30.0,30.0,30.0,31.0,31.0,31.0,31.0,31.0,31.0,32.0,31.0,32.0,31.0,31.0,31.0,31.0,31.0,32.0,32.0,32.0,32.0,32.0,32.0,32.0,32.0,33.0,32.0,32.0,32.0,32.0,33.0,32.0,32.0,32.0,32.0,32.0,32.0,32.0,32.0,33.0,32.0,32.0,32.0,31.0,31.0,32.0,32.0,32.0,30.0,32.0,31.0,31.0,31.0,31.0,32.0,30.0,32.0,31.0,31.0,31.0,32.0,32.0,30.0,31.0,32.0,31.0,32.0,32.0,32.0,32.0,32.0,32.0,32.0,33.0,32.0,33.0,32.0,33.0,33.0,32.0,34.0,33.0,34.0,32.0,33.0,33.0,33.0,32.0,32.0,33.0,32.0,33.0,32.0,32.0,32.0,32.0,33.0,32.0,33.0,32.0,32.0,32.0,32.0,33.0,32.0,32.0,32.0,31.0,32.0,32.0,33.0,32.0,31.0,32.0,31.0,32.0,31.0,33.0,31.0,32.0,32.0,31.0,32.0,32.0,32.0,31.0,31.0,31.0,31.0,32.0,31.0,32.0,32.0,32.0,32.0,31.0,31.0,32.0,32.0,31.0,32.0,31.0,31.0,32.0,31.0,32.0,32.0,31.0,32.0,31.0,31.0,31.0,32.0,31.0,32.0,31.0,31.0,31.0,31.0,32.0,31.0,30.0,31.0,31.0,31.0,31.0,32.0,32.0,30.0,32.0,31.0,31.0,32.0,32.0,31.0,32.0,31.0,31.0,31.0,31.0,31.0,31.0,32.0,31.0,31.0,31.0,31.0,31.0,32.0,30.0,31.0,31.0,31.0,31.0,32.0,31.0,30.0,31.0,31.0,31.0,31.0,30.0,31.0,30.0,30.0,31.0,31.0,31.0,30.0,32.0,30.0,30.0,31.0,30.0,30.0,31.0,31.0,30.0,30.0,31.0,30.0,30.0,29.0,32.0,31.0,31.0,32.0,31.0,32.0,31.0,33.0,31.0,31.0,32.0,31.0,32.0,32.0,32.0,32.0,31.0,32.0,31.0,32.0,32.0,31.0,32.0,32.0,32.0,32.0,32.0,31.0,33.0,31.0,32.0,32.0,31.0,31.0,31.0,32.0,31.0,31.0,32.0,32.0,32.0,32.0,33.0,32.0,31.0,31.0,31.0,31.0,30.0,31.0,31.0,30.0,31.0,31.0,31.0,31.0,31.0,31.0,30.0,31.0,30.0,30.0,31.0,31.0,31.0,30.0,31.0,31.0,31.0,32.0,31.0,32.0,32.0,33.0,32.0,31.0,32.0,32.0,33.0,32.0,32.0,33.0,32.0,33.0,32.0,34.0,32.0,33.0,32.0,31.0,32.0,32.0,33.0,32.0,31.0,31.0,31.0,31.0,31.0,32.0,31.0,32.0,32.0,31.0,31.0,31.0,32.0,31.0,31.0,31.0,31.0,31.0,31.0,33.0,31.0,31.0,32.0,31.0,31.0,31.0,32.0,31.0,32.0,32.0,31.0,32.0,31.0,32.0,32.0,30.0,31.0,31.0,31.0,31.0,32.0,31.0,31.0,32.0,31.0,31.0,31.0,31.0,30.0,31.0,31.0,30.0,31.0,30.0,31.0,31.0,31.0,31.0,31.0,31.0,31.0,31.0,30.0,30.0,31.0,30.0,31.0,31.0,31.0,31.0,30.0,30.0,31.0,30.0,31.0,31.0,31.0,30.0,31.0,31.0,31.0,31.0,31.0,32.0,31.0,32.0,31.0,31.0,31.0,32.0,32.0,30.0,31.0,31.0,31.0,31.0,31.0,31.0,30.0,31.0,31.0,30.0,31.0,31.0,32.0,30.0,31.0,31.0,30.0,31.0,31.0,32.0,30.0,31.0,30.0,30.0,30.0,29.0,31.0,30.0,30.0,31.0,30.0,31.0,30.0,31.0,30.0,30.0,30.0,30.0,31.0,31.0,32.0,32.0,31.0,31.0,31.0,31.0,30.0,31.0,30.0,31.0,31.0,31.0,31.0,30.0,32.0,31.0,31.0,31.0,31.0,31.0,29.0,30.0,30.0,31.0,31.0,30.0,31.0,31.0,31.0,31.0,30.0,31.0,31.0,31.0,31.0,32.0,32.0,31.0,32.0,31.0,31.0,32.0,31.0,32.0,31.0,32.0,31.0,31.0,32.0,33.0,32.0,32.0,32.0,33.0,33.0,33.0,33.0,33.0,32.0,33.0,33.0,33.0,32.0,33.0,33.0,32.0,33.0,32.0,32.0,32.0,33.0,32.0,32.0,31.0,31.0,31.0,32.0,32.0,32.0,32.0,33.0,32.0,31.0,32.0,31.0,32.0,31.0,31.0,31.0,31.0,31.0,32.0,32.0,31.0,31.0,31.0,31.0,32.0,31.0,32.0,30.0,30.0,31.0,30.0,31.0,31.0,31.0,30.0,31.0,32.0,31.0,32.0,33.0,33.0,32.0,33.0,33.0,33.0,32.0,33.0,34.0,32.0,32.0,33.0,33.0,33.0,32.0,32.0,32.0,32.0,32.0,32.0,33.0,32.0,33.0,32.0,32.0,32.0,31.0,33.0,32.0,33.0,33.0,33.0,33.0,33.0,34.0,33.0,35.0,34.0,34.0,34.0,34.0,35.0,33.0,35.0,34.0,34.0,35.0,35.0,34.0,35.0,35.0,34.0,34.0,35.0,33.0,33.0,33.0,34.0,34.0,33.0,33.0,32.0,33.0,33.0,34.0,34.0,32.0,35.0,33.0,33.0,33.0,33.0,33.0,32.0,33.0,32.0,33.0,33.0,33.0,34.0,32.0,32.0,32.0,31.0,32.0,32.0,31.0,32.0,33.0,32.0,32.0,32.0,31.0,33.0,32.0,32.0,32.0,32.0,32.0,32.0,33.0,32.0,32.0,32.0,31.0,32.0,32.0,32.0,30.0,31.0,32.0,31.0,32.0,31.0,33.0,32.0,31.0,32.0,31.0,31.0,31.0,31.0,31.0,30.0,31.0,31.0,31.0,31.0,31.0,31.0,31.0,31.0,31.0,31.0,30.0,31.0,31.0,31.0,31.0,30.0,31.0,31.0,31.0,30.0,30.0,30.0,31.0,30.0,30.0,31.0,31.0,30.0,31.0,30.0,31.0,31.0,31.0,31.0,31.0,31.0,30.0,30.0,31.0,31.0,32.0,30.0,31.0,30.0,30.0,30.0,30.0,31.0,31.0,30.0,30.0,30.0,30.0,31.0,31.0,30.0,30.0,30.0,31.0,30.0,30.0,31.0,30.0,30.0,30.0,30.0,30.0,31.0,31.0,30.0,30.0,30.0,30.0,30.0,29.0,31.0,30.0,30.0,30.0,30.0,30.0,29.0,31.0,30.0,30.0,30.0,31.0,31.0,30.0,31.0,30.0,31.0,30.0,30.0,30.0,29.0,31.0,30.0,30.0,31.0,30.0,31.0,29.0,32.0,30.0,30.0,31.0,30.0,31.0,31.0,32.0,30.0,31.0,31.0,31.0,32.0,32.0,33.0,32.0,32.0,32.0,31.0,31.0,31.0,33.0,32.0,32.0,33.0,32.0,32.0,32.0,33.0,32.0,32.0,32.0,31.0,32.0,32.0,33.0,32.0,31.0,32.0,31.0,32.0,32.0,32.0,32.0,32.0,33.0,31.0,33.0,33.0,34.0,34.0,32.0,33.0,34.0,34.0,33.0,34.0,34.0,32.0,33.0,32.0,33.0,33.0,33.0,33.0,32.0,33.0,32.0,31.0,31.0,32.0,32.0,32.0,32.0,32.0,31.0,31.0,31.0,32.0,30.0,31.0,31.0,31.0,32.0,31.0,32.0,31.0,32.0,33.0,31.0,31.0,32.0,32.0,32.0,31.0,32.0,31.0,31.0,31.0,32.0,31.0,31.0,31.0,31.0,31.0,31.0,31.0,32.0,31.0,31.0,32.0,32.0,31.0,33.0,32.0,32.0,32.0,31.0,31.0,32.0,33.0,32.0,31.0,31.0,31.0,31.0,31.0,32.0,30.0,31.0
4.0,3.0,4.0,4.0,4.0,5.0,4.0,4.0,4.0,4.0,4.0,4.0,4.0,4.0,4.0,5.0,5.0,5.0,5.0,5.0,4.0,8.0,7.0,8.0,7.0,7.0,8.0,6.0,6.0,6.0,5.0,5.0,5.0,5.0,4.0,5.0,4.0,4.0,4.0,5.0,6.0,6.0,7.0,6.0,6.0,9.0,8.0,9.0,7.0,7.0,10.0,10.0,11.0,9.0,10.0,7.0,7.0,8.0,8.0,7.0,6.0,7.0,8.0,7.0,7.0,7.0,6.0,5.0,6.0,5.0,4.0,5.0,5.0,5.0,5.0,7.0,6.0,6.0,5.0,5.0,5.0,5.0,8.0,9.0,10.0,10.0,9.0,8.0,8.0,8.0,7.0,6.0,6.0,5.0,5.0,7.0,5.0,5.0,4.0,5.0,5.0,6.0,5.0,5.0,5.0,4.0,7.0,7.0,6.0,5.0,6.0,6.0,4.0,5.0,5.0,5.0,5.0,5.0,7.0,4.0,6.0,6.0,5.0,5.0,8.0,8.0,6.0,6.0,6.0,6.0,6.0,5.0,8.0,8.0,7.0,7.0,9.0,8.0,8.0,9.0,6.0,7.0,7.0,6.0,8.0,7.0,7.0,6.0,7.0,7.0,6.0,6.0,5.0,7.0,6.0,6.0,6.0,6.0,6.0,5.0,7.0,8.0,11.0,10.0,9.0,8.0,7.0,8.0,7.0,7.0,7.0,9.0,9.0,8.0,8.0,8.0,8.0,8.0,8.0,7.0,7.0,6.0,7.0,6.0,7.0,7.0,7.0,7.0,8.0,8.0,7.0,7.0,7.0,6.0,5.0,7.0,6.0,5.0,6.0,8.0,7.0,7.0,8.0,6.0,7.0,8.0,8.0,7.0,6.0,6.0,6.0,6.0,7.0,6.0,6.0,5.0,5.0,6.0,4.0,5.0,5.0,6.0,7.0,5.0,6.0,6.0,5.0,5.0,5.0,5.0,5.0,6.0,5.0,5.0,5.0,3.0,6.0,5.0,6.0,4.0,5.0,5.0,4.0,4.0,4.0,6.0,4.0,6.0,6.0,5.0,5.0,5.0,6.0,4.0,4.0,4.0,5.0,5.0,4.0,8.0,6.0,6.0,6.0,5.0,6.0,6.0,7.0,6.0,6.0,5.0,5.0,5.0,5.0,7.0,6.0,5.0,5.0,5.0,5.0,4.0,4.0,4.0,4.0,3.0,4.0,4.0,4.0,5.0,5.0,4.0,4.0,3.0,4.0,4.0,5.0,4.0,3.0,4.0,3.0,6.0,5.0,6.0,6.0,4.0,7.0,6.0,6.0,5.0,6.0,5.0,4.0,5.0,5.0,6.0,6.0,5.0,6.0,5.0,5.0,4.0,5.0,5.0,5.0,6.0,4.0,6.0,5.0,5.0,5.0,4.0,6.0,6.0,5.0,5.0,5.0,5.0,5.0,5.0,4.0,5.0,5.0,4.0,4.0,5.0,5.0,4.0,4.0,4.0,4.0,5.0,5.0,7.0,5.0,5.0,5.0,5.0,5.0,5.0,5.0,4.0,5.0,5.0,5.0,6.0,5.0,7.0,10.0,10.0,9.0,10.0,10.0,15.0,14.0,15.0,14.0,23.0,25.0,30.0,27.0,30.0,37.0,36.0,33.0,31.0,28.0,25.0,25.0,21.0,19.0,17.0,15.0,14.0,13.0,13.0,15.0,19.0,18.0,19.0,18.0,16.0,14.0,22.0,20.0,19.0,17.0,17.0,15.0,14.0,12.0,10.0,10.0,10.0,8.0,7.0,11.0,10.0,10.0,9.0,8.0,7.0,7.0,7.0,7.0,6.0,6.0,6.0,5.0,5.0,5.0,5.0,4.0,4.0,5.0,4.0,4.0,4.0,5.0,5.0,5.0,4.0,5.0,4.0,4.0,5.0,4.0,4.0,3.0,3.0,4.0,4.0,4.0,2.0,4.0,3.0,3.0,5.0,4.0,4.0,4.0,3.0,3.0,4.0,4.0,4.0,4.0,3.0,4.0,3.0,3.0,4.0,4.0,4.0,4.0,4.0,3.0,3.0,4.0,3.0,4.0,3.0,3.0,4.0,3.0,4.0,3.0,4.0,4.0,3.0,3.0,3.0,4.0,3.0,4.0,4.0,3.0,3.0,3.0,4.0,4.0,4.0,4.0,4.0,4.0,3.0,4.0,4.0,2.0,2.0,3.0,3.0,3.0,4.0,3.0,4.0,3.0,3.0,3.0,3.0,4.0,3.0,4.0,3.0,3.0,4.0,3.0,4.0,3.0,4.0,3.0,3.0,3.0,3.0,4.0,3.0,4.0,3.0,4.0,3.0,3.0,3.0,3.0,4.0,3.0,2.0,4.0,3.0,3.0,3.0,4.0,3.0,2.0,4.0,2.0,3.0,3.0,4.0,4.0,4.0,3.0,3.0,3.0,4.0,3.0,4.0,3.0,3.0,3.0,3.0,3.0,3.0,4.0,2.0,4.0,4.0,3.0,4.0,4.0,3.0,2.0,4.0,3.0,3.0,4.0,4.0,4.0,4.0,4.0,3.0,3.0,4.0,3.0,5.0,4.0,4.0,4.0,3.0,3.0,4.0,5.0,4.0,4.0,4.0,3.0,4.0,3.0,4.0,4.0,4.0,4.0,3.0,4.0,4.0,4.0,3.0,3.0,4.0,3.0,3.0,4.0,5.0,3.0,3.0,4.0,3.0,4.0,3.0,4.0,4.0,4.0,4.0,3.0,4.0,3.0,4.0,4.0,4.0,4.0,4.0,4.0,3.0,4.0,4.0,4.0,3.0,4.0,4.0,4.0,4.0,3.0,3.0,4.0,3.0,4.0,4.0,4.0,4.0,4.0,4.0,3.0,4.0,4.0,4.0,4.0,4.0,6.0,6.0,6.0,7.0,9.0,9.0,30.0,38.0,39.0,81.0,94.0,104.0,95.0,86.0,85.0,81.0,118.0,109.0,117.0,104.0,108.0,108.0,113.0,137.0,137.0,127.0,121.0,110.0,102.0,102.0,99.0,88.0,83.0,76.0,76.0,75.0,74.0,74.0,75.0,71.0,65.0,61.0,66.0,58.0,54.0,66.0,71.0,65.0,58.0,60.0,61.0,64.0,57.0,53.0,51.0,57.0,59.0,58.0,56.0,49.0,43.0,41.0,40.0,40.0,40.0,45.0,45.0,41.0,42.0,37.0,33.0,29.0,46.0,44.0,43.0,42.0,46.0,39.0,36.0,37.0,42.0,38.0,36.0,36.0,38.0,34.0,42.0,38.0,37.0,42.0,38.0,35.0,33.0,31.0,39.0,33.0,34.0,30.0,26.0,25.0,23.0,21.0,19.0,23.0,27.0,24.0,22.0,20.0,31.0,29.0,35.0,32.0,28.0,26.0,24.0,21.0,20.0,17.0,24.0,20.0,20.0,19.0,18.0,17.0,15.0,15.0,14.0,12.0,19.0,29.0,30.0,27.0,25.0,22.0,20.0,22.0,21.0,19.0,17.0,17.0,14.0,15.0,14.0,15.0,13.0,12.0,12.0,10.0,18.0,16.0,14.0,13.0,13.0,12.0,10.0,12.0,13.0,15.0,13.0,13.0,12.0,10.0,12.0,12.0,11.0,11.0,13.0,13.0,12.0,14.0,15.0,13.0,12.0,12.0,14.0,12.0,11.0,10.0,11.0,14.0,15.0,14.0,12.0,12.0,11.0,10.0,10.0,10.0,12.0,10.0,9.0,10.0,8.0,10.0,9.0,9.0,9.0,10.0,10.0,9.0,9.0,9.0,10.0,9.0,8.0,9.0,9.0,9.0,8.0,8.0,10.0,12.0,12.0,13.0,12.0,11.0,10.0,10.0,10.0,9.0,11.0,10.0,8.0,8.0,8.0,6.0,8.0,8.0,8.0,8.0,7.0,7.0,6.0,7.0,8.0,7.0,9.0,8.0,9.0,6.0,7.0,6.0,7.0,5.0,5.0,6.0,4.0,5.0,5.0,6.0,9.0,9.0,9.0,8.0,7.0,6.0,6.0,6.0,7.0,8.0,7.0,7.0,7.0,8.0,7.0,7.0,6.0,6.0,6.0,6.0,8.0,8.0,7.0,8.0,7.0,7.0,7.0,7.0,7.0,7.0,8.0,6.0,6.0,6.0,7.0,8.0,8.0,9.0,7.0,7.0,6.0,6.0,6.0,5.0,7.0,5.0,7.0,9.0,11.0,12.0,11.0,11.0,9.0,9.0,11.0,10.0,9.0,9.0,10.0,10.0,9.0,15.0,13.0,12.0,11.0,10.0,12.0,14.0,14.0,13.0,12.0,11.0,12.0,12.0,10.0,10.0,10.0,9.0,9.0,14.0,13.0,11.0,10.0,9.0,9.0,8.0
65.0,65.0,63.0,64.0,63.0,63.0,66.0,68.0,64.0,62.0,61.0,66.0,64.0,66.0,64.0,68.0,65.0,63.0,65.0,66.0,70.0,71.0,79.0,76.0,72.0,74.0,78.0,77.0,77.0,76.0,70.0,69.0,68.0,64.0,62.0,61.0,58.0,58.0,58.0,60.0,65.0,76.0,69.0,76.0,73.0,71.0,69.0,65.0,64.0,70.0,74.0,70.0,70.0,67.0,69.0,68.0,67.0,64.0,64.0,60.0,61.0,60.0,65.0,70.0,70.0,67.0,66.0,68.0,65.0,62.0,59.0,57.0,55.0,54.0,61.0,59.0,56.0,56.0,55.0,57.0,56.0,55.0,59.0,63.0,63.0,70.0,71.0,66.0,66.0,69.0,68.0,66.0,66.0,67.0,68.0,83.0,86.0,86.0,80.0,80.0,81.0,80.0,81.0,83.0,86.0,83.0,88.0,90.0,86.0,87.0,90.0,85.0,81.0,77.0,83.0,78.0,82.0,86.0,83.0,80.0,77.0,74.0,72.0,72.0,72.0,73.0,70.0,65.0,69.0,64.0,59.0,64.0,65.0,65.0,63.0,65.0,65.0,67.0,65.0,62.0,66.0,64.0,61.0,59.0,58.0,65.0,72.0,69.0,65.0,63.0,58.0,60.0,61.0,60.0,58.0,54.0,55.0,54.0,56.0,58.0,62.0,71.0,73.0,71.0,67.0,64.0,63.0,62.0,59.0,61.0,62.0,69.0,66.0,61.0,60.0,56.0,61.0,63.0,62.0,62.0,59.0,58.0,57.0,57.0,58.0,63.0,62.0,63.0,59.0,57.0,58.0,55.0,57.0,54.0,53.0,53.0,54.0,56.0,59.0,58.0,52.0,53.0,54.0,57.0,62.0,60.0,57.0,55.0,58.0,57.0,59.0,68.0,67.0,65.0,62.0,59.0,58.0,55.0,58.0,57.0,57.0,56.0,56.0,61.0,58.0,58.0,57.0,59.0,56.0,56.0,54.0,51.0,51.0,51.0,49.0,54.0,59.0,56.0,54.0,51.0,49.0,49.0,48.0,48.0,49.0,54.0,52.0,52.0,53.0,50.0,50.0,50.0,47.0,48.0,48.0,49.0,52.0,50.0,50.0,50.0,49.0,46.0,47.0,50.0,50.0,52.0,49.0,53.0,51.0,53.0,53.0,55.0,61.0,61.0,60.0,58.0,57.0,54.0,51.0,49.0,51.0,47.0,48.0,50.0,57.0,60.0,58.0,55.0,51.0,50.0,52.0,52.0,52.0,50.0,49.0,46.0,43.0,46.0,44.0,46.0,46.0,47.0,47.0,46.0,52.0,55.0,50.0,50.0,46.0,46.0,45.0,42.0,43.0,42.0,42.0,43.0,45.0,44.0,41.0,45.0,47.0,50.0,52.0,51.0,48.0,48.0,50.0,48.0,49.0,48.0,47.0,45.0,47.0,49.0,52.0,53.0,53.0,54.0,54.0,50.0,56.0,55.0,55.0,54.0,54.0,52.0,55.0,57.0,53.0,53.0,53.0,51.0,50.0,53.0,53.0,52.0,49.0,49.0,52.0,53.0,55.0,59.0,59.0,55.0,54.0,53.0,52.0,53.0,52.0,62.0,60.0,69.0,72.0,68.0,69.0,84.0,90.0,91.0,85.0,78.0,75.0,77.0,74.0,78.0,80.0,82.0,82.0,81.0,85.0,85.0,86.0,87.0,91.0,88.0,85.0,86.0,85.0,94.0,94.0,92.0,88.0,83.0,84.0,79.0,82.0,86.0,89.0,85.0,84.0,81.0,77.0,77.0,74.0,74.0,76.0,83.0,83.0,81.0,81.0,79.0,76.0,76.0,73.0,73.0,74.0,76.0,74.0,74.0,78.0,77.0,75.0,72.0,68.0,64.0,61.0,62.0,62.0,59.0,61.0,60.0,60.0,60.0,59.0,58.0,56.0,53.0,53.0,50.0,53.0,49.0,50.0,51.0,49.0,51.0,50.0,49.0,49.0,49.0,49.0,48.0,47.0,48.0,52.0,51.0,51.0,52.0,52.0,50.0,50.0,49.0,48.0,46.0,45.0,49.0,50.0,50.0,50.0,49.0,48.0,49.0,48.0,49.0,49.0,47.0,48.0,47.0,47.0,46.0,45.0,44.0,43.0,41.0,41.0,41.0,40.0,40.0,40.0,38.0,40.0,41.0,42.0,41.0,42.0,42.0,42.0,42.0,41.0,39.0,39.0,39.0,38.0,36.0,35.0,35.0,33.0,32.0,32.0,31.0,30.0,30.0,29.0,28.0,28.0,27.0,27.0,26.0,26.0,26.0,26.0,26.0,26.0,28.0,28.0,28.0,27.0,27.0,27.0,27.0,27.0,26.0,26.0,25.0,25.0,26.0,25.0,26.0,25.0,25.0,26.0,25.0,26.0,27.0,28.0,26.0,27.0,28.0,28.0,29.0,28.0,29.0,27.0,27.0,26.0,27.0,28.0,27.0,30.0,30.0,33.0,35.0,35.0,36.0,37.0,36.0,34.0,35.0,36.0,38.0,38.0,40.0,42.0,42.0,44.0,43.0,43.0,45.0,44.0,44.0,41.0,42.0,42.0,42.0,43.0,42.0,43.0,41.0,41.0,41.0,39.0,39.0,37.0,37.0,36.0,35.0,34.0,34.0,34.0,34.0,35.0,36.0,34.0,37.0,34.0,34.0,33.0,32.0,32.0,30.0,30.0,29.0,29.0,29.0,29.0,29.0,28.0,28.0,28.0,29.0,29.0,28.0,29.0,28.0,28.0,28.0,28.0,28.0,29.0,32.0,32.0,33.0,32.0,31.0,31.0,30.0,30.0,29.0,29.0,30.0,29.0,29.0,30.0,31.0,30.0,33.0,32.0,33.0,34.0,33.0,34.0,34.0,36.0,36.0,38.0,39.0,44.0,44.0,44.0,46.0,52.0,55.0,60.0,61.0,81.0,87.0,97.0,115.0,120.0,148.0,183.0,207.0,198.0,265.0,259.0,262.0,269.0,270.0,271.0,344.0,334.0,336.0,319.0,306.0,378.0,357.0,327.0,318.0,309.0,304.0,322.0,314.0,310.0,323.0,338.0,312.0,296.0,278.0,266.0,262.0,247.0,319.0,308.0,291.0,264.0,256.0,263.0,253.0,242.0,243.0,232.0,223.0,235.0,227.0,216.0,200.0,189.0,189.0,187.0,182.0,175.0,190.0,197.0,197.0,197.0,201.0,194.0,199.0,188.0,178.0,190.0,209.0,208.0,200.0,183.0,235.0,234.0,220.0,205.0,204.0,199.0,194.0,183.0,182.0,178.0,182.0,183.0,168.0,169.0,178.0,172.0,174.0,172.0,161.0,157.0,145.0,156.0,150.0,140.0,147.0,147.0,139.0,145.0,150.0,152.0,144.0,140.0,130.0,131.0,139.0,133.0,126.0,139.0,144.0,143.0,138.0,140.0,139.0,134.0,123.0,120.0,118.0,111.0,120.0,113.0,108.0,124.0,123.0,125.0,117.0,111.0,119.0,138.0,136.0,124.0,111.0,131.0,140.0,132.0,127.0,126.0,131.0,132.0,126.0,133.0,129.0,142.0,147.0,146.0,133.0,135.0,140.0,138.0,132.0,122.0,137.0,140.0,136.0,143.0,142.0,136.0,157.0,169.0,159.0,152.0,139.0,173.0,160.0,142.0,140.0,144.0,141.0,137.0,131.0,128.0,130.0,126.0,124.0,113.0,119.0,126.0,129.0,126.0,127.0,123.0,118.0,119.0,113.0,111.0,118.0,118.0,115.0,114.0,109.0,107.0,113.0,108.0,122.0,123.0,117.0,113.0,107.0,109.0,104.0,111.0,112.0,106.0,107.0,100.0,100.0,118.0,111.0,107.0,109.0,102.0,105.0,108.0,112.0,116.0,110.0,110.0,117.0,120.0,114.0,107.0,121.0,125.0,134.0,133.0,124.0,122.0,130.0,128.0,130.0,132.0,131.0,125.0,119.0,112.0,111.0,104.0,104.0,97.0,95.0,100.0,93.0,90.0,93.0,91.0,94.0,93.0,103.0,104.0,97.0,113.0,113.0,123.0,116.0,113.0,111.0,108.0,107.0,107.0,109.0,116.0,110.0,132.0,141.0,132.0,119.0,115.0,116.0,118.0,123.0,118.0,111.0,105.0,96.0,94.0,89.0,90.0,91.0,89.0,93.0,97.0,109.0,121.0,121.0,125.0,123.0,115.0,106.0,107.0,106.0,119.0,148.0,148.0,142.0,138.0,132.0,134.0,133.0,122.0,136.0,131.0,120.0,118.0,138.0,138.0,138.0,132.0,126.0,124.0,124.0,122.0,123.0,114.0,112.0,110.0,125.0,119.0,111.0,131.0,126.0,120.0,112.0,115.0,111.0,121.0,118.0,112.0,116.0
