84.0,85.0,84.0,84.0,83.0,83.0,83.0,82.0,80.0,81.0,81.0,80.0,80.0,81.0,80.0,80.0,81.0,79.0,81.0,80.0,80.0,79.0,80.0,80.0,81.0,82.0,82.0,83.0,83.0,83.0,83.0,84.0,83.0,84.0,83.0,83.0,83.0,82.0,80.0,81.0,80.0,81.0,80.0,80.0,80.0,81.0,81.0,80.0,80.0,81.0,80.0,80.0,79.0,81.0,79.0,78.0,77.0,75.0,75.0,75.0,75.0,74.0,73.0,74.0,73.0,72.0,73.0,73.0,75.0,74.0,73.0,72.0,70.0,72.0,77.0,78.0,78.0,75.0,79.0,81.0,77.0,75.0,72.0,74.0,78.0,79.0,90.0,98.0,96.0,99.0,100.0,105.0,110.0,111.0,112.0,117.0,125.0,132.0,146.0,144.0,148.0,149.0,148.0,145.0,144.0,142.0,140.0,141.0,140.0,138.0,137.0,135.0,133.0,133.0,130.0,132.0,133.0,132.0,133.0,130.0,131.0,129.0,126.0,124.0,124.0,123.0,120.0,120.0,121.0,121.0,124.0,124.0,123.0,124.0,126.0,127.0,126.0,127.0,125.0,129.0,125.0,127.0,123.0,126.0,126.0,125.0,125.0,125.0,124.0,125.0,123.0,124.0,122.0,119.0,120.0,122.0,123.0,121.0,122.0,122.0,122.0,119.0,120.0,118.0,117.0,117.0,116.0,117.0,120.0,118.0,118.0,117.0,115.0,113.0,113.0,114.0,110.0,114.0,111.0,110.0,106.0,106.0,108.0,106.0,105.0,103.0,103.0,110.0,105.0,106.0,104.0,103.0,107.0,102.0,107.0,105.0,104.0,110.0,106.0,106.0,106.0,110.0,114.0,115.0,115.0,116.0,116.0,115.0,118.0,118.0,121.0,120.0,118.0,118.0,116.0,114.0,113.0,115.0,113.0,112.0,113.0,112.0,112.0,111.0,111.0,111.0,110.0,112.0,109.0,108.0,108.0,107.0,109.0,107.0,109.0,106.0,105.0,105.0,105.0,104.0,104.0,105.0,104.0,104.0,102.0,102.0,99.0,98.0,98.0,98.0,96.0,95.0,93.0,94.0,92.0,94.0,93.0,91.0,92.0,89.0,89.0,88.0,88.0,87.0,85.0,82.0,80.0,82.0,80.0,80.0,80.0,78.0,80.0,78.0,77.0,77.0,74.0,77.0,75.0,74.0,73.0,74.0,74.0,72.0,74.0,73.0,74.0,74.0,73.0,75.0,72.0,71.0,69.0,70.0,69.0,68.0,65.0,64.0,62.0,62.0,62.0,61.0,59.0,58.0,58.0,57.0,56.0,55.0,54.0,53.0,53.0,51.0,50.0,51.0,54.0,52.0,51.0,52.0,52.0,51.0,51.0,50.0,50.0,51.0,51.0,51.0,50.0,50.0,49.0,49.0,49.0,47.0,48.0,47.0,47.0,48.0,48.0,48.0,45.0,46.0,46.0,50.0,54.0,55.0,55.0,53.0,52.0,50.0,50.0,49.0,50.0,50.0,49.0,51.0,49.0,48.0,47.0,47.0,46.0,47.0,47.0,48.0,49.0,51.0,53.0,70.0,73.0,75.0,72.0,69.0,65.0,65.0,64.0,63.0,62.0,62.0,60.0,61.0,61.0,60.0,61.0,59.0,60.0,58.0,58.0,56.0,54.0,54.0,56.0,56.0,55.0,54.0,53.0,51.0,50.0,49.0,53.0,58.0,61.0,70.0,72.0,73.0,73.0,77.0,76.0,79.0,82.0,82.0,83.0,81.0,86.0,87.0,84.0,84.0,85.0,90.0,88.0,85.0,98.0,94.0,91.0,86.0,84.0,82.0,81.0,80.0,78.0,77.0,77.0,75.0,73.0,72.0,71.0,70.0,67.0,67.0,67.0,64.0,64.0,65.0,66.0,66.0,64.0,64.0,63.0,65.0,65.0,62.0,61.0,60.0,62.0,65.0,65.0,66.0,67.0,70.0,70.0,69.0,72.0,73.0,75.0,79.0,76.0,76.0,76.0,77.0,76.0,77.0,75.0,71.0,72.0,75.0,75.0,73.0,76.0,81.0,78.0,76.0,76.0,79.0,80.0,81.0,82.0,78.0,75.0,73.0,71.0,69.0,68.0,67.0,68.0,66.0,74.0,74.0,76.0,73.0,73.0,76.0,84.0,88.0,86.0,86.0,85.0,86.0,90.0,94.0,98.0,95.0,102.0,109.0,109.0,116.0,116.0,121.0,130.0,133.0,137.0,136.0,143.0,141.0,148.0,151.0,155.0,160.0,158.0,161.0,163.0,165.0,166.0,167.0,168.0,171.0,169.0,176.0,180.0,179.0,176.0,170.0,173.0,171.0,168.0,167.0,166.0,168.0,166.0,165.0,167.0,163.0,165.0,162.0,162.0,164.0,158.0,159.0,159.0,155.0,158.0,157.0,156.0,153.0,157.0,156.0,155.0,155.0,154.0,153.0,148.0,150.0,148.0,148.0,149.0,146.0,146.0,149.0,148.0,149.0,148.0,148.0,147.0,146.0,144.0,148.0,146.0,152.0,153.0,151.0,145.0,143.0,140.0,139.0,140.0,136.0,134.0,139.0,132.0,137.0,138.0,136.0,131.0,129.0,123.0,121.0,123.0,120.0,115.0,114.0,115.0,114.0,110.0,109.0,109.0,111.0,116.0,113.0,112.0,111.0,111.0,110.0,111.0,110.0,109.0,110.0,110.0,112.0,111.0,115.0,118.0,117.0,115.0,117.0,119.0,118.0,119.0,119.0,119.0,123.0,125.0,122.0,125.0,127.0,130.0,129.0,132.0,137.0,139.0,142.0,143.0,147.0,150.0,151.0,154.0,155.0,157.0,156.0,159.0,161.0,161.0,166.0,170.0,174.0,175.0,182.0,182.0,182.0,186.0,191.0,194.0,196.0,202.0,202.0,207.0,206.0,213.0,215.0,217.0,221.0,222.0,221.0,223.0,225.0,226.0,227.0,229.0,230.0,231.0,231.0,232.0,231.0,232.0,232.0,232.0,231.0,230.0,228.0,227.0,225.0,221.0,218.0,213.0,208.0,205.0,198.0,194.0,190.0,188.0,182.0,177.0,172.0,169.0,163.0,161.0,159.0,156.0,154.0,155.0,157.0,160.0,160.0,160.0,164.0,166.0,170.0,175.0,182.0,186.0,191.0,196.0,199.0,202.0,207.0,211.0,216.0,220.0,222.0,228.0,228.0,232.0,238.0,242.0,246.0,250.0,252.0,255.0,256.0,260.0,261.0,259.0,260.0,257.0,257.0,253.0,246.0,244.0,243.0,245.0,244.0,247.0,241.0,246.0,247.0,241.0,236.0,230.0,227.0,228.0,219.0,217.0,214.0,208.0,197.0,193.0,188.0,189.0,186.0,178.0,174.0,172.0,173.0,165.0,161.0,157.0,150.0,145.0,140.0,135.0,135.0,129.0,123.0,120.0,118.0,115.0,111.0,108.0,108.0,106.0,102.0,99.0,97.0,94.0,94.0,95.0,92.0,89.0,91.0,93.0,92.0,87.0,86.0,84.0,87.0,84.0,88.0,85.0,91.0,92.0,89.0,87.0,86.0,85.0,82.0,80.0,77.0,80.0,79.0,82.0,84.0,91.0,94.0,94.0,94.0,99.0,102.0,113.0,118.0,120.0,124.0,125.0,126.0,129.0,130.0,131.0,131.0,131.0,130.0,129.0,129.0,128.0,125.0,124.0,122.0,120.0,118.0,114.0,111.0,108.0,104.0,99.0,96.0,93.0,87.0,85.0,81.0,77.0,75.0,73.0,70.0,67.0,64.0,62.0,60.0,57.0,56.0,54.0,53.0,52.0,51.0,50.0,48.0,50.0,48.0,47.0,47.0,48.0,48.0,48.0,49.0,50.0,50.0,51.0,53.0,54.0,56.0,57.0,60.0,62.0,63.0,63.0,64.0,66.0,65.0,68.0,68.0,69.0,72.0,73.0,75.0,77.0,79.0,81.0,81.0,83.0,85.0,86.0,85.0,88.0,88.0,90.0,88.0,89.0,91.0,92.0,93.0,95.0,94.0,96.0,97.0,100.0,102.0,103.0,106.0,107.0,108.0,109.0,110.0,111.0,112.0,114.0,115.0,114.0,115.0,118.0,116.0,118.0,118.0,119.0,117.0,116.0,118.0,118.0,120.0,120.0,121.0,120.0,120.0,122.0,122.0,124.0,126.0,126.0,126.0,127.0,127.0,128.0,130.0,131.0,131.0,131.0,132.0,133.0,133.0,132.0,134.0,133.0,133.0,135.0,137.0,138.0,138.0,138.0,139.0,138.0,140.0,141.0,142.0,141.0,141.0,142.0,142.0,143.0,144.0,147.0,144.0,145.0,146.0,147.0,149.0,149.0,152.0,154.0,156.0
59.0,57.0,55.0,53.0,52.0,50.0,49.0,48.0,46.0,44.0,43.0,42.0,43.0,43.0,42.0,40.0,39.0,39.0,41.0,40.0,39.0,40.0,39.0,39.0,40.0,40.0,41.0,43.0,44.0,46.0,46.0,49.0,51.0,54.0,53.0,55.0,55.0,55.0,56.0,57.0,58.0,59.0,60.0,61.0,60.0,63.0,63.0,63.0,65.0,68.0,70.0,71.0,72.0,74.0,75.0,76.0,78.0,80.0,80.0,81.0,82.0,82.0,84.0,85.0,86.0,86.0,87.0,87.0,88.0,89.0,89.0,93.0,91.0,89.0,88.0,87.0,91.0,87.0,91.0,90.0,90.0,89.0,90.0,91.0,91.0,93.0,100.0,99.0,96.0,104.0,104.0,104.0,116.0,110.0,110.0,112.0,115.0,114.0,151.0,157.0,188.0,180.0,167.0,155.0,152.0,147.0,143.0,144.0,142.0,147.0,169.0,159.0,148.0,143.0,145.0,136.0,140.0,136.0,133.0,129.0,127.0,129.0,123.0,132.0,123.0,114.0,108.0,103.0,102.0,97.0,95.0,106.0,101.0,108.0,101.0,96.0,92.0,89.0,88.0,89.0,88.0,88.0,87.0,85.0,85.0,86.0,84.0,87.0,87.0,88.0,88.0,89.0,86.0,85.0,86.0,86.0,83.0,83.0,80.0,82.0,81.0,79.0,79.0,78.0,79.0,76.0,79.0,79.0,80.0,81.0,80.0,82.0,81.0,82.0,82.0,83.0,83.0,84.0,83.0,81.0,77.0,78.0,77.0,76.0,75.0,74.0,73.0,74.0,72.0,73.0,73.0,75.0,77.0,73.0,75.0,75.0,75.0,81.0,78.0,80.0,82.0,84.0,87.0,88.0,90.0,91.0,94.0,97.0,100.0,103.0,106.0,108.0,111.0,113.0,114.0,114.0,117.0,118.0,118.0,118.0,116.0,116.0,116.0,116.0,116.0,115.0,117.0,119.0,117.0,118.0,117.0,115.0,117.0,118.0,118.0,119.0,118.0,119.0,121.0,120.0,122.0,122.0,124.0,129.0,126.0,129.0,126.0,128.0,128.0,129.0,129.0,128.0,130.0,131.0,134.0,135.0,138.0,137.0,135.0,136.0,138.0,139.0,141.0,140.0,142.0,142.0,141.0,142.0,141.0,143.0,141.0,138.0,141.0,139.0,140.0,141.0,142.0,143.0,144.0,140.0,142.0,141.0,139.0,140.0,139.0,139.0,136.0,134.0,133.0,130.0,128.0,126.0,124.0,124.0,121.0,120.0,118.0,115.0,115.0,111.0,112.0,111.0,109.0,107.0,108.0,106.0,105.0,102.0,101.0,101.0,102.0,101.0,99.0,100.0,100.0,98.0,97.0,96.0,95.0,93.0,93.0,92.0,91.0,91.0,91.0,91.0,92.0,91.0,90.0,90.0,91.0,91.0,92.0,94.0,93.0,95.0,94.0,94.0,93.0,93.0,93.0,97.0,100.0,95.0,92.0,91.0,88.0,89.0,88.0,89.0,86.0,85.0,85.0,85.0,85.0,85.0,85.0,87.0,86.0,84.0,83.0,86.0,89.0,90.0,87.0,122.0,116.0,107.0,105.0,103.0,103.0,103.0,101.0,102.0,101.0,102.0,103.0,102.0,103.0,101.0,100.0,100.0,99.0,97.0,96.0,97.0,94.0,90.0,95.0,93.0,89.0,88.0,85.0,83.0,84.0,88.0,91.0,118.0,134.0,157.0,218.0,249.0,295.0,350.0,436.0,521.0,630.0,669.0,669.0,668.0,668.0,668.0,669.0,669.0,669.0,670.0,669.0,669.0,669.0,669.0,669.0,669.0,669.0,669.0,669.0,668.0,669.0,668.0,670.0,669.0,669.0,668.0,669.0,669.0,668.0,670.0,669.0,669.0,669.0,669.0,668.0,669.0,669.0,669.0,668.0,668.0,669.0,669.0,669.0,669.0,669.0,668.0,668.0,669.0,669.0,669.0,668.0,669.0,669.0,669.0,669.0,669.0,669.0,669.0,669.0,669.0,669.0,668.0,669.0,668.0,668.0,669.0,669.0,669.0,669.0,668.0,668.0,668.0,669.0,669.0,668.0,669.0,668.0,668.0,668.0,669.0,669.0,669.0,668.0,668.0,668.0,665.0,647.0,643.0,634.0,622.0,625.0,634.0,635.0,622.0,620.0,627.0,637.0,652.0,661.0,669.0,669.0,669.0,669.0,670.0,669.0,669.0,668.0,669.0,669.0,669.0,670.0,668.0,669.0,669.0,669.0,659.0,646.0,637.0,631.0,618.0,608.0,597.0,588.0,574.0,564.0,550.0,539.0,522.0,507.0,494.0,486.0,484.0,472.0,466.0,460.0,453.0,454.0,447.0,445.0,443.0,437.0,437.0,431.0,434.0,425.0,418.0,418.0,409.0,404.0,404.0,392.0,397.0,383.0,378.0,372.0,371.0,367.0,363.0,363.0,359.0,360.0,357.0,355.0,354.0,349.0,350.0,348.0,339.0,336.0,329.0,322.0,317.0,316.0,304.0,298.0,299.0,286.0,281.0,268.0,261.0,261.0,251.0,248.0,243.0,234.0,239.0,236.0,224.0,235.0,226.0,214.0,217.0,214.0,213.0,217.0,217.0,214.0,213.0,208.0,205.0,197.0,194.0,194.0,188.0,186.0,176.0,170.0,167.0,160.0,153.0,146.0,145.0,137.0,129.0,127.0,119.0,117.0,113.0,109.0,103.0,96.0,91.0,90.0,87.0,82.0,79.0,75.0,75.0,79.0,79.0,85.0,82.0,90.0,96.0,102.0,107.0,111.0,122.0,127.0,135.0,139.0,148.0,157.0,163.0,173.0,178.0,189.0,193.0,197.0,208.0,215.0,225.0,231.0,238.0,245.0,255.0,260.0,262.0,268.0,272.0,278.0,282.0,287.0,290.0,294.0,295.0,300.0,300.0,304.0,306.0,304.0,308.0,308.0,310.0,309.0,312.0,313.0,315.0,317.0,317.0,321.0,322.0,325.0,328.0,331.0,335.0,338.0,341.0,345.0,353.0,357.0,366.0,374.0,383.0,393.0,398.0,409.0,421.0,433.0,443.0,452.0,462.0,469.0,478.0,490.0,499.0,508.0,516.0,527.0,540.0,552.0,561.0,568.0,582.0,592.0,601.0,618.0,632.0,647.0,658.0,668.0,669.0,669.0,670.0,668.0,669.0,668.0,669.0,669.0,668.0,670.0,669.0,669.0,669.0,669.0,668.0,668.0,669.0,669.0,669.0,668.0,669.0,668.0,668.0,669.0,669.0,669.0,668.0,668.0,669.0,668.0,669.0,658.0,635.0,616.0,574.0,550.0,522.0,524.0,501.0,483.0,459.0,429.0,404.0,384.0,364.0,342.0,331.0,327.0,328.0,306.0,280.0,254.0,239.0,223.0,210.0,191.0,176.0,166.0,168.0,165.0,153.0,138.0,130.0,119.0,116.0,110.0,105.0,99.0,93.0,87.0,83.0,79.0,77.0,80.0,80.0,79.0,84.0,86.0,89.0,93.0,101.0,107.0,114.0,121.0,131.0,144.0,159.0,175.0,190.0,204.0,223.0,241.0,259.0,281.0,299.0,325.0,344.0,370.0,392.0,420.0,441.0,458.0,474.0,498.0,516.0,539.0,555.0,572.0,586.0,598.0,611.0,627.0,641.0,652.0,665.0,669.0,669.0,669.0,668.0,669.0,669.0,669.0,668.0,669.0,669.0,669.0,669.0,669.0,669.0,669.0,669.0,669.0,669.0,669.0,669.0,669.0,669.0,669.0,669.0,669.0,670.0,668.0,669.0,668.0,669.0,669.0,668.0,668.0,669.0,669.0,668.0,669.0,669.0,668.0,669.0,668.0,662.0,651.0,641.0,631.0,621.0,611.0,599.0,585.0,572.0,561.0,547.0,533.0,523.0,509.0,498.0,487.0,477.0,468.0,460.0,451.0,444.0,437.0,430.0,422.0,415.0,407.0,400.0,394.0,387.0,380.0,374.0,367.0,363.0,355.0,352.0,345.0,339.0,334.0,329.0,325.0,320.0,316.0,311.0,307.0,300.0,295.0,292.0,286.0,281.0,273.0,270.0,264.0,259.0,254.0,248.0,245.0,240.0,234.0,229.0,223.0,221.0,217.0,214.0,212.0,208.0,205.0,199.0,198.0,195.0,192.0,188.0,185.0,182.0,179.0,175.0,175.0,173.0,171.0,169.0,167.0,165.0,161.0,161.0,157.0,153.0,152.0,151.0,148.0,147.0,146.0,142.0,140.0,138.0,135.0,132.0,131.0,129.0,127.0,124.0,123.0,122.0,123.0,121.0,120.0,120.0,118.0,116.0,113.0,113.0,110.0,109.0,108.0,106.0,105.0,103.0,101.0,99.0
6.0,6.0,5.0,6.0,5.0,5.0,4.0,6.0,5.0,5.0,6.0,5.0,6.0,5.0,5.0,5.0,5.0,5.0,10.0,10.0,9.0,8.0,7.0,7.0,7.0,7.0,6.0,5.0,4.0,5.0,7.0,7.0,8.0,6.0,6.0,6.0,6.0,5.0,7.0,8.0,6.0,7.0,5.0,5.0,5.0,5.0,4.0,4.0,4.0,4.0,4.0,5.0,4.0,5.0,4.0,5.0,6.0,5.0,5.0,4.0,5.0,4.0,4.0,5.0,4.0,5.0,4.0,4.0,4.0,3.0,4.0,4.0,5.0,4.0,5.0,4.0,4.0,4.0,5.0,5.0,4.0,4.0,5.0,6.0,6.0,6.0,6.0,7.0,7.0,15.0,13.0,13.0,14.0,21.0,25.0,28.0,27.0,30.0,33.0,43.0,45.0,54.0,61.0,74.0,76.0,91.0,94.0,105.0,100.0,97.0,97.0,102.0,107.0,108.0,102.0,102.0,106.0,102.0,92.0,96.0,90.0,102.0,105.0,111.0,127.0,127.0,122.0,122.0,115.0,108.0,101.0,95.0,95.0,89.0,91.0,88.0,89.0,89.0,89.0,87.0,87.0,86.0,86.0,88.0,90.0,89.0,90.0,90.0,88.0,88.0,86.0,88.0,86.0,89.0,86.0,89.0,87.0,87.0,87.0,85.0,90.0,90.0,91.0,93.0,94.0,95.0,96.0,99.0,97.0,100.0,98.0,95.0,92.0,90.0,86.0,80.0,74.0,71.0,67.0,65.0,60.0,57.0,56.0,52.0,53.0,50.0,47.0,44.0,41.0,39.0,37.0,35.0,33.0,33.0,32.0,29.0,29.0,24.0,32.0,31.0,27.0,26.0,26.0,25.0,20.0,20.0,20.0,19.0,19.0,17.0,19.0,18.0,16.0,16.0,15.0,14.0,12.0,12.0,10.0,10.0,9.0,9.0,8.0,7.0,7.0,7.0,6.0,6.0,6.0,5.0,5.0,5.0,5.0,4.0,4.0,4.0,4.0,4.0,4.0,5.0,4.0,4.0,4.0,3.0,4.0,3.0,4.0,4.0,4.0,4.0,4.0,3.0,3.0,4.0,2.0,4.0,5.0,3.0,5.0,4.0,5.0,4.0,4.0,5.0,5.0,5.0,5.0,5.0,4.0,4.0,6.0,6.0,5.0,7.0,8.0,7.0,6.0,6.0,7.0,7.0,7.0,7.0,7.0,6.0,7.0,6.0,6.0,6.0,5.0,5.0,4.0,5.0,4.0,4.0,5.0,5.0,5.0,4.0,5.0,5.0,4.0,5.0,5.0,6.0,4.0,5.0,5.0,4.0,4.0,3.0,5.0,4.0,4.0,4.0,3.0,4.0,3.0,5.0,4.0,4.0,4.0,3.0,4.0,4.0,4.0,4.0,4.0,4.0,3.0,3.0,3.0,3.0,4.0,2.0,4.0,3.0,3.0,3.0,4.0,4.0,2.0,4.0,4.0,3.0,4.0,3.0,4.0,4.0,3.0,3.0,4.0,4.0,4.0,5.0,4.0,4.0,4.0,4.0,4.0,4.0,4.0,4.0,4.0,3.0,3.0,4.0,4.0,5.0,4.0,4.0,4.0,3.0,4.0,4.0,5.0,4.0,4.0,5.0,3.0,4.0,4.0,3.0,4.0,2.0,3.0,3.0,3.0,4.0,4.0,4.0,3.0,4.0,3.0,5.0,21.0,55.0,57.0,96.0,104.0,138.0,197.0,215.0,281.0,305.0,321.0,345.0,355.0,316.0,326.0,299.0,292.0,305.0,327.0,346.0,367.0,414.0,402.0,382.0,353.0,320.0,286.0,268.0,244.0,232.0,209.0,183.0,171.0,167.0,169.0,162.0,151.0,142.0,133.0,134.0,130.0,138.0,150.0,155.0,148.0,149.0,150.0,166.0,167.0,153.0,156.0,165.0,177.0,184.0,173.0,179.0,186.0,203.0,199.0,207.0,206.0,196.0,198.0,203.0,190.0,197.0,202.0,186.0,189.0,188.0,206.0,204.0,201.0,208.0,225.0,215.0,203.0,202.0,206.0,196.0,207.0,196.0,196.0,199.0,194.0,194.0,182.0,191.0,190.0,191.0,193.0,180.0,169.0,172.0,168.0,186.0,176.0,174.0,206.0,214.0,211.0,216.0,225.0,221.0,261.0,247.0,226.0,223.0,198.0,208.0,230.0,252.0,255.0,254.0,271.0,266.0,313.0,322.0,285.0,318.0,303.0,288.0,305.0,301.0,283.0,260.0,258.0,250.0,239.0,240.0,244.0,245.0,248.0,266.0,254.0,261.0,235.0,228.0,226.0,248.0,250.0,230.0,230.0,251.0,251.0,251.0,244.0,228.0,212.0,208.0,196.0,180.0,180.0,187.0,180.0,188.0,189.0,192.0,185.0,197.0,186.0,196.0,206.0,202.0,184.0,178.0,176.0,183.0,177.0,183.0,208.0,190.0,184.0,204.0,204.0,200.0,184.0,193.0,190.0,177.0,171.0,169.0,168.0,191.0,184.0,173.0,184.0,171.0,182.0,183.0,181.0,180.0,172.0,178.0,197.0,202.0,205.0,194.0,205.0,216.0,207.0,204.0,217.0,212.0,215.0,195.0,186.0,189.0,173.0,178.0,170.0,174.0,181.0,186.0,171.0,180.0,189.0,205.0,197.0,188.0,179.0,171.0,167.0,160.0,166.0,155.0,147.0,147.0,148.0,133.0,141.0,173.0,165.0,151.0,161.0,165.0,161.0,157.0,148.0,146.0,166.0,159.0,149.0,148.0,155.0,160.0,146.0,137.0,146.0,144.0,141.0,138.0,140.0,146.0,148.0,135.0,136.0,133.0,126.0,126.0,121.0,121.0,125.0,125.0,111.0,123.0,133.0,122.0,107.0,101.0,99.0,105.0,94.0,95.0,93.0,87.0,84.0,87.0,98.0,91.0,94.0,94.0,88.0,85.0,86.0,87.0,94.0,89.0,88.0,78.0,76.0,74.0,69.0,71.0,69.0,69.0,66.0,58.0,53.0,61.0,66.0,57.0,63.0,59.0,52.0,49.0,54.0,81.0,91.0,85.0,80.0,68.0,64.0,67.0,75.0,77.0,68.0,68.0,63.0,77.0,70.0,64.0,57.0,51.0,69.0,68.0,72.0,92.0,85.0,78.0,81.0,74.0,62.0,66.0,91.0,82.0,82.0,76.0,68.0,62.0,62.0,65.0,81.0,79.0,76.0,69.0,67.0,71.0,74.0,88.0,83.0,74.0,88.0,90.0,96.0,94.0,87.0,88.0,85.0,92.0,86.0,82.0,81.0,86.0,88.0,78.0,69.0,69.0,75.0,76.0,76.0,75.0,78.0,77.0,93.0,95.0,89.0,88.0,87.0,104.0,107.0,109.0,112.0,115.0,136.0,137.0,134.0,173.0,156.0,147.0,155.0,148.0,137.0,152.0,159.0,143.0,148.0,155.0,162.0,154.0,154.0,144.0,145.0,140.0,148.0,132.0,135.0,140.0,161.0,151.0,143.0,126.0,134.0,141.0,140.0,154.0,153.0,143.0,136.0,127.0,122.0,123.0,111.0,104.0,98.0,87.0,86.0,76.0,76.0,81.0,73.0,80.0,74.0,66.0,61.0,52.0,46.0,41.0,37.0,34.0,30.0,29.0,27.0,33.0,31.0,31.0,31.0,26.0,30.0,30.0,27.0,27.0,27.0,46.0,50.0,49.0,56.0,52.0,48.0,45.0,43.0,40.0,50.0,56.0,58.0,57.0,51.0,47.0,41.0,37.0,35.0,38.0,35.0,39.0,39.0,33.0,32.0,32.0,32.0,30.0,29.0,27.0,25.0,26.0,27.0,27.0,26.0,23.0,23.0,21.0,18.0,17.0,15.0,15.0,15.0,17.0,18.0,16.0,18.0,16.0,16.0,14.0,14.0,14.0,12.0,12.0,10.0,11.0,11.0,9.0,9.0,10.0,9.0,8.0,8.0,8.0,8.0,7.0,7.0,7.0,11.0,10.0,12.0,11.0,11.0,10.0,9.0,8.0,13.0,12.0,11.0,9.0,9.0,10.0,8.0,11.0,11.0,11.0,11.0,11.0,9.0,9.0,9.0,8.0,8.0,7.0,7.0,6.0,7.0,9.0,11.0,12.0,10.0,11.0,8.0,7.0,12.0,13.0,12.0,11.0,12.0,9.0,8.0,12.0,11.0,11.0,9.0,10.0,8.0,7.0,8.0,15.0,13.0,24.0,23.0,20.0,17.0,17.0,16.0,16.0,15.0,15.0,14.0,13.0,13.0,11.0,10.0,10.0,9.0,9.0,7.0,10.0,9.0,8.0,7.0,7.0,7.0,6.0,9.0,9.0,7.0,7.0,9.0,9.0,9.0,10.0
58.0,71.0,67.0,62.0,63.0,72.0,69.0,68.0,69.0,71.0,67.0,62.0,59.0,63.0,67.0,64.0,59.0,55.0,59.0,71.0,73.0,72.0,66.0,66.0,69.0,67.0,75.0,77.0,76.0,72.0,67.0,66.0,73.0,69.0,65.0,71.0,68.0,74.0,67.0,64.0,61.0,66.0,63.0,59.0,56.0,64.0,65.0,66.0,68.0,70.0,69.0,66.0,64.0,66.0,67.0,96.0,101.0,106.0,100.0,90.0,115.0,121.0,139.0,143.0,168.0,166.0,154.0,143.0,139.0,135.0,154.0,152.0,184.0,174.0,171.0,169.0,164.0,193.0,185.0,184.0,186.0,185.0,187.0,222.0,206.0,224.0,216.0,229.0,220.0,229.0,220.0,221.0,247.0,263.0,239.0,229.0,243.0,269.0,310.0,301.0,288.0,282.0,277.0,260.0,294.0,299.0,264.0,245.0,260.0,257.0,282.0,266.0,253.0,232.0,249.0,249.0,241.0,218.0,218.0,203.0,203.0,216.0,198.0,213.0,201.0,191.0,226.0,230.0,221.0,202.0,190.0,178.0,202.0,188.0,175.0,182.0,181.0,183.0,188.0,180.0,171.0,156.0,144.0,143.0,130.0,131.0,130.0,134.0,121.0,111.0,113.0,119.0,115.0,125.0,120.0,133.0,129.0,124.0,116.0,131.0,130.0,119.0,113.0,132.0,123.0,118.0,124.0,122.0,116.0,120.0,118.0,116.0,113.0,111.0,100.0,102.0,96.0,88.0,91.0,82.0,75.0,78.0,78.0,82.0,81.0,90.0,86.0,81.0,78.0,78.0,76.0,85.0,113.0,105.0,111.0,127.0,123.0,136.0,152.0,150.0,148.0,146.0,143.0,145.0,136.0,139.0,141.0,150.0,147.0,162.0,160.0,159.0,146.0,145.0,145.0,140.0,130.0,125.0,121.0,126.0,147.0,146.0,140.0,131.0,123.0,115.0,106.0,97.0,104.0,105.0,111.0,103.0,99.0,93.0,96.0,104.0,101.0,99.0,114.0,118.0,116.0,109.0,102.0,95.0,94.0,102.0,104.0,103.0,103.0,99.0,104.0,98.0,94.0,91.0,88.0,93.0,92.0,95.0,108.0,105.0,95.0,94.0,98.0,107.0,102.0,98.0,92.0,102.0,95.0,103.0,97.0,91.0,108.0,113.0,107.0,109.0,110.0,114.0,115.0,114.0,123.0,119.0,113.0,110.0,120.0,117.0,111.0,106.0,109.0,113.0,106.0,111.0,102.0,102.0,112.0,110.0,114.0,110.0,111.0,107.0,112.0,118.0,110.0,110.0,141.0,141.0,142.0,138.0,126.0,129.0,127.0,134.0,121.0,120.0,136.0,134.0,140.0,133.0,134.0,128.0,125.0,120.0,118.0,116.0,114.0,131.0,121.0,124.0,143.0,134.0,126.0,125.0,128.0,127.0,124.0,128.0,118.0,119.0,126.0,122.0,134.0,123.0,124.0,119.0,132.0,132.0,126.0,136.0,147.0,156.0,166.0,180.0,189.0,170.0,156.0,149.0,160.0,146.0,145.0,146.0,134.0,128.0,136.0,124.0,125.0,123.0,115.0,115.0,128.0,119.0,127.0,121.0,151.0,152.0,138.0,131.0,153.0,147.0,137.0,130.0,161.0,164.0,154.0,146.0,140.0,137.0,136.0,127.0,128.0,135.0,129.0,147.0,159.0,158.0,146.0,157.0,152.0,192.0,216.0,221.0,231.0,258.0,273.0,285.0,268.0,258.0,252.0,237.0,211.0,196.0,221.0,220.0,209.0,205.0,199.0,208.0,211.0,203.0,196.0,195.0,184.0,172.0,166.0,163.0,160.0,155.0,177.0,174.0,170.0,178.0,191.0,198.0,185.0,191.0,185.0,187.0,180.0,197.0,193.0,192.0,188.0,201.0,214.0,206.0,206.0,206.0,205.0,216.0,217.0,219.0,211.0,206.0,204.0,210.0,215.0,213.0,213.0,217.0,206.0,205.0,209.0,201.0,194.0,195.0,195.0,186.0,190.0,181.0,192.0,195.0,188.0,185.0,182.0,172.0,177.0,177.0,172.0,177.0,184.0,182.0,177.0,176.0,172.0,185.0,187.0,186.0,191.0,199.0,184.0,194.0,200.0,193.0,215.0,204.0,208.0,224.0,217.0,205.0,239.0,273.0,272.0,270.0,257.0,242.0,243.0,256.0,257.0,242.0,251.0,237.0,245.0,265.0,239.0,238.0,257.0,252.0,256.0,248.0,273.0,262.0,271.0,282.0,277.0,279.0,270.0,285.0,292.0,291.0,289.0,294.0,282.0,291.0,292.0,309.0,317.0,317.0,322.0,318.0,306.0,314.0,323.0,320.0,322.0,325.0,326.0,320.0,306.0,310.0,321.0,309.0,307.0,313.0,303.0,294.0,302.0,305.0,304.0,307.0,305.0,299.0,296.0,288.0,290.0,285.0,285.0,293.0,279.0,286.0,289.0,284.0,289.0,273.0,284.0,297.0,288.0,287.0,291.0,291.0,297.0,292.0,288.0,288.0,276.0,292.0,292.0,290.0,278.0,278.0,270.0,254.0,277.0,264.0,267.0,268.0,255.0,252.0,256.0,254.0,251.0,249.0,242.0,237.0,231.0,231.0,218.0,216.0,216.0,214.0,206.0,198.0,193.0,198.0,195.0,185.0,191.0,191.0,190.0,183.0,184.0,184.0,176.0,171.0,169.0,177.0,167.0,167.0,169.0,168.0,161.0,160.0,169.0,160.0,162.0,157.0,149.0,154.0,159.0,150.0,153.0,149.0,155.0,144.0,140.0,147.0,139.0,137.0,127.0,127.0,123.0,121.0,121.0,119.0,116.0,120.0,118.0,117.0,120.0,121.0,117.0,115.0,115.0,115.0,106.0,103.0,98.0,98.0,93.0,92.0,86.0,86.0,88.0,103.0,96.0,108.0,106.0,104.0,105.0,108.0,113.0,114.0,118.0,120.0,121.0,120.0,125.0,136.0,134.0,138.0,139.0,146.0,149.0,152.0,157.0,168.0,170.0,170.0,177.0,177.0,179.0,192.0,191.0,201.0,203.0,201.0,191.0,188.0,196.0,196.0,205.0,213.0,226.0,221.0,237.0,217.0,216.0,226.0,222.0,227.0,236.0,232.0,257.0,297.0,283.0,267.0,265.0,254.0,281.0,269.0,254.0,254.0,254.0,263.0,269.0,253.0,264.0,265.0,254.0,242.0,238.0,230.0,232.0,227.0,233.0,234.0,218.0,212.0,219.0,211.0,215.0,209.0,211.0,211.0,203.0,195.0,187.0,185.0,192.0,190.0,176.0,176.0,179.0,186.0,205.0,194.0,192.0,189.0,183.0,174.0,185.0,179.0,173.0,182.0,178.0,188.0,191.0,179.0,166.0,159.0,161.0,165.0,162.0,163.0,153.0,142.0,148.0,142.0,132.0,130.0,132.0,124.0,122.0,119.0,116.0,115.0,104.0,106.0,97.0,89.0,91.0,85.0,90.0,86.0,92.0,86.0,83.0,80.0,77.0,76.0,84.0,86.0,87.0,86.0,83.0,87.0,90.0,86.0,86.0,82.0,82.0,79.0,84.0,91.0,88.0,86.0,95.0,98.0,98.0,99.0,112.0,132.0,120.0,125.0,151.0,152.0,152.0,152.0,156.0,164.0,158.0,184.0,184.0,179.0,197.0,193.0,183.0,171.0,170.0,170.0,180.0,177.0,180.0,191.0,195.0,195.0,181.0,173.0,167.0,166.0,174.0,167.0,166.0,167.0,161.0,155.0,153.0,150.0,138.0,143.0,139.0,143.0,141.0,140.0,148.0,145.0,147.0,146.0,139.0,144.0,160.0,153.0,151.0,141.0,138.0,156.0,149.0,139.0,137.0,138.0,144.0,138.0,138.0,144.0,159.0,152.0,145.0,141.0,154.0,152.0,144.0,146.0,146.0,147.0,139.0,138.0,137.0,132.0,121.0,123.0,115.0,112.0,104.0,100.0,98.0,109.0,110.0,106.0,103.0,109.0,120.0,115.0,113.0,115.0,120.0,118.0,114.0,108.0,118.0,111.0,109.0,115.0,117.0,117.0,122.0,121.0,120.0,128.0,134.0,132.0,128.0,119.0,119.0,127.0,121.0,117.0,116.0,134.0,135.0,130.0,124.0,125.0,125.0,126.0,123.0,115.0,110.0,119.0,123.0,117.0,135.0,130.0,133.0,132.0,133.0,130.0,131.0,133.0,132.0,130.0,126.0,119.0,126.0,137.0,133.0,123.0,116.0,137.0,137.0,142.0,135.0,124.0,140.0,135.0,124.0,116.0,117.0,115.0,113.0,112.0,102.0,96.0,98.0,103.0,105.0,105.0,103.0,100.0,103.0,100.0,94.0,91.0
