46.0,48.0,46.0,47.0,47.0,49.0,51.0,49.0,51.0,50.0,51.0,51.0,51.0,53.0,53.0,55.0,56.0,55.0,57.0,58.0,58.0,59.0,59.0,60.0,61.0,61.0,61.0,62.0,62.0,61.0,62.0,60.0,59.0,58.0,58.0,56.0,56.0,56.0,54.0,55.0,55.0,55.0,55.0,55.0,56.0,54.0,54.0,54.0,53.0,53.0,52.0,53.0,51.0,51.0,50.0,49.0,50.0,50.0,49.0,50.0,48.0,49.0,51.0,52.0,51.0,52.0,53.0,52.0,52.0,51.0,51.0,52.0,52.0,52.0,52.0,51.0,50.0,50.0,50.0,49.0,51.0,48.0,49.0,49.0,48.0,48.0,47.0,47.0,46.0,46.0,46.0,46.0,45.0,44.0,45.0,45.0,45.0,46.0,47.0,47.0,49.0,53.0,56.0,55.0,59.0,66.0,68.0,85.0,87.0,113.0,122.0,133.0,128.0,123.0,125.0,125.0,126.0,124.0,123.0,123.0,117.0,123.0,121.0,114.0,108.0,103.0,108.0,107.0,104.0,100.0,96.0,93.0,88.0,92.0,88.0,86.0,84.0,85.0,85.0,82.0,80.0,75.0,74.0,73.0,69.0,68.0,68.0,72.0,71.0,72.0,71.0,73.0,71.0,68.0,66.0,66.0,66.0,71.0,71.0,70.0,68.0,71.0,73.0,72.0,74.0,75.0,79.0,74.0,74.0,72.0,70.0,75.0,73.0,71.0,70.0,67.0,67.0,69.0,68.0,65.0,65.0,69.0,68.0,68.0,65.0,63.0,61.0,60.0,61.0,60.0,59.0,61.0,60.0,62.0,61.0,62.0,58.0,59.0,59.0,57.0,65.0,61.0,64.0,62.0,60.0,61.0,61.0,59.0,56.0,58.0,58.0,58.0,58.0,59.0,59.0,57.0,57.0,58.0,56.0,56.0,55.0,54.0,54.0,55.0,56.0,55.0,55.0,56.0,55.0,55.0,54.0,55.0,55.0,55.0,56.0,57.0,56.0,56.0,55.0,53.0,54.0,53.0,57.0,56.0,54.0,53.0,53.0,54.0,53.0,54.0,55.0,53.0,53.0,52.0,50.0,50.0,51.0,50.0,50.0,47.0,49.0,48.0,47.0,48.0,50.0,51.0,52.0,53.0,52.0,52.0,54.0,53.0,53.0,54.0,55.0,52.0,52.0,53.0,57.0,56.0,58.0,56.0,56.0,55.0,56.0,54.0,53.0,51.0,51.0,54.0,52.0,52.0,51.0,49.0,49.0,49.0,49.0,46.0,47.0,47.0,48.0,50.0,52.0,51.0,51.0,50.0,53.0,53.0,55.0,57.0,57.0,55.0,54.0,54.0,56.0,56.0,56.0,57.0,56.0,55.0,59.0,59.0,62.0,63.0,65.0,67.0,66.0,68.0,71.0,72.0,74.0,75.0,77.0,76.0,76.0,77.0,79.0,80.0,79.0,81.0,78.0,76.0,76.0,79.0,81.0,81.0,83.0,84.0,83.0,84.0,86.0,86.0,87.0,88.0,88.0,87.0,88.0,88.0,88.0,87.0,90.0,89.0,90.0,89.0,91.0,92.0,93.0,92.0,94.0,96.0,95.0,96.0,95.0,95.0,96.0,98.0,99.0,100.0,102.0,103.0,105.0,104.0,108.0,107.0,107.0,106.0,102.0,103.0,100.0,101.0,100.0,98.0,99.0,98.0,99.0,101.0,103.0,104.0,103.0,106.0,105.0,103.0,104.0,103.0,104.0,102.0,102.0,103.0,100.0,102.0,100.0,102.0,102.0,102.0,102.0,103.0,101.0,100.0,100.0,98.0,98.0,98.0,98.0,98.0,97.0,97.0,96.0,96.0,98.0,97.0,97.0,96.0,95.0,91.0,92.0,93.0,89.0,91.0,97.0,104.0,109.0,108.0,106.0,105.0,103.0,104.0,101.0,106.0,109.0,110.0,114.0,119.0,122.0,125.0,125.0,127.0,126.0,126.0,124.0,125.0,121.0,120.0,119.0,116.0,114.0,112.0,111.0,109.0,108.0,106.0,104.0,102.0,98.0,97.0,96.0,96.0,95.0,90.0,89.0,89.0,88.0,88.0,86.0,90.0,88.0,87.0,86.0,84.0,83.0,81.0,81.0,79.0,76.0,76.0,74.0,74.0,73.0,72.0,71.0,70.0,69.0,69.0,68.0,66.0,66.0,65.0,64.0,63.0,61.0,61.0,60.0,60.0,60.0,59.0,58.0,57.0,57.0,57.0,55.0,57.0,56.0,54.0,55.0,54.0,55.0,54.0,53.0,53.0,54.0,54.0,54.0,54.0,51.0,50.0,49.0,48.0,48.0,47.0,48.0,48.0,48.0,49.0,48.0,48.0,48.0,47.0,46.0,45.0,47.0,45.0,45.0,46.0,47.0,46.0,47.0,47.0,46.0,46.0,46.0,45.0,45.0,45.0,45.0,45.0,45.0,45.0,45.0,46.0,47.0,47.0,48.0,48.0,48.0,48.0,47.0,48.0,48.0,48.0,47.0,48.0,46.0,46.0,48.0,47.0,47.0,46.0,47.0,47.0,47.0,47.0,47.0,47.0,46.0,46.0,47.0,48.0,48.0,49.0,50.0,49.0,49.0,49.0,49.0,48.0,48.0,48.0,48.0,48.0,46.0,45.0,46.0,45.0,45.0,47.0,46.0,45.0,46.0,46.0,46.0,45.0,46.0,46.0,45.0,45.0,45.0,45.0,44.0,45.0,44.0,43.0,43.0,43.0,43.0,42.0,43.0,43.0,43.0,44.0,44.0,44.0,43.0,44.0,44.0,43.0,44.0,44.0,44.0,45.0,45.0,46.0,44.0,46.0,46.0,46.0,47.0,45.0,46.0,46.0,45.0,45.0,45.0,46.0,45.0,44.0,44.0,44.0,44.0,43.0,43.0,43.0,42.0,42.0,43.0,44.0,45.0,44.0,43.0,44.0,44.0,43.0,44.0,43.0,43.0,43.0,43.0,44.0,44.0,43.0,43.0,43.0,44.0,44.0,43.0,43.0,43.0,42.0,42.0,43.0,43.0,43.0,43.0,44.0,44.0,43.0,44.0,45.0,46.0,46.0,46.0,46.0,45.0,45.0,45.0,45.0,46.0,46.0,46.0,44.0,45.0,45.0,45.0,44.0,44.0,44.0,43.0,43.0,43.0,44.0,45.0,44.0,45.0,44.0,44.0,44.0,43.0,45.0,44.0,46.0,47.0,46.0,47.0,47.0,47.0,46.0,47.0,48.0,48.0,49.0,49.0,51.0,52.0,52.0,55.0,55.0,54.0,55.0,54.0,54.0,55.0,55.0,54.0,53.0,53.0,52.0,52.0,52.0,51.0,50.0,50.0,51.0,51.0,51.0,50.0,49.0,48.0,48.0,47.0,48.0,46.0,45.0,47.0,46.0,46.0,44.0,44.0,45.0,44.0,45.0,45.0,43.0,43.0,43.0,43.0,43.0,42.0,42.0,43.0,42.0,42.0,41.0,41.0,42.0,43.0,42.0,41.0,42.0,41.0,42.0,41.0,41.0,40.0,40.0,41.0,43.0,43.0,44.0,45.0,44.0,45.0,45.0,45.0,45.0,45.0,45.0,44.0,43.0,44.0,44.0,44.0,43.0,44.0,43.0,43.0,44.0,44.0,43.0,44.0,44.0,43.0,44.0,43.0,45.0,45.0,46.0,45.0,45.0,47.0,47.0,48.0,45.0,46.0,44.0,45.0,45.0,45.0,46.0,45.0,45.0,45.0,45.0,46.0,46.0,46.0,47.0,47.0,46.0,45.0,45.0,43.0,44.0,43.0,44.0,44.0,43.0,43.0,43.0,42.0,42.0,42.0,43.0,42.0,41.0,41.0,39.0,42.0,42.0,42.0,41.0,41.0,41.0,42.0,43.0,43.0,43.0,44.0,45.0,43.0,44.0,43.0,43.0,43.0,43.0,42.0,44.0,43.0,43.0,44.0,43.0,43.0,42.0,42.0,42.0,42.0,42.0,42.0,43.0,42.0,42.0,41.0,42.0,43.0,44.0,44.0,44.0,45.0,43.0,43.0,43.0,42.0,43.0,42.0,44.0,43.0,43.0,42.0,43.0,43.0,43.0,42.0,42.0,42.0,43.0,43.0,43.0,44.0,42.0,44.0,42.0,43.0,42.0,43.0,43.0,42.0,42.0,42.0,42.0,41.0,41.0,43.0,43.0,44.0,45.0,43.0,44.0,45.0,45.0,45.0,45.0,45.0,44.0,45.0,45.0,45.0,45.0,44.0,45.0,43.0,43.0,43.0,43.0,44.0,44.0,43.0,45.0,44.0,46.0,47.0,47.0,46.0,47.0,47.0,48.0,47.0,45.0,47.0,46.0,46.0,46.0,46.0,47.0
83.0,83.0,84.0,84.0,86.0,86.0,88.0,89.0,89.0,90.0,91.0,93.0,92.0,92.0,95.0,94.0,95.0,94.0,95.0,96.0,95.0,96.0,95.0,95.0,98.0,97.0,98.0,98.0,99.0,99.0,99.0,99.0,97.0,99.0,98.0,97.0,96.0,95.0,94.0,94.0,94.0,92.0,91.0,91.0,90.0,89.0,88.0,89.0,87.0,86.0,85.0,86.0,85.0,85.0,85.0,86.0,86.0,85.0,85.0,86.0,85.0,86.0,87.0,85.0,83.0,84.0,85.0,86.0,85.0,87.0,85.0,86.0,87.0,88.0,90.0,89.0,90.0,88.0,90.0,89.0,88.0,88.0,87.0,87.0,87.0,86.0,86.0,85.0,83.0,84.0,85.0,85.0,84.0,84.0,83.0,82.0,81.0,82.0,82.0,80.0,78.0,77.0,75.0,74.0,73.0,75.0,76.0,73.0,77.0,81.0,94.0,99.0,109.0,128.0,133.0,132.0,120.0,113.0,106.0,104.0,99.0,115.0,118.0,110.0,101.0,95.0,98.0,93.0,85.0,85.0,82.0,77.0,73.0,73.0,72.0,71.0,66.0,64.0,61.0,59.0,57.0,56.0,55.0,56.0,55.0,55.0,58.0,56.0,62.0,64.0,67.0,69.0,70.0,71.0,72.0,80.0,83.0,86.0,90.0,91.0,94.0,96.0,97.0,100.0,98.0,100.0,99.0,103.0,103.0,103.0,104.0,101.0,100.0,100.0,98.0,97.0,95.0,97.0,95.0,95.0,94.0,94.0,92.0,91.0,90.0,88.0,87.0,85.0,83.0,80.0,78.0,77.0,75.0,71.0,72.0,66.0,67.0,64.0,62.0,62.0,62.0,64.0,64.0,64.0,61.0,60.0,58.0,58.0,58.0,55.0,53.0,53.0,52.0,53.0,54.0,52.0,51.0,50.0,49.0,49.0,50.0,48.0,50.0,50.0,51.0,50.0,48.0,48.0,48.0,47.0,46.0,46.0,47.0,46.0,47.0,49.0,49.0,50.0,48.0,47.0,48.0,48.0,50.0,48.0,49.0,49.0,47.0,48.0,46.0,46.0,44.0,44.0,43.0,45.0,46.0,45.0,48.0,50.0,52.0,55.0,56.0,60.0,61.0,63.0,62.0,63.0,64.0,64.0,66.0,67.0,68.0,69.0,70.0,69.0,72.0,75.0,77.0,79.0,81.0,82.0,85.0,89.0,88.0,88.0,89.0,92.0,92.0,94.0,94.0,96.0,98.0,99.0,102.0,102.0,103.0,105.0,106.0,106.0,106.0,106.0,106.0,106.0,110.0,107.0,110.0,108.0,111.0,112.0,114.0,117.0,118.0,118.0,118.0,120.0,123.0,124.0,125.0,128.0,129.0,130.0,133.0,136.0,138.0,139.0,141.0,144.0,145.0,147.0,151.0,152.0,158.0,161.0,164.0,167.0,168.0,171.0,174.0,176.0,177.0,179.0,181.0,182.0,184.0,189.0,192.0,194.0,195.0,197.0,196.0,200.0,204.0,207.0,211.0,214.0,216.0,218.0,220.0,223.0,226.0,228.0,232.0,232.0,236.0,236.0,241.0,244.0,248.0,252.0,253.0,257.0,257.0,260.0,262.0,261.0,263.0,263.0,263.0,265.0,265.0,266.0,266.0,263.0,264.0,264.0,264.0,264.0,261.0,260.0,258.0,258.0,258.0,256.0,253.0,252.0,250.0,249.0,248.0,245.0,241.0,241.0,240.0,237.0,235.0,233.0,232.0,231.0,229.0,229.0,226.0,224.0,221.0,221.0,221.0,218.0,218.0,217.0,214.0,210.0,210.0,210.0,211.0,209.0,210.0,208.0,206.0,206.0,203.0,204.0,202.0,202.0,199.0,197.0,195.0,188.0,186.0,178.0,178.0,172.0,178.0,180.0,182.0,177.0,172.0,168.0,163.0,161.0,156.0,159.0,161.0,160.0,160.0,166.0,166.0,168.0,165.0,165.0,160.0,155.0,152.0,148.0,140.0,136.0,131.0,125.0,118.0,112.0,105.0,101.0,97.0,91.0,91.0,87.0,84.0,81.0,76.0,75.0,72.0,69.0,68.0,65.0,64.0,63.0,62.0,63.0,60.0,58.0,56.0,53.0,54.0,52.0,50.0,48.0,48.0,47.0,47.0,46.0,48.0,46.0,51.0,51.0,51.0,51.0,49.0,53.0,51.0,50.0,50.0,49.0,49.0,50.0,50.0,49.0,51.0,51.0,53.0,52.0,52.0,52.0,53.0,56.0,56.0,56.0,56.0,57.0,56.0,57.0,56.0,53.0,54.0,52.0,54.0,54.0,53.0,52.0,49.0,48.0,46.0,46.0,44.0,45.0,43.0,43.0,43.0,42.0,43.0,42.0,40.0,41.0,40.0,40.0,39.0,41.0,42.0,41.0,42.0,43.0,43.0,45.0,47.0,49.0,49.0,51.0,52.0,53.0,54.0,56.0,59.0,60.0,61.0,61.0,62.0,62.0,63.0,64.0,65.0,65.0,66.0,66.0,66.0,66.0,67.0,69.0,72.0,73.0,74.0,75.0,75.0,77.0,76.0,75.0,76.0,75.0,78.0,79.0,80.0,82.0,82.0,86.0,85.0,86.0,87.0,86.0,89.0,88.0,90.0,92.0,94.0,93.0,93.0,95.0,96.0,96.0,98.0,99.0,100.0,100.0,101.0,102.0,105.0,105.0,106.0,106.0,105.0,107.0,106.0,107.0,108.0,110.0,109.0,109.0,111.0,113.0,111.0,113.0,113.0,115.0,116.0,116.0,115.0,114.0,114.0,115.0,113.0,112.0,112.0,113.0,110.0,110.0,108.0,107.0,106.0,106.0,106.0,106.0,103.0,104.0,102.0,102.0,101.0,98.0,99.0,98.0,97.0,96.0,97.0,96.0,97.0,97.0,96.0,96.0,96.0,95.0,96.0,96.0,96.0,95.0,94.0,93.0,93.0,92.0,92.0,93.0,90.0,93.0,91.0,92.0,93.0,93.0,94.0,92.0,93.0,93.0,92.0,93.0,91.0,92.0,91.0,89.0,87.0,85.0,85.0,83.0,81.0,81.0,81.0,80.0,79.0,77.0,77.0,77.0,76.0,76.0,75.0,76.0,75.0,74.0,72.0,72.0,72.0,71.0,70.0,69.0,68.0,67.0,65.0,65.0,64.0,63.0,63.0,62.0,59.0,60.0,58.0,57.0,58.0,57.0,57.0,55.0,55.0,54.0,54.0,53.0,51.0,50.0,48.0,46.0,47.0,48.0,46.0,45.0,45.0,43.0,42.0,41.0,41.0,40.0,42.0,41.0,41.0,41.0,42.0,42.0,43.0,41.0,40.0,40.0,39.0,41.0,40.0,39.0,40.0,39.0,39.0,37.0,37.0,36.0,36.0,35.0,34.0,35.0,35.0,36.0,36.0,36.0,36.0,36.0,37.0,37.0,37.0,36.0,36.0,36.0,36.0,35.0,36.0,36.0,36.0,36.0,37.0,36.0,36.0,36.0,35.0,37.0,36.0,36.0,36.0,35.0,35.0,36.0,35.0,36.0,35.0,36.0,36.0,35.0,35.0,35.0,35.0,34.0,36.0,35.0,35.0,37.0,37.0,38.0,36.0,37.0,37.0,37.0,36.0,36.0,37.0,36.0,36.0,37.0,35.0,37.0,36.0,38.0,36.0,37.0,38.0,37.0,37.0,37.0,39.0,38.0,38.0,37.0,36.0,37.0,36.0,37.0,38.0,38.0,37.0,36.0,35.0,35.0,36.0,36.0,36.0,39.0,38.0,38.0,38.0,39.0,39.0,36.0,37.0,37.0,37.0,36.0,36.0,37.0,36.0,36.0,37.0,35.0,37.0,36.0,36.0,36.0,38.0,38.0,37.0,37.0,36.0,37.0,39.0,37.0,39.0,40.0,42.0,45.0,44.0,47.0,46.0,46.0,47.0,48.0,49.0,51.0,51.0,50.0,50.0,48.0,48.0,48.0,46.0,47.0,46.0,46.0,47.0,47.0,49.0,48.0,49.0,51.0,52.0,53.0,54.0,53.0,54.0,55.0,55.0,55.0,56.0,55.0,55.0,54.0,54.0,53.0,54.0,55.0,55.0,55.0,57.0,57.0,58.0,56.0,57.0,58.0,59.0,59.0,58.0,60.0,59.0,58.0,60.0,59.0,59.0,57.0,59.0,59.0,58.0,58.0,56.0,55.0,57.0,55.0,56.0,58.0,57.0,58.0,58.0,59.0,59.0,58.0,59.0,59.0,58.0,58.0,56.0,57.0,57.0,55.0,55.0,56.0,55.0,54.0,55.0,55.0,53.0,52.0,52.0,53.0,53.0,52.0,53.0,54.0,55.0,56.0,55.0,56.0,57.0,59.0,60.0,58.0
16.0,17.0,18.0,16.0,14.0,15.0,19.0,16.0,17.0,14.0,14.0,14.0,13.0,12.0,13.0,15.0,14.0,13.0,15.0,17.0,20.0,20.0,19.0,16.0,17.0,21.0,19.0,18.0,19.0,24.0,21.0,18.0,17.0,16.0,19.0,18.0,16.0,15.0,14.0,15.0,14.0,17.0,20.0,17.0,15.0,14.0,13.0,12.0,11.0,11.0,11.0,15.0,13.0,12.0,14.0,16.0,16.0,19.0,20.0,17.0,15.0,24.0,29.0,27.0,24.0,24.0,24.0,22.0,22.0,21.0,19.0,17.0,15.0,22.0,26.0,25.0,22.0,19.0,23.0,25.0,26.0,22.0,22.0,23.0,29.0,25.0,22.0,24.0,20.0,18.0,18.0,17.0,17.0,13.0,18.0,16.0,14.0,14.0,13.0,11.0,11.0,13.0,11.0,10.0,11.0,10.0,9.0,9.0,9.0,9.0,8.0,8.0,9.0,20.0,25.0,29.0,25.0,28.0,46.0,46.0,40.0,35.0,41.0,50.0,44.0,43.0,43.0,63.0,58.0,65.0,61.0,58.0,53.0,56.0,73.0,86.0,77.0,69.0,62.0,60.0,53.0,47.0,41.0,37.0,44.0,49.0,46.0,53.0,50.0,43.0,39.0,36.0,33.0,32.0,32.0,31.0,35.0,43.0,39.0,37.0,36.0,33.0,32.0,31.0,30.0,29.0,33.0,42.0,45.0,43.0,43.0,40.0,44.0,41.0,37.0,39.0,44.0,39.0,44.0,39.0,39.0,40.0,36.0,34.0,33.0,35.0,33.0,33.0,30.0,32.0,37.0,33.0,29.0,26.0,33.0,37.0,38.0,34.0,29.0,27.0,33.0,29.0,43.0,38.0,35.0,34.0,35.0,32.0,28.0,25.0,22.0,30.0,27.0,29.0,28.0,27.0,27.0,24.0,20.0,23.0,21.0,19.0,19.0,21.0,20.0,18.0,17.0,17.0,15.0,15.0,13.0,12.0,10.0,10.0,10.0,9.0,9.0,13.0,15.0,15.0,16.0,15.0,15.0,17.0,20.0,21.0,18.0,18.0,15.0,16.0,18.0,17.0,20.0,20.0,18.0,19.0,17.0,16.0,14.0,15.0,14.0,12.0,12.0,10.0,15.0,14.0,17.0,18.0,25.0,25.0,27.0,24.0,24.0,26.0,27.0,27.0,27.0,25.0,27.0,36.0,35.0,33.0,28.0,26.0,25.0,23.0,21.0,19.0,18.0,16.0,18.0,16.0,18.0,17.0,16.0,19.0,16.0,14.0,14.0,15.0,14.0,14.0,13.0,12.0,13.0,17.0,17.0,17.0,18.0,17.0,19.0,16.0,16.0,14.0,14.0,13.0,11.0,12.0,12.0,13.0,15.0,14.0,13.0,11.0,13.0,11.0,10.0,10.0,11.0,13.0,15.0,15.0,14.0,14.0,13.0,15.0,14.0,12.0,11.0,11.0,10.0,10.0,9.0,10.0,9.0,8.0,11.0,10.0,10.0,13.0,14.0,14.0,12.0,12.0,10.0,11.0,10.0,13.0,12.0,11.0,12.0,10.0,9.0,13.0,15.0,14.0,13.0,11.0,12.0,12.0,11.0,10.0,10.0,11.0,11.0,10.0,9.0,10.0,10.0,11.0,17.0,22.0,21.0,18.0,20.0,18.0,16.0,16.0,14.0,15.0,13.0,12.0,12.0,11.0,12.0,11.0,12.0,10.0,13.0,15.0,14.0,13.0,11.0,11.0,12.0,10.0,11.0,10.0,9.0,9.0,9.0,8.0,8.0,7.0,7.0,6.0,6.0,7.0,7.0,6.0,5.0,5.0,5.0,5.0,4.0,5.0,4.0,4.0,4.0,7.0,6.0,6.0,7.0,10.0,16.0,29.0,27.0,46.0,69.0,72.0,69.0,60.0,53.0,47.0,47.0,53.0,66.0,73.0,66.0,63.0,71.0,83.0,81.0,81.0,81.0,77.0,78.0,79.0,79.0,71.0,88.0,91.0,80.0,70.0,76.0,67.0,74.0,91.0,81.0,75.0,66.0,64.0,72.0,70.0,62.0,55.0,51.0,54.0,54.0,51.0,64.0,61.0,53.0,50.0,44.0,43.0,38.0,33.0,44.0,41.0,45.0,40.0,37.0,38.0,34.0,31.0,35.0,36.0,50.0,46.0,40.0,37.0,32.0,36.0,33.0,34.0,30.0,26.0,24.0,23.0,24.0,24.0,27.0,28.0,28.0,25.0,31.0,29.0,25.0,26.0,32.0,35.0,40.0,35.0,35.0,33.0,32.0,30.0,26.0,23.0,21.0,18.0,16.0,15.0,13.0,12.0,12.0,10.0,19.0,21.0,20.0,24.0,20.0,20.0,19.0,17.0,16.0,15.0,15.0,16.0,13.0,13.0,16.0,15.0,13.0,14.0,12.0,11.0,10.0,9.0,9.0,9.0,9.0,8.0,9.0,8.0,7.0,8.0,7.0,8.0,7.0,7.0,6.0,6.0,6.0,5.0,7.0,7.0,5.0,6.0,6.0,7.0,7.0,6.0,6.0,6.0,10.0,8.0,8.0,9.0,8.0,8.0,10.0,10.0,9.0,8.0,11.0,17.0,19.0,17.0,15.0,13.0,11.0,11.0,9.0,15.0,15.0,13.0,11.0,11.0,10.0,9.0,8.0,8.0,7.0,7.0,6.0,5.0,6.0,7.0,15.0,16.0,17.0,16.0,17.0,14.0,13.0,13.0,11.0,9.0,8.0,9.0,8.0,7.0,7.0,6.0,7.0,5.0,6.0,14.0,13.0,13.0,11.0,10.0,10.0,9.0,9.0,11.0,11.0,10.0,7.0,9.0,9.0,11.0,10.0,9.0,12.0,14.0,14.0,12.0,12.0,11.0,9.0,9.0,8.0,9.0,9.0,8.0,8.0,7.0,7.0,6.0,7.0,12.0,16.0,15.0,13.0,12.0,10.0,10.0,9.0,8.0,7.0,7.0,7.0,7.0,6.0,5.0,5.0,5.0,6.0,5.0,5.0,8.0,10.0,9.0,9.0,7.0,8.0,8.0,7.0,7.0,6.0,7.0,6.0,5.0,6.0,4.0,7.0,6.0,7.0,7.0,5.0,6.0,6.0,7.0,6.0,7.0,8.0,7.0,9.0,9.0,8.0,8.0,8.0,7.0,7.0,8.0,7.0,6.0,8.0,7.0,7.0,6.0,6.0,7.0,10.0,10.0,9.0,7.0,8.0,9.0,9.0,8.0,9.0,8.0,7.0,9.0,8.0,10.0,8.0,7.0,8.0,7.0,7.0,8.0,8.0,7.0,8.0,7.0,7.0,8.0,8.0,9.0,7.0,7.0,6.0,6.0,6.0,6.0,5.0,6.0,4.0,6.0,5.0,4.0,5.0,5.0,5.0,6.0,8.0,8.0,9.0,9.0,9.0,10.0,8.0,9.0,9.0,10.0,9.0,8.0,8.0,10.0,10.0,9.0,9.0,8.0,8.0,7.0,7.0,6.0,7.0,6.0,6.0,13.0,14.0,12.0,10.0,9.0,9.0,10.0,11.0,9.0,9.0,8.0,9.0,8.0,7.0,8.0,7.0,12.0,14.0,14.0,13.0,13.0,14.0,12.0,12.0,11.0,10.0,11.0,10.0,10.0,11.0,14.0,13.0,12.0,10.0,11.0,11.0,11.0,9.0,10.0,10.0,11.0,11.0,12.0,11.0,9.0,9.0,8.0,12.0,13.0,11.0,10.0,9.0,9.0,8.0,8.0,7.0,9.0,9.0,8.0,7.0,6.0,6.0,8.0,7.0,7.0,7.0,7.0,7.0,6.0,7.0,6.0,5.0,5.0,8.0,9.0,8.0,7.0,7.0,7.0,8.0,8.0,9.0,8.0,7.0,8.0,9.0,14.0,11.0,11.0,14.0,13.0,12.0,11.0,10.0,9.0,9.0,9.0,9.0,10.0,10.0,10.0,9.0,11.0,14.0,14.0,13.0,11.0,11.0,9.0,9.0,11.0,10.0,10.0,10.0,9.0,11.0,9.0,13.0,11.0,12.0,10.0,9.0,9.0,8.0,10.0,8.0,9.0,8.0,7.0,7.0,8.0,8.0,7.0,6.0,6.0,6.0,7.0,6.0,7.0,6.0,6.0,7.0,6.0,5.0,5.0,16.0,15.0,14.0,12.0,11.0,11.0,11.0,11.0,11.0,9.0,9.0,7.0,7.0,12.0,12.0,12.0,10.0,9.0,9.0,8.0,11.0,12.0,12.0,10.0,9.0,9.0,7.0,8.0,8.0,8.0,12.0,12.0,13.0,12.0,11.0,10.0,9.0,11.0,11.0,13.0,11.0,10.0,13.0,12.0,13.0,10.0,11.0,11.0,11.0,11.0
105.0,99.0,98.0,101.0,105.0,106.0,106.0,105.0,109.0,109.0,105.0,106.0,106.0,112.0,104.0,106.0,99.0,92.0,94.0,94.0,92.0,87.0,82.0,96.0,105.0,113.0,114.0,104.0,107.0,113.0,110.0,112.0,116.0,117.0,116.0,110.0,110.0,107.0,114.0,116.0,116.0,106.0,105.0,102.0,99.0,100.0,109.0,108.0,103.0,95.0,92.0,106.0,117.0,123.0,123.0,122.0,122.0,115.0,111.0,110.0,109.0,109.0,118.0,122.0,118.0,121.0,131.0,125.0,118.0,120.0,116.0,122.0,128.0,123.0,125.0,133.0,138.0,133.0,138.0,134.0,127.0,120.0,113.0,108.0,102.0,102.0,97.0,97.0,98.0,93.0,96.0,88.0,82.0,80.0,74.0,75.0,73.0,77.0,83.0,94.0,93.0,93.0,101.0,99.0,96.0,94.0,99.0,98.0,122.0,123.0,128.0,140.0,160.0,179.0,180.0,187.0,180.0,171.0,158.0,167.0,173.0,161.0,160.0,168.0,167.0,169.0,153.0,154.0,148.0,163.0,165.0,166.0,155.0,150.0,150.0,148.0,149.0,142.0,139.0,133.0,134.0,133.0,127.0,128.0,126.0,123.0,123.0,119.0,119.0,110.0,105.0,106.0,107.0,106.0,96.0,103.0,97.0,101.0,104.0,97.0,101.0,103.0,109.0,109.0,103.0,102.0,102.0,106.0,108.0,109.0,108.0,101.0,109.0,105.0,109.0,110.0,121.0,124.0,124.0,119.0,113.0,110.0,111.0,109.0,105.0,104.0,102.0,102.0,98.0,104.0,103.0,97.0,97.0,94.0,102.0,99.0,105.0,106.0,109.0,106.0,101.0,110.0,110.0,112.0,111.0,113.0,108.0,108.0,110.0,104.0,102.0,108.0,103.0,101.0,100.0,102.0,105.0,103.0,100.0,96.0,94.0,90.0,92.0,89.0,87.0,91.0,91.0,104.0,129.0,142.0,147.0,141.0,140.0,137.0,133.0,127.0,125.0,127.0,126.0,122.0,117.0,114.0,104.0,105.0,106.0,105.0,104.0,101.0,98.0,100.0,100.0,96.0,91.0,97.0,99.0,94.0,96.0,100.0,97.0,101.0,97.0,104.0,100.0,104.0,106.0,111.0,109.0,109.0,110.0,109.0,109.0,104.0,108.0,101.0,99.0,104.0,103.0,105.0,100.0,98.0,96.0,103.0,103.0,101.0,105.0,104.0,105.0,104.0,105.0,103.0,103.0,103.0,104.0,102.0,93.0,98.0,95.0,90.0,93.0,88.0,87.0,85.0,91.0,86.0,87.0,87.0,90.0,84.0,91.0,90.0,91.0,88.0,84.0,84.0,84.0,87.0,86.0,85.0,80.0,80.0,85.0,85.0,86.0,83.0,80.0,77.0,71.0,73.0,76.0,72.0,77.0,77.0,78.0,76.0,71.0,77.0,79.0,78.0,74.0,75.0,73.0,73.0,70.0,71.0,78.0,75.0,72.0,70.0,73.0,109.0,129.0,138.0,146.0,146.0,135.0,125.0,119.0,112.0,114.0,112.0,112.0,110.0,113.0,105.0,111.0,102.0,96.0,98.0,97.0,96.0,93.0,91.0,84.0,83.0,86.0,85.0,80.0,77.0,77.0,79.0,74.0,79.0,82.0,82.0,84.0,84.0,81.0,78.0,78.0,80.0,80.0,84.0,79.0,79.0,80.0,80.0,77.0,74.0,73.0,79.0,76.0,75.0,76.0,79.0,78.0,78.0,78.0,85.0,82.0,85.0,82.0,86.0,88.0,88.0,89.0,83.0,83.0,79.0,81.0,79.0,77.0,73.0,71.0,66.0,62.0,59.0,56.0,59.0,59.0,63.0,60.0,60.0,59.0,59.0,74.0,73.0,76.0,90.0,109.0,116.0,128.0,126.0,125.0,125.0,120.0,132.0,148.0,141.0,146.0,146.0,184.0,200.0,193.0,188.0,183.0,180.0,178.0,163.0,163.0,174.0,178.0,167.0,172.0,166.0,169.0,181.0,185.0,185.0,188.0,180.0,182.0,201.0,202.0,198.0,193.0,178.0,179.0,178.0,169.0,162.0,157.0,164.0,197.0,219.0,210.0,197.0,191.0,190.0,194.0,188.0,182.0,184.0,187.0,188.0,180.0,187.0,187.0,192.0,185.0,170.0,166.0,167.0,166.0,157.0,161.0,151.0,145.0,152.0,142.0,157.0,154.0,149.0,151.0,150.0,152.0,152.0,147.0,152.0,149.0,157.0,166.0,165.0,162.0,160.0,156.0,146.0,146.0,149.0,152.0,147.0,139.0,131.0,128.0,120.0,112.0,107.0,96.0,88.0,88.0,83.0,79.0,91.0,107.0,108.0,103.0,100.0,103.0,98.0,94.0,95.0,109.0,106.0,118.0,108.0,129.0,138.0,130.0,121.0,115.0,116.0,112.0,120.0,112.0,105.0,121.0,124.0,118.0,112.0,113.0,106.0,131.0,128.0,125.0,125.0,121.0,131.0,130.0,123.0,117.0,108.0,110.0,107.0,111.0,111.0,106.0,110.0,106.0,111.0,114.0,114.0,116.0,118.0,110.0,129.0,127.0,124.0,122.0,129.0,142.0,142.0,133.0,123.0,116.0,121.0,118.0,108.0,136.0,136.0,127.0,122.0,110.0,104.0,94.0,93.0,94.0,89.0,85.0,80.0,85.0,85.0,93.0,90.0,88.0,88.0,95.0,95.0,90.0,90.0,88.0,92.0,97.0,101.0,98.0,95.0,98.0,97.0,93.0,99.0,101.0,102.0,100.0,104.0,109.0,108.0,114.0,107.0,103.0,110.0,111.0,104.0,110.0,107.0,115.0,112.0,126.0,124.0,121.0,138.0,143.0,135.0,134.0,128.0,119.0,119.0,118.0,127.0,125.0,120.0,115.0,119.0,110.0,107.0,107.0,108.0,106.0,111.0,109.0,106.0,97.0,93.0,87.0,85.0,84.0,82.0,76.0,83.0,78.0,79.0,83.0,90.0,83.0,78.0,77.0,80.0,88.0,100.0,106.0,117.0,113.0,121.0,119.0,113.0,105.0,105.0,108.0,108.0,103.0,98.0,93.0,95.0,96.0,98.0,92.0,88.0,86.0,86.0,90.0,84.0,80.0,94.0,93.0,93.0,97.0,91.0,85.0,82.0,80.0,80.0,80.0,84.0,83.0,94.0,98.0,99.0,94.0,97.0,97.0,120.0,119.0,117.0,124.0,135.0,128.0,140.0,135.0,131.0,133.0,130.0,120.0,118.0,116.0,121.0,120.0,117.0,107.0,115.0,112.0,107.0,100.0,102.0,107.0,108.0,122.0,118.0,112.0,123.0,128.0,127.0,120.0,120.0,114.0,113.0,118.0,111.0,114.0,106.0,102.0,102.0,98.0,102.0,105.0,99.0,105.0,102.0,105.0,117.0,111.0,119.0,117.0,115.0,111.0,106.0,110.0,106.0,104.0,104.0,109.0,104.0,104.0,104.0,100.0,96.0,94.0,119.0,119.0,116.0,120.0,119.0,116.0,108.0,99.0,94.0,103.0,104.0,96.0,100.0,115.0,110.0,115.0,115.0,127.0,128.0,140.0,134.0,125.0,127.0,125.0,122.0,121.0,115.0,122.0,125.0,120.0,124.0,126.0,127.0,131.0,128.0,121.0,115.0,108.0,120.0,120.0,110.0,109.0,101.0,110.0,107.0,106.0,103.0,108.0,111.0,110.0,105.0,103.0,108.0,113.0,112.0,112.0,108.0,104.0,103.0,102.0,105.0,97.0,96.0,92.0,92.0,98.0,94.0,92.0,86.0,90.0,97.0,94.0,100.0,113.0,109.0,100.0,95.0,91.0,89.0,94.0,95.0,101.0,104.0,99.0,96.0,89.0,89.0,100.0,103.0,109.0,103.0,106.0,107.0,101.0,102.0,98.0,99.0,100.0,97.0,108.0,109.0,113.0,110.0,105.0,108.0,110.0,118.0,115.0,113.0,114.0,108.0,111.0,112.0,105.0,102.0,101.0,104.0,118.0,129.0,131.0,139.0,129.0,123.0,133.0,128.0,124.0,115.0,110.0,133.0,139.0,137.0,128.0,121.0,112.0,105.0,112.0,114.0,119.0,113.0,116.0,108.0,111.0,102.0,102.0,102.0,97.0,97.0,99.0,103.0,102.0,109.0,108.0,115.0,112.0,118.0,115.0,117.0,115.0,114.0,112.0,110.0,114.0,115.0,110.0,106.0,104.0,102.0,100.0,111.0,110.0,102.0,94.0,95.0,93.0,88.0,90.0,86.0,82.0,83.0,83.0,99.0,94.0,91.0,84.0,84.0,83.0,86.0,89.0,93.0,92.0,88.0,96.0,99.0,93.0,99.0,106.0,105.0
