96.0,98.0,99.0,99.0,99.0,99.0,98.0,98.0,98.0,96.0,97.0,94.0,96.0,94.0,96.0,96.0,96.0,97.0,95.0,96.0,97.0,97.0,98.0,98.0,99.0,99.0,98.0,98.0,97.0,96.0,95.0,93.0,92.0,90.0,90.0,88.0,89.0,87.0,87.0,86.0,85.0,85.0,84.0,85.0,84.0,83.0,82.0,82.0,84.0,85.0,86.0,84.0,86.0,88.0,87.0,87.0,86.0,85.0,86.0,86.0,87.0,86.0,87.0,87.0,85.0,79.0,78.0,87.0,107.0,134.0,147.0,171.0,176.0,196.0,198.0,220.0,210.0,207.0,188.0,179.0,180.0,178.0,177.0,186.0,196.0,178.0,167.0,165.0,158.0,168.0,171.0,163.0,155.0,151.0,167.0,160.0,161.0,164.0,159.0,149.0,153.0,152.0,156.0,154.0,150.0,140.0,144.0,143.0,140.0,134.0,126.0,128.0,122.0,117.0,115.0,113.0,110.0,108.0,105.0,107.0,106.0,107.0,99.0,95.0,91.0,91.0,88.0,88.0,84.0,83.0,83.0,80.0,78.0,76.0,76.0,76.0,74.0,75.0,77.0,74.0,71.0,72.0,73.0,75.0,78.0,82.0,79.0,84.0,85.0,86.0,84.0,84.0,85.0,87.0,90.0,87.0,88.0,91.0,97.0,100.0,101.0,102.0,102.0,105.0,108.0,109.0,116.0,117.0,120.0,123.0,121.0,124.0,128.0,131.0,135.0,135.0,141.0,143.0,146.0,141.0,147.0,148.0,144.0,148.0,151.0,151.0,154.0,155.0,159.0,156.0,158.0,161.0,159.0,163.0,164.0,161.0,164.0,165.0,166.0,171.0,171.0,169.0,169.0,174.0,176.0,179.0,180.0,178.0,180.0,181.0,179.0,183.0,184.0,183.0,185.0,184.0,185.0,185.0,184.0,186.0,185.0,187.0,187.0,185.0,193.0,189.0,190.0,191.0,192.0,193.0,194.0,198.0,196.0,204.0,211.0,211.0,218.0,224.0,229.0,233.0,237.0,241.0,242.0,253.0,260.0,267.0,271.0,286.0,294.0,301.0,307.0,312.0,321.0,333.0,341.0,349.0,356.0,362.0,363.0,365.0,376.0,378.0,382.0,388.0,386.0,387.0,390.0,389.0,390.0,386.0,385.0,382.0,382.0,381.0,376.0,372.0,367.0,361.0,355.0,350.0,345.0,339.0,332.0,326.0,319.0,312.0,305.0,298.0,292.0,286.0,278.0,273.0,268.0,259.0,254.0,247.0,241.0,235.0,230.0,224.0,220.0,216.0,211.0,205.0,200.0,194.0,188.0,184.0,178.0,173.0,167.0,163.0,158.0,153.0,148.0,144.0,140.0,136.0,133.0,130.0,126.0,124.0,121.0,116.0,113.0,108.0,103.0,98.0,95.0,91.0,86.0,82.0,79.0,76.0,74.0,71.0,67.0,66.0,63.0,62.0,60.0,60.0,60.0,57.0,55.0,54.0,54.0,53.0,53.0,56.0,54.0,55.0,56.0,57.0,58.0,58.0,58.0,56.0,58.0,59.0,59.0,60.0,60.0,58.0,60.0,60.0,62.0,64.0,63.0,63.0,64.0,65.0,64.0,64.0,64.0,63.0,65.0,65.0,66.0,67.0,67.0,67.0,67.0,68.0,66.0,67.0,70.0,70.0,71.0,72.0,71.0,72.0,72.0,73.0,73.0,74.0,74.0,75.0,78.0,78.0,79.0,81.0,81.0,81.0,83.0,83.0,83.0,83.0,84.0,87.0,86.0,85.0,85.0,85.0,83.0,82.0,81.0,81.0,80.0,81.0,82.0,82.0,83.0,83.0,83.0,83.0,84.0,84.0,84.0,83.0,84.0,82.0,80.0,80.0,83.0,82.0,83.0,82.0,82.0,84.0,83.0,84.0,83.0,81.0,80.0,81.0,79.0,77.0,79.0,78.0,78.0,77.0,77.0,79.0,81.0,82.0,81.0,82.0,83.0,83.0,83.0,85.0,84.0,84.0,84.0,83.0,85.0,84.0,84.0,81.0,84.0,82.0,84.0,84.0,83.0,83.0,84.0,83.0,81.0,82.0,81.0,81.0,82.0,80.0,81.0,79.0,80.0,79.0,78.0,79.0,79.0,77.0,79.0,76.0,78.0,77.0,77.0,76.0,75.0,77.0,76.0,77.0,78.0,77.0,77.0,75.0,76.0,75.0,74.0,73.0,73.0,74.0,73.0,73.0,71.0,70.0,69.0,71.0,71.0,72.0,72.0,72.0,71.0,70.0,71.0,70.0,72.0,71.0,72.0,71.0,71.0,69.0,68.0,67.0,65.0,65.0,62.0,62.0,61.0,59.0,58.0,56.0,55.0,55.0,53.0,53.0,52.0,54.0,52.0,52.0,53.0,52.0,56.0,58.0,57.0,57.0,56.0,58.0,58.0,58.0,60.0,58.0,57.0,58.0,58.0,57.0,60.0,58.0,58.0,56.0,56.0,55.0,54.0,52.0,52.0,51.0,51.0,50.0,50.0,51.0,51.0,51.0,52.0,52.0,52.0,52.0,51.0,50.0,50.0,50.0,50.0,51.0,51.0,53.0,50.0,51.0,51.0,51.0,50.0,49.0,49.0,50.0,50.0,51.0,50.0,49.0,48.0,49.0,49.0,48.0,50.0,51.0,50.0,51.0,51.0,55.0,52.0,53.0,52.0,51.0,52.0,52.0,53.0,52.0,54.0,52.0,51.0,50.0,49.0,50.0,49.0,48.0,47.0,46.0,46.0,45.0,45.0,44.0,44.0,43.0,44.0,44.0,45.0,44.0,45.0,44.0,43.0,42.0,43.0,43.0,43.0,46.0,45.0,45.0,45.0,44.0,46.0,47.0,48.0,46.0,46.0,47.0,48.0,50.0,48.0,48.0,47.0,46.0,46.0,47.0,47.0,49.0,47.0,48.0,46.0,46.0,45.0,45.0,45.0,46.0,46.0,45.0,44.0,45.0,45.0,45.0,44.0,45.0,45.0,44.0,44.0,43.0,44.0,44.0,45.0,44.0,44.0,45.0,45.0,45.0,45.0,45.0,46.0,44.0,44.0,44.0,44.0,43.0,44.0,44.0,44.0,44.0,45.0,44.0,45.0,45.0,47.0,46.0,46.0,47.0,46.0,47.0,47.0,48.0,47.0,46.0,46.0,47.0,48.0,48.0,47.0,49.0,48.0,48.0,47.0,47.0,47.0,46.0,46.0,46.0,46.0,48.0,47.0,46.0,46.0,48.0,46.0,46.0,46.0,46.0,45.0,44.0,44.0,45.0,44.0,46.0,44.0,44.0,44.0,45.0,45.0,46.0,47.0,47.0,47.0,47.0,50.0,50.0,50.0,51.0,52.0,51.0,52.0,52.0,52.0,54.0,54.0,54.0,57.0,57.0,58.0,58.0,58.0,57.0,58.0,59.0,60.0,58.0,59.0,58.0,58.0,58.0,60.0,60.0,60.0,61.0,60.0,58.0,58.0,57.0,57.0,56.0,57.0,58.0,55.0,55.0,53.0,53.0,51.0,51.0,51.0,50.0,51.0,50.0,49.0,49.0,49.0,50.0,50.0,50.0,51.0,50.0,50.0,51.0,52.0,54.0,52.0,54.0,54.0,53.0,53.0,53.0,53.0,50.0,51.0,52.0,51.0,53.0,53.0,54.0,53.0,52.0,51.0,51.0,52.0,51.0,51.0,51.0,52.0,51.0,52.0,53.0,52.0,53.0,55.0,54.0,56.0,56.0,55.0,55.0,55.0,56.0,53.0,55.0,56.0,57.0,57.0,57.0,59.0,57.0,57.0,57.0,56.0,55.0,55.0,54.0,53.0,52.0,51.0,49.0,49.0,52.0,51.0,51.0,50.0,51.0,50.0,50.0,50.0,51.0,51.0,52.0,52.0,53.0,51.0,52.0,53.0,55.0,54.0,57.0,57.0,59.0,60.0,63.0,65.0,65.0,66.0,66.0,63.0,63.0,62.0,63.0,62.0,62.0,62.0,62.0,61.0,60.0,61.0,60.0,59.0,59.0,58.0,58.0,58.0,57.0,60.0,57.0,58.0,60.0,59.0,60.0,61.0,62.0,62.0,61.0,62.0,59.0,61.0,59.0,59.0,59.0,57.0,56.0,57.0,57.0,57.0,57.0,60.0,59.0,60.0,62.0,62.0,62.0,62.0,63.0,61.0,62.0,62.0,61.0,59.0,58.0,57.0,53.0,56.0,54.0,54.0,54.0,53.0,54.0,54.0,54.0,54.0,52.0,52.0,51.0,51.0,51.0,48.0,49.0,47.0,48.0,47.0,45.0,48.0,48.0,49.0,50.0,51.0,51.0,51.0,52.0,51.0,52.0,50.0,49.0,49.0,49.0,51.0,51.0
42.0,44.0,43.0,43.0,43.0,42.0,42.0,44.0,44.0,44.0,44.0,44.0,44.0,44.0,45.0,45.0,45.0,45.0,45.0,46.0,47.0,46.0,47.0,48.0,48.0,47.0,46.0,46.0,46.0,46.0,48.0,47.0,49.0,48.0,48.0,48.0,50.0,51.0,52.0,52.0,52.0,52.0,52.0,53.0,53.0,55.0,53.0,54.0,54.0,54.0,53.0,53.0,54.0,55.0,54.0,52.0,52.0,51.0,51.0,52.0,52.0,52.0,50.0,50.0,49.0,62.0,101.0,135.0,223.0,218.0,424.0,482.0,568.0,669.0,668.0,661.0,630.0,628.0,624.0,668.0,668.0,668.0,668.0,669.0,669.0,669.0,669.0,669.0,669.0,669.0,669.0,668.0,668.0,668.0,668.0,668.0,668.0,669.0,669.0,668.0,668.0,669.0,669.0,668.0,668.0,669.0,668.0,668.0,668.0,668.0,668.0,669.0,668.0,668.0,668.0,668.0,668.0,668.0,668.0,669.0,669.0,669.0,669.0,669.0,668.0,668.0,668.0,668.0,658.0,640.0,618.0,598.0,581.0,564.0,550.0,539.0,526.0,508.0,498.0,488.0,475.0,463.0,456.0,448.0,437.0,433.0,422.0,409.0,403.0,403.0,395.0,388.0,385.0,374.0,366.0,367.0,361.0,354.0,346.0,342.0,338.0,336.0,328.0,323.0,318.0,314.0,310.0,306.0,303.0,299.0,297.0,297.0,294.0,288.0,286.0,285.0,281.0,288.0,282.0,281.0,277.0,268.0,263.0,257.0,255.0,249.0,249.0,241.0,234.0,230.0,226.0,225.0,218.0,215.0,212.0,205.0,201.0,197.0,190.0,189.0,185.0,184.0,181.0,178.0,175.0,169.0,172.0,168.0,165.0,161.0,163.0,158.0,157.0,155.0,152.0,150.0,149.0,151.0,150.0,146.0,143.0,142.0,140.0,143.0,137.0,142.0,139.0,138.0,136.0,135.0,135.0,131.0,133.0,127.0,119.0,119.0,112.0,104.0,97.0,94.0,88.0,89.0,88.0,85.0,81.0,75.0,75.0,82.0,79.0,78.0,74.0,75.0,81.0,91.0,101.0,116.0,133.0,150.0,164.0,181.0,206.0,226.0,245.0,268.0,283.0,300.0,319.0,332.0,349.0,358.0,370.0,379.0,389.0,399.0,403.0,408.0,414.0,418.0,420.0,423.0,425.0,424.0,423.0,425.0,425.0,427.0,426.0,427.0,426.0,426.0,424.0,424.0,424.0,423.0,423.0,424.0,422.0,422.0,423.0,423.0,425.0,426.0,426.0,425.0,426.0,426.0,424.0,425.0,424.0,422.0,422.0,424.0,424.0,423.0,423.0,422.0,421.0,419.0,418.0,417.0,416.0,415.0,415.0,414.0,414.0,412.0,410.0,409.0,412.0,412.0,408.0,407.0,406.0,405.0,404.0,402.0,401.0,400.0,399.0,398.0,398.0,394.0,396.0,394.0,393.0,392.0,390.0,388.0,384.0,382.0,383.0,380.0,377.0,374.0,372.0,370.0,371.0,371.0,370.0,368.0,366.0,364.0,363.0,362.0,360.0,357.0,353.0,353.0,349.0,347.0,344.0,340.0,337.0,335.0,333.0,331.0,326.0,324.0,320.0,317.0,314.0,314.0,311.0,309.0,307.0,305.0,303.0,302.0,300.0,298.0,298.0,295.0,294.0,291.0,291.0,288.0,286.0,284.0,282.0,280.0,277.0,275.0,275.0,273.0,267.0,268.0,265.0,263.0,262.0,256.0,256.0,254.0,251.0,247.0,247.0,246.0,246.0,245.0,243.0,241.0,239.0,237.0,236.0,236.0,232.0,231.0,229.0,227.0,226.0,226.0,223.0,220.0,218.0,216.0,214.0,212.0,208.0,210.0,206.0,204.0,204.0,201.0,198.0,196.0,194.0,192.0,192.0,190.0,187.0,186.0,186.0,185.0,186.0,182.0,181.0,180.0,179.0,178.0,178.0,178.0,175.0,172.0,172.0,173.0,171.0,169.0,166.0,167.0,164.0,166.0,165.0,165.0,162.0,161.0,160.0,159.0,156.0,155.0,153.0,149.0,149.0,148.0,144.0,144.0,142.0,141.0,138.0,139.0,141.0,140.0,141.0,141.0,141.0,141.0,139.0,140.0,140.0,140.0,141.0,141.0,141.0,141.0,140.0,140.0,136.0,138.0,135.0,133.0,132.0,131.0,130.0,126.0,123.0,122.0,121.0,119.0,117.0,115.0,114.0,113.0,112.0,110.0,109.0,108.0,107.0,103.0,100.0,100.0,98.0,96.0,97.0,96.0,96.0,94.0,94.0,94.0,93.0,89.0,91.0,91.0,89.0,88.0,88.0,87.0,88.0,87.0,87.0,84.0,87.0,86.0,86.0,86.0,84.0,82.0,82.0,83.0,83.0,82.0,81.0,79.0,78.0,78.0,76.0,73.0,74.0,72.0,71.0,70.0,69.0,68.0,69.0,69.0,69.0,68.0,67.0,68.0,68.0,70.0,68.0,71.0,70.0,69.0,67.0,64.0,64.0,65.0,66.0,67.0,67.0,68.0,66.0,64.0,66.0,65.0,67.0,66.0,68.0,68.0,66.0,68.0,66.0,67.0,67.0,66.0,68.0,68.0,70.0,69.0,69.0,69.0,66.0,67.0,66.0,67.0,67.0,65.0,66.0,65.0,66.0,66.0,65.0,63.0,61.0,61.0,59.0,59.0,60.0,60.0,61.0,61.0,58.0,57.0,57.0,57.0,56.0,56.0,56.0,57.0,58.0,60.0,60.0,61.0,62.0,62.0,63.0,64.0,64.0,64.0,63.0,62.0,62.0,64.0,64.0,64.0,63.0,63.0,61.0,61.0,62.0,63.0,62.0,61.0,60.0,59.0,61.0,59.0,59.0,59.0,57.0,57.0,54.0,56.0,55.0,56.0,56.0,55.0,53.0,53.0,51.0,50.0,50.0,51.0,51.0,50.0,50.0,50.0,49.0,46.0,48.0,45.0,45.0,46.0,47.0,46.0,45.0,46.0,44.0,44.0,45.0,44.0,44.0,43.0,43.0,42.0,42.0,44.0,43.0,44.0,44.0,43.0,45.0,45.0,47.0,46.0,47.0,48.0,46.0,48.0,49.0,49.0,48.0,49.0,51.0,50.0,50.0,49.0,49.0,51.0,49.0,50.0,49.0,49.0,48.0,47.0,46.0,46.0,48.0,49.0,48.0,50.0,49.0,51.0,49.0,50.0,48.0,49.0,47.0,47.0,47.0,47.0,46.0,46.0,45.0,46.0,45.0,46.0,46.0,45.0,44.0,44.0,44.0,44.0,45.0,47.0,46.0,47.0,48.0,48.0,48.0,50.0,50.0,50.0,50.0,50.0,48.0,49.0,48.0,49.0,49.0,48.0,47.0,44.0,44.0,45.0,46.0,46.0,46.0,46.0,45.0,43.0,44.0,44.0,43.0,42.0,40.0,40.0,39.0,38.0,39.0,40.0,40.0,41.0,42.0,42.0,43.0,44.0,45.0,45.0,43.0,43.0,43.0,45.0,45.0,45.0,44.0,44.0,44.0,44.0,44.0,46.0,45.0,46.0,45.0,45.0,45.0,45.0,44.0,46.0,47.0,44.0,44.0,44.0,42.0,42.0,42.0,44.0,42.0,42.0,41.0,42.0,41.0,40.0,41.0,44.0,44.0,43.0,42.0,43.0,45.0,44.0,43.0,42.0,41.0,40.0,40.0,41.0,41.0,41.0,40.0,40.0,39.0,39.0,40.0,41.0,41.0,39.0,39.0,40.0,40.0,39.0,39.0,41.0,41.0,40.0,40.0,38.0,38.0,37.0,37.0,39.0,39.0,40.0,39.0,38.0,39.0,39.0,42.0,40.0,39.0,38.0,38.0,37.0,37.0,37.0,36.0,38.0,39.0,38.0,38.0,37.0,38.0,37.0,39.0,42.0,41.0,40.0,41.0,41.0,40.0,39.0,40.0,39.0,39.0,41.0,41.0,41.0,40.0,39.0,40.0,39.0,39.0,41.0,43.0,42.0,42.0,41.0,42.0,41.0,40.0,42.0,41.0,44.0,44.0,43.0,42.0,41.0,41.0,42.0,44.0,43.0,42.0,41.0,40.0,40.0,41.0,42.0,40.0,40.0,39.0,38.0,37.0,39.0,38.0,38.0,38.0,37.0,38.0,37.0,37.0,37.0,37.0,40.0,39.0,39.0,38.0,37.0,37.0,38.0,39.0,39.0,40.0,39.0,37.0,39.0,38.0,39.0,40.0,40.0,39.0,39.0,40.0,38.0,39.0,39.0,42.0,42.0,41.0,42.0,40.0,39.0,40.0,40.0,41.0,41.0,40.0,40.0,38.0,40.0,43.0,43.0
25.0,28.0,25.0,25.0,27.0,31.0,31.0,32.0,29.0,29.0,26.0,25.0,24.0,23.0,30.0,28.0,25.0,23.0,27.0,32.0,28.0,37.0,34.0,30.0,29.0,27.0,29.0,31.0,28.0,26.0,25.0,25.0,25.0,26.0,25.0,30.0,28.0,24.0,25.0,28.0,31.0,27.0,30.0,28.0,24.0,33.0,35.0,34.0,34.0,39.0,39.0,45.0,46.0,42.0,41.0,36.0,35.0,41.0,44.0,50.0,49.0,43.0,39.0,37.0,41.0,38.0,40.0,63.0,84.0,85.0,121.0,139.0,149.0,190.0,228.0,204.0,179.0,196.0,194.0,200.0,218.0,239.0,248.0,259.0,266.0,261.0,244.0,226.0,203.0,215.0,253.0,239.0,217.0,209.0,226.0,222.0,239.0,233.0,251.0,225.0,252.0,241.0,231.0,219.0,225.0,223.0,238.0,227.0,233.0,214.0,242.0,227.0,219.0,211.0,205.0,212.0,204.0,202.0,208.0,208.0,195.0,201.0,179.0,193.0,184.0,181.0,186.0,181.0,160.0,165.0,181.0,164.0,149.0,141.0,143.0,126.0,134.0,127.0,111.0,118.0,104.0,103.0,105.0,111.0,108.0,123.0,131.0,124.0,112.0,98.0,89.0,89.0,98.0,94.0,98.0,101.0,105.0,98.0,103.0,102.0,106.0,113.0,101.0,105.0,105.0,112.0,110.0,100.0,91.0,85.0,76.0,105.0,101.0,103.0,102.0,110.0,112.0,119.0,124.0,125.0,127.0,112.0,102.0,93.0,96.0,97.0,95.0,85.0,80.0,76.0,78.0,106.0,94.0,86.0,85.0,84.0,93.0,93.0,93.0,93.0,85.0,77.0,73.0,84.0,88.0,89.0,87.0,80.0,69.0,65.0,108.0,102.0,98.0,105.0,94.0,88.0,83.0,96.0,97.0,98.0,104.0,106.0,101.0,124.0,121.0,111.0,107.0,95.0,85.0,76.0,74.0,75.0,76.0,72.0,66.0,64.0,62.0,59.0,59.0,72.0,81.0,100.0,102.0,101.0,107.0,109.0,112.0,108.0,110.0,121.0,114.0,139.0,158.0,161.0,151.0,148.0,150.0,157.0,151.0,161.0,188.0,174.0,180.0,168.0,173.0,168.0,158.0,149.0,156.0,155.0,149.0,143.0,156.0,155.0,145.0,142.0,148.0,134.0,138.0,128.0,133.0,124.0,128.0,118.0,110.0,117.0,114.0,122.0,110.0,109.0,100.0,95.0,86.0,83.0,80.0,83.0,82.0,88.0,90.0,83.0,83.0,78.0,73.0,80.0,82.0,80.0,83.0,80.0,76.0,73.0,77.0,79.0,71.0,67.0,66.0,65.0,62.0,61.0,65.0,61.0,65.0,67.0,63.0,57.0,52.0,57.0,56.0,63.0,57.0,51.0,54.0,53.0,51.0,47.0,54.0,59.0,54.0,56.0,58.0,52.0,53.0,66.0,70.0,64.0,60.0,59.0,56.0,55.0,52.0,61.0,59.0,54.0,61.0,59.0,54.0,46.0,43.0,39.0,41.0,38.0,38.0,36.0,32.0,30.0,28.0,26.0,24.0,23.0,21.0,20.0,20.0,23.0,42.0,37.0,33.0,27.0,27.0,26.0,25.0,31.0,45.0,40.0,47.0,44.0,39.0,36.0,32.0,34.0,35.0,48.0,49.0,46.0,41.0,35.0,33.0,30.0,26.0,23.0,23.0,28.0,26.0,28.0,27.0,25.0,24.0,31.0,28.0,45.0,47.0,50.0,47.0,41.0,44.0,48.0,50.0,45.0,40.0,36.0,32.0,36.0,32.0,29.0,42.0,37.0,33.0,30.0,31.0,28.0,30.0,31.0,39.0,37.0,32.0,29.0,27.0,30.0,41.0,38.0,34.0,31.0,31.0,29.0,26.0,25.0,33.0,41.0,44.0,39.0,36.0,31.0,28.0,25.0,22.0,28.0,36.0,33.0,34.0,38.0,33.0,29.0,30.0,32.0,33.0,31.0,26.0,25.0,46.0,43.0,44.0,39.0,35.0,30.0,28.0,28.0,27.0,26.0,28.0,28.0,26.0,30.0,30.0,27.0,24.0,26.0,30.0,31.0,36.0,31.0,27.0,26.0,25.0,23.0,21.0,18.0,20.0,20.0,29.0,26.0,23.0,22.0,19.0,17.0,21.0,21.0,26.0,23.0,23.0,20.0,18.0,18.0,16.0,18.0,17.0,23.0,20.0,18.0,16.0,25.0,22.0,25.0,29.0,31.0,30.0,29.0,26.0,23.0,27.0,27.0,36.0,34.0,35.0,33.0,29.0,26.0,25.0,27.0,24.0,25.0,30.0,27.0,24.0,21.0,20.0,18.0,18.0,15.0,14.0,24.0,25.0,22.0,21.0,18.0,19.0,24.0,27.0,24.0,23.0,21.0,19.0,16.0,17.0,18.0,16.0,22.0,21.0,18.0,18.0,16.0,22.0,19.0,25.0,28.0,27.0,25.0,25.0,23.0,21.0,19.0,20.0,25.0,22.0,20.0,20.0,20.0,20.0,28.0,25.0,23.0,20.0,23.0,20.0,26.0,23.0,28.0,26.0,27.0,25.0,26.0,24.0,21.0,19.0,16.0,16.0,22.0,22.0,20.0,23.0,23.0,22.0,20.0,18.0,22.0,20.0,21.0,19.0,22.0,23.0,25.0,24.0,31.0,28.0,25.0,22.0,22.0,33.0,33.0,29.0,26.0,28.0,27.0,23.0,23.0,24.0,21.0,19.0,17.0,23.0,22.0,20.0,22.0,27.0,25.0,28.0,25.0,23.0,21.0,20.0,16.0,22.0,20.0,23.0,23.0,20.0,21.0,18.0,16.0,32.0,40.0,37.0,32.0,30.0,28.0,37.0,40.0,35.0,32.0,27.0,24.0,22.0,26.0,23.0,29.0,28.0,25.0,24.0,22.0,19.0,19.0,21.0,31.0,27.0,23.0,22.0,25.0,31.0,29.0,27.0,24.0,22.0,25.0,24.0,26.0,25.0,25.0,24.0,20.0,20.0,22.0,19.0,27.0,29.0,26.0,24.0,21.0,20.0,24.0,28.0,26.0,23.0,23.0,21.0,20.0,18.0,26.0,24.0,21.0,19.0,18.0,18.0,17.0,16.0,26.0,25.0,25.0,21.0,21.0,21.0,27.0,28.0,26.0,24.0,30.0,26.0,24.0,22.0,30.0,27.0,25.0,23.0,20.0,24.0,31.0,27.0,25.0,26.0,26.0,22.0,21.0,32.0,31.0,29.0,25.0,26.0,26.0,34.0,36.0,31.0,28.0,25.0,24.0,24.0,21.0,25.0,22.0,22.0,21.0,21.0,21.0,30.0,29.0,26.0,23.0,21.0,21.0,20.0,18.0,18.0,26.0,23.0,25.0,25.0,23.0,20.0,23.0,28.0,25.0,23.0,21.0,21.0,17.0,16.0,23.0,32.0,31.0,29.0,28.0,23.0,20.0,22.0,19.0,19.0,19.0,20.0,18.0,23.0,27.0,22.0,21.0,19.0,20.0,20.0,22.0,21.0,19.0,18.0,18.0,20.0,23.0,21.0,25.0,22.0,25.0,26.0,24.0,22.0,19.0,22.0,22.0,19.0,23.0,27.0,25.0,22.0,23.0,23.0,24.0,33.0,33.0,29.0,27.0,23.0,24.0,23.0,30.0,28.0,32.0,29.0,31.0,34.0,32.0,28.0,24.0,24.0,23.0,20.0,26.0,31.0,28.0,27.0,31.0,28.0,25.0,24.0,28.0,25.0,22.0,21.0,21.0,25.0,21.0,21.0,25.0,23.0,30.0,26.0,23.0,22.0,21.0,21.0,25.0,24.0,23.0,27.0,25.0,22.0,23.0,27.0,30.0,25.0,25.0,21.0,20.0,19.0,21.0,25.0,24.0,23.0,20.0,18.0,16.0,18.0,19.0,26.0,25.0,25.0,24.0,25.0,27.0,26.0,25.0,21.0,20.0,19.0,18.0,16.0,19.0,27.0,25.0,24.0,21.0,28.0,37.0,35.0,34.0,31.0,30.0,28.0,26.0,23.0,21.0,26.0,28.0,25.0,29.0,26.0,26.0,25.0,27.0,30.0,25.0,26.0,23.0,21.0,19.0,19.0,22.0,19.0,29.0,26.0,24.0,22.0,19.0,17.0,23.0,22.0,23.0,22.0,22.0,19.0,17.0,17.0,22.0,20.0,27.0,28.0,25.0,23.0,28.0,27.0,25.0,24.0,25.0,22.0,21.0,20.0,18.0,31.0,33.0,28.0,26.0,25.0,23.0,21.0,20.0,23.0,27.0,24.0,27.0,24.0,27.0,25.0,22.0,24.0,24.0,21.0,19.0,19.0,32.0,47.0,40.0
54.0,54.0,55.0,55.0,52.0,52.0,52.0,50.0,51.0,51.0,50.0,47.0,46.0,48.0,50.0,51.0,48.0,47.0,48.0,46.0,45.0,43.0,43.0,42.0,42.0,47.0,44.0,44.0,43.0,45.0,45.0,45.0,47.0,46.0,45.0,48.0,47.0,48.0,45.0,48.0,47.0,45.0,45.0,44.0,42.0,42.0,47.0,45.0,46.0,50.0,53.0,53.0,57.0,59.0,61.0,60.0,55.0,56.0,56.0,59.0,61.0,60.0,60.0,60.0,57.0,56.0,66.0,88.0,124.0,155.0,165.0,175.0,186.0,199.0,202.0,214.0,210.0,204.0,198.0,209.0,211.0,201.0,194.0,211.0,212.0,254.0,319.0,311.0,282.0,266.0,264.0,244.0,220.0,199.0,191.0,181.0,185.0,173.0,172.0,159.0,157.0,146.0,140.0,126.0,123.0,125.0,131.0,126.0,123.0,116.0,128.0,123.0,118.0,114.0,110.0,109.0,109.0,109.0,111.0,107.0,108.0,108.0,100.0,101.0,96.0,96.0,97.0,93.0,87.0,90.0,93.0,87.0,80.0,79.0,81.0,76.0,88.0,99.0,96.0,103.0,101.0,104.0,116.0,106.0,114.0,125.0,123.0,128.0,118.0,106.0,97.0,96.0,99.0,91.0,97.0,95.0,92.0,87.0,94.0,94.0,91.0,87.0,83.0,86.0,89.0,90.0,87.0,82.0,77.0,72.0,69.0,78.0,78.0,78.0,78.0,77.0,85.0,88.0,90.0,89.0,89.0,88.0,85.0,87.0,87.0,83.0,82.0,81.0,82.0,76.0,80.0,87.0,82.0,78.0,77.0,73.0,69.0,67.0,72.0,68.0,70.0,70.0,68.0,67.0,69.0,71.0,72.0,70.0,66.0,64.0,72.0,73.0,68.0,68.0,63.0,65.0,60.0,59.0,62.0,62.0,67.0,68.0,64.0,68.0,65.0,65.0,69.0,67.0,61.0,57.0,66.0,66.0,77.0,80.0,81.0,83.0,118.0,142.0,135.0,146.0,154.0,151.0,144.0,160.0,164.0,176.0,199.0,189.0,175.0,172.0,183.0,192.0,191.0,192.0,232.0,217.0,227.0,214.0,207.0,234.0,252.0,304.0,322.0,329.0,307.0,323.0,308.0,303.0,293.0,306.0,316.0,309.0,299.0,291.0,270.0,248.0,267.0,273.0,268.0,274.0,277.0,286.0,281.0,273.0,269.0,256.0,265.0,262.0,263.0,250.0,250.0,233.0,247.0,239.0,236.0,225.0,216.0,214.0,213.0,217.0,212.0,207.0,204.0,203.0,213.0,206.0,198.0,203.0,196.0,191.0,181.0,198.0,201.0,195.0,205.0,201.0,197.0,181.0,177.0,175.0,171.0,174.0,170.0,164.0,163.0,151.0,146.0,157.0,160.0,160.0,151.0,161.0,158.0,156.0,148.0,141.0,143.0,148.0,147.0,152.0,148.0,146.0,157.0,153.0,144.0,147.0,140.0,145.0,136.0,142.0,138.0,138.0,134.0,129.0,139.0,137.0,136.0,130.0,128.0,120.0,119.0,117.0,122.0,118.0,121.0,113.0,118.0,113.0,102.0,103.0,103.0,103.0,100.0,101.0,98.0,96.0,88.0,92.0,91.0,91.0,90.0,94.0,99.0,121.0,123.0,116.0,112.0,106.0,109.0,105.0,106.0,101.0,100.0,94.0,97.0,100.0,100.0,100.0,95.0,98.0,104.0,114.0,116.0,111.0,105.0,102.0,107.0,105.0,113.0,108.0,110.0,108.0,105.0,111.0,107.0,114.0,110.0,107.0,110.0,105.0,99.0,97.0,94.0,93.0,92.0,88.0,90.0,100.0,110.0,112.0,112.0,110.0,105.0,97.0,95.0,102.0,102.0,101.0,95.0,94.0,92.0,113.0,120.0,117.0,108.0,117.0,116.0,113.0,112.0,110.0,104.0,101.0,96.0,94.0,92.0,91.0,91.0,99.0,111.0,111.0,100.0,96.0,101.0,102.0,110.0,103.0,105.0,114.0,108.0,108.0,106.0,100.0,97.0,104.0,102.0,94.0,95.0,93.0,86.0,87.0,91.0,91.0,92.0,96.0,91.0,91.0,88.0,88.0,89.0,84.0,91.0,89.0,83.0,80.0,84.0,88.0,90.0,90.0,87.0,84.0,81.0,79.0,76.0,80.0,80.0,80.0,74.0,74.0,80.0,88.0,85.0,80.0,78.0,75.0,71.0,84.0,81.0,76.0,74.0,69.0,73.0,73.0,77.0,77.0,77.0,74.0,78.0,94.0,99.0,92.0,89.0,84.0,86.0,84.0,89.0,85.0,84.0,89.0,89.0,90.0,90.0,89.0,83.0,80.0,82.0,81.0,77.0,78.0,79.0,77.0,73.0,77.0,75.0,76.0,76.0,74.0,76.0,76.0,71.0,68.0,75.0,89.0,88.0,98.0,93.0,90.0,83.0,83.0,87.0,85.0,83.0,81.0,78.0,78.0,75.0,75.0,78.0,83.0,80.0,75.0,72.0,71.0,69.0,80.0,87.0,85.0,85.0,80.0,83.0,83.0,84.0,83.0,77.0,76.0,74.0,69.0,73.0,73.0,72.0,72.0,70.0,69.0,71.0,77.0,76.0,74.0,73.0,75.0,77.0,72.0,76.0,77.0,74.0,73.0,68.0,65.0,64.0,69.0,71.0,68.0,69.0,69.0,67.0,66.0,71.0,77.0,80.0,77.0,75.0,75.0,71.0,71.0,73.0,72.0,85.0,84.0,78.0,77.0,74.0,70.0,72.0,73.0,74.0,71.0,75.0,75.0,73.0,69.0,74.0,74.0,71.0,71.0,71.0,67.0,69.0,64.0,62.0,61.0,58.0,57.0,56.0,55.0,53.0,57.0,58.0,56.0,55.0,55.0,52.0,53.0,52.0,60.0,59.0,58.0,57.0,55.0,56.0,55.0,54.0,53.0,54.0,53.0,52.0,54.0,62.0,60.0,57.0,58.0,56.0,53.0,57.0,56.0,54.0,55.0,54.0,54.0,54.0,56.0,56.0,56.0,57.0,54.0,52.0,57.0,57.0,58.0,58.0,56.0,55.0,56.0,59.0,57.0,57.0,56.0,55.0,56.0,59.0,59.0,56.0,53.0,50.0,49.0,50.0,51.0,49.0,49.0,47.0,50.0,51.0,51.0,51.0,49.0,47.0,46.0,44.0,46.0,46.0,45.0,46.0,44.0,47.0,52.0,53.0,53.0,51.0,51.0,50.0,49.0,49.0,50.0,51.0,50.0,50.0,51.0,51.0,54.0,54.0,54.0,54.0,54.0,54.0,56.0,54.0,53.0,50.0,55.0,57.0,59.0,55.0,56.0,55.0,52.0,57.0,55.0,54.0,53.0,51.0,52.0,54.0,57.0,55.0,52.0,52.0,53.0,53.0,54.0,54.0,54.0,51.0,51.0,52.0,50.0,54.0,53.0,51.0,50.0,48.0,47.0,47.0,49.0,46.0,47.0,48.0,47.0,46.0,49.0,48.0,44.0,44.0,42.0,40.0,43.0,43.0,43.0,43.0,45.0,48.0,45.0,45.0,44.0,44.0,43.0,44.0,49.0,47.0,45.0,44.0,45.0,47.0,48.0,47.0,47.0,47.0,44.0,43.0,47.0,48.0,48.0,47.0,49.0,48.0,45.0,46.0,46.0,44.0,50.0,51.0,49.0,49.0,48.0,51.0,50.0,48.0,49.0,49.0,47.0,47.0,49.0,50.0,50.0,53.0,51.0,49.0,53.0,54.0,52.0,50.0,48.0,54.0,55.0,53.0,52.0,51.0,48.0,49.0,48.0,46.0,48.0,46.0,46.0,48.0,49.0,48.0,50.0,49.0,48.0,49.0,50.0,51.0,54.0,53.0,52.0,53.0,51.0,53.0,55.0,59.0,55.0,55.0,53.0,52.0,56.0,54.0,53.0,53.0,52.0,55.0,55.0,54.0,58.0,54.0,55.0,53.0,50.0,50.0,47.0,45.0,46.0,45.0,45.0,48.0,45.0,46.0,45.0,44.0,50.0,47.0,49.0,49.0,48.0,46.0,48.0,47.0,47.0,46.0,48.0,52.0,48.0,48.0,45.0,47.0,45.0,47.0,47.0,48.0,46.0,47.0,47.0,48.0,47.0,47.0,51.0,48.0,49.0,50.0,51.0,58.0,57.0,57.0,55.0,54.0,55.0,55.0,58.0,56.0,57.0,59.0,59.0,60.0,59.0,60.0,61.0,63.0,61.0,60.0,61.0,60.0,60.0,59.0,60.0,59.0,58.0,58.0,56.0,56.0,55.0,53.0,54.0,52.0,55.0,53.0,52.0,54.0,54.0,53.0,52.0,50.0,55.0,54.0,57.0
