59.0,59.0,60.0,60.0,60.0,60.0,57.0,57.0,58.0,57.0,57.0,59.0,59.0,58.0,60.0,59.0,58.0,58.0,57.0,57.0,55.0,55.0,55.0,54.0,54.0,53.0,54.0,54.0,52.0,54.0,51.0,52.0,53.0,53.0,53.0,54.0,55.0,54.0,54.0,54.0,55.0,54.0,53.0,53.0,53.0,54.0,56.0,56.0,56.0,54.0,57.0,57.0,57.0,59.0,59.0,60.0,60.0,59.0,59.0,58.0,57.0,55.0,54.0,54.0,55.0,57.0,58.0,59.0,59.0,59.0,59.0,59.0,58.0,62.0,61.0,63.0,64.0,64.0,64.0,65.0,65.0,64.0,65.0,63.0,63.0,62.0,61.0,60.0,60.0,59.0,59.0,58.0,59.0,59.0,59.0,61.0,65.0,65.0,65.0,77.0,85.0,98.0,127.0,148.0,157.0,211.0,235.0,222.0,215.0,215.0,201.0,194.0,182.0,186.0,173.0,165.0,164.0,162.0,156.0,151.0,144.0,141.0,136.0,136.0,138.0,132.0,131.0,131.0,133.0,135.0,134.0,129.0,129.0,128.0,130.0,138.0,140.0,139.0,139.0,137.0,136.0,141.0,138.0,134.0,141.0,137.0,135.0,132.0,132.0,132.0,128.0,127.0,125.0,125.0,122.0,119.0,118.0,118.0,113.0,107.0,104.0,107.0,108.0,102.0,109.0,103.0,105.0,99.0,106.0,105.0,101.0,99.0,100.0,98.0,99.0,98.0,95.0,93.0,93.0,90.0,90.0,87.0,86.0,82.0,80.0,84.0,81.0,82.0,80.0,78.0,77.0,76.0,77.0,77.0,78.0,75.0,74.0,74.0,77.0,76.0,76.0,76.0,76.0,76.0,78.0,76.0,73.0,77.0,75.0,78.0,81.0,82.0,79.0,80.0,80.0,78.0,80.0,78.0,76.0,77.0,79.0,78.0,78.0,80.0,81.0,87.0,88.0,89.0,89.0,91.0,94.0,92.0,92.0,93.0,96.0,93.0,94.0,100.0,97.0,99.0,98.0,98.0,100.0,106.0,103.0,100.0,104.0,105.0,106.0,109.0,109.0,112.0,111.0,112.0,114.0,111.0,116.0,115.0,118.0,118.0,120.0,117.0,119.0,119.0,117.0,114.0,115.0,114.0,115.0,119.0,119.0,119.0,120.0,122.0,120.0,121.0,118.0,124.0,120.0,117.0,120.0,120.0,117.0,121.0,120.0,121.0,121.0,123.0,124.0,124.0,125.0,128.0,128.0,129.0,135.0,133.0,135.0,135.0,134.0,137.0,141.0,141.0,140.0,142.0,144.0,145.0,147.0,147.0,145.0,149.0,152.0,149.0,148.0,151.0,146.0,149.0,153.0,152.0,151.0,154.0,153.0,155.0,156.0,155.0,149.0,151.0,160.0,161.0,164.0,165.0,175.0,178.0,179.0,183.0,187.0,190.0,195.0,200.0,207.0,213.0,219.0,225.0,230.0,234.0,241.0,246.0,250.0,255.0,256.0,259.0,258.0,263.0,262.0,262.0,263.0,263.0,264.0,266.0,263.0,263.0,263.0,259.0,260.0,259.0,262.0,263.0,264.0,264.0,260.0,260.0,262.0,260.0,260.0,260.0,260.0,257.0,254.0,251.0,247.0,241.0,236.0,233.0,227.0,223.0,217.0,212.0,208.0,202.0,198.0,195.0,189.0,187.0,184.0,179.0,175.0,171.0,169.0,164.0,160.0,157.0,152.0,148.0,143.0,139.0,133.0,130.0,128.0,125.0,119.0,117.0,112.0,110.0,105.0,104.0,99.0,96.0,92.0,88.0,86.0,81.0,80.0,77.0,75.0,72.0,69.0,67.0,65.0,66.0,63.0,60.0,58.0,57.0,56.0,54.0,53.0,52.0,53.0,52.0,52.0,52.0,50.0,50.0,51.0,50.0,51.0,52.0,51.0,52.0,51.0,52.0,51.0,51.0,52.0,53.0,55.0,53.0,52.0,53.0,54.0,54.0,53.0,54.0,52.0,53.0,54.0,53.0,53.0,55.0,56.0,58.0,58.0,58.0,58.0,59.0,59.0,60.0,60.0,60.0,60.0,60.0,59.0,62.0,61.0,64.0,64.0,64.0,66.0,65.0,66.0,65.0,66.0,67.0,66.0,66.0,66.0,67.0,67.0,65.0,64.0,64.0,65.0,64.0,64.0,64.0,68.0,70.0,74.0,79.0,82.0,84.0,90.0,89.0,88.0,84.0,84.0,83.0,82.0,82.0,82.0,82.0,78.0,75.0,75.0,74.0,72.0,71.0,69.0,69.0,67.0,66.0,64.0,65.0,64.0,63.0,64.0,63.0,63.0,62.0,62.0,61.0,61.0,62.0,60.0,59.0,59.0,59.0,57.0,58.0,59.0,60.0,59.0,60.0,61.0,60.0,61.0,63.0,62.0,61.0,62.0,62.0,62.0,63.0,61.0,61.0,63.0,62.0,62.0,61.0,62.0,61.0,62.0,60.0,59.0,60.0,59.0,57.0,57.0,57.0,58.0,58.0,60.0,60.0,62.0,61.0,62.0,60.0,59.0,60.0,60.0,60.0,59.0,60.0,60.0,58.0,59.0,59.0,57.0,58.0,56.0,57.0,55.0,55.0,56.0,55.0,57.0,55.0,56.0,54.0,55.0,56.0,56.0,55.0,53.0,54.0,53.0,52.0,52.0,52.0,53.0,52.0,53.0,51.0,50.0,51.0,51.0,52.0,52.0,52.0,53.0,52.0,52.0,54.0,51.0,52.0,51.0,53.0,50.0,51.0,50.0,49.0,49.0,49.0,49.0,48.0,48.0,48.0,48.0,47.0,47.0,46.0,46.0,44.0,44.0,44.0,45.0,45.0,47.0,47.0,44.0,46.0,45.0,44.0,46.0,47.0,47.0,47.0,46.0,45.0,44.0,45.0,47.0,47.0,47.0,46.0,47.0,46.0,46.0,46.0,47.0,47.0,46.0,47.0,46.0,46.0,47.0,49.0,51.0,49.0,49.0,48.0,48.0,50.0,49.0,48.0,48.0,47.0,47.0,48.0,50.0,50.0,50.0,49.0,49.0,49.0,48.0,49.0,51.0,50.0,50.0,48.0,48.0,49.0,50.0,49.0,51.0,51.0,50.0,50.0,50.0,50.0,50.0,49.0,51.0,50.0,49.0,50.0,50.0,51.0,51.0,52.0,53.0,52.0,53.0,52.0,54.0,54.0,55.0,56.0,56.0,57.0,56.0,56.0,57.0,56.0,58.0,57.0,56.0,55.0,54.0,54.0,53.0,56.0,57.0,58.0,58.0,58.0,57.0,56.0,55.0,56.0,54.0,54.0,54.0,52.0,51.0,51.0,50.0,49.0,50.0,54.0,56.0,58.0,59.0,62.0,62.0,62.0,63.0,63.0,63.0,61.0,61.0,59.0,60.0,61.0,61.0,60.0,59.0,59.0,58.0,56.0,57.0,57.0,58.0,56.0,55.0,54.0,52.0,53.0,52.0,51.0,52.0,49.0,51.0,48.0,48.0,49.0,50.0,51.0,52.0,55.0,54.0,53.0,56.0,55.0,55.0,57.0,56.0,55.0,54.0,52.0,53.0,53.0,54.0,53.0,54.0,52.0,52.0,51.0,52.0,52.0,53.0,54.0,54.0,54.0,54.0,53.0,53.0,53.0,54.0,54.0,54.0,54.0,54.0,54.0,52.0,54.0,53.0,52.0,51.0,50.0,49.0,49.0,49.0,49.0,48.0,50.0,51.0,51.0,51.0,52.0,53.0,52.0,52.0,53.0,53.0,52.0,52.0,53.0,52.0,50.0,51.0,50.0,52.0,53.0,52.0,54.0,52.0,53.0,54.0,54.0,57.0,55.0,57.0,56.0,55.0,54.0,53.0,54.0,53.0,55.0,52.0,52.0,53.0,54.0,53.0,53.0,53.0,52.0,50.0,50.0,52.0,53.0,53.0,55.0,55.0,55.0,58.0,58.0,57.0,59.0,59.0,60.0,60.0,61.0,60.0,60.0,59.0,59.0,58.0,56.0,58.0,58.0,59.0,59.0,58.0,59.0,57.0,55.0,56.0,54.0,55.0,55.0,56.0,55.0,56.0,57.0,54.0,54.0,54.0,55.0,56.0,56.0,55.0,55.0,53.0,53.0,53.0,53.0,52.0,51.0,51.0,51.0,51.0,51.0,52.0,52.0,52.0,52.0,51.0,50.0,50.0,49.0,51.0,52.0,52.0,52.0,54.0,56.0,56.0,57.0,55.0,56.0,57.0,58.0,57.0,56.0,58.0,58.0,58.0,59.0,60.0,61.0,61.0,62.0,62.0,62.0,63.0,63.0,64.0,65.0,65.0,66.0,64.0,63.0,64.0,62.0,63.0,61.0,61.0,60.0
41.0,41.0,39.0,39.0,39.0,39.0,41.0,42.0,42.0,40.0,41.0,40.0,40.0,40.0,39.0,41.0,40.0,38.0,39.0,38.0,38.0,41.0,41.0,41.0,40.0,40.0,39.0,41.0,41.0,41.0,41.0,40.0,42.0,42.0,43.0,44.0,44.0,44.0,42.0,43.0,41.0,40.0,41.0,43.0,43.0,42.0,43.0,43.0,41.0,43.0,45.0,45.0,44.0,43.0,45.0,43.0,43.0,43.0,41.0,41.0,39.0,40.0,39.0,41.0,41.0,39.0,40.0,39.0,41.0,40.0,41.0,41.0,44.0,45.0,44.0,43.0,42.0,42.0,44.0,43.0,43.0,44.0,42.0,42.0,43.0,43.0,41.0,42.0,42.0,42.0,44.0,46.0,44.0,52.0,56.0,66.0,64.0,80.0,85.0,97.0,120.0,159.0,193.0,217.0,235.0,265.0,298.0,378.0,365.0,428.0,421.0,449.0,480.0,518.0,542.0,563.0,624.0,631.0,650.0,669.0,668.0,669.0,668.0,669.0,668.0,669.0,669.0,669.0,668.0,668.0,668.0,669.0,668.0,668.0,669.0,668.0,669.0,668.0,668.0,669.0,669.0,668.0,668.0,668.0,668.0,669.0,669.0,669.0,669.0,669.0,668.0,668.0,669.0,669.0,669.0,669.0,668.0,668.0,655.0,634.0,618.0,606.0,591.0,565.0,552.0,538.0,524.0,511.0,496.0,486.0,474.0,466.0,456.0,444.0,441.0,431.0,426.0,423.0,415.0,406.0,406.0,397.0,401.0,392.0,389.0,385.0,385.0,377.0,382.0,377.0,371.0,375.0,369.0,362.0,357.0,355.0,351.0,343.0,341.0,334.0,332.0,329.0,326.0,322.0,314.0,311.0,309.0,303.0,299.0,295.0,286.0,284.0,277.0,274.0,272.0,264.0,261.0,259.0,261.0,255.0,247.0,249.0,247.0,242.0,237.0,237.0,231.0,229.0,228.0,221.0,221.0,217.0,217.0,215.0,211.0,212.0,207.0,207.0,206.0,206.0,202.0,200.0,198.0,194.0,195.0,193.0,188.0,189.0,184.0,191.0,186.0,185.0,183.0,187.0,188.0,184.0,181.0,182.0,180.0,176.0,175.0,175.0,173.0,171.0,177.0,172.0,167.0,166.0,167.0,163.0,166.0,160.0,161.0,158.0,160.0,156.0,159.0,155.0,155.0,157.0,153.0,155.0,157.0,149.0,156.0,154.0,150.0,149.0,151.0,149.0,152.0,152.0,149.0,150.0,141.0,144.0,141.0,145.0,146.0,141.0,139.0,138.0,140.0,140.0,140.0,139.0,138.0,140.0,142.0,142.0,138.0,137.0,137.0,134.0,138.0,131.0,129.0,126.0,129.0,126.0,128.0,126.0,127.0,128.0,134.0,131.0,123.0,122.0,117.0,116.0,108.0,101.0,101.0,95.0,88.0,86.0,80.0,78.0,77.0,80.0,85.0,90.0,94.0,98.0,106.0,112.0,124.0,135.0,144.0,156.0,166.0,185.0,196.0,210.0,226.0,241.0,258.0,271.0,283.0,294.0,304.0,314.0,322.0,329.0,338.0,345.0,352.0,358.0,363.0,367.0,378.0,381.0,389.0,396.0,404.0,408.0,412.0,416.0,419.0,418.0,419.0,420.0,420.0,422.0,421.0,423.0,423.0,422.0,420.0,419.0,417.0,418.0,420.0,419.0,419.0,421.0,422.0,421.0,421.0,421.0,417.0,416.0,414.0,411.0,407.0,408.0,408.0,407.0,401.0,399.0,394.0,392.0,389.0,387.0,384.0,382.0,380.0,376.0,373.0,369.0,366.0,365.0,360.0,360.0,358.0,352.0,349.0,350.0,348.0,344.0,338.0,336.0,334.0,334.0,331.0,328.0,321.0,321.0,319.0,316.0,314.0,309.0,307.0,306.0,299.0,298.0,296.0,293.0,291.0,286.0,284.0,282.0,278.0,275.0,271.0,269.0,265.0,263.0,260.0,256.0,255.0,251.0,251.0,247.0,244.0,243.0,240.0,239.0,240.0,237.0,237.0,236.0,234.0,232.0,230.0,226.0,225.0,223.0,219.0,216.0,213.0,210.0,206.0,204.0,204.0,203.0,201.0,202.0,198.0,200.0,199.0,198.0,199.0,196.0,194.0,192.0,188.0,188.0,189.0,187.0,187.0,183.0,184.0,184.0,181.0,182.0,180.0,177.0,178.0,177.0,172.0,173.0,173.0,172.0,170.0,169.0,167.0,165.0,164.0,161.0,163.0,163.0,161.0,159.0,158.0,157.0,156.0,154.0,154.0,151.0,151.0,147.0,147.0,146.0,145.0,144.0,141.0,143.0,141.0,140.0,138.0,137.0,136.0,137.0,136.0,135.0,135.0,134.0,136.0,136.0,135.0,135.0,137.0,136.0,136.0,134.0,134.0,134.0,132.0,133.0,132.0,130.0,129.0,128.0,123.0,123.0,124.0,122.0,118.0,120.0,119.0,121.0,122.0,122.0,122.0,122.0,121.0,121.0,121.0,121.0,120.0,121.0,117.0,119.0,118.0,121.0,122.0,123.0,123.0,122.0,121.0,120.0,118.0,118.0,116.0,114.0,113.0,112.0,113.0,111.0,108.0,108.0,105.0,106.0,106.0,107.0,106.0,107.0,106.0,106.0,106.0,106.0,106.0,105.0,104.0,103.0,103.0,101.0,99.0,98.0,97.0,98.0,97.0,97.0,97.0,94.0,95.0,94.0,93.0,93.0,93.0,91.0,94.0,94.0,96.0,94.0,95.0,94.0,95.0,96.0,93.0,94.0,93.0,93.0,92.0,89.0,91.0,90.0,88.0,88.0,88.0,88.0,86.0,87.0,87.0,87.0,89.0,89.0,88.0,88.0,87.0,85.0,81.0,82.0,79.0,81.0,81.0,81.0,81.0,77.0,80.0,80.0,80.0,80.0,80.0,79.0,77.0,74.0,76.0,75.0,73.0,74.0,75.0,73.0,71.0,75.0,73.0,72.0,71.0,71.0,69.0,71.0,71.0,72.0,74.0,73.0,73.0,73.0,73.0,75.0,76.0,75.0,77.0,77.0,77.0,77.0,79.0,80.0,80.0,80.0,79.0,80.0,79.0,76.0,79.0,79.0,79.0,78.0,79.0,79.0,77.0,76.0,77.0,77.0,76.0,75.0,77.0,78.0,79.0,78.0,79.0,79.0,78.0,78.0,78.0,77.0,76.0,78.0,76.0,76.0,75.0,73.0,75.0,75.0,75.0,76.0,76.0,75.0,73.0,74.0,75.0,74.0,74.0,72.0,73.0,75.0,76.0,76.0,76.0,75.0,77.0,77.0,77.0,77.0,78.0,77.0,76.0,75.0,76.0,77.0,77.0,76.0,74.0,72.0,73.0,70.0,72.0,72.0,70.0,71.0,69.0,69.0,71.0,71.0,72.0,68.0,68.0,67.0,67.0,64.0,65.0,65.0,64.0,61.0,61.0,59.0,57.0,57.0,57.0,55.0,56.0,55.0,56.0,54.0,53.0,53.0,54.0,53.0,52.0,52.0,50.0,49.0,52.0,51.0,50.0,50.0,49.0,47.0,47.0,46.0,47.0,46.0,48.0,48.0,47.0,46.0,46.0,45.0,44.0,44.0,46.0,47.0,47.0,46.0,45.0,45.0,44.0,43.0,42.0,43.0,43.0,43.0,45.0,44.0,43.0,46.0,45.0,44.0,41.0,42.0,42.0,42.0,42.0,41.0,42.0,41.0,41.0,41.0,42.0,42.0,42.0,43.0,41.0,43.0,43.0,42.0,41.0,41.0,39.0,39.0,41.0,40.0,40.0,39.0,40.0,41.0,41.0,41.0,42.0,40.0,42.0,43.0,43.0,45.0,43.0,43.0,45.0,45.0,44.0,42.0,41.0,43.0,43.0,43.0,44.0,44.0,43.0,43.0,42.0,43.0,47.0,45.0,45.0,47.0,45.0,46.0,49.0,48.0,46.0,46.0,45.0,43.0,44.0,43.0,44.0,44.0,42.0,42.0,42.0,43.0,42.0,43.0,43.0,43.0,43.0,42.0,45.0,45.0,45.0,47.0,45.0,45.0,43.0,45.0,45.0,44.0,46.0,46.0,46.0,45.0,46.0,44.0,45.0,45.0,45.0,45.0,46.0,47.0,48.0,48.0,47.0,48.0,50.0,50.0,48.0,50.0,48.0,47.0,46.0,46.0,46.0,45.0,46.0,45.0,45.0,47.0,44.0,48.0,46.0,46.0,46.0,46.0,46.0,43.0,43.0,43.0,45.0,44.0,44.0,44.0,45.0,43.0,43.0,43.0,45.0,45.0,45.0,49.0,47.0,49.0,48.0,50.0,51.0,52.0,53.0,54.0,52.0,52.0,51.0,51.0
19.0,19.0,18.0,15.0,21.0,21.0,35.0,40.0,35.0,31.0,28.0,25.0,23.0,26.0,25.0,27.0,28.0,26.0,31.0,32.0,27.0,34.0,30.0,30.0,26.0,23.0,25.0,29.0,39.0,38.0,37.0,33.0,31.0,29.0,35.0,34.0,30.0,29.0,27.0,24.0,22.0,22.0,25.0,25.0,23.0,24.0,21.0,21.0,21.0,30.0,28.0,29.0,25.0,23.0,29.0,30.0,26.0,25.0,26.0,23.0,25.0,23.0,24.0,24.0,23.0,20.0,18.0,16.0,15.0,15.0,14.0,13.0,27.0,27.0,26.0,27.0,25.0,27.0,25.0,25.0,27.0,30.0,26.0,25.0,31.0,30.0,33.0,36.0,35.0,39.0,41.0,39.0,39.0,36.0,34.0,35.0,43.0,46.0,49.0,50.0,73.0,86.0,123.0,133.0,128.0,145.0,163.0,196.0,251.0,245.0,238.0,242.0,243.0,254.0,248.0,266.0,270.0,350.0,377.0,389.0,361.0,348.0,325.0,356.0,348.0,312.0,293.0,292.0,342.0,337.0,356.0,327.0,331.0,294.0,274.0,325.0,356.0,346.0,324.0,344.0,344.0,344.0,324.0,323.0,370.0,361.0,382.0,354.0,360.0,411.0,419.0,438.0,400.0,400.0,383.0,358.0,333.0,317.0,304.0,301.0,316.0,367.0,408.0,400.0,471.0,425.0,422.0,432.0,483.0,436.0,426.0,414.0,391.0,365.0,404.0,415.0,372.0,381.0,384.0,346.0,346.0,329.0,321.0,307.0,281.0,285.0,272.0,267.0,243.0,253.0,243.0,248.0,241.0,225.0,225.0,212.0,200.0,212.0,215.0,209.0,186.0,174.0,183.0,181.0,184.0,164.0,186.0,191.0,193.0,222.0,208.0,198.0,195.0,191.0,178.0,168.0,184.0,189.0,192.0,195.0,185.0,180.0,188.0,200.0,198.0,232.0,221.0,210.0,189.0,184.0,180.0,162.0,157.0,145.0,160.0,149.0,151.0,156.0,147.0,135.0,143.0,143.0,141.0,138.0,138.0,141.0,138.0,157.0,172.0,160.0,181.0,192.0,174.0,260.0,238.0,235.0,270.0,270.0,319.0,303.0,273.0,257.0,283.0,266.0,261.0,242.0,225.0,215.0,241.0,247.0,239.0,224.0,223.0,211.0,198.0,196.0,179.0,170.0,179.0,177.0,170.0,176.0,168.0,171.0,204.0,193.0,193.0,186.0,174.0,154.0,147.0,137.0,134.0,151.0,154.0,152.0,140.0,145.0,145.0,149.0,141.0,134.0,119.0,108.0,116.0,114.0,102.0,98.0,109.0,109.0,110.0,103.0,103.0,106.0,121.0,133.0,126.0,117.0,109.0,112.0,137.0,129.0,120.0,110.0,110.0,116.0,130.0,122.0,113.0,116.0,127.0,121.0,116.0,131.0,124.0,134.0,128.0,127.0,133.0,142.0,133.0,134.0,135.0,131.0,141.0,162.0,151.0,167.0,178.0,172.0,181.0,180.0,177.0,172.0,168.0,169.0,169.0,182.0,169.0,158.0,161.0,148.0,150.0,144.0,146.0,144.0,135.0,131.0,128.0,126.0,120.0,109.0,116.0,113.0,104.0,100.0,105.0,112.0,115.0,110.0,108.0,107.0,93.0,94.0,103.0,100.0,102.0,98.0,93.0,92.0,88.0,85.0,75.0,75.0,83.0,89.0,97.0,87.0,83.0,78.0,71.0,73.0,67.0,65.0,71.0,75.0,71.0,64.0,68.0,64.0,63.0,61.0,58.0,58.0,61.0,60.0,54.0,60.0,66.0,60.0,58.0,61.0,63.0,61.0,55.0,53.0,59.0,66.0,57.0,50.0,48.0,45.0,50.0,44.0,40.0,40.0,53.0,48.0,47.0,50.0,44.0,42.0,39.0,36.0,39.0,51.0,50.0,44.0,41.0,37.0,43.0,43.0,54.0,55.0,50.0,50.0,43.0,48.0,44.0,49.0,53.0,47.0,42.0,49.0,52.0,49.0,48.0,57.0,50.0,47.0,47.0,47.0,41.0,45.0,40.0,56.0,48.0,48.0,65.0,56.0,54.0,58.0,67.0,67.0,68.0,63.0,55.0,50.0,48.0,47.0,53.0,51.0,47.0,45.0,41.0,39.0,51.0,46.0,41.0,46.0,44.0,43.0,45.0,45.0,41.0,38.0,33.0,42.0,41.0,37.0,56.0,57.0,50.0,44.0,45.0,45.0,41.0,38.0,41.0,60.0,56.0,54.0,49.0,53.0,47.0,43.0,40.0,49.0,56.0,50.0,44.0,47.0,55.0,51.0,55.0,53.0,54.0,48.0,41.0,37.0,47.0,44.0,44.0,42.0,40.0,38.0,35.0,35.0,37.0,35.0,39.0,48.0,46.0,44.0,37.0,47.0,45.0,49.0,48.0,51.0,46.0,45.0,42.0,40.0,50.0,50.0,46.0,42.0,54.0,55.0,59.0,55.0,50.0,52.0,48.0,45.0,40.0,39.0,38.0,37.0,35.0,31.0,37.0,43.0,47.0,45.0,40.0,38.0,50.0,44.0,40.0,39.0,36.0,35.0,32.0,36.0,31.0,35.0,31.0,28.0,25.0,27.0,34.0,31.0,38.0,33.0,36.0,32.0,36.0,35.0,45.0,41.0,41.0,36.0,32.0,32.0,30.0,38.0,45.0,41.0,45.0,44.0,40.0,36.0,36.0,45.0,40.0,37.0,38.0,36.0,34.0,34.0,31.0,30.0,30.0,36.0,35.0,45.0,45.0,43.0,39.0,39.0,40.0,35.0,36.0,45.0,46.0,41.0,42.0,37.0,34.0,31.0,30.0,27.0,31.0,40.0,35.0,33.0,30.0,26.0,24.0,21.0,35.0,32.0,36.0,32.0,28.0,24.0,23.0,39.0,43.0,45.0,44.0,37.0,35.0,32.0,34.0,40.0,45.0,41.0,45.0,40.0,34.0,39.0,39.0,35.0,32.0,32.0,35.0,37.0,33.0,35.0,33.0,31.0,28.0,27.0,26.0,31.0,32.0,29.0,28.0,26.0,24.0,22.0,27.0,30.0,31.0,27.0,26.0,22.0,23.0,21.0,28.0,37.0,37.0,34.0,34.0,32.0,30.0,39.0,35.0,33.0,39.0,39.0,46.0,45.0,44.0,41.0,36.0,42.0,37.0,36.0,33.0,32.0,33.0,30.0,30.0,27.0,23.0,21.0,28.0,29.0,30.0,30.0,32.0,27.0,24.0,31.0,35.0,35.0,31.0,33.0,31.0,34.0,34.0,30.0,34.0,33.0,31.0,34.0,37.0,33.0,35.0,32.0,37.0,34.0,29.0,36.0,40.0,38.0,34.0,30.0,31.0,29.0,26.0,39.0,37.0,33.0,34.0,30.0,31.0,41.0,38.0,35.0,31.0,33.0,29.0,29.0,27.0,37.0,41.0,42.0,37.0,40.0,36.0,32.0,39.0,37.0,33.0,48.0,45.0,40.0,36.0,36.0,42.0,47.0,47.0,49.0,49.0,44.0,40.0,44.0,45.0,45.0,51.0,49.0,47.0,40.0,37.0,40.0,47.0,55.0,49.0,43.0,49.0,42.0,46.0,40.0,38.0,50.0,47.0,50.0,50.0,44.0,41.0,38.0,38.0,33.0,34.0,38.0,44.0,44.0,42.0,43.0,41.0,45.0,42.0,40.0,41.0,39.0,39.0,41.0,39.0,34.0,30.0,32.0,30.0,40.0,42.0,41.0,37.0,44.0,45.0,43.0,38.0,36.0,33.0,33.0,32.0,30.0,32.0,34.0,31.0,31.0,32.0,35.0,30.0,39.0,41.0,35.0,38.0,37.0,38.0,40.0,37.0,46.0,47.0,47.0,45.0,43.0,38.0,51.0,48.0,48.0,53.0,52.0,50.0,50.0,49.0,51.0,48.0,46.0,51.0,47.0,43.0,44.0,44.0,39.0,52.0,48.0,45.0,42.0,40.0,39.0,42.0,38.0,36.0,35.0,31.0,40.0,37.0,34.0,31.0,35.0,40.0,38.0,49.0,44.0,42.0,43.0,40.0,37.0,33.0,42.0,42.0,37.0,39.0,37.0,34.0,36.0,34.0,32.0,28.0,27.0,29.0,32.0,36.0,35.0,40.0,38.0,35.0,31.0,35.0,32.0,31.0,31.0,32.0,29.0,26.0,30.0,35.0,37.0,43.0,38.0,34.0,32.0,29.0,50.0,47.0,46.0,42.0,47.0,43.0,39.0,34.0,36.0,36.0,34.0,34.0,35.0,31.0,28.0,25.0,24.0,28.0,26.0,23.0,27.0,26.0,25.0,24.0,21.0,18.0,31.0,34.0,35.0,32.0,30.0,29.0,24.0
42.0,40.0,40.0,39.0,43.0,41.0,42.0,44.0,45.0,44.0,47.0,45.0,45.0,46.0,48.0,52.0,51.0,49.0,51.0,48.0,46.0,48.0,49.0,46.0,46.0,43.0,43.0,45.0,45.0,49.0,49.0,54.0,52.0,51.0,52.0,53.0,50.0,51.0,52.0,50.0,49.0,46.0,44.0,43.0,44.0,44.0,45.0,46.0,45.0,46.0,47.0,47.0,46.0,49.0,49.0,48.0,48.0,47.0,45.0,45.0,46.0,46.0,43.0,44.0,46.0,47.0,46.0,44.0,43.0,40.0,40.0,39.0,41.0,43.0,42.0,42.0,41.0,42.0,46.0,52.0,52.0,51.0,50.0,48.0,47.0,48.0,45.0,49.0,49.0,50.0,50.0,52.0,53.0,49.0,50.0,59.0,55.0,61.0,56.0,59.0,65.0,90.0,129.0,147.0,155.0,184.0,201.0,208.0,214.0,203.0,197.0,187.0,187.0,182.0,211.0,205.0,212.0,242.0,254.0,235.0,215.0,198.0,186.0,181.0,167.0,160.0,154.0,143.0,152.0,143.0,143.0,153.0,152.0,149.0,156.0,155.0,164.0,153.0,161.0,154.0,147.0,155.0,149.0,170.0,178.0,173.0,185.0,183.0,181.0,188.0,188.0,185.0,188.0,185.0,196.0,182.0,165.0,154.0,153.0,158.0,160.0,189.0,188.0,181.0,190.0,204.0,226.0,233.0,231.0,214.0,230.0,216.0,204.0,186.0,197.0,185.0,176.0,168.0,166.0,153.0,148.0,154.0,159.0,150.0,139.0,134.0,131.0,141.0,132.0,140.0,138.0,134.0,134.0,126.0,123.0,129.0,131.0,130.0,128.0,120.0,114.0,104.0,104.0,104.0,96.0,109.0,116.0,120.0,130.0,148.0,140.0,127.0,124.0,123.0,115.0,107.0,105.0,113.0,107.0,102.0,100.0,100.0,106.0,111.0,116.0,116.0,110.0,106.0,102.0,100.0,99.0,93.0,92.0,93.0,93.0,89.0,86.0,94.0,101.0,104.0,104.0,102.0,102.0,97.0,94.0,97.0,97.0,106.0,101.0,99.0,107.0,110.0,106.0,151.0,143.0,138.0,154.0,152.0,154.0,147.0,146.0,144.0,151.0,147.0,151.0,147.0,153.0,144.0,152.0,154.0,142.0,146.0,134.0,139.0,133.0,133.0,127.0,126.0,122.0,114.0,112.0,107.0,105.0,112.0,116.0,114.0,122.0,146.0,140.0,130.0,125.0,114.0,113.0,120.0,115.0,116.0,112.0,111.0,111.0,116.0,116.0,116.0,125.0,123.0,117.0,117.0,116.0,152.0,140.0,153.0,164.0,171.0,164.0,159.0,155.0,155.0,141.0,130.0,124.0,119.0,113.0,123.0,116.0,107.0,108.0,111.0,109.0,117.0,116.0,124.0,123.0,115.0,116.0,111.0,106.0,102.0,104.0,101.0,115.0,110.0,116.0,114.0,112.0,114.0,134.0,132.0,127.0,123.0,135.0,134.0,139.0,144.0,153.0,167.0,174.0,177.0,171.0,186.0,185.0,179.0,184.0,185.0,186.0,193.0,201.0,208.0,219.0,222.0,218.0,207.0,219.0,221.0,230.0,243.0,246.0,231.0,233.0,237.0,233.0,248.0,252.0,262.0,252.0,264.0,260.0,261.0,262.0,274.0,253.0,271.0,262.0,264.0,273.0,271.0,270.0,266.0,261.0,263.0,265.0,270.0,260.0,273.0,280.0,271.0,261.0,266.0,267.0,259.0,254.0,262.0,256.0,261.0,262.0,253.0,249.0,253.0,249.0,242.0,252.0,243.0,243.0,244.0,243.0,251.0,251.0,239.0,227.0,248.0,253.0,238.0,232.0,226.0,244.0,243.0,233.0,219.0,212.0,207.0,214.0,211.0,207.0,203.0,200.0,194.0,181.0,171.0,164.0,154.0,152.0,152.0,149.0,149.0,147.0,145.0,139.0,144.0,135.0,133.0,131.0,130.0,129.0,136.0,132.0,133.0,129.0,124.0,126.0,125.0,124.0,126.0,128.0,130.0,125.0,121.0,124.0,125.0,119.0,120.0,118.0,112.0,110.0,114.0,115.0,111.0,107.0,104.0,103.0,115.0,114.0,126.0,119.0,112.0,107.0,109.0,105.0,105.0,109.0,106.0,110.0,109.0,102.0,102.0,102.0,99.0,95.0,95.0,90.0,86.0,92.0,100.0,106.0,112.0,113.0,109.0,112.0,123.0,126.0,119.0,115.0,112.0,111.0,125.0,122.0,135.0,131.0,121.0,115.0,120.0,122.0,122.0,116.0,112.0,107.0,104.0,106.0,104.0,100.0,100.0,97.0,94.0,86.0,85.0,78.0,73.0,71.0,73.0,80.0,76.0,75.0,69.0,66.0,65.0,64.0,67.0,71.0,72.0,72.0,76.0,75.0,74.0,70.0,76.0,75.0,69.0,70.0,73.0,79.0,72.0,80.0,86.0,85.0,86.0,89.0,91.0,84.0,90.0,88.0,85.0,83.0,80.0,74.0,71.0,80.0,77.0,77.0,74.0,72.0,70.0,66.0,61.0,58.0,58.0,59.0,71.0,71.0,69.0,66.0,63.0,59.0,55.0,54.0,56.0,58.0,58.0,60.0,56.0,53.0,51.0,50.0,51.0,54.0,55.0,52.0,51.0,48.0,51.0,50.0,51.0,52.0,55.0,55.0,54.0,53.0,53.0,53.0,53.0,53.0,54.0,57.0,55.0,55.0,57.0,55.0,53.0,57.0,56.0,56.0,56.0,54.0,53.0,53.0,54.0,55.0,54.0,52.0,55.0,61.0,58.0,62.0,64.0,63.0,59.0,54.0,53.0,57.0,59.0,62.0,59.0,57.0,53.0,55.0,53.0,57.0,60.0,60.0,59.0,57.0,53.0,51.0,55.0,59.0,59.0,56.0,57.0,56.0,54.0,53.0,51.0,53.0,50.0,53.0,57.0,55.0,54.0,52.0,55.0,57.0,56.0,54.0,56.0,52.0,57.0,58.0,62.0,63.0,60.0,58.0,56.0,57.0,61.0,58.0,56.0,54.0,53.0,52.0,53.0,54.0,54.0,51.0,50.0,54.0,53.0,52.0,53.0,53.0,53.0,50.0,49.0,50.0,58.0,59.0,56.0,54.0,53.0,50.0,52.0,51.0,50.0,48.0,52.0,51.0,50.0,52.0,51.0,56.0,58.0,63.0,61.0,61.0,59.0,58.0,55.0,58.0,57.0,62.0,59.0,60.0,61.0,60.0,58.0,57.0,54.0,53.0,53.0,55.0,52.0,51.0,49.0,48.0,54.0,56.0,52.0,53.0,48.0,50.0,47.0,47.0,52.0,53.0,53.0,50.0,49.0,48.0,47.0,48.0,51.0,55.0,55.0,52.0,49.0,46.0,50.0,54.0,60.0,57.0,55.0,52.0,50.0,48.0,50.0,52.0,54.0,52.0,53.0,57.0,53.0,53.0,50.0,49.0,48.0,48.0,48.0,48.0,46.0,44.0,45.0,50.0,54.0,58.0,56.0,53.0,52.0,59.0,60.0,58.0,61.0,58.0,59.0,57.0,57.0,57.0,55.0,58.0,57.0,57.0,55.0,53.0,56.0,52.0,53.0,55.0,56.0,54.0,53.0,56.0,54.0,54.0,56.0,56.0,56.0,61.0,63.0,67.0,66.0,65.0,71.0,69.0,67.0,68.0,71.0,68.0,68.0,67.0,66.0,63.0,57.0,61.0,62.0,63.0,62.0,61.0,62.0,65.0,67.0,74.0,68.0,68.0,70.0,73.0,71.0,72.0,69.0,68.0,66.0,65.0,63.0,62.0,61.0,64.0,61.0,62.0,61.0,65.0,66.0,63.0,64.0,63.0,62.0,61.0,59.0,58.0,57.0,62.0,59.0,60.0,63.0,61.0,62.0,65.0,63.0,66.0,65.0,66.0,66.0,62.0,61.0,61.0,61.0,64.0,63.0,61.0,59.0,60.0,57.0,58.0,54.0,54.0,54.0,55.0,57.0,57.0,55.0,54.0,54.0,56.0,54.0,53.0,53.0,57.0,56.0,56.0,58.0,54.0,53.0,54.0,52.0,53.0,55.0,56.0,55.0,59.0,59.0,55.0,57.0,58.0,54.0,52.0,54.0,54.0,53.0,55.0,56.0,54.0,54.0,51.0,51.0,48.0,47.0,52.0,50.0,51.0,52.0,51.0,52.0,51.0,51.0,48.0,51.0,50.0,50.0,50.0,49.0,50.0,48.0,47.0,47.0,48.0,50.0,49.0,48.0,51.0,54.0,52.0,51.0,53.0,51.0,53.0,58.0,52.0,55.0,53.0,51.0,50.0,49.0,53.0,54.0,58.0,54.0,55.0,54.0
