667.0,670.0,668.0,668.0,668.0,669.0,668.0,667.0,668.0,668.0,668.0,668.0,668.0,668.0,668.0,667.0,668.0,668.0,669.0,668.0,668.0,668.0,667.0,666.0,667.0,666.0,666.0,668.0,667.0,668.0,667.0,665.0,656.0,649.0,642.0,633.0,625.0,619.0,612.0,604.0,597.0,589.0,584.0,579.0,571.0,565.0,561.0,556.0,550.0,547.0,540.0,535.0,529.0,524.0,518.0,512.0,506.0,500.0,495.0,488.0,485.0,479.0,471.0,467.0,459.0,453.0,449.0,444.0,440.0,437.0,433.0,431.0,425.0,422.0,420.0,417.0,413.0,409.0,406.0,401.0,397.0,392.0,389.0,384.0,380.0,378.0,375.0,370.0,367.0,363.0,359.0,355.0,351.0,347.0,342.0,340.0,338.0,336.0,334.0,330.0,328.0,323.0,322.0,317.0,315.0,314.0,313.0,311.0,308.0,304.0,300.0,298.0,294.0,292.0,290.0,288.0,286.0,283.0,281.0,280.0,279.0,276.0,276.0,274.0,271.0,268.0,266.0,265.0,264.0,265.0,259.0,256.0,253.0,251.0,247.0,245.0,244.0,240.0,237.0,235.0,232.0,230.0,228.0,225.0,225.0,224.0,225.0,221.0,219.0,216.0,212.0,211.0,208.0,207.0,204.0,201.0,200.0,199.0,199.0,198.0,196.0,195.0,193.0,193.0,191.0,191.0,191.0,188.0,186.0,185.0,183.0,181.0,179.0,180.0,178.0,179.0,177.0,176.0,175.0,173.0,172.0,172.0,172.0,171.0,170.0,170.0,169.0,168.0,167.0,164.0,164.0,162.0,161.0,160.0,160.0,159.0,157.0,158.0,154.0,154.0,152.0,151.0,152.0,151.0,152.0,152.0,153.0,152.0,153.0,153.0,151.0,151.0,152.0,151.0,148.0,150.0,152.0,151.0,150.0,149.0,148.0,147.0,148.0,145.0,145.0,143.0,141.0,142.0,139.0,141.0,139.0,139.0,136.0,134.0,135.0,135.0,135.0,135.0,136.0,134.0,135.0,136.0,135.0,134.0,135.0,137.0,136.0,135.0,135.0,130.0,131.0,130.0,129.0,129.0,128.0,127.0,128.0,126.0,125.0,125.0,123.0,121.0,119.0,118.0,118.0,117.0,116.0,116.0,114.0,115.0,114.0,114.0,114.0,113.0,111.0,113.0,112.0,113.0,112.0,112.0,112.0,111.0,112.0,112.0,111.0,112.0,114.0,115.0,114.0,114.0,115.0,114.0,116.0,114.0,114.0,112.0,113.0,116.0,112.0,112.0,110.0,110.0,108.0,106.0,104.0,96.0,91.0,96.0,106.0,103.0,116.0,112.0,114.0,128.0,141.0,147.0,163.0,166.0,165.0,157.0,153.0,146.0,146.0,145.0,140.0,140.0,138.0,145.0,143.0,141.0,138.0,137.0,133.0,125.0,126.0,116.0,109.0,106.0,106.0,102.0,104.0,101.0,101.0,99.0,95.0,95.0,93.0,91.0,87.0,83.0,81.0,84.0,83.0,85.0,82.0,80.0,79.0,77.0,81.0,77.0,75.0,74.0,74.0,73.0,79.0,80.0,80.0,80.0,78.0,79.0,81.0,78.0,76.0,75.0,77.0,81.0,79.0,80.0,76.0,75.0,80.0,77.0,80.0,81.0,87.0,86.0,87.0,87.0,90.0,91.0,91.0,93.0,95.0,95.0,96.0,97.0,96.0,96.0,98.0,100.0,98.0,99.0,102.0,104.0,102.0,106.0,107.0,106.0,111.0,110.0,111.0,112.0,114.0,117.0,118.0,118.0,119.0,121.0,121.0,127.0,129.0,132.0,130.0,133.0,133.0,133.0,132.0,134.0,133.0,132.0,133.0,134.0,134.0,136.0,136.0,140.0,135.0,137.0,139.0,139.0,138.0,137.0,136.0,137.0,135.0,138.0,139.0,138.0,139.0,139.0,140.0,141.0,140.0,141.0,141.0,141.0,143.0,139.0,140.0,139.0,138.0,136.0,137.0,136.0,136.0,134.0,134.0,134.0,136.0,136.0,136.0,139.0,135.0,136.0,136.0,135.0,134.0,135.0,136.0,135.0,135.0,134.0,132.0,131.0,130.0,125.0,127.0,125.0,121.0,122.0,122.0,124.0,123.0,125.0,124.0,122.0,125.0,123.0,123.0,126.0,127.0,126.0,124.0,123.0,122.0,122.0,122.0,117.0,117.0,115.0,112.0,114.0,112.0,110.0,109.0,108.0,106.0,106.0,108.0,107.0,104.0,105.0,103.0,105.0,107.0,106.0,107.0,105.0,106.0,105.0,107.0,108.0,107.0,108.0,107.0,110.0,105.0,108.0,106.0,106.0,107.0,107.0,106.0,105.0,108.0,107.0,107.0,105.0,104.0,105.0,106.0,105.0,105.0,103.0,104.0,102.0,102.0,100.0,99.0,99.0,97.0,96.0,95.0,93.0,93.0,93.0,97.0,101.0,105.0,109.0,108.0,110.0,116.0,122.0,124.0,133.0,137.0,138.0,145.0,151.0,156.0,163.0,167.0,170.0,177.0,183.0,185.0,188.0,195.0,197.0,202.0,204.0,207.0,211.0,212.0,213.0,214.0,214.0,211.0,214.0,212.0,211.0,208.0,209.0,206.0,204.0,205.0,201.0,198.0,196.0,193.0,190.0,189.0,186.0,183.0,181.0,178.0,176.0,171.0,167.0,163.0,160.0,155.0,153.0,149.0,148.0,145.0,143.0,141.0,139.0,138.0,136.0,135.0,132.0,130.0,128.0,124.0,123.0,119.0,116.0,113.0,109.0,107.0,105.0,104.0,103.0,101.0,101.0,99.0,100.0,98.0,95.0,95.0,94.0,92.0,88.0,87.0,87.0,85.0,84.0,81.0,81.0,78.0,78.0,77.0,75.0,75.0,74.0,73.0,73.0,74.0,73.0,70.0,70.0,70.0,69.0,69.0,68.0,69.0,68.0,69.0,68.0,67.0,68.0,65.0,66.0,66.0,64.0,65.0,64.0,66.0,65.0,62.0,63.0,60.0,61.0,58.0,60.0,60.0,58.0,58.0,57.0,57.0,55.0,54.0,54.0,54.0,53.0,52.0,51.0,51.0,49.0,50.0,50.0,48.0,48.0,48.0,48.0,48.0,47.0,49.0,48.0,47.0,48.0,47.0,46.0,47.0,47.0,48.0,48.0,48.0,49.0,51.0,52.0,54.0,55.0,54.0,54.0,54.0,54.0,53.0,54.0,54.0,54.0,55.0,53.0,54.0,55.0,53.0,56.0,54.0,53.0,54.0,53.0,53.0,53.0,53.0,52.0,51.0,53.0,53.0,54.0,53.0,54.0,54.0,53.0,54.0,55.0,53.0,54.0,53.0,53.0,54.0,53.0,53.0,52.0,52.0,52.0,53.0,52.0,52.0,51.0,51.0,52.0,51.0,51.0,50.0,50.0,49.0,48.0,50.0,50.0,51.0,52.0,51.0,51.0,51.0,50.0,50.0,49.0,49.0,50.0,50.0,49.0,49.0,49.0,49.0,49.0,47.0,47.0,49.0,50.0,50.0,51.0,51.0,50.0,50.0,49.0,48.0,48.0,48.0,49.0,50.0,48.0,49.0,49.0,49.0,50.0,47.0,49.0,48.0,47.0,48.0,49.0,49.0,48.0,51.0,50.0,50.0,50.0,51.0,52.0,53.0,55.0,56.0,53.0,54.0,53.0,53.0,53.0,52.0,52.0,50.0,50.0,51.0,52.0,52.0,50.0,52.0,50.0,51.0,52.0,53.0,54.0,53.0,52.0,52.0,51.0,51.0,51.0,51.0,50.0,51.0,50.0,48.0,49.0,48.0,48.0,48.0,48.0,49.0,48.0,48.0,48.0,49.0,49.0,49.0,49.0,49.0,48.0,48.0,48.0,49.0,49.0,47.0,48.0,46.0,47.0,47.0,50.0,49.0,49.0,52.0,50.0,51.0,52.0,51.0,51.0,49.0,51.0,51.0,51.0,52.0,51.0,54.0,56.0,57.0,57.0,56.0,59.0,58.0,58.0,59.0,59.0,61.0,60.0,59.0,59.0,59.0,60.0,59.0,59.0,58.0,57.0,58.0,57.0,56.0,56.0,55.0,55.0,55.0,56.0,56.0,54.0,53.0,53.0,53.0,52.0,53.0,55.0,55.0,54.0,55.0,56.0,55.0,55.0,54.0,53.0,53.0,53.0,54.0,52.0,51.0,50.0,50.0,50.0,53.0,52.0,52.0,52.0,51.0,50.0,50.0,50.0,51.0,53.0,52.0,52.0,51.0,51.0,52.0,51.0,51.0,50.0,50.0,50.0,50.0,49.0,49.0,49.0,50.0,50.0,49.0,48.0,48.0,48.0,48.0,49.0,48.0,48.0
43.0,44.0,43.0,42.0,43.0,43.0,42.0,43.0,42.0,42.0,42.0,42.0,44.0,42.0,41.0,41.0,41.0,40.0,43.0,44.0,45.0,46.0,43.0,44.0,44.0,43.0,44.0,45.0,43.0,42.0,41.0,42.0,41.0,45.0,46.0,45.0,47.0,48.0,48.0,48.0,48.0,48.0,47.0,46.0,47.0,49.0,45.0,47.0,45.0,43.0,43.0,43.0,43.0,44.0,42.0,45.0,45.0,46.0,46.0,46.0,47.0,46.0,49.0,47.0,48.0,49.0,47.0,47.0,46.0,45.0,47.0,45.0,45.0,44.0,44.0,45.0,45.0,44.0,42.0,42.0,41.0,40.0,41.0,40.0,42.0,42.0,42.0,44.0,43.0,43.0,44.0,47.0,45.0,45.0,46.0,45.0,48.0,46.0,46.0,47.0,46.0,49.0,49.0,50.0,51.0,50.0,50.0,50.0,50.0,51.0,53.0,54.0,54.0,54.0,55.0,54.0,54.0,53.0,55.0,53.0,51.0,52.0,50.0,48.0,49.0,50.0,50.0,50.0,49.0,48.0,49.0,47.0,47.0,49.0,50.0,49.0,50.0,50.0,51.0,51.0,52.0,50.0,50.0,51.0,51.0,51.0,50.0,50.0,51.0,52.0,53.0,53.0,52.0,53.0,52.0,53.0,54.0,52.0,52.0,50.0,51.0,51.0,51.0,48.0,53.0,50.0,48.0,49.0,48.0,49.0,48.0,51.0,49.0,48.0,48.0,47.0,48.0,51.0,51.0,49.0,50.0,49.0,50.0,49.0,51.0,50.0,49.0,51.0,50.0,51.0,50.0,50.0,50.0,51.0,49.0,49.0,49.0,47.0,49.0,47.0,46.0,47.0,49.0,48.0,47.0,47.0,46.0,46.0,46.0,44.0,43.0,44.0,44.0,44.0,46.0,46.0,45.0,43.0,43.0,43.0,46.0,48.0,48.0,48.0,47.0,48.0,47.0,47.0,48.0,47.0,48.0,46.0,45.0,45.0,45.0,44.0,42.0,42.0,42.0,41.0,42.0,41.0,42.0,42.0,45.0,43.0,43.0,42.0,41.0,46.0,45.0,43.0,45.0,43.0,42.0,43.0,41.0,44.0,44.0,44.0,42.0,42.0,44.0,47.0,45.0,44.0,44.0,41.0,42.0,42.0,43.0,42.0,40.0,40.0,41.0,40.0,40.0,41.0,42.0,40.0,39.0,39.0,41.0,43.0,44.0,46.0,45.0,43.0,42.0,43.0,44.0,44.0,42.0,42.0,41.0,45.0,43.0,43.0,43.0,44.0,45.0,44.0,44.0,45.0,47.0,58.0,77.0,82.0,88.0,90.0,107.0,115.0,133.0,147.0,154.0,176.0,182.0,176.0,194.0,203.0,210.0,236.0,252.0,280.0,293.0,303.0,339.0,376.0,386.0,406.0,437.0,482.0,492.0,521.0,543.0,570.0,594.0,607.0,624.0,642.0,645.0,645.0,652.0,648.0,647.0,642.0,644.0,632.0,622.0,617.0,607.0,601.0,590.0,588.0,576.0,566.0,559.0,549.0,538.0,524.0,513.0,509.0,494.0,482.0,470.0,466.0,451.0,438.0,430.0,417.0,411.0,397.0,385.0,378.0,370.0,362.0,348.0,339.0,334.0,327.0,315.0,314.0,302.0,296.0,287.0,280.0,269.0,271.0,261.0,254.0,251.0,241.0,240.0,232.0,226.0,223.0,216.0,211.0,207.0,210.0,206.0,201.0,196.0,196.0,198.0,193.0,191.0,191.0,185.0,184.0,181.0,180.0,176.0,173.0,169.0,170.0,165.0,164.0,167.0,160.0,158.0,152.0,154.0,149.0,147.0,143.0,147.0,140.0,137.0,132.0,135.0,131.0,131.0,126.0,127.0,123.0,126.0,120.0,116.0,115.0,110.0,110.0,112.0,107.0,106.0,108.0,104.0,100.0,99.0,106.0,100.0,97.0,101.0,102.0,98.0,94.0,96.0,97.0,100.0,98.0,96.0,100.0,96.0,99.0,95.0,95.0,98.0,96.0,96.0,93.0,93.0,90.0,97.0,92.0,91.0,94.0,93.0,94.0,93.0,97.0,92.0,96.0,96.0,98.0,98.0,100.0,99.0,96.0,101.0,105.0,101.0,96.0,100.0,97.0,97.0,97.0,96.0,96.0,96.0,93.0,88.0,91.0,92.0,92.0,91.0,91.0,91.0,90.0,91.0,94.0,96.0,94.0,96.0,96.0,94.0,93.0,92.0,91.0,90.0,99.0,98.0,98.0,98.0,95.0,100.0,99.0,99.0,100.0,98.0,97.0,98.0,97.0,94.0,102.0,99.0,98.0,100.0,98.0,98.0,97.0,93.0,94.0,94.0,93.0,93.0,98.0,94.0,96.0,96.0,97.0,93.0,94.0,91.0,92.0,92.0,91.0,90.0,90.0,89.0,87.0,87.0,88.0,88.0,93.0,94.0,96.0,94.0,92.0,86.0,80.0,79.0,76.0,83.0,84.0,83.0,88.0,89.0,89.0,95.0,102.0,109.0,122.0,134.0,148.0,171.0,193.0,211.0,229.0,250.0,267.0,284.0,295.0,312.0,325.0,334.0,341.0,349.0,356.0,357.0,364.0,367.0,369.0,371.0,372.0,371.0,371.0,373.0,370.0,366.0,362.0,358.0,353.0,349.0,343.0,341.0,336.0,332.0,330.0,324.0,319.0,314.0,313.0,309.0,309.0,307.0,305.0,303.0,301.0,301.0,297.0,294.0,291.0,288.0,286.0,281.0,280.0,274.0,271.0,265.0,262.0,259.0,255.0,253.0,252.0,248.0,245.0,241.0,236.0,232.0,229.0,225.0,219.0,218.0,216.0,211.0,207.0,204.0,201.0,198.0,195.0,192.0,190.0,186.0,186.0,182.0,180.0,179.0,176.0,173.0,171.0,170.0,168.0,167.0,165.0,164.0,162.0,159.0,157.0,157.0,157.0,156.0,151.0,150.0,147.0,146.0,144.0,143.0,139.0,140.0,138.0,141.0,139.0,137.0,136.0,135.0,134.0,132.0,128.0,128.0,125.0,123.0,120.0,120.0,118.0,115.0,114.0,114.0,114.0,113.0,112.0,110.0,106.0,104.0,106.0,105.0,104.0,101.0,100.0,98.0,97.0,95.0,95.0,93.0,94.0,92.0,91.0,89.0,88.0,86.0,87.0,89.0,87.0,86.0,85.0,84.0,83.0,84.0,84.0,82.0,78.0,78.0,77.0,79.0,77.0,75.0,77.0,75.0,72.0,72.0,69.0,68.0,65.0,63.0,63.0,60.0,60.0,59.0,61.0,64.0,64.0,64.0,63.0,63.0,63.0,62.0,63.0,62.0,64.0,64.0,63.0,62.0,63.0,61.0,63.0,63.0,62.0,63.0,62.0,62.0,62.0,61.0,63.0,63.0,60.0,62.0,62.0,62.0,60.0,59.0,60.0,58.0,58.0,58.0,59.0,58.0,60.0,59.0,56.0,57.0,57.0,54.0,55.0,53.0,53.0,51.0,51.0,51.0,49.0,47.0,46.0,47.0,46.0,44.0,48.0,47.0,47.0,47.0,47.0,46.0,44.0,44.0,46.0,47.0,46.0,45.0,47.0,47.0,50.0,49.0,50.0,50.0,49.0,50.0,50.0,48.0,48.0,50.0,49.0,47.0,47.0,47.0,46.0,47.0,50.0,51.0,48.0,48.0,48.0,47.0,48.0,47.0,45.0,45.0,45.0,47.0,48.0,46.0,48.0,46.0,48.0,48.0,47.0,49.0,47.0,48.0,47.0,46.0,47.0,47.0,51.0,48.0,49.0,49.0,49.0,49.0,49.0,50.0,51.0,52.0,53.0,53.0,53.0,53.0,56.0,57.0,55.0,55.0,54.0,52.0,51.0,51.0,52.0,52.0,51.0,49.0,50.0,49.0,48.0,49.0,48.0,48.0,47.0,51.0,49.0,47.0,48.0,47.0,46.0,46.0,46.0,45.0,45.0,45.0,46.0,46.0,47.0,45.0,47.0,45.0,45.0,47.0,46.0,47.0,49.0,49.0,47.0,45.0,44.0,44.0,44.0,45.0,44.0,45.0,46.0,45.0,46.0,45.0,48.0,47.0,48.0,50.0,49.0,50.0,49.0,51.0,54.0,54.0,57.0,57.0,57.0,56.0,59.0,57.0,59.0,59.0,60.0,62.0,64.0,64.0,63.0,62.0,64.0,64.0,65.0,68.0,67.0,67.0,67.0,66.0,66.0,65.0,64.0,63.0,63.0,62.0,62.0,61.0,60.0,60.0,63.0,62.0,63.0,62.0,60.0,59.0,61.0,60.0,59.0,61.0,61.0,59.0,60.0,57.0,59.0,56.0,56.0,59.0,56.0,55.0,53.0
23.0,22.0,21.0,23.0,29.0,28.0,30.0,27.0,24.0,21.0,25.0,31.0,34.0,40.0,36.0,31.0,27.0,25.0,36.0,39.0,37.0,35.0,32.0,27.0,26.0,21.0,33.0,34.0,30.0,31.0,26.0,25.0,23.0,28.0,27.0,25.0,33.0,32.0,28.0,33.0,29.0,27.0,24.0,21.0,26.0,31.0,28.0,34.0,29.0,30.0,26.0,25.0,30.0,29.0,27.0,31.0,30.0,26.0,30.0,27.0,26.0,24.0,31.0,28.0,26.0,25.0,23.0,20.0,18.0,23.0,22.0,21.0,27.0,24.0,22.0,30.0,28.0,27.0,25.0,22.0,20.0,23.0,21.0,18.0,21.0,29.0,26.0,30.0,28.0,24.0,27.0,33.0,34.0,32.0,29.0,27.0,38.0,37.0,36.0,35.0,31.0,28.0,24.0,38.0,45.0,40.0,37.0,37.0,32.0,29.0,28.0,26.0,30.0,28.0,26.0,29.0,26.0,25.0,30.0,33.0,31.0,30.0,28.0,24.0,30.0,32.0,31.0,33.0,29.0,29.0,29.0,28.0,26.0,24.0,28.0,25.0,26.0,25.0,33.0,33.0,31.0,27.0,24.0,25.0,30.0,32.0,36.0,35.0,34.0,30.0,36.0,35.0,41.0,39.0,35.0,31.0,31.0,29.0,36.0,32.0,28.0,24.0,30.0,34.0,41.0,37.0,32.0,29.0,26.0,22.0,19.0,26.0,26.0,24.0,22.0,21.0,23.0,32.0,33.0,29.0,27.0,26.0,30.0,31.0,34.0,31.0,33.0,33.0,29.0,30.0,30.0,26.0,32.0,27.0,25.0,25.0,29.0,27.0,26.0,28.0,26.0,31.0,33.0,28.0,32.0,28.0,28.0,29.0,26.0,23.0,20.0,18.0,16.0,16.0,56.0,53.0,48.0,42.0,39.0,35.0,31.0,34.0,31.0,31.0,31.0,32.0,30.0,28.0,28.0,25.0,23.0,21.0,22.0,28.0,38.0,35.0,31.0,27.0,25.0,23.0,22.0,20.0,22.0,30.0,37.0,33.0,33.0,31.0,26.0,51.0,53.0,47.0,43.0,46.0,41.0,37.0,33.0,35.0,42.0,39.0,36.0,31.0,26.0,31.0,30.0,33.0,29.0,28.0,24.0,22.0,25.0,24.0,23.0,23.0,34.0,37.0,36.0,37.0,32.0,29.0,25.0,23.0,41.0,42.0,41.0,43.0,39.0,34.0,33.0,39.0,41.0,36.0,33.0,29.0,31.0,44.0,43.0,40.0,36.0,34.0,36.0,36.0,37.0,37.0,39.0,44.0,45.0,58.0,51.0,67.0,69.0,83.0,96.0,112.0,112.0,139.0,178.0,176.0,206.0,218.0,227.0,241.0,244.0,231.0,247.0,339.0,363.0,415.0,398.0,381.0,412.0,420.0,396.0,352.0,392.0,372.0,339.0,378.0,381.0,369.0,427.0,395.0,402.0,417.0,395.0,410.0,402.0,395.0,363.0,353.0,331.0,341.0,312.0,314.0,285.0,288.0,272.0,270.0,318.0,306.0,277.0,275.0,253.0,251.0,298.0,301.0,296.0,268.0,234.0,249.0,249.0,230.0,223.0,205.0,222.0,252.0,243.0,222.0,204.0,209.0,201.0,204.0,213.0,209.0,191.0,174.0,188.0,183.0,182.0,193.0,189.0,194.0,186.0,193.0,190.0,191.0,185.0,181.0,185.0,165.0,166.0,173.0,167.0,163.0,188.0,175.0,163.0,163.0,165.0,164.0,159.0,163.0,165.0,161.0,146.0,170.0,162.0,190.0,226.0,254.0,233.0,227.0,209.0,194.0,193.0,182.0,169.0,160.0,143.0,133.0,123.0,119.0,122.0,116.0,106.0,104.0,99.0,103.0,105.0,105.0,99.0,100.0,100.0,92.0,116.0,123.0,118.0,107.0,105.0,133.0,127.0,120.0,127.0,134.0,143.0,138.0,127.0,128.0,132.0,134.0,136.0,121.0,138.0,130.0,132.0,132.0,130.0,119.0,120.0,126.0,156.0,144.0,179.0,176.0,177.0,165.0,195.0,205.0,188.0,233.0,258.0,250.0,231.0,218.0,202.0,201.0,206.0,181.0,167.0,238.0,230.0,212.0,202.0,188.0,178.0,166.0,152.0,160.0,165.0,164.0,147.0,144.0,146.0,147.0,142.0,137.0,158.0,141.0,130.0,138.0,154.0,153.0,143.0,158.0,171.0,162.0,151.0,141.0,144.0,145.0,127.0,121.0,136.0,135.0,147.0,142.0,131.0,125.0,119.0,117.0,125.0,123.0,116.0,111.0,109.0,107.0,114.0,106.0,119.0,108.0,110.0,103.0,128.0,125.0,127.0,128.0,120.0,141.0,129.0,118.0,114.0,143.0,138.0,132.0,126.0,122.0,119.0,110.0,114.0,109.0,105.0,99.0,94.0,95.0,101.0,101.0,113.0,125.0,111.0,99.0,123.0,125.0,130.0,158.0,168.0,154.0,145.0,143.0,142.0,131.0,121.0,120.0,112.0,106.0,101.0,93.0,92.0,88.0,95.0,85.0,78.0,79.0,74.0,68.0,76.0,71.0,66.0,60.0,64.0,65.0,65.0,67.0,65.0,63.0,54.0,54.0,57.0,65.0,64.0,68.0,60.0,54.0,48.0,48.0,47.0,49.0,49.0,48.0,44.0,39.0,38.0,37.0,32.0,32.0,34.0,34.0,38.0,36.0,38.0,34.0,33.0,35.0,37.0,33.0,38.0,34.0,40.0,36.0,32.0,35.0,34.0,30.0,41.0,43.0,38.0,33.0,29.0,44.0,45.0,39.0,36.0,35.0,33.0,31.0,39.0,37.0,34.0,35.0,32.0,30.0,33.0,31.0,29.0,30.0,36.0,38.0,37.0,37.0,47.0,41.0,36.0,33.0,32.0,28.0,25.0,24.0,24.0,38.0,40.0,36.0,34.0,34.0,31.0,27.0,25.0,35.0,34.0,39.0,43.0,46.0,43.0,36.0,32.0,40.0,38.0,39.0,50.0,56.0,52.0,44.0,40.0,46.0,40.0,37.0,34.0,39.0,42.0,38.0,34.0,36.0,33.0,35.0,36.0,35.0,34.0,30.0,30.0,29.0,32.0,30.0,52.0,50.0,47.0,43.0,46.0,41.0,49.0,55.0,64.0,59.0,52.0,48.0,42.0,41.0,47.0,53.0,49.0,47.0,42.0,40.0,39.0,42.0,48.0,42.0,43.0,41.0,38.0,39.0,35.0,35.0,30.0,34.0,40.0,37.0,37.0,41.0,38.0,39.0,35.0,34.0,30.0,33.0,33.0,34.0,36.0,34.0,39.0,47.0,44.0,39.0,49.0,45.0,51.0,52.0,47.0,55.0,49.0,47.0,49.0,48.0,42.0,42.0,38.0,48.0,47.0,43.0,37.0,45.0,42.0,38.0,36.0,37.0,43.0,44.0,50.0,48.0,45.0,45.0,46.0,47.0,48.0,44.0,43.0,41.0,39.0,40.0,37.0,33.0,28.0,32.0,30.0,33.0,36.0,36.0,36.0,36.0,37.0,33.0,38.0,34.0,33.0,41.0,43.0,44.0,42.0,39.0,42.0,41.0,39.0,36.0,31.0,31.0,27.0,35.0,32.0,45.0,44.0,39.0,38.0,37.0,35.0,34.0,41.0,46.0,52.0,45.0,42.0,38.0,44.0,43.0,40.0,35.0,38.0,36.0,35.0,31.0,36.0,39.0,36.0,34.0,34.0,39.0,38.0,36.0,39.0,36.0,31.0,29.0,32.0,38.0,41.0,45.0,42.0,36.0,32.0,32.0,41.0,40.0,36.0,41.0,43.0,36.0,34.0,34.0,35.0,36.0,37.0,45.0,38.0,36.0,35.0,41.0,50.0,44.0,39.0,42.0,39.0,42.0,43.0,44.0,39.0,36.0,38.0,32.0,29.0,26.0,25.0,29.0,29.0,33.0,28.0,26.0,25.0,29.0,31.0,28.0,32.0,35.0,38.0,38.0,38.0,44.0,43.0,47.0,47.0,42.0,41.0,38.0,44.0,52.0,47.0,49.0,44.0,49.0,49.0,48.0,47.0,48.0,45.0,42.0,46.0,40.0,38.0,33.0,30.0,28.0,30.0,34.0,35.0,34.0,31.0,32.0,30.0,27.0,22.0,22.0,23.0,25.0,29.0,31.0,31.0,28.0,24.0,24.0,25.0,37.0,37.0,39.0,37.0,34.0,34.0,32.0,28.0,39.0,42.0,36.0,32.0,28.0,33.0,33.0,35.0,33.0,33.0,28.0,27.0,32.0,31.0,31.0,37.0,45.0,40.0,36.0,35.0,34.0,36.0,35.0,46.0,44.0,42.0,39.0
105.0,102.0,105.0,104.0,98.0,101.0,98.0,93.0,97.0,97.0,108.0,107.0,102.0,99.0,101.0,96.0,90.0,95.0,105.0,111.0,118.0,116.0,118.0,117.0,119.0,112.0,105.0,109.0,117.0,114.0,117.0,115.0,118.0,138.0,143.0,136.0,126.0,122.0,122.0,112.0,109.0,107.0,116.0,122.0,123.0,118.0,111.0,110.0,107.0,109.0,105.0,98.0,94.0,96.0,94.0,90.0,97.0,93.0,106.0,104.0,103.0,94.0,87.0,110.0,106.0,105.0,105.0,101.0,95.0,107.0,106.0,105.0,115.0,113.0,116.0,109.0,100.0,102.0,96.0,107.0,108.0,110.0,105.0,96.0,100.0,114.0,115.0,111.0,118.0,116.0,110.0,116.0,113.0,112.0,107.0,113.0,109.0,110.0,103.0,94.0,90.0,94.0,94.0,97.0,96.0,112.0,112.0,105.0,102.0,93.0,85.0,78.0,76.0,86.0,90.0,90.0,92.0,88.0,82.0,82.0,99.0,96.0,96.0,96.0,97.0,97.0,99.0,103.0,97.0,102.0,103.0,97.0,96.0,96.0,109.0,112.0,113.0,114.0,114.0,113.0,116.0,121.0,118.0,120.0,116.0,110.0,105.0,110.0,101.0,96.0,91.0,101.0,97.0,100.0,96.0,96.0,95.0,104.0,100.0,94.0,93.0,93.0,98.0,98.0,96.0,98.0,108.0,106.0,109.0,106.0,100.0,93.0,108.0,108.0,104.0,95.0,100.0,97.0,99.0,106.0,104.0,101.0,94.0,97.0,107.0,111.0,106.0,105.0,100.0,100.0,107.0,111.0,108.0,102.0,98.0,122.0,118.0,118.0,112.0,108.0,110.0,113.0,107.0,106.0,100.0,111.0,110.0,111.0,112.0,104.0,94.0,87.0,82.0,92.0,90.0,96.0,91.0,96.0,98.0,101.0,105.0,100.0,107.0,112.0,120.0,121.0,117.0,108.0,110.0,120.0,117.0,118.0,112.0,111.0,123.0,113.0,107.0,106.0,101.0,95.0,124.0,116.0,115.0,110.0,110.0,113.0,115.0,107.0,102.0,106.0,100.0,100.0,102.0,113.0,112.0,109.0,111.0,125.0,130.0,121.0,127.0,129.0,124.0,123.0,119.0,120.0,112.0,108.0,110.0,110.0,107.0,105.0,101.0,96.0,93.0,98.0,97.0,92.0,88.0,82.0,91.0,91.0,93.0,98.0,104.0,99.0,99.0,99.0,98.0,101.0,101.0,101.0,104.0,104.0,100.0,95.0,89.0,89.0,85.0,102.0,100.0,95.0,89.0,84.0,83.0,90.0,103.0,105.0,106.0,110.0,116.0,131.0,168.0,190.0,198.0,200.0,207.0,195.0,230.0,231.0,239.0,242.0,254.0,239.0,245.0,273.0,266.0,279.0,275.0,293.0,307.0,292.0,290.0,279.0,263.0,287.0,269.0,260.0,236.0,234.0,285.0,283.0,294.0,300.0,285.0,280.0,258.0,252.0,256.0,247.0,227.0,217.0,234.0,249.0,249.0,237.0,222.0,208.0,199.0,204.0,211.0,200.0,194.0,188.0,215.0,202.0,193.0,176.0,176.0,180.0,174.0,174.0,163.0,170.0,169.0,170.0,163.0,152.0,141.0,159.0,175.0,168.0,167.0,179.0,179.0,175.0,200.0,226.0,217.0,201.0,201.0,217.0,213.0,208.0,217.0,214.0,204.0,187.0,177.0,175.0,170.0,190.0,204.0,198.0,201.0,205.0,209.0,204.0,191.0,186.0,174.0,167.0,153.0,151.0,143.0,157.0,166.0,159.0,164.0,162.0,158.0,173.0,175.0,157.0,159.0,148.0,135.0,134.0,130.0,146.0,148.0,157.0,159.0,148.0,138.0,138.0,131.0,141.0,132.0,129.0,122.0,118.0,111.0,115.0,120.0,122.0,122.0,118.0,128.0,137.0,131.0,136.0,146.0,159.0,150.0,152.0,140.0,135.0,135.0,143.0,149.0,134.0,122.0,121.0,118.0,118.0,117.0,110.0,107.0,99.0,114.0,124.0,131.0,137.0,156.0,150.0,160.0,161.0,163.0,177.0,192.0,209.0,187.0,176.0,182.0,176.0,166.0,153.0,149.0,157.0,146.0,138.0,135.0,139.0,140.0,137.0,133.0,126.0,140.0,150.0,149.0,136.0,137.0,133.0,129.0,122.0,136.0,137.0,140.0,142.0,140.0,133.0,134.0,132.0,124.0,123.0,116.0,114.0,113.0,115.0,113.0,106.0,102.0,104.0,117.0,117.0,113.0,106.0,99.0,110.0,121.0,120.0,136.0,134.0,128.0,126.0,119.0,115.0,149.0,138.0,131.0,124.0,140.0,145.0,143.0,138.0,137.0,133.0,146.0,139.0,128.0,123.0,119.0,135.0,143.0,131.0,118.0,108.0,113.0,115.0,125.0,117.0,107.0,106.0,100.0,111.0,125.0,148.0,138.0,131.0,152.0,176.0,181.0,200.0,194.0,190.0,183.0,185.0,196.0,182.0,199.0,208.0,191.0,201.0,217.0,230.0,248.0,278.0,315.0,283.0,277.0,298.0,336.0,320.0,289.0,282.0,278.0,273.0,258.0,257.0,238.0,224.0,220.0,211.0,221.0,225.0,214.0,208.0,204.0,207.0,197.0,188.0,209.0,195.0,209.0,196.0,192.0,190.0,176.0,167.0,165.0,172.0,174.0,171.0,164.0,163.0,166.0,160.0,165.0,152.0,159.0,182.0,189.0,193.0,186.0,183.0,180.0,165.0,155.0,144.0,151.0,148.0,142.0,147.0,140.0,140.0,147.0,160.0,160.0,149.0,143.0,149.0,175.0,170.0,159.0,155.0,149.0,149.0,147.0,150.0,150.0,148.0,140.0,151.0,145.0,149.0,139.0,130.0,136.0,129.0,131.0,123.0,158.0,183.0,177.0,172.0,195.0,201.0,200.0,182.0,173.0,158.0,150.0,146.0,155.0,154.0,150.0,140.0,152.0,163.0,179.0,168.0,158.0,157.0,155.0,162.0,160.0,156.0,159.0,154.0,144.0,143.0,144.0,139.0,141.0,158.0,160.0,149.0,139.0,130.0,122.0,116.0,132.0,147.0,145.0,133.0,177.0,203.0,189.0,167.0,169.0,159.0,148.0,141.0,135.0,126.0,122.0,119.0,128.0,130.0,125.0,118.0,109.0,121.0,134.0,126.0,121.0,116.0,117.0,124.0,129.0,125.0,126.0,131.0,133.0,136.0,138.0,144.0,137.0,139.0,139.0,139.0,143.0,143.0,154.0,150.0,143.0,139.0,131.0,135.0,133.0,122.0,143.0,137.0,130.0,153.0,145.0,133.0,140.0,143.0,138.0,133.0,134.0,128.0,122.0,119.0,116.0,122.0,119.0,115.0,111.0,117.0,111.0,110.0,110.0,111.0,106.0,131.0,141.0,140.0,129.0,123.0,121.0,134.0,125.0,125.0,125.0,122.0,125.0,125.0,126.0,121.0,124.0,118.0,120.0,114.0,112.0,110.0,106.0,115.0,116.0,108.0,110.0,117.0,119.0,121.0,116.0,108.0,104.0,116.0,112.0,113.0,116.0,112.0,117.0,118.0,120.0,121.0,115.0,147.0,145.0,132.0,139.0,133.0,135.0,150.0,140.0,142.0,133.0,124.0,130.0,131.0,140.0,139.0,144.0,135.0,145.0,140.0,135.0,139.0,133.0,121.0,120.0,133.0,132.0,124.0,119.0,117.0,114.0,120.0,119.0,116.0,110.0,106.0,124.0,123.0,128.0,120.0,117.0,132.0,142.0,132.0,121.0,112.0,112.0,105.0,132.0,146.0,135.0,133.0,139.0,142.0,143.0,136.0,138.0,132.0,144.0,156.0,148.0,133.0,138.0,136.0,139.0,143.0,139.0,139.0,139.0,129.0,122.0,119.0,120.0,114.0,115.0,113.0,116.0,117.0,111.0,132.0,130.0,120.0,119.0,115.0,112.0,107.0,110.0,111.0,114.0,111.0,106.0,109.0,107.0,104.0,98.0,105.0,105.0,102.0,104.0,108.0,103.0,108.0,117.0,109.0,103.0,105.0,100.0,113.0,110.0,109.0,107.0,116.0,112.0,115.0,110.0,100.0,99.0,103.0,97.0,96.0,90.0,86.0,80.0,79.0,77.0,85.0,82.0,92.0,93.0,98.0,109.0,112.0,106.0,99.0,94.0,93.0,107.0,112.0,109.0,117.0,110.0,108.0,104.0,98.0,89.0,103.0,106.0,107.0,105.0,107.0,102.0,108.0,108.0,112.0,110.0,102.0,101.0,96.0,92.0,91.0,111.0,103.0,102.0,95.0,103.0,116.0,128.0,120.0,113.0,108.0,102.0,117.0
