233.0,235.0,235.0,237.0,239.0,239.0,238.0,240.0,241.0,241.0,239.0,241.0,242.0,240.0,239.0,242.0,241.0,243.0,241.0,242.0,242.0,242.0,239.0,238.0,239.0,237.0,240.0,242.0,241.0,241.0,242.0,242.0,241.0,242.0,243.0,243.0,244.0,244.0,245.0,245.0,245.0,246.0,247.0,247.0,247.0,246.0,245.0,245.0,246.0,243.0,242.0,241.0,240.0,238.0,235.0,234.0,233.0,232.0,230.0,226.0,225.0,221.0,219.0,219.0,217.0,216.0,213.0,211.0,211.0,208.0,205.0,203.0,201.0,198.0,194.0,194.0,192.0,190.0,188.0,185.0,183.0,182.0,178.0,176.0,173.0,174.0,172.0,170.0,168.0,163.0,161.0,157.0,157.0,155.0,151.0,150.0,147.0,144.0,140.0,139.0,138.0,136.0,135.0,134.0,131.0,127.0,128.0,127.0,125.0,123.0,122.0,120.0,119.0,119.0,115.0,114.0,112.0,110.0,111.0,110.0,109.0,109.0,110.0,109.0,109.0,110.0,112.0,112.0,113.0,116.0,119.0,119.0,125.0,130.0,133.0,137.0,140.0,141.0,143.0,147.0,148.0,150.0,151.0,153.0,152.0,150.0,151.0,150.0,151.0,149.0,148.0,149.0,145.0,142.0,141.0,138.0,137.0,135.0,133.0,131.0,129.0,128.0,126.0,125.0,122.0,121.0,119.0,122.0,122.0,116.0,111.0,110.0,109.0,112.0,110.0,117.0,126.0,129.0,128.0,129.0,129.0,128.0,126.0,134.0,133.0,135.0,128.0,120.0,121.0,116.0,114.0,112.0,122.0,122.0,120.0,119.0,115.0,114.0,114.0,111.0,108.0,112.0,106.0,103.0,101.0,245.0,343.0,342.0,317.0,289.0,260.0,239.0,224.0,210.0,201.0,191.0,181.0,174.0,164.0,162.0,159.0,158.0,152.0,152.0,150.0,144.0,144.0,141.0,139.0,140.0,139.0,139.0,140.0,138.0,133.0,132.0,132.0,130.0,128.0,129.0,127.0,124.0,123.0,122.0,120.0,117.0,118.0,116.0,115.0,116.0,114.0,117.0,115.0,112.0,114.0,111.0,109.0,106.0,107.0,107.0,106.0,104.0,103.0,103.0,101.0,100.0,100.0,103.0,105.0,104.0,98.0,98.0,99.0,97.0,96.0,93.0,95.0,94.0,93.0,94.0,92.0,93.0,93.0,95.0,96.0,96.0,98.0,98.0,109.0,118.0,115.0,118.0,117.0,116.0,116.0,118.0,119.0,125.0,125.0,126.0,130.0,131.0,137.0,140.0,143.0,151.0,154.0,155.0,159.0,164.0,168.0,171.0,179.0,180.0,187.0,190.0,197.0,202.0,207.0,213.0,217.0,219.0,224.0,228.0,231.0,236.0,241.0,248.0,248.0,249.0,258.0,261.0,268.0,271.0,277.0,282.0,284.0,291.0,297.0,301.0,306.0,310.0,316.0,320.0,324.0,330.0,335.0,333.0,338.0,342.0,344.0,347.0,352.0,355.0,359.0,363.0,367.0,369.0,375.0,378.0,381.0,382.0,385.0,386.0,387.0,387.0,387.0,387.0,387.0,387.0,388.0,389.0,389.0,389.0,388.0,388.0,377.0,374.0,367.0,371.0,376.0,381.0,389.0,390.0,394.0,397.0,396.0,396.0,396.0,402.0,399.0,402.0,406.0,410.0,405.0,407.0,407.0,406.0,406.0,400.0,397.0,390.0,392.0,388.0,385.0,382.0,379.0,375.0,373.0,371.0,370.0,367.0,365.0,364.0,363.0,360.0,360.0,363.0,362.0,362.0,364.0,362.0,365.0,364.0,365.0,368.0,366.0,365.0,364.0,362.0,362.0,361.0,363.0,364.0,363.0,363.0,364.0,366.0,365.0,365.0,363.0,364.0,364.0,364.0,364.0,364.0,364.0,361.0,361.0,357.0,353.0,351.0,347.0,345.0,344.0,340.0,339.0,336.0,334.0,328.0,325.0,321.0,317.0,311.0,308.0,303.0,298.0,292.0,289.0,284.0,278.0,272.0,268.0,265.0,260.0,254.0,251.0,242.0,241.0,237.0,234.0,228.0,223.0,219.0,213.0,209.0,205.0,200.0,197.0,191.0,186.0,183.0,176.0,175.0,172.0,170.0,168.0,164.0,162.0,159.0,155.0,154.0,152.0,149.0,147.0,144.0,142.0,138.0,136.0,133.0,130.0,129.0,126.0,124.0,121.0,120.0,118.0,116.0,114.0,113.0,112.0,110.0,107.0,107.0,105.0,105.0,103.0,103.0,99.0,96.0,97.0,96.0,93.0,91.0,89.0,88.0,85.0,83.0,81.0,80.0,78.0,76.0,75.0,71.0,71.0,68.0,65.0,64.0,62.0,61.0,60.0,58.0,58.0,57.0,56.0,54.0,56.0,41.0,21.0,4.0,0.0,0.0,0.0,0.0,668.0,669.0,669.0,668.0,668.0,669.0,668.0,669.0,668.0,668.0,667.0,667.0,667.0,667.0,668.0,668.0,668.0,667.0,667.0,667.0,668.0,668.0,668.0,667.0,667.0,666.0,666.0,667.0,667.0,667.0,666.0,666.0,666.0,666.0,667.0,667.0,666.0,667.0,667.0,667.0,667.0,668.0,668.0,667.0,668.0,667.0,668.0,667.0,667.0,668.0,667.0,667.0,667.0,667.0,667.0,667.0,668.0,667.0,667.0,668.0,667.0,668.0,667.0,668.0,668.0,667.0,667.0,667.0,667.0,667.0,667.0,667.0,667.0,666.0,666.0,667.0,667.0,666.0,667.0,667.0,666.0,667.0,667.0,667.0,667.0,668.0,667.0,667.0,668.0,661.0,647.0,634.0,623.0,612.0,601.0,589.0,577.0,564.0,555.0,543.0,534.0,522.0,512.0,505.0,494.0,484.0,473.0,464.0,454.0,445.0,436.0,425.0,417.0,408.0,400.0,395.0,385.0,378.0,371.0,364.0,357.0,351.0,346.0,338.0,331.0,324.0,319.0,313.0,306.0,301.0,294.0,288.0,282.0,277.0,273.0,267.0,262.0,257.0,253.0,248.0,245.0,242.0,237.0,231.0,227.0,222.0,218.0,214.0,209.0,206.0,200.0,197.0,193.0,190.0,187.0,183.0,180.0,176.0,173.0,168.0,165.0,162.0,159.0,156.0,153.0,151.0,149.0,146.0,145.0,142.0,139.0,135.0,131.0,131.0,128.0,126.0,124.0,122.0,119.0,117.0,116.0,115.0,112.0,110.0,107.0,105.0,104.0,104.0,102.0,98.0,97.0,95.0,92.0,93.0,91.0,89.0,86.0,88.0,85.0,83.0,83.0,81.0,82.0,81.0,79.0,78.0,76.0,76.0,75.0,73.0,73.0,72.0,71.0,68.0,66.0,64.0,63.0,64.0,63.0,63.0,61.0,60.0,58.0,58.0,59.0,57.0,56.0,55.0,54.0,55.0,54.0,55.0,55.0,53.0,54.0,54.0,54.0,54.0,53.0,53.0,53.0,53.0,54.0,53.0,54.0,53.0,54.0,53.0,53.0,51.0,50.0,50.0,49.0,48.0,48.0,48.0,47.0,47.0,47.0,47.0,47.0,47.0,46.0,46.0,45.0,46.0,46.0,45.0,47.0,45.0,46.0,45.0,45.0,44.0,44.0,45.0,44.0,46.0,46.0,46.0,47.0,46.0,47.0,47.0,46.0,46.0,46.0,47.0,47.0,45.0,47.0,46.0,47.0,47.0,46.0,46.0,45.0,46.0,46.0,46.0,47.0,49.0,51.0,52.0,53.0,52.0,52.0,52.0,52.0,53.0,54.0,54.0,55.0,54.0,54.0,54.0,55.0,54.0,55.0,55.0,54.0,54.0,55.0,55.0,54.0,54.0,57.0,56.0,55.0,55.0,54.0,55.0,56.0,57.0,57.0,56.0,57.0,57.0,59.0,59.0,60.0,60.0,58.0,58.0,57.0,55.0,55.0,53.0,53.0,50.0,50.0,50.0,49.0,48.0,48.0,47.0,47.0,44.0,44.0,44.0,45.0,45.0,45.0,46.0,45.0,46.0,46.0,48.0,47.0,49.0,51.0,50.0,50.0,50.0,51.0,53.0,53.0,54.0,54.0,54.0,55.0,56.0,58.0,58.0,59.0,60.0,60.0,60.0,61.0,61.0,64.0,64.0,66.0,68.0,68.0,71.0,72.0,74.0,75.0,77.0,80.0,80.0,82.0,83.0,85.0,87.0,89.0,89.0,92.0,94.0,97.0,101.0,105.0,109.0,113.0,116.0,118.0,121.0,123.0,127.0,129.0,132.0,133.0,134.0,137.0,139.0,141.0,144.0,145.0,147.0,148.0,152.0,152.0,154.0,156.0,156.0
313.0,314.0,313.0,316.0,317.0,316.0,316.0,317.0,318.0,318.0,316.0,318.0,318.0,317.0,315.0,319.0,317.0,319.0,317.0,318.0,317.0,317.0,315.0,316.0,316.0,315.0,316.0,316.0,315.0,314.0,315.0,312.0,311.0,312.0,309.0,308.0,309.0,308.0,306.0,302.0,302.0,301.0,302.0,302.0,302.0,301.0,299.0,298.0,299.0,297.0,297.0,296.0,297.0,297.0,296.0,297.0,297.0,298.0,296.0,295.0,295.0,290.0,289.0,289.0,289.0,289.0,287.0,287.0,286.0,284.0,282.0,281.0,282.0,278.0,276.0,274.0,272.0,269.0,265.0,262.0,259.0,258.0,256.0,253.0,250.0,250.0,250.0,248.0,245.0,243.0,240.0,237.0,236.0,234.0,231.0,229.0,227.0,224.0,220.0,220.0,217.0,216.0,214.0,212.0,208.0,203.0,202.0,202.0,199.0,197.0,193.0,192.0,189.0,189.0,186.0,184.0,182.0,177.0,179.0,177.0,176.0,175.0,172.0,170.0,168.0,168.0,165.0,163.0,161.0,159.0,158.0,154.0,153.0,153.0,153.0,152.0,150.0,149.0,149.0,148.0,149.0,146.0,146.0,147.0,145.0,144.0,143.0,142.0,140.0,136.0,135.0,136.0,134.0,132.0,131.0,130.0,129.0,127.0,127.0,125.0,124.0,123.0,122.0,121.0,119.0,118.0,116.0,116.0,111.0,108.0,113.0,120.0,124.0,123.0,114.0,110.0,104.0,100.0,92.0,89.0,93.0,95.0,91.0,86.0,82.0,78.0,72.0,76.0,72.0,71.0,72.0,76.0,99.0,106.0,99.0,110.0,105.0,97.0,91.0,99.0,104.0,110.0,127.0,143.0,158.0,177.0,188.0,196.0,204.0,209.0,225.0,227.0,235.0,233.0,234.0,238.0,244.0,245.0,254.0,251.0,250.0,248.0,248.0,243.0,240.0,233.0,228.0,221.0,215.0,206.0,201.0,192.0,184.0,176.0,172.0,166.0,157.0,151.0,146.0,140.0,135.0,131.0,127.0,122.0,118.0,116.0,111.0,109.0,105.0,99.0,95.0,88.0,85.0,80.0,75.0,70.0,66.0,66.0,62.0,58.0,56.0,54.0,54.0,51.0,49.0,49.0,47.0,50.0,48.0,49.0,49.0,51.0,53.0,51.0,52.0,51.0,53.0,53.0,52.0,53.0,52.0,53.0,53.0,54.0,57.0,56.0,59.0,62.0,59.0,63.0,62.0,64.0,66.0,68.0,68.0,70.0,69.0,71.0,70.0,71.0,73.0,76.0,78.0,80.0,83.0,88.0,94.0,96.0,103.0,108.0,112.0,118.0,125.0,131.0,136.0,141.0,150.0,154.0,161.0,168.0,172.0,177.0,183.0,191.0,198.0,206.0,213.0,221.0,225.0,229.0,240.0,244.0,253.0,258.0,263.0,269.0,272.0,279.0,284.0,288.0,291.0,294.0,301.0,305.0,312.0,319.0,323.0,325.0,330.0,335.0,339.0,343.0,349.0,351.0,352.0,356.0,358.0,360.0,364.0,368.0,372.0,373.0,377.0,381.0,383.0,385.0,387.0,391.0,394.0,398.0,401.0,402.0,404.0,406.0,407.0,407.0,390.0,380.0,375.0,380.0,400.0,410.0,423.0,426.0,433.0,435.0,435.0,436.0,437.0,442.0,438.0,442.0,448.0,454.0,452.0,457.0,457.0,457.0,458.0,453.0,450.0,443.0,444.0,440.0,436.0,431.0,425.0,419.0,415.0,411.0,408.0,408.0,404.0,403.0,399.0,394.0,394.0,393.0,389.0,386.0,384.0,379.0,378.0,374.0,372.0,371.0,367.0,364.0,363.0,359.0,354.0,351.0,349.0,347.0,342.0,339.0,336.0,331.0,328.0,325.0,322.0,320.0,317.0,315.0,314.0,310.0,306.0,301.0,298.0,292.0,288.0,282.0,275.0,273.0,269.0,264.0,260.0,256.0,252.0,244.0,241.0,237.0,234.0,229.0,226.0,223.0,220.0,216.0,215.0,212.0,210.0,205.0,205.0,205.0,203.0,201.0,198.0,192.0,194.0,192.0,192.0,188.0,188.0,186.0,184.0,184.0,180.0,176.0,175.0,172.0,171.0,170.0,167.0,168.0,167.0,166.0,163.0,162.0,160.0,159.0,155.0,152.0,149.0,144.0,142.0,138.0,139.0,137.0,134.0,131.0,127.0,123.0,120.0,117.0,113.0,111.0,108.0,106.0,99.0,98.0,96.0,95.0,91.0,91.0,88.0,85.0,83.0,81.0,77.0,75.0,76.0,75.0,71.0,69.0,66.0,64.0,62.0,60.0,59.0,57.0,55.0,53.0,50.0,48.0,46.0,45.0,44.0,44.0,43.0,44.0,45.0,44.0,44.0,45.0,44.0,43.0,45.0,44.0,50.0,64.0,80.0,96.0,114.0,132.0,146.0,138.0,126.0,115.0,105.0,95.0,89.0,82.0,77.0,72.0,68.0,64.0,62.0,59.0,56.0,54.0,52.0,49.0,49.0,48.0,46.0,46.0,44.0,44.0,42.0,42.0,41.0,42.0,42.0,41.0,42.0,40.0,40.0,41.0,42.0,43.0,43.0,45.0,46.0,46.0,49.0,50.0,51.0,52.0,53.0,57.0,58.0,58.0,58.0,61.0,62.0,61.0,63.0,64.0,65.0,66.0,67.0,67.0,68.0,69.0,69.0,68.0,69.0,71.0,68.0,69.0,70.0,71.0,70.0,70.0,69.0,71.0,72.0,72.0,74.0,75.0,75.0,75.0,75.0,76.0,75.0,76.0,76.0,75.0,75.0,73.0,73.0,71.0,73.0,71.0,72.0,72.0,72.0,72.0,72.0,70.0,70.0,70.0,68.0,69.0,67.0,67.0,66.0,65.0,64.0,64.0,63.0,62.0,62.0,62.0,62.0,64.0,63.0,65.0,64.0,62.0,63.0,63.0,65.0,65.0,65.0,65.0,64.0,64.0,64.0,64.0,64.0,63.0,62.0,63.0,63.0,62.0,63.0,62.0,61.0,63.0,63.0,63.0,61.0,61.0,62.0,60.0,62.0,65.0,65.0,65.0,64.0,66.0,66.0,66.0,67.0,67.0,67.0,65.0,65.0,66.0,64.0,65.0,65.0,66.0,65.0,65.0,67.0,66.0,67.0,68.0,68.0,68.0,66.0,68.0,66.0,66.0,68.0,64.0,64.0,64.0,64.0,64.0,63.0,62.0,62.0,59.0,59.0,57.0,57.0,57.0,55.0,56.0,56.0,56.0,56.0,58.0,57.0,57.0,56.0,56.0,59.0,59.0,58.0,59.0,58.0,57.0,57.0,55.0,57.0,55.0,55.0,52.0,54.0,53.0,52.0,53.0,53.0,54.0,54.0,54.0,53.0,54.0,54.0,55.0,56.0,57.0,58.0,57.0,57.0,58.0,59.0,58.0,59.0,58.0,61.0,59.0,59.0,60.0,60.0,59.0,60.0,58.0,58.0,58.0,55.0,54.0,54.0,52.0,52.0,52.0,50.0,50.0,49.0,49.0,49.0,48.0,48.0,48.0,48.0,49.0,47.0,49.0,50.0,51.0,52.0,52.0,53.0,52.0,53.0,54.0,53.0,55.0,56.0,56.0,58.0,60.0,60.0,60.0,60.0,61.0,61.0,62.0,60.0,60.0,58.0,60.0,59.0,58.0,58.0,56.0,56.0,55.0,55.0,52.0,53.0,52.0,52.0,53.0,53.0,52.0,49.0,48.0,49.0,48.0,49.0,51.0,50.0,52.0,54.0,54.0,55.0,53.0,54.0,54.0,54.0,55.0,55.0,55.0,54.0,54.0,54.0,54.0,56.0,56.0,55.0,55.0,56.0,57.0,56.0,54.0,58.0,57.0,55.0,54.0,54.0,54.0,52.0,53.0,51.0,52.0,51.0,51.0,52.0,50.0,52.0,51.0,51.0,52.0,52.0,52.0,54.0,54.0,54.0,53.0,53.0,52.0,51.0,50.0,50.0,50.0,48.0,46.0,45.0,46.0,44.0,44.0,43.0,42.0,41.0,41.0,41.0,40.0,39.0,40.0,39.0,39.0,40.0,39.0,41.0,42.0,44.0,46.0,46.0,49.0,50.0,54.0,58.0,61.0,64.0,67.0,69.0,73.0,77.0,78.0,83.0,85.0,88.0,91.0,95.0,99.0,102.0,104.0,106.0,110.0,116.0,119.0,123.0,127.0,129.0,132.0,137.0,138.0,143.0,146.0,150.0,153.0,156.0,161.0,163.0,165.0,168.0,172.0,174.0,176.0,180.0,183.0,185.0,188.0,191.0,196.0,196.0,199.0,201.0,203.0,206.0,208.0,209.0,209.0,210.0,211.0
29.0,26.0,35.0,36.0,39.0,45.0,46.0,43.0,38.0,35.0,40.0,35.0,33.0,44.0,57.0,50.0,43.0,39.0,39.0,34.0,34.0,30.0,42.0,41.0,42.0,53.0,49.0,44.0,38.0,34.0,33.0,29.0,33.0,37.0,39.0,34.0,31.0,35.0,38.0,59.0,56.0,55.0,50.0,52.0,46.0,48.0,42.0,37.0,36.0,38.0,36.0,36.0,37.0,42.0,41.0,37.0,34.0,34.0,31.0,30.0,31.0,35.0,52.0,47.0,41.0,36.0,33.0,30.0,30.0,35.0,39.0,35.0,34.0,38.0,34.0,30.0,28.0,31.0,30.0,26.0,35.0,33.0,35.0,39.0,41.0,37.0,33.0,32.0,29.0,33.0,39.0,52.0,57.0,49.0,44.0,41.0,39.0,38.0,45.0,43.0,41.0,34.0,40.0,47.0,59.0,74.0,69.0,67.0,60.0,53.0,53.0,50.0,45.0,43.0,39.0,41.0,38.0,45.0,43.0,41.0,43.0,39.0,34.0,42.0,39.0,37.0,35.0,37.0,35.0,32.0,30.0,39.0,45.0,40.0,35.0,31.0,28.0,25.0,26.0,26.0,26.0,33.0,30.0,27.0,26.0,22.0,20.0,18.0,16.0,16.0,19.0,19.0,16.0,14.0,13.0,11.0,10.0,9.0,9.0,8.0,7.0,8.0,7.0,10.0,13.0,13.0,13.0,12.0,15.0,13.0,13.0,12.0,11.0,10.0,8.0,8.0,8.0,8.0,9.0,10.0,13.0,15.0,16.0,17.0,16.0,22.0,21.0,37.0,33.0,32.0,37.0,39.0,46.0,43.0,41.0,41.0,54.0,50.0,62.0,58.0,55.0,53.0,56.0,52.0,49.0,60.0,59.0,64.0,65.0,68.0,67.0,63.0,60.0,67.0,59.0,53.0,49.0,48.0,50.0,56.0,50.0,51.0,46.0,40.0,37.0,33.0,32.0,33.0,30.0,29.0,29.0,27.0,26.0,22.0,24.0,22.0,22.0,20.0,19.0,19.0,16.0,16.0,16.0,16.0,18.0,15.0,16.0,15.0,15.0,14.0,13.0,13.0,13.0,12.0,11.0,9.0,9.0,9.0,9.0,8.0,7.0,8.0,12.0,15.0,14.0,14.0,13.0,11.0,10.0,10.0,10.0,10.0,9.0,8.0,10.0,13.0,15.0,14.0,15.0,14.0,13.0,12.0,11.0,10.0,8.0,15.0,13.0,16.0,15.0,13.0,12.0,11.0,11.0,10.0,10.0,10.0,8.0,9.0,10.0,9.0,8.0,8.0,8.0,8.0,7.0,8.0,7.0,8.0,9.0,9.0,11.0,12.0,12.0,10.0,10.0,10.0,11.0,14.0,12.0,15.0,13.0,12.0,18.0,21.0,20.0,21.0,21.0,21.0,19.0,23.0,24.0,28.0,38.0,41.0,43.0,46.0,53.0,51.0,55.0,58.0,57.0,62.0,67.0,71.0,72.0,75.0,75.0,71.0,83.0,83.0,86.0,88.0,89.0,97.0,96.0,105.0,106.0,100.0,107.0,110.0,112.0,115.0,122.0,124.0,129.0,129.0,133.0,138.0,140.0,143.0,147.0,150.0,154.0,159.0,166.0,168.0,168.0,173.0,167.0,170.0,176.0,210.0,221.0,232.0,239.0,245.0,246.0,242.0,262.0,258.0,246.0,245.0,255.0,245.0,238.0,264.0,249.0,231.0,245.0,252.0,251.0,250.0,278.0,270.0,262.0,258.0,257.0,261.0,273.0,280.0,284.0,287.0,284.0,288.0,286.0,280.0,272.0,274.0,272.0,276.0,269.0,271.0,272.0,258.0,259.0,253.0,252.0,246.0,245.0,261.0,256.0,245.0,243.0,243.0,243.0,243.0,225.0,220.0,221.0,222.0,219.0,215.0,221.0,215.0,217.0,206.0,200.0,197.0,198.0,196.0,201.0,201.0,199.0,193.0,187.0,183.0,176.0,170.0,170.0,170.0,172.0,183.0,169.0,176.0,166.0,162.0,158.0,156.0,158.0,161.0,163.0,160.0,152.0,145.0,137.0,135.0,135.0,139.0,132.0,134.0,130.0,137.0,127.0,117.0,109.0,115.0,111.0,104.0,107.0,104.0,99.0,99.0,108.0,108.0,102.0,96.0,94.0,94.0,92.0,94.0,86.0,86.0,85.0,88.0,92.0,99.0,90.0,84.0,82.0,80.0,76.0,76.0,74.0,71.0,78.0,73.0,74.0,73.0,73.0,67.0,59.0,55.0,51.0,52.0,49.0,52.0,51.0,45.0,49.0,57.0,51.0,45.0,40.0,40.0,45.0,41.0,36.0,39.0,41.0,41.0,38.0,39.0,37.0,32.0,29.0,26.0,23.0,26.0,24.0,32.0,28.0,24.0,26.0,24.0,22.0,19.0,20.0,17.0,19.0,34.0,42.0,60.0,77.0,91.0,100.0,90.0,85.0,73.0,66.0,58.0,49.0,48.0,44.0,47.0,42.0,37.0,34.0,30.0,27.0,26.0,24.0,23.0,21.0,21.0,18.0,16.0,17.0,15.0,14.0,17.0,16.0,16.0,16.0,19.0,19.0,16.0,15.0,14.0,15.0,14.0,12.0,12.0,13.0,14.0,15.0,18.0,20.0,17.0,16.0,16.0,18.0,23.0,22.0,21.0,22.0,23.0,23.0,22.0,24.0,29.0,26.0,23.0,22.0,28.0,25.0,25.0,24.0,33.0,29.0,27.0,29.0,30.0,27.0,28.0,25.0,24.0,23.0,24.0,24.0,21.0,23.0,21.0,24.0,20.0,26.0,26.0,24.0,26.0,29.0,28.0,28.0,27.0,26.0,26.0,24.0,27.0,30.0,33.0,30.0,28.0,28.0,27.0,29.0,29.0,29.0,26.0,30.0,30.0,30.0,28.0,26.0,25.0,22.0,24.0,31.0,29.0,30.0,27.0,29.0,32.0,32.0,32.0,31.0,31.0,27.0,25.0,31.0,30.0,33.0,35.0,34.0,33.0,32.0,34.0,29.0,26.0,26.0,26.0,24.0,24.0,23.0,22.0,23.0,21.0,22.0,23.0,20.0,20.0,23.0,26.0,24.0,22.0,20.0,19.0,17.0,21.0,18.0,18.0,15.0,15.0,14.0,14.0,15.0,18.0,16.0,16.0,15.0,14.0,13.0,13.0,13.0,10.0,10.0,11.0,11.0,10.0,11.0,12.0,12.0,13.0,13.0,12.0,11.0,17.0,17.0,18.0,20.0,21.0,19.0,19.0,21.0,22.0,19.0,17.0,16.0,15.0,20.0,21.0,20.0,17.0,16.0,19.0,16.0,17.0,15.0,17.0,19.0,17.0,15.0,15.0,14.0,19.0,21.0,19.0,17.0,20.0,22.0,20.0,23.0,24.0,25.0,24.0,23.0,21.0,18.0,18.0,20.0,22.0,23.0,21.0,19.0,18.0,17.0,17.0,19.0,19.0,16.0,16.0,18.0,16.0,16.0,16.0,15.0,14.0,15.0,15.0,14.0,13.0,13.0,14.0,19.0,15.0,15.0,13.0,12.0,13.0,11.0,11.0,12.0,16.0,15.0,14.0,14.0,16.0,15.0,14.0,14.0,13.0,11.0,11.0,10.0,9.0,15.0,14.0,17.0,18.0,15.0,15.0,13.0,12.0,14.0,13.0,12.0,14.0,13.0,12.0,12.0,10.0,11.0,12.0,15.0,14.0,13.0,12.0,12.0,10.0,12.0,11.0,11.0,12.0,12.0,12.0,10.0,10.0,10.0,9.0,12.0,13.0,14.0,13.0,16.0,15.0,14.0,14.0,14.0,13.0,13.0,12.0,11.0,9.0,8.0,8.0,8.0,7.0,6.0,7.0,6.0,5.0,13.0,11.0,14.0,12.0,13.0,11.0,10.0,10.0,9.0,11.0,12.0,15.0,15.0,14.0,15.0,16.0,13.0,14.0,14.0,19.0,17.0,15.0,17.0,15.0,15.0,18.0,17.0,16.0,16.0,16.0,15.0,15.0,14.0,12.0,11.0,10.0,11.0,10.0,9.0,9.0,9.0,8.0,8.0,10.0,9.0,9.0,9.0,7.0,8.0,8.0,8.0,8.0,6.0,7.0,8.0,10.0,9.0,8.0,7.0,7.0,8.0,7.0,6.0,7.0,6.0,6.0,5.0,5.0,6.0,6.0,6.0,6.0,6.0,6.0,7.0,10.0,8.0,7.0,7.0,6.0,6.0,5.0,5.0,10.0,8.0,8.0,8.0,9.0,8.0,8.0,9.0,8.0,7.0,7.0,9.0,10.0,8.0,9.0,11.0,10.0,11.0,10.0,8.0,9.0,11.0,10.0,9.0,8.0,8.0,8.0,9.0,8.0
102.0,112.0,114.0,114.0,114.0,110.0,115.0,117.0,109.0,98.0,109.0,113.0,114.0,113.0,129.0,139.0,136.0,136.0,133.0,126.0,122.0,119.0,113.0,117.0,109.0,108.0,104.0,107.0,102.0,103.0,101.0,116.0,122.0,132.0,141.0,151.0,151.0,144.0,139.0,132.0,127.0,119.0,109.0,108.0,110.0,109.0,101.0,104.0,99.0,101.0,104.0,104.0,104.0,132.0,129.0,124.0,122.0,133.0,131.0,124.0,120.0,115.0,121.0,119.0,115.0,118.0,122.0,131.0,126.0,115.0,113.0,114.0,122.0,127.0,131.0,130.0,128.0,135.0,131.0,135.0,125.0,116.0,116.0,114.0,127.0,134.0,135.0,142.0,133.0,136.0,132.0,135.0,150.0,141.0,136.0,128.0,131.0,142.0,136.0,129.0,127.0,129.0,137.0,139.0,132.0,119.0,113.0,107.0,98.0,111.0,109.0,100.0,106.0,138.0,135.0,142.0,141.0,140.0,145.0,139.0,136.0,130.0,123.0,131.0,133.0,135.0,128.0,123.0,128.0,126.0,126.0,129.0,132.0,129.0,126.0,123.0,118.0,132.0,134.0,133.0,126.0,120.0,120.0,121.0,125.0,118.0,125.0,129.0,128.0,133.0,125.0,123.0,125.0,119.0,122.0,116.0,116.0,107.0,100.0,99.0,92.0,88.0,84.0,77.0,74.0,72.0,67.0,64.0,59.0,56.0,57.0,64.0,68.0,70.0,67.0,65.0,65.0,64.0,63.0,71.0,75.0,90.0,114.0,139.0,137.0,128.0,122.0,157.0,170.0,168.0,158.0,148.0,136.0,152.0,174.0,205.0,339.0,395.0,500.0,456.0,469.0,446.0,434.0,434.0,417.0,468.0,449.0,494.0,520.0,582.0,545.0,514.0,465.0,543.0,532.0,470.0,460.0,452.0,475.0,564.0,544.0,594.0,558.0,510.0,484.0,433.0,382.0,398.0,402.0,420.0,448.0,438.0,457.0,410.0,431.0,418.0,400.0,368.0,376.0,351.0,333.0,345.0,334.0,341.0,341.0,325.0,333.0,298.0,304.0,321.0,304.0,289.0,315.0,309.0,297.0,284.0,293.0,288.0,261.0,237.0,231.0,249.0,276.0,294.0,292.0,272.0,273.0,266.0,266.0,261.0,270.0,275.0,272.0,260.0,277.0,345.0,338.0,338.0,320.0,300.0,280.0,264.0,250.0,249.0,242.0,274.0,274.0,285.0,286.0,289.0,304.0,299.0,278.0,301.0,309.0,310.0,286.0,291.0,286.0,280.0,285.0,277.0,266.0,253.0,243.0,263.0,250.0,262.0,271.0,281.0,277.0,261.0,253.0,249.0,238.0,250.0,272.0,274.0,255.0,290.0,272.0,284.0,272.0,288.0,276.0,262.0,244.0,244.0,240.0,238.0,253.0,289.0,294.0,266.0,255.0,286.0,251.0,249.0,248.0,228.0,225.0,220.0,266.0,243.0,262.0,249.0,230.0,246.0,256.0,235.0,221.0,272.0,315.0,296.0,297.0,296.0,265.0,278.0,285.0,268.0,304.0,299.0,281.0,271.0,266.0,241.0,235.0,214.0,196.0,184.0,174.0,174.0,167.0,180.0,163.0,154.0,152.0,156.0,155.0,163.0,170.0,185.0,175.0,161.0,160.0,160.0,162.0,192.0,203.0,221.0,304.0,346.0,343.0,357.0,381.0,373.0,368.0,342.0,341.0,336.0,310.0,355.0,362.0,327.0,300.0,279.0,251.0,224.0,211.0,200.0,188.0,191.0,179.0,176.0,167.0,156.0,163.0,159.0,151.0,144.0,138.0,135.0,137.0,124.0,125.0,135.0,134.0,130.0,130.0,124.0,122.0,124.0,143.0,146.0,136.0,135.0,132.0,131.0,141.0,139.0,132.0,133.0,126.0,128.0,126.0,124.0,129.0,125.0,118.0,118.0,111.0,107.0,107.0,124.0,123.0,120.0,114.0,113.0,106.0,101.0,106.0,105.0,106.0,107.0,111.0,118.0,116.0,111.0,115.0,108.0,103.0,101.0,103.0,110.0,108.0,111.0,105.0,99.0,98.0,100.0,99.0,101.0,96.0,98.0,95.0,94.0,99.0,97.0,97.0,96.0,96.0,102.0,99.0,100.0,100.0,105.0,109.0,106.0,121.0,118.0,110.0,108.0,105.0,99.0,98.0,95.0,98.0,90.0,92.0,99.0,97.0,102.0,98.0,96.0,101.0,102.0,108.0,111.0,102.0,101.0,94.0,97.0,105.0,111.0,106.0,103.0,98.0,97.0,93.0,97.0,100.0,94.0,94.0,88.0,88.0,86.0,83.0,79.0,85.0,99.0,98.0,94.0,92.0,89.0,85.0,82.0,82.0,86.0,80.0,93.0,91.0,86.0,89.0,94.0,94.0,91.0,87.0,84.0,82.0,91.0,89.0,85.0,90.0,98.0,113.0,119.0,118.0,112.0,107.0,111.0,114.0,121.0,118.0,113.0,105.0,116.0,119.0,130.0,128.0,118.0,108.0,103.0,103.0,98.0,98.0,97.0,89.0,87.0,88.0,95.0,94.0,91.0,89.0,92.0,94.0,84.0,82.0,91.0,88.0,84.0,81.0,78.0,74.0,72.0,73.0,71.0,69.0,65.0,68.0,67.0,66.0,69.0,66.0,69.0,69.0,67.0,65.0,64.0,67.0,68.0,67.0,71.0,69.0,81.0,77.0,76.0,75.0,76.0,78.0,74.0,77.0,80.0,74.0,76.0,71.0,71.0,71.0,68.0,65.0,64.0,66.0,68.0,66.0,75.0,69.0,72.0,73.0,77.0,77.0,75.0,76.0,73.0,89.0,83.0,87.0,81.0,80.0,79.0,79.0,75.0,80.0,76.0,72.0,75.0,77.0,82.0,79.0,75.0,74.0,75.0,74.0,73.0,79.0,77.0,79.0,75.0,70.0,76.0,72.0,72.0,73.0,69.0,69.0,73.0,70.0,72.0,78.0,77.0,75.0,80.0,80.0,76.0,73.0,74.0,74.0,72.0,73.0,74.0,70.0,71.0,71.0,67.0,66.0,69.0,68.0,68.0,64.0,63.0,71.0,71.0,68.0,67.0,61.0,62.0,68.0,71.0,70.0,69.0,65.0,64.0,63.0,65.0,62.0,63.0,60.0,61.0,63.0,63.0,63.0,61.0,61.0,62.0,61.0,59.0,58.0,58.0,63.0,65.0,62.0,59.0,59.0,60.0,55.0,69.0,73.0,67.0,69.0,72.0,70.0,71.0,67.0,63.0,63.0,61.0,58.0,70.0,65.0,63.0,63.0,63.0,65.0,65.0,64.0,70.0,68.0,66.0,67.0,70.0,72.0,72.0,68.0,64.0,65.0,59.0,64.0,68.0,71.0,65.0,70.0,68.0,66.0,65.0,64.0,59.0,58.0,62.0,59.0,59.0,62.0,58.0,57.0,56.0,53.0,54.0,61.0,61.0,62.0,58.0,56.0,57.0,60.0,58.0,54.0,51.0,52.0,60.0,58.0,62.0,60.0,64.0,65.0,62.0,60.0,60.0,60.0,61.0,58.0,63.0,61.0,70.0,65.0,63.0,60.0,63.0,60.0,60.0,61.0,58.0,60.0,59.0,59.0,64.0,60.0,60.0,61.0,60.0,56.0,57.0,58.0,55.0,65.0,70.0,75.0,81.0,80.0,83.0,88.0,102.0,121.0,119.0,138.0,144.0,133.0,141.0,129.0,121.0,116.0,110.0,103.0,105.0,98.0,92.0,96.0,92.0,91.0,90.0,87.0,82.0,79.0,75.0,74.0,71.0,78.0,72.0,82.0,79.0,101.0,118.0,112.0,109.0,98.0,92.0,83.0,81.0,82.0,80.0,101.0,133.0,140.0,132.0,130.0,118.0,107.0,101.0,94.0,98.0,94.0,88.0,99.0,99.0,95.0,91.0,90.0,86.0,85.0,84.0,81.0,90.0,89.0,85.0,81.0,82.0,81.0,88.0,94.0,94.0,87.0,98.0,91.0,92.0,85.0,80.0,75.0,72.0,80.0,78.0,77.0,79.0,80.0,77.0,81.0,84.0,88.0,91.0,90.0,86.0,84.0,93.0,97.0,94.0,89.0,83.0,93.0,90.0,91.0,94.0,89.0,90.0,91.0,86.0,79.0,77.0,75.0,79.0,84.0,79.0,79.0,76.0,81.0,88.0,80.0,83.0,78.0,75.0,80.0,78.0,88.0,87.0,82.0,80.0,77.0,71.0,76.0,81.0,85.0,88.0,84.0,81.0,80.0,80.0,75.0,77.0,89.0,84.0,78.0,82.0,82.0,83.0,82.0,80.0,84.0,93.0,90.0,86.0,80.0,79.0,80.0,88.0,90.0,90.0
