242.0,248.0,253.0,257.0,259.0,258.0,260.0,257.0,253.0,252.0,248.0,246.0,244.0,240.0,237.0,232.0,229.0,226.0,224.0,221.0,216.0,212.0,212.0,208.0,206.0,201.0,199.0,196.0,193.0,190.0,188.0,187.0,184.0,181.0,177.0,173.0,171.0,166.0,162.0,158.0,157.0,154.0,152.0,150.0,148.0,145.0,142.0,140.0,140.0,136.0,135.0,133.0,131.0,129.0,126.0,124.0,122.0,119.0,117.0,115.0,113.0,110.0,109.0,109.0,107.0,106.0,107.0,106.0,105.0,104.0,105.0,103.0,103.0,103.0,103.0,104.0,101.0,102.0,102.0,100.0,99.0,98.0,98.0,95.0,95.0,94.0,92.0,91.0,89.0,87.0,86.0,83.0,80.0,78.0,76.0,74.0,70.0,68.0,65.0,63.0,60.0,58.0,56.0,54.0,53.0,53.0,51.0,53.0,52.0,54.0,54.0,55.0,55.0,53.0,57.0,57.0,59.0,61.0,63.0,65.0,67.0,70.0,71.0,71.0,72.0,72.0,77.0,78.0,77.0,82.0,84.0,86.0,88.0,88.0,88.0,90.0,92.0,92.0,92.0,96.0,95.0,96.0,98.0,101.0,100.0,103.0,102.0,104.0,103.0,105.0,106.0,109.0,108.0,109.0,110.0,111.0,113.0,115.0,114.0,114.0,114.0,115.0,115.0,117.0,117.0,118.0,117.0,118.0,121.0,122.0,123.0,124.0,125.0,127.0,127.0,126.0,127.0,128.0,130.0,130.0,127.0,122.0,126.0,125.0,129.0,128.0,135.0,132.0,136.0,153.0,174.0,192.0,184.0,174.0,172.0,175.0,165.0,163.0,162.0,159.0,162.0,159.0,157.0,154.0,160.0,157.0,156.0,155.0,149.0,155.0,153.0,148.0,144.0,141.0,139.0,139.0,138.0,139.0,139.0,139.0,140.0,140.0,140.0,141.0,139.0,143.0,139.0,136.0,133.0,135.0,134.0,135.0,134.0,133.0,135.0,135.0,136.0,136.0,134.0,142.0,136.0,136.0,139.0,132.0,130.0,141.0,133.0,140.0,150.0,153.0,150.0,151.0,143.0,141.0,140.0,144.0,144.0,146.0,145.0,149.0,145.0,143.0,142.0,137.0,146.0,144.0,143.0,143.0,145.0,140.0,136.0,140.0,141.0,146.0,156.0,151.0,149.0,150.0,157.0,158.0,160.0,162.0,167.0,167.0,166.0,170.0,170.0,169.0,170.0,170.0,174.0,172.0,172.0,172.0,170.0,171.0,163.0,168.0,164.0,161.0,159.0,165.0,163.0,156.0,153.0,155.0,150.0,150.0,150.0,148.0,148.0,152.0,148.0,145.0,144.0,150.0,144.0,140.0,136.0,132.0,128.0,122.0,124.0,121.0,115.0,109.0,107.0,105.0,105.0,105.0,103.0,99.0,100.0,99.0,95.0,94.0,91.0,89.0,86.0,84.0,82.0,85.0,86.0,88.0,86.0,84.0,84.0,81.0,86.0,83.0,80.0,83.0,88.0,87.0,89.0,87.0,89.0,86.0,82.0,85.0,82.0,81.0,85.0,90.0,91.0,89.0,99.0,101.0,97.0,97.0,101.0,99.0,102.0,107.0,112.0,113.0,109.0,107.0,106.0,112.0,112.0,122.0,123.0,125.0,129.0,125.0,122.0,122.0,124.0,125.0,127.0,123.0,125.0,127.0,130.0,130.0,123.0,119.0,120.0,114.0,111.0,110.0,109.0,109.0,104.0,104.0,105.0,115.0,110.0,114.0,112.0,109.0,109.0,108.0,105.0,105.0,104.0,104.0,106.0,103.0,103.0,104.0,106.0,105.0,103.0,101.0,105.0,106.0,106.0,107.0,104.0,103.0,104.0,102.0,103.0,103.0,101.0,101.0,98.0,97.0,99.0,98.0,95.0,94.0,93.0,94.0,90.0,93.0,95.0,92.0,93.0,93.0,89.0,88.0,89.0,88.0,88.0,86.0,99.0,99.0,94.0,93.0,90.0,87.0,88.0,89.0,88.0,84.0,82.0,82.0,80.0,76.0,72.0,73.0,71.0,69.0,69.0,67.0,83.0,85.0,82.0,82.0,79.0,74.0,72.0,70.0,73.0,74.0,78.0,81.0,89.0,91.0,90.0,98.0,96.0,98.0,95.0,90.0,88.0,85.0,84.0,79.0,57.0,32.0,4.0,0.0,1.0,0.0,0.0,0.0,0.0,0.0,0.0,0.0,0.0,0.0,0.0,1.0,0.0,0.0,0.0,0.0,0.0,0.0,0.0,0.0,0.0,0.0,0.0,0.0,0.0,0.0,0.0,0.0,0.0,0.0,0.0,0.0,0.0,0.0,0.0,0.0,0.0,0.0,0.0,0.0,0.0,0.0,0.0,0.0,0.0,0.0,0.0,0.0,0.0,0.0,0.0,0.0,0.0,0.0,0.0,0.0,0.0,0.0,0.0,0.0,0.0,0.0,0.0,0.0,0.0,0.0,0.0,0.0,0.0,0.0,0.0,0.0,0.0,0.0,0.0,0.0,0.0,0.0,0.0,0.0,0.0,0.0,0.0,0.0,0.0,0.0,0.0,0.0,0.0,0.0,0.0,0.0,0.0,0.0,0.0,0.0,0.0,0.0,0.0,0.0,0.0,0.0,0.0,0.0,0.0,0.0,0.0,0.0,0.0,0.0,0.0,0.0,0.0,0.0,0.0,0.0,0.0,0.0,0.0,0.0,0.0,0.0,0.0,0.0,0.0,0.0,0.0,0.0,0.0,0.0,0.0,0.0,0.0,0.0,0.0,0.0,0.0,0.0,0.0,0.0,0.0,0.0,0.0,0.0,0.0,0.0,0.0,0.0,0.0,0.0,0.0,0.0,0.0,0.0,0.0,0.0,0.0,0.0,0.0,0.0,0.0,0.0,0.0,0.0,0.0,0.0,0.0,0.0,0.0,0.0,0.0,0.0,0.0,0.0,0.0,667.0,667.0,643.0,645.0,653.0,636.0,616.0,649.0,654.0,653.0,650.0,655.0,656.0,658.0,659.0,659.0,655.0,662.0,660.0,662.0,662.0,661.0,606.0,81.0,3.0,0.0,0.0,0.0,0.0,667.0,668.0,668.0,667.0,665.0,658.0,660.0,660.0,661.0,661.0,661.0,661.0,661.0,661.0,661.0,662.0,663.0,662.0,662.0,662.0,662.0,663.0,663.0,663.0,663.0,663.0,663.0,662.0,661.0,660.0,663.0,663.0,663.0,663.0,663.0,663.0,663.0,663.0,663.0,665.0,660.0,658.0,660.0,657.0,656.0,656.0,653.0,651.0,648.0,646.0,646.0,646.0,591.0,533.0,490.0,459.0,436.0,419.0,408.0,404.0,404.0,409.0,418.0,428.0,439.0,452.0,467.0,483.0,501.0,517.0,537.0,554.0,573.0,589.0,605.0,620.0,639.0,655.0,655.0,644.0,633.0,433.0,235.0,194.0,146.0,7.0,0.0,0.0,0.0,0.0,0.0,0.0,690.0,669.0,668.0,160.0,664.0,669.0,667.0,666.0,667.0,666.0,649.0,657.0,660.0,659.0,656.0,654.0,654.0,656.0,657.0,651.0,650.0,647.0,634.0,636.0,563.0,178.0,28.0,1.0,0.0,0.0,668.0,668.0,668.0,669.0,668.0,668.0,668.0,668.0,668.0,668.0,668.0,668.0,667.0,667.0,668.0,667.0,667.0,667.0,668.0,667.0,668.0,667.0,667.0,664.0,664.0,667.0,668.0,668.0,668.0,668.0,668.0,668.0,662.0,665.0,665.0,665.0,665.0,667.0,668.0,668.0,665.0,664.0,663.0,663.0,666.0,667.0,667.0,667.0,669.0,668.0,669.0,668.0,668.0,668.0,670.0,669.0,668.0,669.0,669.0,668.0,668.0,668.0,668.0,670.0,669.0,668.0,668.0,668.0,669.0,668.0,669.0,668.0,668.0,669.0,668.0,668.0,668.0,669.0,668.0,667.0,667.0,668.0,668.0,668.0,668.0,669.0,668.0,667.0,668.0,668.0,668.0,668.0,668.0,668.0,669.0,669.0,668.0,668.0,668.0,669.0,669.0,669.0,668.0,668.0,669.0,668.0,668.0,670.0,669.0,668.0,668.0,668.0,669.0,668.0,670.0,669.0,668.0,669.0,668.0,669.0,668.0,669.0,670.0,669.0,669.0,669.0,669.0,668.0,669.0,670.0,669.0,669.0,668.0,669.0,668.0,669.0,669.0,668.0,668.0,667.0,667.0,668.0,668.0,668.0,668.0,667.0,667.0,666.0,665.0,666.0,667.0,667.0,667.0,661.0,653.0,649.0,644.0,639.0,633.0,630.0,622.0,618.0,612.0,605.0,601.0,596.0,591.0,587.0
56.0,57.0,58.0,58.0,58.0,61.0,63.0,65.0,68.0,71.0,76.0,82.0,87.0,93.0,97.0,102.0,102.0,103.0,104.0,106.0,107.0,109.0,108.0,108.0,106.0,108.0,109.0,108.0,110.0,112.0,117.0,116.0,120.0,125.0,131.0,136.0,137.0,142.0,144.0,146.0,149.0,153.0,155.0,157.0,161.0,164.0,167.0,168.0,170.0,172.0,172.0,173.0,174.0,174.0,175.0,176.0,176.0,176.0,176.0,178.0,178.0,179.0,180.0,181.0,183.0,185.0,187.0,188.0,192.0,194.0,195.0,198.0,201.0,204.0,208.0,209.0,212.0,211.0,212.0,214.0,213.0,214.0,212.0,214.0,212.0,212.0,212.0,211.0,212.0,211.0,211.0,210.0,210.0,209.0,209.0,209.0,210.0,211.0,212.0,213.0,215.0,217.0,218.0,220.0,223.0,227.0,229.0,230.0,233.0,237.0,240.0,243.0,242.0,242.0,244.0,246.0,249.0,252.0,254.0,254.0,257.0,258.0,259.0,259.0,259.0,259.0,264.0,266.0,265.0,265.0,268.0,269.0,272.0,270.0,271.0,271.0,270.0,270.0,269.0,270.0,267.0,266.0,269.0,270.0,270.0,271.0,271.0,274.0,273.0,274.0,276.0,278.0,278.0,277.0,280.0,282.0,282.0,282.0,279.0,279.0,276.0,276.0,274.0,274.0,272.0,269.0,268.0,267.0,265.0,264.0,260.0,258.0,255.0,253.0,251.0,247.0,245.0,242.0,241.0,239.0,233.0,233.0,232.0,227.0,229.0,226.0,227.0,224.0,228.0,234.0,244.0,246.0,242.0,240.0,242.0,247.0,248.0,251.0,257.0,263.0,269.0,273.0,277.0,281.0,300.0,300.0,307.0,304.0,301.0,299.0,297.0,295.0,296.0,295.0,292.0,291.0,288.0,289.0,293.0,288.0,296.0,284.0,280.0,277.0,270.0,270.0,268.0,271.0,274.0,282.0,288.0,298.0,298.0,303.0,308.0,313.0,316.0,319.0,322.0,346.0,328.0,328.0,337.0,327.0,327.0,337.0,328.0,333.0,340.0,356.0,368.0,380.0,381.0,389.0,405.0,406.0,408.0,415.0,426.0,441.0,447.0,442.0,445.0,446.0,462.0,468.0,471.0,480.0,483.0,484.0,483.0,487.0,490.0,495.0,498.0,493.0,489.0,487.0,489.0,483.0,482.0,476.0,469.0,460.0,450.0,443.0,438.0,423.0,415.0,402.0,395.0,384.0,373.0,360.0,348.0,336.0,327.0,326.0,317.0,311.0,305.0,307.0,302.0,296.0,295.0,294.0,289.0,287.0,288.0,284.0,281.0,279.0,276.0,275.0,271.0,270.0,267.0,263.0,263.0,259.0,256.0,254.0,252.0,252.0,246.0,243.0,243.0,242.0,241.0,235.0,234.0,230.0,228.0,227.0,222.0,223.0,223.0,221.0,219.0,218.0,218.0,218.0,214.0,219.0,213.0,211.0,210.0,204.0,206.0,203.0,201.0,197.0,202.0,208.0,201.0,196.0,195.0,193.0,189.0,193.0,187.0,185.0,180.0,208.0,193.0,180.0,181.0,179.0,172.0,168.0,187.0,180.0,169.0,179.0,179.0,167.0,161.0,152.0,143.0,144.0,136.0,138.0,133.0,126.0,125.0,116.0,110.0,104.0,103.0,103.0,96.0,94.0,92.0,90.0,99.0,97.0,92.0,90.0,93.0,93.0,93.0,99.0,96.0,94.0,92.0,101.0,100.0,100.0,95.0,98.0,99.0,99.0,104.0,105.0,105.0,109.0,107.0,108.0,107.0,104.0,104.0,107.0,111.0,110.0,107.0,110.0,114.0,116.0,111.0,113.0,113.0,116.0,115.0,119.0,119.0,117.0,116.0,117.0,118.0,119.0,122.0,123.0,119.0,124.0,126.0,127.0,122.0,120.0,120.0,114.0,119.0,113.0,111.0,109.0,109.0,113.0,110.0,109.0,108.0,110.0,108.0,101.0,98.0,96.0,99.0,98.0,96.0,102.0,96.0,97.0,98.0,98.0,95.0,95.0,91.0,91.0,91.0,94.0,99.0,97.0,97.0,99.0,96.0,96.0,97.0,99.0,109.0,110.0,111.0,118.0,113.0,104.0,105.0,118.0,117.0,114.0,105.0,99.0,95.0,91.0,88.0,84.0,82.0,87.0,99.0,113.0,127.0,138.0,154.0,171.0,181.0,192.0,201.0,213.0,220.0,230.0,234.0,239.0,242.0,243.0,246.0,248.0,248.0,247.0,244.0,244.0,243.0,243.0,241.0,235.0,230.0,227.0,223.0,217.0,214.0,209.0,202.0,197.0,192.0,187.0,184.0,179.0,172.0,170.0,164.0,159.0,155.0,153.0,147.0,143.0,138.0,134.0,131.0,129.0,128.0,126.0,121.0,118.0,117.0,116.0,114.0,112.0,111.0,108.0,106.0,103.0,104.0,102.0,99.0,97.0,96.0,95.0,92.0,90.0,87.0,88.0,84.0,81.0,80.0,77.0,75.0,75.0,74.0,73.0,71.0,73.0,70.0,71.0,70.0,69.0,69.0,69.0,73.0,75.0,74.0,75.0,78.0,80.0,81.0,87.0,88.0,92.0,94.0,97.0,101.0,106.0,107.0,109.0,112.0,113.0,114.0,112.0,111.0,106.0,106.0,102.0,101.0,101.0,99.0,99.0,97.0,97.0,94.0,92.0,91.0,93.0,92.0,91.0,93.0,93.0,93.0,96.0,93.0,92.0,93.0,94.0,95.0,96.0,98.0,100.0,101.0,102.0,105.0,105.0,110.0,112.0,111.0,113.0,116.0,117.0,120.0,119.0,121.0,123.0,122.0,122.0,121.0,122.0,118.0,116.0,116.0,114.0,112.0,109.0,107.0,104.0,102.0,101.0,99.0,98.0,96.0,96.0,94.0,91.0,90.0,86.0,79.0,74.0,75.0,78.0,86.0,128.0,166.0,202.0,233.0,258.0,281.0,300.0,317.0,330.0,339.0,345.0,348.0,348.0,351.0,352.0,349.0,346.0,341.0,335.0,326.0,320.0,311.0,305.0,281.0,256.0,230.0,206.0,188.0,168.0,170.0,171.0,177.0,184.0,190.0,195.0,201.0,207.0,214.0,219.0,225.0,229.0,235.0,237.0,241.0,242.0,244.0,242.0,241.0,242.0,243.0,241.0,239.0,234.0,233.0,232.0,229.0,228.0,224.0,221.0,220.0,218.0,216.0,213.0,212.0,209.0,204.0,200.0,197.0,196.0,192.0,189.0,187.0,182.0,179.0,175.0,170.0,168.0,164.0,164.0,160.0,158.0,160.0,157.0,156.0,156.0,154.0,155.0,152.0,153.0,151.0,150.0,152.0,151.0,151.0,150.0,149.0,146.0,146.0,144.0,142.0,141.0,139.0,137.0,131.0,124.0,126.0,123.0,117.0,113.0,108.0,105.0,102.0,95.0,92.0,95.0,104.0,112.0,123.0,136.0,146.0,158.0,182.0,160.0,149.0,141.0,140.0,145.0,144.0,144.0,144.0,142.0,142.0,140.0,141.0,141.0,141.0,139.0,138.0,135.0,135.0,131.0,128.0,123.0,120.0,117.0,112.0,104.0,107.0,117.0,129.0,128.0,146.0,139.0,132.0,125.0,121.0,119.0,119.0,121.0,126.0,129.0,131.0,133.0,135.0,137.0,135.0,134.0,130.0,121.0,114.0,107.0,98.0,91.0,85.0,79.0,74.0,70.0,67.0,67.0,73.0,76.0,80.0,78.0,78.0,80.0,83.0,84.0,88.0,91.0,91.0,92.0,92.0,93.0,94.0,95.0,94.0,93.0,92.0,93.0,94.0,95.0,96.0,97.0,98.0,98.0,98.0,97.0,99.0,99.0,97.0,99.0,98.0,98.0,96.0,97.0,96.0,94.0,96.0,93.0,95.0,95.0,96.0,95.0,95.0,93.0,93.0,90.0,93.0,91.0,91.0,91.0,89.0,89.0,86.0,87.0,87.0,86.0,87.0,85.0,89.0,88.0,88.0,90.0,91.0,91.0,90.0,92.0,93.0,93.0,94.0,95.0,95.0,93.0,95.0,97.0,96.0,96.0,97.0,97.0,97.0,97.0,98.0,99.0,99.0,98.0,96.0,94.0,96.0,96.0,96.0,94.0,90.0,92.0,92.0,94.0,93.0,94.0,93.0,92.0,91.0,93.0,92.0,93.0,93.0,93.0,92.0,91.0,91.0,92.0,93.0,92.0,91.0,92.0,93.0,94.0,96.0,97.0,98.0,100.0,99.0,100.0,100.0,99.0,99.0,101.0,100.0,101.0,100.0,99.0,98.0,99.0,97.0,98.0,98.0,96.0,96.0,96.0,96.0,95.0
166.0,169.0,164.0,165.0,167.0,176.0,170.0,171.0,171.0,169.0,168.0,170.0,172.0,175.0,170.0,166.0,176.0,175.0,175.0,177.0,180.0,178.0,178.0,181.0,180.0,179.0,183.0,182.0,184.0,180.0,185.0,181.0,180.0,173.0,168.0,167.0,166.0,168.0,168.0,162.0,156.0,152.0,151.0,151.0,152.0,155.0,159.0,155.0,154.0,160.0,154.0,155.0,152.0,150.0,147.0,143.0,135.0,134.0,127.0,125.0,119.0,112.0,111.0,108.0,101.0,96.0,96.0,95.0,101.0,99.0,95.0,90.0,92.0,90.0,85.0,88.0,89.0,93.0,88.0,86.0,88.0,90.0,93.0,94.0,91.0,91.0,83.0,79.0,80.0,78.0,75.0,73.0,75.0,70.0,67.0,64.0,59.0,55.0,55.0,56.0,55.0,50.0,47.0,42.0,43.0,45.0,42.0,41.0,39.0,36.0,40.0,49.0,46.0,40.0,35.0,32.0,29.0,32.0,27.0,26.0,30.0,41.0,36.0,34.0,37.0,32.0,31.0,38.0,33.0,30.0,27.0,25.0,32.0,43.0,47.0,51.0,49.0,52.0,59.0,61.0,54.0,51.0,49.0,54.0,52.0,76.0,68.0,66.0,63.0,56.0,57.0,57.0,60.0,54.0,49.0,50.0,53.0,52.0,51.0,54.0,48.0,45.0,43.0,46.0,47.0,55.0,54.0,53.0,57.0,57.0,58.0,59.0,56.0,60.0,61.0,66.0,67.0,72.0,72.0,75.0,74.0,74.0,77.0,80.0,85.0,89.0,92.0,97.0,104.0,115.0,120.0,128.0,131.0,136.0,142.0,149.0,160.0,165.0,174.0,181.0,184.0,187.0,185.0,183.0,195.0,195.0,204.0,201.0,202.0,201.0,199.0,208.0,218.0,207.0,205.0,198.0,195.0,197.0,200.0,201.0,202.0,196.0,199.0,194.0,194.0,180.0,173.0,171.0,167.0,167.0,166.0,170.0,168.0,168.0,165.0,165.0,164.0,157.0,157.0,164.0,158.0,156.0,169.0,156.0,149.0,154.0,140.0,130.0,128.0,130.0,131.0,135.0,121.0,121.0,120.0,119.0,111.0,99.0,108.0,109.0,99.0,101.0,96.0,96.0,110.0,100.0,111.0,127.0,136.0,128.0,119.0,115.0,115.0,124.0,113.0,114.0,100.0,92.0,91.0,87.0,97.0,92.0,84.0,76.0,74.0,76.0,72.0,69.0,72.0,73.0,74.0,72.0,70.0,76.0,66.0,62.0,71.0,69.0,66.0,62.0,54.0,51.0,49.0,48.0,42.0,39.0,37.0,40.0,35.0,42.0,39.0,37.0,33.0,36.0,32.0,32.0,33.0,33.0,35.0,35.0,31.0,30.0,30.0,34.0,32.0,29.0,33.0,32.0,34.0,31.0,34.0,31.0,31.0,33.0,33.0,36.0,42.0,37.0,35.0,35.0,31.0,34.0,34.0,35.0,31.0,28.0,27.0,24.0,29.0,33.0,34.0,32.0,30.0,29.0,28.0,25.0,27.0,23.0,26.0,32.0,31.0,33.0,42.0,56.0,50.0,47.0,45.0,46.0,46.0,41.0,53.0,55.0,53.0,50.0,59.0,60.0,58.0,61.0,53.0,64.0,69.0,85.0,80.0,69.0,73.0,70.0,62.0,60.0,71.0,72.0,70.0,67.0,61.0,60.0,56.0,53.0,53.0,63.0,59.0,55.0,49.0,48.0,48.0,60.0,55.0,49.0,44.0,49.0,44.0,52.0,54.0,50.0,52.0,47.0,45.0,43.0,36.0,37.0,34.0,35.0,34.0,34.0,34.0,32.0,42.0,38.0,35.0,37.0,43.0,45.0,42.0,43.0,41.0,41.0,40.0,36.0,32.0,32.0,34.0,31.0,32.0,36.0,35.0,36.0,35.0,37.0,37.0,33.0,33.0,33.0,31.0,32.0,32.0,42.0,40.0,35.0,49.0,43.0,40.0,47.0,41.0,37.0,34.0,33.0,32.0,30.0,33.0,29.0,36.0,34.0,30.0,27.0,24.0,23.0,20.0,21.0,22.0,27.0,35.0,53.0,104.0,136.0,138.0,168.0,170.0,183.0,235.0,270.0,291.0,294.0,274.0,274.0,262.0,313.0,341.0,318.0,308.0,275.0,244.0,247.0,265.0,238.0,223.0,203.0,188.0,180.0,163.0,156.0,149.0,142.0,145.0,140.0,140.0,136.0,154.0,162.0,173.0,159.0,175.0,169.0,164.0,171.0,179.0,164.0,176.0,182.0,176.0,176.0,180.0,184.0,185.0,174.0,181.0,187.0,178.0,169.0,178.0,175.0,170.0,171.0,161.0,161.0,157.0,158.0,152.0,156.0,150.0,151.0,145.0,148.0,145.0,138.0,137.0,141.0,145.0,142.0,142.0,138.0,137.0,134.0,139.0,132.0,123.0,140.0,132.0,126.0,119.0,123.0,118.0,120.0,119.0,130.0,123.0,128.0,126.0,121.0,126.0,122.0,122.0,122.0,120.0,120.0,116.0,110.0,110.0,105.0,103.0,111.0,104.0,107.0,112.0,104.0,116.0,117.0,125.0,124.0,122.0,120.0,116.0,114.0,120.0,115.0,108.0,107.0,110.0,104.0,112.0,102.0,100.0,97.0,91.0,88.0,85.0,86.0,85.0,80.0,80.0,79.0,76.0,79.0,85.0,85.0,88.0,79.0,87.0,95.0,92.0,87.0,82.0,82.0,74.0,77.0,80.0,76.0,77.0,77.0,71.0,73.0,76.0,78.0,78.0,73.0,80.0,73.0,74.0,71.0,76.0,75.0,70.0,67.0,70.0,63.0,57.0,62.0,70.0,71.0,69.0,68.0,64.0,60.0,57.0,60.0,60.0,64.0,62.0,59.0,52.0,51.0,56.0,66.0,64.0,59.0,59.0,52.0,48.0,45.0,40.0,40.0,45.0,40.0,43.0,87.0,124.0,154.0,176.0,200.0,208.0,227.0,232.0,236.0,239.0,241.0,232.0,235.0,227.0,223.0,225.0,218.0,214.0,206.0,195.0,191.0,184.0,175.0,161.0,142.0,127.0,112.0,105.0,94.0,103.0,109.0,103.0,103.0,105.0,99.0,113.0,116.0,117.0,122.0,126.0,115.0,109.0,108.0,112.0,117.0,111.0,110.0,107.0,104.0,95.0,86.0,81.0,84.0,94.0,84.0,79.0,75.0,75.0,78.0,76.0,78.0,68.0,66.0,58.0,52.0,52.0,53.0,64.0,60.0,62.0,55.0,51.0,47.0,43.0,38.0,42.0,40.0,38.0,40.0,50.0,49.0,44.0,41.0,36.0,33.0,34.0,39.0,35.0,44.0,43.0,44.0,40.0,36.0,33.0,30.0,29.0,30.0,26.0,24.0,23.0,19.0,17.0,16.0,21.0,26.0,31.0,29.0,30.0,29.0,28.0,31.0,29.0,27.0,32.0,38.0,49.0,60.0,81.0,83.0,100.0,116.0,140.0,126.0,120.0,113.0,108.0,104.0,92.0,84.0,75.0,75.0,65.0,62.0,63.0,54.0,52.0,50.0,45.0,40.0,35.0,34.0,36.0,48.0,44.0,39.0,35.0,32.0,40.0,40.0,56.0,71.0,64.0,61.0,55.0,50.0,44.0,38.0,35.0,32.0,34.0,40.0,35.0,32.0,28.0,25.0,22.0,26.0,23.0,21.0,23.0,30.0,28.0,27.0,24.0,30.0,25.0,24.0,23.0,38.0,34.0,31.0,27.0,25.0,25.0,25.0,24.0,21.0,33.0,30.0,36.0,33.0,31.0,28.0,23.0,22.0,27.0,27.0,32.0,29.0,29.0,26.0,32.0,28.0,24.0,21.0,19.0,25.0,22.0,24.0,29.0,32.0,31.0,27.0,25.0,22.0,18.0,17.0,16.0,27.0,35.0,31.0,32.0,28.0,25.0,24.0,26.0,34.0,36.0,35.0,29.0,26.0,23.0,23.0,31.0,29.0,29.0,25.0,22.0,28.0,26.0,27.0,24.0,21.0,21.0,20.0,20.0,25.0,25.0,25.0,21.0,21.0,18.0,16.0,22.0,19.0,20.0,23.0,21.0,22.0,30.0,30.0,26.0,23.0,22.0,19.0,30.0,34.0,30.0,31.0,27.0,25.0,28.0,30.0,32.0,28.0,24.0,22.0,21.0,19.0,28.0,34.0,32.0,30.0,27.0,25.0,24.0,29.0,32.0,28.0,32.0,28.0,25.0,27.0,23.0,31.0,27.0,26.0,23.0,22.0,19.0,17.0,15.0,17.0,22.0,22.0,23.0,24.0,23.0,20.0,20.0,18.0,20.0,23.0,21.0,21.0,21.0,20.0,23.0,28.0
104.0,98.0,98.0,98.0,94.0,90.0,90.0,84.0,84.0,79.0,75.0,80.0,89.0,83.0,95.0,96.0,94.0,94.0,95.0,88.0,85.0,79.0,77.0,74.0,74.0,77.0,77.0,75.0,73.0,86.0,90.0,92.0,85.0,80.0,80.0,84.0,97.0,91.0,86.0,93.0,92.0,98.0,91.0,82.0,78.0,76.0,71.0,75.0,81.0,78.0,73.0,71.0,75.0,72.0,77.0,75.0,80.0,82.0,84.0,92.0,86.0,85.0,92.0,93.0,87.0,97.0,108.0,107.0,102.0,105.0,111.0,108.0,117.0,119.0,119.0,130.0,133.0,130.0,139.0,130.0,138.0,141.0,140.0,136.0,137.0,140.0,138.0,141.0,135.0,142.0,140.0,138.0,145.0,150.0,142.0,151.0,155.0,157.0,157.0,155.0,151.0,153.0,153.0,157.0,152.0,157.0,154.0,148.0,155.0,157.0,152.0,158.0,154.0,152.0,151.0,157.0,152.0,146.0,149.0,145.0,149.0,149.0,149.0,150.0,144.0,137.0,126.0,121.0,123.0,117.0,129.0,126.0,129.0,133.0,126.0,123.0,133.0,144.0,155.0,171.0,183.0,166.0,160.0,155.0,174.0,196.0,197.0,195.0,192.0,204.0,200.0,202.0,208.0,221.0,227.0,227.0,250.0,268.0,295.0,322.0,344.0,347.0,375.0,394.0,410.0,435.0,452.0,462.0,479.0,495.0,491.0,504.0,524.0,539.0,558.0,574.0,589.0,603.0,615.0,624.0,634.0,635.0,640.0,641.0,637.0,626.0,627.0,626.0,618.0,608.0,601.0,590.0,591.0,581.0,582.0,579.0,552.0,568.0,566.0,556.0,542.0,528.0,536.0,534.0,524.0,528.0,508.0,509.0,467.0,492.0,454.0,521.0,527.0,578.0,583.0,589.0,572.0,549.0,526.0,526.0,517.0,479.0,544.0,512.0,578.0,596.0,590.0,578.0,552.0,526.0,500.0,472.0,450.0,426.0,407.0,393.0,377.0,365.0,351.0,329.0,307.0,317.0,367.0,442.0,461.0,481.0,477.0,509.0,508.0,535.0,632.0,667.0,667.0,667.0,667.0,646.0,650.0,610.0,603.0,614.0,604.0,593.0,614.0,579.0,596.0,617.0,623.0,636.0,608.0,600.0,561.0,513.0,469.0,495.0,509.0,539.0,508.0,492.0,529.0,539.0,624.0,628.0,613.0,575.0,560.0,535.0,516.0,504.0,470.0,461.0,478.0,434.0,407.0,391.0,386.0,397.0,410.0,401.0,396.0,407.0,399.0,372.0,375.0,358.0,341.0,342.0,338.0,361.0,354.0,356.0,354.0,357.0,334.0,302.0,305.0,281.0,283.0,298.0,308.0,348.0,343.0,335.0,304.0,279.0,285.0,295.0,303.0,290.0,331.0,353.0,335.0,320.0,311.0,291.0,293.0,285.0,300.0,336.0,310.0,335.0,338.0,336.0,366.0,366.0,355.0,362.0,350.0,323.0,334.0,363.0,407.0,386.0,369.0,340.0,347.0,335.0,385.0,389.0,405.0,376.0,372.0,344.0,430.0,446.0,424.0,459.0,460.0,467.0,455.0,447.0,474.0,501.0,552.0,592.0,595.0,627.0,587.0,632.0,571.0,625.0,666.0,667.0,668.0,667.0,667.0,666.0,666.0,667.0,667.0,667.0,667.0,667.0,667.0,667.0,667.0,667.0,668.0,668.0,667.0,667.0,667.0,652.0,667.0,668.0,666.0,667.0,667.0,667.0,667.0,667.0,667.0,667.0,667.0,667.0,667.0,666.0,650.0,628.0,604.0,580.0,563.0,571.0,554.0,540.0,582.0,560.0,544.0,497.0,532.0,536.0,526.0,529.0,500.0,487.0,479.0,440.0,404.0,415.0,439.0,422.0,391.0,429.0,471.0,461.0,427.0,440.0,444.0,411.0,427.0,432.0,403.0,392.0,405.0,507.0,467.0,439.0,527.0,554.0,502.0,522.0,495.0,469.0,469.0,456.0,429.0,409.0,408.0,373.0,406.0,406.0,368.0,322.0,284.0,255.0,229.0,210.0,188.0,185.0,176.0,170.0,170.0,182.0,184.0,178.0,181.0,193.0,262.0,262.0,303.0,347.0,344.0,322.0,336.0,421.0,421.0,434.0,405.0,369.0,361.0,329.0,356.0,326.0,317.0,299.0,309.0,323.0,313.0,289.0,276.0,266.0,252.0,258.0,236.0,225.0,223.0,245.0,252.0,243.0,238.0,220.0,227.0,220.0,231.0,230.0,222.0,219.0,206.0,209.0,208.0,197.0,194.0,195.0,196.0,180.0,188.0,195.0,194.0,185.0,175.0,179.0,173.0,167.0,162.0,171.0,162.0,156.0,169.0,161.0,158.0,173.0,161.0,164.0,153.0,155.0,155.0,153.0,139.0,137.0,130.0,150.0,144.0,137.0,135.0,148.0,148.0,139.0,143.0,153.0,156.0,149.0,141.0,140.0,141.0,134.0,131.0,129.0,139.0,145.0,151.0,145.0,138.0,135.0,138.0,149.0,136.0,131.0,118.0,124.0,116.0,108.0,101.0,115.0,119.0,110.0,101.0,97.0,89.0,84.0,83.0,90.0,82.0,87.0,86.0,86.0,89.0,87.0,89.0,87.0,88.0,87.0,88.0,94.0,99.0,111.0,107.0,102.0,103.0,100.0,100.0,95.0,96.0,93.0,92.0,95.0,103.0,102.0,99.0,104.0,101.0,104.0,103.0,101.0,117.0,111.0,102.0,97.0,99.0,99.0,109.0,103.0,97.0,95.0,96.0,89.0,87.0,85.0,82.0,83.0,78.0,88.0,88.0,92.0,92.0,86.0,88.0,92.0,97.0,96.0,94.0,89.0,86.0,94.0,102.0,94.0,90.0,86.0,81.0,89.0,88.0,89.0,81.0,77.0,84.0,84.0,84.0,86.0,86.0,85.0,89.0,89.0,112.0,166.0,208.0,252.0,283.0,298.0,310.0,318.0,321.0,342.0,342.0,340.0,336.0,327.0,331.0,334.0,329.0,320.0,309.0,302.0,294.0,279.0,282.0,283.0,257.0,239.0,222.0,203.0,186.0,172.0,196.0,204.0,207.0,205.0,200.0,192.0,194.0,186.0,179.0,167.0,166.0,163.0,160.0,153.0,146.0,136.0,139.0,133.0,128.0,130.0,125.0,125.0,127.0,124.0,120.0,123.0,124.0,120.0,135.0,134.0,138.0,130.0,124.0,117.0,111.0,115.0,112.0,106.0,98.0,101.0,100.0,99.0,101.0,94.0,96.0,92.0,93.0,99.0,95.0,92.0,86.0,78.0,75.0,71.0,70.0,67.0,64.0,62.0,68.0,67.0,70.0,73.0,75.0,84.0,80.0,76.0,87.0,83.0,79.0,78.0,80.0,83.0,96.0,90.0,87.0,92.0,87.0,85.0,89.0,85.0,80.0,89.0,88.0,84.0,88.0,96.0,107.0,100.0,97.0,105.0,109.0,117.0,132.0,128.0,126.0,129.0,136.0,137.0,130.0,122.0,122.0,122.0,114.0,113.0,111.0,110.0,105.0,100.0,102.0,108.0,100.0,99.0,99.0,92.0,92.0,90.0,84.0,76.0,85.0,95.0,93.0,113.0,100.0,96.0,93.0,88.0,82.0,78.0,76.0,78.0,76.0,74.0,74.0,71.0,66.0,67.0,64.0,63.0,60.0,67.0,69.0,69.0,65.0,69.0,75.0,75.0,74.0,77.0,73.0,70.0,66.0,69.0,68.0,63.0,64.0,62.0,60.0,63.0,64.0,76.0,72.0,71.0,69.0,72.0,67.0,63.0,65.0,62.0,69.0,71.0,77.0,76.0,72.0,72.0,73.0,71.0,75.0,79.0,73.0,75.0,82.0,81.0,76.0,77.0,75.0,75.0,72.0,71.0,69.0,68.0,63.0,62.0,64.0,67.0,63.0,66.0,63.0,72.0,77.0,79.0,74.0,70.0,69.0,73.0,71.0,71.0,68.0,69.0,66.0,63.0,64.0,61.0,60.0,61.0,59.0,65.0,70.0,68.0,67.0,64.0,60.0,58.0,58.0,62.0,64.0,61.0,62.0,66.0,63.0,62.0,65.0,64.0,67.0,68.0,66.0,63.0,66.0,68.0,70.0,69.0,66.0,64.0,68.0,64.0,81.0,78.0,78.0,73.0,71.0,69.0,69.0,65.0,67.0,67.0,64.0,78.0,74.0,72.0,71.0,66.0,65.0,69.0,64.0,64.0,67.0,63.0,59.0,60.0,57.0,56.0,57.0,54.0,54.0,55.0,58.0,58.0,61.0,62.0,59.0,56.0,55.0,62.0,61.0,57.0,61.0,62.0,60.0,57.0,54.0,60.0
