48.0,47.0,48.0,48.0,47.0,47.0,47.0,47.0,47.0,47.0,47.0,47.0,47.0,47.0,47.0,46.0,48.0,47.0,47.0,49.0,50.0,50.0,51.0,51.0,51.0,51.0,52.0,51.0,51.0,51.0,48.0,49.0,47.0,48.0,47.0,47.0,48.0,46.0,46.0,45.0,46.0,47.0,47.0,47.0,47.0,47.0,46.0,46.0,46.0,47.0,48.0,48.0,48.0,47.0,47.0,48.0,47.0,47.0,49.0,49.0,48.0,48.0,48.0,48.0,49.0,50.0,49.0,50.0,50.0,50.0,49.0,49.0,48.0,48.0,48.0,47.0,48.0,48.0,47.0,47.0,48.0,47.0,48.0,47.0,47.0,46.0,45.0,46.0,46.0,46.0,48.0,48.0,47.0,47.0,46.0,46.0,45.0,45.0,46.0,45.0,45.0,45.0,46.0,45.0,44.0,46.0,46.0,47.0,48.0,49.0,48.0,46.0,48.0,48.0,48.0,49.0,50.0,50.0,49.0,51.0,51.0,51.0,51.0,52.0,52.0,50.0,53.0,52.0,54.0,53.0,51.0,53.0,53.0,53.0,56.0,55.0,56.0,55.0,55.0,55.0,56.0,58.0,56.0,57.0,56.0,57.0,59.0,57.0,57.0,57.0,58.0,58.0,56.0,57.0,55.0,54.0,57.0,55.0,54.0,53.0,53.0,53.0,52.0,53.0,52.0,50.0,51.0,51.0,52.0,52.0,53.0,53.0,51.0,53.0,51.0,53.0,56.0,55.0,67.0,64.0,65.0,64.0,64.0,64.0,62.0,76.0,84.0,82.0,93.0,94.0,105.0,132.0,156.0,157.0,193.0,204.0,195.0,204.0,257.0,243.0,223.0,203.0,195.0,177.0,169.0,155.0,142.0,132.0,125.0,125.0,120.0,116.0,111.0,106.0,98.0,94.0,92.0,91.0,93.0,90.0,99.0,96.0,94.0,88.0,86.0,88.0,90.0,88.0,86.0,82.0,80.0,77.0,77.0,75.0,73.0,72.0,70.0,71.0,70.0,77.0,75.0,76.0,84.0,81.0,81.0,77.0,75.0,85.0,83.0,80.0,76.0,75.0,72.0,70.0,72.0,77.0,77.0,73.0,72.0,72.0,75.0,74.0,73.0,74.0,71.0,69.0,70.0,66.0,67.0,64.0,63.0,62.0,60.0,62.0,70.0,68.0,66.0,63.0,61.0,60.0,59.0,58.0,56.0,57.0,57.0,61.0,63.0,65.0,64.0,66.0,64.0,65.0,63.0,63.0,59.0,58.0,56.0,58.0,62.0,62.0,62.0,66.0,64.0,61.0,60.0,59.0,57.0,55.0,55.0,55.0,55.0,63.0,61.0,59.0,58.0,60.0,57.0,55.0,54.0,53.0,53.0,53.0,52.0,53.0,52.0,52.0,51.0,53.0,55.0,52.0,54.0,52.0,52.0,51.0,51.0,52.0,51.0,50.0,51.0,52.0,52.0,52.0,53.0,51.0,51.0,52.0,51.0,53.0,51.0,51.0,51.0,51.0,50.0,49.0,48.0,50.0,49.0,48.0,48.0,47.0,48.0,47.0,48.0,48.0,49.0,49.0,50.0,51.0,52.0,56.0,56.0,57.0,57.0,57.0,59.0,58.0,59.0,58.0,58.0,57.0,56.0,58.0,58.0,58.0,58.0,58.0,56.0,55.0,57.0,57.0,56.0,58.0,58.0,58.0,57.0,59.0,60.0,58.0,57.0,57.0,58.0,57.0,57.0,57.0,57.0,58.0,60.0,61.0,61.0,61.0,62.0,62.0,64.0,64.0,65.0,66.0,64.0,65.0,68.0,66.0,68.0,71.0,72.0,73.0,72.0,73.0,73.0,72.0,72.0,73.0,71.0,72.0,72.0,76.0,74.0,74.0,77.0,77.0,78.0,78.0,82.0,83.0,84.0,83.0,83.0,84.0,84.0,83.0,84.0,86.0,85.0,85.0,84.0,85.0,83.0,85.0,86.0,88.0,89.0,87.0,87.0,87.0,88.0,87.0,88.0,91.0,90.0,89.0,89.0,90.0,92.0,94.0,94.0,94.0,95.0,95.0,97.0,95.0,97.0,106.0,103.0,100.0,110.0,107.0,104.0,108.0,118.0,118.0,118.0,125.0,124.0,124.0,125.0,129.0,134.0,148.0,150.0,152.0,147.0,146.0,145.0,142.0,138.0,137.0,137.0,134.0,127.0,133.0,142.0,148.0,147.0,147.0,144.0,144.0,143.0,139.0,141.0,138.0,137.0,138.0,138.0,138.0,137.0,138.0,137.0,137.0,137.0,137.0,138.0,138.0,137.0,136.0,137.0,136.0,137.0,137.0,137.0,137.0,135.0,135.0,135.0,136.0,135.0,135.0,133.0,133.0,130.0,131.0,130.0,130.0,131.0,130.0,129.0,129.0,130.0,129.0,129.0,129.0,130.0,127.0,123.0,124.0,122.0,121.0,119.0,114.0,114.0,110.0,109.0,110.0,109.0,108.0,105.0,108.0,102.0,107.0,109.0,107.0,106.0,103.0,103.0,102.0,102.0,101.0,97.0,96.0,94.0,94.0,93.0,92.0,91.0,91.0,90.0,89.0,87.0,87.0,85.0,87.0,86.0,85.0,84.0,85.0,84.0,82.0,81.0,79.0,79.0,79.0,78.0,77.0,74.0,72.0,71.0,69.0,68.0,67.0,65.0,63.0,62.0,61.0,61.0,61.0,58.0,57.0,59.0,57.0,57.0,56.0,56.0,57.0,55.0,54.0,55.0,56.0,57.0,57.0,57.0,57.0,56.0,55.0,55.0,56.0,54.0,53.0,55.0,54.0,54.0,55.0,56.0,56.0,53.0,53.0,53.0,53.0,53.0,53.0,56.0,54.0,53.0,52.0,51.0,52.0,50.0,51.0,52.0,52.0,51.0,50.0,49.0,51.0,49.0,49.0,49.0,48.0,47.0,46.0,47.0,45.0,45.0,47.0,46.0,47.0,48.0,47.0,47.0,47.0,46.0,46.0,46.0,46.0,47.0,47.0,46.0,46.0,46.0,47.0,47.0,47.0,49.0,46.0,47.0,47.0,46.0,47.0,48.0,51.0,49.0,51.0,52.0,53.0,54.0,53.0,53.0,54.0,54.0,54.0,53.0,54.0,55.0,53.0,55.0,53.0,54.0,54.0,53.0,54.0,53.0,54.0,53.0,51.0,53.0,52.0,52.0,52.0,52.0,52.0,52.0,52.0,51.0,51.0,52.0,52.0,51.0,51.0,52.0,51.0,51.0,50.0,51.0,51.0,51.0,50.0,50.0,50.0,49.0,48.0,48.0,48.0,47.0,50.0,48.0,48.0,49.0,47.0,49.0,48.0,46.0,47.0,46.0,47.0,48.0,48.0,50.0,50.0,50.0,50.0,51.0,49.0,49.0,50.0,48.0,48.0,49.0,50.0,51.0,51.0,53.0,52.0,52.0,54.0,53.0,54.0,54.0,54.0,56.0,55.0,55.0,54.0,55.0,54.0,52.0,55.0,54.0,53.0,54.0,54.0,54.0,53.0,56.0,56.0,55.0,55.0,55.0,55.0,56.0,57.0,57.0,57.0,58.0,59.0,57.0,57.0,57.0,56.0,54.0,52.0,53.0,52.0,52.0,51.0,51.0,50.0,50.0,50.0,50.0,49.0,49.0,49.0,49.0,49.0,49.0,50.0,49.0,49.0,49.0,50.0,49.0,50.0,49.0,50.0,50.0,49.0,49.0,48.0,47.0,49.0,48.0,48.0,47.0,49.0,50.0,48.0,51.0,48.0,49.0,49.0,47.0,49.0,47.0,49.0,48.0,48.0,48.0,47.0,46.0,46.0,46.0,48.0,46.0,47.0,47.0,48.0,51.0,50.0,51.0,51.0,51.0,51.0,51.0,54.0,52.0,51.0,51.0,49.0,49.0,49.0,50.0,51.0,50.0,50.0,49.0,48.0,48.0,48.0,49.0,50.0,50.0,48.0,47.0,47.0,49.0,49.0,48.0,48.0,47.0,48.0,48.0,47.0,49.0,48.0,48.0,49.0,47.0,46.0,47.0,45.0,47.0,45.0,46.0,46.0,45.0,45.0,46.0,47.0,46.0,47.0,49.0,47.0,49.0,48.0,47.0,46.0,47.0,46.0,46.0,46.0,46.0,45.0,47.0,45.0,45.0,45.0,45.0,46.0,45.0,47.0,48.0,47.0,49.0,49.0,50.0,50.0,50.0,52.0,50.0,51.0,50.0,48.0,48.0,47.0,48.0,47.0,47.0,48.0,47.0,47.0,46.0,46.0,45.0,46.0,46.0,45.0,44.0,44.0,44.0,46.0,45.0,46.0,45.0,45.0,46.0,46.0,46.0,46.0,46.0,47.0,46.0,47.0,46.0,46.0
47.0,48.0,49.0,51.0,51.0,50.0,49.0,48.0,49.0,50.0,50.0,49.0,48.0,49.0,48.0,50.0,51.0,51.0,51.0,52.0,53.0,54.0,54.0,51.0,53.0,52.0,51.0,50.0,50.0,49.0,50.0,51.0,53.0,53.0,54.0,53.0,54.0,53.0,55.0,57.0,55.0,53.0,51.0,50.0,50.0,49.0,49.0,48.0,49.0,50.0,49.0,47.0,47.0,47.0,47.0,48.0,49.0,48.0,48.0,46.0,45.0,45.0,47.0,46.0,46.0,45.0,45.0,44.0,45.0,47.0,48.0,49.0,48.0,48.0,47.0,46.0,50.0,48.0,47.0,47.0,46.0,47.0,46.0,48.0,48.0,46.0,47.0,46.0,46.0,47.0,46.0,46.0,44.0,44.0,44.0,44.0,43.0,45.0,46.0,45.0,44.0,44.0,43.0,43.0,41.0,42.0,43.0,42.0,42.0,41.0,39.0,39.0,39.0,40.0,40.0,39.0,39.0,39.0,39.0,39.0,43.0,41.0,41.0,40.0,41.0,41.0,40.0,41.0,41.0,42.0,44.0,43.0,46.0,45.0,45.0,47.0,44.0,47.0,45.0,47.0,47.0,45.0,45.0,42.0,44.0,43.0,42.0,43.0,43.0,44.0,43.0,41.0,42.0,41.0,40.0,40.0,39.0,42.0,41.0,43.0,42.0,42.0,45.0,43.0,42.0,42.0,40.0,41.0,39.0,43.0,42.0,43.0,42.0,41.0,43.0,45.0,46.0,63.0,73.0,74.0,75.0,79.0,73.0,70.0,66.0,68.0,66.0,63.0,64.0,66.0,67.0,72.0,76.0,76.0,83.0,86.0,85.0,91.0,106.0,99.0,102.0,108.0,108.0,118.0,129.0,146.0,160.0,173.0,188.0,196.0,207.0,217.0,227.0,234.0,243.0,248.0,250.0,253.0,253.0,251.0,250.0,249.0,246.0,240.0,231.0,231.0,230.0,228.0,228.0,228.0,229.0,236.0,225.0,237.0,224.0,225.0,237.0,227.0,223.0,224.0,216.0,217.0,229.0,217.0,215.0,218.0,219.0,227.0,225.0,231.0,235.0,237.0,242.0,243.0,247.0,257.0,256.0,258.0,261.0,267.0,266.0,262.0,276.0,266.0,261.0,261.0,269.0,258.0,256.0,254.0,252.0,247.0,245.0,244.0,244.0,243.0,239.0,239.0,236.0,231.0,227.0,224.0,221.0,220.0,222.0,219.0,215.0,211.0,209.0,210.0,205.0,202.0,200.0,195.0,195.0,193.0,191.0,189.0,189.0,185.0,184.0,183.0,177.0,175.0,178.0,174.0,171.0,171.0,174.0,171.0,171.0,173.0,169.0,171.0,172.0,170.0,168.0,166.0,167.0,167.0,166.0,167.0,165.0,167.0,170.0,163.0,164.0,163.0,163.0,160.0,159.0,157.0,157.0,155.0,153.0,152.0,153.0,150.0,148.0,147.0,144.0,147.0,140.0,143.0,140.0,141.0,140.0,141.0,136.0,142.0,136.0,133.0,132.0,129.0,126.0,126.0,125.0,122.0,122.0,120.0,120.0,118.0,117.0,120.0,116.0,113.0,110.0,110.0,107.0,105.0,99.0,95.0,92.0,92.0,91.0,88.0,87.0,89.0,86.0,84.0,82.0,80.0,79.0,77.0,76.0,75.0,72.0,74.0,70.0,69.0,66.0,64.0,64.0,62.0,63.0,61.0,58.0,59.0,60.0,59.0,56.0,53.0,52.0,50.0,50.0,48.0,47.0,47.0,44.0,44.0,44.0,43.0,46.0,47.0,49.0,50.0,48.0,52.0,55.0,59.0,61.0,63.0,64.0,64.0,66.0,67.0,71.0,74.0,76.0,79.0,78.0,80.0,87.0,88.0,91.0,91.0,93.0,95.0,96.0,100.0,100.0,106.0,108.0,110.0,112.0,114.0,116.0,118.0,122.0,123.0,125.0,129.0,131.0,134.0,135.0,137.0,138.0,139.0,140.0,139.0,138.0,139.0,140.0,137.0,140.0,141.0,141.0,140.0,141.0,141.0,142.0,141.0,144.0,144.0,143.0,147.0,149.0,145.0,146.0,151.0,148.0,144.0,152.0,154.0,145.0,154.0,170.0,167.0,170.0,176.0,171.0,167.0,166.0,166.0,168.0,173.0,170.0,168.0,164.0,159.0,159.0,152.0,147.0,143.0,139.0,133.0,128.0,124.0,123.0,124.0,122.0,122.0,122.0,123.0,123.0,122.0,124.0,122.0,123.0,126.0,128.0,130.0,132.0,134.0,135.0,137.0,138.0,139.0,143.0,143.0,144.0,141.0,146.0,145.0,148.0,148.0,148.0,149.0,149.0,150.0,151.0,151.0,152.0,152.0,154.0,156.0,155.0,158.0,156.0,157.0,157.0,156.0,158.0,159.0,161.0,161.0,162.0,162.0,163.0,162.0,158.0,161.0,162.0,163.0,163.0,162.0,164.0,162.0,161.0,164.0,164.0,165.0,164.0,166.0,162.0,168.0,172.0,172.0,172.0,171.0,174.0,173.0,176.0,177.0,176.0,174.0,173.0,172.0,170.0,169.0,168.0,168.0,167.0,166.0,165.0,162.0,158.0,161.0,160.0,159.0,157.0,157.0,156.0,154.0,153.0,151.0,152.0,151.0,151.0,150.0,149.0,146.0,145.0,144.0,143.0,138.0,138.0,135.0,133.0,132.0,131.0,130.0,128.0,129.0,130.0,128.0,128.0,127.0,128.0,129.0,127.0,128.0,128.0,130.0,131.0,131.0,131.0,131.0,127.0,126.0,129.0,131.0,131.0,131.0,129.0,130.0,128.0,131.0,133.0,133.0,131.0,130.0,127.0,130.0,129.0,130.0,131.0,133.0,132.0,130.0,132.0,130.0,130.0,129.0,129.0,130.0,129.0,128.0,128.0,126.0,125.0,126.0,125.0,126.0,127.0,127.0,127.0,129.0,128.0,130.0,128.0,128.0,126.0,128.0,126.0,127.0,125.0,126.0,122.0,122.0,119.0,116.0,116.0,116.0,114.0,113.0,111.0,110.0,109.0,108.0,107.0,106.0,104.0,102.0,103.0,99.0,98.0,96.0,96.0,93.0,92.0,91.0,90.0,89.0,87.0,86.0,84.0,84.0,80.0,79.0,77.0,76.0,73.0,72.0,73.0,68.0,71.0,71.0,69.0,70.0,69.0,67.0,66.0,67.0,69.0,69.0,69.0,70.0,71.0,70.0,72.0,73.0,74.0,73.0,71.0,72.0,72.0,70.0,68.0,66.0,65.0,63.0,62.0,59.0,60.0,58.0,57.0,55.0,53.0,51.0,50.0,48.0,48.0,46.0,44.0,44.0,42.0,42.0,42.0,42.0,43.0,42.0,41.0,43.0,41.0,42.0,42.0,41.0,42.0,43.0,45.0,45.0,46.0,45.0,46.0,47.0,47.0,48.0,47.0,49.0,50.0,48.0,50.0,48.0,50.0,49.0,49.0,48.0,46.0,46.0,48.0,49.0,48.0,47.0,45.0,44.0,42.0,42.0,41.0,43.0,44.0,43.0,42.0,40.0,40.0,40.0,39.0,39.0,39.0,40.0,39.0,38.0,40.0,40.0,39.0,38.0,38.0,38.0,37.0,39.0,38.0,38.0,38.0,41.0,40.0,39.0,40.0,40.0,38.0,38.0,38.0,38.0,38.0,40.0,40.0,38.0,39.0,39.0,38.0,40.0,39.0,40.0,39.0,38.0,40.0,42.0,43.0,43.0,43.0,44.0,43.0,44.0,46.0,44.0,47.0,47.0,47.0,48.0,50.0,53.0,53.0,55.0,55.0,56.0,57.0,58.0,60.0,63.0,65.0,65.0,67.0,69.0,70.0,69.0,69.0,70.0,71.0,71.0,73.0,71.0,69.0,68.0,67.0,66.0,66.0,67.0,66.0,67.0,64.0,63.0,64.0,62.0,61.0,62.0,63.0,64.0,61.0,59.0,58.0,59.0,58.0,58.0,56.0,56.0,54.0,57.0,55.0,55.0,56.0,55.0,57.0,57.0,55.0,54.0,54.0,54.0,53.0,52.0,53.0,52.0,53.0,53.0,54.0,53.0,54.0,54.0,53.0,57.0,56.0,57.0,57.0,56.0,56.0,56.0,57.0,58.0,58.0,57.0,57.0,57.0,58.0,56.0,57.0,57.0,57.0,58.0,60.0,59.0,59.0,63.0,63.0,63.0,64.0,67.0,65.0,65.0,63.0,64.0,65.0,65.0,66.0,64.0,65.0,63.0,64.0,63.0,60.0,59.0,58.0,59.0,59.0,61.0,60.0,60.0,59.0,62.0,59.0,58.0,57.0,56.0,55.0,54.0,54.0,54.0,51.0,52.0,51.0,50.0,52.0,49.0
27.0,23.0,20.0,23.0,26.0,33.0,33.0,28.0,27.0,27.0,27.0,35.0,33.0,33.0,29.0,26.0,26.0,26.0,24.0,31.0,28.0,36.0,39.0,36.0,39.0,41.0,37.0,37.0,37.0,32.0,29.0,27.0,26.0,32.0,31.0,33.0,30.0,26.0,27.0,31.0,40.0,37.0,33.0,30.0,25.0,22.0,21.0,18.0,36.0,39.0,39.0,36.0,36.0,34.0,35.0,40.0,34.0,33.0,34.0,33.0,32.0,28.0,33.0,32.0,30.0,27.0,23.0,22.0,23.0,30.0,36.0,36.0,32.0,29.0,29.0,26.0,32.0,31.0,28.0,29.0,26.0,25.0,23.0,26.0,27.0,25.0,32.0,30.0,30.0,33.0,31.0,26.0,24.0,21.0,24.0,25.0,22.0,29.0,34.0,31.0,28.0,32.0,28.0,28.0,25.0,23.0,23.0,23.0,21.0,20.0,19.0,18.0,21.0,19.0,38.0,34.0,34.0,30.0,28.0,31.0,33.0,30.0,28.0,25.0,25.0,24.0,24.0,32.0,28.0,25.0,37.0,35.0,34.0,33.0,29.0,29.0,26.0,23.0,27.0,36.0,36.0,34.0,32.0,30.0,27.0,25.0,23.0,29.0,32.0,38.0,32.0,29.0,27.0,33.0,28.0,25.0,23.0,22.0,26.0,29.0,31.0,29.0,30.0,28.0,24.0,23.0,24.0,28.0,28.0,34.0,32.0,33.0,29.0,26.0,24.0,21.0,21.0,27.0,28.0,25.0,27.0,24.0,22.0,24.0,22.0,18.0,18.0,23.0,21.0,17.0,17.0,18.0,17.0,17.0,20.0,29.0,25.0,28.0,29.0,29.0,27.0,26.0,23.0,25.0,28.0,31.0,32.0,28.0,25.0,24.0,21.0,20.0,29.0,28.0,25.0,24.0,25.0,22.0,21.0,22.0,25.0,28.0,37.0,33.0,32.0,32.0,27.0,27.0,27.0,25.0,23.0,23.0,20.0,21.0,29.0,32.0,30.0,26.0,30.0,33.0,30.0,41.0,40.0,40.0,41.0,36.0,38.0,36.0,42.0,51.0,53.0,54.0,50.0,54.0,58.0,53.0,47.0,53.0,54.0,48.0,42.0,42.0,43.0,43.0,44.0,41.0,40.0,34.0,34.0,37.0,35.0,34.0,30.0,36.0,31.0,28.0,26.0,25.0,24.0,21.0,21.0,22.0,24.0,31.0,30.0,26.0,24.0,22.0,20.0,19.0,19.0,20.0,20.0,22.0,21.0,22.0,18.0,16.0,15.0,13.0,14.0,12.0,14.0,13.0,12.0,11.0,11.0,11.0,12.0,15.0,20.0,18.0,17.0,19.0,17.0,19.0,15.0,15.0,20.0,20.0,20.0,18.0,16.0,15.0,16.0,18.0,18.0,17.0,16.0,15.0,19.0,16.0,17.0,15.0,14.0,18.0,16.0,15.0,16.0,14.0,14.0,13.0,12.0,12.0,12.0,12.0,15.0,15.0,12.0,22.0,20.0,19.0,22.0,20.0,17.0,18.0,16.0,15.0,15.0,16.0,13.0,15.0,13.0,15.0,16.0,14.0,14.0,15.0,16.0,20.0,18.0,17.0,17.0,15.0,19.0,18.0,17.0,15.0,14.0,13.0,11.0,12.0,15.0,15.0,14.0,15.0,13.0,12.0,12.0,10.0,12.0,13.0,11.0,14.0,25.0,26.0,24.0,20.0,18.0,17.0,15.0,14.0,12.0,12.0,10.0,12.0,11.0,11.0,9.0,9.0,9.0,8.0,8.0,9.0,8.0,10.0,16.0,17.0,16.0,14.0,13.0,11.0,10.0,9.0,12.0,12.0,11.0,13.0,12.0,11.0,11.0,11.0,12.0,12.0,12.0,14.0,16.0,16.0,14.0,13.0,13.0,14.0,14.0,14.0,17.0,20.0,19.0,25.0,24.0,22.0,20.0,18.0,19.0,16.0,27.0,32.0,30.0,29.0,27.0,25.0,27.0,28.0,26.0,22.0,21.0,22.0,31.0,37.0,33.0,30.0,31.0,30.0,28.0,28.0,31.0,28.0,31.0,72.0,97.0,109.0,141.0,178.0,194.0,186.0,230.0,231.0,249.0,282.0,268.0,273.0,247.0,236.0,238.0,229.0,219.0,222.0,225.0,207.0,205.0,193.0,195.0,203.0,196.0,197.0,179.0,172.0,180.0,184.0,168.0,154.0,147.0,155.0,159.0,142.0,134.0,128.0,119.0,121.0,124.0,120.0,120.0,115.0,113.0,107.0,104.0,110.0,113.0,108.0,104.0,102.0,97.0,97.0,94.0,95.0,94.0,92.0,90.0,78.0,79.0,87.0,85.0,79.0,73.0,76.0,71.0,67.0,67.0,59.0,62.0,56.0,49.0,50.0,54.0,62.0,55.0,48.0,47.0,44.0,42.0,46.0,73.0,67.0,62.0,54.0,51.0,56.0,48.0,45.0,50.0,49.0,46.0,40.0,44.0,44.0,69.0,61.0,54.0,47.0,49.0,47.0,48.0,48.0,46.0,41.0,43.0,44.0,39.0,35.0,33.0,30.0,29.0,43.0,39.0,36.0,33.0,31.0,44.0,53.0,46.0,41.0,37.0,33.0,31.0,32.0,28.0,33.0,30.0,28.0,26.0,27.0,28.0,37.0,35.0,35.0,33.0,33.0,34.0,32.0,28.0,37.0,34.0,30.0,29.0,27.0,25.0,23.0,21.0,20.0,22.0,20.0,18.0,24.0,26.0,25.0,22.0,20.0,18.0,20.0,25.0,30.0,28.0,27.0,24.0,21.0,21.0,24.0,24.0,23.0,20.0,19.0,17.0,15.0,20.0,24.0,28.0,36.0,34.0,29.0,25.0,25.0,24.0,23.0,27.0,32.0,30.0,26.0,23.0,24.0,27.0,24.0,21.0,19.0,28.0,27.0,24.0,22.0,22.0,20.0,20.0,18.0,22.0,21.0,24.0,24.0,22.0,21.0,20.0,22.0,29.0,26.0,39.0,36.0,39.0,36.0,32.0,30.0,33.0,35.0,38.0,33.0,30.0,27.0,24.0,22.0,20.0,25.0,25.0,26.0,25.0,27.0,27.0,25.0,23.0,22.0,23.0,25.0,32.0,42.0,40.0,35.0,31.0,28.0,28.0,30.0,27.0,31.0,33.0,35.0,33.0,30.0,29.0,26.0,34.0,43.0,38.0,37.0,34.0,32.0,33.0,34.0,32.0,27.0,25.0,27.0,29.0,26.0,26.0,23.0,21.0,19.0,19.0,20.0,19.0,27.0,29.0,26.0,24.0,22.0,19.0,19.0,22.0,20.0,27.0,23.0,23.0,20.0,19.0,17.0,16.0,17.0,24.0,21.0,20.0,19.0,18.0,18.0,19.0,16.0,15.0,27.0,24.0,22.0,22.0,22.0,27.0,24.0,25.0,24.0,26.0,26.0,24.0,22.0,21.0,19.0,21.0,22.0,20.0,18.0,17.0,24.0,20.0,30.0,27.0,24.0,22.0,20.0,19.0,19.0,23.0,32.0,29.0,25.0,23.0,21.0,20.0,20.0,18.0,16.0,15.0,15.0,13.0,15.0,25.0,24.0,20.0,19.0,20.0,21.0,19.0,17.0,17.0,15.0,16.0,34.0,39.0,36.0,37.0,33.0,31.0,27.0,28.0,30.0,27.0,33.0,33.0,29.0,28.0,26.0,24.0,21.0,19.0,19.0,17.0,17.0,21.0,23.0,26.0,24.0,21.0,22.0,24.0,20.0,20.0,23.0,33.0,30.0,26.0,25.0,21.0,37.0,35.0,35.0,34.0,31.0,26.0,25.0,22.0,21.0,19.0,19.0,19.0,17.0,31.0,30.0,26.0,24.0,23.0,23.0,20.0,29.0,24.0,23.0,20.0,20.0,21.0,20.0,22.0,33.0,32.0,30.0,27.0,25.0,22.0,22.0,25.0,28.0,30.0,25.0,22.0,22.0,19.0,29.0,34.0,40.0,35.0,32.0,32.0,28.0,26.0,22.0,22.0,31.0,28.0,24.0,24.0,22.0,20.0,20.0,19.0,19.0,19.0,19.0,25.0,37.0,32.0,32.0,31.0,30.0,37.0,37.0,34.0,31.0,27.0,26.0,24.0,22.0,29.0,26.0,24.0,20.0,20.0,18.0,16.0,22.0,20.0,18.0,19.0,18.0,21.0,31.0,36.0,31.0,27.0,26.0,23.0,21.0,18.0,17.0,23.0,21.0,26.0,22.0,25.0,22.0,19.0,19.0,20.0,18.0,17.0,15.0,16.0,13.0,17.0,20.0,21.0,25.0,36.0,34.0,29.0,26.0,25.0,22.0,24.0,30.0,28.0,36.0,32.0,29.0,27.0,31.0
44.0,43.0,51.0,53.0,52.0,58.0,58.0,55.0,58.0,61.0,65.0,65.0,65.0,61.0,62.0,59.0,62.0,62.0,60.0,61.0,59.0,62.0,65.0,65.0,64.0,64.0,63.0,60.0,62.0,59.0,56.0,59.0,59.0,56.0,57.0,54.0,52.0,50.0,53.0,53.0,50.0,51.0,49.0,46.0,43.0,45.0,44.0,45.0,48.0,54.0,51.0,49.0,51.0,51.0,56.0,54.0,54.0,55.0,54.0,56.0,60.0,57.0,56.0,59.0,58.0,57.0,54.0,55.0,55.0,52.0,52.0,56.0,54.0,54.0,53.0,53.0,54.0,52.0,54.0,54.0,53.0,51.0,49.0,50.0,50.0,51.0,53.0,52.0,53.0,53.0,54.0,53.0,49.0,50.0,50.0,48.0,49.0,48.0,51.0,49.0,52.0,55.0,53.0,52.0,51.0,49.0,50.0,51.0,50.0,50.0,50.0,48.0,49.0,50.0,56.0,56.0,55.0,53.0,51.0,49.0,50.0,49.0,49.0,54.0,52.0,51.0,54.0,59.0,54.0,52.0,52.0,51.0,54.0,53.0,52.0,50.0,52.0,52.0,55.0,55.0,55.0,51.0,51.0,48.0,51.0,50.0,50.0,47.0,53.0,57.0,55.0,54.0,52.0,53.0,50.0,46.0,47.0,50.0,57.0,66.0,66.0,64.0,62.0,59.0,55.0,52.0,55.0,57.0,54.0,52.0,55.0,56.0,53.0,52.0,49.0,49.0,46.0,50.0,50.0,48.0,45.0,46.0,43.0,43.0,45.0,46.0,46.0,46.0,55.0,63.0,70.0,74.0,80.0,86.0,98.0,98.0,101.0,107.0,137.0,216.0,214.0,209.0,205.0,200.0,226.0,221.0,211.0,192.0,173.0,171.0,187.0,187.0,175.0,161.0,164.0,167.0,203.0,229.0,219.0,209.0,204.0,193.0,175.0,163.0,161.0,155.0,154.0,155.0,230.0,277.0,263.0,234.0,223.0,200.0,199.0,215.0,228.0,259.0,340.0,341.0,352.0,370.0,351.0,326.0,342.0,331.0,385.0,369.0,351.0,338.0,380.0,387.0,421.0,448.0,530.0,523.0,500.0,514.0,488.0,452.0,440.0,416.0,384.0,409.0,421.0,414.0,460.0,443.0,443.0,420.0,436.0,405.0,407.0,398.0,376.0,344.0,316.0,313.0,305.0,294.0,291.0,301.0,318.0,287.0,285.0,280.0,273.0,270.0,260.0,252.0,254.0,257.0,277.0,294.0,268.0,257.0,241.0,253.0,244.0,233.0,214.0,229.0,246.0,235.0,233.0,247.0,250.0,251.0,228.0,229.0,251.0,239.0,237.0,249.0,250.0,233.0,241.0,252.0,269.0,297.0,274.0,291.0,286.0,294.0,284.0,273.0,267.0,250.0,252.0,247.0,290.0,277.0,294.0,313.0,337.0,347.0,318.0,311.0,328.0,319.0,299.0,303.0,287.0,287.0,276.0,270.0,316.0,305.0,288.0,264.0,251.0,241.0,275.0,275.0,261.0,238.0,218.0,238.0,215.0,196.0,177.0,185.0,176.0,179.0,175.0,166.0,194.0,198.0,202.0,220.0,223.0,215.0,195.0,187.0,237.0,237.0,239.0,237.0,232.0,235.0,220.0,203.0,244.0,233.0,215.0,226.0,230.0,225.0,202.0,207.0,206.0,193.0,211.0,210.0,218.0,232.0,218.0,220.0,201.0,195.0,180.0,193.0,204.0,201.0,193.0,211.0,223.0,217.0,207.0,196.0,182.0,168.0,195.0,209.0,194.0,234.0,231.0,229.0,215.0,206.0,193.0,182.0,203.0,184.0,177.0,185.0,188.0,221.0,215.0,207.0,198.0,216.0,219.0,210.0,194.0,179.0,192.0,186.0,185.0,221.0,227.0,244.0,249.0,246.0,271.0,286.0,262.0,294.0,281.0,262.0,243.0,253.0,248.0,229.0,213.0,198.0,189.0,218.0,235.0,223.0,207.0,206.0,188.0,179.0,196.0,200.0,195.0,183.0,176.0,187.0,191.0,169.0,152.0,144.0,135.0,125.0,122.0,152.0,158.0,158.0,187.0,197.0,191.0,204.0,254.0,256.0,273.0,328.0,304.0,302.0,317.0,334.0,325.0,355.0,339.0,341.0,343.0,370.0,365.0,394.0,425.0,429.0,391.0,358.0,332.0,321.0,310.0,300.0,277.0,274.0,299.0,276.0,264.0,255.0,244.0,236.0,221.0,217.0,208.0,205.0,200.0,187.0,193.0,190.0,180.0,174.0,186.0,198.0,205.0,198.0,181.0,167.0,164.0,193.0,183.0,180.0,170.0,180.0,180.0,175.0,168.0,182.0,186.0,180.0,176.0,173.0,165.0,162.0,151.0,146.0,150.0,140.0,147.0,135.0,137.0,130.0,124.0,119.0,137.0,133.0,137.0,133.0,134.0,135.0,133.0,139.0,135.0,127.0,116.0,132.0,128.0,132.0,123.0,118.0,149.0,159.0,161.0,154.0,141.0,131.0,144.0,150.0,151.0,153.0,148.0,140.0,130.0,130.0,127.0,120.0,110.0,116.0,119.0,111.0,117.0,120.0,124.0,123.0,123.0,130.0,127.0,133.0,122.0,118.0,112.0,116.0,115.0,110.0,117.0,117.0,117.0,114.0,110.0,107.0,103.0,107.0,102.0,99.0,101.0,97.0,105.0,105.0,110.0,105.0,107.0,106.0,110.0,109.0,104.0,98.0,98.0,108.0,109.0,114.0,107.0,107.0,108.0,103.0,105.0,108.0,112.0,117.0,125.0,131.0,123.0,116.0,115.0,109.0,107.0,104.0,114.0,108.0,110.0,107.0,109.0,103.0,98.0,93.0,98.0,101.0,104.0,113.0,118.0,121.0,118.0,114.0,104.0,99.0,95.0,100.0,99.0,96.0,92.0,109.0,112.0,112.0,111.0,109.0,112.0,110.0,109.0,110.0,109.0,106.0,108.0,106.0,105.0,103.0,108.0,117.0,113.0,114.0,121.0,117.0,113.0,112.0,120.0,119.0,121.0,115.0,112.0,107.0,104.0,110.0,106.0,95.0,103.0,103.0,104.0,105.0,100.0,93.0,96.0,102.0,107.0,100.0,99.0,130.0,124.0,124.0,114.0,105.0,110.0,105.0,103.0,110.0,105.0,102.0,107.0,111.0,136.0,124.0,116.0,106.0,101.0,97.0,100.0,96.0,89.0,98.0,111.0,119.0,112.0,112.0,112.0,110.0,106.0,102.0,102.0,96.0,92.0,93.0,98.0,100.0,103.0,93.0,98.0,95.0,100.0,113.0,114.0,112.0,114.0,108.0,100.0,95.0,92.0,86.0,98.0,96.0,92.0,86.0,89.0,86.0,93.0,92.0,90.0,90.0,88.0,91.0,97.0,97.0,97.0,96.0,99.0,93.0,92.0,89.0,88.0,93.0,98.0,97.0,88.0,90.0,90.0,84.0,86.0,82.0,94.0,95.0,92.0,88.0,90.0,89.0,80.0,84.0,84.0,83.0,85.0,93.0,96.0,103.0,98.0,92.0,88.0,88.0,91.0,87.0,83.0,89.0,94.0,89.0,88.0,90.0,84.0,81.0,82.0,82.0,79.0,83.0,80.0,79.0,76.0,73.0,80.0,82.0,81.0,80.0,74.0,73.0,72.0,74.0,74.0,75.0,73.0,70.0,68.0,64.0,68.0,70.0,75.0,74.0,75.0,75.0,84.0,85.0,89.0,84.0,83.0,81.0,81.0,79.0,78.0,82.0,96.0,95.0,92.0,96.0,94.0,89.0,89.0,90.0,88.0,85.0,86.0,84.0,84.0,86.0,89.0,84.0,81.0,95.0,95.0,99.0,92.0,95.0,94.0,88.0,96.0,102.0,98.0,100.0,94.0,106.0,103.0,110.0,107.0,103.0,94.0,90.0,98.0,99.0,94.0,94.0,88.0,98.0,94.0,101.0,97.0,96.0,89.0,88.0,86.0,103.0,106.0,95.0,92.0,87.0,85.0,91.0,92.0,85.0,82.0,78.0,74.0,76.0,107.0,100.0,95.0,93.0,86.0,86.0,90.0,89.0,83.0,80.0,80.0,88.0,101.0,101.0,98.0,92.0,95.0,91.0,101.0,97.0,99.0,94.0,93.0,96.0,104.0,103.0,97.0,97.0,98.0,90.0,93.0,90.0,85.0,83.0,85.0,88.0,85.0,87.0,90.0,91.0,89.0,88.0,86.0,82.0,76.0,73.0,80.0,77.0,77.0,77.0,77.0,73.0,69.0,72.0,86.0,92.0,90.0,94.0,90.0,84.0,86.0,83.0,80.0,76.0,87.0,90.0,91.0,87.0,91.0,92.0,82.0,76.0,89.0,88.0
