79.0,80.0,80.0,80.0,79.0,79.0,79.0,77.0,78.0,78.0,79.0,77.0,75.0,77.0,75.0,73.0,74.0,72.0,73.0,72.0,72.0,71.0,70.0,70.0,67.0,67.0,64.0,64.0,63.0,62.0,62.0,61.0,61.0,59.0,59.0,60.0,58.0,59.0,59.0,59.0,59.0,59.0,59.0,59.0,58.0,59.0,58.0,58.0,56.0,55.0,55.0,53.0,52.0,52.0,51.0,51.0,49.0,47.0,48.0,47.0,47.0,48.0,49.0,48.0,48.0,47.0,46.0,48.0,47.0,47.0,47.0,46.0,47.0,46.0,47.0,47.0,46.0,49.0,48.0,49.0,49.0,49.0,48.0,49.0,48.0,49.0,50.0,53.0,54.0,54.0,55.0,58.0,58.0,59.0,65.0,71.0,67.0,68.0,66.0,67.0,69.0,77.0,79.0,76.0,79.0,84.0,89.0,85.0,94.0,95.0,94.0,94.0,91.0,90.0,91.0,88.0,83.0,81.0,84.0,89.0,92.0,96.0,98.0,96.0,97.0,96.0,100.0,98.0,98.0,100.0,99.0,97.0,96.0,95.0,93.0,95.0,93.0,93.0,92.0,90.0,90.0,91.0,89.0,88.0,88.0,87.0,86.0,85.0,84.0,84.0,85.0,83.0,78.0,79.0,82.0,78.0,81.0,75.0,74.0,74.0,76.0,78.0,74.0,71.0,70.0,71.0,71.0,73.0,76.0,76.0,74.0,73.0,71.0,70.0,68.0,69.0,71.0,70.0,69.0,70.0,68.0,64.0,64.0,65.0,65.0,67.0,65.0,63.0,61.0,59.0,61.0,62.0,63.0,61.0,59.0,58.0,58.0,60.0,61.0,58.0,59.0,59.0,59.0,59.0,57.0,61.0,60.0,61.0,60.0,58.0,62.0,60.0,59.0,61.0,62.0,60.0,58.0,60.0,60.0,65.0,63.0,61.0,63.0,60.0,62.0,65.0,63.0,59.0,58.0,58.0,56.0,59.0,60.0,59.0,59.0,58.0,57.0,57.0,58.0,58.0,57.0,57.0,57.0,56.0,61.0,58.0,59.0,62.0,61.0,60.0,61.0,63.0,64.0,63.0,62.0,63.0,62.0,60.0,59.0,58.0,58.0,56.0,56.0,55.0,56.0,55.0,57.0,58.0,59.0,57.0,57.0,56.0,55.0,55.0,56.0,55.0,58.0,59.0,57.0,58.0,57.0,59.0,59.0,61.0,61.0,61.0,61.0,60.0,63.0,62.0,61.0,60.0,61.0,63.0,64.0,65.0,66.0,66.0,65.0,66.0,66.0,67.0,66.0,65.0,66.0,66.0,69.0,70.0,71.0,67.0,68.0,68.0,68.0,70.0,70.0,72.0,73.0,71.0,70.0,70.0,69.0,66.0,64.0,64.0,64.0,65.0,63.0,65.0,62.0,62.0,64.0,65.0,63.0,66.0,65.0,62.0,61.0,63.0,63.0,63.0,61.0,60.0,59.0,58.0,62.0,62.0,57.0,59.0,60.0,58.0,59.0,59.0,59.0,59.0,58.0,59.0,58.0,57.0,57.0,54.0,53.0,54.0,54.0,54.0,55.0,54.0,56.0,58.0,60.0,60.0,59.0,59.0,59.0,60.0,59.0,59.0,57.0,58.0,57.0,56.0,58.0,59.0,63.0,60.0,60.0,57.0,56.0,54.0,55.0,55.0,53.0,54.0,54.0,54.0,56.0,58.0,59.0,57.0,57.0,56.0,55.0,56.0,55.0,55.0,57.0,56.0,58.0,62.0,89.0,102.0,103.0,135.0,150.0,143.0,148.0,143.0,146.0,143.0,137.0,127.0,122.0,120.0,112.0,106.0,103.0,97.0,96.0,94.0,90.0,89.0,87.0,91.0,91.0,90.0,91.0,90.0,90.0,93.0,95.0,95.0,99.0,101.0,100.0,98.0,100.0,99.0,103.0,101.0,104.0,104.0,102.0,105.0,105.0,103.0,102.0,102.0,100.0,100.0,101.0,101.0,101.0,101.0,98.0,98.0,98.0,97.0,98.0,95.0,94.0,92.0,90.0,91.0,88.0,86.0,85.0,83.0,81.0,79.0,81.0,77.0,77.0,77.0,74.0,73.0,72.0,73.0,70.0,71.0,70.0,67.0,67.0,65.0,65.0,66.0,64.0,62.0,61.0,59.0,57.0,56.0,57.0,55.0,56.0,56.0,55.0,55.0,56.0,59.0,57.0,57.0,56.0,55.0,54.0,56.0,56.0,56.0,55.0,53.0,52.0,51.0,52.0,53.0,55.0,54.0,55.0,54.0,54.0,55.0,55.0,56.0,56.0,55.0,58.0,58.0,60.0,59.0,61.0,62.0,61.0,62.0,61.0,60.0,59.0,57.0,58.0,57.0,55.0,54.0,53.0,53.0,51.0,53.0,53.0,53.0,55.0,52.0,51.0,50.0,49.0,50.0,50.0,49.0,51.0,50.0,50.0,49.0,50.0,51.0,52.0,53.0,51.0,50.0,51.0,51.0,53.0,50.0,51.0,51.0,50.0,50.0,51.0,50.0,51.0,51.0,53.0,51.0,51.0,51.0,53.0,54.0,55.0,56.0,57.0,56.0,58.0,57.0,57.0,58.0,58.0,58.0,58.0,57.0,57.0,57.0,59.0,60.0,60.0,61.0,58.0,60.0,59.0,58.0,58.0,57.0,57.0,57.0,56.0,56.0,54.0,55.0,52.0,52.0,51.0,51.0,51.0,52.0,52.0,52.0,52.0,53.0,52.0,53.0,51.0,53.0,52.0,53.0,52.0,52.0,52.0,51.0,51.0,50.0,49.0,47.0,46.0,46.0,46.0,47.0,48.0,47.0,50.0,49.0,47.0,47.0,47.0,48.0,48.0,48.0,49.0,48.0,50.0,51.0,52.0,51.0,51.0,50.0,49.0,48.0,47.0,49.0,51.0,49.0,50.0,51.0,51.0,53.0,51.0,51.0,52.0,52.0,54.0,56.0,57.0,57.0,58.0,55.0,55.0,56.0,56.0,54.0,53.0,49.0,53.0,52.0,53.0,52.0,54.0,54.0,55.0,54.0,56.0,55.0,56.0,55.0,56.0,56.0,55.0,55.0,56.0,55.0,54.0,53.0,53.0,53.0,53.0,52.0,53.0,52.0,53.0,54.0,53.0,55.0,54.0,54.0,54.0,53.0,52.0,51.0,51.0,51.0,53.0,51.0,50.0,49.0,50.0,50.0,50.0,50.0,50.0,51.0,51.0,51.0,51.0,52.0,51.0,48.0,49.0,47.0,48.0,49.0,49.0,49.0,48.0,48.0,47.0,47.0,49.0,50.0,51.0,51.0,52.0,51.0,50.0,53.0,52.0,51.0,51.0,49.0,50.0,50.0,49.0,48.0,47.0,48.0,48.0,49.0,48.0,48.0,50.0,50.0,50.0,50.0,50.0,51.0,49.0,50.0,50.0,49.0,50.0,48.0,48.0,49.0,48.0,49.0,47.0,47.0,47.0,47.0,48.0,48.0,49.0,50.0,50.0,50.0,49.0,49.0,48.0,50.0,49.0,49.0,48.0,47.0,48.0,48.0,47.0,47.0,47.0,47.0,46.0,46.0,47.0,47.0,47.0,46.0,47.0,48.0,47.0,47.0,47.0,47.0,49.0,49.0,50.0,48.0,48.0,49.0,48.0,48.0,47.0,49.0,48.0,48.0,49.0,48.0,49.0,50.0,49.0,50.0,48.0,50.0,49.0,48.0,49.0,49.0,50.0,50.0,50.0,52.0,51.0,52.0,52.0,51.0,52.0,50.0,53.0,51.0,51.0,53.0,53.0,54.0,52.0,53.0,52.0,54.0,55.0,56.0,57.0,56.0,55.0,59.0,59.0,59.0,59.0,58.0,57.0,57.0,58.0,59.0,58.0,59.0,58.0,60.0,58.0,58.0,57.0,56.0,56.0,54.0,53.0,52.0,51.0,52.0,52.0,51.0,51.0,50.0,51.0,51.0,50.0,52.0,53.0,53.0,52.0,52.0,52.0,53.0,53.0,53.0,54.0,53.0,55.0,54.0,53.0,55.0,55.0,55.0,54.0,55.0,54.0,52.0,53.0,53.0,51.0,51.0,51.0,53.0,53.0,55.0,55.0,54.0,54.0,54.0,54.0,54.0,54.0,56.0,54.0,55.0,55.0,55.0,56.0,55.0,56.0,57.0,57.0,58.0,59.0,60.0,60.0,61.0,63.0,61.0,62.0,61.0,62.0,63.0,62.0,64.0,64.0,63.0,62.0,62.0,62.0,60.0,59.0,59.0,58.0,59.0,56.0,57.0,58.0,58.0,60.0,58.0,56.0,57.0,56.0,57.0,55.0,56.0,57.0,56.0,57.0,58.0,59.0,59.0,58.0,58.0,57.0,58.0
74.0,73.0,75.0,74.0,74.0,74.0,74.0,72.0,71.0,68.0,70.0,68.0,69.0,67.0,68.0,66.0,67.0,68.0,68.0,67.0,66.0,67.0,66.0,67.0,66.0,67.0,67.0,66.0,66.0,68.0,69.0,70.0,69.0,68.0,68.0,66.0,63.0,66.0,65.0,64.0,62.0,62.0,60.0,60.0,59.0,59.0,59.0,57.0,56.0,55.0,54.0,52.0,51.0,53.0,51.0,50.0,50.0,47.0,47.0,46.0,48.0,51.0,48.0,49.0,48.0,46.0,46.0,47.0,48.0,46.0,45.0,45.0,45.0,46.0,46.0,45.0,43.0,46.0,46.0,46.0,47.0,46.0,52.0,53.0,51.0,50.0,72.0,80.0,78.0,75.0,76.0,78.0,82.0,97.0,98.0,97.0,92.0,104.0,107.0,107.0,113.0,135.0,140.0,154.0,162.0,160.0,170.0,174.0,193.0,189.0,201.0,201.0,203.0,205.0,208.0,209.0,207.0,201.0,205.0,207.0,202.0,201.0,199.0,197.0,192.0,192.0,193.0,191.0,188.0,188.0,188.0,184.0,186.0,184.0,182.0,189.0,184.0,185.0,184.0,185.0,186.0,187.0,186.0,184.0,183.0,182.0,181.0,181.0,180.0,180.0,182.0,180.0,177.0,176.0,178.0,176.0,180.0,173.0,171.0,172.0,168.0,171.0,164.0,161.0,159.0,155.0,156.0,160.0,156.0,154.0,152.0,150.0,146.0,144.0,142.0,141.0,142.0,139.0,137.0,140.0,134.0,132.0,131.0,128.0,134.0,135.0,128.0,128.0,125.0,123.0,121.0,124.0,121.0,121.0,119.0,116.0,117.0,118.0,114.0,113.0,109.0,113.0,108.0,104.0,103.0,104.0,102.0,100.0,101.0,98.0,100.0,95.0,91.0,95.0,90.0,89.0,89.0,94.0,89.0,89.0,87.0,87.0,85.0,84.0,84.0,91.0,87.0,80.0,80.0,77.0,77.0,79.0,79.0,80.0,75.0,78.0,76.0,72.0,74.0,71.0,70.0,72.0,69.0,67.0,71.0,69.0,71.0,71.0,75.0,71.0,76.0,73.0,73.0,73.0,68.0,72.0,68.0,66.0,64.0,63.0,63.0,60.0,60.0,58.0,59.0,57.0,59.0,61.0,66.0,65.0,66.0,65.0,63.0,67.0,65.0,64.0,68.0,67.0,65.0,68.0,65.0,67.0,65.0,65.0,64.0,65.0,62.0,64.0,65.0,62.0,65.0,66.0,67.0,64.0,68.0,67.0,69.0,66.0,64.0,65.0,64.0,65.0,65.0,65.0,70.0,69.0,70.0,70.0,66.0,64.0,66.0,68.0,70.0,70.0,77.0,77.0,76.0,73.0,69.0,73.0,72.0,69.0,67.0,67.0,70.0,67.0,66.0,69.0,68.0,68.0,70.0,75.0,72.0,77.0,77.0,78.0,79.0,79.0,81.0,83.0,85.0,83.0,86.0,83.0,91.0,91.0,90.0,88.0,89.0,88.0,89.0,91.0,93.0,90.0,88.0,87.0,87.0,86.0,84.0,82.0,78.0,77.0,74.0,74.0,74.0,75.0,77.0,78.0,82.0,81.0,80.0,77.0,77.0,74.0,76.0,76.0,77.0,76.0,76.0,76.0,74.0,74.0,82.0,79.0,74.0,72.0,70.0,67.0,65.0,64.0,63.0,66.0,65.0,67.0,66.0,71.0,70.0,67.0,67.0,67.0,65.0,64.0,63.0,62.0,64.0,65.0,67.0,70.0,72.0,80.0,111.0,120.0,135.0,141.0,139.0,143.0,140.0,145.0,152.0,152.0,157.0,168.0,180.0,186.0,201.0,210.0,215.0,228.0,233.0,241.0,241.0,248.0,252.0,253.0,251.0,250.0,247.0,244.0,243.0,241.0,241.0,240.0,236.0,231.0,229.0,226.0,224.0,220.0,219.0,217.0,214.0,214.0,214.0,210.0,207.0,205.0,199.0,196.0,193.0,188.0,182.0,178.0,174.0,169.0,167.0,163.0,163.0,159.0,156.0,153.0,150.0,148.0,144.0,138.0,137.0,132.0,128.0,123.0,120.0,114.0,112.0,111.0,107.0,103.0,101.0,98.0,93.0,92.0,89.0,85.0,82.0,77.0,75.0,71.0,68.0,65.0,65.0,61.0,58.0,56.0,54.0,54.0,51.0,51.0,50.0,48.0,50.0,51.0,50.0,48.0,48.0,48.0,48.0,51.0,49.0,50.0,49.0,49.0,49.0,53.0,53.0,54.0,55.0,55.0,55.0,57.0,58.0,57.0,61.0,60.0,62.0,64.0,63.0,64.0,64.0,70.0,69.0,69.0,74.0,72.0,74.0,74.0,76.0,81.0,80.0,79.0,80.0,79.0,82.0,80.0,81.0,80.0,78.0,77.0,77.0,78.0,78.0,80.0,80.0,79.0,78.0,78.0,77.0,78.0,76.0,78.0,78.0,79.0,76.0,75.0,75.0,73.0,73.0,74.0,74.0,76.0,75.0,75.0,76.0,77.0,78.0,79.0,79.0,81.0,80.0,81.0,79.0,78.0,79.0,76.0,76.0,74.0,73.0,73.0,72.0,72.0,74.0,73.0,70.0,71.0,71.0,72.0,73.0,74.0,74.0,72.0,69.0,67.0,67.0,63.0,62.0,60.0,59.0,61.0,60.0,60.0,57.0,57.0,58.0,56.0,56.0,56.0,55.0,54.0,54.0,52.0,54.0,54.0,54.0,55.0,56.0,56.0,60.0,58.0,58.0,58.0,59.0,59.0,58.0,58.0,55.0,55.0,54.0,53.0,54.0,53.0,53.0,55.0,57.0,58.0,56.0,56.0,54.0,54.0,57.0,54.0,57.0,55.0,55.0,56.0,55.0,54.0,53.0,52.0,53.0,50.0,50.0,48.0,48.0,50.0,49.0,49.0,51.0,49.0,49.0,48.0,48.0,48.0,49.0,49.0,49.0,56.0,53.0,52.0,50.0,53.0,53.0,54.0,53.0,53.0,54.0,56.0,55.0,55.0,56.0,57.0,56.0,55.0,55.0,57.0,56.0,55.0,55.0,55.0,54.0,56.0,60.0,59.0,58.0,59.0,59.0,58.0,57.0,57.0,57.0,55.0,54.0,55.0,55.0,53.0,53.0,55.0,55.0,54.0,54.0,55.0,54.0,57.0,56.0,55.0,55.0,56.0,56.0,58.0,58.0,56.0,55.0,55.0,55.0,54.0,55.0,52.0,55.0,52.0,51.0,52.0,52.0,55.0,52.0,52.0,54.0,51.0,51.0,52.0,54.0,53.0,54.0,54.0,53.0,55.0,54.0,52.0,53.0,52.0,54.0,52.0,51.0,52.0,51.0,52.0,51.0,49.0,50.0,48.0,50.0,49.0,49.0,49.0,49.0,48.0,48.0,48.0,49.0,49.0,50.0,50.0,48.0,49.0,49.0,49.0,49.0,52.0,53.0,52.0,54.0,55.0,55.0,55.0,53.0,53.0,54.0,53.0,54.0,54.0,53.0,53.0,52.0,55.0,54.0,53.0,54.0,52.0,53.0,53.0,56.0,55.0,57.0,56.0,55.0,54.0,55.0,56.0,57.0,58.0,59.0,59.0,58.0,58.0,58.0,60.0,62.0,59.0,57.0,58.0,56.0,57.0,56.0,56.0,57.0,57.0,57.0,55.0,55.0,58.0,55.0,55.0,55.0,55.0,56.0,55.0,55.0,56.0,54.0,53.0,53.0,54.0,56.0,55.0,56.0,52.0,53.0,54.0,54.0,55.0,53.0,53.0,52.0,50.0,51.0,49.0,50.0,50.0,50.0,48.0,48.0,49.0,48.0,49.0,54.0,53.0,52.0,52.0,54.0,54.0,56.0,55.0,60.0,60.0,59.0,58.0,62.0,57.0,55.0,55.0,56.0,55.0,52.0,53.0,54.0,52.0,53.0,52.0,53.0,52.0,50.0,52.0,50.0,50.0,49.0,53.0,54.0,52.0,51.0,50.0,49.0,49.0,50.0,52.0,50.0,50.0,52.0,51.0,52.0,50.0,50.0,52.0,52.0,50.0,51.0,54.0,53.0,53.0,53.0,52.0,54.0,54.0,53.0,52.0,52.0,51.0,50.0,52.0,53.0,52.0,50.0,49.0,50.0,49.0,48.0,48.0,50.0,51.0,49.0,49.0,49.0,48.0,48.0,49.0,51.0,49.0,48.0,48.0,45.0,47.0,46.0,44.0,45.0,48.0,47.0,45.0,46.0,46.0,44.0,44.0,45.0,46.0,45.0,44.0,44.0,43.0,43.0,43.0,42.0,43.0,43.0,44.0,44.0,43.0,43.0,43.0,45.0,43.0,46.0,46.0,45.0,43.0,42.0,41.0,42.0,41.0
26.0,24.0,25.0,26.0,27.0,29.0,26.0,25.0,23.0,20.0,18.0,21.0,19.0,27.0,27.0,26.0,25.0,22.0,20.0,33.0,31.0,26.0,24.0,21.0,21.0,19.0,19.0,17.0,26.0,39.0,36.0,32.0,28.0,27.0,31.0,30.0,28.0,25.0,22.0,18.0,18.0,17.0,28.0,24.0,28.0,29.0,26.0,23.0,22.0,25.0,24.0,23.0,26.0,28.0,33.0,30.0,27.0,26.0,23.0,23.0,40.0,38.0,39.0,36.0,33.0,29.0,29.0,32.0,29.0,26.0,24.0,25.0,27.0,34.0,37.0,32.0,32.0,43.0,38.0,47.0,46.0,43.0,46.0,40.0,37.0,35.0,42.0,38.0,38.0,39.0,37.0,37.0,34.0,48.0,45.0,37.0,39.0,37.0,55.0,58.0,68.0,75.0,82.0,90.0,84.0,84.0,82.0,88.0,86.0,96.0,103.0,124.0,115.0,115.0,123.0,107.0,101.0,108.0,111.0,100.0,95.0,87.0,80.0,86.0,83.0,77.0,76.0,67.0,60.0,56.0,54.0,61.0,62.0,54.0,51.0,47.0,53.0,50.0,45.0,39.0,38.0,57.0,50.0,50.0,54.0,51.0,55.0,50.0,49.0,45.0,42.0,63.0,59.0,54.0,50.0,58.0,52.0,45.0,41.0,51.0,59.0,53.0,48.0,47.0,51.0,47.0,49.0,46.0,45.0,40.0,37.0,36.0,32.0,34.0,33.0,31.0,26.0,32.0,30.0,40.0,48.0,45.0,51.0,54.0,57.0,73.0,69.0,81.0,80.0,75.0,67.0,64.0,82.0,87.0,81.0,72.0,73.0,76.0,77.0,72.0,66.0,62.0,66.0,58.0,61.0,63.0,58.0,52.0,56.0,57.0,60.0,53.0,50.0,71.0,64.0,62.0,56.0,54.0,53.0,47.0,42.0,60.0,75.0,69.0,65.0,74.0,73.0,68.0,60.0,56.0,51.0,65.0,68.0,60.0,55.0,51.0,50.0,49.0,61.0,61.0,60.0,55.0,56.0,57.0,62.0,68.0,65.0,61.0,53.0,58.0,61.0,62.0,58.0,51.0,45.0,44.0,45.0,41.0,51.0,46.0,42.0,38.0,34.0,41.0,44.0,39.0,38.0,34.0,31.0,33.0,33.0,32.0,28.0,25.0,23.0,32.0,45.0,46.0,42.0,40.0,36.0,43.0,39.0,36.0,33.0,33.0,32.0,35.0,43.0,37.0,36.0,37.0,35.0,41.0,40.0,37.0,34.0,36.0,32.0,30.0,28.0,27.0,29.0,39.0,41.0,39.0,48.0,43.0,39.0,34.0,46.0,49.0,65.0,63.0,57.0,70.0,61.0,59.0,57.0,50.0,51.0,47.0,50.0,52.0,52.0,47.0,50.0,47.0,48.0,50.0,59.0,54.0,49.0,43.0,38.0,35.0,40.0,45.0,38.0,37.0,33.0,39.0,45.0,43.0,43.0,41.0,40.0,42.0,54.0,56.0,50.0,45.0,47.0,44.0,54.0,51.0,46.0,42.0,38.0,40.0,36.0,36.0,42.0,43.0,50.0,49.0,51.0,52.0,46.0,43.0,38.0,33.0,33.0,47.0,51.0,45.0,41.0,37.0,42.0,66.0,63.0,58.0,52.0,46.0,45.0,47.0,49.0,51.0,49.0,44.0,39.0,48.0,51.0,51.0,50.0,52.0,57.0,49.0,54.0,49.0,43.0,55.0,62.0,57.0,50.0,52.0,65.0,66.0,72.0,91.0,165.0,190.0,212.0,196.0,191.0,222.0,258.0,268.0,261.0,281.0,288.0,272.0,261.0,264.0,259.0,237.0,228.0,200.0,198.0,184.0,179.0,177.0,159.0,139.0,132.0,122.0,109.0,106.0,110.0,117.0,114.0,108.0,101.0,98.0,93.0,90.0,83.0,76.0,79.0,84.0,78.0,77.0,66.0,63.0,68.0,63.0,76.0,74.0,69.0,70.0,70.0,64.0,68.0,63.0,65.0,69.0,64.0,67.0,63.0,59.0,70.0,73.0,66.0,60.0,67.0,66.0,57.0,54.0,51.0,55.0,55.0,48.0,42.0,43.0,45.0,47.0,57.0,53.0,48.0,55.0,53.0,60.0,64.0,55.0,50.0,50.0,44.0,39.0,39.0,38.0,41.0,48.0,45.0,39.0,34.0,32.0,35.0,43.0,43.0,41.0,42.0,45.0,51.0,57.0,49.0,46.0,39.0,38.0,34.0,37.0,41.0,38.0,40.0,35.0,34.0,31.0,37.0,33.0,35.0,37.0,34.0,32.0,35.0,32.0,31.0,51.0,44.0,45.0,42.0,39.0,33.0,30.0,33.0,57.0,51.0,48.0,46.0,42.0,38.0,33.0,36.0,47.0,46.0,41.0,39.0,35.0,31.0,35.0,32.0,41.0,35.0,36.0,35.0,30.0,31.0,35.0,42.0,51.0,46.0,41.0,35.0,33.0,31.0,30.0,39.0,36.0,38.0,34.0,30.0,27.0,25.0,30.0,36.0,39.0,42.0,36.0,33.0,29.0,31.0,29.0,26.0,29.0,26.0,23.0,22.0,24.0,24.0,23.0,24.0,26.0,24.0,21.0,27.0,31.0,42.0,42.0,39.0,34.0,30.0,29.0,27.0,27.0,26.0,39.0,33.0,29.0,28.0,25.0,29.0,29.0,27.0,24.0,19.0,20.0,17.0,16.0,21.0,24.0,23.0,29.0,28.0,27.0,28.0,28.0,24.0,24.0,27.0,23.0,23.0,25.0,23.0,20.0,18.0,16.0,14.0,13.0,12.0,19.0,33.0,38.0,40.0,36.0,32.0,31.0,35.0,32.0,35.0,38.0,35.0,39.0,46.0,41.0,39.0,34.0,39.0,36.0,31.0,30.0,29.0,43.0,41.0,36.0,42.0,38.0,40.0,35.0,34.0,41.0,48.0,42.0,42.0,54.0,52.0,52.0,46.0,56.0,55.0,64.0,56.0,51.0,46.0,45.0,42.0,40.0,47.0,54.0,49.0,47.0,41.0,47.0,51.0,49.0,56.0,49.0,44.0,38.0,38.0,43.0,37.0,35.0,34.0,40.0,37.0,38.0,47.0,42.0,39.0,35.0,37.0,34.0,31.0,37.0,36.0,32.0,30.0,31.0,28.0,36.0,36.0,38.0,33.0,38.0,35.0,38.0,42.0,41.0,37.0,37.0,36.0,31.0,35.0,38.0,40.0,36.0,31.0,28.0,32.0,30.0,28.0,27.0,33.0,30.0,26.0,23.0,24.0,22.0,28.0,26.0,26.0,33.0,32.0,29.0,26.0,30.0,30.0,27.0,30.0,37.0,34.0,30.0,27.0,26.0,25.0,27.0,36.0,35.0,30.0,29.0,33.0,29.0,29.0,29.0,34.0,36.0,36.0,45.0,41.0,36.0,35.0,33.0,31.0,30.0,27.0,25.0,21.0,21.0,20.0,20.0,19.0,19.0,33.0,28.0,33.0,34.0,32.0,28.0,24.0,31.0,27.0,25.0,26.0,27.0,26.0,23.0,24.0,26.0,27.0,30.0,25.0,24.0,20.0,18.0,24.0,25.0,31.0,28.0,23.0,30.0,28.0,39.0,45.0,41.0,37.0,33.0,30.0,26.0,23.0,21.0,19.0,26.0,22.0,20.0,21.0,27.0,31.0,29.0,29.0,28.0,24.0,22.0,19.0,19.0,17.0,17.0,16.0,20.0,29.0,32.0,30.0,27.0,28.0,34.0,33.0,30.0,29.0,27.0,26.0,25.0,23.0,23.0,23.0,37.0,40.0,44.0,40.0,35.0,32.0,29.0,37.0,32.0,28.0,27.0,30.0,30.0,37.0,35.0,47.0,46.0,41.0,37.0,42.0,41.0,37.0,35.0,33.0,37.0,33.0,27.0,30.0,26.0,25.0,30.0,36.0,39.0,35.0,31.0,29.0,31.0,27.0,50.0,57.0,50.0,44.0,40.0,36.0,38.0,34.0,46.0,40.0,37.0,43.0,38.0,35.0,31.0,31.0,33.0,29.0,27.0,24.0,36.0,33.0,28.0,28.0,25.0,31.0,29.0,24.0,23.0,21.0,20.0,19.0,22.0,30.0,29.0,26.0,26.0,28.0,25.0,23.0,22.0,23.0,28.0,26.0,26.0,31.0,30.0,29.0,29.0,37.0,34.0,30.0,27.0,24.0,28.0,28.0,24.0,27.0,29.0,26.0,23.0,22.0,21.0,19.0,17.0,19.0,30.0,28.0,29.0,31.0,32.0,35.0,31.0,28.0,25.0,24.0,26.0,27.0,26.0,24.0,22.0,24.0,22.0,21.0,25.0,23.0,20.0,21.0,19.0,19.0,16.0
66.0,70.0,68.0,66.0,65.0,60.0,58.0,58.0,57.0,59.0,60.0,62.0,62.0,63.0,63.0,60.0,72.0,69.0,67.0,67.0,70.0,79.0,76.0,77.0,74.0,71.0,73.0,67.0,74.0,78.0,79.0,78.0,81.0,76.0,84.0,81.0,77.0,75.0,73.0,72.0,68.0,73.0,70.0,68.0,69.0,69.0,66.0,63.0,63.0,59.0,58.0,65.0,65.0,66.0,63.0,62.0,62.0,59.0,59.0,62.0,75.0,81.0,76.0,71.0,67.0,66.0,78.0,79.0,78.0,70.0,69.0,68.0,64.0,66.0,73.0,77.0,74.0,77.0,77.0,79.0,74.0,74.0,73.0,79.0,84.0,82.0,74.0,70.0,73.0,73.0,74.0,73.0,78.0,80.0,89.0,93.0,88.0,90.0,86.0,84.0,87.0,113.0,108.0,137.0,157.0,158.0,154.0,168.0,161.0,161.0,165.0,157.0,171.0,165.0,166.0,159.0,152.0,141.0,135.0,140.0,132.0,121.0,122.0,121.0,121.0,118.0,113.0,114.0,108.0,106.0,100.0,97.0,93.0,94.0,88.0,84.0,82.0,83.0,85.0,86.0,83.0,77.0,81.0,76.0,71.0,72.0,71.0,66.0,67.0,63.0,64.0,62.0,65.0,62.0,60.0,63.0,61.0,59.0,58.0,55.0,55.0,55.0,55.0,52.0,53.0,50.0,55.0,55.0,57.0,57.0,52.0,51.0,47.0,48.0,48.0,47.0,47.0,46.0,47.0,57.0,56.0,58.0,64.0,61.0,60.0,60.0,63.0,69.0,70.0,66.0,62.0,61.0,67.0,67.0,66.0,64.0,66.0,64.0,65.0,64.0,63.0,62.0,68.0,67.0,64.0,63.0,60.0,57.0,57.0,56.0,57.0,56.0,53.0,61.0,57.0,63.0,62.0,60.0,60.0,54.0,54.0,56.0,64.0,60.0,56.0,63.0,58.0,60.0,60.0,59.0,57.0,64.0,61.0,61.0,59.0,56.0,55.0,53.0,55.0,58.0,60.0,58.0,55.0,52.0,56.0,59.0,58.0,57.0,54.0,53.0,52.0,55.0,55.0,50.0,50.0,50.0,50.0,51.0,54.0,53.0,50.0,48.0,46.0,48.0,48.0,48.0,46.0,44.0,46.0,47.0,48.0,47.0,45.0,49.0,49.0,52.0,52.0,50.0,51.0,50.0,52.0,54.0,53.0,48.0,49.0,48.0,50.0,53.0,53.0,51.0,48.0,52.0,51.0,58.0,59.0,58.0,55.0,54.0,50.0,52.0,49.0,50.0,55.0,53.0,51.0,49.0,52.0,51.0,48.0,46.0,50.0,57.0,57.0,55.0,53.0,51.0,53.0,52.0,49.0,52.0,52.0,51.0,53.0,52.0,50.0,50.0,54.0,52.0,58.0,56.0,52.0,51.0,48.0,47.0,46.0,46.0,49.0,47.0,45.0,47.0,45.0,48.0,50.0,48.0,49.0,46.0,48.0,52.0,55.0,53.0,51.0,51.0,49.0,52.0,53.0,52.0,50.0,47.0,44.0,45.0,45.0,44.0,46.0,49.0,51.0,52.0,56.0,60.0,61.0,57.0,56.0,52.0,50.0,55.0,57.0,55.0,53.0,51.0,50.0,53.0,59.0,58.0,58.0,58.0,57.0,54.0,51.0,51.0,51.0,50.0,48.0,49.0,49.0,48.0,48.0,49.0,54.0,55.0,54.0,51.0,50.0,52.0,55.0,55.0,52.0,52.0,55.0,55.0,98.0,142.0,211.0,239.0,242.0,248.0,249.0,290.0,327.0,319.0,354.0,434.0,424.0,404.0,401.0,399.0,380.0,369.0,355.0,354.0,373.0,371.0,352.0,359.0,331.0,312.0,297.0,299.0,275.0,261.0,243.0,245.0,243.0,259.0,242.0,258.0,265.0,255.0,239.0,223.0,222.0,221.0,245.0,239.0,225.0,210.0,201.0,193.0,186.0,181.0,178.0,166.0,163.0,160.0,160.0,158.0,165.0,176.0,162.0,150.0,144.0,137.0,134.0,146.0,146.0,135.0,132.0,128.0,130.0,130.0,136.0,131.0,131.0,133.0,126.0,124.0,119.0,123.0,128.0,121.0,111.0,105.0,102.0,95.0,98.0,91.0,99.0,97.0,96.0,91.0,103.0,102.0,99.0,99.0,95.0,93.0,94.0,87.0,84.0,86.0,86.0,87.0,88.0,98.0,96.0,92.0,88.0,83.0,81.0,79.0,78.0,87.0,93.0,85.0,88.0,89.0,88.0,86.0,82.0,78.0,71.0,67.0,64.0,84.0,88.0,82.0,78.0,77.0,72.0,73.0,73.0,74.0,78.0,77.0,75.0,78.0,80.0,83.0,84.0,83.0,83.0,80.0,78.0,80.0,79.0,74.0,71.0,68.0,66.0,65.0,64.0,69.0,67.0,66.0,64.0,60.0,57.0,61.0,67.0,64.0,61.0,59.0,59.0,56.0,54.0,55.0,64.0,62.0,61.0,63.0,64.0,64.0,64.0,66.0,64.0,61.0,63.0,62.0,65.0,62.0,65.0,68.0,67.0,67.0,65.0,64.0,69.0,67.0,70.0,76.0,75.0,73.0,68.0,63.0,67.0,71.0,77.0,71.0,71.0,72.0,69.0,69.0,65.0,65.0,69.0,66.0,65.0,65.0,65.0,64.0,62.0,64.0,60.0,59.0,57.0,53.0,53.0,51.0,51.0,54.0,53.0,58.0,59.0,58.0,63.0,60.0,60.0,58.0,56.0,54.0,54.0,51.0,51.0,50.0,47.0,45.0,43.0,42.0,47.0,46.0,54.0,59.0,61.0,58.0,55.0,54.0,52.0,55.0,59.0,61.0,60.0,62.0,60.0,57.0,55.0,54.0,57.0,58.0,58.0,58.0,56.0,64.0,70.0,74.0,72.0,68.0,68.0,66.0,68.0,70.0,69.0,75.0,70.0,82.0,81.0,83.0,81.0,74.0,75.0,77.0,73.0,69.0,68.0,64.0,64.0,67.0,69.0,69.0,65.0,63.0,59.0,60.0,59.0,60.0,69.0,71.0,66.0,67.0,62.0,58.0,56.0,54.0,53.0,50.0,52.0,50.0,50.0,50.0,53.0,53.0,52.0,51.0,50.0,61.0,60.0,60.0,64.0,62.0,58.0,57.0,55.0,54.0,53.0,57.0,57.0,56.0,54.0,56.0,57.0,56.0,59.0,58.0,56.0,55.0,56.0,56.0,52.0,51.0,53.0,54.0,58.0,58.0,59.0,57.0,56.0,55.0,59.0,65.0,62.0,60.0,58.0,59.0,59.0,65.0,65.0,64.0,69.0,66.0,66.0,64.0,61.0,60.0,61.0,59.0,56.0,56.0,60.0,57.0,57.0,55.0,53.0,54.0,54.0,53.0,51.0,52.0,53.0,57.0,57.0,54.0,59.0,61.0,60.0,63.0,68.0,68.0,66.0,64.0,62.0,61.0,60.0,61.0,62.0,60.0,60.0,69.0,67.0,65.0,63.0,60.0,61.0,63.0,65.0,66.0,65.0,69.0,67.0,65.0,62.0,65.0,68.0,66.0,61.0,59.0,59.0,57.0,58.0,57.0,54.0,56.0,58.0,58.0,63.0,60.0,59.0,60.0,59.0,59.0,60.0,58.0,57.0,59.0,57.0,57.0,55.0,63.0,63.0,65.0,63.0,62.0,60.0,58.0,56.0,62.0,59.0,57.0,54.0,62.0,58.0,61.0,64.0,60.0,58.0,54.0,52.0,54.0,53.0,56.0,58.0,60.0,59.0,56.0,55.0,57.0,57.0,57.0,56.0,60.0,57.0,55.0,57.0,56.0,59.0,58.0,57.0,54.0,53.0,51.0,53.0,53.0,55.0,56.0,58.0,62.0,60.0,59.0,56.0,56.0,54.0,53.0,58.0,57.0,61.0,61.0,61.0,58.0,57.0,52.0,54.0,57.0,55.0,60.0,60.0,64.0,60.0,58.0,57.0,59.0,59.0,66.0,64.0,60.0,61.0,59.0,67.0,66.0,65.0,68.0,68.0,64.0,60.0,60.0,63.0,61.0,59.0,59.0,58.0,64.0,63.0,57.0,61.0,60.0,60.0,59.0,60.0,58.0,56.0,57.0,55.0,54.0,52.0,50.0,51.0,56.0,54.0,59.0,58.0,56.0,56.0,55.0,55.0,55.0,51.0,58.0,57.0,59.0,56.0,55.0,58.0,59.0,57.0,53.0,57.0,55.0,53.0,55.0,58.0,57.0,57.0,58.0,63.0,62.0,59.0,57.0,54.0,57.0,59.0,62.0,61.0,57.0,59.0,59.0,56.0,54.0,57.0,56.0,55.0,53.0,54.0,53.0,52.0,49.0
