45.0,44.0,45.0,44.0,44.0,44.0,44.0,44.0,44.0,43.0,44.0,44.0,44.0,43.0,45.0,46.0,47.0,46.0,46.0,46.0,45.0,47.0,47.0,47.0,47.0,46.0,47.0,47.0,47.0,46.0,45.0,45.0,45.0,45.0,45.0,45.0,45.0,46.0,46.0,46.0,47.0,46.0,46.0,45.0,46.0,46.0,45.0,46.0,46.0,45.0,47.0,47.0,46.0,46.0,46.0,46.0,45.0,45.0,47.0,45.0,46.0,45.0,44.0,46.0,45.0,47.0,46.0,46.0,46.0,46.0,46.0,46.0,45.0,45.0,44.0,45.0,46.0,45.0,46.0,46.0,45.0,46.0,46.0,46.0,45.0,46.0,47.0,47.0,49.0,46.0,48.0,48.0,47.0,48.0,47.0,50.0,50.0,51.0,51.0,49.0,50.0,51.0,51.0,52.0,53.0,53.0,54.0,53.0,55.0,53.0,55.0,54.0,54.0,55.0,56.0,57.0,59.0,61.0,64.0,65.0,69.0,71.0,71.0,71.0,72.0,69.0,67.0,73.0,73.0,73.0,80.0,81.0,81.0,86.0,84.0,80.0,91.0,99.0,96.0,97.0,100.0,101.0,100.0,110.0,107.0,107.0,109.0,106.0,105.0,107.0,109.0,113.0,117.0,119.0,119.0,114.0,118.0,122.0,125.0,127.0,131.0,129.0,126.0,126.0,133.0,136.0,137.0,136.0,133.0,138.0,140.0,143.0,143.0,145.0,141.0,146.0,148.0,148.0,150.0,151.0,152.0,158.0,156.0,160.0,162.0,158.0,166.0,170.0,174.0,173.0,173.0,175.0,176.0,179.0,179.0,184.0,185.0,189.0,191.0,192.0,191.0,187.0,192.0,197.0,201.0,201.0,205.0,206.0,202.0,206.0,213.0,212.0,212.0,213.0,212.0,213.0,219.0,221.0,220.0,223.0,225.0,221.0,223.0,224.0,224.0,226.0,224.0,222.0,225.0,224.0,222.0,221.0,223.0,221.0,222.0,220.0,222.0,220.0,221.0,224.0,223.0,221.0,223.0,220.0,219.0,220.0,216.0,215.0,214.0,211.0,212.0,216.0,217.0,215.0,214.0,213.0,213.0,214.0,213.0,215.0,214.0,212.0,210.0,210.0,209.0,207.0,203.0,200.0,201.0,201.0,200.0,195.0,197.0,195.0,191.0,194.0,192.0,191.0,192.0,195.0,192.0,188.0,190.0,191.0,192.0,189.0,187.0,185.0,188.0,188.0,186.0,187.0,186.0,183.0,183.0,182.0,183.0,184.0,181.0,175.0,180.0,179.0,182.0,183.0,182.0,180.0,181.0,184.0,180.0,180.0,181.0,178.0,175.0,176.0,175.0,173.0,168.0,173.0,173.0,171.0,170.0,163.0,162.0,163.0,162.0,163.0,161.0,162.0,159.0,157.0,154.0,158.0,158.0,156.0,155.0,150.0,150.0,147.0,147.0,147.0,140.0,137.0,140.0,138.0,139.0,136.0,138.0,135.0,133.0,130.0,128.0,126.0,126.0,123.0,119.0,120.0,117.0,114.0,112.0,105.0,106.0,103.0,101.0,101.0,101.0,98.0,95.0,93.0,93.0,92.0,90.0,87.0,83.0,83.0,83.0,81.0,81.0,80.0,78.0,77.0,78.0,76.0,74.0,72.0,73.0,80.0,91.0,92.0,89.0,86.0,83.0,85.0,86.0,84.0,84.0,83.0,87.0,88.0,93.0,90.0,92.0,94.0,92.0,93.0,91.0,92.0,90.0,89.0,86.0,87.0,88.0,87.0,85.0,81.0,79.0,78.0,76.0,72.0,73.0,72.0,72.0,73.0,69.0,71.0,72.0,71.0,72.0,72.0,73.0,72.0,73.0,74.0,74.0,75.0,74.0,73.0,76.0,76.0,76.0,77.0,76.0,79.0,79.0,81.0,82.0,85.0,87.0,86.0,92.0,95.0,95.0,98.0,100.0,101.0,103.0,104.0,105.0,107.0,110.0,110.0,112.0,115.0,115.0,118.0,120.0,123.0,124.0,125.0,126.0,128.0,134.0,135.0,138.0,141.0,141.0,144.0,146.0,151.0,155.0,157.0,162.0,165.0,167.0,169.0,173.0,174.0,176.0,179.0,181.0,184.0,189.0,193.0,195.0,198.0,202.0,206.0,210.0,210.0,215.0,216.0,218.0,219.0,222.0,222.0,223.0,225.0,228.0,228.0,230.0,232.0,236.0,236.0,238.0,239.0,240.0,240.0,239.0,241.0,242.0,241.0,242.0,243.0,245.0,244.0,246.0,247.0,247.0,248.0,247.0,251.0,253.0,255.0,254.0,254.0,251.0,249.0,251.0,250.0,249.0,250.0,246.0,246.0,245.0,240.0,239.0,237.0,233.0,233.0,230.0,230.0,229.0,225.0,224.0,224.0,224.0,222.0,223.0,221.0,219.0,219.0,218.0,219.0,219.0,220.0,217.0,218.0,217.0,215.0,214.0,215.0,208.0,210.0,209.0,207.0,206.0,205.0,202.0,199.0,197.0,196.0,196.0,194.0,192.0,190.0,191.0,188.0,185.0,183.0,181.0,181.0,177.0,177.0,176.0,176.0,175.0,172.0,171.0,171.0,168.0,167.0,164.0,164.0,161.0,160.0,158.0,158.0,157.0,155.0,156.0,153.0,151.0,152.0,149.0,148.0,148.0,146.0,147.0,145.0,144.0,144.0,142.0,143.0,141.0,141.0,137.0,136.0,133.0,129.0,128.0,126.0,124.0,122.0,122.0,120.0,119.0,117.0,116.0,114.0,113.0,110.0,108.0,106.0,105.0,105.0,102.0,101.0,99.0,96.0,93.0,91.0,90.0,87.0,84.0,80.0,80.0,78.0,76.0,73.0,71.0,69.0,69.0,66.0,64.0,65.0,64.0,63.0,60.0,59.0,58.0,56.0,55.0,55.0,53.0,52.0,51.0,50.0,50.0,49.0,51.0,51.0,51.0,51.0,52.0,52.0,53.0,52.0,52.0,53.0,54.0,53.0,53.0,54.0,54.0,55.0,56.0,55.0,54.0,55.0,58.0,59.0,59.0,60.0,62.0,62.0,65.0,64.0,66.0,67.0,68.0,69.0,69.0,72.0,71.0,71.0,71.0,72.0,73.0,75.0,76.0,78.0,77.0,78.0,79.0,80.0,80.0,84.0,85.0,87.0,88.0,87.0,88.0,88.0,92.0,92.0,94.0,94.0,96.0,97.0,98.0,100.0,100.0,102.0,100.0,99.0,100.0,101.0,103.0,102.0,99.0,100.0,100.0,99.0,104.0,104.0,105.0,102.0,105.0,104.0,105.0,107.0,105.0,104.0,103.0,102.0,104.0,104.0,104.0,103.0,105.0,105.0,102.0,102.0,103.0,105.0,105.0,104.0,106.0,104.0,103.0,106.0,107.0,109.0,108.0,109.0,111.0,110.0,112.0,111.0,111.0,110.0,109.0,108.0,108.0,107.0,107.0,107.0,107.0,105.0,108.0,105.0,106.0,104.0,105.0,102.0,101.0,99.0,100.0,100.0,98.0,98.0,97.0,98.0,97.0,96.0,94.0,92.0,92.0,91.0,90.0,89.0,88.0,90.0,88.0,88.0,88.0,88.0,87.0,87.0,89.0,86.0,87.0,87.0,88.0,89.0,89.0,91.0,89.0,88.0,89.0,89.0,89.0,89.0,91.0,88.0,88.0,88.0,88.0,87.0,86.0,87.0,87.0,85.0,86.0,83.0,83.0,82.0,81.0,81.0,79.0,76.0,74.0,74.0,73.0,73.0,73.0,73.0,73.0,72.0,71.0,72.0,71.0,71.0,73.0,71.0,71.0,72.0,73.0,74.0,73.0,73.0,73.0,72.0,71.0,71.0,69.0,67.0,65.0,65.0,64.0,69.0,134.0,168.0,195.0,213.0,227.0,237.0,244.0,245.0,219.0,197.0,177.0,164.0,150.0,137.0,127.0,119.0,110.0,104.0,97.0,92.0,86.0,99.0,121.0,144.0,162.0,173.0,180.0,189.0,191.0,182.0,165.0,153.0,142.0,133.0,126.0,117.0,112.0,106.0,99.0,95.0,91.0,89.0,85.0,110.0,132.0,145.0,155.0,166.0,173.0,178.0,168.0,156.0,144.0,136.0,127.0,120.0,115.0,111.0,109.0,106.0,103.0,101.0,99.0,97.0,96.0,91.0,90.0,87.0,86.0,84.0,81.0,80.0,77.0,76.0,76.0,75.0,74.0,73.0,73.0,72.0,69.0,67.0,64.0,63.0,63.0,59.0,73.0,109.0,123.0,145.0,152.0,138.0,127.0,120.0,113.0,106.0,103.0,99.0,96.0,94.0,91.0,88.0,86.0,81.0,77.0,75.0,73.0,71.0,70.0,67.0
49.0,48.0,47.0,47.0,46.0,47.0,48.0,51.0,49.0,50.0,51.0,53.0,55.0,54.0,55.0,58.0,56.0,56.0,55.0,55.0,54.0,54.0,56.0,55.0,57.0,55.0,54.0,57.0,54.0,54.0,55.0,55.0,55.0,55.0,55.0,54.0,56.0,56.0,54.0,55.0,54.0,51.0,50.0,50.0,51.0,50.0,49.0,50.0,50.0,50.0,53.0,54.0,54.0,53.0,56.0,55.0,54.0,56.0,57.0,56.0,56.0,57.0,56.0,56.0,59.0,62.0,62.0,63.0,64.0,67.0,65.0,66.0,67.0,67.0,67.0,65.0,64.0,64.0,63.0,63.0,64.0,64.0,62.0,61.0,61.0,60.0,59.0,60.0,57.0,58.0,56.0,57.0,58.0,57.0,54.0,56.0,55.0,53.0,51.0,52.0,51.0,49.0,50.0,47.0,47.0,48.0,49.0,47.0,45.0,46.0,47.0,48.0,45.0,46.0,44.0,44.0,44.0,43.0,43.0,42.0,43.0,42.0,43.0,44.0,43.0,44.0,49.0,51.0,51.0,53.0,56.0,57.0,64.0,68.0,70.0,78.0,80.0,78.0,79.0,83.0,94.0,92.0,106.0,107.0,113.0,117.0,138.0,144.0,145.0,136.0,139.0,133.0,133.0,124.0,129.0,134.0,126.0,126.0,129.0,128.0,127.0,128.0,136.0,135.0,131.0,129.0,124.0,126.0,126.0,126.0,120.0,116.0,115.0,109.0,112.0,105.0,100.0,99.0,99.0,97.0,96.0,88.0,88.0,86.0,89.0,87.0,89.0,87.0,83.0,86.0,93.0,91.0,92.0,91.0,87.0,91.0,86.0,87.0,82.0,81.0,78.0,79.0,82.0,82.0,84.0,80.0,78.0,76.0,73.0,76.0,81.0,78.0,78.0,81.0,78.0,81.0,88.0,90.0,89.0,92.0,96.0,96.0,97.0,100.0,102.0,105.0,103.0,106.0,106.0,110.0,112.0,113.0,118.0,120.0,123.0,125.0,126.0,124.0,126.0,133.0,131.0,128.0,134.0,136.0,139.0,143.0,142.0,143.0,142.0,143.0,145.0,153.0,153.0,149.0,149.0,148.0,151.0,150.0,151.0,156.0,156.0,155.0,154.0,154.0,153.0,153.0,150.0,147.0,152.0,151.0,149.0,146.0,151.0,150.0,152.0,151.0,152.0,149.0,150.0,152.0,149.0,147.0,150.0,152.0,153.0,154.0,153.0,150.0,154.0,156.0,156.0,157.0,156.0,154.0,156.0,154.0,158.0,160.0,158.0,156.0,158.0,159.0,163.0,165.0,162.0,161.0,163.0,166.0,164.0,162.0,163.0,164.0,164.0,166.0,164.0,162.0,157.0,161.0,163.0,163.0,161.0,157.0,153.0,158.0,157.0,159.0,158.0,157.0,156.0,153.0,149.0,153.0,151.0,149.0,147.0,145.0,145.0,146.0,145.0,143.0,137.0,138.0,140.0,138.0,139.0,137.0,140.0,137.0,133.0,132.0,133.0,130.0,134.0,133.0,128.0,130.0,126.0,125.0,122.0,115.0,117.0,118.0,115.0,115.0,116.0,115.0,112.0,112.0,116.0,114.0,116.0,116.0,114.0,113.0,114.0,112.0,114.0,114.0,113.0,113.0,115.0,110.0,106.0,105.0,108.0,112.0,125.0,129.0,129.0,128.0,124.0,127.0,130.0,131.0,128.0,124.0,130.0,138.0,150.0,158.0,171.0,180.0,196.0,209.0,219.0,232.0,240.0,251.0,256.0,265.0,274.0,278.0,283.0,287.0,290.0,295.0,295.0,293.0,296.0,295.0,295.0,294.0,292.0,292.0,289.0,287.0,284.0,283.0,281.0,279.0,278.0,277.0,275.0,274.0,271.0,264.0,266.0,264.0,261.0,260.0,255.0,254.0,252.0,250.0,247.0,244.0,242.0,236.0,237.0,233.0,229.0,228.0,225.0,223.0,220.0,218.0,216.0,213.0,212.0,208.0,207.0,208.0,206.0,206.0,207.0,206.0,204.0,203.0,198.0,198.0,198.0,196.0,196.0,194.0,191.0,189.0,188.0,188.0,186.0,185.0,184.0,184.0,183.0,182.0,185.0,184.0,184.0,186.0,186.0,188.0,191.0,193.0,190.0,191.0,192.0,191.0,194.0,192.0,196.0,197.0,196.0,197.0,199.0,199.0,198.0,199.0,202.0,199.0,198.0,198.0,198.0,198.0,197.0,196.0,196.0,194.0,191.0,190.0,188.0,185.0,180.0,180.0,178.0,176.0,173.0,171.0,168.0,164.0,159.0,160.0,160.0,160.0,158.0,157.0,152.0,148.0,151.0,148.0,148.0,146.0,140.0,140.0,139.0,135.0,134.0,132.0,129.0,128.0,125.0,125.0,124.0,120.0,117.0,118.0,118.0,117.0,119.0,115.0,113.0,110.0,108.0,107.0,107.0,107.0,104.0,106.0,104.0,100.0,97.0,95.0,91.0,91.0,88.0,85.0,82.0,82.0,77.0,75.0,73.0,69.0,69.0,66.0,62.0,62.0,62.0,59.0,56.0,54.0,57.0,54.0,54.0,51.0,50.0,50.0,48.0,50.0,50.0,50.0,51.0,49.0,50.0,49.0,52.0,52.0,52.0,51.0,51.0,51.0,50.0,50.0,51.0,49.0,50.0,50.0,49.0,49.0,49.0,50.0,51.0,52.0,55.0,55.0,58.0,60.0,63.0,64.0,66.0,69.0,70.0,71.0,72.0,75.0,78.0,81.0,84.0,86.0,87.0,91.0,93.0,96.0,97.0,98.0,101.0,103.0,107.0,109.0,111.0,113.0,116.0,117.0,118.0,120.0,120.0,121.0,118.0,116.0,115.0,114.0,115.0,115.0,113.0,113.0,114.0,114.0,113.0,111.0,112.0,111.0,113.0,116.0,116.0,116.0,115.0,115.0,114.0,113.0,111.0,109.0,111.0,111.0,108.0,106.0,105.0,104.0,104.0,101.0,102.0,102.0,103.0,101.0,101.0,102.0,100.0,103.0,104.0,102.0,101.0,103.0,105.0,106.0,105.0,106.0,106.0,106.0,109.0,108.0,110.0,109.0,111.0,109.0,110.0,114.0,113.0,112.0,113.0,114.0,114.0,115.0,117.0,115.0,114.0,115.0,116.0,117.0,116.0,120.0,119.0,120.0,121.0,120.0,119.0,120.0,123.0,122.0,122.0,122.0,120.0,122.0,122.0,120.0,121.0,122.0,119.0,118.0,117.0,117.0,122.0,119.0,117.0,117.0,118.0,116.0,121.0,118.0,115.0,114.0,116.0,115.0,115.0,116.0,115.0,113.0,113.0,114.0,113.0,112.0,112.0,111.0,111.0,109.0,106.0,105.0,106.0,106.0,106.0,106.0,108.0,108.0,108.0,109.0,110.0,111.0,110.0,110.0,111.0,113.0,115.0,115.0,114.0,114.0,115.0,115.0,116.0,115.0,114.0,113.0,114.0,112.0,113.0,111.0,113.0,113.0,116.0,111.0,111.0,109.0,111.0,111.0,109.0,107.0,106.0,107.0,105.0,102.0,102.0,100.0,100.0,99.0,99.0,97.0,96.0,98.0,97.0,97.0,99.0,98.0,98.0,99.0,101.0,100.0,99.0,100.0,100.0,100.0,99.0,100.0,97.0,96.0,97.0,97.0,95.0,96.0,96.0,93.0,95.0,93.0,93.0,90.0,89.0,90.0,89.0,89.0,92.0,89.0,90.0,88.0,89.0,90.0,87.0,86.0,85.0,86.0,83.0,83.0,82.0,83.0,83.0,81.0,81.0,79.0,78.0,77.0,77.0,77.0,77.0,77.0,79.0,76.0,76.0,75.0,74.0,74.0,73.0,75.0,70.0,69.0,69.0,70.0,70.0,80.0,166.0,213.0,249.0,272.0,290.0,303.0,310.0,310.0,276.0,246.0,220.0,202.0,183.0,167.0,153.0,139.0,126.0,116.0,109.0,102.0,95.0,110.0,139.0,175.0,198.0,214.0,222.0,233.0,236.0,221.0,205.0,190.0,176.0,166.0,158.0,149.0,143.0,136.0,128.0,123.0,117.0,111.0,104.0,137.0,169.0,190.0,206.0,220.0,228.0,234.0,220.0,201.0,187.0,173.0,161.0,151.0,139.0,135.0,130.0,124.0,119.0,113.0,109.0,105.0,103.0,97.0,96.0,94.0,90.0,86.0,83.0,80.0,76.0,73.0,72.0,69.0,68.0,68.0,65.0,64.0,61.0,59.0,58.0,58.0,58.0,55.0,70.0,126.0,143.0,175.0,184.0,166.0,152.0,138.0,128.0,119.0,111.0,105.0,97.0,92.0,87.0,82.0,80.0,73.0,69.0,65.0,62.0,60.0,56.0,53.0
32.0,28.0,25.0,22.0,21.0,24.0,31.0,33.0,34.0,30.0,26.0,25.0,24.0,23.0,26.0,36.0,34.0,30.0,27.0,25.0,28.0,27.0,33.0,40.0,47.0,41.0,37.0,39.0,34.0,31.0,36.0,35.0,31.0,36.0,38.0,37.0,38.0,38.0,35.0,35.0,35.0,31.0,32.0,30.0,44.0,41.0,37.0,39.0,38.0,33.0,42.0,38.0,34.0,32.0,29.0,38.0,35.0,40.0,47.0,46.0,46.0,44.0,41.0,36.0,32.0,42.0,40.0,39.0,34.0,31.0,30.0,27.0,27.0,25.0,34.0,32.0,28.0,35.0,33.0,33.0,30.0,32.0,30.0,28.0,32.0,36.0,33.0,45.0,48.0,43.0,39.0,35.0,36.0,34.0,32.0,37.0,34.0,32.0,28.0,27.0,30.0,27.0,31.0,28.0,27.0,28.0,28.0,26.0,23.0,23.0,28.0,28.0,29.0,27.0,25.0,25.0,24.0,24.0,22.0,26.0,32.0,27.0,33.0,31.0,30.0,31.0,34.0,31.0,31.0,38.0,37.0,38.0,41.0,36.0,42.0,48.0,44.0,39.0,35.0,37.0,40.0,39.0,42.0,40.0,36.0,36.0,50.0,50.0,50.0,51.0,58.0,63.0,59.0,61.0,58.0,51.0,50.0,51.0,62.0,62.0,66.0,64.0,58.0,53.0,66.0,72.0,71.0,64.0,57.0,59.0,54.0,58.0,59.0,53.0,56.0,55.0,50.0,52.0,47.0,49.0,45.0,57.0,65.0,71.0,79.0,93.0,91.0,80.0,83.0,96.0,92.0,85.0,84.0,97.0,85.0,90.0,84.0,76.0,69.0,74.0,73.0,73.0,81.0,80.0,75.0,73.0,75.0,68.0,69.0,71.0,73.0,66.0,64.0,62.0,68.0,66.0,68.0,72.0,76.0,69.0,69.0,64.0,64.0,62.0,58.0,55.0,72.0,74.0,77.0,80.0,78.0,74.0,66.0,59.0,59.0,55.0,62.0,75.0,73.0,75.0,85.0,88.0,84.0,74.0,66.0,66.0,65.0,59.0,57.0,59.0,62.0,54.0,52.0,51.0,46.0,44.0,49.0,46.0,54.0,48.0,50.0,49.0,48.0,43.0,43.0,41.0,53.0,54.0,49.0,45.0,40.0,40.0,37.0,36.0,44.0,45.0,40.0,38.0,37.0,33.0,35.0,41.0,39.0,36.0,45.0,43.0,37.0,38.0,41.0,45.0,40.0,35.0,31.0,32.0,31.0,31.0,28.0,28.0,32.0,43.0,46.0,41.0,42.0,39.0,35.0,33.0,43.0,42.0,39.0,38.0,34.0,30.0,28.0,26.0,34.0,31.0,42.0,38.0,36.0,33.0,28.0,37.0,41.0,37.0,36.0,31.0,30.0,27.0,30.0,33.0,41.0,40.0,38.0,33.0,32.0,30.0,38.0,37.0,33.0,40.0,42.0,46.0,47.0,43.0,41.0,41.0,39.0,41.0,37.0,36.0,32.0,35.0,41.0,43.0,40.0,36.0,34.0,40.0,38.0,38.0,38.0,35.0,33.0,29.0,27.0,28.0,27.0,37.0,37.0,47.0,41.0,37.0,39.0,39.0,37.0,44.0,45.0,46.0,55.0,76.0,88.0,81.0,93.0,101.0,128.0,159.0,170.0,165.0,152.0,139.0,133.0,173.0,170.0,156.0,168.0,169.0,162.0,164.0,156.0,137.0,127.0,134.0,129.0,113.0,107.0,111.0,124.0,112.0,107.0,116.0,105.0,106.0,103.0,105.0,101.0,97.0,92.0,87.0,93.0,90.0,93.0,88.0,83.0,87.0,80.0,79.0,73.0,77.0,80.0,80.0,89.0,97.0,94.0,94.0,91.0,87.0,83.0,80.0,81.0,81.0,80.0,80.0,75.0,75.0,70.0,73.0,66.0,83.0,85.0,76.0,74.0,76.0,77.0,69.0,69.0,66.0,64.0,66.0,64.0,58.0,65.0,75.0,73.0,70.0,72.0,67.0,62.0,66.0,60.0,64.0,66.0,59.0,59.0,62.0,58.0,57.0,65.0,60.0,60.0,52.0,51.0,54.0,51.0,55.0,51.0,52.0,45.0,45.0,62.0,61.0,61.0,53.0,48.0,58.0,52.0,61.0,55.0,52.0,52.0,47.0,49.0,50.0,47.0,45.0,44.0,44.0,40.0,36.0,47.0,45.0,43.0,36.0,34.0,38.0,36.0,38.0,44.0,41.0,38.0,34.0,36.0,55.0,56.0,54.0,54.0,47.0,43.0,43.0,66.0,74.0,91.0,93.0,87.0,83.0,85.0,91.0,81.0,89.0,79.0,75.0,78.0,71.0,75.0,80.0,79.0,71.0,84.0,80.0,76.0,81.0,75.0,88.0,92.0,85.0,87.0,88.0,81.0,77.0,75.0,86.0,77.0,82.0,81.0,80.0,86.0,82.0,77.0,79.0,78.0,74.0,98.0,87.0,83.0,81.0,81.0,78.0,79.0,79.0,73.0,81.0,74.0,71.0,72.0,71.0,70.0,71.0,65.0,65.0,74.0,68.0,72.0,67.0,59.0,55.0,58.0,60.0,66.0,59.0,58.0,55.0,54.0,54.0,58.0,52.0,66.0,61.0,61.0,67.0,65.0,64.0,66.0,68.0,69.0,69.0,68.0,65.0,60.0,56.0,60.0,79.0,90.0,90.0,80.0,85.0,84.0,75.0,69.0,68.0,71.0,63.0,63.0,59.0,56.0,61.0,61.0,58.0,53.0,50.0,45.0,58.0,63.0,56.0,49.0,47.0,42.0,49.0,53.0,51.0,49.0,42.0,39.0,36.0,33.0,42.0,44.0,40.0,34.0,36.0,32.0,31.0,30.0,30.0,41.0,44.0,41.0,38.0,34.0,31.0,32.0,32.0,34.0,41.0,35.0,37.0,32.0,29.0,35.0,35.0,38.0,47.0,43.0,38.0,33.0,30.0,27.0,24.0,21.0,28.0,32.0,32.0,30.0,28.0,26.0,27.0,27.0,34.0,28.0,30.0,27.0,28.0,28.0,24.0,24.0,28.0,32.0,30.0,28.0,26.0,24.0,31.0,28.0,25.0,24.0,23.0,21.0,20.0,17.0,19.0,28.0,35.0,31.0,31.0,32.0,32.0,28.0,31.0,35.0,44.0,40.0,38.0,38.0,34.0,34.0,36.0,32.0,31.0,28.0,26.0,37.0,37.0,37.0,36.0,36.0,34.0,32.0,31.0,41.0,35.0,32.0,34.0,32.0,30.0,34.0,37.0,37.0,32.0,33.0,32.0,29.0,38.0,47.0,45.0,38.0,36.0,33.0,30.0,28.0,43.0,44.0,42.0,40.0,38.0,38.0,43.0,38.0,33.0,39.0,52.0,48.0,48.0,42.0,43.0,41.0,36.0,42.0,46.0,44.0,47.0,48.0,45.0,41.0,47.0,42.0,55.0,51.0,48.0,57.0,53.0,62.0,62.0,57.0,52.0,59.0,53.0,48.0,46.0,44.0,48.0,46.0,42.0,40.0,44.0,49.0,43.0,38.0,35.0,35.0,35.0,39.0,40.0,39.0,38.0,36.0,36.0,34.0,39.0,35.0,36.0,51.0,48.0,42.0,38.0,35.0,35.0,35.0,49.0,46.0,41.0,38.0,33.0,30.0,36.0,34.0,33.0,33.0,37.0,47.0,47.0,42.0,45.0,42.0,37.0,34.0,34.0,31.0,31.0,29.0,31.0,30.0,33.0,29.0,34.0,30.0,27.0,24.0,29.0,34.0,37.0,41.0,40.0,37.0,37.0,35.0,31.0,30.0,30.0,35.0,36.0,33.0,32.0,29.0,26.0,24.0,27.0,29.0,27.0,25.0,25.0,23.0,37.0,96.0,132.0,148.0,165.0,176.0,177.0,165.0,162.0,147.0,133.0,121.0,114.0,101.0,88.0,77.0,70.0,67.0,67.0,64.0,59.0,52.0,60.0,88.0,112.0,128.0,143.0,138.0,141.0,140.0,139.0,123.0,107.0,102.0,102.0,93.0,90.0,82.0,71.0,66.0,59.0,52.0,51.0,53.0,91.0,116.0,127.0,119.0,121.0,120.0,120.0,113.0,104.0,97.0,91.0,87.0,77.0,75.0,70.0,62.0,56.0,51.0,48.0,49.0,50.0,46.0,52.0,51.0,51.0,46.0,42.0,40.0,42.0,38.0,36.0,33.0,37.0,40.0,38.0,36.0,34.0,31.0,30.0,27.0,37.0,37.0,33.0,51.0,88.0,97.0,111.0,111.0,100.0,97.0,88.0,78.0,76.0,69.0,62.0,57.0,53.0,54.0,53.0,46.0,41.0,45.0,40.0,39.0,37.0,35.0,32.0
87.0,84.0,86.0,86.0,82.0,80.0,80.0,82.0,82.0,79.0,73.0,71.0,76.0,75.0,81.0,86.0,84.0,83.0,86.0,87.0,91.0,96.0,92.0,92.0,91.0,83.0,80.0,90.0,86.0,94.0,90.0,85.0,83.0,80.0,87.0,89.0,86.0,79.0,77.0,79.0,85.0,91.0,87.0,81.0,82.0,79.0,74.0,74.0,74.0,80.0,84.0,82.0,88.0,81.0,89.0,93.0,93.0,86.0,85.0,89.0,89.0,86.0,80.0,81.0,84.0,86.0,85.0,82.0,85.0,84.0,83.0,84.0,85.0,83.0,84.0,79.0,80.0,77.0,84.0,81.0,94.0,91.0,88.0,83.0,84.0,85.0,84.0,84.0,81.0,80.0,79.0,81.0,78.0,75.0,72.0,82.0,82.0,85.0,80.0,82.0,91.0,88.0,88.0,89.0,91.0,98.0,99.0,93.0,85.0,84.0,81.0,82.0,88.0,93.0,84.0,85.0,87.0,90.0,90.0,88.0,90.0,87.0,89.0,85.0,78.0,80.0,80.0,77.0,89.0,86.0,91.0,100.0,97.0,99.0,118.0,108.0,112.0,131.0,132.0,123.0,114.0,107.0,111.0,116.0,112.0,105.0,102.0,103.0,102.0,99.0,101.0,114.0,110.0,108.0,107.0,108.0,111.0,107.0,107.0,108.0,106.0,107.0,103.0,103.0,100.0,98.0,104.0,106.0,101.0,97.0,103.0,100.0,102.0,100.0,95.0,95.0,93.0,91.0,89.0,89.0,87.0,87.0,88.0,94.0,103.0,95.0,101.0,101.0,100.0,99.0,99.0,103.0,97.0,89.0,93.0,91.0,94.0,92.0,93.0,89.0,86.0,82.0,84.0,84.0,83.0,83.0,82.0,86.0,84.0,86.0,84.0,88.0,85.0,88.0,86.0,87.0,91.0,90.0,86.0,97.0,94.0,99.0,94.0,98.0,102.0,102.0,98.0,98.0,100.0,104.0,106.0,107.0,111.0,110.0,111.0,107.0,106.0,114.0,113.0,114.0,114.0,117.0,124.0,125.0,126.0,123.0,120.0,120.0,119.0,118.0,123.0,127.0,127.0,125.0,125.0,124.0,120.0,122.0,125.0,126.0,120.0,118.0,121.0,125.0,124.0,122.0,120.0,123.0,124.0,121.0,120.0,120.0,123.0,116.0,117.0,119.0,124.0,122.0,117.0,120.0,119.0,117.0,118.0,122.0,116.0,118.0,115.0,115.0,114.0,113.0,115.0,117.0,114.0,110.0,113.0,112.0,112.0,111.0,109.0,114.0,114.0,117.0,115.0,116.0,121.0,115.0,115.0,112.0,109.0,112.0,107.0,106.0,106.0,111.0,106.0,103.0,104.0,105.0,99.0,97.0,95.0,91.0,90.0,93.0,91.0,87.0,88.0,86.0,80.0,79.0,84.0,80.0,82.0,81.0,76.0,78.0,73.0,72.0,77.0,77.0,73.0,71.0,75.0,77.0,77.0,76.0,74.0,71.0,71.0,67.0,72.0,67.0,68.0,67.0,63.0,66.0,64.0,65.0,65.0,66.0,66.0,66.0,67.0,65.0,63.0,63.0,62.0,62.0,67.0,67.0,66.0,67.0,65.0,62.0,59.0,58.0,63.0,62.0,62.0,69.0,75.0,80.0,108.0,120.0,163.0,189.0,218.0,227.0,222.0,220.0,234.0,274.0,281.0,297.0,308.0,317.0,306.0,296.0,285.0,269.0,267.0,298.0,304.0,329.0,324.0,318.0,315.0,316.0,351.0,343.0,314.0,303.0,301.0,294.0,378.0,339.0,309.0,299.0,328.0,333.0,310.0,283.0,267.0,254.0,258.0,257.0,243.0,242.0,232.0,236.0,250.0,274.0,289.0,279.0,274.0,258.0,253.0,245.0,232.0,235.0,236.0,231.0,229.0,221.0,218.0,235.0,223.0,223.0,208.0,201.0,190.0,182.0,179.0,173.0,175.0,162.0,164.0,159.0,164.0,173.0,165.0,170.0,157.0,146.0,141.0,149.0,150.0,142.0,161.0,154.0,160.0,150.0,150.0,154.0,143.0,136.0,139.0,142.0,141.0,138.0,134.0,141.0,143.0,141.0,138.0,140.0,146.0,142.0,141.0,142.0,139.0,131.0,152.0,157.0,152.0,150.0,145.0,144.0,142.0,140.0,144.0,172.0,167.0,166.0,149.0,143.0,147.0,138.0,140.0,135.0,131.0,126.0,131.0,129.0,130.0,126.0,118.0,128.0,137.0,133.0,135.0,150.0,144.0,145.0,158.0,162.0,162.0,204.0,217.0,242.0,275.0,295.0,293.0,274.0,244.0,233.0,213.0,206.0,201.0,197.0,193.0,190.0,197.0,188.0,174.0,193.0,184.0,194.0,179.0,172.0,177.0,178.0,179.0,182.0,207.0,200.0,189.0,184.0,182.0,192.0,199.0,213.0,215.0,205.0,193.0,211.0,197.0,198.0,187.0,196.0,184.0,188.0,187.0,178.0,180.0,174.0,178.0,170.0,178.0,193.0,189.0,185.0,174.0,171.0,175.0,186.0,172.0,173.0,179.0,205.0,199.0,195.0,181.0,194.0,183.0,183.0,171.0,169.0,170.0,168.0,164.0,165.0,159.0,177.0,176.0,169.0,155.0,162.0,158.0,154.0,157.0,148.0,145.0,145.0,151.0,151.0,147.0,154.0,147.0,139.0,136.0,135.0,143.0,180.0,183.0,169.0,160.0,150.0,146.0,149.0,135.0,131.0,130.0,144.0,157.0,149.0,150.0,137.0,140.0,147.0,144.0,146.0,149.0,150.0,150.0,155.0,144.0,137.0,135.0,130.0,124.0,113.0,119.0,127.0,132.0,138.0,140.0,137.0,132.0,127.0,122.0,115.0,121.0,134.0,129.0,126.0,121.0,115.0,121.0,123.0,124.0,124.0,117.0,122.0,124.0,120.0,111.0,107.0,113.0,111.0,112.0,115.0,112.0,107.0,111.0,109.0,110.0,102.0,115.0,123.0,119.0,115.0,116.0,115.0,108.0,99.0,95.0,98.0,105.0,103.0,100.0,97.0,98.0,107.0,111.0,108.0,118.0,108.0,106.0,106.0,108.0,112.0,111.0,110.0,103.0,103.0,108.0,111.0,113.0,106.0,104.0,110.0,108.0,120.0,112.0,109.0,108.0,113.0,112.0,107.0,98.0,97.0,107.0,104.0,105.0,105.0,110.0,107.0,108.0,111.0,112.0,121.0,122.0,135.0,138.0,136.0,130.0,132.0,141.0,137.0,134.0,135.0,127.0,127.0,134.0,130.0,123.0,124.0,120.0,121.0,113.0,108.0,113.0,117.0,114.0,112.0,110.0,135.0,136.0,143.0,138.0,130.0,131.0,142.0,133.0,127.0,131.0,117.0,128.0,136.0,128.0,128.0,127.0,120.0,117.0,121.0,119.0,126.0,119.0,128.0,119.0,115.0,112.0,107.0,108.0,115.0,123.0,120.0,118.0,130.0,124.0,114.0,122.0,112.0,115.0,115.0,108.0,102.0,109.0,117.0,119.0,121.0,112.0,115.0,116.0,119.0,116.0,111.0,120.0,139.0,136.0,130.0,121.0,113.0,110.0,130.0,121.0,111.0,118.0,126.0,117.0,114.0,106.0,103.0,117.0,115.0,123.0,121.0,116.0,115.0,108.0,119.0,116.0,120.0,117.0,113.0,122.0,122.0,122.0,127.0,121.0,116.0,121.0,123.0,123.0,128.0,122.0,126.0,120.0,117.0,120.0,125.0,118.0,111.0,103.0,118.0,124.0,127.0,130.0,116.0,110.0,106.0,114.0,111.0,117.0,113.0,119.0,123.0,122.0,110.0,103.0,100.0,108.0,113.0,111.0,119.0,110.0,113.0,126.0,143.0,192.0,201.0,223.0,221.0,235.0,235.0,228.0,221.0,200.0,181.0,181.0,174.0,167.0,160.0,153.0,141.0,135.0,141.0,133.0,126.0,117.0,124.0,143.0,160.0,168.0,194.0,192.0,190.0,191.0,179.0,171.0,158.0,146.0,138.0,134.0,133.0,132.0,130.0,122.0,112.0,108.0,125.0,119.0,143.0,157.0,162.0,159.0,159.0,150.0,157.0,157.0,152.0,150.0,137.0,129.0,126.0,122.0,119.0,117.0,110.0,108.0,102.0,108.0,104.0,104.0,101.0,101.0,100.0,108.0,112.0,108.0,101.0,103.0,116.0,110.0,103.0,96.0,89.0,86.0,88.0,92.0,93.0,89.0,92.0,96.0,93.0,111.0,140.0,144.0,160.0,179.0,177.0,167.0,161.0,151.0,137.0,129.0,118.0,116.0,114.0,115.0,114.0,116.0,105.0,101.0,100.0,98.0,111.0,102.0,104.0
