667.0,668.0,666.0,666.0,667.0,666.0,666.0,666.0,666.0,666.0,667.0,666.0,666.0,666.0,666.0,666.0,665.0,665.0,666.0,666.0,667.0,667.0,667.0,668.0,667.0,667.0,667.0,668.0,667.0,667.0,668.0,667.0,667.0,668.0,667.0,668.0,667.0,668.0,668.0,667.0,668.0,668.0,667.0,667.0,667.0,667.0,667.0,667.0,667.0,667.0,668.0,667.0,668.0,668.0,668.0,668.0,667.0,667.0,666.0,668.0,668.0,667.0,667.0,667.0,667.0,667.0,667.0,667.0,667.0,668.0,668.0,667.0,667.0,658.0,651.0,641.0,633.0,625.0,614.0,605.0,596.0,587.0,581.0,572.0,566.0,559.0,553.0,545.0,538.0,531.0,526.0,519.0,512.0,503.0,496.0,490.0,484.0,479.0,473.0,468.0,461.0,455.0,451.0,445.0,441.0,436.0,430.0,426.0,421.0,417.0,412.0,408.0,406.0,400.0,398.0,393.0,389.0,384.0,380.0,376.0,372.0,367.0,364.0,359.0,356.0,352.0,350.0,347.0,341.0,340.0,336.0,334.0,332.0,329.0,325.0,318.0,314.0,305.0,295.0,290.0,293.0,296.0,295.0,294.0,308.0,300.0,300.0,300.0,299.0,296.0,300.0,302.0,296.0,300.0,244.0,263.0,666.0,668.0,668.0,667.0,667.0,667.0,666.0,665.0,667.0,665.0,664.0,666.0,667.0,666.0,663.0,662.0,660.0,656.0,652.0,661.0,662.0,663.0,663.0,664.0,663.0,663.0,663.0,663.0,663.0,665.0,665.0,664.0,666.0,666.0,645.0,629.0,618.0,602.0,587.0,577.0,564.0,554.0,541.0,526.0,517.0,506.0,498.0,487.0,474.0,466.0,454.0,448.0,441.0,429.0,420.0,409.0,403.0,394.0,385.0,379.0,366.0,358.0,353.0,345.0,338.0,330.0,327.0,316.0,310.0,304.0,298.0,291.0,283.0,281.0,273.0,270.0,264.0,258.0,253.0,250.0,247.0,242.0,240.0,233.0,228.0,224.0,223.0,218.0,214.0,211.0,205.0,202.0,199.0,195.0,193.0,189.0,185.0,184.0,182.0,179.0,180.0,176.0,173.0,171.0,172.0,171.0,168.0,166.0,163.0,161.0,157.0,157.0,160.0,157.0,156.0,155.0,154.0,153.0,151.0,150.0,150.0,144.0,146.0,144.0,141.0,138.0,139.0,132.0,136.0,138.0,138.0,133.0,130.0,132.0,131.0,128.0,128.0,125.0,123.0,122.0,122.0,122.0,122.0,120.0,119.0,120.0,118.0,115.0,119.0,115.0,116.0,114.0,113.0,112.0,109.0,108.0,107.0,104.0,103.0,102.0,102.0,102.0,99.0,100.0,98.0,98.0,96.0,95.0,95.0,96.0,96.0,95.0,93.0,93.0,96.0,94.0,94.0,95.0,96.0,96.0,96.0,94.0,95.0,94.0,92.0,93.0,92.0,93.0,94.0,93.0,93.0,92.0,92.0,93.0,92.0,91.0,94.0,93.0,95.0,93.0,93.0,90.0,94.0,94.0,92.0,107.0,109.0,113.0,119.0,115.0,128.0,131.0,142.0,151.0,157.0,161.0,160.0,168.0,175.0,172.0,177.0,176.0,178.0,174.0,170.0,171.0,170.0,165.0,164.0,163.0,162.0,162.0,161.0,159.0,157.0,156.0,155.0,157.0,156.0,155.0,154.0,155.0,155.0,154.0,155.0,156.0,154.0,154.0,151.0,150.0,151.0,151.0,149.0,144.0,144.0,142.0,142.0,142.0,140.0,139.0,136.0,132.0,132.0,131.0,131.0,131.0,129.0,128.0,127.0,127.0,127.0,126.0,126.0,125.0,125.0,127.0,126.0,127.0,125.0,123.0,123.0,125.0,123.0,123.0,122.0,120.0,121.0,120.0,119.0,119.0,120.0,120.0,119.0,119.0,120.0,118.0,116.0,115.0,116.0,116.0,117.0,115.0,114.0,114.0,114.0,114.0,115.0,114.0,113.0,113.0,113.0,112.0,112.0,112.0,111.0,109.0,109.0,106.0,104.0,104.0,103.0,102.0,100.0,100.0,97.0,97.0,99.0,99.0,98.0,98.0,98.0,97.0,96.0,95.0,97.0,95.0,97.0,95.0,95.0,95.0,94.0,96.0,94.0,93.0,93.0,92.0,92.0,91.0,92.0,91.0,90.0,90.0,90.0,90.0,91.0,91.0,91.0,90.0,91.0,90.0,88.0,87.0,87.0,88.0,90.0,90.0,89.0,89.0,89.0,88.0,89.0,92.0,90.0,89.0,90.0,90.0,91.0,90.0,93.0,91.0,89.0,89.0,90.0,90.0,91.0,92.0,93.0,94.0,93.0,95.0,95.0,96.0,95.0,96.0,98.0,96.0,96.0,94.0,96.0,96.0,96.0,94.0,94.0,94.0,93.0,92.0,92.0,92.0,91.0,88.0,87.0,88.0,88.0,86.0,85.0,83.0,82.0,83.0,84.0,83.0,84.0,84.0,84.0,85.0,83.0,83.0,83.0,82.0,83.0,83.0,85.0,85.0,85.0,86.0,88.0,88.0,88.0,89.0,88.0,90.0,90.0,91.0,91.0,92.0,93.0,94.0,94.0,95.0,96.0,94.0,94.0,94.0,95.0,94.0,94.0,94.0,92.0,94.0,92.0,95.0,94.0,94.0,95.0,95.0,97.0,98.0,98.0,101.0,102.0,104.0,107.0,107.0,107.0,106.0,105.0,105.0,104.0,102.0,104.0,105.0,104.0,105.0,104.0,102.0,102.0,101.0,99.0,100.0,97.0,99.0,100.0,100.0,101.0,101.0,101.0,102.0,102.0,102.0,100.0,101.0,101.0,101.0,99.0,99.0,100.0,98.0,94.0,96.0,95.0,95.0,96.0,94.0,96.0,96.0,98.0,97.0,97.0,97.0,97.0,96.0,96.0,95.0,94.0,94.0,95.0,95.0,95.0,95.0,94.0,93.0,93.0,93.0,92.0,93.0,92.0,92.0,92.0,92.0,92.0,92.0,92.0,93.0,93.0,93.0,94.0,95.0,95.0,97.0,97.0,99.0,98.0,99.0,97.0,98.0,98.0,97.0,98.0,98.0,97.0,98.0,98.0,97.0,98.0,100.0,100.0,100.0,99.0,99.0,100.0,100.0,101.0,99.0,96.0,98.0,100.0,99.0,101.0,101.0,104.0,104.0,104.0,106.0,107.0,107.0,107.0,109.0,109.0,106.0,106.0,105.0,105.0,104.0,105.0,105.0,106.0,106.0,106.0,105.0,105.0,105.0,107.0,109.0,110.0,112.0,112.0,111.0,112.0,115.0,119.0,118.0,120.0,120.0,120.0,121.0,121.0,122.0,123.0,125.0,124.0,126.0,128.0,130.0,132.0,135.0,138.0,139.0,140.0,142.0,145.0,148.0,152.0,154.0,156.0,157.0,159.0,163.0,165.0,169.0,172.0,174.0,175.0,174.0,147.0,114.0,52.0,1.0,0.0,0.0,0.0,0.0,0.0,0.0,0.0,0.0,0.0,0.0,0.0,0.0,0.0,0.0,0.0,0.0,0.0,0.0,0.0,0.0,0.0,668.0,668.0,668.0,668.0,668.0,668.0,668.0,668.0,665.0,616.0,616.0,615.0,615.0,614.0,615.0,614.0,615.0,615.0,615.0,614.0,614.0,614.0,615.0,614.0,614.0,614.0,615.0,615.0,615.0,616.0,617.0,615.0,612.0,610.0,611.0,610.0,610.0,610.0,609.0,608.0,609.0,608.0,608.0,608.0,609.0,609.0,609.0,616.0,645.0,647.0,646.0,659.0,663.0,663.0,663.0,663.0,663.0,663.0,663.0,664.0,663.0,664.0,665.0,662.0,661.0,654.0,653.0,636.0,624.0,605.0,606.0,605.0,606.0,605.0,605.0,604.0,604.0,604.0,604.0,605.0,604.0,605.0,604.0,604.0,604.0,604.0,604.0,605.0,604.0,605.0,604.0,604.0,605.0,604.0,604.0,605.0,605.0,604.0,603.0,604.0,604.0,604.0,604.0,608.0,605.0,604.0,604.0,605.0,605.0,606.0,605.0,606.0,605.0,605.0,605.0,605.0,605.0,605.0,606.0,605.0,606.0,606.0,605.0,606.0,606.0,606.0,607.0,605.0,605.0,605.0,605.0,604.0,604.0,606.0,605.0,605.0,604.0,605.0,604.0,605.0,598.0,593.0,585.0,579.0,571.0,563.0,553.0,547.0,541.0,532.0,526.0,519.0,512.0,506.0,500.0,495.0,488.0,482.0,474.0,467.0,461.0,453.0,448.0,443.0,438.0,433.0,426.0,422.0,417.0,411.0,405.0,399.0,393.0,388.0,382.0,378.0,374.0
74.0,73.0,71.0,69.0,69.0,68.0,66.0,65.0,65.0,64.0,63.0,62.0,60.0,58.0,57.0,56.0,55.0,52.0,52.0,52.0,50.0,50.0,51.0,51.0,52.0,52.0,53.0,52.0,52.0,52.0,52.0,54.0,53.0,51.0,52.0,52.0,52.0,50.0,50.0,49.0,49.0,48.0,47.0,46.0,47.0,45.0,45.0,45.0,44.0,44.0,42.0,42.0,42.0,42.0,42.0,41.0,40.0,38.0,38.0,39.0,40.0,39.0,38.0,38.0,38.0,37.0,38.0,38.0,40.0,40.0,39.0,41.0,40.0,41.0,41.0,41.0,41.0,40.0,41.0,44.0,41.0,42.0,42.0,43.0,42.0,44.0,43.0,43.0,43.0,44.0,43.0,44.0,45.0,47.0,46.0,46.0,46.0,46.0,46.0,47.0,47.0,49.0,47.0,49.0,48.0,48.0,49.0,48.0,49.0,48.0,48.0,49.0,49.0,50.0,49.0,50.0,50.0,50.0,49.0,50.0,49.0,50.0,51.0,53.0,52.0,54.0,54.0,54.0,56.0,57.0,58.0,57.0,59.0,61.0,59.0,61.0,68.0,69.0,71.0,79.0,87.0,92.0,95.0,92.0,92.0,91.0,96.0,90.0,89.0,91.0,87.0,88.0,94.0,88.0,89.0,103.0,104.0,117.0,124.0,128.0,130.0,138.0,126.0,116.0,110.0,105.0,109.0,109.0,124.0,132.0,137.0,183.0,179.0,171.0,187.0,200.0,188.0,179.0,188.0,200.0,199.0,190.0,189.0,182.0,176.0,188.0,183.0,184.0,187.0,180.0,178.0,178.0,171.0,186.0,176.0,172.0,169.0,177.0,168.0,166.0,162.0,166.0,164.0,161.0,159.0,155.0,155.0,158.0,154.0,156.0,151.0,152.0,145.0,143.0,140.0,138.0,134.0,131.0,132.0,131.0,127.0,123.0,131.0,123.0,122.0,119.0,118.0,118.0,116.0,121.0,118.0,118.0,116.0,122.0,120.0,117.0,114.0,112.0,110.0,111.0,112.0,111.0,110.0,108.0,111.0,111.0,106.0,103.0,101.0,101.0,97.0,98.0,96.0,96.0,93.0,91.0,93.0,103.0,95.0,92.0,94.0,90.0,86.0,83.0,80.0,77.0,76.0,80.0,77.0,79.0,84.0,79.0,78.0,78.0,74.0,71.0,68.0,68.0,67.0,68.0,79.0,77.0,77.0,77.0,79.0,88.0,85.0,76.0,75.0,78.0,79.0,75.0,72.0,70.0,68.0,66.0,69.0,68.0,66.0,68.0,65.0,70.0,66.0,65.0,67.0,65.0,63.0,68.0,66.0,65.0,63.0,64.0,63.0,67.0,65.0,64.0,64.0,62.0,61.0,61.0,64.0,63.0,63.0,64.0,70.0,69.0,66.0,67.0,75.0,81.0,80.0,78.0,80.0,75.0,74.0,74.0,76.0,79.0,81.0,94.0,95.0,98.0,99.0,99.0,101.0,103.0,101.0,102.0,102.0,102.0,102.0,104.0,101.0,102.0,100.0,101.0,103.0,101.0,106.0,113.0,126.0,118.0,117.0,117.0,119.0,138.0,134.0,137.0,136.0,130.0,125.0,123.0,122.0,113.0,107.0,103.0,105.0,103.0,105.0,101.0,99.0,105.0,108.0,108.0,113.0,116.0,120.0,127.0,130.0,135.0,136.0,139.0,142.0,144.0,145.0,147.0,147.0,151.0,150.0,150.0,150.0,151.0,146.0,143.0,142.0,138.0,137.0,138.0,133.0,132.0,131.0,129.0,129.0,126.0,124.0,122.0,119.0,114.0,115.0,115.0,114.0,112.0,111.0,109.0,109.0,108.0,107.0,105.0,102.0,100.0,98.0,97.0,95.0,91.0,90.0,86.0,85.0,84.0,84.0,83.0,81.0,79.0,78.0,76.0,74.0,70.0,71.0,72.0,69.0,69.0,67.0,66.0,62.0,59.0,60.0,60.0,61.0,58.0,58.0,58.0,57.0,57.0,55.0,53.0,52.0,52.0,52.0,52.0,51.0,50.0,49.0,49.0,48.0,46.0,50.0,50.0,50.0,49.0,48.0,49.0,49.0,49.0,51.0,49.0,48.0,45.0,46.0,44.0,44.0,46.0,44.0,44.0,45.0,44.0,43.0,43.0,43.0,43.0,43.0,44.0,43.0,42.0,42.0,42.0,42.0,43.0,43.0,42.0,43.0,41.0,42.0,43.0,42.0,42.0,41.0,41.0,42.0,42.0,44.0,42.0,41.0,40.0,41.0,43.0,40.0,43.0,42.0,41.0,41.0,41.0,42.0,43.0,42.0,45.0,44.0,43.0,41.0,44.0,45.0,43.0,46.0,46.0,43.0,44.0,41.0,45.0,44.0,44.0,49.0,49.0,49.0,47.0,47.0,48.0,46.0,46.0,43.0,43.0,41.0,40.0,43.0,44.0,46.0,47.0,46.0,48.0,47.0,48.0,46.0,44.0,44.0,45.0,46.0,47.0,47.0,47.0,46.0,47.0,47.0,49.0,49.0,48.0,49.0,50.0,50.0,51.0,53.0,56.0,56.0,57.0,60.0,60.0,61.0,59.0,58.0,61.0,61.0,63.0,62.0,63.0,63.0,66.0,68.0,69.0,71.0,71.0,71.0,73.0,75.0,75.0,78.0,80.0,80.0,81.0,81.0,85.0,83.0,84.0,84.0,84.0,84.0,85.0,84.0,84.0,84.0,84.0,85.0,85.0,83.0,83.0,83.0,83.0,84.0,83.0,84.0,82.0,80.0,81.0,81.0,81.0,80.0,79.0,77.0,76.0,73.0,74.0,75.0,75.0,77.0,77.0,75.0,76.0,77.0,78.0,78.0,78.0,79.0,76.0,75.0,77.0,77.0,76.0,73.0,77.0,77.0,78.0,77.0,74.0,73.0,72.0,71.0,70.0,68.0,67.0,65.0,64.0,64.0,63.0,63.0,63.0,64.0,62.0,61.0,60.0,60.0,57.0,60.0,58.0,57.0,56.0,55.0,52.0,52.0,52.0,52.0,50.0,49.0,50.0,50.0,51.0,52.0,53.0,50.0,51.0,51.0,52.0,52.0,50.0,52.0,53.0,54.0,54.0,55.0,55.0,54.0,57.0,56.0,54.0,53.0,54.0,54.0,54.0,52.0,53.0,52.0,52.0,52.0,51.0,50.0,51.0,52.0,51.0,50.0,51.0,52.0,51.0,51.0,49.0,49.0,46.0,47.0,50.0,48.0,49.0,48.0,50.0,50.0,50.0,50.0,49.0,50.0,51.0,52.0,53.0,52.0,52.0,54.0,55.0,55.0,56.0,58.0,56.0,57.0,63.0,66.0,67.0,69.0,72.0,75.0,75.0,78.0,81.0,82.0,86.0,85.0,90.0,89.0,92.0,94.0,95.0,97.0,99.0,100.0,102.0,103.0,103.0,104.0,106.0,106.0,106.0,109.0,110.0,111.0,114.0,115.0,117.0,117.0,116.0,114.0,108.0,100.0,99.0,101.0,107.0,113.0,119.0,125.0,133.0,141.0,148.0,156.0,161.0,167.0,169.0,175.0,174.0,171.0,168.0,167.0,162.0,154.0,149.0,143.0,153.0,163.0,174.0,186.0,196.0,205.0,213.0,219.0,221.0,227.0,230.0,233.0,233.0,235.0,236.0,233.0,236.0,236.0,234.0,234.0,231.0,230.0,227.0,223.0,221.0,219.0,215.0,212.0,207.0,204.0,200.0,194.0,192.0,189.0,184.0,180.0,178.0,173.0,172.0,170.0,169.0,165.0,161.0,157.0,153.0,150.0,145.0,143.0,142.0,138.0,135.0,132.0,128.0,127.0,125.0,123.0,120.0,120.0,118.0,114.0,111.0,110.0,109.0,108.0,104.0,102.0,100.0,98.0,94.0,94.0,95.0,92.0,93.0,92.0,90.0,89.0,88.0,86.0,85.0,84.0,83.0,81.0,80.0,80.0,79.0,80.0,80.0,79.0,78.0,78.0,77.0,79.0,81.0,80.0,80.0,79.0,79.0,79.0,76.0,78.0,79.0,76.0,78.0,76.0,80.0,78.0,77.0,77.0,78.0,78.0,76.0,76.0,75.0,74.0,73.0,73.0,72.0,71.0,67.0,66.0,65.0,63.0,64.0,61.0,60.0,61.0,59.0,59.0,58.0,57.0,57.0,55.0,56.0,55.0,54.0,56.0,55.0,53.0,51.0,52.0,52.0,53.0,53.0,52.0,52.0,51.0,50.0,51.0,50.0,50.0,51.0,52.0,53.0,52.0,52.0,53.0,54.0,55.0,53.0,55.0,54.0,52.0,53.0,53.0,55.0,55.0,54.0,56.0,55.0,56.0,58.0,59.0,61.0,63.0,66.0,67.0,68.0
11.0,11.0,15.0,13.0,23.0,21.0,19.0,18.0,16.0,14.0,15.0,13.0,13.0,12.0,12.0,14.0,12.0,13.0,12.0,11.0,10.0,12.0,15.0,18.0,15.0,14.0,14.0,13.0,12.0,15.0,14.0,12.0,11.0,12.0,14.0,12.0,11.0,11.0,10.0,8.0,8.0,6.0,12.0,11.0,9.0,10.0,8.0,13.0,15.0,14.0,13.0,11.0,11.0,11.0,12.0,12.0,11.0,10.0,9.0,21.0,20.0,17.0,15.0,14.0,13.0,13.0,14.0,15.0,16.0,23.0,22.0,19.0,17.0,18.0,23.0,19.0,18.0,17.0,15.0,19.0,17.0,15.0,13.0,12.0,12.0,13.0,11.0,11.0,11.0,9.0,10.0,9.0,10.0,11.0,10.0,10.0,9.0,13.0,14.0,12.0,11.0,15.0,14.0,13.0,12.0,11.0,12.0,12.0,12.0,12.0,13.0,17.0,17.0,14.0,14.0,13.0,14.0,13.0,15.0,15.0,13.0,12.0,11.0,10.0,9.0,9.0,8.0,8.0,7.0,7.0,6.0,6.0,6.0,5.0,6.0,6.0,8.0,8.0,8.0,10.0,13.0,18.0,22.0,20.0,17.0,16.0,16.0,14.0,13.0,16.0,13.0,15.0,18.0,21.0,24.0,44.0,51.0,44.0,40.0,38.0,34.0,33.0,45.0,46.0,50.0,44.0,68.0,76.0,70.0,61.0,55.0,52.0,46.0,42.0,38.0,38.0,34.0,31.0,27.0,24.0,22.0,19.0,16.0,15.0,14.0,13.0,12.0,9.0,11.0,10.0,9.0,8.0,7.0,7.0,6.0,6.0,6.0,5.0,5.0,4.0,5.0,5.0,5.0,5.0,5.0,5.0,5.0,4.0,5.0,4.0,4.0,3.0,3.0,4.0,4.0,4.0,4.0,3.0,4.0,3.0,3.0,3.0,5.0,5.0,4.0,4.0,4.0,5.0,5.0,5.0,6.0,6.0,6.0,7.0,7.0,6.0,6.0,5.0,6.0,5.0,4.0,4.0,5.0,5.0,5.0,7.0,5.0,5.0,5.0,5.0,4.0,4.0,5.0,4.0,4.0,4.0,4.0,3.0,4.0,4.0,5.0,4.0,4.0,3.0,3.0,3.0,3.0,3.0,4.0,4.0,4.0,3.0,3.0,4.0,4.0,4.0,2.0,4.0,3.0,3.0,3.0,3.0,4.0,4.0,4.0,4.0,3.0,3.0,3.0,4.0,4.0,4.0,3.0,3.0,3.0,3.0,3.0,3.0,2.0,4.0,3.0,3.0,3.0,3.0,4.0,3.0,3.0,4.0,3.0,4.0,3.0,4.0,4.0,2.0,3.0,3.0,3.0,3.0,3.0,4.0,3.0,3.0,4.0,3.0,3.0,3.0,4.0,4.0,3.0,4.0,3.0,4.0,4.0,4.0,4.0,4.0,4.0,4.0,3.0,8.0,8.0,7.0,6.0,6.0,5.0,5.0,5.0,5.0,5.0,5.0,4.0,5.0,7.0,17.0,15.0,20.0,41.0,58.0,103.0,143.0,184.0,177.0,222.0,233.0,225.0,284.0,330.0,371.0,341.0,322.0,295.0,268.0,272.0,250.0,252.0,250.0,234.0,221.0,215.0,193.0,194.0,177.0,163.0,153.0,151.0,140.0,139.0,123.0,114.0,105.0,106.0,107.0,97.0,88.0,79.0,86.0,81.0,82.0,77.0,73.0,79.0,71.0,62.0,63.0,65.0,68.0,68.0,60.0,60.0,66.0,60.0,62.0,64.0,61.0,59.0,56.0,52.0,54.0,61.0,59.0,52.0,50.0,45.0,46.0,42.0,41.0,39.0,40.0,37.0,44.0,48.0,43.0,44.0,43.0,45.0,40.0,36.0,34.0,51.0,46.0,44.0,44.0,47.0,43.0,37.0,35.0,40.0,38.0,40.0,38.0,37.0,33.0,43.0,45.0,46.0,43.0,40.0,35.0,44.0,43.0,48.0,46.0,41.0,38.0,42.0,52.0,52.0,47.0,50.0,46.0,47.0,43.0,38.0,33.0,35.0,32.0,40.0,36.0,33.0,31.0,36.0,34.0,38.0,33.0,32.0,32.0,35.0,34.0,33.0,42.0,38.0,34.0,37.0,42.0,41.0,40.0,53.0,51.0,46.0,44.0,40.0,42.0,45.0,43.0,38.0,38.0,36.0,43.0,38.0,35.0,45.0,40.0,37.0,34.0,36.0,33.0,30.0,34.0,43.0,43.0,38.0,32.0,35.0,39.0,34.0,35.0,33.0,29.0,26.0,27.0,27.0,28.0,29.0,33.0,31.0,27.0,30.0,42.0,38.0,34.0,36.0,33.0,28.0,25.0,24.0,26.0,24.0,23.0,35.0,35.0,30.0,27.0,27.0,33.0,29.0,25.0,24.0,24.0,21.0,19.0,31.0,38.0,37.0,33.0,30.0,27.0,25.0,22.0,19.0,17.0,23.0,31.0,30.0,29.0,28.0,35.0,32.0,29.0,30.0,38.0,39.0,38.0,35.0,32.0,28.0,28.0,29.0,29.0,43.0,49.0,45.0,40.0,35.0,34.0,35.0,33.0,47.0,41.0,37.0,34.0,30.0,47.0,44.0,42.0,38.0,35.0,38.0,38.0,34.0,32.0,36.0,32.0,27.0,27.0,24.0,22.0,23.0,24.0,23.0,35.0,33.0,29.0,37.0,39.0,52.0,46.0,41.0,35.0,32.0,41.0,41.0,36.0,32.0,37.0,35.0,31.0,33.0,33.0,31.0,27.0,24.0,21.0,22.0,22.0,25.0,28.0,26.0,23.0,21.0,19.0,18.0,17.0,17.0,21.0,23.0,22.0,20.0,17.0,24.0,21.0,20.0,17.0,25.0,31.0,35.0,31.0,27.0,26.0,23.0,23.0,27.0,37.0,33.0,33.0,31.0,27.0,24.0,22.0,29.0,26.0,24.0,25.0,23.0,20.0,21.0,21.0,32.0,28.0,25.0,27.0,25.0,29.0,26.0,22.0,20.0,18.0,16.0,23.0,21.0,34.0,30.0,26.0,26.0,24.0,38.0,40.0,34.0,31.0,29.0,27.0,25.0,24.0,25.0,22.0,30.0,27.0,27.0,25.0,28.0,29.0,28.0,24.0,35.0,35.0,33.0,29.0,28.0,25.0,28.0,25.0,22.0,24.0,26.0,25.0,24.0,20.0,18.0,17.0,15.0,17.0,23.0,23.0,26.0,22.0,20.0,21.0,19.0,16.0,15.0,24.0,23.0,24.0,21.0,19.0,17.0,20.0,23.0,20.0,16.0,16.0,15.0,30.0,36.0,33.0,31.0,26.0,24.0,21.0,20.0,33.0,29.0,27.0,32.0,32.0,33.0,32.0,29.0,25.0,25.0,35.0,30.0,28.0,30.0,33.0,33.0,29.0,28.0,26.0,23.0,38.0,52.0,48.0,45.0,40.0,44.0,48.0,44.0,46.0,42.0,37.0,40.0,44.0,52.0,60.0,66.0,75.0,79.0,83.0,103.0,112.0,118.0,124.0,122.0,120.0,129.0,127.0,123.0,121.0,123.0,113.0,100.0,96.0,89.0,106.0,119.0,124.0,133.0,147.0,148.0,149.0,149.0,156.0,156.0,157.0,156.0,156.0,146.0,138.0,135.0,136.0,136.0,143.0,137.0,133.0,129.0,131.0,135.0,145.0,145.0,146.0,136.0,131.0,129.0,126.0,122.0,137.0,133.0,135.0,128.0,120.0,109.0,110.0,108.0,103.0,103.0,105.0,97.0,94.0,86.0,94.0,95.0,91.0,85.0,77.0,81.0,82.0,78.0,73.0,70.0,67.0,61.0,57.0,72.0,70.0,75.0,68.0,63.0,55.0,56.0,60.0,54.0,68.0,67.0,63.0,58.0,60.0,59.0,59.0,51.0,48.0,56.0,61.0,60.0,60.0,54.0,52.0,55.0,52.0,51.0,45.0,42.0,42.0,47.0,52.0,55.0,56.0,49.0,51.0,48.0,46.0,39.0,40.0,49.0,48.0,44.0,38.0,43.0,38.0,32.0,34.0,39.0,40.0,40.0,44.0,39.0,35.0,35.0,32.0,35.0,36.0,33.0,32.0,32.0,29.0,26.0,29.0,30.0,40.0,35.0,31.0,30.0,27.0,26.0,25.0,25.0,21.0,21.0,20.0,25.0,22.0,22.0,21.0,19.0,26.0,27.0,23.0,21.0,19.0,19.0,23.0,25.0,23.0,28.0,29.0,27.0,23.0,22.0,19.0,19.0,17.0,18.0,17.0,23.0,20.0,19.0,17.0,18.0,17.0,15.0,16.0,14.0,14.0,20.0,21.0,18.0,16.0,16.0,16.0,15.0,13.0
98.0,108.0,121.0,124.0,117.0,117.0,126.0,120.0,115.0,111.0,103.0,100.0,97.0,98.0,101.0,103.0,101.0,98.0,100.0,97.0,98.0,96.0,93.0,109.0,105.0,101.0,102.0,99.0,98.0,101.0,100.0,96.0,100.0,107.0,100.0,98.0,94.0,90.0,83.0,83.0,88.0,92.0,89.0,88.0,84.0,81.0,81.0,76.0,79.0,82.0,84.0,98.0,98.0,97.0,104.0,109.0,105.0,106.0,106.0,97.0,101.0,100.0,95.0,91.0,97.0,101.0,105.0,104.0,111.0,106.0,121.0,126.0,116.0,109.0,101.0,100.0,127.0,128.0,123.0,117.0,121.0,127.0,122.0,111.0,111.0,113.0,113.0,108.0,100.0,101.0,101.0,96.0,94.0,98.0,94.0,91.0,91.0,88.0,88.0,88.0,86.0,84.0,89.0,111.0,107.0,101.0,97.0,95.0,96.0,92.0,91.0,95.0,89.0,88.0,96.0,95.0,98.0,95.0,87.0,96.0,96.0,92.0,87.0,88.0,84.0,82.0,77.0,80.0,80.0,81.0,78.0,93.0,96.0,91.0,83.0,78.0,92.0,90.0,86.0,78.0,74.0,75.0,84.0,91.0,88.0,85.0,93.0,98.0,97.0,89.0,95.0,101.0,95.0,88.0,81.0,91.0,102.0,106.0,101.0,93.0,87.0,83.0,99.0,102.0,111.0,107.0,128.0,145.0,139.0,125.0,114.0,106.0,99.0,89.0,81.0,79.0,73.0,71.0,64.0,62.0,58.0,56.0,54.0,54.0,50.0,48.0,46.0,44.0,43.0,43.0,42.0,40.0,39.0,38.0,36.0,36.0,34.0,34.0,33.0,32.0,32.0,31.0,32.0,31.0,32.0,31.0,32.0,31.0,31.0,31.0,31.0,31.0,31.0,29.0,29.0,29.0,28.0,28.0,30.0,30.0,28.0,29.0,30.0,30.0,32.0,30.0,30.0,30.0,28.0,29.0,28.0,27.0,27.0,27.0,27.0,26.0,26.0,25.0,26.0,26.0,25.0,27.0,26.0,27.0,27.0,27.0,27.0,27.0,27.0,27.0,27.0,28.0,27.0,26.0,26.0,25.0,28.0,29.0,28.0,27.0,27.0,27.0,26.0,27.0,26.0,26.0,26.0,26.0,29.0,30.0,30.0,31.0,30.0,31.0,31.0,30.0,30.0,31.0,32.0,32.0,34.0,35.0,35.0,37.0,40.0,39.0,38.0,36.0,35.0,34.0,35.0,36.0,34.0,34.0,32.0,31.0,31.0,30.0,31.0,29.0,30.0,29.0,29.0,28.0,28.0,30.0,29.0,29.0,30.0,30.0,30.0,31.0,31.0,30.0,29.0,30.0,29.0,28.0,27.0,27.0,27.0,25.0,26.0,26.0,27.0,26.0,27.0,26.0,27.0,29.0,40.0,46.0,47.0,46.0,43.0,42.0,40.0,39.0,38.0,42.0,42.0,38.0,38.0,37.0,34.0,34.0,32.0,32.0,32.0,31.0,37.0,41.0,51.0,52.0,61.0,63.0,66.0,79.0,109.0,129.0,190.0,232.0,264.0,266.0,258.0,317.0,303.0,292.0,300.0,302.0,284.0,281.0,283.0,263.0,248.0,288.0,284.0,280.0,278.0,283.0,272.0,273.0,266.0,261.0,243.0,234.0,228.0,218.0,205.0,201.0,190.0,183.0,190.0,194.0,185.0,188.0,184.0,187.0,175.0,185.0,175.0,177.0,181.0,177.0,185.0,186.0,188.0,179.0,171.0,161.0,173.0,167.0,165.0,154.0,148.0,136.0,143.0,139.0,137.0,136.0,127.0,128.0,136.0,137.0,141.0,133.0,135.0,133.0,134.0,131.0,133.0,130.0,132.0,128.0,127.0,124.0,125.0,133.0,130.0,135.0,129.0,123.0,122.0,124.0,123.0,118.0,113.0,125.0,117.0,109.0,103.0,95.0,88.0,108.0,110.0,109.0,109.0,104.0,117.0,109.0,107.0,100.0,97.0,96.0,89.0,84.0,88.0,91.0,88.0,87.0,100.0,111.0,109.0,101.0,106.0,99.0,107.0,108.0,102.0,113.0,111.0,106.0,101.0,102.0,108.0,113.0,109.0,112.0,106.0,107.0,102.0,104.0,108.0,108.0,107.0,106.0,100.0,103.0,101.0,97.0,95.0,97.0,103.0,101.0,97.0,98.0,97.0,93.0,95.0,86.0,98.0,93.0,87.0,97.0,100.0,95.0,97.0,96.0,92.0,90.0,87.0,85.0,81.0,86.0,83.0,87.0,89.0,87.0,99.0,108.0,105.0,102.0,105.0,108.0,109.0,101.0,112.0,130.0,128.0,122.0,117.0,111.0,102.0,95.0,105.0,102.0,100.0,102.0,112.0,111.0,114.0,107.0,104.0,110.0,103.0,108.0,96.0,94.0,93.0,109.0,115.0,110.0,113.0,112.0,131.0,131.0,130.0,122.0,110.0,105.0,111.0,110.0,114.0,113.0,106.0,106.0,104.0,100.0,107.0,122.0,115.0,108.0,102.0,97.0,100.0,96.0,93.0,91.0,89.0,86.0,92.0,88.0,88.0,93.0,102.0,108.0,106.0,102.0,94.0,93.0,93.0,94.0,95.0,99.0,105.0,97.0,99.0,99.0,97.0,111.0,108.0,101.0,116.0,111.0,109.0,113.0,110.0,111.0,106.0,101.0,96.0,104.0,102.0,102.0,111.0,104.0,97.0,93.0,87.0,87.0,97.0,94.0,92.0,90.0,93.0,93.0,90.0,91.0,89.0,85.0,79.0,76.0,78.0,74.0,79.0,86.0,104.0,103.0,98.0,98.0,102.0,101.0,101.0,96.0,92.0,97.0,104.0,114.0,111.0,105.0,101.0,94.0,107.0,110.0,104.0,100.0,96.0,92.0,90.0,94.0,103.0,98.0,96.0,89.0,80.0,102.0,94.0,89.0,93.0,88.0,91.0,88.0,85.0,88.0,89.0,85.0,88.0,80.0,74.0,73.0,80.0,91.0,97.0,92.0,86.0,80.0,81.0,84.0,83.0,112.0,110.0,108.0,106.0,102.0,94.0,90.0,82.0,80.0,99.0,104.0,100.0,95.0,92.0,105.0,100.0,100.0,95.0,88.0,93.0,93.0,89.0,93.0,95.0,98.0,92.0,104.0,98.0,102.0,95.0,89.0,84.0,82.0,80.0,77.0,95.0,97.0,99.0,101.0,104.0,106.0,98.0,95.0,93.0,89.0,92.0,94.0,89.0,84.0,86.0,83.0,88.0,92.0,90.0,83.0,81.0,79.0,75.0,78.0,77.0,81.0,77.0,79.0,87.0,89.0,93.0,86.0,84.0,85.0,93.0,87.0,95.0,101.0,97.0,96.0,93.0,88.0,89.0,87.0,83.0,94.0,101.0,105.0,103.0,94.0,90.0,88.0,83.0,82.0,90.0,96.0,93.0,90.0,84.0,86.0,80.0,78.0,91.0,91.0,84.0,83.0,78.0,81.0,87.0,82.0,80.0,102.0,98.0,98.0,99.0,103.0,112.0,111.0,120.0,116.0,127.0,121.0,112.0,112.0,116.0,115.0,108.0,114.0,103.0,115.0,138.0,147.0,153.0,161.0,169.0,163.0,169.0,163.0,165.0,160.0,159.0,163.0,154.0,154.0,151.0,149.0,149.0,143.0,140.0,134.0,128.0,131.0,125.0,128.0,129.0,122.0,120.0,112.0,113.0,115.0,108.0,115.0,128.0,128.0,124.0,117.0,117.0,112.0,104.0,107.0,103.0,107.0,109.0,109.0,106.0,99.0,96.0,91.0,88.0,86.0,86.0,86.0,87.0,87.0,84.0,77.0,78.0,78.0,71.0,71.0,71.0,71.0,75.0,74.0,78.0,73.0,76.0,74.0,73.0,72.0,71.0,72.0,69.0,68.0,68.0,64.0,64.0,62.0,60.0,61.0,62.0,60.0,63.0,61.0,62.0,60.0,59.0,56.0,57.0,66.0,67.0,65.0,65.0,62.0,66.0,70.0,69.0,64.0,65.0,62.0,58.0,59.0,58.0,61.0,60.0,61.0,63.0,62.0,59.0,57.0,58.0,58.0,56.0,56.0,54.0,54.0,53.0,52.0,54.0,60.0,59.0,56.0,58.0,63.0,61.0,59.0,60.0,60.0,59.0,57.0,56.0,57.0,56.0,57.0,68.0,65.0,63.0,60.0,60.0,57.0,58.0,57.0,53.0,52.0,48.0,55.0,60.0,58.0,59.0,60.0,57.0,54.0,58.0,57.0,57.0,54.0,55.0,52.0,57.0,54.0,54.0,57.0,56.0,56.0,53.0,52.0,52.0,52.0,59.0,59.0,59.0,60.0,60.0,61.0,58.0,58.0
