113.0,116.0,116.0,117.0,118.0,121.0,120.0,122.0,121.0,120.0,118.0,116.0,115.0,115.0,113.0,110.0,109.0,107.0,106.0,106.0,103.0,102.0,100.0,100.0,100.0,98.0,97.0,97.0,95.0,94.0,93.0,94.0,90.0,88.0,88.0,86.0,85.0,83.0,83.0,81.0,82.0,82.0,81.0,81.0,80.0,78.0,78.0,78.0,77.0,78.0,79.0,78.0,79.0,80.0,79.0,80.0,79.0,79.0,79.0,78.0,78.0,78.0,78.0,79.0,79.0,79.0,78.0,77.0,79.0,78.0,75.0,73.0,74.0,74.0,76.0,76.0,73.0,71.0,71.0,71.0,69.0,70.0,69.0,69.0,67.0,67.0,66.0,67.0,67.0,64.0,65.0,64.0,63.0,64.0,63.0,64.0,64.0,64.0,64.0,64.0,64.0,65.0,63.0,63.0,63.0,63.0,62.0,60.0,62.0,62.0,63.0,63.0,62.0,63.0,64.0,65.0,65.0,65.0,67.0,66.0,69.0,68.0,68.0,68.0,69.0,70.0,72.0,72.0,73.0,72.0,75.0,75.0,74.0,74.0,76.0,75.0,74.0,74.0,75.0,75.0,78.0,78.0,80.0,79.0,79.0,78.0,78.0,77.0,77.0,77.0,77.0,76.0,74.0,73.0,71.0,72.0,70.0,71.0,70.0,68.0,68.0,69.0,69.0,68.0,68.0,69.0,67.0,68.0,69.0,70.0,72.0,72.0,72.0,72.0,73.0,75.0,73.0,74.0,75.0,76.0,79.0,78.0,80.0,79.0,79.0,79.0,77.0,78.0,78.0,78.0,77.0,78.0,77.0,77.0,77.0,76.0,78.0,77.0,77.0,76.0,76.0,76.0,77.0,76.0,76.0,76.0,76.0,76.0,76.0,76.0,75.0,75.0,76.0,75.0,75.0,75.0,74.0,73.0,72.0,73.0,74.0,72.0,74.0,74.0,74.0,72.0,74.0,73.0,73.0,72.0,73.0,74.0,74.0,74.0,74.0,75.0,75.0,75.0,77.0,77.0,76.0,75.0,74.0,74.0,71.0,72.0,72.0,70.0,69.0,69.0,67.0,67.0,66.0,66.0,66.0,64.0,63.0,63.0,63.0,63.0,61.0,61.0,61.0,60.0,58.0,58.0,58.0,59.0,59.0,59.0,58.0,57.0,59.0,58.0,56.0,55.0,58.0,55.0,56.0,55.0,55.0,55.0,54.0,53.0,52.0,50.0,50.0,50.0,48.0,48.0,47.0,48.0,46.0,49.0,49.0,51.0,53.0,54.0,60.0,64.0,71.0,76.0,74.0,80.0,89.0,99.0,110.0,119.0,130.0,131.0,127.0,120.0,114.0,110.0,108.0,104.0,102.0,101.0,103.0,100.0,96.0,91.0,86.0,81.0,80.0,78.0,76.0,73.0,71.0,78.0,78.0,82.0,81.0,85.0,85.0,91.0,89.0,89.0,88.0,90.0,90.0,92.0,96.0,96.0,96.0,94.0,94.0,93.0,93.0,92.0,92.0,92.0,90.0,91.0,91.0,92.0,91.0,91.0,89.0,90.0,88.0,86.0,87.0,86.0,84.0,82.0,80.0,80.0,78.0,79.0,77.0,77.0,75.0,72.0,69.0,70.0,68.0,65.0,64.0,63.0,64.0,62.0,61.0,61.0,59.0,58.0,57.0,57.0,58.0,61.0,60.0,58.0,58.0,56.0,56.0,54.0,54.0,53.0,55.0,55.0,54.0,53.0,54.0,53.0,52.0,55.0,56.0,57.0,55.0,56.0,54.0,52.0,56.0,55.0,58.0,58.0,58.0,59.0,62.0,63.0,62.0,60.0,59.0,57.0,57.0,56.0,54.0,55.0,54.0,56.0,57.0,58.0,58.0,56.0,57.0,57.0,57.0,56.0,56.0,57.0,55.0,55.0,54.0,55.0,53.0,56.0,55.0,56.0,55.0,54.0,53.0,54.0,53.0,53.0,53.0,53.0,56.0,56.0,57.0,56.0,56.0,58.0,59.0,61.0,59.0,58.0,57.0,57.0,56.0,54.0,55.0,53.0,54.0,52.0,54.0,56.0,55.0,56.0,57.0,58.0,62.0,63.0,64.0,66.0,66.0,65.0,64.0,67.0,67.0,65.0,64.0,66.0,66.0,67.0,66.0,65.0,64.0,64.0,66.0,65.0,65.0,68.0,68.0,66.0,66.0,69.0,67.0,69.0,68.0,67.0,66.0,66.0,67.0,67.0,65.0,66.0,67.0,67.0,67.0,65.0,67.0,65.0,64.0,65.0,64.0,63.0,63.0,62.0,60.0,58.0,59.0,59.0,59.0,58.0,56.0,57.0,54.0,54.0,54.0,56.0,55.0,55.0,54.0,53.0,52.0,52.0,54.0,52.0,52.0,53.0,64.0,71.0,80.0,88.0,97.0,98.0,92.0,87.0,82.0,77.0,75.0,71.0,68.0,66.0,64.0,62.0,58.0,57.0,57.0,55.0,54.0,55.0,55.0,54.0,55.0,57.0,56.0,57.0,57.0,56.0,57.0,76.0,78.0,75.0,71.0,68.0,64.0,61.0,60.0,65.0,73.0,71.0,76.0,76.0,74.0,69.0,66.0,63.0,61.0,61.0,59.0,70.0,78.0,78.0,80.0,86.0,93.0,95.0,97.0,100.0,95.0,101.0,109.0,106.0,106.0,107.0,108.0,113.0,116.0,119.0,114.0,129.0,135.0,137.0,137.0,138.0,140.0,141.0,143.0,146.0,146.0,150.0,148.0,148.0,151.0,152.0,152.0,152.0,153.0,155.0,154.0,153.0,156.0,156.0,156.0,155.0,156.0,155.0,155.0,156.0,155.0,155.0,156.0,154.0,154.0,151.0,149.0,147.0,146.0,146.0,145.0,147.0,144.0,142.0,142.0,140.0,137.0,138.0,138.0,137.0,135.0,134.0,134.0,135.0,133.0,133.0,135.0,132.0,130.0,130.0,130.0,129.0,128.0,129.0,127.0,124.0,121.0,121.0,119.0,117.0,115.0,114.0,113.0,110.0,109.0,107.0,105.0,104.0,103.0,101.0,101.0,99.0,98.0,97.0,96.0,94.0,93.0,90.0,92.0,90.0,90.0,90.0,89.0,87.0,86.0,85.0,84.0,83.0,84.0,83.0,82.0,80.0,80.0,80.0,80.0,79.0,77.0,76.0,79.0,76.0,78.0,77.0,79.0,79.0,79.0,80.0,80.0,80.0,81.0,81.0,83.0,82.0,84.0,85.0,85.0,87.0,88.0,87.0,90.0,89.0,91.0,92.0,92.0,91.0,91.0,92.0,93.0,91.0,92.0,90.0,89.0,88.0,89.0,88.0,88.0,89.0,88.0,90.0,89.0,90.0,92.0,92.0,93.0,93.0,93.0,94.0,93.0,95.0,96.0,97.0,99.0,98.0,98.0,100.0,99.0,101.0,101.0,104.0,104.0,105.0,108.0,110.0,112.0,113.0,114.0,116.0,118.0,120.0,123.0,123.0,125.0,125.0,127.0,129.0,131.0,133.0,133.0,132.0,132.0,131.0,130.0,128.0,127.0,126.0,123.0,123.0,123.0,122.0,119.0,119.0,118.0,118.0,116.0,112.0,113.0,512.0,512.0,514.0,516.0,473.0,426.0,389.0,360.0,337.0,318.0,301.0,286.0,273.0,262.0,253.0,242.0,234.0,239.0,226.0,216.0,211.0,207.0,202.0,199.0,196.0,195.0,193.0,191.0,189.0,186.0,182.0,179.0,174.0,171.0,168.0,165.0,165.0,160.0,158.0,156.0,153.0,150.0,147.0,147.0,147.0,144.0,145.0,142.0,142.0,141.0,141.0,140.0,138.0,138.0,138.0,136.0,134.0,132.0,131.0,131.0,130.0,130.0,128.0,129.0,128.0,129.0,129.0,130.0,132.0,133.0,134.0,134.0,134.0,136.0,137.0,137.0,140.0,139.0,141.0,141.0,142.0,143.0,143.0,144.0,145.0,145.0,145.0,144.0,144.0,143.0,143.0,142.0,140.0,138.0,136.0,133.0,132.0,129.0,128.0,127.0,124.0,121.0,119.0,118.0,115.0,115.0,113.0,111.0,110.0,108.0,106.0,105.0,104.0,103.0,101.0,100.0,99.0,97.0,98.0,97.0,96.0,97.0,97.0,95.0,95.0,95.0,96.0,96.0,97.0,97.0,97.0,98.0,97.0,98.0,96.0,95.0,94.0,91.0,90.0,89.0,89.0,88.0,86.0,85.0,85.0,85.0,84.0,83.0,83.0,82.0,81.0,83.0,83.0,84.0,84.0,85.0,84.0,84.0,84.0,86.0,85.0,83.0,83.0,79.0,77.0,76.0,75.0,74.0,73.0,72.0,73.0,71.0,70.0,68.0,67.0
42.0,42.0,43.0,41.0,41.0,40.0,39.0,40.0,41.0,42.0,43.0,41.0,41.0,40.0,40.0,41.0,41.0,41.0,41.0,41.0,42.0,41.0,42.0,41.0,40.0,40.0,40.0,41.0,40.0,39.0,38.0,38.0,39.0,37.0,39.0,39.0,38.0,39.0,39.0,38.0,37.0,39.0,39.0,38.0,39.0,42.0,41.0,43.0,43.0,44.0,42.0,40.0,42.0,41.0,40.0,40.0,38.0,39.0,38.0,38.0,38.0,38.0,37.0,36.0,37.0,36.0,37.0,37.0,37.0,40.0,41.0,41.0,41.0,40.0,41.0,43.0,43.0,43.0,42.0,45.0,43.0,46.0,45.0,45.0,44.0,42.0,41.0,41.0,39.0,40.0,41.0,42.0,41.0,42.0,42.0,40.0,40.0,39.0,40.0,41.0,40.0,43.0,43.0,44.0,42.0,42.0,43.0,43.0,41.0,44.0,42.0,43.0,44.0,43.0,43.0,41.0,43.0,41.0,42.0,44.0,45.0,45.0,46.0,45.0,44.0,42.0,45.0,45.0,45.0,45.0,44.0,47.0,46.0,46.0,45.0,43.0,45.0,43.0,44.0,43.0,43.0,43.0,43.0,43.0,42.0,42.0,43.0,40.0,40.0,40.0,42.0,43.0,41.0,42.0,41.0,40.0,41.0,40.0,41.0,43.0,41.0,41.0,40.0,40.0,40.0,43.0,42.0,43.0,44.0,43.0,44.0,45.0,46.0,46.0,45.0,45.0,47.0,45.0,44.0,44.0,43.0,44.0,44.0,44.0,44.0,43.0,43.0,43.0,43.0,44.0,45.0,45.0,44.0,47.0,47.0,49.0,51.0,51.0,55.0,52.0,54.0,56.0,56.0,58.0,56.0,59.0,60.0,60.0,60.0,59.0,59.0,59.0,59.0,59.0,60.0,60.0,59.0,57.0,57.0,57.0,58.0,56.0,56.0,56.0,55.0,55.0,55.0,56.0,57.0,56.0,59.0,57.0,57.0,56.0,55.0,58.0,56.0,56.0,57.0,58.0,56.0,56.0,54.0,53.0,51.0,52.0,48.0,48.0,46.0,45.0,47.0,46.0,45.0,45.0,48.0,47.0,45.0,47.0,45.0,44.0,44.0,43.0,43.0,42.0,45.0,44.0,43.0,44.0,43.0,43.0,43.0,44.0,45.0,44.0,44.0,44.0,43.0,44.0,43.0,43.0,42.0,40.0,42.0,43.0,44.0,45.0,45.0,48.0,48.0,49.0,49.0,48.0,48.0,48.0,49.0,50.0,49.0,49.0,55.0,63.0,62.0,61.0,62.0,62.0,61.0,62.0,65.0,69.0,85.0,89.0,89.0,99.0,108.0,102.0,112.0,109.0,145.0,197.0,221.0,222.0,219.0,207.0,227.0,212.0,209.0,190.0,180.0,182.0,178.0,171.0,178.0,173.0,163.0,162.0,153.0,160.0,156.0,151.0,148.0,146.0,138.0,131.0,128.0,122.0,115.0,129.0,130.0,118.0,110.0,111.0,106.0,114.0,119.0,117.0,112.0,106.0,104.0,99.0,96.0,96.0,96.0,96.0,100.0,99.0,99.0,95.0,95.0,90.0,94.0,89.0,83.0,83.0,83.0,84.0,89.0,92.0,91.0,88.0,85.0,89.0,90.0,87.0,85.0,86.0,81.0,82.0,86.0,82.0,78.0,82.0,79.0,84.0,85.0,85.0,83.0,80.0,85.0,83.0,84.0,84.0,86.0,90.0,84.0,81.0,77.0,75.0,74.0,74.0,74.0,75.0,77.0,77.0,79.0,79.0,76.0,87.0,89.0,88.0,97.0,116.0,118.0,110.0,103.0,96.0,93.0,89.0,85.0,92.0,92.0,88.0,89.0,90.0,89.0,88.0,81.0,83.0,77.0,75.0,78.0,80.0,83.0,81.0,77.0,75.0,71.0,78.0,76.0,76.0,72.0,71.0,79.0,87.0,86.0,83.0,77.0,74.0,73.0,79.0,80.0,84.0,80.0,83.0,85.0,89.0,84.0,85.0,84.0,87.0,90.0,88.0,87.0,84.0,82.0,87.0,82.0,88.0,85.0,84.0,80.0,79.0,86.0,86.0,87.0,82.0,79.0,78.0,78.0,84.0,82.0,85.0,87.0,89.0,89.0,85.0,83.0,80.0,82.0,84.0,87.0,84.0,80.0,79.0,79.0,80.0,79.0,83.0,83.0,87.0,86.0,89.0,87.0,86.0,89.0,88.0,87.0,91.0,92.0,94.0,88.0,91.0,95.0,92.0,91.0,95.0,91.0,88.0,89.0,93.0,91.0,90.0,94.0,94.0,90.0,92.0,88.0,88.0,87.0,90.0,92.0,93.0,91.0,97.0,95.0,96.0,94.0,92.0,91.0,87.0,88.0,88.0,86.0,89.0,90.0,87.0,84.0,84.0,80.0,80.0,78.0,78.0,85.0,81.0,80.0,79.0,76.0,74.0,78.0,76.0,76.0,81.0,77.0,76.0,77.0,74.0,71.0,71.0,69.0,73.0,70.0,70.0,68.0,72.0,69.0,66.0,64.0,66.0,62.0,60.0,63.0,61.0,58.0,56.0,56.0,59.0,56.0,55.0,57.0,54.0,53.0,58.0,57.0,59.0,61.0,59.0,57.0,62.0,68.0,71.0,77.0,79.0,85.0,90.0,95.0,93.0,92.0,98.0,99.0,104.0,103.0,101.0,100.0,101.0,106.0,105.0,105.0,103.0,105.0,109.0,111.0,116.0,120.0,123.0,123.0,126.0,131.0,135.0,134.0,138.0,142.0,146.0,149.0,148.0,152.0,152.0,152.0,153.0,151.0,152.0,153.0,155.0,154.0,151.0,151.0,148.0,149.0,150.0,147.0,148.0,148.0,150.0,150.0,151.0,149.0,147.0,146.0,145.0,140.0,143.0,142.0,142.0,140.0,136.0,136.0,134.0,131.0,129.0,128.0,127.0,121.0,121.0,121.0,118.0,117.0,114.0,112.0,108.0,105.0,106.0,104.0,104.0,104.0,104.0,107.0,108.0,110.0,112.0,112.0,116.0,116.0,118.0,121.0,123.0,124.0,124.0,127.0,128.0,131.0,133.0,135.0,137.0,137.0,138.0,139.0,141.0,141.0,143.0,145.0,146.0,148.0,146.0,145.0,145.0,147.0,148.0,149.0,148.0,147.0,147.0,147.0,145.0,147.0,147.0,147.0,146.0,145.0,145.0,143.0,143.0,141.0,141.0,141.0,139.0,138.0,138.0,135.0,134.0,133.0,130.0,132.0,129.0,128.0,130.0,131.0,131.0,132.0,133.0,134.0,132.0,131.0,132.0,133.0,133.0,132.0,132.0,132.0,131.0,130.0,129.0,127.0,125.0,126.0,123.0,122.0,121.0,121.0,119.0,117.0,116.0,115.0,114.0,113.0,112.0,109.0,109.0,107.0,104.0,102.0,101.0,99.0,98.0,96.0,95.0,94.0,95.0,94.0,93.0,91.0,91.0,93.0,90.0,89.0,86.0,82.0,82.0,81.0,81.0,80.0,78.0,77.0,74.0,72.0,71.0,68.0,69.0,66.0,65.0,66.0,66.0,65.0,65.0,65.0,66.0,65.0,63.0,63.0,66.0,63.0,61.0,60.0,57.0,55.0,54.0,51.0,52.0,50.0,49.0,47.0,46.0,45.0,43.0,43.0,42.0,44.0,44.0,41.0,40.0,41.0,42.0,41.0,41.0,42.0,43.0,44.0,46.0,47.0,48.0,49.0,50.0,51.0,50.0,52.0,53.0,56.0,56.0,56.0,57.0,54.0,56.0,55.0,53.0,53.0,51.0,52.0,51.0,50.0,49.0,50.0,51.0,51.0,51.0,53.0,53.0,55.0,54.0,55.0,56.0,55.0,59.0,56.0,56.0,57.0,56.0,56.0,54.0,52.0,52.0,50.0,51.0,49.0,47.0,48.0,48.0,46.0,48.0,47.0,48.0,47.0,47.0,47.0,49.0,49.0,50.0,51.0,50.0,52.0,53.0,54.0,57.0,58.0,59.0,59.0,61.0,63.0,65.0,67.0,68.0,69.0,69.0,70.0,70.0,71.0,72.0,71.0,71.0,71.0,70.0,70.0,72.0,72.0,72.0,72.0,72.0,71.0,70.0,68.0,65.0,66.0,65.0,62.0,61.0,59.0,61.0,61.0,60.0,61.0,60.0,62.0,61.0,63.0,62.0,63.0,64.0,64.0,63.0,65.0,65.0,66.0,66.0,65.0,66.0,65.0,66.0,65.0,65.0,65.0,64.0,66.0,65.0,68.0,69.0,69.0,71.0,71.0,72.0,75.0,74.0,74.0,74.0,72.0,70.0,69.0,71.0,69.0,71.0,70.0,69.0,68.0,68.0,65.0,66.0
13.0,24.0,22.0,20.0,17.0,15.0,15.0,13.0,20.0,18.0,21.0,19.0,17.0,22.0,25.0,23.0,21.0,19.0,17.0,16.0,17.0,21.0,19.0,17.0,16.0,14.0,15.0,15.0,15.0,15.0,13.0,12.0,16.0,15.0,14.0,13.0,16.0,13.0,14.0,12.0,11.0,10.0,9.0,10.0,21.0,19.0,17.0,23.0,22.0,19.0,18.0,17.0,21.0,19.0,18.0,19.0,20.0,19.0,20.0,17.0,17.0,14.0,14.0,12.0,13.0,11.0,11.0,13.0,14.0,20.0,19.0,17.0,16.0,16.0,21.0,32.0,28.0,24.0,26.0,33.0,33.0,34.0,33.0,30.0,26.0,24.0,23.0,19.0,18.0,17.0,17.0,24.0,21.0,26.0,29.0,25.0,22.0,21.0,18.0,18.0,20.0,26.0,25.0,23.0,21.0,24.0,20.0,20.0,18.0,19.0,18.0,29.0,26.0,24.0,22.0,23.0,21.0,19.0,17.0,25.0,27.0,26.0,25.0,22.0,22.0,21.0,28.0,31.0,28.0,26.0,23.0,28.0,26.0,25.0,28.0,29.0,26.0,25.0,22.0,21.0,22.0,25.0,27.0,28.0,25.0,24.0,23.0,21.0,19.0,18.0,23.0,32.0,29.0,27.0,26.0,29.0,29.0,29.0,34.0,30.0,29.0,27.0,27.0,23.0,22.0,27.0,24.0,23.0,22.0,20.0,22.0,20.0,25.0,21.0,23.0,24.0,31.0,28.0,25.0,24.0,22.0,22.0,26.0,24.0,26.0,23.0,21.0,23.0,20.0,27.0,25.0,22.0,21.0,25.0,24.0,22.0,27.0,28.0,30.0,27.0,23.0,23.0,20.0,19.0,17.0,15.0,18.0,25.0,21.0,20.0,17.0,18.0,18.0,17.0,21.0,19.0,19.0,17.0,14.0,13.0,13.0,15.0,25.0,23.0,21.0,18.0,17.0,16.0,18.0,16.0,20.0,23.0,21.0,20.0,21.0,19.0,19.0,16.0,17.0,21.0,26.0,27.0,23.0,24.0,22.0,21.0,22.0,22.0,20.0,20.0,18.0,19.0,20.0,25.0,26.0,23.0,23.0,21.0,19.0,18.0,17.0,16.0,20.0,18.0,17.0,15.0,14.0,15.0,15.0,17.0,14.0,16.0,18.0,18.0,17.0,18.0,27.0,22.0,20.0,18.0,16.0,18.0,20.0,20.0,18.0,17.0,17.0,21.0,20.0,19.0,17.0,15.0,12.0,13.0,11.0,10.0,9.0,8.0,8.0,7.0,7.0,7.0,6.0,5.0,5.0,7.0,5.0,6.0,9.0,11.0,11.0,15.0,14.0,14.0,14.0,17.0,27.0,77.0,97.0,95.0,84.0,77.0,70.0,61.0,74.0,71.0,65.0,59.0,58.0,50.0,47.0,41.0,36.0,32.0,29.0,30.0,28.0,27.0,26.0,22.0,20.0,17.0,17.0,14.0,14.0,20.0,19.0,19.0,17.0,15.0,14.0,14.0,14.0,17.0,15.0,13.0,12.0,12.0,9.0,9.0,16.0,24.0,21.0,19.0,17.0,15.0,13.0,14.0,13.0,13.0,12.0,10.0,12.0,12.0,12.0,12.0,14.0,14.0,14.0,12.0,17.0,20.0,22.0,21.0,18.0,16.0,14.0,14.0,13.0,15.0,14.0,13.0,11.0,12.0,13.0,12.0,10.0,11.0,9.0,10.0,9.0,9.0,11.0,9.0,10.0,9.0,9.0,7.0,7.0,8.0,8.0,9.0,8.0,8.0,7.0,9.0,9.0,8.0,7.0,10.0,9.0,8.0,10.0,9.0,9.0,7.0,7.0,7.0,7.0,7.0,5.0,6.0,5.0,5.0,8.0,9.0,9.0,8.0,10.0,10.0,9.0,7.0,7.0,14.0,13.0,12.0,10.0,10.0,8.0,12.0,10.0,10.0,8.0,8.0,8.0,7.0,6.0,13.0,12.0,12.0,10.0,11.0,8.0,9.0,8.0,8.0,8.0,7.0,8.0,8.0,10.0,11.0,9.0,8.0,8.0,8.0,9.0,8.0,9.0,8.0,8.0,7.0,10.0,11.0,8.0,9.0,7.0,11.0,12.0,10.0,10.0,9.0,8.0,9.0,8.0,8.0,7.0,7.0,7.0,6.0,7.0,9.0,9.0,10.0,9.0,10.0,8.0,7.0,7.0,7.0,7.0,6.0,6.0,6.0,5.0,5.0,6.0,6.0,5.0,5.0,9.0,6.0,6.0,6.0,5.0,6.0,5.0,5.0,5.0,4.0,4.0,6.0,7.0,6.0,5.0,6.0,4.0,5.0,5.0,5.0,4.0,4.0,4.0,5.0,5.0,4.0,4.0,5.0,4.0,5.0,4.0,6.0,6.0,5.0,8.0,8.0,8.0,7.0,6.0,6.0,6.0,6.0,5.0,5.0,5.0,5.0,4.0,4.0,5.0,6.0,5.0,5.0,6.0,4.0,5.0,4.0,3.0,5.0,5.0,5.0,4.0,6.0,6.0,9.0,7.0,7.0,6.0,6.0,6.0,6.0,6.0,6.0,5.0,5.0,6.0,5.0,5.0,5.0,4.0,5.0,4.0,8.0,8.0,6.0,8.0,23.0,25.0,33.0,44.0,67.0,95.0,111.0,117.0,110.0,127.0,116.0,113.0,107.0,103.0,117.0,124.0,142.0,150.0,137.0,126.0,132.0,137.0,140.0,132.0,122.0,120.0,106.0,98.0,94.0,86.0,75.0,77.0,71.0,68.0,73.0,66.0,60.0,53.0,48.0,45.0,44.0,45.0,40.0,47.0,42.0,37.0,33.0,28.0,32.0,31.0,28.0,27.0,41.0,38.0,34.0,29.0,27.0,23.0,22.0,20.0,27.0,39.0,37.0,36.0,32.0,28.0,30.0,31.0,30.0,27.0,24.0,23.0,20.0,22.0,22.0,19.0,20.0,17.0,18.0,15.0,14.0,18.0,17.0,15.0,13.0,13.0,12.0,12.0,11.0,10.0,11.0,13.0,13.0,19.0,16.0,15.0,18.0,17.0,15.0,14.0,13.0,11.0,10.0,10.0,17.0,16.0,15.0,15.0,14.0,17.0,17.0,19.0,17.0,15.0,15.0,16.0,14.0,13.0,13.0,11.0,11.0,10.0,9.0,9.0,14.0,14.0,12.0,16.0,16.0,20.0,19.0,16.0,15.0,14.0,14.0,13.0,13.0,12.0,11.0,9.0,9.0,8.0,12.0,11.0,9.0,11.0,10.0,9.0,10.0,10.0,12.0,9.0,11.0,10.0,9.0,9.0,7.0,7.0,9.0,8.0,9.0,8.0,8.0,8.0,7.0,7.0,8.0,9.0,8.0,7.0,7.0,11.0,14.0,12.0,11.0,11.0,8.0,8.0,7.0,7.0,7.0,6.0,9.0,6.0,9.0,10.0,9.0,9.0,7.0,9.0,7.0,8.0,9.0,8.0,7.0,9.0,8.0,8.0,8.0,7.0,8.0,8.0,8.0,7.0,8.0,6.0,7.0,8.0,7.0,6.0,5.0,5.0,11.0,10.0,12.0,10.0,10.0,10.0,8.0,13.0,16.0,14.0,14.0,13.0,12.0,12.0,11.0,11.0,10.0,9.0,11.0,11.0,15.0,13.0,13.0,11.0,10.0,10.0,10.0,12.0,11.0,11.0,10.0,10.0,10.0,9.0,8.0,9.0,9.0,9.0,7.0,10.0,9.0,10.0,9.0,8.0,8.0,8.0,8.0,7.0,6.0,6.0,10.0,10.0,9.0,8.0,9.0,7.0,7.0,8.0,7.0,10.0,9.0,10.0,12.0,10.0,10.0,9.0,8.0,8.0,7.0,7.0,7.0,8.0,7.0,7.0,7.0,6.0,7.0,6.0,5.0,5.0,5.0,6.0,5.0,7.0,9.0,8.0,7.0,7.0,7.0,8.0,7.0,9.0,12.0,11.0,15.0,13.0,15.0,13.0,15.0,16.0,15.0,15.0,16.0,19.0,17.0,17.0,17.0,15.0,14.0,13.0,11.0,11.0,12.0,12.0,12.0,10.0,10.0,9.0,9.0,9.0,10.0,14.0,12.0,14.0,15.0,15.0,14.0,13.0,14.0,14.0,15.0,14.0,19.0,19.0,18.0,17.0,17.0,18.0,17.0,17.0,20.0,22.0,19.0,21.0,19.0,19.0,22.0,19.0,19.0,16.0,16.0,16.0,15.0,15.0,15.0,15.0,15.0,14.0,15.0,16.0,14.0,17.0,17.0,16.0,16.0,15.0,16.0,20.0,19.0,17.0,16.0,14.0,15.0,15.0,17.0,16.0,17.0,15.0,17.0,17.0,16.0,16.0,15.0
181.0,174.0,174.0,159.0,158.0,166.0,158.0,174.0,166.0,162.0,163.0,156.0,166.0,160.0,174.0,164.0,168.0,169.0,170.0,164.0,157.0,159.0,168.0,159.0,164.0,167.0,162.0,161.0,152.0,151.0,150.0,154.0,163.0,169.0,171.0,155.0,162.0,155.0,147.0,153.0,140.0,138.0,142.0,141.0,168.0,157.0,153.0,153.0,145.0,142.0,148.0,140.0,138.0,141.0,140.0,136.0,151.0,172.0,154.0,144.0,143.0,147.0,145.0,139.0,151.0,142.0,142.0,153.0,168.0,173.0,162.0,154.0,147.0,144.0,157.0,143.0,140.0,154.0,157.0,145.0,161.0,150.0,149.0,144.0,141.0,135.0,137.0,141.0,140.0,133.0,126.0,131.0,129.0,123.0,124.0,116.0,121.0,121.0,120.0,129.0,133.0,128.0,119.0,125.0,128.0,129.0,119.0,132.0,137.0,128.0,116.0,118.0,117.0,114.0,111.0,100.0,104.0,100.0,92.0,97.0,104.0,112.0,101.0,94.0,84.0,81.0,77.0,85.0,99.0,112.0,111.0,105.0,98.0,116.0,120.0,114.0,109.0,105.0,99.0,97.0,99.0,112.0,119.0,120.0,115.0,116.0,123.0,128.0,122.0,116.0,111.0,125.0,133.0,128.0,118.0,116.0,114.0,124.0,125.0,131.0,121.0,119.0,110.0,108.0,110.0,110.0,114.0,140.0,140.0,138.0,134.0,131.0,121.0,126.0,117.0,118.0,132.0,140.0,146.0,145.0,147.0,143.0,137.0,132.0,122.0,117.0,121.0,132.0,137.0,137.0,135.0,137.0,134.0,139.0,131.0,118.0,112.0,108.0,112.0,112.0,110.0,103.0,104.0,106.0,103.0,101.0,112.0,122.0,117.0,123.0,120.0,126.0,129.0,128.0,124.0,121.0,128.0,137.0,141.0,137.0,129.0,136.0,133.0,129.0,135.0,131.0,121.0,130.0,125.0,129.0,122.0,120.0,119.0,113.0,116.0,121.0,110.0,113.0,114.0,103.0,97.0,92.0,94.0,94.0,97.0,92.0,86.0,81.0,79.0,83.0,83.0,80.0,85.0,89.0,92.0,100.0,96.0,105.0,102.0,98.0,96.0,104.0,103.0,99.0,103.0,97.0,101.0,101.0,104.0,111.0,103.0,93.0,85.0,87.0,98.0,103.0,101.0,94.0,107.0,105.0,100.0,101.0,102.0,97.0,87.0,83.0,94.0,115.0,110.0,107.0,96.0,87.0,79.0,79.0,79.0,81.0,79.0,73.0,74.0,73.0,72.0,67.0,63.0,58.0,55.0,53.0,53.0,50.0,50.0,51.0,50.0,52.0,61.0,56.0,57.0,53.0,56.0,88.0,113.0,123.0,123.0,119.0,119.0,114.0,123.0,130.0,126.0,119.0,121.0,117.0,105.0,102.0,98.0,94.0,87.0,85.0,90.0,93.0,91.0,90.0,90.0,86.0,82.0,78.0,77.0,77.0,78.0,76.0,75.0,75.0,71.0,67.0,65.0,73.0,74.0,71.0,68.0,68.0,64.0,62.0,71.0,82.0,81.0,79.0,75.0,74.0,71.0,70.0,66.0,68.0,69.0,67.0,62.0,64.0,67.0,68.0,72.0,73.0,72.0,66.0,67.0,74.0,77.0,79.0,76.0,73.0,74.0,70.0,68.0,67.0,68.0,67.0,64.0,68.0,67.0,67.0,66.0,65.0,64.0,64.0,66.0,67.0,69.0,73.0,71.0,69.0,67.0,65.0,65.0,63.0,64.0,63.0,59.0,64.0,58.0,59.0,59.0,58.0,59.0,56.0,59.0,61.0,64.0,65.0,61.0,59.0,57.0,53.0,55.0,52.0,52.0,50.0,48.0,49.0,47.0,52.0,54.0,54.0,56.0,55.0,53.0,52.0,50.0,55.0,52.0,49.0,48.0,46.0,46.0,47.0,48.0,44.0,43.0,43.0,41.0,40.0,38.0,44.0,43.0,43.0,40.0,38.0,38.0,38.0,37.0,36.0,34.0,33.0,34.0,35.0,36.0,36.0,36.0,34.0,33.0,33.0,32.0,34.0,35.0,35.0,34.0,36.0,37.0,37.0,35.0,35.0,33.0,39.0,44.0,42.0,41.0,42.0,42.0,40.0,39.0,38.0,38.0,37.0,35.0,35.0,35.0,38.0,37.0,38.0,37.0,36.0,37.0,37.0,37.0,36.0,35.0,35.0,35.0,35.0,34.0,32.0,34.0,34.0,33.0,33.0,35.0,35.0,34.0,33.0,35.0,33.0,32.0,31.0,31.0,30.0,29.0,32.0,32.0,32.0,31.0,30.0,29.0,29.0,29.0,28.0,28.0,29.0,30.0,31.0,30.0,29.0,31.0,30.0,29.0,31.0,30.0,37.0,37.0,37.0,36.0,39.0,42.0,40.0,38.0,37.0,37.0,35.0,34.0,34.0,33.0,32.0,34.0,34.0,37.0,38.0,37.0,36.0,34.0,33.0,33.0,35.0,34.0,35.0,36.0,34.0,36.0,40.0,40.0,42.0,39.0,39.0,37.0,36.0,36.0,36.0,36.0,33.0,34.0,33.0,33.0,32.0,32.0,33.0,32.0,30.0,32.0,35.0,41.0,38.0,41.0,69.0,92.0,107.0,125.0,159.0,192.0,197.0,224.0,294.0,322.0,330.0,312.0,298.0,312.0,322.0,334.0,316.0,326.0,320.0,299.0,312.0,314.0,299.0,290.0,285.0,268.0,244.0,223.0,210.0,216.0,226.0,212.0,206.0,199.0,204.0,212.0,199.0,200.0,194.0,172.0,161.0,175.0,179.0,172.0,169.0,158.0,150.0,147.0,154.0,159.0,153.0,149.0,143.0,142.0,140.0,142.0,131.0,122.0,120.0,127.0,130.0,131.0,136.0,141.0,149.0,143.0,141.0,141.0,134.0,152.0,143.0,146.0,144.0,137.0,131.0,121.0,119.0,115.0,113.0,103.0,101.0,97.0,105.0,110.0,109.0,110.0,118.0,121.0,118.0,113.0,101.0,97.0,90.0,90.0,108.0,112.0,109.0,104.0,93.0,88.0,86.0,91.0,90.0,99.0,105.0,103.0,116.0,111.0,107.0,103.0,101.0,116.0,122.0,115.0,108.0,112.0,115.0,116.0,116.0,112.0,107.0,107.0,115.0,107.0,119.0,115.0,118.0,128.0,124.0,121.0,118.0,108.0,119.0,126.0,133.0,130.0,125.0,115.0,105.0,106.0,100.0,94.0,107.0,103.0,103.0,109.0,107.0,101.0,106.0,108.0,113.0,116.0,138.0,137.0,129.0,121.0,120.0,116.0,121.0,110.0,109.0,110.0,132.0,133.0,130.0,125.0,120.0,113.0,104.0,101.0,96.0,101.0,104.0,99.0,98.0,101.0,97.0,101.0,108.0,104.0,100.0,102.0,121.0,123.0,136.0,142.0,143.0,140.0,142.0,153.0,145.0,147.0,140.0,134.0,128.0,126.0,122.0,119.0,123.0,128.0,121.0,110.0,112.0,108.0,112.0,106.0,112.0,107.0,107.0,102.0,103.0,107.0,119.0,118.0,116.0,113.0,112.0,103.0,99.0,111.0,119.0,125.0,126.0,117.0,113.0,110.0,112.0,105.0,114.0,111.0,117.0,109.0,116.0,115.0,119.0,117.0,117.0,131.0,133.0,129.0,130.0,127.0,124.0,129.0,120.0,117.0,114.0,115.0,113.0,109.0,108.0,109.0,111.0,126.0,122.0,116.0,123.0,131.0,132.0,130.0,125.0,116.0,111.0,110.0,114.0,120.0,115.0,116.0,126.0,123.0,114.0,112.0,121.0,126.0,122.0,116.0,122.0,127.0,123.0,115.0,110.0,102.0,112.0,120.0,118.0,113.0,111.0,120.0,122.0,119.0,110.0,103.0,104.0,103.0,110.0,109.0,111.0,110.0,110.0,110.0,116.0,123.0,126.0,127.0,125.0,128.0,131.0,128.0,118.0,118.0,123.0,118.0,112.0,111.0,106.0,115.0,106.0,107.0,107.0,107.0,108.0,106.0,103.0,105.0,108.0,106.0,102.0,99.0,105.0,103.0,100.0,101.0,104.0,103.0,98.0,91.0,87.0,86.0,91.0,91.0,92.0,110.0,105.0,112.0,116.0,109.0,110.0,102.0,96.0,112.0,129.0,134.0,127.0,124.0,116.0,119.0,119.0,108.0,106.0,103.0,104.0,110.0,103.0,101.0,101.0,100.0,100.0,92.0,95.0,98.0,113.0,120.0,122.0,125.0,124.0,119.0,115.0,113.0,105.0,100.0,94.0,98.0,96.0,92.0,94.0,104.0,100.0,98.0,98.0,91.0,87.0,89.0,92.0,100.0,100.0
