61.0,60.0,61.0,61.0,61.0,60.0,60.0,61.0,59.0,60.0,59.0,59.0,58.0,58.0,59.0,58.0,58.0,57.0,56.0,56.0,55.0,56.0,56.0,56.0,55.0,55.0,55.0,55.0,55.0,56.0,54.0,54.0,53.0,56.0,56.0,54.0,56.0,56.0,57.0,57.0,57.0,57.0,58.0,58.0,60.0,59.0,61.0,61.0,59.0,60.0,61.0,62.0,61.0,60.0,62.0,60.0,60.0,60.0,60.0,58.0,58.0,58.0,57.0,57.0,58.0,60.0,61.0,61.0,62.0,63.0,66.0,64.0,66.0,66.0,65.0,66.0,65.0,66.0,65.0,63.0,64.0,63.0,64.0,65.0,65.0,65.0,62.0,61.0,60.0,60.0,59.0,57.0,57.0,55.0,55.0,55.0,55.0,57.0,57.0,55.0,56.0,54.0,54.0,54.0,53.0,53.0,51.0,51.0,50.0,49.0,48.0,48.0,48.0,48.0,48.0,48.0,48.0,48.0,48.0,48.0,49.0,49.0,49.0,48.0,48.0,48.0,48.0,48.0,49.0,49.0,48.0,49.0,49.0,49.0,47.0,48.0,49.0,49.0,49.0,49.0,49.0,51.0,51.0,51.0,50.0,52.0,52.0,53.0,53.0,54.0,52.0,52.0,49.0,52.0,52.0,53.0,53.0,52.0,52.0,50.0,50.0,50.0,50.0,52.0,51.0,50.0,52.0,49.0,51.0,51.0,51.0,51.0,51.0,52.0,50.0,50.0,51.0,51.0,52.0,51.0,51.0,51.0,50.0,49.0,49.0,52.0,53.0,53.0,55.0,54.0,54.0,56.0,57.0,56.0,56.0,56.0,55.0,54.0,54.0,54.0,54.0,53.0,55.0,54.0,54.0,57.0,57.0,58.0,59.0,59.0,58.0,60.0,60.0,61.0,61.0,62.0,61.0,63.0,62.0,62.0,63.0,63.0,63.0,64.0,64.0,63.0,62.0,60.0,58.0,58.0,56.0,57.0,59.0,55.0,58.0,56.0,57.0,58.0,57.0,58.0,57.0,55.0,55.0,56.0,56.0,54.0,55.0,55.0,54.0,53.0,52.0,51.0,52.0,49.0,52.0,50.0,50.0,52.0,51.0,53.0,52.0,50.0,50.0,51.0,52.0,51.0,51.0,51.0,50.0,52.0,52.0,52.0,53.0,53.0,52.0,52.0,53.0,52.0,52.0,52.0,52.0,53.0,53.0,53.0,53.0,52.0,54.0,54.0,53.0,52.0,52.0,52.0,52.0,53.0,53.0,51.0,51.0,52.0,53.0,53.0,52.0,51.0,50.0,50.0,50.0,51.0,53.0,52.0,54.0,54.0,55.0,54.0,55.0,55.0,55.0,55.0,55.0,55.0,55.0,55.0,55.0,53.0,55.0,57.0,57.0,57.0,56.0,57.0,59.0,58.0,59.0,59.0,59.0,59.0,60.0,61.0,58.0,58.0,57.0,55.0,55.0,53.0,53.0,54.0,52.0,53.0,54.0,55.0,55.0,56.0,57.0,56.0,57.0,57.0,57.0,56.0,56.0,57.0,56.0,55.0,56.0,56.0,57.0,57.0,56.0,56.0,55.0,57.0,56.0,57.0,58.0,56.0,57.0,55.0,57.0,55.0,55.0,54.0,52.0,52.0,52.0,51.0,52.0,51.0,51.0,51.0,51.0,50.0,50.0,52.0,50.0,51.0,51.0,49.0,51.0,50.0,52.0,51.0,51.0,51.0,50.0,52.0,52.0,50.0,51.0,50.0,48.0,48.0,48.0,48.0,48.0,50.0,51.0,51.0,51.0,49.0,51.0,50.0,50.0,49.0,49.0,50.0,49.0,49.0,48.0,48.0,47.0,47.0,46.0,47.0,54.0,57.0,54.0,54.0,52.0,54.0,56.0,58.0,67.0,86.0,95.0,105.0,101.0,105.0,124.0,169.0,172.0,176.0,187.0,181.0,174.0,161.0,172.0,159.0,149.0,138.0,126.0,121.0,118.0,109.0,105.0,102.0,98.0,93.0,86.0,89.0,85.0,83.0,79.0,79.0,76.0,75.0,72.0,68.0,65.0,65.0,63.0,68.0,65.0,62.0,63.0,61.0,63.0,60.0,59.0,60.0,62.0,61.0,61.0,62.0,60.0,60.0,62.0,64.0,64.0,63.0,61.0,59.0,60.0,60.0,60.0,58.0,62.0,61.0,60.0,57.0,56.0,54.0,51.0,53.0,55.0,55.0,59.0,59.0,61.0,59.0,58.0,57.0,54.0,53.0,52.0,55.0,54.0,56.0,56.0,57.0,57.0,55.0,55.0,58.0,57.0,56.0,53.0,53.0,52.0,50.0,50.0,51.0,51.0,55.0,58.0,56.0,54.0,53.0,52.0,54.0,54.0,51.0,56.0,56.0,57.0,55.0,54.0,55.0,60.0,59.0,58.0,56.0,54.0,53.0,53.0,52.0,51.0,52.0,55.0,58.0,57.0,55.0,54.0,53.0,54.0,54.0,57.0,58.0,56.0,56.0,53.0,53.0,52.0,49.0,49.0,48.0,48.0,47.0,47.0,46.0,45.0,47.0,50.0,51.0,52.0,51.0,51.0,49.0,48.0,47.0,49.0,50.0,49.0,49.0,49.0,50.0,49.0,49.0,49.0,49.0,53.0,53.0,52.0,52.0,51.0,50.0,50.0,49.0,53.0,54.0,52.0,52.0,51.0,51.0,51.0,52.0,52.0,50.0,56.0,54.0,54.0,55.0,52.0,54.0,50.0,52.0,51.0,51.0,52.0,55.0,56.0,54.0,54.0,53.0,53.0,52.0,51.0,56.0,57.0,57.0,55.0,55.0,55.0,55.0,56.0,57.0,62.0,62.0,61.0,63.0,62.0,62.0,61.0,60.0,58.0,60.0,61.0,61.0,58.0,57.0,59.0,56.0,58.0,55.0,54.0,57.0,57.0,58.0,56.0,56.0,55.0,53.0,54.0,52.0,53.0,53.0,55.0,54.0,54.0,55.0,54.0,54.0,56.0,56.0,56.0,56.0,57.0,56.0,55.0,55.0,54.0,54.0,56.0,54.0,53.0,56.0,57.0,58.0,57.0,59.0,59.0,60.0,60.0,60.0,66.0,66.0,65.0,65.0,64.0,64.0,62.0,65.0,65.0,64.0,63.0,63.0,63.0,64.0,65.0,64.0,61.0,62.0,61.0,59.0,60.0,59.0,58.0,55.0,55.0,54.0,56.0,57.0,55.0,56.0,58.0,58.0,55.0,55.0,55.0,53.0,52.0,51.0,54.0,53.0,51.0,50.0,50.0,49.0,50.0,48.0,47.0,51.0,58.0,56.0,53.0,53.0,54.0,52.0,52.0,51.0,52.0,60.0,61.0,60.0,58.0,56.0,57.0,56.0,53.0,53.0,57.0,56.0,55.0,56.0,56.0,55.0,53.0,52.0,51.0,52.0,56.0,56.0,56.0,58.0,59.0,61.0,59.0,59.0,58.0,59.0,56.0,59.0,59.0,57.0,58.0,56.0,55.0,56.0,53.0,55.0,54.0,55.0,55.0,53.0,53.0,54.0,53.0,52.0,50.0,51.0,51.0,51.0,50.0,49.0,51.0,54.0,56.0,56.0,59.0,59.0,58.0,59.0,59.0,55.0,55.0,54.0,54.0,63.0,63.0,85.0,106.0,108.0,112.0,105.0,101.0,101.0,101.0,96.0,93.0,94.0,91.0,91.0,93.0,91.0,86.0,84.0,82.0,85.0,85.0,83.0,79.0,80.0,77.0,80.0,80.0,75.0,75.0,74.0,73.0,72.0,71.0,69.0,68.0,69.0,69.0,68.0,66.0,66.0,68.0,67.0,67.0,67.0,69.0,68.0,70.0,70.0,70.0,69.0,69.0,68.0,67.0,66.0,66.0,68.0,67.0,67.0,65.0,67.0,65.0,63.0,64.0,65.0,65.0,66.0,64.0,64.0,64.0,64.0,65.0,63.0,62.0,61.0,59.0,60.0,59.0,60.0,59.0,59.0,59.0,59.0,58.0,56.0,57.0,57.0,57.0,58.0,57.0,60.0,60.0,60.0,63.0,61.0,64.0,63.0,63.0,62.0,62.0,63.0,62.0,63.0,63.0,61.0,62.0,62.0,62.0,64.0,63.0,63.0,63.0,63.0,60.0,63.0,63.0,64.0,63.0,61.0,63.0,62.0,61.0,61.0,61.0,61.0,61.0,61.0,62.0,62.0,63.0,62.0,62.0,61.0,61.0,61.0,60.0,59.0,59.0,59.0,59.0,57.0,59.0,57.0,56.0,58.0,57.0,58.0,57.0,57.0,59.0,58.0,59.0,57.0,58.0,56.0,56.0,57.0,56.0,54.0,54.0,56.0,56.0,57.0,57.0,56.0,54.0,54.0
49.0,50.0,50.0,50.0,47.0,47.0,45.0,47.0,46.0,46.0,46.0,46.0,46.0,48.0,49.0,49.0,50.0,50.0,50.0,51.0,52.0,52.0,52.0,51.0,50.0,50.0,48.0,52.0,53.0,56.0,55.0,54.0,54.0,55.0,55.0,55.0,57.0,59.0,58.0,60.0,61.0,59.0,61.0,62.0,64.0,62.0,63.0,63.0,62.0,62.0,63.0,63.0,63.0,62.0,63.0,61.0,61.0,62.0,60.0,60.0,59.0,59.0,58.0,57.0,56.0,58.0,58.0,55.0,54.0,52.0,51.0,50.0,50.0,50.0,49.0,50.0,49.0,49.0,48.0,47.0,48.0,51.0,50.0,49.0,47.0,46.0,45.0,44.0,46.0,46.0,46.0,46.0,45.0,45.0,46.0,45.0,46.0,47.0,48.0,47.0,47.0,45.0,45.0,46.0,46.0,48.0,48.0,47.0,49.0,49.0,49.0,49.0,48.0,50.0,48.0,50.0,50.0,47.0,49.0,48.0,49.0,48.0,47.0,47.0,48.0,47.0,45.0,46.0,46.0,45.0,44.0,43.0,43.0,43.0,42.0,45.0,46.0,46.0,46.0,45.0,44.0,46.0,46.0,46.0,43.0,46.0,44.0,47.0,46.0,46.0,45.0,45.0,45.0,47.0,47.0,48.0,46.0,45.0,43.0,41.0,41.0,41.0,44.0,43.0,42.0,42.0,43.0,42.0,43.0,45.0,46.0,44.0,44.0,42.0,42.0,41.0,42.0,45.0,45.0,43.0,43.0,42.0,41.0,39.0,41.0,42.0,44.0,43.0,43.0,43.0,41.0,42.0,42.0,42.0,41.0,41.0,44.0,42.0,41.0,43.0,42.0,45.0,43.0,43.0,43.0,43.0,43.0,42.0,43.0,41.0,44.0,44.0,44.0,43.0,42.0,42.0,41.0,41.0,41.0,42.0,41.0,42.0,40.0,40.0,40.0,39.0,39.0,39.0,39.0,38.0,42.0,41.0,40.0,42.0,41.0,43.0,42.0,44.0,44.0,42.0,42.0,42.0,44.0,44.0,42.0,42.0,44.0,43.0,43.0,41.0,43.0,42.0,41.0,41.0,40.0,40.0,40.0,44.0,44.0,43.0,43.0,42.0,41.0,41.0,41.0,43.0,40.0,42.0,43.0,43.0,43.0,41.0,42.0,41.0,40.0,41.0,41.0,41.0,41.0,41.0,42.0,42.0,41.0,41.0,41.0,41.0,40.0,40.0,40.0,39.0,39.0,41.0,44.0,43.0,44.0,45.0,44.0,43.0,43.0,43.0,42.0,43.0,45.0,44.0,44.0,42.0,41.0,40.0,39.0,40.0,40.0,41.0,40.0,42.0,44.0,44.0,44.0,44.0,42.0,42.0,43.0,46.0,47.0,45.0,45.0,43.0,43.0,42.0,41.0,41.0,40.0,40.0,42.0,41.0,41.0,40.0,40.0,39.0,40.0,39.0,38.0,38.0,39.0,41.0,40.0,40.0,40.0,38.0,39.0,40.0,41.0,40.0,43.0,42.0,40.0,41.0,41.0,41.0,41.0,41.0,41.0,40.0,38.0,39.0,41.0,40.0,40.0,40.0,41.0,40.0,40.0,40.0,43.0,43.0,41.0,43.0,41.0,40.0,39.0,38.0,38.0,39.0,39.0,40.0,40.0,40.0,41.0,41.0,41.0,41.0,44.0,43.0,42.0,43.0,43.0,43.0,46.0,45.0,43.0,44.0,43.0,43.0,42.0,41.0,42.0,42.0,39.0,41.0,40.0,39.0,43.0,41.0,42.0,41.0,39.0,40.0,39.0,40.0,40.0,41.0,40.0,39.0,39.0,40.0,40.0,43.0,56.0,63.0,64.0,63.0,59.0,56.0,54.0,52.0,53.0,54.0,52.0,51.0,55.0,62.0,64.0,73.0,74.0,68.0,76.0,86.0,90.0,106.0,106.0,125.0,128.0,141.0,144.0,137.0,138.0,138.0,132.0,129.0,123.0,127.0,127.0,129.0,129.0,132.0,133.0,138.0,138.0,139.0,135.0,136.0,132.0,135.0,132.0,132.0,133.0,134.0,136.0,138.0,136.0,136.0,135.0,135.0,132.0,130.0,129.0,127.0,125.0,123.0,124.0,123.0,120.0,117.0,116.0,116.0,113.0,111.0,109.0,109.0,107.0,107.0,106.0,104.0,106.0,103.0,102.0,101.0,101.0,101.0,102.0,102.0,103.0,101.0,102.0,102.0,101.0,103.0,100.0,101.0,100.0,100.0,99.0,96.0,97.0,96.0,92.0,92.0,91.0,88.0,86.0,85.0,83.0,81.0,82.0,82.0,80.0,82.0,84.0,87.0,86.0,88.0,86.0,85.0,83.0,81.0,79.0,81.0,77.0,76.0,75.0,76.0,72.0,71.0,70.0,67.0,66.0,64.0,60.0,59.0,56.0,55.0,55.0,53.0,52.0,51.0,52.0,52.0,54.0,55.0,56.0,56.0,58.0,56.0,59.0,57.0,59.0,58.0,57.0,59.0,59.0,59.0,59.0,59.0,59.0,58.0,59.0,59.0,60.0,59.0,59.0,59.0,58.0,57.0,58.0,58.0,58.0,60.0,61.0,58.0,59.0,59.0,58.0,57.0,56.0,58.0,56.0,55.0,56.0,55.0,54.0,53.0,54.0,54.0,54.0,54.0,55.0,55.0,57.0,58.0,57.0,56.0,56.0,56.0,56.0,58.0,56.0,58.0,58.0,55.0,55.0,57.0,57.0,57.0,57.0,56.0,54.0,54.0,53.0,52.0,52.0,50.0,50.0,50.0,51.0,50.0,49.0,47.0,47.0,47.0,45.0,45.0,44.0,46.0,46.0,45.0,45.0,45.0,44.0,44.0,43.0,42.0,43.0,44.0,44.0,41.0,42.0,41.0,41.0,41.0,40.0,42.0,40.0,42.0,42.0,40.0,40.0,40.0,39.0,39.0,39.0,41.0,39.0,40.0,39.0,37.0,38.0,38.0,38.0,39.0,40.0,39.0,38.0,38.0,38.0,38.0,37.0,37.0,38.0,37.0,40.0,41.0,40.0,41.0,41.0,41.0,41.0,43.0,45.0,45.0,44.0,43.0,43.0,44.0,44.0,45.0,45.0,43.0,42.0,42.0,43.0,41.0,42.0,41.0,42.0,44.0,43.0,43.0,43.0,44.0,45.0,42.0,44.0,43.0,42.0,43.0,43.0,45.0,45.0,44.0,44.0,43.0,45.0,45.0,43.0,43.0,42.0,43.0,43.0,42.0,42.0,41.0,41.0,40.0,42.0,43.0,43.0,44.0,44.0,46.0,46.0,44.0,44.0,43.0,41.0,40.0,40.0,41.0,39.0,41.0,40.0,41.0,40.0,40.0,41.0,40.0,38.0,39.0,39.0,38.0,38.0,41.0,41.0,40.0,40.0,39.0,39.0,39.0,40.0,42.0,39.0,40.0,40.0,40.0,42.0,41.0,44.0,42.0,43.0,42.0,40.0,40.0,38.0,39.0,39.0,39.0,40.0,40.0,41.0,42.0,42.0,42.0,41.0,43.0,43.0,42.0,42.0,41.0,41.0,42.0,40.0,41.0,40.0,41.0,41.0,41.0,41.0,39.0,39.0,40.0,40.0,39.0,37.0,39.0,45.0,50.0,56.0,64.0,80.0,80.0,82.0,80.0,80.0,80.0,81.0,79.0,78.0,78.0,74.0,78.0,78.0,74.0,72.0,69.0,68.0,73.0,73.0,68.0,65.0,63.0,62.0,64.0,62.0,62.0,60.0,58.0,58.0,58.0,58.0,59.0,63.0,60.0,59.0,59.0,61.0,60.0,61.0,63.0,60.0,60.0,60.0,65.0,63.0,63.0,63.0,62.0,58.0,60.0,61.0,62.0,62.0,61.0,60.0,58.0,59.0,58.0,58.0,58.0,56.0,55.0,54.0,53.0,53.0,55.0,54.0,51.0,54.0,54.0,53.0,53.0,52.0,50.0,51.0,49.0,49.0,48.0,47.0,46.0,45.0,47.0,45.0,45.0,43.0,43.0,43.0,42.0,41.0,44.0,45.0,45.0,43.0,45.0,44.0,45.0,44.0,45.0,45.0,46.0,44.0,44.0,44.0,44.0,42.0,43.0,42.0,43.0,43.0,45.0,48.0,45.0,48.0,47.0,47.0,48.0,49.0,50.0,49.0,49.0,50.0,49.0,48.0,49.0,48.0,46.0,45.0,47.0,46.0,46.0,45.0,45.0,45.0,44.0,44.0,44.0,42.0,42.0,40.0,40.0,40.0,39.0,40.0,40.0,42.0,41.0,42.0,44.0,43.0,44.0,43.0,42.0,42.0,40.0,43.0,41.0,42.0,42.0,42.0,42.0,42.0,40.0,40.0,40.0
19.0,23.0,25.0,26.0,24.0,22.0,25.0,35.0,32.0,31.0,28.0,27.0,27.0,34.0,33.0,31.0,30.0,32.0,31.0,34.0,43.0,39.0,34.0,30.0,28.0,30.0,29.0,46.0,42.0,37.0,35.0,31.0,32.0,33.0,30.0,39.0,35.0,31.0,30.0,28.0,27.0,29.0,44.0,39.0,35.0,34.0,30.0,26.0,34.0,30.0,34.0,31.0,31.0,28.0,25.0,31.0,34.0,30.0,30.0,26.0,26.0,23.0,21.0,24.0,22.0,40.0,45.0,39.0,36.0,32.0,29.0,30.0,25.0,33.0,35.0,34.0,31.0,30.0,26.0,28.0,30.0,35.0,37.0,33.0,33.0,36.0,35.0,31.0,38.0,37.0,35.0,32.0,30.0,30.0,28.0,28.0,35.0,34.0,31.0,30.0,28.0,25.0,24.0,23.0,34.0,33.0,33.0,34.0,30.0,25.0,23.0,24.0,39.0,40.0,37.0,34.0,30.0,28.0,31.0,31.0,33.0,29.0,28.0,27.0,26.0,24.0,25.0,37.0,33.0,33.0,28.0,26.0,24.0,30.0,29.0,37.0,35.0,42.0,37.0,34.0,31.0,28.0,27.0,36.0,37.0,32.0,30.0,29.0,27.0,25.0,23.0,24.0,24.0,26.0,23.0,22.0,21.0,17.0,19.0,16.0,15.0,23.0,40.0,40.0,36.0,33.0,31.0,26.0,25.0,28.0,26.0,31.0,33.0,32.0,30.0,25.0,23.0,33.0,34.0,33.0,32.0,28.0,25.0,22.0,23.0,22.0,27.0,25.0,27.0,28.0,33.0,30.0,27.0,34.0,32.0,29.0,34.0,33.0,32.0,27.0,29.0,46.0,41.0,38.0,35.0,33.0,30.0,27.0,26.0,23.0,24.0,22.0,21.0,21.0,22.0,26.0,24.0,22.0,24.0,26.0,28.0,26.0,27.0,24.0,35.0,36.0,33.0,29.0,25.0,23.0,29.0,28.0,26.0,22.0,27.0,27.0,24.0,29.0,25.0,23.0,20.0,18.0,20.0,18.0,17.0,17.0,27.0,31.0,28.0,25.0,24.0,23.0,24.0,22.0,23.0,20.0,21.0,31.0,31.0,32.0,28.0,24.0,22.0,20.0,18.0,19.0,18.0,16.0,23.0,28.0,26.0,22.0,21.0,19.0,20.0,18.0,18.0,18.0,16.0,15.0,27.0,25.0,25.0,27.0,24.0,21.0,19.0,17.0,18.0,17.0,17.0,20.0,28.0,29.0,31.0,30.0,27.0,25.0,24.0,19.0,20.0,20.0,30.0,35.0,32.0,31.0,27.0,26.0,23.0,21.0,19.0,17.0,17.0,21.0,27.0,36.0,33.0,31.0,29.0,26.0,26.0,36.0,37.0,34.0,30.0,29.0,25.0,25.0,22.0,20.0,20.0,19.0,31.0,33.0,29.0,27.0,23.0,24.0,21.0,20.0,19.0,17.0,23.0,20.0,19.0,16.0,15.0,13.0,19.0,21.0,20.0,18.0,27.0,24.0,23.0,27.0,28.0,26.0,22.0,19.0,19.0,17.0,16.0,14.0,24.0,23.0,23.0,25.0,35.0,34.0,30.0,28.0,38.0,36.0,32.0,35.0,31.0,31.0,25.0,24.0,20.0,22.0,26.0,23.0,29.0,28.0,27.0,25.0,22.0,25.0,25.0,25.0,22.0,20.0,26.0,23.0,32.0,31.0,27.0,26.0,23.0,27.0,27.0,24.0,22.0,19.0,17.0,15.0,15.0,15.0,30.0,26.0,23.0,21.0,18.0,15.0,15.0,15.0,14.0,14.0,15.0,17.0,15.0,17.0,16.0,14.0,14.0,11.0,11.0,11.0,10.0,10.0,9.0,8.0,7.0,7.0,6.0,6.0,7.0,6.0,9.0,9.0,8.0,8.0,9.0,14.0,14.0,31.0,35.0,37.0,33.0,38.0,45.0,40.0,38.0,35.0,31.0,28.0,29.0,29.0,30.0,27.0,24.0,21.0,19.0,18.0,21.0,20.0,20.0,18.0,16.0,15.0,14.0,11.0,11.0,10.0,9.0,10.0,9.0,8.0,8.0,8.0,8.0,8.0,13.0,25.0,22.0,20.0,17.0,17.0,14.0,13.0,12.0,11.0,11.0,9.0,9.0,8.0,7.0,6.0,7.0,7.0,7.0,8.0,11.0,9.0,10.0,10.0,9.0,8.0,8.0,9.0,7.0,6.0,11.0,9.0,8.0,7.0,9.0,9.0,8.0,8.0,9.0,12.0,11.0,9.0,10.0,8.0,9.0,8.0,7.0,7.0,7.0,10.0,8.0,8.0,8.0,7.0,6.0,8.0,10.0,10.0,8.0,9.0,7.0,19.0,17.0,15.0,15.0,12.0,11.0,10.0,9.0,11.0,12.0,13.0,11.0,10.0,10.0,9.0,8.0,8.0,8.0,8.0,6.0,6.0,6.0,6.0,7.0,6.0,5.0,6.0,7.0,8.0,8.0,7.0,8.0,8.0,9.0,9.0,8.0,7.0,7.0,5.0,6.0,6.0,6.0,7.0,6.0,6.0,6.0,5.0,6.0,7.0,7.0,7.0,7.0,6.0,5.0,6.0,5.0,5.0,5.0,5.0,6.0,5.0,6.0,6.0,4.0,5.0,5.0,5.0,5.0,5.0,7.0,6.0,5.0,5.0,5.0,7.0,6.0,6.0,7.0,7.0,6.0,6.0,6.0,5.0,5.0,5.0,6.0,6.0,6.0,8.0,8.0,8.0,9.0,12.0,12.0,11.0,10.0,9.0,11.0,9.0,9.0,8.0,7.0,7.0,7.0,8.0,8.0,11.0,12.0,12.0,11.0,10.0,9.0,9.0,11.0,8.0,8.0,8.0,8.0,7.0,5.0,7.0,6.0,6.0,5.0,5.0,5.0,5.0,5.0,4.0,4.0,5.0,4.0,4.0,4.0,4.0,4.0,5.0,5.0,5.0,3.0,5.0,4.0,8.0,8.0,7.0,6.0,6.0,6.0,5.0,7.0,15.0,14.0,13.0,13.0,13.0,12.0,9.0,11.0,8.0,14.0,15.0,14.0,13.0,12.0,13.0,13.0,12.0,12.0,17.0,17.0,15.0,13.0,13.0,14.0,14.0,17.0,16.0,14.0,15.0,15.0,16.0,15.0,13.0,11.0,11.0,10.0,9.0,12.0,11.0,12.0,11.0,11.0,10.0,9.0,11.0,10.0,10.0,9.0,8.0,8.0,8.0,8.0,7.0,6.0,6.0,6.0,6.0,5.0,6.0,9.0,7.0,7.0,7.0,6.0,7.0,14.0,14.0,13.0,12.0,10.0,10.0,9.0,8.0,13.0,12.0,16.0,19.0,17.0,15.0,13.0,12.0,12.0,12.0,11.0,12.0,11.0,12.0,9.0,10.0,9.0,10.0,9.0,18.0,16.0,15.0,14.0,13.0,12.0,12.0,11.0,10.0,9.0,9.0,8.0,6.0,8.0,7.0,6.0,8.0,7.0,7.0,6.0,8.0,8.0,8.0,7.0,7.0,8.0,6.0,6.0,6.0,6.0,5.0,5.0,7.0,7.0,6.0,9.0,9.0,8.0,7.0,7.0,8.0,8.0,6.0,6.0,10.0,28.0,56.0,87.0,153.0,242.0,233.0,221.0,211.0,210.0,212.0,205.0,193.0,177.0,173.0,153.0,148.0,157.0,145.0,135.0,129.0,132.0,135.0,140.0,128.0,126.0,115.0,108.0,116.0,106.0,101.0,97.0,85.0,76.0,66.0,66.0,63.0,79.0,71.0,62.0,61.0,64.0,59.0,53.0,51.0,51.0,45.0,41.0,64.0,62.0,60.0,53.0,55.0,49.0,45.0,41.0,48.0,46.0,45.0,40.0,36.0,31.0,32.0,30.0,29.0,33.0,31.0,28.0,26.0,25.0,26.0,22.0,22.0,29.0,27.0,25.0,25.0,32.0,30.0,26.0,25.0,24.0,34.0,32.0,29.0,26.0,32.0,29.0,27.0,27.0,25.0,33.0,34.0,28.0,31.0,31.0,27.0,26.0,36.0,33.0,30.0,28.0,25.0,22.0,26.0,23.0,22.0,36.0,32.0,28.0,27.0,30.0,26.0,25.0,24.0,30.0,28.0,28.0,24.0,24.0,21.0,22.0,19.0,18.0,20.0,31.0,38.0,33.0,31.0,28.0,25.0,22.0,19.0,21.0,20.0,17.0,26.0,24.0,23.0,22.0,23.0,21.0,18.0,18.0,18.0,17.0,18.0,19.0,22.0,31.0,28.0,30.0,30.0,27.0,24.0,21.0,20.0,18.0,17.0,26.0,28.0,27.0,23.0,24.0,21.0,21.0,17.0,16.0,16.0
102.0,118.0,118.0,117.0,113.0,116.0,108.0,115.0,116.0,129.0,123.0,116.0,119.0,121.0,117.0,126.0,124.0,118.0,126.0,124.0,125.0,132.0,124.0,122.0,134.0,144.0,134.0,128.0,128.0,119.0,129.0,126.0,123.0,121.0,113.0,109.0,111.0,111.0,110.0,113.0,112.0,111.0,114.0,125.0,122.0,114.0,116.0,107.0,109.0,117.0,117.0,111.0,113.0,118.0,118.0,116.0,111.0,109.0,105.0,99.0,122.0,114.0,114.0,107.0,106.0,137.0,126.0,126.0,122.0,119.0,112.0,120.0,119.0,118.0,123.0,122.0,121.0,115.0,108.0,110.0,121.0,120.0,112.0,114.0,113.0,113.0,113.0,118.0,115.0,114.0,107.0,108.0,111.0,115.0,143.0,133.0,130.0,128.0,121.0,123.0,125.0,116.0,113.0,113.0,107.0,116.0,117.0,116.0,109.0,101.0,97.0,107.0,107.0,106.0,105.0,105.0,101.0,101.0,100.0,94.0,101.0,111.0,110.0,102.0,96.0,94.0,106.0,120.0,117.0,115.0,109.0,103.0,106.0,112.0,114.0,109.0,105.0,99.0,97.0,108.0,102.0,98.0,96.0,96.0,112.0,123.0,117.0,111.0,106.0,103.0,123.0,123.0,123.0,122.0,120.0,123.0,132.0,126.0,115.0,113.0,107.0,107.0,114.0,113.0,114.0,107.0,97.0,91.0,123.0,121.0,112.0,116.0,119.0,109.0,104.0,108.0,115.0,116.0,109.0,103.0,96.0,98.0,96.0,99.0,110.0,112.0,111.0,115.0,135.0,131.0,127.0,126.0,126.0,119.0,114.0,115.0,117.0,107.0,106.0,116.0,115.0,110.0,108.0,112.0,111.0,104.0,102.0,110.0,107.0,110.0,113.0,105.0,98.0,95.0,90.0,109.0,111.0,107.0,103.0,109.0,108.0,109.0,112.0,110.0,121.0,111.0,114.0,110.0,110.0,112.0,115.0,115.0,113.0,110.0,125.0,125.0,119.0,111.0,110.0,107.0,102.0,109.0,109.0,106.0,108.0,105.0,108.0,114.0,115.0,113.0,114.0,111.0,112.0,109.0,111.0,112.0,123.0,122.0,125.0,118.0,113.0,103.0,96.0,113.0,119.0,109.0,102.0,124.0,119.0,108.0,103.0,101.0,115.0,117.0,119.0,125.0,121.0,112.0,103.0,114.0,116.0,120.0,117.0,111.0,127.0,125.0,122.0,116.0,116.0,119.0,113.0,115.0,116.0,111.0,109.0,113.0,109.0,107.0,107.0,115.0,120.0,120.0,113.0,112.0,107.0,110.0,107.0,107.0,105.0,101.0,98.0,118.0,123.0,117.0,112.0,109.0,106.0,101.0,96.0,93.0,95.0,92.0,98.0,100.0,100.0,94.0,103.0,98.0,102.0,102.0,93.0,101.0,99.0,96.0,101.0,99.0,91.0,92.0,95.0,102.0,102.0,104.0,100.0,96.0,93.0,88.0,90.0,99.0,96.0,109.0,110.0,104.0,101.0,106.0,106.0,106.0,100.0,97.0,96.0,95.0,94.0,87.0,87.0,88.0,98.0,113.0,110.0,100.0,102.0,96.0,98.0,97.0,105.0,101.0,101.0,114.0,110.0,112.0,102.0,103.0,118.0,124.0,113.0,110.0,100.0,104.0,101.0,105.0,105.0,101.0,116.0,124.0,119.0,114.0,104.0,126.0,128.0,129.0,118.0,109.0,121.0,128.0,125.0,123.0,118.0,112.0,107.0,99.0,107.0,104.0,108.0,115.0,109.0,100.0,96.0,111.0,114.0,112.0,103.0,100.0,122.0,115.0,121.0,121.0,115.0,111.0,102.0,94.0,86.0,85.0,93.0,97.0,96.0,91.0,85.0,86.0,91.0,87.0,96.0,88.0,85.0,81.0,84.0,90.0,97.0,96.0,95.0,105.0,139.0,130.0,124.0,115.0,120.0,121.0,121.0,120.0,117.0,122.0,119.0,121.0,120.0,122.0,116.0,122.0,118.0,114.0,118.0,140.0,128.0,125.0,117.0,111.0,106.0,117.0,129.0,122.0,121.0,117.0,115.0,116.0,116.0,119.0,121.0,116.0,120.0,119.0,125.0,125.0,118.0,115.0,113.0,122.0,127.0,124.0,114.0,105.0,105.0,108.0,112.0,108.0,105.0,98.0,103.0,110.0,106.0,103.0,107.0,107.0,114.0,118.0,118.0,111.0,114.0,114.0,109.0,108.0,106.0,105.0,101.0,98.0,98.0,95.0,104.0,104.0,99.0,96.0,95.0,101.0,107.0,108.0,118.0,143.0,135.0,124.0,120.0,116.0,112.0,110.0,117.0,106.0,99.0,109.0,108.0,113.0,120.0,132.0,142.0,138.0,129.0,141.0,137.0,127.0,124.0,118.0,110.0,125.0,127.0,130.0,124.0,127.0,127.0,125.0,147.0,138.0,135.0,133.0,127.0,123.0,114.0,127.0,142.0,133.0,123.0,126.0,130.0,130.0,129.0,117.0,107.0,97.0,93.0,92.0,86.0,100.0,116.0,116.0,116.0,179.0,171.0,156.0,162.0,148.0,139.0,127.0,116.0,121.0,118.0,114.0,109.0,103.0,112.0,109.0,111.0,113.0,124.0,120.0,117.0,116.0,121.0,118.0,115.0,108.0,112.0,124.0,121.0,114.0,114.0,127.0,118.0,114.0,111.0,120.0,120.0,121.0,110.0,105.0,106.0,120.0,112.0,115.0,106.0,101.0,107.0,102.0,99.0,95.0,88.0,94.0,93.0,97.0,93.0,93.0,103.0,106.0,104.0,104.0,99.0,101.0,107.0,101.0,101.0,92.0,89.0,96.0,104.0,96.0,94.0,93.0,112.0,119.0,110.0,109.0,99.0,100.0,98.0,89.0,111.0,104.0,111.0,110.0,106.0,107.0,107.0,109.0,104.0,96.0,103.0,96.0,95.0,92.0,87.0,90.0,108.0,108.0,108.0,106.0,108.0,104.0,97.0,94.0,99.0,109.0,110.0,112.0,107.0,101.0,104.0,103.0,99.0,120.0,124.0,119.0,113.0,130.0,141.0,149.0,155.0,153.0,158.0,173.0,179.0,205.0,210.0,206.0,194.0,186.0,183.0,174.0,164.0,152.0,161.0,154.0,155.0,153.0,169.0,156.0,141.0,139.0,131.0,156.0,149.0,144.0,142.0,173.0,164.0,164.0,173.0,173.0,160.0,155.0,146.0,160.0,157.0,141.0,132.0,126.0,142.0,157.0,144.0,140.0,132.0,122.0,121.0,119.0,122.0,111.0,117.0,123.0,124.0,124.0,132.0,129.0,131.0,128.0,125.0,127.0,119.0,123.0,119.0,147.0,168.0,157.0,150.0,132.0,124.0,147.0,147.0,137.0,128.0,137.0,142.0,150.0,138.0,128.0,130.0,126.0,135.0,124.0,122.0,132.0,135.0,124.0,128.0,131.0,132.0,126.0,126.0,122.0,120.0,115.0,104.0,102.0,100.0,108.0,113.0,124.0,122.0,121.0,143.0,139.0,137.0,127.0,123.0,154.0,154.0,145.0,140.0,128.0,122.0,122.0,144.0,134.0,123.0,116.0,114.0,118.0,115.0,120.0,138.0,130.0,123.0,123.0,135.0,142.0,172.0,188.0,268.0,253.0,258.0,248.0,269.0,258.0,274.0,266.0,263.0,249.0,245.0,259.0,271.0,270.0,263.0,252.0,263.0,262.0,284.0,264.0,246.0,237.0,244.0,259.0,241.0,228.0,241.0,243.0,229.0,231.0,221.0,227.0,217.0,207.0,195.0,185.0,184.0,182.0,184.0,181.0,171.0,168.0,178.0,183.0,179.0,165.0,155.0,164.0,163.0,152.0,137.0,140.0,141.0,151.0,142.0,142.0,133.0,130.0,130.0,145.0,143.0,136.0,125.0,125.0,128.0,130.0,127.0,121.0,126.0,142.0,139.0,135.0,141.0,138.0,132.0,129.0,135.0,139.0,132.0,128.0,139.0,149.0,137.0,136.0,128.0,131.0,132.0,141.0,137.0,129.0,148.0,140.0,151.0,144.0,138.0,134.0,128.0,135.0,123.0,132.0,127.0,125.0,126.0,122.0,117.0,114.0,106.0,109.0,109.0,121.0,135.0,124.0,117.0,110.0,112.0,107.0,111.0,108.0,107.0,103.0,110.0,108.0,105.0,100.0,108.0,107.0,100.0,98.0,101.0,112.0,110.0,106.0,115.0,114.0,116.0,115.0,112.0,117.0,110.0,109.0,106.0,98.0,104.0,107.0,102.0,113.0,118.0,115.0,117.0,120.0,122.0,122.0,121.0,120.0,115.0,108.0,111.0,104.0,111.0,115.0,117.0,117.0,122.0,125.0
