57.0,57.0,58.0,58.0,58.0,57.0,57.0,57.0,57.0,57.0,57.0,58.0,57.0,55.0,55.0,55.0,56.0,56.0,58.0,58.0,57.0,58.0,57.0,59.0,58.0,58.0,59.0,60.0,61.0,60.0,61.0,62.0,63.0,62.0,62.0,61.0,62.0,60.0,60.0,60.0,58.0,58.0,56.0,56.0,54.0,53.0,53.0,54.0,52.0,53.0,54.0,55.0,57.0,57.0,58.0,57.0,58.0,58.0,57.0,57.0,58.0,60.0,61.0,63.0,62.0,64.0,64.0,62.0,65.0,62.0,62.0,64.0,64.0,66.0,66.0,65.0,64.0,64.0,65.0,63.0,64.0,63.0,64.0,63.0,65.0,66.0,68.0,68.0,68.0,68.0,68.0,68.0,66.0,66.0,67.0,67.0,67.0,66.0,66.0,66.0,67.0,66.0,66.0,66.0,67.0,66.0,66.0,66.0,66.0,65.0,67.0,67.0,68.0,68.0,68.0,69.0,71.0,71.0,74.0,74.0,75.0,72.0,73.0,70.0,69.0,68.0,69.0,68.0,66.0,66.0,66.0,66.0,66.0,65.0,65.0,64.0,63.0,64.0,65.0,63.0,63.0,64.0,63.0,62.0,62.0,61.0,62.0,60.0,60.0,61.0,59.0,60.0,60.0,61.0,61.0,61.0,62.0,62.0,63.0,65.0,64.0,62.0,63.0,62.0,68.0,66.0,70.0,71.0,84.0,86.0,93.0,106.0,118.0,138.0,141.0,169.0,189.0,175.0,167.0,186.0,199.0,212.0,206.0,201.0,205.0,193.0,176.0,158.0,148.0,157.0,151.0,145.0,136.0,125.0,118.0,110.0,109.0,103.0,96.0,89.0,88.0,88.0,92.0,97.0,95.0,94.0,90.0,86.0,85.0,85.0,86.0,86.0,81.0,82.0,87.0,89.0,86.0,83.0,83.0,79.0,79.0,78.0,81.0,81.0,87.0,84.0,83.0,82.0,83.0,84.0,82.0,78.0,74.0,73.0,73.0,74.0,72.0,79.0,75.0,78.0,74.0,72.0,72.0,71.0,71.0,68.0,70.0,70.0,70.0,67.0,74.0,72.0,72.0,70.0,70.0,72.0,74.0,75.0,73.0,73.0,70.0,71.0,73.0,72.0,71.0,69.0,68.0,66.0,67.0,64.0,64.0,67.0,65.0,65.0,63.0,62.0,62.0,60.0,62.0,61.0,60.0,61.0,63.0,61.0,62.0,63.0,66.0,65.0,70.0,72.0,72.0,69.0,67.0,65.0,64.0,69.0,66.0,63.0,65.0,66.0,64.0,65.0,63.0,66.0,64.0,61.0,62.0,59.0,59.0,60.0,63.0,62.0,63.0,65.0,63.0,60.0,63.0,64.0,68.0,66.0,65.0,64.0,62.0,62.0,60.0,59.0,56.0,59.0,63.0,63.0,63.0,61.0,60.0,58.0,57.0,58.0,55.0,55.0,53.0,53.0,53.0,51.0,57.0,58.0,59.0,59.0,59.0,59.0,60.0,60.0,59.0,62.0,60.0,60.0,59.0,57.0,56.0,58.0,57.0,58.0,57.0,59.0,57.0,55.0,54.0,54.0,62.0,64.0,61.0,70.0,72.0,72.0,76.0,80.0,78.0,77.0,81.0,79.0,76.0,76.0,77.0,74.0,72.0,70.0,68.0,64.0,66.0,65.0,69.0,70.0,69.0,75.0,72.0,70.0,73.0,73.0,72.0,68.0,70.0,70.0,68.0,68.0,66.0,69.0,68.0,69.0,71.0,66.0,65.0,63.0,62.0,62.0,66.0,71.0,68.0,65.0,64.0,62.0,62.0,63.0,69.0,74.0,74.0,70.0,68.0,67.0,64.0,67.0,67.0,66.0,69.0,68.0,69.0,69.0,68.0,75.0,72.0,71.0,71.0,73.0,71.0,73.0,74.0,71.0,68.0,66.0,66.0,65.0,65.0,67.0,68.0,64.0,63.0,66.0,64.0,61.0,61.0,63.0,64.0,63.0,61.0,67.0,67.0,68.0,67.0,68.0,68.0,66.0,69.0,69.0,72.0,70.0,69.0,68.0,67.0,64.0,65.0,67.0,67.0,67.0,64.0,64.0,63.0,63.0,61.0,59.0,61.0,59.0,58.0,58.0,58.0,58.0,59.0,61.0,62.0,62.0,62.0,68.0,68.0,67.0,69.0,71.0,66.0,67.0,65.0,72.0,70.0,69.0,71.0,70.0,68.0,69.0,72.0,72.0,69.0,69.0,69.0,69.0,70.0,74.0,70.0,71.0,69.0,67.0,68.0,69.0,72.0,72.0,74.0,73.0,71.0,69.0,70.0,68.0,67.0,67.0,69.0,73.0,74.0,72.0,74.0,72.0,75.0,77.0,77.0,75.0,73.0,73.0,70.0,70.0,67.0,69.0,69.0,70.0,70.0,69.0,67.0,66.0,64.0,65.0,68.0,70.0,70.0,75.0,76.0,76.0,76.0,78.0,78.0,78.0,78.0,78.0,80.0,79.0,78.0,77.0,76.0,75.0,71.0,67.0,76.0,76.0,76.0,87.0,86.0,91.0,94.0,94.0,92.0,95.0,96.0,95.0,115.0,124.0,127.0,125.0,120.0,120.0,118.0,120.0,114.0,114.0,111.0,111.0,111.0,108.0,107.0,107.0,105.0,105.0,104.0,106.0,103.0,102.0,101.0,102.0,101.0,98.0,98.0,95.0,94.0,97.0,95.0,93.0,94.0,92.0,90.0,88.0,89.0,88.0,87.0,85.0,84.0,85.0,84.0,85.0,82.0,82.0,80.0,79.0,78.0,78.0,78.0,76.0,75.0,75.0,73.0,70.0,71.0,70.0,69.0,67.0,67.0,66.0,64.0,66.0,64.0,63.0,62.0,61.0,63.0,61.0,62.0,61.0,60.0,61.0,61.0,62.0,60.0,60.0,61.0,60.0,59.0,59.0,59.0,59.0,58.0,59.0,56.0,56.0,55.0,55.0,55.0,53.0,54.0,54.0,54.0,55.0,56.0,55.0,55.0,55.0,54.0,54.0,55.0,56.0,55.0,56.0,55.0,55.0,54.0,56.0,57.0,57.0,56.0,57.0,58.0,58.0,58.0,58.0,57.0,57.0,58.0,57.0,58.0,58.0,59.0,58.0,56.0,56.0,57.0,57.0,56.0,57.0,59.0,59.0,58.0,58.0,57.0,57.0,56.0,57.0,58.0,57.0,57.0,59.0,60.0,58.0,60.0,60.0,60.0,62.0,61.0,60.0,62.0,63.0,63.0,64.0,64.0,63.0,64.0,62.0,64.0,65.0,65.0,64.0,64.0,62.0,64.0,62.0,62.0,61.0,62.0,62.0,61.0,61.0,59.0,57.0,57.0,57.0,55.0,56.0,56.0,54.0,54.0,54.0,55.0,56.0,56.0,56.0,58.0,58.0,59.0,61.0,59.0,62.0,60.0,63.0,62.0,63.0,64.0,64.0,65.0,64.0,62.0,63.0,61.0,61.0,62.0,62.0,62.0,61.0,63.0,62.0,62.0,63.0,63.0,62.0,61.0,63.0,60.0,60.0,60.0,62.0,60.0,60.0,60.0,58.0,57.0,59.0,56.0,58.0,60.0,60.0,60.0,59.0,61.0,61.0,62.0,63.0,61.0,63.0,62.0,62.0,62.0,61.0,61.0,61.0,62.0,62.0,62.0,62.0,60.0,61.0,60.0,61.0,63.0,60.0,61.0,63.0,63.0,62.0,61.0,63.0,62.0,65.0,65.0,66.0,65.0,65.0,67.0,68.0,67.0,66.0,67.0,66.0,65.0,65.0,67.0,64.0,63.0,64.0,63.0,63.0,63.0,62.0,60.0,61.0,61.0,62.0,62.0,61.0,62.0,63.0,63.0,65.0,66.0,66.0,67.0,67.0,67.0,67.0,67.0,67.0,67.0,69.0,69.0,71.0,70.0,69.0,67.0,67.0,68.0,68.0,68.0,67.0,66.0,66.0,65.0,65.0,64.0,64.0,64.0,64.0,66.0,63.0,64.0,65.0,64.0,65.0,64.0,62.0,63.0,62.0,63.0,61.0,63.0,63.0,63.0,64.0,65.0,65.0,64.0,64.0,63.0,63.0,64.0,62.0,64.0,66.0,63.0,64.0,63.0,62.0,64.0,64.0,64.0,62.0,61.0,63.0,62.0,61.0,62.0,62.0,61.0,62.0,63.0,62.0,62.0,60.0,60.0,62.0,61.0,62.0,60.0,60.0,61.0,60.0,61.0,60.0,60.0,59.0,60.0,58.0,59.0,58.0,58.0,57.0,59.0,56.0,58.0,57.0,57.0,58.0,59.0,57.0,58.0,58.0,56.0,58.0,59.0,59.0,60.0,60.0,58.0,61.0,63.0,63.0,62.0,63.0
42.0,41.0,41.0,41.0,41.0,40.0,42.0,42.0,42.0,42.0,42.0,41.0,40.0,40.0,38.0,38.0,43.0,42.0,43.0,41.0,43.0,42.0,42.0,41.0,41.0,43.0,42.0,42.0,42.0,42.0,42.0,42.0,42.0,41.0,45.0,46.0,44.0,42.0,42.0,41.0,42.0,40.0,41.0,41.0,42.0,43.0,44.0,43.0,45.0,45.0,46.0,45.0,45.0,44.0,43.0,42.0,42.0,43.0,45.0,45.0,44.0,43.0,42.0,41.0,43.0,42.0,44.0,44.0,43.0,46.0,47.0,47.0,49.0,47.0,47.0,48.0,49.0,49.0,49.0,52.0,52.0,53.0,51.0,51.0,51.0,52.0,52.0,53.0,52.0,54.0,53.0,52.0,52.0,51.0,50.0,50.0,50.0,51.0,51.0,50.0,48.0,50.0,48.0,46.0,47.0,47.0,46.0,47.0,48.0,48.0,46.0,46.0,47.0,47.0,47.0,47.0,51.0,50.0,49.0,49.0,49.0,50.0,49.0,50.0,52.0,50.0,49.0,50.0,50.0,49.0,51.0,49.0,48.0,49.0,49.0,49.0,50.0,47.0,47.0,47.0,46.0,45.0,46.0,48.0,47.0,50.0,46.0,48.0,47.0,47.0,48.0,48.0,50.0,50.0,51.0,54.0,53.0,53.0,55.0,55.0,55.0,56.0,55.0,54.0,51.0,53.0,49.0,60.0,60.0,71.0,76.0,77.0,77.0,91.0,103.0,108.0,114.0,109.0,107.0,120.0,129.0,132.0,133.0,142.0,146.0,138.0,139.0,140.0,142.0,140.0,138.0,133.0,128.0,126.0,122.0,118.0,116.0,114.0,112.0,112.0,111.0,106.0,107.0,107.0,107.0,106.0,106.0,104.0,104.0,105.0,100.0,104.0,100.0,97.0,98.0,94.0,90.0,85.0,83.0,80.0,80.0,77.0,78.0,76.0,75.0,71.0,69.0,65.0,66.0,64.0,63.0,63.0,61.0,63.0,62.0,61.0,61.0,61.0,62.0,60.0,59.0,56.0,57.0,55.0,53.0,53.0,55.0,52.0,51.0,50.0,53.0,51.0,50.0,49.0,47.0,49.0,49.0,49.0,50.0,50.0,48.0,48.0,49.0,47.0,48.0,49.0,48.0,48.0,48.0,47.0,47.0,46.0,46.0,45.0,46.0,45.0,45.0,45.0,44.0,44.0,45.0,45.0,49.0,48.0,49.0,48.0,46.0,46.0,44.0,46.0,46.0,45.0,45.0,44.0,46.0,48.0,48.0,47.0,49.0,51.0,50.0,48.0,49.0,48.0,48.0,49.0,49.0,50.0,47.0,49.0,50.0,50.0,51.0,50.0,50.0,48.0,48.0,49.0,50.0,49.0,49.0,49.0,46.0,46.0,45.0,44.0,43.0,45.0,47.0,46.0,45.0,45.0,45.0,44.0,43.0,42.0,43.0,40.0,41.0,43.0,42.0,43.0,45.0,45.0,46.0,48.0,47.0,47.0,49.0,48.0,49.0,50.0,48.0,49.0,49.0,49.0,50.0,50.0,53.0,52.0,51.0,53.0,53.0,51.0,53.0,53.0,54.0,53.0,52.0,57.0,57.0,56.0,55.0,56.0,54.0,51.0,52.0,51.0,51.0,50.0,50.0,50.0,50.0,51.0,49.0,48.0,47.0,50.0,50.0,49.0,47.0,50.0,51.0,51.0,54.0,51.0,50.0,51.0,51.0,50.0,49.0,47.0,47.0,49.0,46.0,45.0,46.0,45.0,44.0,46.0,44.0,45.0,46.0,46.0,46.0,44.0,45.0,44.0,42.0,42.0,42.0,45.0,45.0,45.0,44.0,42.0,42.0,43.0,43.0,43.0,43.0,47.0,44.0,42.0,43.0,45.0,44.0,45.0,45.0,47.0,44.0,47.0,46.0,46.0,45.0,45.0,46.0,45.0,46.0,46.0,48.0,48.0,47.0,49.0,49.0,47.0,47.0,48.0,48.0,47.0,45.0,45.0,44.0,44.0,45.0,47.0,46.0,45.0,48.0,46.0,46.0,47.0,47.0,47.0,47.0,47.0,46.0,46.0,46.0,45.0,44.0,45.0,45.0,44.0,42.0,43.0,44.0,44.0,44.0,45.0,45.0,44.0,46.0,47.0,46.0,47.0,47.0,49.0,48.0,49.0,50.0,51.0,50.0,51.0,51.0,53.0,51.0,50.0,49.0,49.0,47.0,47.0,48.0,44.0,45.0,44.0,43.0,44.0,45.0,47.0,46.0,47.0,48.0,46.0,46.0,45.0,45.0,46.0,47.0,48.0,46.0,44.0,44.0,43.0,43.0,42.0,42.0,43.0,42.0,42.0,43.0,45.0,45.0,45.0,44.0,44.0,44.0,44.0,44.0,45.0,43.0,45.0,46.0,46.0,45.0,45.0,44.0,43.0,42.0,42.0,43.0,44.0,43.0,44.0,43.0,43.0,43.0,47.0,47.0,45.0,45.0,47.0,46.0,46.0,46.0,45.0,44.0,42.0,45.0,50.0,67.0,69.0,75.0,87.0,85.0,93.0,89.0,89.0,92.0,92.0,89.0,89.0,89.0,85.0,86.0,82.0,80.0,77.0,79.0,79.0,78.0,76.0,74.0,71.0,69.0,66.0,67.0,67.0,63.0,62.0,59.0,59.0,59.0,58.0,58.0,57.0,54.0,54.0,52.0,53.0,52.0,51.0,52.0,50.0,50.0,49.0,49.0,49.0,49.0,49.0,48.0,46.0,48.0,50.0,50.0,48.0,49.0,47.0,46.0,45.0,45.0,46.0,46.0,47.0,47.0,46.0,44.0,44.0,45.0,46.0,47.0,47.0,47.0,46.0,45.0,47.0,47.0,47.0,47.0,45.0,44.0,44.0,45.0,43.0,44.0,43.0,45.0,42.0,43.0,43.0,42.0,42.0,41.0,43.0,43.0,42.0,43.0,42.0,43.0,43.0,43.0,42.0,43.0,42.0,42.0,44.0,47.0,45.0,47.0,46.0,45.0,43.0,43.0,44.0,43.0,44.0,42.0,40.0,40.0,43.0,44.0,45.0,45.0,44.0,44.0,45.0,43.0,44.0,44.0,43.0,43.0,41.0,41.0,41.0,42.0,42.0,41.0,41.0,40.0,42.0,41.0,41.0,43.0,44.0,43.0,43.0,41.0,41.0,40.0,41.0,40.0,43.0,42.0,42.0,41.0,40.0,41.0,41.0,40.0,41.0,40.0,42.0,42.0,41.0,41.0,41.0,41.0,44.0,42.0,43.0,43.0,44.0,45.0,45.0,47.0,44.0,44.0,43.0,43.0,42.0,41.0,41.0,42.0,42.0,42.0,41.0,41.0,41.0,40.0,41.0,42.0,43.0,42.0,42.0,42.0,42.0,44.0,42.0,41.0,41.0,41.0,42.0,41.0,41.0,42.0,42.0,42.0,41.0,41.0,42.0,41.0,42.0,39.0,40.0,40.0,41.0,41.0,41.0,44.0,42.0,41.0,40.0,40.0,39.0,39.0,41.0,42.0,41.0,41.0,41.0,41.0,41.0,43.0,42.0,42.0,42.0,41.0,43.0,42.0,42.0,41.0,41.0,42.0,41.0,42.0,41.0,41.0,41.0,41.0,40.0,40.0,40.0,41.0,41.0,41.0,42.0,40.0,41.0,41.0,40.0,41.0,41.0,43.0,42.0,42.0,42.0,41.0,40.0,41.0,41.0,40.0,39.0,40.0,38.0,39.0,41.0,40.0,42.0,42.0,44.0,44.0,44.0,44.0,44.0,44.0,43.0,46.0,44.0,43.0,43.0,41.0,44.0,43.0,42.0,41.0,41.0,42.0,41.0,41.0,41.0,39.0,39.0,39.0,38.0,39.0,37.0,39.0,38.0,38.0,39.0,40.0,39.0,41.0,43.0,42.0,42.0,41.0,41.0,42.0,42.0,43.0,42.0,42.0,42.0,43.0,43.0,43.0,41.0,43.0,42.0,44.0,43.0,42.0,41.0,42.0,44.0,44.0,44.0,44.0,43.0,42.0,43.0,44.0,45.0,44.0,45.0,47.0,46.0,46.0,47.0,46.0,44.0,46.0,45.0,44.0,43.0,43.0,45.0,44.0,42.0,41.0,41.0,41.0,41.0,41.0,40.0,42.0,43.0,42.0,42.0,41.0,41.0,42.0,40.0,41.0,42.0,41.0,41.0,40.0,41.0,41.0,39.0,43.0,41.0,42.0,43.0,42.0,45.0,42.0,43.0,44.0,42.0,43.0,41.0,43.0,41.0,41.0,41.0,43.0,44.0,42.0,43.0,42.0,40.0,41.0,42.0,41.0,40.0,41.0,43.0,40.0,40.0,42.0,42.0,43.0,43.0,44.0,47.0,46.0,45.0
18.0,17.0,16.0,14.0,13.0,12.0,21.0,27.0,24.0,25.0,21.0,18.0,19.0,17.0,15.0,15.0,31.0,31.0,29.0,26.0,26.0,23.0,21.0,18.0,18.0,20.0,26.0,23.0,21.0,24.0,21.0,21.0,23.0,21.0,29.0,30.0,26.0,23.0,23.0,21.0,23.0,21.0,21.0,18.0,17.0,15.0,15.0,14.0,14.0,21.0,26.0,24.0,21.0,19.0,19.0,17.0,17.0,19.0,25.0,28.0,29.0,30.0,26.0,24.0,27.0,27.0,38.0,35.0,32.0,32.0,31.0,28.0,31.0,31.0,27.0,25.0,22.0,20.0,21.0,18.0,22.0,28.0,26.0,26.0,23.0,23.0,20.0,18.0,16.0,26.0,30.0,26.0,23.0,21.0,18.0,17.0,20.0,21.0,28.0,24.0,22.0,22.0,24.0,22.0,24.0,31.0,26.0,29.0,28.0,31.0,32.0,28.0,26.0,22.0,20.0,20.0,27.0,29.0,25.0,24.0,24.0,22.0,20.0,18.0,21.0,18.0,18.0,17.0,14.0,17.0,15.0,16.0,17.0,15.0,15.0,16.0,26.0,23.0,21.0,22.0,23.0,22.0,22.0,32.0,29.0,33.0,29.0,29.0,26.0,23.0,20.0,18.0,17.0,15.0,14.0,14.0,14.0,10.0,15.0,14.0,13.0,12.0,11.0,11.0,9.0,8.0,8.0,11.0,14.0,21.0,21.0,23.0,20.0,21.0,19.0,20.0,22.0,24.0,22.0,24.0,25.0,26.0,25.0,34.0,32.0,29.0,28.0,26.0,28.0,27.0,26.0,27.0,31.0,32.0,30.0,28.0,26.0,26.0,27.0,27.0,27.0,23.0,23.0,22.0,24.0,21.0,19.0,19.0,16.0,16.0,16.0,17.0,17.0,21.0,20.0,22.0,20.0,18.0,17.0,15.0,16.0,15.0,15.0,14.0,13.0,13.0,11.0,13.0,11.0,12.0,12.0,11.0,10.0,9.0,8.0,8.0,12.0,14.0,12.0,16.0,15.0,15.0,15.0,15.0,14.0,12.0,11.0,10.0,10.0,14.0,13.0,13.0,21.0,20.0,20.0,19.0,19.0,17.0,16.0,21.0,18.0,17.0,16.0,15.0,13.0,12.0,13.0,14.0,14.0,12.0,11.0,11.0,12.0,14.0,12.0,13.0,16.0,18.0,17.0,16.0,17.0,16.0,30.0,27.0,25.0,22.0,20.0,17.0,17.0,22.0,26.0,23.0,21.0,19.0,19.0,18.0,17.0,15.0,14.0,17.0,21.0,22.0,20.0,18.0,18.0,17.0,15.0,22.0,23.0,33.0,31.0,26.0,26.0,25.0,27.0,24.0,25.0,23.0,21.0,20.0,22.0,19.0,18.0,21.0,20.0,21.0,18.0,18.0,22.0,20.0,18.0,17.0,29.0,30.0,28.0,26.0,24.0,22.0,19.0,18.0,16.0,14.0,13.0,13.0,13.0,15.0,15.0,19.0,21.0,20.0,24.0,29.0,27.0,24.0,25.0,24.0,23.0,24.0,24.0,25.0,21.0,21.0,19.0,17.0,18.0,16.0,15.0,14.0,12.0,12.0,10.0,11.0,10.0,14.0,19.0,16.0,16.0,12.0,14.0,14.0,16.0,16.0,13.0,14.0,13.0,12.0,12.0,11.0,11.0,10.0,9.0,10.0,14.0,14.0,18.0,17.0,15.0,15.0,16.0,15.0,15.0,18.0,19.0,33.0,29.0,26.0,23.0,20.0,20.0,25.0,25.0,24.0,21.0,20.0,20.0,18.0,16.0,16.0,15.0,13.0,15.0,16.0,16.0,16.0,16.0,17.0,15.0,15.0,15.0,14.0,16.0,18.0,16.0,15.0,13.0,16.0,16.0,14.0,13.0,17.0,17.0,20.0,18.0,28.0,24.0,25.0,22.0,19.0,18.0,18.0,18.0,24.0,23.0,21.0,19.0,17.0,15.0,15.0,14.0,15.0,16.0,14.0,13.0,12.0,23.0,20.0,19.0,17.0,18.0,16.0,15.0,15.0,15.0,14.0,13.0,11.0,11.0,10.0,13.0,14.0,12.0,11.0,10.0,9.0,8.0,7.0,8.0,6.0,6.0,6.0,9.0,9.0,9.0,10.0,10.0,8.0,9.0,8.0,8.0,11.0,13.0,12.0,14.0,13.0,14.0,13.0,12.0,15.0,18.0,15.0,14.0,14.0,13.0,12.0,12.0,14.0,14.0,14.0,13.0,11.0,13.0,15.0,15.0,15.0,12.0,12.0,10.0,10.0,11.0,9.0,14.0,14.0,13.0,12.0,11.0,11.0,9.0,10.0,8.0,8.0,8.0,17.0,17.0,17.0,15.0,16.0,14.0,13.0,14.0,13.0,13.0,13.0,18.0,15.0,15.0,18.0,17.0,16.0,13.0,17.0,24.0,21.0,20.0,22.0,19.0,17.0,15.0,16.0,14.0,12.0,13.0,12.0,11.0,15.0,23.0,22.0,21.0,18.0,19.0,36.0,108.0,137.0,223.0,279.0,278.0,313.0,287.0,283.0,285.0,322.0,291.0,289.0,293.0,269.0,266.0,253.0,240.0,230.0,219.0,210.0,208.0,192.0,179.0,172.0,156.0,138.0,140.0,146.0,139.0,127.0,120.0,115.0,106.0,106.0,98.0,94.0,83.0,85.0,81.0,74.0,74.0,65.0,58.0,58.0,60.0,54.0,54.0,54.0,51.0,53.0,59.0,55.0,55.0,57.0,55.0,49.0,55.0,51.0,48.0,45.0,43.0,55.0,53.0,55.0,54.0,53.0,45.0,43.0,54.0,48.0,51.0,44.0,40.0,39.0,37.0,40.0,46.0,43.0,45.0,45.0,40.0,36.0,37.0,32.0,32.0,33.0,37.0,32.0,35.0,34.0,34.0,31.0,32.0,40.0,38.0,40.0,39.0,35.0,34.0,30.0,35.0,30.0,36.0,35.0,33.0,31.0,33.0,32.0,31.0,34.0,32.0,29.0,30.0,38.0,37.0,36.0,31.0,28.0,31.0,40.0,38.0,37.0,34.0,31.0,30.0,33.0,32.0,29.0,31.0,36.0,33.0,30.0,27.0,28.0,40.0,38.0,33.0,31.0,29.0,35.0,32.0,35.0,39.0,42.0,35.0,31.0,29.0,31.0,28.0,28.0,30.0,53.0,53.0,51.0,45.0,40.0,36.0,34.0,30.0,29.0,41.0,45.0,43.0,38.0,34.0,32.0,29.0,28.0,28.0,25.0,23.0,34.0,30.0,28.0,26.0,22.0,20.0,20.0,19.0,20.0,21.0,29.0,27.0,25.0,23.0,21.0,20.0,18.0,16.0,17.0,26.0,23.0,22.0,18.0,16.0,16.0,15.0,15.0,16.0,17.0,25.0,24.0,25.0,22.0,19.0,21.0,21.0,28.0,27.0,33.0,30.0,26.0,23.0,21.0,20.0,17.0,18.0,19.0,18.0,16.0,14.0,15.0,14.0,13.0,22.0,23.0,27.0,28.0,29.0,26.0,24.0,23.0,34.0,36.0,35.0,29.0,27.0,24.0,21.0,23.0,23.0,23.0,24.0,22.0,30.0,28.0,31.0,32.0,27.0,25.0,25.0,25.0,32.0,31.0,28.0,31.0,34.0,30.0,28.0,24.0,22.0,22.0,22.0,26.0,25.0,24.0,22.0,18.0,19.0,17.0,15.0,15.0,15.0,14.0,13.0,24.0,24.0,26.0,23.0,21.0,21.0,19.0,18.0,22.0,29.0,26.0,29.0,26.0,24.0,23.0,27.0,23.0,24.0,23.0,20.0,20.0,26.0,24.0,23.0,21.0,19.0,17.0,20.0,17.0,16.0,14.0,14.0,13.0,12.0,14.0,16.0,14.0,14.0,24.0,22.0,24.0,20.0,19.0,16.0,15.0,15.0,16.0,15.0,19.0,24.0,20.0,21.0,18.0,17.0,17.0,16.0,17.0,16.0,14.0,14.0,16.0,31.0,28.0,27.0,27.0,23.0,32.0,29.0,25.0,23.0,25.0,34.0,31.0,29.0,38.0,34.0,31.0,29.0,27.0,24.0,23.0,23.0,32.0,29.0,25.0,22.0,22.0,20.0,21.0,34.0,30.0,43.0,41.0,37.0,33.0,28.0,35.0,31.0,28.0,33.0,29.0,26.0,22.0,21.0,28.0,31.0,28.0,35.0,32.0,28.0,25.0,23.0,30.0,28.0,25.0,32.0,30.0,26.0,30.0,27.0,23.0,24.0,23.0,32.0,30.0,29.0,29.0,25.0,25.0,24.0,26.0,26.0,22.0,43.0,38.0,34.0,29.0,30.0,27.0,25.0,25.0,23.0,40.0,36.0,32.0
155.0,151.0,151.0,149.0,135.0,127.0,124.0,114.0,106.0,112.0,104.0,98.0,95.0,95.0,92.0,97.0,94.0,89.0,83.0,81.0,84.0,90.0,95.0,91.0,93.0,93.0,91.0,89.0,108.0,107.0,105.0,106.0,109.0,105.0,103.0,98.0,101.0,101.0,98.0,95.0,102.0,95.0,90.0,88.0,83.0,88.0,84.0,83.0,86.0,87.0,88.0,90.0,98.0,102.0,102.0,111.0,107.0,111.0,111.0,109.0,113.0,130.0,122.0,116.0,115.0,116.0,112.0,108.0,107.0,103.0,107.0,114.0,119.0,119.0,111.0,112.0,113.0,115.0,118.0,113.0,118.0,111.0,103.0,105.0,102.0,112.0,107.0,98.0,99.0,110.0,126.0,121.0,117.0,124.0,119.0,114.0,119.0,124.0,127.0,123.0,120.0,115.0,113.0,103.0,111.0,104.0,102.0,104.0,102.0,99.0,102.0,102.0,100.0,94.0,88.0,87.0,84.0,83.0,96.0,92.0,86.0,84.0,79.0,93.0,99.0,97.0,107.0,105.0,110.0,116.0,119.0,121.0,108.0,113.0,110.0,112.0,114.0,122.0,119.0,116.0,110.0,111.0,119.0,119.0,115.0,107.0,96.0,103.0,102.0,99.0,90.0,88.0,87.0,86.0,92.0,89.0,88.0,80.0,81.0,79.0,82.0,76.0,75.0,70.0,69.0,78.0,75.0,81.0,74.0,74.0,79.0,90.0,88.0,88.0,91.0,92.0,92.0,102.0,99.0,124.0,131.0,132.0,125.0,119.0,126.0,124.0,142.0,133.0,136.0,162.0,149.0,144.0,155.0,178.0,191.0,176.0,180.0,175.0,175.0,199.0,194.0,184.0,208.0,221.0,226.0,225.0,227.0,243.0,237.0,230.0,240.0,247.0,238.0,235.0,234.0,222.0,214.0,209.0,212.0,199.0,191.0,185.0,185.0,183.0,189.0,183.0,178.0,188.0,183.0,177.0,183.0,181.0,183.0,180.0,186.0,181.0,165.0,183.0,180.0,173.0,183.0,232.0,217.0,196.0,187.0,173.0,163.0,192.0,175.0,176.0,170.0,178.0,202.0,192.0,185.0,175.0,195.0,195.0,209.0,209.0,197.0,184.0,220.0,206.0,191.0,183.0,184.0,185.0,178.0,164.0,156.0,144.0,161.0,169.0,170.0,172.0,184.0,186.0,194.0,231.0,256.0,264.0,331.0,322.0,297.0,276.0,271.0,258.0,265.0,260.0,275.0,268.0,244.0,226.0,264.0,270.0,259.0,238.0,246.0,236.0,234.0,246.0,254.0,264.0,260.0,253.0,263.0,296.0,277.0,273.0,260.0,254.0,242.0,240.0,242.0,234.0,243.0,238.0,220.0,232.0,248.0,252.0,256.0,245.0,226.0,219.0,197.0,220.0,251.0,261.0,268.0,257.0,255.0,243.0,254.0,254.0,234.0,245.0,248.0,251.0,236.0,236.0,244.0,242.0,230.0,228.0,224.0,211.0,199.0,201.0,204.0,202.0,219.0,220.0,236.0,251.0,252.0,229.0,232.0,212.0,215.0,232.0,221.0,220.0,221.0,224.0,221.0,226.0,221.0,231.0,226.0,206.0,248.0,252.0,258.0,234.0,262.0,253.0,252.0,234.0,229.0,213.0,199.0,190.0,189.0,197.0,208.0,207.0,208.0,197.0,200.0,200.0,193.0,191.0,202.0,205.0,199.0,199.0,202.0,190.0,187.0,191.0,210.0,217.0,204.0,202.0,201.0,214.0,225.0,207.0,198.0,229.0,217.0,208.0,203.0,193.0,187.0,188.0,188.0,189.0,227.0,236.0,238.0,240.0,234.0,233.0,225.0,223.0,206.0,192.0,203.0,200.0,195.0,195.0,201.0,237.0,226.0,217.0,216.0,226.0,219.0,231.0,223.0,276.0,269.0,252.0,234.0,226.0,222.0,210.0,229.0,214.0,193.0,187.0,174.0,170.0,174.0,171.0,168.0,161.0,163.0,162.0,161.0,158.0,167.0,175.0,172.0,188.0,194.0,188.0,180.0,160.0,155.0,176.0,193.0,180.0,193.0,192.0,190.0,193.0,188.0,182.0,189.0,178.0,186.0,185.0,193.0,191.0,192.0,197.0,211.0,203.0,219.0,224.0,239.0,217.0,220.0,216.0,207.0,198.0,188.0,205.0,200.0,209.0,202.0,194.0,210.0,201.0,214.0,230.0,218.0,255.0,235.0,231.0,241.0,240.0,222.0,213.0,195.0,225.0,228.0,226.0,230.0,239.0,227.0,208.0,204.0,208.0,203.0,193.0,207.0,197.0,205.0,195.0,186.0,198.0,213.0,202.0,198.0,198.0,217.0,203.0,186.0,179.0,171.0,215.0,256.0,231.0,244.0,230.0,218.0,208.0,198.0,186.0,201.0,199.0,198.0,199.0,184.0,186.0,180.0,176.0,173.0,187.0,188.0,199.0,190.0,197.0,189.0,168.0,174.0,176.0,187.0,187.0,190.0,192.0,183.0,174.0,168.0,178.0,217.0,267.0,312.0,319.0,344.0,388.0,383.0,394.0,421.0,416.0,395.0,375.0,366.0,348.0,366.0,341.0,323.0,334.0,349.0,357.0,334.0,313.0,317.0,300.0,282.0,267.0,296.0,301.0,275.0,295.0,294.0,303.0,289.0,268.0,259.0,246.0,232.0,223.0,224.0,217.0,206.0,208.0,209.0,206.0,210.0,197.0,203.0,194.0,187.0,183.0,172.0,169.0,161.0,186.0,201.0,190.0,180.0,173.0,158.0,146.0,140.0,160.0,174.0,165.0,155.0,146.0,134.0,156.0,162.0,155.0,147.0,155.0,156.0,150.0,143.0,150.0,150.0,141.0,136.0,128.0,122.0,120.0,147.0,173.0,165.0,152.0,142.0,134.0,153.0,147.0,143.0,139.0,151.0,163.0,154.0,146.0,132.0,129.0,131.0,140.0,133.0,128.0,118.0,116.0,111.0,115.0,110.0,111.0,114.0,112.0,115.0,120.0,123.0,123.0,121.0,127.0,128.0,124.0,126.0,128.0,134.0,134.0,136.0,137.0,132.0,132.0,132.0,133.0,140.0,144.0,141.0,138.0,135.0,128.0,135.0,145.0,140.0,147.0,139.0,154.0,150.0,151.0,141.0,152.0,146.0,134.0,130.0,119.0,116.0,115.0,110.0,137.0,141.0,134.0,152.0,142.0,145.0,140.0,145.0,153.0,153.0,150.0,150.0,147.0,161.0,155.0,148.0,137.0,147.0,141.0,133.0,137.0,139.0,131.0,130.0,134.0,154.0,143.0,134.0,126.0,123.0,116.0,108.0,117.0,115.0,110.0,118.0,118.0,113.0,117.0,112.0,110.0,105.0,101.0,106.0,108.0,106.0,96.0,97.0,107.0,107.0,112.0,118.0,124.0,131.0,140.0,135.0,131.0,132.0,132.0,127.0,120.0,118.0,114.0,110.0,107.0,110.0,120.0,119.0,112.0,108.0,111.0,112.0,104.0,101.0,123.0,124.0,129.0,126.0,119.0,113.0,120.0,116.0,114.0,111.0,103.0,100.0,98.0,117.0,120.0,115.0,123.0,119.0,125.0,123.0,128.0,132.0,125.0,130.0,134.0,140.0,129.0,125.0,115.0,115.0,113.0,112.0,120.0,120.0,112.0,125.0,125.0,121.0,130.0,129.0,123.0,115.0,112.0,111.0,104.0,100.0,96.0,117.0,112.0,109.0,119.0,126.0,124.0,119.0,120.0,115.0,113.0,113.0,113.0,121.0,123.0,122.0,124.0,113.0,107.0,113.0,121.0,118.0,124.0,128.0,126.0,126.0,128.0,124.0,129.0,130.0,128.0,118.0,120.0,115.0,117.0,114.0,106.0,122.0,129.0,131.0,130.0,136.0,136.0,136.0,129.0,126.0,123.0,126.0,121.0,117.0,114.0,116.0,135.0,127.0,122.0,114.0,117.0,125.0,116.0,116.0,111.0,118.0,111.0,111.0,107.0,102.0,103.0,101.0,109.0,108.0,103.0,104.0,105.0,106.0,101.0,103.0,108.0,105.0,109.0,104.0,96.0,99.0,100.0,113.0,114.0,107.0,107.0,110.0,112.0,111.0,109.0,110.0,105.0,121.0,125.0,115.0,114.0,114.0,111.0,119.0,119.0,124.0,126.0,113.0,110.0,114.0,124.0,125.0,119.0,114.0,128.0,142.0,142.0,143.0,129.0,119.0,118.0,124.0,125.0,127.0,127.0,117.0,113.0,113.0,106.0,107.0,108.0,110.0,109.0,108.0,108.0,102.0,101.0,97.0,105.0,105.0,109.0,108.0,107.0,107.0,107.0,105.0,108.0,115.0,124.0,122.0,128.0,121.0,115.0
