115.0,116.0,115.0,116.0,115.0,114.0,112.0,112.0,111.0,110.0,108.0,107.0,105.0,104.0,105.0,101.0,101.0,100.0,97.0,97.0,95.0,94.0,93.0,95.0,92.0,91.0,89.0,88.0,88.0,87.0,86.0,88.0,86.0,88.0,87.0,86.0,85.0,85.0,84.0,84.0,83.0,82.0,80.0,80.0,79.0,81.0,82.0,82.0,83.0,84.0,84.0,84.0,83.0,80.0,78.0,79.0,75.0,73.0,71.0,70.0,71.0,69.0,69.0,68.0,67.0,66.0,66.0,67.0,67.0,66.0,67.0,67.0,69.0,67.0,69.0,69.0,68.0,68.0,67.0,67.0,68.0,69.0,68.0,66.0,68.0,66.0,67.0,67.0,66.0,66.0,65.0,64.0,64.0,62.0,62.0,61.0,61.0,59.0,58.0,59.0,58.0,59.0,59.0,56.0,57.0,52.0,53.0,52.0,49.0,48.0,49.0,49.0,48.0,46.0,46.0,46.0,45.0,45.0,45.0,46.0,44.0,45.0,44.0,43.0,43.0,43.0,42.0,42.0,43.0,42.0,42.0,43.0,43.0,43.0,42.0,42.0,42.0,42.0,43.0,42.0,42.0,42.0,42.0,42.0,42.0,41.0,42.0,41.0,43.0,42.0,43.0,44.0,45.0,44.0,44.0,45.0,43.0,44.0,43.0,43.0,44.0,43.0,45.0,44.0,44.0,43.0,43.0,43.0,44.0,43.0,44.0,42.0,43.0,43.0,42.0,43.0,43.0,44.0,44.0,43.0,44.0,43.0,45.0,45.0,45.0,44.0,44.0,43.0,42.0,42.0,42.0,42.0,42.0,41.0,41.0,42.0,44.0,43.0,43.0,44.0,44.0,43.0,42.0,42.0,42.0,42.0,42.0,42.0,41.0,42.0,42.0,43.0,43.0,44.0,43.0,42.0,44.0,42.0,43.0,44.0,45.0,45.0,44.0,44.0,45.0,45.0,45.0,45.0,45.0,44.0,44.0,44.0,43.0,44.0,44.0,44.0,44.0,44.0,44.0,44.0,45.0,46.0,45.0,47.0,47.0,48.0,47.0,47.0,47.0,47.0,49.0,48.0,48.0,48.0,47.0,49.0,49.0,50.0,50.0,50.0,50.0,50.0,50.0,51.0,51.0,51.0,50.0,51.0,53.0,53.0,54.0,53.0,53.0,52.0,52.0,50.0,54.0,53.0,52.0,55.0,54.0,52.0,54.0,58.0,58.0,56.0,54.0,54.0,53.0,52.0,54.0,53.0,53.0,54.0,60.0,57.0,65.0,66.0,69.0,76.0,80.0,88.0,94.0,96.0,99.0,121.0,151.0,156.0,169.0,171.0,169.0,180.0,176.0,185.0,175.0,175.0,180.0,174.0,168.0,159.0,149.0,138.0,140.0,144.0,140.0,130.0,125.0,121.0,127.0,120.0,113.0,108.0,102.0,98.0,94.0,87.0,85.0,84.0,82.0,76.0,79.0,80.0,80.0,87.0,86.0,86.0,81.0,80.0,82.0,83.0,82.0,81.0,79.0,79.0,75.0,78.0,83.0,83.0,85.0,91.0,91.0,86.0,92.0,95.0,93.0,96.0,98.0,99.0,98.0,104.0,102.0,109.0,111.0,116.0,120.0,121.0,125.0,129.0,128.0,134.0,138.0,140.0,145.0,146.0,150.0,155.0,155.0,160.0,165.0,170.0,173.0,174.0,176.0,179.0,185.0,187.0,198.0,201.0,200.0,202.0,200.0,206.0,207.0,210.0,213.0,215.0,219.0,216.0,221.0,222.0,224.0,227.0,230.0,230.0,230.0,229.0,234.0,235.0,237.0,239.0,240.0,240.0,244.0,242.0,242.0,246.0,250.0,252.0,249.0,252.0,251.0,251.0,254.0,257.0,255.0,252.0,253.0,253.0,250.0,253.0,251.0,251.0,251.0,248.0,249.0,249.0,248.0,246.0,251.0,248.0,248.0,247.0,247.0,249.0,248.0,249.0,244.0,246.0,246.0,246.0,247.0,244.0,241.0,242.0,242.0,241.0,241.0,240.0,239.0,237.0,236.0,235.0,235.0,232.0,232.0,229.0,230.0,229.0,228.0,227.0,228.0,221.0,219.0,218.0,219.0,212.0,204.0,211.0,210.0,210.0,210.0,212.0,207.0,209.0,210.0,209.0,209.0,206.0,207.0,205.0,200.0,202.0,203.0,200.0,201.0,200.0,200.0,198.0,204.0,204.0,208.0,207.0,203.0,201.0,198.0,197.0,195.0,195.0,190.0,191.0,191.0,190.0,188.0,189.0,190.0,191.0,188.0,185.0,186.0,187.0,182.0,184.0,184.0,182.0,181.0,182.0,182.0,182.0,185.0,181.0,182.0,179.0,175.0,176.0,175.0,175.0,174.0,174.0,172.0,171.0,169.0,168.0,166.0,163.0,161.0,160.0,159.0,158.0,158.0,156.0,156.0,155.0,151.0,148.0,148.0,148.0,150.0,148.0,146.0,146.0,145.0,141.0,138.0,141.0,137.0,137.0,138.0,139.0,142.0,145.0,140.0,137.0,134.0,128.0,126.0,128.0,128.0,128.0,124.0,126.0,121.0,121.0,118.0,114.0,115.0,115.0,112.0,112.0,112.0,110.0,109.0,108.0,109.0,108.0,109.0,107.0,105.0,102.0,97.0,102.0,102.0,103.0,102.0,102.0,101.0,101.0,101.0,99.0,96.0,97.0,99.0,98.0,96.0,95.0,96.0,94.0,92.0,91.0,97.0,98.0,97.0,98.0,96.0,94.0,93.0,95.0,91.0,91.0,90.0,89.0,89.0,89.0,87.0,85.0,85.0,88.0,88.0,84.0,86.0,83.0,83.0,81.0,81.0,88.0,88.0,87.0,87.0,85.0,83.0,81.0,83.0,81.0,80.0,77.0,75.0,73.0,75.0,74.0,74.0,71.0,69.0,70.0,69.0,66.0,69.0,69.0,70.0,71.0,70.0,69.0,68.0,68.0,67.0,67.0,69.0,67.0,69.0,69.0,69.0,74.0,74.0,71.0,75.0,72.0,71.0,75.0,73.0,73.0,75.0,76.0,73.0,75.0,73.0,71.0,71.0,70.0,69.0,70.0,69.0,67.0,66.0,66.0,66.0,64.0,67.0,66.0,67.0,66.0,65.0,67.0,64.0,67.0,67.0,69.0,72.0,70.0,75.0,75.0,75.0,78.0,82.0,84.0,86.0,89.0,92.0,96.0,99.0,105.0,111.0,113.0,115.0,121.0,120.0,131.0,135.0,138.0,144.0,149.0,151.0,152.0,151.0,157.0,161.0,165.0,169.0,172.0,177.0,178.0,181.0,184.0,186.0,189.0,193.0,195.0,199.0,203.0,207.0,210.0,212.0,215.0,219.0,221.0,226.0,230.0,231.0,230.0,233.0,237.0,238.0,230.0,238.0,244.0,247.0,247.0,248.0,251.0,247.0,250.0,247.0,250.0,253.0,252.0,255.0,253.0,254.0,254.0,249.0,253.0,255.0,257.0,256.0,256.0,256.0,255.0,255.0,252.0,252.0,250.0,254.0,253.0,253.0,253.0,253.0,250.0,249.0,249.0,250.0,249.0,250.0,251.0,253.0,255.0,256.0,256.0,258.0,259.0,259.0,258.0,259.0,258.0,256.0,255.0,257.0,250.0,254.0,254.0,254.0,252.0,254.0,253.0,254.0,249.0,251.0,251.0,250.0,250.0,246.0,249.0,245.0,246.0,247.0,246.0,245.0,246.0,243.0,245.0,246.0,241.0,243.0,244.0,245.0,243.0,241.0,239.0,240.0,239.0,238.0,238.0,235.0,232.0,218.0,221.0,239.0,280.0,301.0,322.0,320.0,310.0,300.0,287.0,284.0,278.0,277.0,272.0,268.0,271.0,264.0,268.0,264.0,266.0,253.0,260.0,265.0,268.0,270.0,269.0,266.0,266.0,263.0,265.0,269.0,267.0,272.0,275.0,275.0,275.0,274.0,273.0,271.0,268.0,268.0,265.0,262.0,259.0,254.0,251.0,245.0,243.0,240.0,236.0,232.0,227.0,224.0,220.0,214.0,211.0,207.0,205.0,203.0,197.0,195.0,192.0,186.0,183.0,181.0,176.0,172.0,166.0,164.0,161.0,157.0,153.0,146.0,142.0,138.0,133.0,131.0,126.0,124.0,118.0,114.0,111.0,106.0,101.0,99.0,97.0,93.0,91.0,88.0,86.0,84.0,82.0,78.0,78.0,76.0,74.0,72.0,69.0,68.0,66.0,63.0,62.0,59.0,58.0,58.0,57.0,55.0,52.0,53.0,53.0,51.0,51.0,51.0,53.0,54.0,55.0,56.0,57.0,59.0,58.0,58.0,58.0,59.0,59.0,59.0,59.0,61.0,62.0,63.0,64.0
95.0,94.0,93.0,93.0,93.0,91.0,88.0,88.0,87.0,86.0,85.0,84.0,84.0,82.0,81.0,78.0,75.0,77.0,75.0,75.0,74.0,71.0,69.0,69.0,66.0,65.0,64.0,64.0,62.0,63.0,60.0,59.0,61.0,59.0,60.0,60.0,59.0,60.0,60.0,60.0,58.0,58.0,56.0,53.0,53.0,52.0,52.0,51.0,51.0,50.0,50.0,49.0,46.0,45.0,45.0,43.0,44.0,42.0,40.0,41.0,40.0,39.0,39.0,39.0,38.0,37.0,37.0,36.0,36.0,36.0,38.0,38.0,37.0,38.0,37.0,37.0,38.0,37.0,39.0,37.0,38.0,37.0,38.0,38.0,37.0,38.0,39.0,38.0,39.0,39.0,40.0,41.0,41.0,42.0,41.0,40.0,40.0,40.0,41.0,41.0,44.0,43.0,43.0,44.0,45.0,45.0,46.0,46.0,47.0,46.0,47.0,50.0,50.0,50.0,53.0,52.0,54.0,53.0,52.0,54.0,53.0,53.0,53.0,51.0,51.0,53.0,54.0,55.0,56.0,57.0,56.0,58.0,57.0,59.0,60.0,61.0,62.0,60.0,62.0,63.0,64.0,64.0,65.0,65.0,66.0,67.0,68.0,69.0,70.0,70.0,71.0,75.0,72.0,72.0,74.0,74.0,75.0,76.0,76.0,77.0,75.0,75.0,74.0,73.0,73.0,73.0,75.0,76.0,77.0,78.0,78.0,78.0,79.0,79.0,78.0,78.0,78.0,78.0,78.0,78.0,79.0,79.0,77.0,77.0,77.0,76.0,76.0,76.0,76.0,77.0,77.0,77.0,77.0,78.0,78.0,79.0,78.0,76.0,77.0,75.0,75.0,75.0,75.0,74.0,74.0,73.0,72.0,71.0,71.0,71.0,71.0,68.0,68.0,66.0,66.0,65.0,64.0,63.0,62.0,64.0,62.0,61.0,61.0,60.0,61.0,60.0,58.0,60.0,58.0,59.0,59.0,60.0,60.0,59.0,60.0,59.0,58.0,58.0,57.0,59.0,58.0,57.0,57.0,57.0,56.0,56.0,58.0,56.0,58.0,56.0,56.0,57.0,57.0,57.0,57.0,58.0,57.0,56.0,55.0,56.0,55.0,55.0,55.0,55.0,57.0,57.0,58.0,59.0,58.0,59.0,60.0,60.0,61.0,63.0,63.0,64.0,62.0,62.0,63.0,63.0,63.0,64.0,64.0,63.0,64.0,63.0,63.0,63.0,62.0,62.0,62.0,60.0,59.0,58.0,57.0,57.0,53.0,55.0,56.0,59.0,58.0,58.0,65.0,61.0,61.0,70.0,74.0,77.0,81.0,80.0,84.0,104.0,121.0,127.0,138.0,148.0,155.0,154.0,149.0,152.0,152.0,144.0,150.0,147.0,146.0,141.0,139.0,140.0,132.0,133.0,131.0,133.0,134.0,131.0,129.0,130.0,130.0,130.0,130.0,130.0,131.0,129.0,128.0,128.0,128.0,126.0,123.0,123.0,120.0,117.0,112.0,110.0,103.0,98.0,94.0,89.0,86.0,80.0,76.0,74.0,73.0,70.0,71.0,68.0,65.0,62.0,62.0,59.0,58.0,58.0,57.0,59.0,58.0,60.0,62.0,62.0,64.0,69.0,72.0,78.0,81.0,83.0,88.0,89.0,96.0,102.0,104.0,108.0,111.0,118.0,123.0,127.0,131.0,136.0,139.0,141.0,150.0,145.0,150.0,152.0,155.0,158.0,158.0,163.0,165.0,168.0,171.0,172.0,176.0,178.0,181.0,181.0,186.0,184.0,189.0,191.0,192.0,194.0,195.0,195.0,197.0,193.0,199.0,196.0,196.0,197.0,197.0,199.0,197.0,201.0,197.0,196.0,199.0,202.0,200.0,201.0,203.0,204.0,202.0,200.0,199.0,198.0,200.0,196.0,197.0,198.0,198.0,198.0,198.0,201.0,201.0,202.0,203.0,203.0,204.0,205.0,201.0,205.0,203.0,203.0,202.0,201.0,200.0,197.0,195.0,196.0,195.0,194.0,191.0,187.0,182.0,180.0,178.0,174.0,174.0,172.0,171.0,168.0,165.0,166.0,164.0,162.0,160.0,159.0,159.0,155.0,150.0,151.0,151.0,147.0,148.0,147.0,145.0,146.0,145.0,148.0,148.0,147.0,148.0,147.0,145.0,146.0,145.0,142.0,141.0,140.0,138.0,135.0,135.0,134.0,135.0,132.0,128.0,127.0,123.0,125.0,122.0,122.0,116.0,114.0,112.0,109.0,107.0,106.0,103.0,101.0,98.0,99.0,97.0,97.0,95.0,97.0,95.0,94.0,96.0,97.0,95.0,96.0,97.0,97.0,98.0,96.0,95.0,96.0,95.0,95.0,93.0,93.0,91.0,89.0,87.0,85.0,82.0,80.0,81.0,78.0,76.0,71.0,68.0,66.0,66.0,65.0,66.0,68.0,70.0,70.0,72.0,72.0,70.0,70.0,67.0,65.0,63.0,65.0,64.0,63.0,64.0,61.0,63.0,61.0,59.0,56.0,55.0,54.0,53.0,52.0,52.0,51.0,51.0,51.0,50.0,51.0,48.0,47.0,46.0,46.0,45.0,44.0,47.0,45.0,47.0,46.0,45.0,45.0,46.0,45.0,44.0,43.0,43.0,43.0,43.0,43.0,45.0,44.0,42.0,42.0,42.0,44.0,45.0,47.0,47.0,46.0,48.0,47.0,47.0,47.0,46.0,48.0,50.0,50.0,50.0,50.0,48.0,47.0,51.0,49.0,52.0,52.0,53.0,55.0,54.0,53.0,54.0,54.0,53.0,52.0,52.0,52.0,51.0,51.0,50.0,48.0,49.0,51.0,51.0,51.0,51.0,50.0,50.0,50.0,50.0,50.0,49.0,49.0,50.0,50.0,48.0,47.0,46.0,47.0,47.0,48.0,48.0,51.0,49.0,48.0,49.0,48.0,49.0,53.0,52.0,51.0,50.0,50.0,51.0,49.0,50.0,49.0,50.0,52.0,51.0,51.0,49.0,52.0,54.0,53.0,53.0,53.0,54.0,55.0,56.0,55.0,55.0,55.0,54.0,55.0,52.0,52.0,52.0,52.0,52.0,51.0,53.0,53.0,51.0,52.0,50.0,50.0,51.0,50.0,50.0,47.0,50.0,48.0,46.0,46.0,46.0,46.0,46.0,48.0,49.0,49.0,51.0,51.0,53.0,52.0,52.0,57.0,58.0,60.0,63.0,67.0,68.0,74.0,79.0,84.0,90.0,94.0,96.0,99.0,101.0,107.0,111.0,116.0,122.0,127.0,132.0,138.0,141.0,146.0,148.0,152.0,156.0,157.0,159.0,161.0,167.0,168.0,170.0,171.0,172.0,173.0,175.0,176.0,179.0,178.0,181.0,183.0,183.0,184.0,185.0,191.0,192.0,193.0,194.0,197.0,198.0,201.0,203.0,205.0,207.0,207.0,211.0,211.0,212.0,211.0,209.0,210.0,211.0,214.0,213.0,213.0,211.0,211.0,210.0,208.0,206.0,206.0,206.0,207.0,206.0,207.0,205.0,203.0,201.0,201.0,199.0,200.0,200.0,198.0,200.0,200.0,198.0,198.0,199.0,201.0,202.0,205.0,206.0,207.0,208.0,207.0,208.0,205.0,207.0,209.0,209.0,206.0,206.0,204.0,203.0,200.0,200.0,199.0,199.0,199.0,198.0,198.0,196.0,198.0,196.0,194.0,192.0,191.0,189.0,188.0,186.0,183.0,181.0,180.0,178.0,175.0,173.0,166.0,166.0,162.0,158.0,155.0,149.0,143.0,128.0,130.0,128.0,133.0,153.0,176.0,177.0,171.0,161.0,151.0,151.0,149.0,149.0,143.0,138.0,136.0,129.0,130.0,124.0,126.0,120.0,119.0,117.0,115.0,114.0,111.0,107.0,106.0,98.0,94.0,91.0,87.0,85.0,83.0,80.0,82.0,80.0,74.0,70.0,67.0,66.0,64.0,63.0,61.0,57.0,56.0,56.0,54.0,54.0,52.0,52.0,52.0,51.0,50.0,48.0,49.0,50.0,50.0,51.0,48.0,48.0,48.0,46.0,46.0,44.0,44.0,46.0,48.0,47.0,45.0,44.0,44.0,44.0,42.0,42.0,43.0,44.0,44.0,44.0,44.0,43.0,42.0,41.0,43.0,43.0,44.0,45.0,45.0,44.0,44.0,43.0,45.0,46.0,46.0,47.0,48.0,48.0,48.0,49.0,48.0,48.0,51.0,51.0,50.0,51.0,49.0,49.0,50.0,52.0,52.0,50.0,52.0,54.0,54.0,54.0,55.0,54.0,53.0,54.0,55.0,54.0,55.0,54.0,53.0,52.0,48.0,53.0,50.0,49.0,51.0
17.0,15.0,13.0,12.0,11.0,11.0,10.0,11.0,14.0,14.0,13.0,12.0,11.0,11.0,11.0,9.0,9.0,10.0,9.0,9.0,8.0,7.0,7.0,9.0,7.0,7.0,7.0,7.0,6.0,7.0,7.0,8.0,8.0,9.0,8.0,7.0,7.0,7.0,6.0,5.0,7.0,6.0,6.0,6.0,5.0,11.0,9.0,10.0,10.0,8.0,9.0,9.0,8.0,8.0,7.0,8.0,9.0,9.0,9.0,11.0,11.0,9.0,9.0,8.0,11.0,10.0,12.0,11.0,8.0,9.0,19.0,18.0,16.0,17.0,17.0,15.0,14.0,14.0,14.0,13.0,11.0,11.0,11.0,10.0,8.0,9.0,8.0,8.0,7.0,8.0,8.0,7.0,7.0,7.0,9.0,8.0,8.0,7.0,6.0,7.0,10.0,11.0,9.0,9.0,9.0,8.0,9.0,7.0,7.0,16.0,15.0,14.0,14.0,12.0,13.0,11.0,13.0,12.0,11.0,10.0,9.0,10.0,13.0,12.0,11.0,11.0,10.0,8.0,12.0,11.0,11.0,10.0,9.0,9.0,8.0,9.0,7.0,7.0,6.0,5.0,6.0,6.0,6.0,6.0,6.0,6.0,6.0,5.0,5.0,4.0,5.0,5.0,7.0,7.0,7.0,7.0,6.0,7.0,6.0,6.0,6.0,5.0,10.0,8.0,8.0,9.0,9.0,13.0,11.0,11.0,10.0,8.0,8.0,8.0,7.0,7.0,8.0,9.0,8.0,7.0,7.0,9.0,9.0,13.0,13.0,10.0,10.0,10.0,10.0,10.0,9.0,9.0,10.0,8.0,10.0,10.0,15.0,13.0,12.0,11.0,10.0,10.0,9.0,11.0,12.0,10.0,10.0,10.0,9.0,12.0,11.0,10.0,11.0,10.0,10.0,10.0,11.0,10.0,10.0,9.0,9.0,9.0,7.0,11.0,10.0,11.0,11.0,9.0,10.0,7.0,7.0,7.0,8.0,7.0,5.0,8.0,6.0,7.0,5.0,5.0,7.0,7.0,9.0,9.0,10.0,9.0,8.0,8.0,7.0,6.0,7.0,7.0,7.0,9.0,7.0,7.0,11.0,10.0,8.0,9.0,8.0,8.0,7.0,7.0,8.0,8.0,6.0,9.0,8.0,8.0,8.0,7.0,8.0,6.0,7.0,7.0,6.0,6.0,5.0,7.0,6.0,9.0,11.0,10.0,13.0,13.0,13.0,11.0,10.0,9.0,9.0,8.0,7.0,7.0,7.0,6.0,6.0,6.0,5.0,5.0,5.0,5.0,4.0,4.0,4.0,6.0,7.0,5.0,8.0,8.0,11.0,13.0,21.0,25.0,26.0,32.0,35.0,36.0,34.0,36.0,35.0,36.0,32.0,29.0,26.0,27.0,26.0,26.0,23.0,20.0,21.0,23.0,25.0,25.0,27.0,26.0,25.0,24.0,23.0,30.0,31.0,26.0,32.0,30.0,30.0,30.0,27.0,29.0,32.0,27.0,26.0,27.0,27.0,25.0,22.0,21.0,18.0,18.0,16.0,17.0,18.0,16.0,19.0,19.0,18.0,19.0,21.0,29.0,28.0,26.0,24.0,21.0,30.0,29.0,35.0,30.0,27.0,27.0,24.0,21.0,20.0,18.0,25.0,23.0,22.0,21.0,22.0,20.0,22.0,27.0,24.0,29.0,28.0,26.0,26.0,24.0,26.0,25.0,29.0,26.0,26.0,24.0,28.0,29.0,28.0,24.0,23.0,21.0,21.0,24.0,28.0,38.0,34.0,31.0,30.0,26.0,26.0,24.0,25.0,24.0,22.0,26.0,27.0,24.0,25.0,27.0,26.0,22.0,22.0,21.0,19.0,17.0,21.0,21.0,20.0,18.0,21.0,19.0,18.0,19.0,23.0,25.0,23.0,24.0,25.0,32.0,30.0,26.0,25.0,20.0,19.0,19.0,19.0,21.0,19.0,18.0,18.0,19.0,19.0,17.0,15.0,21.0,21.0,20.0,18.0,16.0,16.0,15.0,13.0,13.0,14.0,12.0,13.0,20.0,18.0,17.0,15.0,16.0,16.0,19.0,18.0,17.0,16.0,20.0,20.0,18.0,18.0,22.0,25.0,22.0,20.0,19.0,18.0,16.0,17.0,16.0,15.0,15.0,13.0,13.0,10.0,11.0,11.0,13.0,13.0,12.0,12.0,11.0,10.0,10.0,13.0,13.0,12.0,13.0,12.0,11.0,10.0,9.0,9.0,9.0,9.0,9.0,8.0,7.0,7.0,9.0,9.0,8.0,11.0,10.0,10.0,9.0,8.0,8.0,7.0,6.0,7.0,6.0,7.0,6.0,6.0,6.0,8.0,8.0,7.0,7.0,9.0,13.0,11.0,11.0,15.0,12.0,12.0,12.0,11.0,10.0,9.0,8.0,8.0,7.0,7.0,8.0,9.0,9.0,9.0,10.0,10.0,12.0,12.0,11.0,11.0,12.0,13.0,12.0,11.0,10.0,9.0,10.0,8.0,9.0,8.0,10.0,12.0,10.0,11.0,10.0,10.0,11.0,10.0,12.0,10.0,10.0,9.0,7.0,7.0,6.0,7.0,7.0,8.0,7.0,7.0,7.0,7.0,5.0,6.0,6.0,6.0,5.0,8.0,8.0,6.0,6.0,7.0,7.0,6.0,7.0,7.0,6.0,6.0,8.0,7.0,8.0,8.0,9.0,9.0,6.0,8.0,9.0,9.0,11.0,9.0,9.0,7.0,7.0,7.0,8.0,10.0,11.0,11.0,10.0,11.0,11.0,11.0,10.0,13.0,12.0,14.0,12.0,12.0,13.0,13.0,13.0,13.0,10.0,10.0,9.0,8.0,8.0,8.0,7.0,8.0,6.0,6.0,11.0,12.0,12.0,11.0,10.0,9.0,7.0,8.0,7.0,6.0,14.0,17.0,16.0,14.0,12.0,11.0,10.0,10.0,9.0,9.0,7.0,10.0,10.0,11.0,12.0,12.0,15.0,13.0,11.0,10.0,14.0,15.0,17.0,15.0,16.0,13.0,12.0,11.0,13.0,12.0,10.0,10.0,10.0,9.0,9.0,8.0,13.0,13.0,12.0,10.0,10.0,9.0,9.0,8.0,7.0,9.0,9.0,8.0,9.0,8.0,8.0,9.0,15.0,15.0,14.0,13.0,13.0,11.0,12.0,13.0,13.0,11.0,10.0,11.0,10.0,11.0,10.0,9.0,9.0,8.0,10.0,11.0,11.0,9.0,9.0,9.0,7.0,7.0,8.0,8.0,8.0,7.0,6.0,7.0,6.0,6.0,6.0,6.0,6.0,7.0,7.0,6.0,7.0,7.0,7.0,7.0,5.0,10.0,9.0,10.0,13.0,14.0,16.0,16.0,15.0,16.0,18.0,18.0,19.0,18.0,19.0,18.0,22.0,22.0,26.0,27.0,25.0,25.0,21.0,23.0,22.0,24.0,23.0,25.0,34.0,32.0,35.0,34.0,32.0,33.0,31.0,31.0,33.0,36.0,35.0,33.0,37.0,38.0,40.0,40.0,36.0,38.0,36.0,35.0,39.0,39.0,37.0,40.0,40.0,38.0,36.0,34.0,35.0,35.0,33.0,33.0,37.0,37.0,37.0,38.0,41.0,46.0,47.0,52.0,48.0,49.0,45.0,44.0,44.0,44.0,43.0,39.0,43.0,41.0,40.0,38.0,39.0,37.0,36.0,34.0,36.0,34.0,34.0,32.0,29.0,27.0,23.0,23.0,25.0,23.0,25.0,25.0,23.0,20.0,20.0,21.0,27.0,35.0,107.0,220.0,247.0,258.0,305.0,282.0,267.0,275.0,277.0,283.0,276.0,258.0,238.0,218.0,206.0,197.0,195.0,191.0,189.0,175.0,164.0,153.0,149.0,143.0,126.0,120.0,119.0,116.0,114.0,106.0,106.0,97.0,87.0,93.0,101.0,88.0,82.0,76.0,71.0,63.0,68.0,88.0,86.0,78.0,74.0,73.0,65.0,58.0,60.0,59.0,61.0,62.0,60.0,56.0,50.0,49.0,44.0,47.0,47.0,44.0,43.0,40.0,36.0,33.0,34.0,35.0,41.0,42.0,39.0,38.0,37.0,34.0,31.0,34.0,49.0,47.0,42.0,36.0,35.0,32.0,31.0,29.0,41.0,43.0,50.0,51.0,45.0,42.0,39.0,35.0,39.0,36.0,36.0,47.0,54.0,58.0,61.0,61.0,58.0,57.0,52.0,56.0,61.0,62.0,62.0,58.0,56.0,59.0,62.0,58.0,56.0,51.0,59.0,60.0,69.0,62.0,61.0,62.0,67.0,64.0,63.0,60.0,65.0,62.0,58.0,58.0,56.0,52.0,50.0
64.0,62.0,66.0,62.0,61.0,59.0,59.0,63.0,75.0,73.0,70.0,67.0,63.0,59.0,57.0,56.0,55.0,60.0,61.0,62.0,58.0,60.0,60.0,62.0,61.0,62.0,61.0,70.0,74.0,77.0,71.0,83.0,81.0,80.0,75.0,71.0,67.0,64.0,63.0,62.0,58.0,58.0,54.0,50.0,55.0,54.0,54.0,60.0,61.0,65.0,72.0,72.0,66.0,61.0,60.0,59.0,59.0,60.0,63.0,69.0,69.0,69.0,67.0,65.0,65.0,65.0,66.0,60.0,62.0,58.0,68.0,74.0,73.0,71.0,71.0,70.0,71.0,70.0,72.0,68.0,67.0,67.0,71.0,73.0,72.0,68.0,63.0,61.0,57.0,58.0,58.0,57.0,60.0,61.0,59.0,56.0,54.0,54.0,55.0,53.0,56.0,59.0,55.0,56.0,56.0,55.0,54.0,58.0,56.0,63.0,66.0,64.0,66.0,61.0,61.0,58.0,56.0,58.0,58.0,60.0,61.0,62.0,65.0,62.0,62.0,62.0,59.0,58.0,61.0,63.0,58.0,63.0,67.0,61.0,62.0,57.0,61.0,57.0,56.0,59.0,60.0,64.0,65.0,64.0,62.0,64.0,62.0,63.0,61.0,63.0,61.0,72.0,73.0,72.0,68.0,65.0,65.0,62.0,63.0,69.0,68.0,69.0,65.0,63.0,62.0,59.0,58.0,54.0,57.0,62.0,61.0,58.0,61.0,64.0,65.0,63.0,63.0,64.0,63.0,63.0,65.0,68.0,68.0,68.0,73.0,70.0,67.0,64.0,61.0,57.0,63.0,62.0,61.0,59.0,60.0,60.0,58.0,60.0,61.0,56.0,53.0,56.0,62.0,60.0,61.0,61.0,56.0,55.0,54.0,58.0,61.0,70.0,75.0,70.0,68.0,64.0,60.0,56.0,54.0,54.0,60.0,62.0,62.0,69.0,69.0,67.0,66.0,70.0,71.0,73.0,68.0,69.0,74.0,73.0,74.0,71.0,69.0,70.0,69.0,72.0,83.0,86.0,85.0,83.0,90.0,87.0,86.0,80.0,85.0,92.0,96.0,96.0,96.0,94.0,92.0,91.0,98.0,93.0,89.0,85.0,84.0,84.0,84.0,85.0,84.0,80.0,85.0,90.0,105.0,99.0,90.0,84.0,81.0,74.0,68.0,66.0,66.0,78.0,77.0,79.0,80.0,81.0,87.0,84.0,82.0,80.0,82.0,77.0,76.0,77.0,80.0,77.0,71.0,67.0,62.0,64.0,62.0,62.0,64.0,61.0,64.0,93.0,93.0,92.0,89.0,102.0,109.0,110.0,111.0,117.0,116.0,116.0,135.0,128.0,130.0,119.0,126.0,149.0,152.0,163.0,154.0,151.0,156.0,151.0,136.0,134.0,128.0,132.0,146.0,141.0,167.0,171.0,170.0,184.0,187.0,198.0,207.0,210.0,203.0,215.0,259.0,266.0,340.0,327.0,303.0,291.0,266.0,318.0,359.0,348.0,358.0,362.0,391.0,423.0,389.0,364.0,336.0,344.0,339.0,335.0,320.0,337.0,369.0,356.0,334.0,385.0,410.0,369.0,361.0,356.0,340.0,326.0,322.0,336.0,328.0,313.0,279.0,279.0,294.0,280.0,259.0,233.0,241.0,249.0,251.0,231.0,227.0,234.0,235.0,225.0,234.0,227.0,247.0,232.0,245.0,292.0,280.0,300.0,304.0,293.0,278.0,280.0,272.0,275.0,260.0,245.0,255.0,252.0,271.0,280.0,273.0,261.0,258.0,252.0,236.0,226.0,234.0,242.0,237.0,223.0,231.0,232.0,258.0,244.0,237.0,242.0,235.0,251.0,239.0,225.0,216.0,226.0,238.0,222.0,215.0,221.0,210.0,204.0,192.0,193.0,186.0,193.0,176.0,195.0,202.0,212.0,206.0,202.0,197.0,181.0,177.0,170.0,184.0,175.0,177.0,194.0,206.0,216.0,202.0,200.0,196.0,206.0,194.0,213.0,203.0,208.0,199.0,196.0,191.0,189.0,185.0,173.0,167.0,169.0,202.0,215.0,211.0,196.0,190.0,181.0,184.0,186.0,178.0,262.0,247.0,227.0,238.0,258.0,257.0,234.0,222.0,219.0,201.0,183.0,180.0,174.0,164.0,161.0,158.0,159.0,159.0,180.0,189.0,188.0,178.0,175.0,163.0,163.0,176.0,178.0,170.0,168.0,157.0,146.0,153.0,151.0,154.0,164.0,168.0,179.0,181.0,171.0,174.0,165.0,162.0,177.0,171.0,177.0,178.0,165.0,167.0,161.0,154.0,157.0,147.0,144.0,163.0,181.0,168.0,168.0,184.0,181.0,172.0,164.0,153.0,153.0,147.0,161.0,160.0,166.0,154.0,145.0,140.0,161.0,156.0,152.0,153.0,149.0,155.0,171.0,176.0,210.0,246.0,270.0,268.0,256.0,260.0,268.0,253.0,277.0,290.0,292.0,289.0,281.0,285.0,270.0,247.0,241.0,258.0,286.0,261.0,263.0,270.0,269.0,273.0,251.0,239.0,230.0,216.0,210.0,213.0,219.0,213.0,201.0,188.0,182.0,194.0,197.0,192.0,189.0,187.0,183.0,182.0,178.0,170.0,161.0,170.0,160.0,154.0,146.0,141.0,145.0,148.0,152.0,144.0,144.0,160.0,193.0,189.0,180.0,171.0,170.0,199.0,194.0,192.0,188.0,188.0,181.0,168.0,161.0,163.0,159.0,153.0,144.0,134.0,128.0,145.0,152.0,155.0,159.0,156.0,168.0,163.0,151.0,139.0,139.0,157.0,158.0,161.0,151.0,160.0,154.0,180.0,180.0,168.0,152.0,137.0,154.0,164.0,156.0,171.0,159.0,212.0,193.0,174.0,154.0,138.0,123.0,129.0,122.0,116.0,109.0,108.0,140.0,167.0,169.0,169.0,167.0,192.0,190.0,186.0,181.0,179.0,174.0,176.0,187.0,180.0,180.0,190.0,197.0,186.0,178.0,213.0,203.0,183.0,211.0,204.0,188.0,189.0,190.0,195.0,180.0,172.0,157.0,147.0,162.0,165.0,157.0,152.0,150.0,144.0,133.0,126.0,120.0,116.0,121.0,116.0,120.0,114.0,116.0,125.0,120.0,114.0,123.0,131.0,132.0,129.0,130.0,127.0,122.0,116.0,108.0,117.0,115.0,109.0,120.0,129.0,134.0,122.0,122.0,153.0,157.0,152.0,149.0,154.0,160.0,152.0,147.0,136.0,144.0,137.0,165.0,174.0,167.0,172.0,166.0,150.0,142.0,135.0,131.0,132.0,129.0,147.0,142.0,148.0,148.0,146.0,152.0,159.0,160.0,203.0,202.0,236.0,256.0,238.0,231.0,220.0,218.0,211.0,205.0,192.0,182.0,183.0,172.0,162.0,163.0,166.0,165.0,166.0,160.0,158.0,159.0,162.0,180.0,175.0,177.0,172.0,201.0,202.0,198.0,194.0,184.0,176.0,172.0,207.0,202.0,188.0,186.0,173.0,188.0,178.0,190.0,178.0,162.0,160.0,165.0,159.0,160.0,196.0,186.0,182.0,179.0,182.0,190.0,192.0,187.0,186.0,179.0,190.0,185.0,190.0,185.0,175.0,179.0,209.0,208.0,211.0,206.0,200.0,199.0,194.0,198.0,190.0,185.0,178.0,197.0,187.0,182.0,182.0,206.0,218.0,209.0,226.0,222.0,222.0,218.0,209.0,196.0,191.0,186.0,195.0,191.0,188.0,185.0,186.0,189.0,182.0,183.0,189.0,191.0,200.0,232.0,295.0,285.0,286.0,349.0,324.0,320.0,322.0,313.0,323.0,335.0,309.0,299.0,288.0,298.0,319.0,334.0,327.0,336.0,344.0,318.0,305.0,302.0,288.0,272.0,275.0,273.0,272.0,283.0,284.0,302.0,292.0,270.0,271.0,259.0,250.0,243.0,246.0,253.0,244.0,238.0,244.0,246.0,231.0,231.0,232.0,226.0,207.0,217.0,213.0,206.0,203.0,240.0,230.0,214.0,217.0,212.0,205.0,206.0,198.0,202.0,192.0,187.0,186.0,174.0,168.0,165.0,172.0,166.0,168.0,164.0,158.0,159.0,164.0,154.0,157.0,147.0,143.0,152.0,136.0,136.0,135.0,133.0,133.0,133.0,129.0,136.0,138.0,131.0,135.0,136.0,159.0,145.0,134.0,135.0,137.0,132.0,131.0,130.0,137.0,135.0,132.0,128.0,134.0,134.0,124.0,119.0,115.0,113.0,106.0,99.0,96.0,93.0,99.0,97.0,95.0,103.0,99.0,98.0,96.0,102.0,101.0,104.0,99.0,98.0,105.0,102.0,100.0,99.0
