63.0,63.0,64.0,64.0,65.0,65.0,65.0,64.0,65.0,67.0,67.0,70.0,69.0,70.0,71.0,72.0,72.0,71.0,72.0,72.0,71.0,71.0,72.0,73.0,73.0,73.0,74.0,75.0,76.0,77.0,77.0,77.0,78.0,79.0,79.0,79.0,78.0,74.0,76.0,77.0,79.0,78.0,80.0,79.0,80.0,80.0,79.0,79.0,77.0,78.0,77.0,78.0,78.0,77.0,78.0,75.0,74.0,74.0,74.0,75.0,74.0,73.0,72.0,69.0,70.0,70.0,70.0,70.0,69.0,70.0,68.0,66.0,67.0,67.0,66.0,65.0,67.0,65.0,65.0,66.0,65.0,64.0,63.0,64.0,66.0,65.0,66.0,66.0,64.0,64.0,64.0,65.0,66.0,65.0,63.0,63.0,64.0,65.0,66.0,66.0,66.0,67.0,64.0,64.0,65.0,66.0,66.0,66.0,66.0,64.0,64.0,65.0,63.0,65.0,65.0,65.0,63.0,64.0,63.0,62.0,62.0,63.0,61.0,62.0,62.0,61.0,61.0,61.0,60.0,60.0,60.0,61.0,62.0,63.0,61.0,62.0,64.0,66.0,66.0,65.0,65.0,67.0,70.0,70.0,70.0,72.0,73.0,83.0,84.0,102.0,119.0,124.0,125.0,129.0,124.0,127.0,146.0,173.0,193.0,214.0,217.0,238.0,243.0,239.0,264.0,273.0,265.0,270.0,266.0,266.0,245.0,234.0,218.0,203.0,185.0,172.0,163.0,154.0,155.0,151.0,145.0,136.0,133.0,169.0,193.0,197.0,185.0,169.0,154.0,148.0,140.0,131.0,123.0,116.0,114.0,108.0,103.0,97.0,95.0,93.0,89.0,90.0,86.0,88.0,83.0,83.0,82.0,82.0,80.0,76.0,79.0,82.0,78.0,81.0,82.0,79.0,79.0,78.0,74.0,75.0,71.0,70.0,67.0,67.0,64.0,66.0,67.0,65.0,64.0,63.0,65.0,65.0,65.0,65.0,65.0,63.0,61.0,60.0,58.0,57.0,56.0,58.0,57.0,59.0,60.0,64.0,62.0,64.0,64.0,64.0,61.0,59.0,59.0,56.0,56.0,56.0,55.0,53.0,53.0,54.0,52.0,53.0,53.0,53.0,54.0,53.0,53.0,54.0,54.0,60.0,59.0,59.0,59.0,57.0,58.0,56.0,55.0,55.0,55.0,54.0,53.0,53.0,52.0,52.0,52.0,52.0,53.0,51.0,52.0,52.0,53.0,56.0,55.0,56.0,55.0,57.0,58.0,56.0,57.0,58.0,58.0,57.0,57.0,59.0,58.0,60.0,59.0,61.0,60.0,59.0,59.0,58.0,58.0,58.0,58.0,57.0,59.0,60.0,61.0,62.0,61.0,62.0,64.0,65.0,65.0,66.0,65.0,63.0,66.0,65.0,67.0,65.0,66.0,65.0,64.0,68.0,66.0,67.0,66.0,65.0,66.0,64.0,65.0,66.0,66.0,67.0,69.0,68.0,70.0,69.0,69.0,69.0,69.0,68.0,69.0,65.0,65.0,64.0,65.0,65.0,66.0,69.0,66.0,65.0,68.0,69.0,68.0,68.0,68.0,71.0,66.0,68.0,69.0,67.0,69.0,69.0,69.0,68.0,68.0,69.0,67.0,69.0,67.0,68.0,67.0,64.0,64.0,65.0,63.0,65.0,64.0,64.0,63.0,65.0,65.0,65.0,65.0,65.0,64.0,64.0,66.0,67.0,69.0,68.0,69.0,69.0,71.0,70.0,71.0,73.0,72.0,71.0,72.0,70.0,69.0,69.0,71.0,72.0,69.0,71.0,71.0,72.0,72.0,72.0,72.0,73.0,72.0,72.0,70.0,70.0,69.0,68.0,69.0,67.0,69.0,68.0,67.0,67.0,66.0,65.0,66.0,65.0,67.0,64.0,63.0,65.0,64.0,63.0,61.0,65.0,65.0,71.0,69.0,69.0,68.0,74.0,77.0,83.0,84.0,87.0,89.0,91.0,90.0,94.0,106.0,108.0,105.0,101.0,96.0,96.0,95.0,95.0,93.0,87.0,86.0,82.0,88.0,98.0,100.0,96.0,94.0,93.0,92.0,90.0,87.0,87.0,85.0,84.0,82.0,80.0,80.0,79.0,78.0,77.0,76.0,75.0,77.0,75.0,75.0,75.0,73.0,70.0,71.0,71.0,70.0,72.0,69.0,69.0,69.0,68.0,70.0,68.0,68.0,70.0,68.0,69.0,68.0,69.0,67.0,67.0,69.0,68.0,70.0,68.0,68.0,68.0,65.0,68.0,66.0,67.0,67.0,68.0,66.0,65.0,65.0,68.0,66.0,68.0,66.0,66.0,64.0,63.0,61.0,62.0,61.0,61.0,59.0,58.0,56.0,56.0,55.0,55.0,56.0,54.0,54.0,54.0,52.0,54.0,53.0,54.0,54.0,53.0,53.0,53.0,52.0,52.0,52.0,53.0,52.0,52.0,53.0,55.0,56.0,55.0,53.0,53.0,53.0,53.0,54.0,53.0,53.0,53.0,52.0,53.0,55.0,52.0,53.0,53.0,54.0,52.0,53.0,53.0,53.0,54.0,53.0,54.0,55.0,54.0,56.0,56.0,57.0,55.0,56.0,56.0,55.0,56.0,57.0,57.0,58.0,57.0,59.0,57.0,57.0,57.0,56.0,56.0,56.0,55.0,56.0,56.0,59.0,57.0,55.0,56.0,55.0,56.0,55.0,55.0,55.0,53.0,55.0,55.0,55.0,54.0,53.0,52.0,51.0,53.0,53.0,54.0,53.0,54.0,54.0,54.0,55.0,55.0,53.0,52.0,52.0,53.0,53.0,54.0,52.0,53.0,52.0,52.0,53.0,52.0,51.0,50.0,47.0,49.0,48.0,50.0,50.0,51.0,51.0,50.0,53.0,50.0,50.0,51.0,51.0,51.0,51.0,51.0,52.0,50.0,53.0,52.0,52.0,51.0,52.0,54.0,52.0,51.0,50.0,50.0,49.0,49.0,52.0,50.0,50.0,49.0,49.0,49.0,52.0,52.0,51.0,52.0,50.0,51.0,51.0,51.0,51.0,52.0,48.0,49.0,49.0,49.0,48.0,49.0,50.0,48.0,48.0,48.0,48.0,50.0,50.0,51.0,51.0,52.0,52.0,52.0,52.0,53.0,53.0,53.0,50.0,51.0,52.0,52.0,51.0,50.0,52.0,50.0,50.0,50.0,49.0,50.0,49.0,51.0,51.0,50.0,49.0,49.0,49.0,49.0,48.0,47.0,48.0,48.0,49.0,47.0,48.0,47.0,49.0,48.0,47.0,48.0,48.0,48.0,47.0,48.0,48.0,48.0,48.0,47.0,48.0,49.0,49.0,48.0,50.0,49.0,48.0,48.0,48.0,49.0,48.0,49.0,51.0,51.0,50.0,51.0,51.0,50.0,48.0,48.0,47.0,47.0,48.0,47.0,47.0,45.0,46.0,46.0,46.0,45.0,45.0,45.0,45.0,44.0,45.0,45.0,45.0,47.0,47.0,48.0,46.0,47.0,48.0,47.0,50.0,49.0,50.0,48.0,48.0,46.0,47.0,48.0,48.0,47.0,48.0,46.0,47.0,47.0,47.0,47.0,47.0,48.0,46.0,47.0,48.0,48.0,48.0,48.0,49.0,48.0,48.0,49.0,48.0,49.0,49.0,49.0,48.0,46.0,47.0,47.0,47.0,47.0,47.0,50.0,50.0,49.0,49.0,49.0,49.0,49.0,51.0,50.0,50.0,50.0,48.0,48.0,48.0,47.0,48.0,48.0,48.0,48.0,47.0,47.0,48.0,48.0,48.0,48.0,47.0,48.0,48.0,49.0,50.0,50.0,52.0,54.0,54.0,57.0,56.0,58.0,58.0,57.0,59.0,59.0,61.0,60.0,61.0,61.0,62.0,61.0,59.0,59.0,60.0,60.0,61.0,60.0,61.0,61.0,60.0,59.0,58.0,61.0,61.0,63.0,64.0,64.0,64.0,64.0,65.0,64.0,62.0,63.0,61.0,62.0,62.0,62.0,61.0,58.0,57.0,57.0,57.0,55.0,56.0,56.0,56.0,55.0,56.0,57.0,57.0,58.0,59.0,57.0,58.0,60.0,60.0,60.0,59.0,61.0,60.0,61.0,61.0,62.0,64.0,63.0,64.0,65.0,64.0,65.0,64.0,64.0,64.0,64.0,65.0,62.0,63.0,64.0,64.0,66.0,66.0,68.0,69.0,69.0,71.0,70.0,71.0,70.0,69.0,71.0,71.0,72.0,72.0,71.0,71.0,69.0,70.0,71.0,70.0,72.0,71.0,70.0,70.0,68.0,68.0,68.0,69.0,70.0,70.0,71.0,70.0,70.0,70.0,72.0
42.0,42.0,43.0,42.0,43.0,43.0,42.0,41.0,42.0,42.0,40.0,42.0,42.0,44.0,44.0,44.0,43.0,44.0,43.0,46.0,43.0,45.0,47.0,45.0,47.0,46.0,48.0,49.0,48.0,50.0,49.0,51.0,50.0,52.0,53.0,53.0,57.0,61.0,65.0,68.0,70.0,70.0,67.0,67.0,68.0,68.0,67.0,66.0,65.0,66.0,66.0,67.0,68.0,67.0,68.0,66.0,65.0,67.0,69.0,69.0,70.0,69.0,69.0,67.0,69.0,69.0,69.0,69.0,68.0,70.0,68.0,65.0,67.0,71.0,70.0,72.0,71.0,71.0,70.0,69.0,70.0,66.0,67.0,66.0,67.0,68.0,68.0,67.0,68.0,66.0,68.0,70.0,73.0,71.0,70.0,71.0,73.0,76.0,74.0,75.0,74.0,75.0,73.0,71.0,72.0,72.0,71.0,71.0,71.0,71.0,71.0,70.0,69.0,69.0,71.0,71.0,68.0,69.0,68.0,66.0,66.0,66.0,64.0,64.0,64.0,62.0,65.0,64.0,62.0,61.0,60.0,62.0,62.0,63.0,61.0,59.0,62.0,58.0,58.0,56.0,55.0,55.0,56.0,55.0,55.0,54.0,53.0,55.0,53.0,55.0,57.0,58.0,56.0,56.0,55.0,55.0,60.0,67.0,75.0,80.0,83.0,85.0,86.0,86.0,94.0,91.0,99.0,95.0,101.0,107.0,105.0,109.0,106.0,107.0,103.0,106.0,100.0,96.0,98.0,92.0,87.0,87.0,83.0,92.0,92.0,90.0,88.0,84.0,84.0,83.0,82.0,82.0,86.0,85.0,81.0,80.0,81.0,85.0,81.0,83.0,82.0,77.0,79.0,78.0,82.0,83.0,86.0,82.0,83.0,88.0,85.0,86.0,88.0,87.0,85.0,85.0,82.0,80.0,85.0,82.0,80.0,80.0,78.0,75.0,77.0,75.0,74.0,71.0,71.0,70.0,67.0,68.0,68.0,69.0,68.0,66.0,66.0,65.0,65.0,64.0,63.0,64.0,62.0,62.0,64.0,61.0,62.0,62.0,63.0,62.0,65.0,62.0,62.0,63.0,63.0,63.0,64.0,63.0,64.0,64.0,65.0,63.0,69.0,68.0,66.0,67.0,65.0,63.0,62.0,61.0,62.0,60.0,60.0,62.0,61.0,63.0,65.0,69.0,67.0,65.0,64.0,68.0,65.0,64.0,61.0,61.0,59.0,61.0,61.0,58.0,59.0,57.0,59.0,58.0,60.0,62.0,60.0,59.0,58.0,61.0,60.0,60.0,63.0,61.0,62.0,61.0,62.0,59.0,60.0,61.0,61.0,62.0,62.0,61.0,63.0,68.0,68.0,66.0,64.0,62.0,65.0,67.0,63.0,63.0,62.0,63.0,65.0,69.0,68.0,69.0,64.0,63.0,61.0,60.0,62.0,61.0,62.0,60.0,59.0,59.0,58.0,58.0,57.0,59.0,58.0,60.0,58.0,61.0,59.0,59.0,61.0,58.0,57.0,54.0,54.0,55.0,57.0,56.0,55.0,52.0,52.0,53.0,52.0,50.0,49.0,49.0,48.0,49.0,49.0,48.0,50.0,48.0,47.0,45.0,44.0,44.0,49.0,47.0,47.0,47.0,46.0,46.0,46.0,46.0,46.0,47.0,45.0,43.0,44.0,44.0,44.0,43.0,43.0,41.0,42.0,40.0,41.0,41.0,43.0,43.0,43.0,43.0,42.0,44.0,43.0,43.0,41.0,42.0,42.0,41.0,40.0,40.0,41.0,42.0,42.0,41.0,42.0,40.0,42.0,42.0,42.0,41.0,41.0,42.0,40.0,40.0,41.0,41.0,39.0,40.0,40.0,40.0,39.0,40.0,40.0,41.0,40.0,39.0,40.0,39.0,40.0,41.0,40.0,40.0,41.0,43.0,40.0,39.0,40.0,39.0,42.0,44.0,50.0,53.0,55.0,69.0,75.0,78.0,77.0,79.0,86.0,87.0,89.0,86.0,90.0,90.0,90.0,89.0,86.0,85.0,85.0,86.0,82.0,78.0,75.0,73.0,72.0,71.0,68.0,64.0,63.0,63.0,61.0,59.0,60.0,58.0,55.0,54.0,53.0,52.0,51.0,51.0,51.0,51.0,49.0,48.0,50.0,52.0,52.0,53.0,51.0,50.0,50.0,49.0,49.0,50.0,48.0,46.0,45.0,46.0,45.0,45.0,46.0,46.0,45.0,45.0,45.0,44.0,46.0,46.0,46.0,44.0,46.0,45.0,45.0,43.0,44.0,44.0,45.0,45.0,46.0,45.0,45.0,46.0,46.0,51.0,51.0,50.0,48.0,48.0,50.0,48.0,46.0,47.0,47.0,47.0,45.0,45.0,47.0,46.0,45.0,46.0,45.0,45.0,43.0,44.0,48.0,49.0,49.0,49.0,47.0,45.0,48.0,48.0,48.0,50.0,49.0,49.0,47.0,50.0,50.0,50.0,48.0,48.0,49.0,49.0,49.0,52.0,51.0,49.0,50.0,51.0,51.0,51.0,51.0,53.0,53.0,55.0,56.0,58.0,58.0,59.0,59.0,58.0,57.0,56.0,56.0,58.0,60.0,60.0,58.0,60.0,59.0,59.0,61.0,60.0,59.0,58.0,58.0,57.0,54.0,52.0,51.0,52.0,51.0,50.0,51.0,52.0,50.0,52.0,51.0,50.0,50.0,50.0,49.0,48.0,49.0,49.0,49.0,49.0,50.0,50.0,50.0,52.0,54.0,56.0,56.0,55.0,57.0,55.0,57.0,55.0,56.0,55.0,54.0,59.0,58.0,57.0,59.0,61.0,59.0,58.0,60.0,59.0,59.0,63.0,62.0,61.0,60.0,60.0,61.0,61.0,63.0,62.0,62.0,61.0,60.0,60.0,59.0,59.0,60.0,61.0,62.0,60.0,61.0,59.0,59.0,61.0,59.0,59.0,57.0,59.0,58.0,59.0,59.0,57.0,58.0,59.0,57.0,58.0,57.0,57.0,56.0,59.0,58.0,58.0,56.0,58.0,57.0,55.0,53.0,54.0,54.0,54.0,55.0,54.0,55.0,53.0,53.0,53.0,52.0,53.0,51.0,51.0,51.0,53.0,53.0,54.0,56.0,58.0,60.0,63.0,64.0,66.0,66.0,67.0,66.0,67.0,68.0,68.0,70.0,68.0,69.0,70.0,72.0,72.0,70.0,69.0,68.0,63.0,61.0,60.0,60.0,58.0,57.0,57.0,56.0,55.0,52.0,51.0,53.0,52.0,52.0,52.0,50.0,52.0,51.0,53.0,51.0,55.0,54.0,54.0,53.0,53.0,51.0,50.0,50.0,51.0,50.0,49.0,49.0,49.0,51.0,49.0,52.0,49.0,48.0,47.0,48.0,50.0,49.0,50.0,48.0,46.0,44.0,43.0,44.0,43.0,44.0,43.0,40.0,41.0,41.0,41.0,43.0,41.0,42.0,41.0,41.0,40.0,42.0,43.0,42.0,44.0,41.0,43.0,44.0,43.0,42.0,41.0,44.0,42.0,44.0,44.0,42.0,44.0,43.0,43.0,45.0,42.0,43.0,43.0,42.0,43.0,42.0,46.0,44.0,44.0,44.0,45.0,44.0,44.0,44.0,44.0,43.0,45.0,43.0,43.0,42.0,44.0,44.0,44.0,45.0,45.0,43.0,43.0,43.0,42.0,42.0,43.0,44.0,46.0,45.0,44.0,43.0,43.0,44.0,43.0,43.0,42.0,44.0,43.0,41.0,42.0,42.0,41.0,41.0,41.0,41.0,41.0,39.0,38.0,38.0,37.0,36.0,36.0,39.0,38.0,38.0,37.0,38.0,38.0,37.0,38.0,37.0,36.0,38.0,37.0,38.0,39.0,40.0,40.0,39.0,40.0,39.0,39.0,39.0,41.0,43.0,42.0,44.0,45.0,45.0,45.0,45.0,45.0,45.0,44.0,44.0,44.0,45.0,44.0,43.0,44.0,42.0,43.0,42.0,41.0,43.0,42.0,43.0,41.0,40.0,40.0,40.0,40.0,39.0,41.0,40.0,40.0,41.0,40.0,39.0,41.0,42.0,43.0,45.0,45.0,46.0,47.0,48.0,47.0,46.0,46.0,47.0,45.0,46.0,45.0,45.0,43.0,42.0,45.0,44.0,43.0,45.0,44.0,43.0,43.0,44.0,46.0,45.0,48.0,48.0,47.0,49.0,50.0,53.0,53.0,55.0,56.0,57.0,57.0,56.0,58.0,58.0,57.0,57.0,55.0,55.0,54.0,53.0,53.0,52.0,51.0,52.0,52.0,53.0,52.0,53.0,53.0,53.0,54.0,53.0,54.0,52.0,54.0,53.0,52.0,51.0,50.0
16.0,17.0,27.0,27.0,23.0,21.0,19.0,17.0,16.0,14.0,14.0,13.0,12.0,22.0,21.0,20.0,18.0,17.0,16.0,16.0,15.0,21.0,21.0,19.0,17.0,17.0,16.0,16.0,14.0,13.0,19.0,17.0,27.0,29.0,26.0,23.0,21.0,28.0,24.0,29.0,28.0,26.0,24.0,21.0,19.0,18.0,17.0,17.0,18.0,25.0,22.0,19.0,20.0,17.0,17.0,17.0,16.0,16.0,14.0,14.0,24.0,21.0,21.0,21.0,21.0,23.0,20.0,32.0,29.0,26.0,34.0,41.0,48.0,49.0,47.0,40.0,36.0,35.0,33.0,30.0,42.0,39.0,36.0,43.0,41.0,41.0,36.0,41.0,39.0,40.0,37.0,37.0,34.0,39.0,48.0,51.0,52.0,50.0,58.0,64.0,61.0,53.0,47.0,49.0,49.0,45.0,42.0,36.0,34.0,34.0,32.0,47.0,45.0,41.0,38.0,35.0,35.0,42.0,36.0,44.0,41.0,39.0,36.0,31.0,43.0,41.0,37.0,32.0,30.0,29.0,30.0,34.0,44.0,39.0,35.0,52.0,48.0,44.0,39.0,35.0,41.0,37.0,51.0,56.0,49.0,47.0,43.0,40.0,47.0,41.0,37.0,38.0,36.0,35.0,31.0,28.0,25.0,28.0,25.0,29.0,26.0,32.0,30.0,26.0,29.0,26.0,29.0,27.0,24.0,26.0,31.0,35.0,46.0,55.0,57.0,56.0,60.0,53.0,48.0,42.0,42.0,48.0,54.0,54.0,49.0,63.0,62.0,60.0,60.0,59.0,59.0,52.0,71.0,71.0,66.0,59.0,52.0,58.0,56.0,69.0,82.0,72.0,71.0,66.0,62.0,57.0,68.0,60.0,56.0,54.0,49.0,50.0,43.0,42.0,43.0,57.0,50.0,44.0,45.0,47.0,41.0,41.0,59.0,56.0,55.0,59.0,59.0,56.0,55.0,58.0,51.0,50.0,56.0,71.0,82.0,74.0,68.0,69.0,61.0,63.0,64.0,69.0,68.0,68.0,68.0,72.0,66.0,57.0,58.0,61.0,72.0,63.0,61.0,56.0,56.0,49.0,44.0,44.0,41.0,43.0,46.0,46.0,48.0,45.0,42.0,44.0,49.0,50.0,47.0,44.0,42.0,42.0,40.0,41.0,37.0,42.0,52.0,47.0,42.0,37.0,36.0,35.0,30.0,28.0,25.0,27.0,24.0,24.0,22.0,20.0,23.0,21.0,30.0,31.0,43.0,52.0,47.0,44.0,40.0,36.0,39.0,46.0,45.0,43.0,38.0,51.0,57.0,59.0,54.0,45.0,42.0,36.0,32.0,30.0,27.0,29.0,37.0,39.0,36.0,32.0,30.0,26.0,23.0,20.0,18.0,17.0,14.0,14.0,13.0,15.0,13.0,12.0,11.0,10.0,14.0,14.0,16.0,18.0,15.0,16.0,14.0,15.0,14.0,15.0,14.0,13.0,13.0,17.0,16.0,14.0,13.0,11.0,16.0,13.0,16.0,13.0,12.0,19.0,18.0,19.0,17.0,18.0,18.0,15.0,15.0,16.0,16.0,15.0,15.0,14.0,26.0,25.0,21.0,20.0,17.0,15.0,15.0,12.0,17.0,16.0,14.0,13.0,12.0,12.0,10.0,10.0,10.0,9.0,9.0,13.0,13.0,12.0,10.0,12.0,11.0,11.0,9.0,9.0,11.0,12.0,12.0,11.0,10.0,9.0,9.0,11.0,10.0,11.0,10.0,9.0,8.0,8.0,7.0,6.0,6.0,6.0,5.0,5.0,4.0,7.0,7.0,6.0,6.0,6.0,5.0,5.0,5.0,7.0,4.0,5.0,7.0,7.0,7.0,10.0,11.0,10.0,10.0,10.0,9.0,8.0,8.0,7.0,8.0,6.0,7.0,7.0,6.0,6.0,5.0,6.0,14.0,24.0,85.0,99.0,131.0,231.0,319.0,326.0,293.0,305.0,338.0,357.0,325.0,292.0,309.0,295.0,282.0,253.0,262.0,251.0,238.0,231.0,205.0,206.0,188.0,190.0,190.0,177.0,178.0,161.0,151.0,146.0,137.0,129.0,136.0,126.0,119.0,111.0,108.0,104.0,101.0,96.0,89.0,87.0,78.0,80.0,75.0,75.0,83.0,77.0,73.0,72.0,67.0,63.0,71.0,73.0,64.0,67.0,67.0,72.0,65.0,60.0,83.0,73.0,65.0,58.0,55.0,59.0,56.0,61.0,56.0,54.0,52.0,46.0,44.0,40.0,39.0,43.0,41.0,41.0,40.0,36.0,38.0,34.0,33.0,36.0,42.0,45.0,38.0,38.0,45.0,49.0,45.0,49.0,50.0,43.0,39.0,34.0,43.0,49.0,47.0,46.0,39.0,38.0,34.0,30.0,34.0,44.0,47.0,41.0,35.0,33.0,38.0,36.0,39.0,46.0,43.0,53.0,61.0,61.0,61.0,63.0,57.0,51.0,46.0,45.0,41.0,48.0,45.0,45.0,47.0,46.0,43.0,51.0,45.0,56.0,51.0,46.0,42.0,44.0,51.0,50.0,65.0,59.0,58.0,52.0,48.0,55.0,60.0,51.0,52.0,53.0,50.0,45.0,51.0,52.0,46.0,44.0,41.0,39.0,37.0,32.0,32.0,40.0,36.0,33.0,30.0,33.0,32.0,36.0,31.0,27.0,27.0,26.0,25.0,32.0,32.0,39.0,38.0,36.0,33.0,36.0,36.0,31.0,31.0,43.0,41.0,41.0,41.0,38.0,41.0,37.0,40.0,35.0,32.0,31.0,30.0,28.0,32.0,35.0,35.0,31.0,37.0,38.0,32.0,38.0,46.0,45.0,43.0,39.0,36.0,33.0,47.0,50.0,53.0,50.0,45.0,49.0,47.0,42.0,48.0,60.0,57.0,51.0,52.0,49.0,48.0,44.0,50.0,49.0,44.0,50.0,45.0,46.0,54.0,48.0,43.0,40.0,36.0,37.0,41.0,40.0,37.0,40.0,40.0,43.0,41.0,54.0,57.0,54.0,52.0,47.0,42.0,40.0,44.0,38.0,36.0,44.0,38.0,35.0,35.0,41.0,41.0,38.0,46.0,43.0,47.0,58.0,59.0,53.0,47.0,54.0,49.0,49.0,47.0,49.0,49.0,54.0,48.0,46.0,50.0,45.0,41.0,37.0,33.0,34.0,31.0,29.0,39.0,39.0,33.0,31.0,46.0,40.0,38.0,43.0,42.0,37.0,38.0,35.0,34.0,43.0,38.0,34.0,31.0,29.0,27.0,28.0,28.0,40.0,38.0,44.0,43.0,44.0,42.0,37.0,42.0,42.0,42.0,38.0,37.0,36.0,42.0,37.0,40.0,38.0,36.0,34.0,32.0,35.0,42.0,37.0,34.0,31.0,28.0,29.0,36.0,35.0,36.0,34.0,34.0,30.0,31.0,25.0,39.0,34.0,30.0,30.0,32.0,32.0,36.0,38.0,35.0,32.0,30.0,32.0,32.0,29.0,34.0,32.0,41.0,37.0,43.0,37.0,33.0,28.0,29.0,25.0,34.0,31.0,39.0,37.0,36.0,32.0,29.0,37.0,33.0,33.0,31.0,34.0,30.0,27.0,25.0,31.0,28.0,41.0,38.0,34.0,30.0,33.0,29.0,32.0,34.0,34.0,30.0,26.0,23.0,20.0,20.0,19.0,32.0,40.0,36.0,33.0,29.0,26.0,26.0,23.0,21.0,20.0,29.0,26.0,22.0,20.0,18.0,17.0,16.0,15.0,18.0,15.0,14.0,13.0,11.0,11.0,9.0,8.0,9.0,9.0,8.0,7.0,12.0,10.0,10.0,10.0,9.0,8.0,7.0,8.0,10.0,11.0,19.0,19.0,18.0,15.0,15.0,13.0,15.0,20.0,18.0,17.0,25.0,23.0,21.0,18.0,15.0,14.0,15.0,15.0,15.0,14.0,24.0,22.0,20.0,18.0,16.0,15.0,14.0,12.0,13.0,11.0,11.0,11.0,11.0,9.0,9.0,8.0,7.0,11.0,13.0,13.0,23.0,21.0,17.0,17.0,15.0,13.0,13.0,11.0,12.0,11.0,16.0,17.0,15.0,13.0,11.0,12.0,12.0,11.0,14.0,12.0,11.0,19.0,18.0,16.0,15.0,15.0,12.0,11.0,16.0,14.0,13.0,17.0,17.0,15.0,12.0,12.0,11.0,13.0,11.0,10.0,13.0,12.0,11.0,18.0,25.0,24.0,20.0,18.0,16.0,15.0,15.0,17.0,17.0,15.0,25.0,22.0,22.0,20.0,18.0,16.0,14.0,13.0,12.0,10.0,10.0,26.0,29.0,30.0,26.0,24.0
66.0,67.0,70.0,71.0,68.0,67.0,65.0,64.0,62.0,62.0,60.0,61.0,64.0,65.0,65.0,64.0,62.0,61.0,61.0,66.0,66.0,66.0,65.0,64.0,61.0,61.0,57.0,61.0,61.0,58.0,65.0,73.0,71.0,71.0,70.0,73.0,73.0,69.0,71.0,69.0,74.0,77.0,73.0,69.0,72.0,70.0,72.0,76.0,75.0,70.0,73.0,73.0,78.0,78.0,77.0,76.0,72.0,76.0,77.0,73.0,72.0,70.0,71.0,76.0,77.0,84.0,80.0,82.0,85.0,81.0,82.0,81.0,87.0,100.0,104.0,103.0,103.0,94.0,95.0,92.0,88.0,85.0,89.0,82.0,83.0,91.0,89.0,83.0,80.0,82.0,78.0,75.0,71.0,74.0,76.0,73.0,75.0,78.0,72.0,68.0,69.0,70.0,78.0,74.0,80.0,79.0,78.0,76.0,75.0,81.0,78.0,80.0,88.0,91.0,90.0,88.0,87.0,85.0,85.0,83.0,76.0,75.0,77.0,81.0,77.0,72.0,74.0,77.0,77.0,73.0,75.0,77.0,76.0,74.0,77.0,76.0,77.0,75.0,82.0,90.0,103.0,110.0,115.0,115.0,117.0,121.0,116.0,115.0,107.0,102.0,102.0,95.0,95.0,104.0,99.0,99.0,97.0,115.0,108.0,111.0,108.0,108.0,117.0,117.0,114.0,127.0,131.0,127.0,129.0,135.0,170.0,210.0,203.0,220.0,206.0,214.0,222.0,241.0,260.0,249.0,234.0,241.0,220.0,210.0,219.0,273.0,263.0,255.0,252.0,262.0,251.0,233.0,228.0,224.0,217.0,213.0,207.0,275.0,280.0,257.0,238.0,237.0,228.0,232.0,225.0,215.0,220.0,229.0,224.0,217.0,206.0,201.0,209.0,208.0,201.0,202.0,201.0,190.0,194.0,192.0,183.0,181.0,203.0,207.0,270.0,321.0,316.0,335.0,343.0,350.0,351.0,329.0,321.0,357.0,348.0,331.0,306.0,325.0,333.0,317.0,304.0,317.0,320.0,365.0,343.0,333.0,350.0,344.0,340.0,312.0,302.0,305.0,287.0,280.0,295.0,316.0,303.0,286.0,297.0,291.0,279.0,268.0,282.0,278.0,278.0,277.0,262.0,264.0,257.0,267.0,299.0,312.0,329.0,341.0,340.0,309.0,303.0,286.0,285.0,269.0,275.0,262.0,263.0,254.0,236.0,248.0,256.0,255.0,244.0,232.0,236.0,237.0,243.0,244.0,257.0,306.0,287.0,281.0,283.0,291.0,268.0,247.0,230.0,262.0,268.0,267.0,249.0,258.0,246.0,254.0,245.0,251.0,263.0,263.0,243.0,220.0,224.0,223.0,213.0,202.0,190.0,187.0,172.0,164.0,151.0,143.0,147.0,135.0,123.0,111.0,116.0,107.0,97.0,91.0,84.0,89.0,102.0,115.0,126.0,139.0,154.0,147.0,137.0,141.0,140.0,139.0,151.0,207.0,218.0,217.0,226.0,208.0,199.0,190.0,179.0,207.0,205.0,190.0,198.0,214.0,227.0,219.0,200.0,188.0,173.0,220.0,204.0,203.0,231.0,239.0,238.0,229.0,213.0,204.0,211.0,206.0,191.0,171.0,166.0,158.0,175.0,192.0,188.0,188.0,201.0,198.0,181.0,179.0,178.0,203.0,188.0,189.0,184.0,205.0,209.0,202.0,212.0,208.0,200.0,191.0,175.0,172.0,164.0,163.0,179.0,174.0,166.0,185.0,205.0,186.0,172.0,160.0,162.0,170.0,165.0,169.0,177.0,186.0,178.0,184.0,182.0,183.0,170.0,161.0,152.0,161.0,163.0,155.0,142.0,127.0,127.0,136.0,131.0,122.0,121.0,144.0,157.0,147.0,142.0,132.0,134.0,135.0,126.0,114.0,116.0,121.0,111.0,113.0,124.0,115.0,109.0,112.0,155.0,158.0,194.0,231.0,317.0,320.0,296.0,337.0,370.0,361.0,359.0,382.0,401.0,385.0,368.0,378.0,377.0,373.0,363.0,379.0,368.0,339.0,332.0,326.0,353.0,356.0,326.0,308.0,308.0,287.0,275.0,257.0,236.0,231.0,218.0,205.0,205.0,192.0,188.0,181.0,182.0,184.0,180.0,170.0,169.0,190.0,176.0,173.0,169.0,168.0,161.0,151.0,146.0,143.0,135.0,126.0,132.0,133.0,133.0,120.0,124.0,126.0,118.0,130.0,134.0,136.0,152.0,159.0,154.0,147.0,139.0,136.0,145.0,143.0,142.0,135.0,131.0,130.0,122.0,134.0,137.0,137.0,134.0,157.0,151.0,166.0,163.0,163.0,156.0,150.0,140.0,132.0,128.0,135.0,131.0,135.0,128.0,126.0,126.0,125.0,120.0,120.0,116.0,127.0,120.0,119.0,108.0,113.0,106.0,96.0,96.0,97.0,93.0,108.0,106.0,107.0,107.0,109.0,116.0,125.0,116.0,110.0,107.0,105.0,117.0,112.0,111.0,110.0,105.0,122.0,125.0,133.0,124.0,118.0,113.0,109.0,102.0,107.0,109.0,104.0,110.0,112.0,109.0,112.0,104.0,103.0,103.0,101.0,101.0,102.0,103.0,97.0,97.0,92.0,95.0,114.0,114.0,114.0,106.0,102.0,99.0,102.0,101.0,100.0,99.0,102.0,113.0,112.0,108.0,104.0,101.0,104.0,107.0,105.0,106.0,107.0,102.0,100.0,97.0,117.0,112.0,111.0,105.0,112.0,115.0,118.0,113.0,109.0,108.0,99.0,110.0,108.0,108.0,101.0,99.0,92.0,109.0,110.0,109.0,103.0,106.0,100.0,97.0,102.0,104.0,106.0,111.0,109.0,113.0,113.0,110.0,105.0,109.0,106.0,100.0,110.0,106.0,104.0,103.0,104.0,104.0,108.0,116.0,118.0,113.0,109.0,117.0,116.0,111.0,111.0,107.0,101.0,105.0,97.0,101.0,97.0,97.0,100.0,104.0,101.0,114.0,111.0,108.0,103.0,100.0,110.0,116.0,115.0,115.0,108.0,102.0,112.0,115.0,113.0,137.0,138.0,131.0,126.0,136.0,135.0,123.0,123.0,120.0,116.0,114.0,119.0,118.0,109.0,106.0,102.0,100.0,106.0,101.0,106.0,116.0,110.0,103.0,97.0,101.0,116.0,115.0,110.0,113.0,114.0,105.0,117.0,115.0,110.0,106.0,107.0,104.0,105.0,106.0,99.0,111.0,113.0,122.0,115.0,115.0,117.0,118.0,110.0,104.0,106.0,103.0,96.0,91.0,89.0,92.0,102.0,96.0,102.0,101.0,99.0,96.0,98.0,98.0,104.0,98.0,98.0,100.0,99.0,103.0,102.0,98.0,94.0,90.0,89.0,91.0,102.0,108.0,105.0,101.0,98.0,92.0,93.0,108.0,105.0,98.0,97.0,99.0,92.0,95.0,98.0,101.0,99.0,98.0,107.0,116.0,128.0,127.0,123.0,114.0,127.0,129.0,128.0,126.0,119.0,119.0,114.0,135.0,136.0,132.0,132.0,125.0,117.0,122.0,119.0,128.0,123.0,117.0,111.0,115.0,114.0,108.0,119.0,125.0,119.0,125.0,122.0,127.0,116.0,109.0,116.0,111.0,106.0,105.0,103.0,97.0,92.0,89.0,87.0,90.0,86.0,87.0,96.0,96.0,92.0,87.0,90.0,87.0,79.0,83.0,84.0,82.0,84.0,80.0,78.0,73.0,68.0,67.0,63.0,61.0,63.0,73.0,71.0,75.0,71.0,65.0,60.0,60.0,63.0,74.0,72.0,69.0,67.0,65.0,67.0,65.0,65.0,63.0,63.0,62.0,60.0,71.0,69.0,70.0,73.0,70.0,74.0,75.0,81.0,86.0,80.0,81.0,92.0,95.0,100.0,103.0,101.0,93.0,88.0,83.0,79.0,79.0,79.0,81.0,86.0,102.0,99.0,97.0,90.0,87.0,89.0,83.0,77.0,78.0,73.0,76.0,79.0,79.0,74.0,69.0,65.0,68.0,75.0,76.0,74.0,74.0,71.0,71.0,69.0,63.0,62.0,64.0,66.0,67.0,71.0,67.0,66.0,65.0,64.0,71.0,70.0,65.0,61.0,65.0,64.0,72.0,76.0,71.0,70.0,69.0,65.0,63.0,70.0,76.0,77.0,75.0,80.0,74.0,75.0,75.0,76.0,71.0,70.0,66.0,61.0,78.0,74.0,74.0,70.0,70.0,75.0,78.0,80.0,79.0,73.0,72.0,70.0,68.0,71.0,72.0,68.0,65.0,61.0,58.0,53.0,53.0,52.0,53.0,52.0,56.0,79.0,81.0,80.0,76.0,78.0
