52.0,53.0,53.0,54.0,56.0,54.0,55.0,55.0,55.0,56.0,54.0,54.0,55.0,54.0,54.0,55.0,55.0,54.0,54.0,53.0,55.0,55.0,55.0,55.0,53.0,52.0,53.0,53.0,52.0,51.0,49.0,49.0,48.0,49.0,49.0,48.0,48.0,47.0,47.0,46.0,46.0,46.0,45.0,45.0,45.0,46.0,44.0,44.0,46.0,46.0,45.0,45.0,47.0,47.0,48.0,52.0,52.0,53.0,56.0,54.0,54.0,56.0,59.0,65.0,71.0,72.0,77.0,77.0,77.0,76.0,76.0,75.0,76.0,75.0,79.0,76.0,76.0,80.0,77.0,75.0,73.0,72.0,71.0,69.0,67.0,64.0,63.0,62.0,61.0,62.0,62.0,61.0,59.0,59.0,64.0,63.0,63.0,62.0,63.0,62.0,61.0,61.0,59.0,59.0,59.0,59.0,58.0,55.0,56.0,55.0,54.0,54.0,54.0,56.0,54.0,53.0,51.0,52.0,53.0,54.0,55.0,53.0,52.0,53.0,53.0,56.0,54.0,53.0,54.0,56.0,54.0,57.0,56.0,55.0,54.0,54.0,54.0,53.0,54.0,53.0,53.0,53.0,55.0,56.0,57.0,58.0,57.0,58.0,56.0,56.0,57.0,57.0,57.0,55.0,56.0,55.0,55.0,58.0,57.0,59.0,57.0,58.0,56.0,54.0,56.0,57.0,55.0,58.0,57.0,59.0,56.0,57.0,57.0,57.0,55.0,53.0,54.0,53.0,53.0,52.0,52.0,53.0,53.0,54.0,53.0,53.0,56.0,55.0,53.0,52.0,53.0,51.0,52.0,52.0,51.0,52.0,51.0,51.0,52.0,50.0,50.0,50.0,51.0,50.0,49.0,49.0,48.0,49.0,50.0,49.0,49.0,49.0,50.0,48.0,49.0,48.0,50.0,51.0,49.0,49.0,50.0,48.0,47.0,47.0,47.0,50.0,50.0,50.0,48.0,50.0,50.0,51.0,50.0,52.0,54.0,54.0,55.0,55.0,54.0,54.0,53.0,52.0,53.0,52.0,52.0,51.0,53.0,52.0,52.0,53.0,56.0,57.0,57.0,57.0,55.0,55.0,56.0,57.0,57.0,62.0,67.0,65.0,64.0,63.0,64.0,64.0,67.0,67.0,80.0,81.0,85.0,80.0,75.0,75.0,74.0,84.0,90.0,86.0,84.0,78.0,76.0,74.0,74.0,71.0,68.0,69.0,71.0,71.0,69.0,81.0,84.0,81.0,78.0,74.0,71.0,70.0,73.0,70.0,67.0,67.0,67.0,64.0,63.0,64.0,64.0,64.0,75.0,73.0,70.0,67.0,66.0,63.0,62.0,61.0,60.0,58.0,62.0,62.0,63.0,62.0,60.0,59.0,56.0,55.0,55.0,54.0,55.0,57.0,54.0,56.0,55.0,55.0,57.0,57.0,57.0,55.0,55.0,54.0,55.0,54.0,54.0,57.0,56.0,58.0,55.0,56.0,55.0,55.0,56.0,60.0,67.0,66.0,65.0,63.0,61.0,59.0,57.0,61.0,58.0,57.0,57.0,55.0,55.0,57.0,61.0,59.0,58.0,56.0,55.0,53.0,56.0,59.0,75.0,76.0,81.0,78.0,75.0,76.0,79.0,79.0,75.0,74.0,78.0,82.0,79.0,79.0,83.0,83.0,84.0,85.0,90.0,89.0,95.0,97.0,100.0,96.0,97.0,98.0,99.0,100.0,101.0,100.0,102.0,105.0,105.0,107.0,105.0,105.0,106.0,106.0,103.0,106.0,103.0,104.0,101.0,107.0,106.0,106.0,109.0,106.0,109.0,110.0,109.0,109.0,112.0,112.0,111.0,111.0,112.0,112.0,112.0,110.0,110.0,110.0,110.0,110.0,109.0,109.0,110.0,110.0,109.0,109.0,109.0,109.0,109.0,109.0,107.0,106.0,107.0,108.0,106.0,104.0,106.0,105.0,102.0,104.0,103.0,104.0,100.0,103.0,102.0,100.0,100.0,97.0,107.0,114.0,117.0,117.0,113.0,112.0,107.0,105.0,102.0,99.0,101.0,98.0,99.0,100.0,95.0,96.0,93.0,93.0,89.0,88.0,89.0,90.0,92.0,93.0,92.0,94.0,92.0,89.0,90.0,87.0,88.0,89.0,89.0,90.0,89.0,89.0,87.0,87.0,85.0,84.0,86.0,87.0,84.0,84.0,83.0,81.0,79.0,77.0,75.0,77.0,74.0,73.0,72.0,72.0,71.0,70.0,70.0,67.0,66.0,69.0,70.0,69.0,72.0,75.0,73.0,71.0,70.0,69.0,69.0,68.0,70.0,72.0,71.0,71.0,71.0,71.0,71.0,69.0,68.0,67.0,69.0,67.0,65.0,68.0,66.0,65.0,64.0,63.0,60.0,59.0,59.0,56.0,57.0,63.0,61.0,60.0,59.0,58.0,58.0,58.0,56.0,57.0,58.0,58.0,58.0,55.0,54.0,53.0,53.0,53.0,54.0,53.0,55.0,53.0,55.0,61.0,61.0,61.0,60.0,61.0,58.0,58.0,57.0,56.0,58.0,57.0,59.0,58.0,57.0,58.0,57.0,58.0,66.0,66.0,65.0,67.0,68.0,67.0,66.0,65.0,65.0,65.0,66.0,68.0,67.0,66.0,71.0,69.0,71.0,71.0,72.0,72.0,71.0,71.0,72.0,73.0,73.0,71.0,72.0,71.0,71.0,75.0,73.0,71.0,70.0,69.0,67.0,65.0,64.0,64.0,64.0,61.0,62.0,60.0,59.0,65.0,64.0,63.0,62.0,60.0,61.0,60.0,58.0,57.0,58.0,56.0,55.0,61.0,60.0,58.0,58.0,56.0,55.0,54.0,53.0,53.0,54.0,51.0,51.0,62.0,60.0,61.0,58.0,58.0,58.0,56.0,55.0,56.0,58.0,58.0,59.0,63.0,63.0,62.0,64.0,63.0,63.0,62.0,61.0,61.0,59.0,60.0,58.0,60.0,66.0,65.0,62.0,61.0,60.0,60.0,61.0,60.0,59.0,57.0,57.0,56.0,57.0,57.0,56.0,58.0,61.0,61.0,59.0,57.0,55.0,55.0,53.0,52.0,52.0,53.0,53.0,54.0,61.0,58.0,57.0,55.0,56.0,55.0,53.0,52.0,52.0,50.0,52.0,52.0,55.0,59.0,59.0,60.0,60.0,60.0,59.0,57.0,59.0,58.0,60.0,58.0,58.0,63.0,65.0,65.0,63.0,63.0,60.0,59.0,58.0,57.0,58.0,57.0,57.0,56.0,55.0,55.0,56.0,57.0,57.0,57.0,56.0,56.0,55.0,57.0,59.0,57.0,56.0,57.0,56.0,58.0,57.0,58.0,57.0,57.0,59.0,59.0,58.0,58.0,57.0,59.0,57.0,57.0,54.0,54.0,52.0,51.0,53.0,52.0,52.0,54.0,54.0,53.0,51.0,52.0,53.0,52.0,54.0,52.0,52.0,54.0,55.0,55.0,56.0,58.0,58.0,56.0,57.0,55.0,55.0,55.0,53.0,53.0,53.0,54.0,53.0,52.0,54.0,54.0,56.0,54.0,60.0,61.0,62.0,61.0,59.0,58.0,59.0,57.0,56.0,57.0,57.0,54.0,55.0,56.0,55.0,57.0,57.0,56.0,57.0,58.0,59.0,57.0,57.0,57.0,57.0,56.0,56.0,57.0,59.0,63.0,63.0,62.0,63.0,62.0,63.0,60.0,61.0,60.0,60.0,60.0,58.0,61.0,60.0,59.0,59.0,59.0,60.0,58.0,60.0,60.0,59.0,58.0,59.0,57.0,58.0,55.0,56.0,54.0,53.0,55.0,55.0,56.0,54.0,55.0,55.0,53.0,54.0,54.0,54.0,56.0,56.0,54.0,56.0,57.0,58.0,58.0,59.0,58.0,59.0,60.0,60.0,59.0,58.0,57.0,56.0,56.0,55.0,56.0,56.0,58.0,59.0,57.0,56.0,54.0,55.0,54.0,54.0,55.0,53.0,54.0,56.0,55.0,56.0,56.0,57.0,58.0,57.0,57.0,57.0,58.0,58.0,58.0,57.0,54.0,56.0,56.0,54.0,55.0,53.0,56.0,57.0,58.0,59.0,58.0,58.0,58.0,58.0,60.0,61.0,61.0,62.0,60.0,58.0,58.0,59.0,58.0,58.0,59.0,61.0,60.0,61.0,61.0,60.0,61.0,60.0,59.0,60.0,59.0,59.0,62.0,64.0,62.0,64.0,64.0,61.0,63.0,61.0,60.0,61.0,60.0,60.0,59.0,59.0,59.0,59.0,59.0,60.0,60.0,61.0,62.0,64.0,61.0,61.0,60.0,60.0,58.0,59.0,59.0,56.0,55.0
43.0,42.0,44.0,44.0,45.0,46.0,47.0,47.0,48.0,46.0,49.0,49.0,47.0,46.0,45.0,44.0,43.0,43.0,45.0,43.0,44.0,43.0,43.0,43.0,44.0,47.0,46.0,47.0,45.0,45.0,44.0,43.0,43.0,46.0,46.0,44.0,46.0,45.0,44.0,44.0,44.0,44.0,44.0,44.0,44.0,46.0,46.0,45.0,45.0,44.0,52.0,52.0,49.0,52.0,55.0,53.0,55.0,55.0,56.0,61.0,76.0,102.0,121.0,123.0,123.0,156.0,156.0,155.0,161.0,173.0,172.0,181.0,190.0,203.0,209.0,214.0,235.0,235.0,234.0,261.0,257.0,268.0,277.0,272.0,277.0,284.0,289.0,298.0,299.0,309.0,316.0,309.0,308.0,312.0,309.0,313.0,314.0,311.0,306.0,304.0,300.0,304.0,294.0,288.0,284.0,276.0,268.0,266.0,262.0,254.0,251.0,248.0,243.0,237.0,233.0,232.0,228.0,223.0,225.0,214.0,210.0,205.0,206.0,204.0,197.0,195.0,190.0,185.0,187.0,184.0,179.0,175.0,173.0,171.0,167.0,163.0,163.0,160.0,160.0,158.0,155.0,152.0,151.0,148.0,142.0,143.0,142.0,138.0,133.0,127.0,127.0,121.0,120.0,119.0,115.0,116.0,113.0,109.0,103.0,100.0,99.0,95.0,95.0,95.0,92.0,97.0,90.0,90.0,87.0,87.0,87.0,84.0,86.0,89.0,86.0,84.0,85.0,85.0,85.0,83.0,81.0,78.0,79.0,78.0,77.0,73.0,73.0,73.0,70.0,68.0,66.0,68.0,64.0,68.0,68.0,64.0,64.0,66.0,64.0,66.0,63.0,66.0,62.0,61.0,62.0,65.0,65.0,63.0,68.0,63.0,61.0,59.0,58.0,58.0,59.0,58.0,57.0,62.0,61.0,59.0,59.0,61.0,57.0,58.0,56.0,61.0,63.0,60.0,59.0,57.0,57.0,55.0,58.0,61.0,61.0,61.0,60.0,60.0,58.0,60.0,58.0,58.0,65.0,61.0,60.0,60.0,60.0,59.0,59.0,64.0,64.0,61.0,62.0,63.0,61.0,60.0,59.0,66.0,64.0,64.0,68.0,63.0,61.0,63.0,64.0,68.0,72.0,70.0,71.0,79.0,83.0,84.0,80.0,77.0,75.0,70.0,69.0,71.0,70.0,70.0,70.0,69.0,68.0,68.0,64.0,66.0,64.0,61.0,61.0,63.0,63.0,66.0,65.0,66.0,63.0,60.0,61.0,62.0,61.0,63.0,67.0,63.0,63.0,67.0,64.0,63.0,70.0,67.0,66.0,62.0,62.0,58.0,59.0,57.0,58.0,60.0,61.0,61.0,59.0,60.0,60.0,59.0,60.0,61.0,61.0,61.0,62.0,63.0,63.0,62.0,62.0,63.0,66.0,68.0,66.0,66.0,67.0,70.0,66.0,69.0,64.0,70.0,72.0,69.0,73.0,69.0,72.0,74.0,74.0,76.0,74.0,72.0,72.0,73.0,78.0,78.0,78.0,78.0,80.0,78.0,77.0,79.0,81.0,81.0,80.0,83.0,89.0,84.0,82.0,82.0,86.0,92.0,91.0,90.0,88.0,86.0,84.0,86.0,82.0,77.0,73.0,75.0,76.0,76.0,74.0,75.0,79.0,82.0,86.0,85.0,93.0,94.0,100.0,103.0,108.0,106.0,112.0,118.0,123.0,124.0,128.0,130.0,136.0,141.0,145.0,150.0,150.0,155.0,157.0,161.0,162.0,165.0,166.0,167.0,169.0,168.0,167.0,166.0,165.0,163.0,164.0,165.0,164.0,160.0,166.0,167.0,169.0,167.0,166.0,167.0,166.0,165.0,163.0,162.0,165.0,164.0,161.0,159.0,161.0,160.0,159.0,157.0,154.0,152.0,152.0,150.0,149.0,149.0,149.0,148.0,146.0,145.0,147.0,147.0,143.0,143.0,142.0,141.0,139.0,136.0,134.0,132.0,129.0,124.0,123.0,120.0,120.0,119.0,116.0,115.0,112.0,110.0,107.0,104.0,101.0,95.0,95.0,94.0,90.0,87.0,84.0,82.0,79.0,79.0,77.0,73.0,70.0,70.0,68.0,68.0,65.0,63.0,63.0,60.0,61.0,58.0,55.0,58.0,57.0,58.0,58.0,59.0,58.0,60.0,59.0,63.0,62.0,61.0,61.0,59.0,59.0,59.0,61.0,63.0,63.0,61.0,61.0,59.0,58.0,59.0,56.0,54.0,53.0,55.0,53.0,53.0,53.0,51.0,52.0,50.0,49.0,49.0,46.0,48.0,48.0,47.0,46.0,45.0,45.0,45.0,46.0,46.0,45.0,45.0,46.0,47.0,46.0,48.0,48.0,47.0,47.0,47.0,44.0,45.0,43.0,43.0,42.0,44.0,41.0,41.0,41.0,40.0,41.0,44.0,44.0,44.0,45.0,45.0,46.0,43.0,44.0,43.0,43.0,43.0,44.0,44.0,43.0,44.0,41.0,43.0,41.0,42.0,42.0,43.0,44.0,43.0,44.0,44.0,43.0,44.0,43.0,43.0,43.0,43.0,44.0,46.0,47.0,45.0,46.0,45.0,45.0,46.0,44.0,44.0,47.0,47.0,46.0,46.0,46.0,46.0,46.0,46.0,44.0,46.0,46.0,45.0,46.0,49.0,48.0,47.0,47.0,49.0,47.0,48.0,50.0,51.0,50.0,49.0,49.0,49.0,50.0,50.0,51.0,51.0,51.0,50.0,49.0,49.0,47.0,49.0,50.0,48.0,47.0,46.0,46.0,46.0,44.0,45.0,48.0,46.0,47.0,47.0,46.0,46.0,46.0,45.0,44.0,45.0,44.0,49.0,46.0,47.0,46.0,49.0,47.0,45.0,45.0,44.0,44.0,45.0,47.0,48.0,48.0,47.0,47.0,46.0,46.0,47.0,47.0,45.0,44.0,45.0,44.0,43.0,46.0,45.0,46.0,43.0,44.0,44.0,45.0,45.0,46.0,44.0,45.0,46.0,44.0,44.0,46.0,46.0,50.0,48.0,49.0,49.0,50.0,50.0,52.0,51.0,48.0,48.0,48.0,49.0,50.0,53.0,50.0,50.0,49.0,49.0,50.0,49.0,50.0,48.0,46.0,45.0,46.0,45.0,44.0,47.0,45.0,45.0,45.0,44.0,44.0,43.0,42.0,42.0,43.0,42.0,41.0,41.0,39.0,40.0,42.0,40.0,41.0,41.0,40.0,40.0,40.0,39.0,41.0,40.0,39.0,38.0,39.0,39.0,40.0,40.0,41.0,42.0,42.0,42.0,40.0,41.0,40.0,39.0,41.0,40.0,40.0,42.0,41.0,41.0,41.0,42.0,40.0,41.0,39.0,39.0,41.0,41.0,41.0,42.0,42.0,42.0,43.0,41.0,43.0,44.0,45.0,47.0,46.0,46.0,46.0,46.0,46.0,47.0,48.0,47.0,46.0,47.0,45.0,43.0,46.0,45.0,45.0,43.0,42.0,43.0,42.0,44.0,43.0,45.0,43.0,41.0,42.0,42.0,42.0,42.0,41.0,43.0,44.0,45.0,43.0,43.0,43.0,42.0,42.0,40.0,39.0,38.0,38.0,39.0,38.0,39.0,38.0,40.0,39.0,38.0,40.0,41.0,40.0,40.0,40.0,39.0,39.0,40.0,41.0,41.0,42.0,40.0,40.0,42.0,44.0,44.0,44.0,45.0,44.0,44.0,43.0,42.0,44.0,43.0,43.0,42.0,40.0,41.0,40.0,40.0,40.0,39.0,41.0,40.0,39.0,41.0,41.0,40.0,41.0,40.0,40.0,43.0,41.0,41.0,42.0,42.0,42.0,42.0,42.0,42.0,40.0,40.0,39.0,39.0,39.0,40.0,41.0,39.0,39.0,41.0,42.0,42.0,40.0,41.0,40.0,40.0,40.0,41.0,44.0,44.0,44.0,44.0,43.0,44.0,45.0,44.0,44.0,44.0,44.0,43.0,43.0,44.0,43.0,41.0,40.0,42.0,40.0,40.0,39.0,41.0,42.0,40.0,39.0,38.0,39.0,40.0,41.0,41.0,40.0,39.0,41.0,42.0,43.0,42.0,41.0,41.0,41.0,41.0,42.0,42.0,42.0,42.0,43.0,41.0,42.0,42.0,44.0,44.0,42.0,43.0,42.0,42.0,41.0,40.0,41.0,40.0,42.0,41.0,39.0,40.0,40.0,41.0,41.0,40.0,40.0,39.0,40.0,41.0,41.0,40.0,40.0,40.0,40.0,40.0,40.0,40.0,39.0,40.0,43.0,40.0,42.0,42.0,41.0,43.0,43.0,44.0,44.0,42.0,43.0,41.0,41.0,40.0
33.0,31.0,30.0,28.0,28.0,24.0,31.0,30.0,29.0,28.0,24.0,33.0,31.0,28.0,29.0,25.0,25.0,22.0,35.0,31.0,29.0,29.0,25.0,26.0,24.0,35.0,39.0,37.0,34.0,29.0,28.0,24.0,22.0,55.0,51.0,45.0,42.0,38.0,34.0,28.0,26.0,23.0,20.0,18.0,19.0,23.0,35.0,33.0,30.0,27.0,25.0,21.0,20.0,17.0,15.0,14.0,12.0,11.0,9.0,10.0,11.0,12.0,18.0,15.0,15.0,22.0,28.0,33.0,28.0,28.0,28.0,29.0,31.0,48.0,52.0,44.0,42.0,38.0,36.0,32.0,29.0,28.0,32.0,36.0,35.0,34.0,33.0,30.0,31.0,30.0,28.0,30.0,30.0,27.0,39.0,45.0,40.0,35.0,32.0,27.0,26.0,24.0,23.0,27.0,25.0,29.0,26.0,24.0,24.0,21.0,21.0,20.0,26.0,23.0,20.0,18.0,16.0,16.0,16.0,14.0,15.0,13.0,11.0,11.0,12.0,13.0,11.0,10.0,12.0,24.0,21.0,18.0,17.0,18.0,16.0,16.0,16.0,14.0,13.0,12.0,11.0,10.0,10.0,9.0,10.0,10.0,10.0,9.0,7.0,8.0,8.0,8.0,8.0,8.0,9.0,7.0,11.0,14.0,11.0,11.0,11.0,11.0,9.0,8.0,8.0,11.0,11.0,12.0,12.0,12.0,10.0,11.0,10.0,9.0,8.0,8.0,8.0,6.0,7.0,8.0,9.0,9.0,8.0,9.0,8.0,7.0,10.0,9.0,9.0,9.0,10.0,9.0,8.0,8.0,7.0,7.0,7.0,7.0,6.0,6.0,5.0,5.0,5.0,5.0,6.0,5.0,4.0,7.0,7.0,7.0,11.0,12.0,13.0,10.0,11.0,10.0,10.0,14.0,13.0,14.0,14.0,14.0,12.0,11.0,11.0,11.0,10.0,13.0,12.0,12.0,11.0,16.0,15.0,20.0,21.0,16.0,16.0,15.0,14.0,13.0,12.0,14.0,12.0,10.0,10.0,9.0,9.0,13.0,15.0,14.0,15.0,16.0,17.0,18.0,18.0,18.0,16.0,16.0,18.0,19.0,24.0,20.0,18.0,17.0,18.0,22.0,23.0,21.0,20.0,26.0,39.0,35.0,33.0,30.0,27.0,24.0,21.0,20.0,19.0,18.0,18.0,21.0,20.0,23.0,22.0,20.0,18.0,16.0,17.0,15.0,17.0,17.0,22.0,26.0,23.0,21.0,19.0,20.0,18.0,19.0,28.0,27.0,26.0,23.0,24.0,24.0,24.0,22.0,20.0,24.0,25.0,22.0,20.0,18.0,19.0,16.0,17.0,20.0,23.0,23.0,21.0,20.0,18.0,16.0,15.0,15.0,21.0,24.0,22.0,21.0,19.0,17.0,17.0,16.0,19.0,23.0,25.0,22.0,22.0,21.0,18.0,27.0,25.0,24.0,21.0,25.0,25.0,22.0,26.0,24.0,21.0,20.0,18.0,18.0,22.0,27.0,29.0,28.0,24.0,21.0,20.0,24.0,26.0,27.0,23.0,23.0,22.0,21.0,22.0,19.0,26.0,49.0,74.0,82.0,107.0,119.0,128.0,144.0,154.0,152.0,158.0,187.0,166.0,159.0,156.0,153.0,165.0,172.0,162.0,150.0,142.0,148.0,149.0,137.0,130.0,135.0,129.0,117.0,107.0,99.0,117.0,118.0,106.0,99.0,89.0,78.0,85.0,76.0,74.0,68.0,62.0,58.0,69.0,68.0,62.0,58.0,50.0,45.0,46.0,61.0,63.0,56.0,52.0,51.0,50.0,43.0,41.0,40.0,54.0,47.0,43.0,54.0,55.0,56.0,51.0,45.0,46.0,52.0,48.0,44.0,40.0,35.0,34.0,33.0,45.0,44.0,50.0,44.0,38.0,36.0,39.0,51.0,46.0,41.0,36.0,40.0,52.0,48.0,41.0,38.0,34.0,32.0,31.0,38.0,38.0,34.0,31.0,29.0,28.0,27.0,25.0,32.0,28.0,27.0,26.0,26.0,38.0,34.0,31.0,28.0,26.0,26.0,24.0,24.0,38.0,36.0,40.0,39.0,35.0,32.0,29.0,27.0,39.0,44.0,40.0,37.0,48.0,42.0,39.0,36.0,37.0,35.0,32.0,28.0,39.0,42.0,39.0,35.0,32.0,29.0,39.0,33.0,30.0,26.0,24.0,22.0,19.0,18.0,15.0,14.0,13.0,14.0,25.0,26.0,27.0,41.0,34.0,33.0,29.0,26.0,24.0,22.0,23.0,37.0,39.0,38.0,34.0,32.0,32.0,28.0,34.0,36.0,33.0,32.0,29.0,34.0,46.0,44.0,38.0,35.0,32.0,28.0,29.0,33.0,32.0,28.0,45.0,42.0,44.0,39.0,34.0,31.0,29.0,38.0,43.0,42.0,38.0,35.0,42.0,39.0,38.0,36.0,34.0,31.0,28.0,37.0,35.0,36.0,32.0,30.0,27.0,25.0,21.0,41.0,42.0,38.0,34.0,34.0,30.0,37.0,34.0,28.0,26.0,26.0,27.0,34.0,41.0,36.0,33.0,32.0,28.0,27.0,25.0,21.0,24.0,23.0,22.0,25.0,21.0,19.0,17.0,31.0,30.0,35.0,34.0,29.0,27.0,49.0,43.0,40.0,33.0,33.0,29.0,24.0,23.0,35.0,35.0,41.0,42.0,39.0,37.0,33.0,37.0,33.0,30.0,28.0,25.0,27.0,24.0,21.0,30.0,31.0,26.0,25.0,26.0,24.0,21.0,21.0,34.0,31.0,29.0,30.0,27.0,25.0,21.0,24.0,22.0,18.0,18.0,32.0,34.0,33.0,30.0,41.0,41.0,37.0,33.0,31.0,29.0,28.0,28.0,34.0,31.0,26.0,23.0,23.0,21.0,28.0,31.0,28.0,25.0,22.0,22.0,20.0,33.0,32.0,32.0,30.0,26.0,23.0,26.0,28.0,32.0,32.0,29.0,26.0,23.0,20.0,18.0,28.0,40.0,36.0,31.0,28.0,28.0,26.0,33.0,37.0,32.0,28.0,26.0,24.0,24.0,32.0,27.0,25.0,24.0,22.0,22.0,23.0,30.0,27.0,23.0,23.0,21.0,22.0,21.0,35.0,36.0,32.0,29.0,26.0,24.0,22.0,20.0,34.0,30.0,28.0,24.0,22.0,19.0,18.0,34.0,30.0,26.0,25.0,23.0,24.0,22.0,20.0,27.0,32.0,28.0,26.0,29.0,27.0,25.0,27.0,41.0,36.0,34.0,33.0,30.0,27.0,25.0,25.0,42.0,38.0,35.0,34.0,31.0,27.0,34.0,40.0,36.0,32.0,29.0,27.0,29.0,27.0,26.0,39.0,34.0,30.0,28.0,26.0,26.0,36.0,37.0,38.0,33.0,31.0,27.0,24.0,21.0,36.0,42.0,40.0,41.0,39.0,33.0,31.0,33.0,32.0,31.0,28.0,25.0,22.0,23.0,27.0,26.0,26.0,23.0,20.0,19.0,33.0,29.0,31.0,29.0,28.0,31.0,28.0,26.0,34.0,36.0,34.0,33.0,29.0,25.0,22.0,21.0,18.0,28.0,24.0,26.0,30.0,25.0,23.0,32.0,28.0,25.0,23.0,26.0,23.0,20.0,18.0,28.0,25.0,25.0,23.0,25.0,23.0,21.0,20.0,31.0,29.0,30.0,28.0,27.0,24.0,36.0,35.0,30.0,30.0,34.0,37.0,46.0,40.0,36.0,31.0,35.0,31.0,27.0,36.0,35.0,30.0,32.0,28.0,26.0,34.0,29.0,29.0,29.0,25.0,22.0,29.0,32.0,30.0,30.0,25.0,25.0,24.0,23.0,32.0,28.0,25.0,25.0,25.0,37.0,35.0,30.0,27.0,25.0,26.0,24.0,24.0,32.0,40.0,35.0,31.0,29.0,25.0,32.0,36.0,31.0,29.0,31.0,28.0,27.0,41.0,37.0,32.0,28.0,26.0,23.0,20.0,27.0,37.0,32.0,29.0,27.0,25.0,25.0,24.0,39.0,35.0,33.0,32.0,32.0,29.0,38.0,39.0,34.0,31.0,29.0,26.0,30.0,26.0,27.0,23.0,21.0,19.0,25.0,44.0,44.0,38.0,34.0,30.0,28.0,27.0,25.0,35.0,32.0,29.0,26.0,24.0,21.0,28.0,43.0,38.0,39.0,34.0,31.0,31.0,36.0,51.0,45.0,46.0,40.0,40.0,48.0,44.0,43.0,37.0,37.0,34.0,44.0,38.0,38.0,34.0,30.0,25.0,33.0,38.0,36.0,33.0,33.0,30.0,29.0,29.0
68.0,64.0,60.0,62.0,59.0,59.0,62.0,61.0,56.0,56.0,58.0,59.0,63.0,61.0,59.0,59.0,58.0,56.0,57.0,56.0,56.0,56.0,54.0,52.0,53.0,52.0,51.0,54.0,51.0,50.0,51.0,51.0,56.0,63.0,71.0,67.0,65.0,60.0,56.0,53.0,49.0,47.0,44.0,42.0,43.0,45.0,48.0,45.0,46.0,43.0,43.0,42.0,42.0,44.0,57.0,56.0,58.0,56.0,62.0,59.0,65.0,75.0,76.0,77.0,76.0,76.0,75.0,137.0,144.0,132.0,126.0,139.0,141.0,134.0,129.0,128.0,128.0,123.0,167.0,176.0,181.0,172.0,169.0,168.0,167.0,175.0,164.0,161.0,180.0,192.0,197.0,213.0,202.0,195.0,199.0,205.0,193.0,184.0,181.0,174.0,176.0,175.0,173.0,168.0,153.0,155.0,174.0,178.0,172.0,174.0,172.0,158.0,158.0,157.0,156.0,157.0,168.0,178.0,172.0,164.0,161.0,159.0,161.0,169.0,157.0,147.0,159.0,161.0,144.0,137.0,138.0,143.0,136.0,133.0,122.0,144.0,140.0,138.0,129.0,136.0,133.0,131.0,125.0,155.0,162.0,157.0,146.0,132.0,122.0,156.0,147.0,137.0,141.0,152.0,150.0,147.0,149.0,148.0,150.0,160.0,156.0,158.0,156.0,158.0,154.0,144.0,150.0,144.0,152.0,160.0,165.0,183.0,186.0,174.0,171.0,163.0,159.0,168.0,174.0,169.0,157.0,173.0,172.0,162.0,158.0,161.0,186.0,177.0,160.0,164.0,186.0,177.0,165.0,158.0,159.0,156.0,150.0,152.0,144.0,142.0,147.0,151.0,140.0,140.0,150.0,141.0,131.0,135.0,150.0,151.0,148.0,152.0,154.0,158.0,165.0,182.0,166.0,158.0,154.0,145.0,149.0,155.0,151.0,159.0,160.0,154.0,152.0,163.0,153.0,141.0,166.0,182.0,176.0,200.0,197.0,201.0,223.0,207.0,200.0,185.0,182.0,177.0,173.0,177.0,200.0,203.0,210.0,220.0,213.0,223.0,206.0,201.0,202.0,194.0,176.0,181.0,177.0,238.0,225.0,219.0,228.0,219.0,203.0,195.0,202.0,217.0,207.0,202.0,202.0,199.0,194.0,191.0,189.0,209.0,203.0,186.0,175.0,157.0,151.0,185.0,184.0,193.0,203.0,193.0,192.0,189.0,184.0,177.0,164.0,164.0,189.0,192.0,218.0,263.0,248.0,234.0,219.0,216.0,212.0,235.0,271.0,280.0,271.0,283.0,267.0,242.0,242.0,253.0,253.0,237.0,236.0,229.0,225.0,214.0,226.0,266.0,247.0,248.0,246.0,244.0,246.0,242.0,251.0,241.0,234.0,242.0,243.0,230.0,223.0,211.0,200.0,197.0,235.0,242.0,233.0,223.0,226.0,217.0,203.0,196.0,200.0,206.0,227.0,254.0,260.0,259.0,255.0,252.0,250.0,281.0,264.0,240.0,238.0,231.0,238.0,234.0,238.0,255.0,262.0,245.0,237.0,233.0,238.0,222.0,214.0,200.0,217.0,228.0,212.0,204.0,198.0,188.0,179.0,166.0,151.0,152.0,159.0,155.0,181.0,173.0,182.0,183.0,196.0,199.0,207.0,207.0,205.0,217.0,204.0,205.0,205.0,202.0,188.0,183.0,176.0,178.0,169.0,179.0,170.0,165.0,179.0,176.0,181.0,168.0,163.0,149.0,142.0,145.0,144.0,143.0,133.0,156.0,149.0,148.0,154.0,146.0,134.0,145.0,173.0,161.0,150.0,138.0,129.0,149.0,168.0,165.0,152.0,142.0,149.0,146.0,137.0,124.0,124.0,133.0,128.0,128.0,120.0,122.0,121.0,113.0,107.0,101.0,104.0,104.0,108.0,102.0,106.0,105.0,110.0,109.0,104.0,117.0,109.0,102.0,97.0,106.0,99.0,93.0,86.0,83.0,78.0,75.0,75.0,78.0,76.0,77.0,80.0,78.0,82.0,86.0,86.0,111.0,108.0,106.0,110.0,107.0,101.0,93.0,86.0,93.0,109.0,101.0,103.0,100.0,99.0,95.0,100.0,92.0,88.0,89.0,91.0,86.0,101.0,105.0,97.0,94.0,87.0,86.0,83.0,88.0,86.0,85.0,87.0,91.0,90.0,88.0,90.0,85.0,89.0,101.0,98.0,107.0,99.0,93.0,91.0,87.0,86.0,88.0,86.0,90.0,94.0,98.0,97.0,95.0,93.0,103.0,97.0,95.0,91.0,85.0,83.0,83.0,80.0,89.0,89.0,97.0,98.0,97.0,96.0,92.0,92.0,91.0,92.0,90.0,88.0,92.0,92.0,89.0,91.0,90.0,93.0,89.0,90.0,103.0,98.0,94.0,89.0,93.0,87.0,89.0,89.0,93.0,90.0,88.0,90.0,92.0,93.0,90.0,88.0,88.0,86.0,99.0,91.0,90.0,92.0,95.0,96.0,88.0,84.0,89.0,84.0,83.0,83.0,81.0,84.0,93.0,98.0,96.0,97.0,94.0,87.0,91.0,88.0,83.0,86.0,87.0,86.0,88.0,86.0,85.0,85.0,84.0,79.0,82.0,88.0,91.0,88.0,93.0,88.0,88.0,86.0,84.0,90.0,84.0,85.0,82.0,79.0,85.0,83.0,83.0,79.0,83.0,76.0,74.0,74.0,81.0,80.0,79.0,81.0,77.0,70.0,86.0,85.0,83.0,84.0,77.0,73.0,77.0,84.0,83.0,98.0,90.0,86.0,82.0,88.0,83.0,79.0,77.0,74.0,71.0,72.0,75.0,75.0,71.0,69.0,74.0,70.0,68.0,69.0,83.0,82.0,83.0,85.0,81.0,77.0,72.0,74.0,73.0,74.0,74.0,92.0,99.0,98.0,97.0,91.0,91.0,91.0,103.0,108.0,99.0,91.0,90.0,85.0,85.0,86.0,87.0,96.0,90.0,86.0,81.0,83.0,79.0,84.0,80.0,73.0,77.0,69.0,67.0,65.0,76.0,88.0,81.0,76.0,71.0,66.0,66.0,69.0,74.0,70.0,70.0,68.0,71.0,73.0,73.0,72.0,73.0,68.0,65.0,65.0,75.0,73.0,69.0,70.0,71.0,71.0,75.0,74.0,73.0,69.0,70.0,72.0,80.0,78.0,73.0,83.0,81.0,75.0,75.0,72.0,68.0,71.0,73.0,76.0,71.0,73.0,72.0,75.0,90.0,87.0,84.0,83.0,80.0,76.0,76.0,76.0,76.0,75.0,67.0,84.0,93.0,92.0,89.0,85.0,88.0,81.0,85.0,89.0,85.0,78.0,82.0,81.0,74.0,71.0,65.0,61.0,69.0,75.0,83.0,85.0,85.0,81.0,77.0,73.0,73.0,79.0,81.0,75.0,75.0,76.0,77.0,76.0,71.0,73.0,75.0,70.0,74.0,77.0,75.0,72.0,73.0,78.0,73.0,81.0,79.0,78.0,75.0,73.0,83.0,79.0,79.0,74.0,86.0,82.0,77.0,82.0,82.0,81.0,77.0,73.0,71.0,75.0,74.0,71.0,65.0,66.0,63.0,63.0,60.0,58.0,60.0,59.0,69.0,71.0,66.0,73.0,79.0,76.0,78.0,74.0,72.0,69.0,80.0,77.0,76.0,79.0,80.0,78.0,75.0,77.0,77.0,77.0,74.0,80.0,81.0,80.0,83.0,79.0,78.0,84.0,82.0,77.0,80.0,78.0,81.0,78.0,88.0,90.0,84.0,89.0,92.0,88.0,89.0,81.0,80.0,74.0,74.0,75.0,76.0,70.0,67.0,67.0,74.0,73.0,69.0,76.0,78.0,73.0,70.0,67.0,64.0,72.0,70.0,69.0,69.0,68.0,65.0,63.0,77.0,75.0,76.0,71.0,67.0,74.0,70.0,85.0,83.0,80.0,76.0,74.0,76.0,72.0,70.0,71.0,68.0,63.0,75.0,76.0,81.0,80.0,84.0,82.0,75.0,78.0,80.0,76.0,81.0,77.0,75.0,68.0,70.0,70.0,66.0,67.0,73.0,74.0,73.0,68.0,65.0,66.0,70.0,77.0,77.0,75.0,76.0,75.0,71.0,68.0,67.0,82.0,80.0,77.0,77.0,78.0,85.0,88.0,88.0,87.0,83.0,83.0,81.0,86.0,83.0,80.0,78.0,74.0,70.0,72.0,71.0,73.0,73.0,74.0,71.0,67.0,71.0,76.0,81.0,80.0,77.0,76.0,74.0,74.0,78.0,78.0,74.0,73.0,77.0,79.0,76.0,74.0,70.0,72.0,77.0,81.0,83.0,83.0,80.0,80.0,75.0,78.0,77.0
