45.0,46.0,46.0,48.0,48.0,49.0,51.0,51.0,52.0,51.0,54.0,52.0,52.0,53.0,52.0,51.0,51.0,52.0,52.0,51.0,51.0,51.0,50.0,51.0,49.0,49.0,48.0,48.0,47.0,46.0,47.0,47.0,47.0,46.0,45.0,45.0,44.0,44.0,44.0,44.0,46.0,45.0,46.0,47.0,47.0,47.0,48.0,50.0,48.0,50.0,51.0,51.0,50.0,48.0,49.0,48.0,47.0,47.0,45.0,46.0,46.0,45.0,45.0,45.0,44.0,43.0,44.0,44.0,44.0,47.0,47.0,54.0,66.0,70.0,79.0,95.0,101.0,104.0,116.0,125.0,121.0,115.0,110.0,124.0,125.0,122.0,116.0,118.0,123.0,115.0,111.0,109.0,106.0,104.0,106.0,101.0,98.0,96.0,91.0,88.0,84.0,77.0,77.0,74.0,72.0,69.0,66.0,65.0,63.0,63.0,63.0,67.0,69.0,93.0,94.0,92.0,90.0,86.0,81.0,78.0,75.0,72.0,71.0,69.0,67.0,63.0,63.0,65.0,62.0,69.0,67.0,67.0,68.0,65.0,67.0,66.0,64.0,63.0,62.0,62.0,62.0,62.0,61.0,62.0,61.0,59.0,59.0,59.0,60.0,61.0,59.0,66.0,64.0,62.0,60.0,58.0,58.0,58.0,57.0,55.0,56.0,57.0,55.0,55.0,54.0,54.0,53.0,54.0,56.0,55.0,56.0,55.0,56.0,56.0,58.0,58.0,58.0,60.0,60.0,60.0,61.0,60.0,62.0,59.0,57.0,58.0,56.0,56.0,55.0,55.0,55.0,56.0,57.0,56.0,56.0,55.0,59.0,61.0,59.0,61.0,64.0,63.0,65.0,63.0,62.0,63.0,63.0,63.0,63.0,62.0,72.0,74.0,72.0,69.0,69.0,67.0,67.0,67.0,66.0,72.0,68.0,70.0,68.0,66.0,68.0,65.0,64.0,62.0,61.0,60.0,66.0,64.0,64.0,63.0,62.0,63.0,63.0,61.0,61.0,59.0,60.0,58.0,55.0,57.0,60.0,58.0,61.0,68.0,69.0,68.0,67.0,67.0,66.0,64.0,65.0,64.0,64.0,72.0,72.0,69.0,67.0,65.0,64.0,62.0,62.0,64.0,71.0,68.0,68.0,65.0,63.0,62.0,63.0,62.0,60.0,60.0,59.0,58.0,55.0,60.0,67.0,69.0,68.0,65.0,67.0,62.0,61.0,59.0,57.0,57.0,59.0,67.0,64.0,62.0,62.0,60.0,60.0,61.0,61.0,61.0,60.0,61.0,59.0,60.0,60.0,59.0,60.0,60.0,59.0,59.0,59.0,59.0,61.0,68.0,69.0,68.0,68.0,66.0,67.0,67.0,67.0,64.0,64.0,65.0,72.0,70.0,72.0,73.0,72.0,70.0,69.0,69.0,71.0,71.0,71.0,72.0,70.0,72.0,67.0,69.0,69.0,69.0,69.0,69.0,69.0,66.0,65.0,65.0,65.0,67.0,66.0,66.0,67.0,67.0,68.0,69.0,69.0,68.0,64.0,65.0,65.0,66.0,68.0,69.0,69.0,68.0,68.0,66.0,67.0,68.0,68.0,68.0,69.0,70.0,70.0,72.0,71.0,69.0,73.0,74.0,75.0,76.0,75.0,72.0,70.0,69.0,70.0,66.0,68.0,67.0,69.0,68.0,66.0,73.0,76.0,76.0,74.0,73.0,72.0,71.0,70.0,68.0,67.0,70.0,73.0,73.0,73.0,71.0,72.0,73.0,72.0,69.0,69.0,67.0,68.0,70.0,71.0,72.0,70.0,69.0,69.0,67.0,65.0,64.0,63.0,62.0,62.0,62.0,61.0,63.0,60.0,59.0,61.0,59.0,62.0,61.0,60.0,60.0,59.0,58.0,59.0,67.0,65.0,65.0,64.0,63.0,63.0,61.0,66.0,68.0,66.0,71.0,66.0,65.0,67.0,69.0,79.0,79.0,85.0,84.0,79.0,82.0,83.0,89.0,91.0,97.0,100.0,101.0,107.0,110.0,114.0,116.0,117.0,118.0,124.0,124.0,130.0,133.0,135.0,134.0,138.0,140.0,141.0,142.0,142.0,143.0,146.0,146.0,145.0,145.0,149.0,145.0,145.0,140.0,145.0,147.0,147.0,146.0,145.0,142.0,142.0,141.0,140.0,138.0,136.0,134.0,132.0,132.0,133.0,132.0,130.0,129.0,127.0,125.0,124.0,123.0,124.0,124.0,122.0,123.0,121.0,121.0,121.0,119.0,117.0,114.0,114.0,113.0,108.0,108.0,105.0,104.0,100.0,98.0,96.0,95.0,93.0,91.0,91.0,87.0,85.0,85.0,83.0,81.0,82.0,82.0,80.0,78.0,79.0,80.0,78.0,79.0,79.0,79.0,79.0,78.0,78.0,79.0,78.0,79.0,79.0,78.0,77.0,78.0,78.0,77.0,76.0,77.0,78.0,77.0,76.0,75.0,75.0,75.0,75.0,74.0,74.0,74.0,75.0,74.0,73.0,73.0,74.0,72.0,74.0,71.0,73.0,72.0,71.0,70.0,70.0,70.0,68.0,67.0,67.0,65.0,67.0,64.0,62.0,62.0,62.0,61.0,61.0,63.0,62.0,58.0,61.0,62.0,62.0,60.0,58.0,60.0,58.0,58.0,58.0,57.0,56.0,55.0,56.0,54.0,54.0,53.0,53.0,54.0,54.0,54.0,52.0,52.0,53.0,53.0,53.0,55.0,52.0,53.0,53.0,53.0,52.0,52.0,51.0,51.0,50.0,50.0,51.0,51.0,51.0,52.0,51.0,53.0,49.0,49.0,48.0,48.0,48.0,47.0,48.0,47.0,48.0,47.0,48.0,48.0,49.0,50.0,51.0,50.0,50.0,50.0,51.0,54.0,53.0,53.0,51.0,51.0,50.0,48.0,48.0,50.0,51.0,50.0,49.0,50.0,51.0,51.0,51.0,51.0,50.0,51.0,49.0,50.0,50.0,49.0,52.0,51.0,51.0,50.0,49.0,48.0,48.0,48.0,48.0,48.0,48.0,48.0,48.0,48.0,48.0,49.0,48.0,48.0,47.0,47.0,48.0,47.0,49.0,48.0,50.0,51.0,51.0,51.0,51.0,53.0,53.0,54.0,53.0,52.0,52.0,52.0,53.0,53.0,52.0,53.0,53.0,53.0,53.0,52.0,51.0,51.0,52.0,51.0,51.0,51.0,51.0,51.0,50.0,50.0,51.0,50.0,49.0,49.0,50.0,50.0,50.0,51.0,51.0,53.0,52.0,53.0,53.0,52.0,52.0,50.0,50.0,50.0,49.0,50.0,48.0,48.0,47.0,48.0,48.0,47.0,50.0,48.0,49.0,50.0,50.0,52.0,52.0,53.0,52.0,52.0,52.0,51.0,50.0,50.0,49.0,50.0,49.0,50.0,50.0,50.0,51.0,51.0,53.0,52.0,53.0,54.0,53.0,53.0,53.0,53.0,52.0,51.0,52.0,50.0,50.0,50.0,50.0,49.0,48.0,49.0,50.0,50.0,50.0,51.0,50.0,50.0,51.0,50.0,49.0,48.0,47.0,48.0,48.0,49.0,48.0,50.0,50.0,49.0,51.0,50.0,50.0,51.0,50.0,51.0,50.0,53.0,52.0,52.0,52.0,51.0,51.0,51.0,51.0,54.0,54.0,56.0,55.0,55.0,55.0,56.0,57.0,54.0,56.0,57.0,57.0,59.0,58.0,59.0,58.0,58.0,60.0,60.0,60.0,60.0,59.0,58.0,54.0,56.0,55.0,56.0,57.0,57.0,57.0,57.0,59.0,59.0,58.0,59.0,58.0,61.0,60.0,60.0,58.0,59.0,57.0,56.0,57.0,56.0,56.0,55.0,55.0,54.0,53.0,53.0,54.0,54.0,55.0,53.0,53.0,53.0,53.0,53.0,53.0,53.0,54.0,53.0,53.0,53.0,57.0,55.0,56.0,56.0,55.0,56.0,54.0,54.0,53.0,54.0,54.0,54.0,53.0,53.0,54.0,53.0,54.0,54.0,54.0,54.0,54.0,55.0,56.0,58.0,57.0,57.0,56.0,56.0,57.0,57.0,58.0,59.0,58.0,55.0,55.0,54.0,55.0,54.0,55.0,57.0,56.0,57.0,56.0,58.0,56.0,55.0,56.0,56.0,55.0,55.0,56.0,57.0,58.0,60.0,59.0,61.0,61.0,60.0,61.0,62.0,63.0,64.0,64.0,63.0,63.0,66.0,65.0,65.0,66.0,65.0,67.0,65.0,65.0,65.0,66.0,66.0,66.0,66.0,65.0,67.0,67.0,67.0,65.0,66.0,66.0,66.0,68.0,68.0,68.0,68.0,67.0,67.0
40.0,41.0,42.0,41.0,40.0,40.0,39.0,40.0,39.0,40.0,41.0,40.0,40.0,39.0,39.0,39.0,39.0,40.0,41.0,42.0,40.0,40.0,41.0,41.0,41.0,41.0,41.0,41.0,38.0,38.0,38.0,42.0,41.0,41.0,40.0,39.0,38.0,36.0,37.0,37.0,40.0,39.0,39.0,38.0,38.0,37.0,37.0,37.0,40.0,40.0,41.0,39.0,39.0,38.0,39.0,41.0,40.0,40.0,39.0,38.0,39.0,38.0,39.0,39.0,37.0,38.0,37.0,37.0,37.0,39.0,43.0,55.0,102.0,120.0,142.0,207.0,236.0,232.0,232.0,227.0,209.0,208.0,206.0,203.0,202.0,208.0,202.0,209.0,233.0,233.0,242.0,276.0,287.0,345.0,350.0,373.0,385.0,389.0,406.0,426.0,440.0,457.0,478.0,487.0,507.0,515.0,524.0,532.0,544.0,540.0,536.0,536.0,528.0,525.0,520.0,510.0,503.0,497.0,489.0,483.0,480.0,466.0,455.0,448.0,443.0,435.0,427.0,417.0,409.0,403.0,395.0,388.0,384.0,375.0,361.0,355.0,346.0,339.0,332.0,326.0,316.0,311.0,303.0,295.0,288.0,279.0,276.0,274.0,267.0,257.0,255.0,245.0,244.0,236.0,236.0,237.0,230.0,227.0,228.0,222.0,216.0,214.0,214.0,211.0,208.0,204.0,210.0,203.0,196.0,198.0,193.0,190.0,193.0,192.0,185.0,190.0,191.0,183.0,185.0,181.0,175.0,176.0,174.0,170.0,170.0,173.0,170.0,165.0,166.0,170.0,168.0,161.0,154.0,152.0,149.0,151.0,149.0,146.0,144.0,142.0,143.0,145.0,140.0,144.0,141.0,136.0,135.0,133.0,131.0,126.0,127.0,125.0,124.0,124.0,119.0,117.0,119.0,116.0,117.0,112.0,112.0,111.0,109.0,104.0,102.0,102.0,99.0,101.0,100.0,100.0,98.0,100.0,93.0,94.0,90.0,89.0,89.0,86.0,87.0,86.0,83.0,82.0,83.0,82.0,90.0,91.0,92.0,91.0,85.0,82.0,85.0,87.0,82.0,84.0,84.0,81.0,83.0,82.0,87.0,87.0,82.0,85.0,79.0,82.0,85.0,85.0,84.0,86.0,84.0,85.0,84.0,90.0,89.0,87.0,82.0,84.0,87.0,83.0,88.0,88.0,88.0,83.0,84.0,83.0,82.0,81.0,80.0,83.0,78.0,74.0,81.0,78.0,74.0,77.0,79.0,76.0,76.0,74.0,74.0,70.0,72.0,76.0,80.0,74.0,72.0,72.0,74.0,73.0,71.0,69.0,73.0,71.0,77.0,79.0,80.0,77.0,84.0,80.0,78.0,75.0,72.0,69.0,70.0,73.0,73.0,70.0,68.0,73.0,72.0,77.0,78.0,75.0,72.0,76.0,75.0,77.0,75.0,74.0,72.0,71.0,76.0,77.0,75.0,74.0,69.0,69.0,73.0,72.0,74.0,75.0,75.0,73.0,74.0,79.0,79.0,82.0,80.0,76.0,78.0,75.0,76.0,76.0,76.0,80.0,83.0,83.0,80.0,76.0,76.0,82.0,85.0,82.0,82.0,82.0,81.0,83.0,83.0,86.0,83.0,80.0,81.0,80.0,85.0,86.0,90.0,91.0,90.0,86.0,87.0,87.0,90.0,89.0,87.0,88.0,88.0,87.0,88.0,84.0,82.0,80.0,83.0,79.0,83.0,84.0,85.0,84.0,83.0,81.0,86.0,85.0,85.0,85.0,87.0,85.0,86.0,83.0,85.0,83.0,83.0,84.0,80.0,79.0,80.0,81.0,79.0,77.0,75.0,74.0,76.0,75.0,80.0,76.0,77.0,75.0,74.0,72.0,69.0,70.0,68.0,66.0,64.0,62.0,60.0,61.0,59.0,59.0,59.0,59.0,56.0,57.0,60.0,59.0,62.0,65.0,70.0,70.0,72.0,71.0,77.0,78.0,75.0,88.0,109.0,132.0,151.0,177.0,202.0,220.0,246.0,268.0,287.0,301.0,314.0,323.0,337.0,346.0,356.0,360.0,364.0,369.0,375.0,383.0,383.0,387.0,386.0,387.0,389.0,387.0,385.0,383.0,385.0,384.0,381.0,376.0,374.0,372.0,370.0,367.0,365.0,359.0,359.0,357.0,352.0,352.0,346.0,343.0,339.0,337.0,336.0,331.0,328.0,324.0,320.0,316.0,314.0,312.0,309.0,306.0,304.0,301.0,298.0,296.0,294.0,290.0,287.0,284.0,281.0,279.0,272.0,270.0,267.0,263.0,259.0,257.0,254.0,253.0,251.0,250.0,250.0,246.0,244.0,244.0,243.0,240.0,242.0,240.0,238.0,235.0,233.0,236.0,234.0,232.0,229.0,227.0,225.0,222.0,222.0,217.0,214.0,211.0,209.0,206.0,201.0,199.0,196.0,194.0,191.0,187.0,188.0,186.0,183.0,182.0,178.0,178.0,177.0,175.0,174.0,173.0,175.0,173.0,171.0,172.0,172.0,170.0,169.0,167.0,166.0,162.0,158.0,157.0,157.0,157.0,155.0,152.0,151.0,148.0,147.0,145.0,142.0,143.0,143.0,138.0,140.0,140.0,139.0,137.0,135.0,135.0,132.0,128.0,127.0,127.0,126.0,125.0,125.0,124.0,123.0,121.0,120.0,119.0,118.0,118.0,116.0,112.0,113.0,110.0,109.0,108.0,106.0,104.0,102.0,104.0,100.0,100.0,98.0,97.0,97.0,96.0,95.0,93.0,91.0,93.0,92.0,92.0,91.0,90.0,88.0,90.0,87.0,85.0,84.0,83.0,82.0,82.0,82.0,81.0,80.0,79.0,79.0,80.0,79.0,79.0,80.0,80.0,81.0,79.0,79.0,83.0,81.0,79.0,75.0,73.0,73.0,70.0,69.0,69.0,67.0,64.0,63.0,63.0,60.0,59.0,57.0,55.0,55.0,55.0,52.0,54.0,54.0,54.0,55.0,54.0,55.0,53.0,53.0,50.0,50.0,50.0,49.0,51.0,51.0,52.0,52.0,50.0,50.0,49.0,49.0,46.0,45.0,45.0,44.0,43.0,43.0,44.0,43.0,43.0,42.0,39.0,41.0,40.0,40.0,40.0,41.0,41.0,40.0,41.0,42.0,41.0,40.0,41.0,41.0,39.0,39.0,38.0,38.0,40.0,40.0,41.0,39.0,38.0,38.0,38.0,39.0,39.0,39.0,40.0,39.0,40.0,40.0,41.0,40.0,40.0,41.0,41.0,40.0,41.0,40.0,39.0,39.0,40.0,38.0,39.0,39.0,38.0,40.0,38.0,39.0,38.0,37.0,37.0,38.0,38.0,38.0,38.0,39.0,38.0,39.0,38.0,38.0,38.0,40.0,40.0,40.0,40.0,38.0,38.0,38.0,39.0,41.0,39.0,39.0,39.0,39.0,40.0,44.0,44.0,43.0,43.0,45.0,43.0,45.0,45.0,45.0,48.0,48.0,50.0,49.0,48.0,48.0,47.0,50.0,49.0,50.0,52.0,50.0,52.0,51.0,50.0,49.0,48.0,50.0,48.0,48.0,50.0,48.0,48.0,46.0,44.0,46.0,45.0,45.0,47.0,47.0,46.0,47.0,49.0,49.0,48.0,48.0,47.0,46.0,45.0,45.0,45.0,47.0,47.0,47.0,44.0,44.0,44.0,45.0,44.0,44.0,44.0,42.0,41.0,41.0,40.0,40.0,41.0,41.0,41.0,38.0,39.0,38.0,39.0,39.0,39.0,41.0,40.0,39.0,40.0,39.0,40.0,40.0,39.0,38.0,38.0,39.0,39.0,39.0,39.0,39.0,40.0,39.0,41.0,39.0,39.0,39.0,39.0,40.0,38.0,39.0,42.0,41.0,40.0,39.0,41.0,40.0,41.0,42.0,41.0,40.0,40.0,41.0,39.0,39.0,42.0,41.0,41.0,40.0,41.0,42.0,40.0,42.0,41.0,42.0,43.0,41.0,42.0,43.0,44.0,45.0,46.0,46.0,45.0,46.0,44.0,44.0,43.0,42.0,41.0,40.0,41.0,39.0,39.0,39.0,39.0,41.0,39.0,40.0,41.0,42.0,45.0,46.0,46.0,45.0,47.0,49.0,49.0,51.0,49.0,51.0,51.0,51.0,51.0,51.0,51.0,50.0,48.0,48.0,47.0,51.0,48.0,47.0,48.0,48.0,49.0,48.0,49.0,50.0,53.0,53.0,51.0,51.0,51.0,50.0,52.0,52.0,51.0,52.0,52.0,50.0,51.0,52.0,52.0,55.0,53.0,52.0,53.0,53.0,52.0,52.0,52.0,50.0,50.0,52.0,51.0,53.0,52.0
24.0,28.0,36.0,33.0,28.0,29.0,30.0,30.0,27.0,25.0,33.0,28.0,38.0,34.0,29.0,39.0,35.0,32.0,32.0,33.0,29.0,25.0,32.0,35.0,31.0,33.0,32.0,30.0,27.0,24.0,21.0,36.0,37.0,34.0,29.0,32.0,31.0,27.0,24.0,22.0,24.0,31.0,28.0,24.0,23.0,20.0,21.0,18.0,26.0,29.0,25.0,22.0,26.0,23.0,28.0,38.0,33.0,29.0,26.0,23.0,28.0,26.0,24.0,22.0,19.0,17.0,16.0,13.0,13.0,12.0,14.0,18.0,27.0,30.0,37.0,48.0,68.0,63.0,61.0,59.0,62.0,61.0,54.0,53.0,49.0,48.0,56.0,54.0,56.0,52.0,57.0,55.0,49.0,43.0,52.0,54.0,56.0,55.0,57.0,58.0,58.0,59.0,58.0,54.0,52.0,50.0,55.0,54.0,50.0,54.0,53.0,52.0,52.0,50.0,54.0,56.0,53.0,51.0,53.0,50.0,54.0,50.0,50.0,46.0,45.0,41.0,42.0,48.0,45.0,42.0,37.0,47.0,46.0,45.0,40.0,39.0,40.0,39.0,41.0,40.0,39.0,42.0,37.0,38.0,34.0,33.0,31.0,32.0,34.0,35.0,33.0,34.0,31.0,29.0,25.0,25.0,22.0,21.0,20.0,17.0,17.0,16.0,15.0,14.0,18.0,17.0,21.0,27.0,26.0,26.0,27.0,24.0,23.0,21.0,20.0,19.0,18.0,21.0,21.0,20.0,23.0,21.0,21.0,20.0,18.0,17.0,16.0,15.0,16.0,16.0,20.0,18.0,17.0,16.0,18.0,17.0,21.0,22.0,22.0,21.0,22.0,22.0,21.0,19.0,22.0,22.0,22.0,22.0,25.0,23.0,19.0,20.0,18.0,17.0,16.0,15.0,15.0,15.0,16.0,14.0,13.0,12.0,14.0,14.0,14.0,15.0,14.0,12.0,13.0,13.0,13.0,15.0,13.0,13.0,11.0,11.0,14.0,12.0,13.0,16.0,15.0,14.0,12.0,12.0,13.0,16.0,15.0,15.0,15.0,13.0,13.0,12.0,11.0,10.0,11.0,11.0,10.0,10.0,10.0,11.0,9.0,9.0,9.0,8.0,8.0,9.0,9.0,9.0,7.0,9.0,8.0,6.0,7.0,6.0,8.0,7.0,6.0,6.0,6.0,8.0,9.0,10.0,10.0,12.0,12.0,11.0,13.0,13.0,18.0,16.0,15.0,18.0,14.0,14.0,12.0,11.0,11.0,9.0,15.0,14.0,14.0,13.0,15.0,13.0,12.0,13.0,15.0,14.0,12.0,11.0,10.0,9.0,12.0,11.0,10.0,12.0,11.0,12.0,13.0,12.0,12.0,14.0,15.0,19.0,17.0,16.0,15.0,15.0,14.0,12.0,13.0,11.0,12.0,10.0,12.0,12.0,11.0,13.0,14.0,15.0,14.0,13.0,12.0,10.0,10.0,12.0,10.0,10.0,11.0,11.0,8.0,11.0,10.0,9.0,9.0,8.0,11.0,10.0,11.0,10.0,11.0,12.0,14.0,14.0,13.0,12.0,11.0,11.0,10.0,12.0,11.0,12.0,10.0,11.0,11.0,10.0,10.0,13.0,13.0,12.0,12.0,14.0,13.0,12.0,12.0,13.0,10.0,10.0,10.0,10.0,10.0,12.0,11.0,12.0,10.0,11.0,10.0,10.0,9.0,8.0,9.0,8.0,9.0,9.0,9.0,10.0,9.0,10.0,14.0,16.0,15.0,13.0,13.0,17.0,17.0,15.0,14.0,12.0,11.0,10.0,10.0,12.0,12.0,11.0,11.0,10.0,9.0,8.0,11.0,12.0,12.0,12.0,11.0,11.0,10.0,9.0,10.0,8.0,7.0,7.0,9.0,9.0,10.0,10.0,9.0,7.0,7.0,8.0,7.0,9.0,20.0,22.0,31.0,40.0,44.0,51.0,76.0,71.0,97.0,112.0,110.0,118.0,124.0,131.0,137.0,153.0,163.0,171.0,166.0,155.0,149.0,135.0,135.0,133.0,122.0,113.0,103.0,94.0,102.0,95.0,87.0,79.0,83.0,78.0,70.0,63.0,59.0,62.0,64.0,66.0,63.0,55.0,52.0,54.0,57.0,57.0,50.0,44.0,49.0,52.0,45.0,45.0,43.0,46.0,41.0,44.0,47.0,42.0,45.0,46.0,40.0,36.0,32.0,31.0,39.0,34.0,43.0,38.0,35.0,31.0,28.0,26.0,27.0,27.0,35.0,34.0,32.0,31.0,28.0,27.0,24.0,22.0,26.0,24.0,26.0,29.0,34.0,35.0,32.0,30.0,40.0,37.0,33.0,30.0,29.0,25.0,24.0,23.0,32.0,33.0,30.0,31.0,29.0,26.0,22.0,24.0,35.0,35.0,31.0,30.0,27.0,22.0,25.0,23.0,21.0,19.0,17.0,39.0,32.0,31.0,28.0,27.0,28.0,28.0,25.0,24.0,22.0,20.0,18.0,19.0,19.0,25.0,26.0,22.0,22.0,31.0,33.0,31.0,33.0,43.0,39.0,35.0,37.0,49.0,44.0,41.0,38.0,32.0,31.0,31.0,27.0,28.0,40.0,35.0,32.0,29.0,40.0,35.0,31.0,33.0,36.0,38.0,32.0,30.0,29.0,26.0,23.0,34.0,34.0,30.0,27.0,25.0,26.0,36.0,31.0,29.0,25.0,23.0,21.0,19.0,23.0,34.0,30.0,27.0,24.0,23.0,20.0,18.0,17.0,17.0,26.0,28.0,30.0,27.0,26.0,23.0,32.0,30.0,25.0,23.0,20.0,18.0,19.0,17.0,16.0,14.0,14.0,24.0,21.0,22.0,19.0,18.0,16.0,14.0,14.0,20.0,27.0,29.0,26.0,23.0,20.0,19.0,18.0,16.0,25.0,24.0,22.0,18.0,17.0,29.0,29.0,28.0,25.0,25.0,22.0,21.0,20.0,34.0,30.0,33.0,31.0,28.0,29.0,25.0,22.0,21.0,19.0,17.0,20.0,16.0,28.0,29.0,28.0,25.0,32.0,28.0,23.0,22.0,21.0,19.0,19.0,17.0,29.0,37.0,32.0,31.0,29.0,26.0,22.0,21.0,18.0,16.0,24.0,29.0,26.0,29.0,35.0,32.0,28.0,30.0,26.0,23.0,20.0,19.0,22.0,27.0,25.0,23.0,21.0,21.0,18.0,19.0,27.0,25.0,27.0,26.0,23.0,20.0,21.0,29.0,29.0,27.0,35.0,32.0,28.0,39.0,34.0,30.0,27.0,27.0,25.0,24.0,24.0,22.0,29.0,27.0,32.0,28.0,25.0,21.0,20.0,18.0,41.0,36.0,31.0,28.0,25.0,23.0,20.0,18.0,33.0,31.0,28.0,26.0,24.0,21.0,20.0,27.0,27.0,25.0,23.0,24.0,24.0,22.0,35.0,32.0,28.0,26.0,23.0,22.0,20.0,18.0,32.0,29.0,26.0,23.0,23.0,21.0,20.0,17.0,30.0,28.0,24.0,25.0,35.0,34.0,31.0,27.0,25.0,22.0,21.0,20.0,19.0,33.0,30.0,28.0,24.0,21.0,21.0,18.0,18.0,26.0,25.0,22.0,23.0,39.0,33.0,30.0,27.0,24.0,21.0,20.0,24.0,22.0,30.0,28.0,24.0,22.0,24.0,23.0,36.0,34.0,30.0,26.0,23.0,20.0,19.0,22.0,20.0,33.0,30.0,26.0,23.0,21.0,20.0,20.0,20.0,17.0,23.0,23.0,21.0,21.0,17.0,16.0,16.0,14.0,14.0,13.0,18.0,19.0,16.0,15.0,16.0,14.0,14.0,27.0,24.0,21.0,18.0,16.0,17.0,16.0,15.0,28.0,28.0,25.0,22.0,24.0,22.0,19.0,23.0,29.0,26.0,24.0,22.0,19.0,18.0,35.0,32.0,27.0,23.0,21.0,19.0,18.0,17.0,16.0,16.0,27.0,23.0,21.0,19.0,17.0,17.0,15.0,14.0,13.0,17.0,16.0,17.0,15.0,14.0,12.0,11.0,10.0,9.0,10.0,12.0,29.0,30.0,29.0,24.0,21.0,22.0,33.0,34.0,36.0,33.0,40.0,41.0,39.0,34.0,32.0,27.0,26.0,24.0,21.0,20.0,35.0,33.0,29.0,25.0,23.0,27.0,35.0,32.0,28.0,25.0,22.0,20.0,17.0,15.0,14.0,24.0,22.0,19.0,17.0,15.0,14.0,27.0,24.0,22.0,20.0,20.0,18.0,17.0,18.0,28.0,32.0,27.0,24.0,22.0,20.0,18.0,16.0,15.0,14.0,26.0,25.0,25.0,23.0
44.0,43.0,44.0,49.0,49.0,49.0,51.0,52.0,50.0,51.0,54.0,58.0,60.0,57.0,56.0,55.0,53.0,51.0,50.0,51.0,53.0,51.0,48.0,47.0,48.0,47.0,47.0,46.0,44.0,42.0,42.0,43.0,48.0,48.0,45.0,46.0,45.0,43.0,43.0,46.0,49.0,54.0,57.0,61.0,57.0,53.0,49.0,47.0,49.0,54.0,56.0,53.0,53.0,51.0,49.0,49.0,46.0,47.0,45.0,45.0,48.0,48.0,49.0,50.0,47.0,45.0,48.0,49.0,50.0,60.0,96.0,125.0,135.0,158.0,197.0,229.0,231.0,242.0,238.0,290.0,329.0,309.0,286.0,268.0,249.0,280.0,287.0,268.0,274.0,263.0,292.0,292.0,279.0,275.0,291.0,310.0,296.0,275.0,272.0,274.0,265.0,250.0,270.0,267.0,276.0,266.0,292.0,300.0,284.0,265.0,250.0,263.0,274.0,286.0,273.0,292.0,279.0,275.0,285.0,279.0,281.0,263.0,268.0,272.0,263.0,285.0,339.0,337.0,314.0,295.0,285.0,269.0,283.0,280.0,261.0,279.0,281.0,268.0,270.0,249.0,247.0,267.0,268.0,269.0,260.0,245.0,256.0,260.0,259.0,255.0,246.0,255.0,250.0,244.0,247.0,236.0,235.0,235.0,228.0,219.0,226.0,225.0,220.0,206.0,226.0,233.0,234.0,247.0,272.0,276.0,256.0,259.0,242.0,256.0,271.0,280.0,287.0,302.0,305.0,291.0,302.0,293.0,281.0,271.0,255.0,261.0,259.0,251.0,248.0,234.0,256.0,256.0,262.0,260.0,257.0,246.0,250.0,256.0,240.0,241.0,259.0,264.0,258.0,244.0,255.0,275.0,255.0,250.0,258.0,251.0,260.0,249.0,254.0,257.0,245.0,241.0,258.0,251.0,251.0,273.0,258.0,260.0,281.0,276.0,279.0,281.0,275.0,281.0,276.0,255.0,268.0,265.0,253.0,241.0,230.0,220.0,234.0,227.0,216.0,217.0,209.0,207.0,197.0,196.0,178.0,191.0,201.0,203.0,195.0,203.0,211.0,223.0,212.0,205.0,202.0,199.0,191.0,191.0,190.0,196.0,185.0,195.0,179.0,201.0,210.0,217.0,209.0,198.0,201.0,205.0,198.0,184.0,189.0,180.0,184.0,181.0,171.0,183.0,185.0,180.0,185.0,176.0,170.0,175.0,185.0,192.0,199.0,184.0,191.0,177.0,193.0,189.0,208.0,196.0,190.0,196.0,199.0,218.0,260.0,256.0,252.0,248.0,236.0,229.0,217.0,215.0,217.0,220.0,217.0,212.0,210.0,213.0,216.0,210.0,200.0,212.0,223.0,242.0,235.0,255.0,255.0,243.0,250.0,239.0,242.0,227.0,222.0,222.0,220.0,212.0,212.0,206.0,256.0,255.0,239.0,227.0,216.0,255.0,245.0,249.0,242.0,233.0,235.0,248.0,249.0,257.0,236.0,238.0,245.0,234.0,219.0,200.0,197.0,216.0,238.0,237.0,249.0,261.0,250.0,232.0,234.0,223.0,212.0,211.0,200.0,198.0,199.0,200.0,186.0,196.0,198.0,200.0,213.0,207.0,196.0,188.0,206.0,205.0,200.0,210.0,212.0,190.0,193.0,185.0,199.0,189.0,188.0,193.0,188.0,198.0,206.0,212.0,203.0,189.0,201.0,195.0,190.0,174.0,191.0,185.0,186.0,173.0,176.0,183.0,173.0,176.0,170.0,170.0,206.0,206.0,205.0,202.0,218.0,222.0,227.0,210.0,207.0,203.0,200.0,181.0,181.0,201.0,191.0,181.0,185.0,193.0,194.0,189.0,209.0,223.0,213.0,209.0,212.0,221.0,214.0,224.0,217.0,229.0,228.0,232.0,226.0,222.0,219.0,216.0,200.0,206.0,200.0,196.0,182.0,171.0,166.0,162.0,160.0,177.0,174.0,161.0,166.0,183.0,189.0,200.0,204.0,223.0,230.0,230.0,239.0,235.0,230.0,265.0,257.0,263.0,244.0,227.0,229.0,218.0,207.0,204.0,194.0,196.0,193.0,189.0,183.0,177.0,181.0,163.0,153.0,146.0,149.0,155.0,160.0,161.0,165.0,154.0,153.0,149.0,144.0,142.0,135.0,126.0,124.0,124.0,113.0,106.0,100.0,103.0,97.0,97.0,97.0,95.0,94.0,90.0,84.0,79.0,74.0,77.0,79.0,84.0,82.0,84.0,85.0,87.0,86.0,84.0,88.0,82.0,77.0,76.0,79.0,79.0,80.0,80.0,75.0,69.0,71.0,69.0,70.0,67.0,70.0,67.0,65.0,67.0,64.0,65.0,66.0,63.0,64.0,63.0,59.0,60.0,60.0,59.0,55.0,56.0,55.0,53.0,51.0,55.0,57.0,58.0,60.0,61.0,61.0,59.0,65.0,66.0,63.0,62.0,62.0,72.0,69.0,70.0,65.0,67.0,72.0,69.0,66.0,69.0,69.0,67.0,63.0,63.0,70.0,75.0,70.0,69.0,70.0,78.0,76.0,72.0,69.0,75.0,75.0,71.0,76.0,89.0,86.0,84.0,81.0,85.0,83.0,85.0,81.0,86.0,86.0,82.0,80.0,90.0,86.0,83.0,80.0,86.0,88.0,91.0,86.0,85.0,89.0,90.0,89.0,92.0,95.0,94.0,89.0,97.0,100.0,96.0,96.0,99.0,100.0,100.0,98.0,99.0,102.0,95.0,94.0,92.0,96.0,90.0,87.0,82.0,86.0,91.0,91.0,90.0,85.0,85.0,82.0,82.0,80.0,79.0,80.0,79.0,83.0,85.0,84.0,84.0,82.0,83.0,81.0,86.0,85.0,85.0,88.0,91.0,91.0,93.0,92.0,98.0,100.0,93.0,90.0,90.0,92.0,93.0,96.0,98.0,102.0,95.0,94.0,94.0,98.0,97.0,96.0,94.0,96.0,96.0,95.0,95.0,96.0,96.0,92.0,93.0,94.0,92.0,89.0,83.0,81.0,82.0,83.0,83.0,86.0,83.0,89.0,87.0,88.0,85.0,82.0,75.0,77.0,76.0,77.0,78.0,82.0,78.0,74.0,70.0,68.0,70.0,69.0,65.0,65.0,59.0,64.0,64.0,75.0,71.0,70.0,72.0,74.0,74.0,72.0,69.0,65.0,62.0,63.0,69.0,71.0,74.0,72.0,72.0,68.0,65.0,64.0,69.0,64.0,62.0,66.0,64.0,64.0,64.0,64.0,68.0,64.0,65.0,64.0,64.0,61.0,61.0,59.0,63.0,61.0,65.0,60.0,63.0,66.0,63.0,60.0,57.0,63.0,61.0,59.0,57.0,60.0,62.0,60.0,58.0,55.0,52.0,53.0,53.0,52.0,56.0,52.0,53.0,54.0,54.0,53.0,50.0,49.0,49.0,48.0,49.0,47.0,57.0,56.0,52.0,51.0,50.0,50.0,52.0,51.0,58.0,56.0,55.0,58.0,56.0,54.0,56.0,54.0,58.0,55.0,57.0,60.0,56.0,61.0,62.0,62.0,58.0,56.0,56.0,52.0,54.0,51.0,50.0,56.0,61.0,62.0,57.0,57.0,57.0,56.0,62.0,61.0,64.0,61.0,63.0,69.0,66.0,63.0,60.0,57.0,58.0,56.0,57.0,57.0,56.0,60.0,59.0,61.0,59.0,58.0,54.0,51.0,50.0,50.0,51.0,48.0,48.0,48.0,48.0,47.0,49.0,50.0,49.0,47.0,47.0,47.0,47.0,48.0,47.0,55.0,53.0,51.0,50.0,50.0,50.0,51.0,50.0,50.0,50.0,57.0,55.0,53.0,53.0,52.0,52.0,55.0,54.0,52.0,50.0,49.0,49.0,48.0,46.0,49.0,50.0,50.0,52.0,49.0,50.0,48.0,47.0,49.0,49.0,48.0,46.0,45.0,43.0,43.0,44.0,44.0,44.0,44.0,45.0,42.0,44.0,47.0,46.0,43.0,48.0,45.0,42.0,46.0,43.0,45.0,44.0,48.0,53.0,58.0,53.0,53.0,50.0,47.0,49.0,47.0,47.0,45.0,51.0,54.0,53.0,58.0,54.0,54.0,49.0,51.0,50.0,50.0,48.0,50.0,50.0,52.0,54.0,52.0,53.0,50.0,50.0,49.0,46.0,44.0,45.0,48.0,47.0,47.0,47.0,48.0,46.0,47.0,46.0,46.0,45.0,44.0,45.0,41.0,46.0,47.0,47.0,46.0,45.0,45.0,47.0,49.0,47.0,46.0,48.0,48.0,49.0,47.0,44.0,47.0,48.0,49.0,52.0,53.0,51.0,48.0,47.0,45.0,45.0,50.0,48.0,52.0,50.0
