128.0,127.0,127.0,128.0,128.0,127.0,127.0,125.0,127.0,127.0,124.0,126.0,127.0,128.0,128.0,128.0,127.0,127.0,128.0,127.0,127.0,130.0,130.0,132.0,133.0,131.0,133.0,134.0,133.0,134.0,135.0,136.0,134.0,134.0,134.0,133.0,136.0,135.0,137.0,137.0,135.0,138.0,138.0,139.0,140.0,141.0,143.0,143.0,144.0,144.0,145.0,145.0,146.0,147.0,145.0,147.0,147.0,147.0,149.0,149.0,147.0,148.0,149.0,150.0,151.0,151.0,153.0,154.0,155.0,158.0,159.0,159.0,161.0,161.0,164.0,163.0,166.0,165.0,165.0,165.0,167.0,169.0,168.0,166.0,169.0,169.0,171.0,170.0,169.0,169.0,167.0,168.0,168.0,167.0,166.0,164.0,164.0,162.0,162.0,161.0,160.0,161.0,161.0,161.0,160.0,157.0,160.0,155.0,157.0,158.0,157.0,159.0,156.0,158.0,156.0,155.0,156.0,154.0,156.0,157.0,156.0,154.0,153.0,151.0,151.0,150.0,148.0,147.0,146.0,146.0,143.0,142.0,143.0,142.0,145.0,147.0,148.0,150.0,147.0,144.0,146.0,142.0,140.0,136.0,139.0,138.0,137.0,136.0,135.0,135.0,133.0,133.0,132.0,129.0,131.0,128.0,127.0,131.0,127.0,123.0,116.0,112.0,117.0,112.0,110.0,106.0,119.0,115.0,113.0,125.0,148.0,154.0,152.0,152.0,148.0,141.0,151.0,148.0,145.0,138.0,136.0,146.0,141.0,136.0,124.0,115.0,114.0,107.0,105.0,102.0,99.0,95.0,92.0,95.0,95.0,90.0,88.0,84.0,85.0,92.0,93.0,89.0,86.0,81.0,77.0,82.0,82.0,83.0,78.0,75.0,76.0,80.0,78.0,78.0,77.0,77.0,74.0,76.0,74.0,74.0,73.0,74.0,75.0,76.0,76.0,77.0,73.0,69.0,65.0,65.0,64.0,63.0,64.0,65.0,65.0,62.0,60.0,58.0,56.0,55.0,54.0,61.0,60.0,60.0,62.0,62.0,59.0,58.0,55.0,56.0,55.0,58.0,59.0,65.0,69.0,67.0,67.0,64.0,62.0,60.0,62.0,62.0,61.0,62.0,62.0,60.0,59.0,58.0,62.0,59.0,60.0,56.0,58.0,59.0,59.0,61.0,61.0,64.0,61.0,60.0,59.0,59.0,60.0,59.0,60.0,59.0,60.0,62.0,59.0,61.0,60.0,59.0,60.0,58.0,60.0,59.0,60.0,60.0,59.0,61.0,59.0,57.0,56.0,55.0,55.0,54.0,53.0,51.0,53.0,54.0,54.0,52.0,52.0,56.0,54.0,54.0,55.0,55.0,62.0,63.0,62.0,66.0,65.0,64.0,61.0,58.0,58.0,60.0,61.0,60.0,61.0,59.0,59.0,62.0,60.0,61.0,61.0,59.0,60.0,59.0,63.0,66.0,67.0,65.0,65.0,67.0,66.0,65.0,66.0,65.0,65.0,67.0,69.0,69.0,71.0,71.0,74.0,75.0,73.0,75.0,77.0,79.0,78.0,81.0,80.0,80.0,81.0,84.0,87.0,87.0,89.0,88.0,90.0,94.0,98.0,99.0,104.0,105.0,107.0,111.0,112.0,111.0,114.0,116.0,118.0,121.0,124.0,128.0,130.0,130.0,131.0,131.0,134.0,132.0,137.0,140.0,148.0,150.0,151.0,149.0,150.0,153.0,152.0,154.0,152.0,154.0,154.0,155.0,157.0,159.0,160.0,155.0,154.0,157.0,156.0,156.0,155.0,158.0,158.0,155.0,158.0,159.0,163.0,157.0,161.0,159.0,161.0,158.0,159.0,156.0,155.0,150.0,148.0,153.0,149.0,147.0,147.0,143.0,140.0,139.0,138.0,142.0,140.0,139.0,138.0,135.0,135.0,133.0,136.0,135.0,131.0,134.0,131.0,130.0,130.0,130.0,129.0,124.0,122.0,125.0,122.0,122.0,120.0,119.0,117.0,117.0,116.0,116.0,114.0,113.0,111.0,111.0,110.0,112.0,110.0,111.0,109.0,106.0,104.0,103.0,105.0,103.0,98.0,101.0,99.0,100.0,99.0,99.0,96.0,96.0,94.0,92.0,91.0,90.0,91.0,90.0,86.0,88.0,87.0,85.0,83.0,81.0,79.0,76.0,76.0,75.0,75.0,76.0,73.0,74.0,73.0,71.0,70.0,67.0,66.0,66.0,79.0,88.0,92.0,96.0,105.0,106.0,102.0,109.0,104.0,97.0,95.0,88.0,87.0,88.0,85.0,86.0,85.0,87.0,86.0,87.0,91.0,92.0,94.0,93.0,91.0,90.0,91.0,94.0,93.0,94.0,94.0,92.0,91.0,89.0,87.0,85.0,87.0,89.0,88.0,88.0,88.0,90.0,89.0,89.0,89.0,90.0,91.0,92.0,95.0,96.0,96.0,97.0,94.0,95.0,96.0,96.0,98.0,98.0,99.0,96.0,96.0,98.0,97.0,96.0,96.0,93.0,96.0,93.0,94.0,94.0,94.0,94.0,93.0,92.0,89.0,88.0,87.0,86.0,85.0,83.0,84.0,82.0,84.0,84.0,83.0,81.0,80.0,79.0,78.0,79.0,80.0,79.0,78.0,76.0,77.0,78.0,76.0,73.0,72.0,74.0,73.0,72.0,72.0,68.0,69.0,67.0,66.0,65.0,65.0,65.0,62.0,63.0,63.0,63.0,63.0,63.0,64.0,64.0,63.0,62.0,62.0,65.0,66.0,64.0,67.0,66.0,65.0,66.0,67.0,68.0,67.0,68.0,68.0,67.0,69.0,67.0,68.0,66.0,66.0,66.0,65.0,66.0,65.0,65.0,64.0,65.0,65.0,64.0,65.0,64.0,63.0,64.0,64.0,65.0,62.0,63.0,64.0,65.0,65.0,65.0,67.0,64.0,66.0,67.0,65.0,67.0,68.0,69.0,67.0,67.0,66.0,64.0,63.0,63.0,64.0,64.0,64.0,68.0,67.0,66.0,66.0,65.0,65.0,64.0,63.0,62.0,61.0,61.0,61.0,61.0,60.0,60.0,62.0,59.0,61.0,61.0,61.0,61.0,62.0,61.0,61.0,61.0,62.0,63.0,63.0,62.0,63.0,64.0,63.0,64.0,64.0,65.0,68.0,66.0,68.0,68.0,67.0,68.0,69.0,69.0,70.0,70.0,71.0,71.0,71.0,71.0,69.0,69.0,69.0,67.0,68.0,67.0,67.0,65.0,63.0,63.0,62.0,63.0,64.0,64.0,64.0,63.0,63.0,65.0,64.0,63.0,62.0,63.0,61.0,62.0,62.0,64.0,64.0,65.0,65.0,63.0,63.0,60.0,61.0,61.0,61.0,61.0,60.0,58.0,57.0,58.0,57.0,57.0,58.0,59.0,58.0,60.0,59.0,60.0,59.0,59.0,59.0,57.0,60.0,58.0,59.0,58.0,58.0,58.0,58.0,61.0,60.0,63.0,63.0,63.0,63.0,63.0,63.0,65.0,64.0,63.0,63.0,63.0,63.0,61.0,60.0,58.0,56.0,56.0,55.0,56.0,54.0,54.0,53.0,51.0,53.0,53.0,54.0,53.0,51.0,51.0,52.0,51.0,51.0,52.0,54.0,53.0,54.0,55.0,54.0,53.0,55.0,57.0,56.0,56.0,56.0,54.0,55.0,53.0,54.0,55.0,55.0,54.0,55.0,54.0,55.0,56.0,54.0,57.0,55.0,58.0,56.0,56.0,56.0,54.0,54.0,57.0,56.0,56.0,56.0,55.0,56.0,57.0,56.0,54.0,55.0,55.0,53.0,53.0,50.0,52.0,50.0,49.0,49.0,47.0,48.0,47.0,49.0,48.0,48.0,48.0,49.0,49.0,50.0,51.0,53.0,53.0,54.0,54.0,54.0,54.0,54.0,53.0,55.0,55.0,55.0,55.0,53.0,52.0,53.0,51.0,51.0,50.0,49.0,51.0,48.0,49.0,49.0,48.0,48.0,47.0,47.0,47.0,47.0,47.0,47.0,47.0,47.0,47.0,48.0,48.0,47.0,48.0,48.0,52.0,52.0,55.0,54.0,54.0,54.0,54.0,55.0,54.0,54.0,54.0,53.0,53.0,52.0,52.0,51.0,52.0,51.0,51.0,52.0,52.0,53.0,53.0,55.0,53.0,53.0,52.0,52.0,52.0,53.0,54.0,54.0,53.0,54.0,53.0,53.0,52.0,51.0,52.0,50.0,50.0,49.0,51.0,50.0,51.0,51.0,50.0,50.0,50.0,50.0,51.0,51.0,51.0,52.0,52.0,53.0,54.0,53.0,53.0,53.0,52.0,52.0,53.0,54.0,52.0
167.0,165.0,162.0,161.0,158.0,154.0,153.0,149.0,149.0,145.0,142.0,142.0,141.0,142.0,140.0,141.0,139.0,138.0,139.0,136.0,135.0,135.0,134.0,133.0,133.0,131.0,132.0,131.0,128.0,130.0,131.0,130.0,130.0,129.0,129.0,127.0,129.0,130.0,131.0,131.0,130.0,131.0,131.0,132.0,133.0,131.0,133.0,132.0,132.0,132.0,129.0,130.0,132.0,134.0,134.0,135.0,137.0,136.0,140.0,141.0,142.0,144.0,143.0,144.0,145.0,145.0,148.0,148.0,148.0,151.0,151.0,149.0,151.0,148.0,150.0,146.0,151.0,149.0,150.0,148.0,149.0,149.0,148.0,147.0,147.0,150.0,151.0,151.0,150.0,150.0,149.0,150.0,151.0,149.0,147.0,144.0,144.0,142.0,142.0,140.0,138.0,138.0,138.0,137.0,136.0,133.0,134.0,131.0,133.0,135.0,134.0,135.0,133.0,135.0,136.0,136.0,136.0,133.0,136.0,138.0,138.0,138.0,139.0,136.0,136.0,132.0,129.0,123.0,113.0,104.0,100.0,97.0,98.0,99.0,99.0,100.0,100.0,102.0,104.0,103.0,99.0,98.0,97.0,100.0,92.0,91.0,87.0,89.0,85.0,82.0,81.0,76.0,73.0,75.0,72.0,70.0,68.0,65.0,75.0,70.0,82.0,143.0,153.0,169.0,185.0,195.0,196.0,226.0,240.0,337.0,439.0,450.0,462.0,480.0,455.0,444.0,487.0,478.0,473.0,472.0,490.0,502.0,496.0,492.0,487.0,480.0,483.0,477.0,477.0,465.0,444.0,440.0,429.0,430.0,407.0,389.0,379.0,368.0,368.0,353.0,336.0,348.0,319.0,311.0,302.0,298.0,297.0,289.0,282.0,274.0,265.0,260.0,249.0,267.0,255.0,244.0,242.0,231.0,229.0,222.0,219.0,221.0,217.0,215.0,211.0,209.0,198.0,190.0,181.0,185.0,180.0,173.0,171.0,167.0,160.0,155.0,153.0,150.0,147.0,144.0,145.0,155.0,153.0,153.0,153.0,144.0,136.0,129.0,127.0,124.0,122.0,129.0,135.0,140.0,136.0,134.0,131.0,124.0,120.0,115.0,124.0,121.0,134.0,126.0,126.0,119.0,117.0,112.0,119.0,112.0,110.0,104.0,107.0,112.0,111.0,115.0,112.0,113.0,106.0,104.0,103.0,103.0,101.0,103.0,101.0,99.0,99.0,102.0,99.0,96.0,95.0,93.0,97.0,97.0,101.0,99.0,100.0,102.0,100.0,107.0,101.0,98.0,99.0,94.0,97.0,95.0,94.0,95.0,102.0,101.0,103.0,98.0,98.0,98.0,95.0,97.0,97.0,100.0,106.0,111.0,112.0,115.0,113.0,115.0,109.0,108.0,102.0,112.0,107.0,108.0,111.0,107.0,117.0,112.0,109.0,106.0,103.0,107.0,102.0,108.0,109.0,107.0,102.0,98.0,99.0,97.0,98.0,95.0,92.0,94.0,93.0,87.0,89.0,88.0,86.0,83.0,78.0,75.0,75.0,83.0,82.0,78.0,78.0,76.0,73.0,73.0,73.0,77.0,74.0,76.0,73.0,79.0,80.0,80.0,78.0,83.0,79.0,78.0,79.0,75.0,69.0,69.0,73.0,77.0,76.0,76.0,72.0,75.0,73.0,70.0,67.0,69.0,73.0,77.0,80.0,84.0,89.0,89.0,90.0,89.0,92.0,93.0,92.0,99.0,95.0,96.0,96.0,97.0,95.0,98.0,97.0,93.0,92.0,96.0,93.0,92.0,94.0,99.0,103.0,100.0,108.0,115.0,119.0,122.0,127.0,124.0,125.0,127.0,127.0,126.0,124.0,122.0,127.0,139.0,136.0,132.0,131.0,125.0,123.0,123.0,126.0,130.0,126.0,125.0,121.0,118.0,120.0,119.0,120.0,122.0,118.0,113.0,115.0,112.0,111.0,113.0,112.0,108.0,108.0,114.0,113.0,119.0,119.0,117.0,115.0,112.0,109.0,111.0,109.0,111.0,113.0,111.0,115.0,113.0,109.0,105.0,100.0,97.0,93.0,101.0,104.0,100.0,97.0,95.0,96.0,94.0,88.0,82.0,79.0,80.0,76.0,84.0,84.0,84.0,82.0,79.0,81.0,79.0,86.0,81.0,78.0,76.0,77.0,73.0,77.0,78.0,81.0,78.0,76.0,75.0,73.0,73.0,73.0,73.0,70.0,72.0,76.0,77.0,79.0,84.0,91.0,94.0,92.0,91.0,103.0,117.0,128.0,150.0,175.0,203.0,224.0,244.0,266.0,282.0,299.0,312.0,325.0,341.0,348.0,355.0,359.0,365.0,366.0,371.0,374.0,376.0,376.0,373.0,371.0,366.0,362.0,355.0,350.0,344.0,336.0,329.0,323.0,317.0,309.0,303.0,295.0,288.0,278.0,271.0,267.0,261.0,255.0,252.0,244.0,237.0,234.0,230.0,225.0,222.0,215.0,208.0,205.0,202.0,198.0,195.0,191.0,186.0,184.0,177.0,172.0,168.0,164.0,161.0,159.0,155.0,152.0,150.0,147.0,145.0,143.0,141.0,138.0,136.0,135.0,133.0,131.0,127.0,126.0,123.0,119.0,121.0,121.0,119.0,116.0,111.0,111.0,108.0,107.0,104.0,102.0,102.0,98.0,96.0,93.0,87.0,88.0,88.0,86.0,82.0,82.0,80.0,77.0,77.0,73.0,74.0,71.0,73.0,73.0,73.0,71.0,69.0,69.0,70.0,70.0,70.0,72.0,73.0,75.0,78.0,78.0,79.0,78.0,78.0,78.0,78.0,81.0,79.0,80.0,78.0,76.0,78.0,76.0,77.0,78.0,77.0,78.0,78.0,78.0,80.0,81.0,82.0,83.0,84.0,84.0,87.0,86.0,88.0,89.0,89.0,91.0,91.0,91.0,89.0,91.0,92.0,91.0,90.0,92.0,90.0,89.0,90.0,89.0,87.0,87.0,88.0,88.0,87.0,88.0,91.0,90.0,89.0,92.0,92.0,91.0,94.0,94.0,95.0,92.0,92.0,92.0,90.0,89.0,87.0,89.0,86.0,85.0,84.0,82.0,80.0,81.0,79.0,81.0,79.0,81.0,80.0,81.0,81.0,79.0,80.0,80.0,81.0,82.0,80.0,80.0,76.0,77.0,76.0,76.0,74.0,74.0,71.0,72.0,71.0,70.0,69.0,67.0,67.0,66.0,68.0,68.0,69.0,68.0,66.0,65.0,64.0,61.0,61.0,61.0,59.0,59.0,58.0,58.0,58.0,56.0,60.0,60.0,60.0,58.0,60.0,60.0,60.0,61.0,62.0,61.0,62.0,60.0,60.0,60.0,57.0,60.0,59.0,60.0,59.0,59.0,58.0,56.0,57.0,58.0,56.0,55.0,57.0,56.0,56.0,57.0,56.0,57.0,58.0,56.0,54.0,57.0,56.0,57.0,56.0,57.0,54.0,54.0,54.0,54.0,55.0,55.0,55.0,55.0,55.0,55.0,53.0,53.0,50.0,49.0,49.0,48.0,47.0,45.0,45.0,44.0,44.0,45.0,45.0,45.0,45.0,45.0,42.0,42.0,45.0,45.0,47.0,46.0,46.0,45.0,44.0,46.0,45.0,46.0,46.0,47.0,48.0,48.0,48.0,50.0,53.0,53.0,54.0,57.0,53.0,55.0,54.0,54.0,57.0,55.0,54.0,54.0,52.0,51.0,51.0,52.0,51.0,51.0,52.0,50.0,49.0,48.0,48.0,48.0,49.0,48.0,48.0,48.0,48.0,49.0,51.0,49.0,50.0,48.0,47.0,45.0,44.0,44.0,43.0,44.0,43.0,44.0,43.0,41.0,44.0,43.0,44.0,44.0,43.0,43.0,42.0,43.0,42.0,42.0,43.0,43.0,43.0,42.0,42.0,44.0,43.0,46.0,45.0,45.0,46.0,45.0,47.0,48.0,48.0,47.0,48.0,47.0,47.0,46.0,45.0,46.0,45.0,44.0,44.0,43.0,46.0,46.0,46.0,46.0,44.0,46.0,45.0,47.0,47.0,45.0,47.0,45.0,48.0,50.0,53.0,51.0,51.0,50.0,48.0,49.0,48.0,50.0,51.0,49.0,50.0,49.0,49.0,51.0,51.0,52.0,52.0,52.0,52.0,50.0,52.0,51.0,50.0,48.0,47.0,46.0,44.0,44.0,46.0,44.0,43.0,44.0,43.0,42.0,42.0,40.0,42.0,41.0,40.0,40.0,41.0,39.0,40.0,40.0,40.0,41.0,42.0,41.0,40.0,39.0,39.0,39.0,39.0,42.0,43.0,41.0,41.0,40.0,40.0,41.0,41.0,42.0,42.0
64.0,68.0,60.0,58.0,59.0,60.0,56.0,64.0,56.0,57.0,61.0,74.0,68.0,66.0,59.0,56.0,57.0,64.0,60.0,63.0,65.0,59.0,56.0,64.0,62.0,65.0,58.0,56.0,56.0,65.0,66.0,62.0,53.0,53.0,51.0,57.0,62.0,63.0,61.0,53.0,48.0,42.0,38.0,34.0,51.0,49.0,42.0,38.0,34.0,32.0,34.0,35.0,43.0,38.0,35.0,33.0,30.0,28.0,33.0,33.0,29.0,28.0,28.0,40.0,38.0,33.0,36.0,36.0,34.0,32.0,43.0,50.0,45.0,45.0,50.0,52.0,54.0,52.0,48.0,44.0,39.0,37.0,46.0,62.0,76.0,88.0,80.0,75.0,73.0,67.0,64.0,64.0,60.0,53.0,52.0,53.0,52.0,64.0,60.0,67.0,80.0,85.0,77.0,73.0,70.0,64.0,57.0,61.0,58.0,58.0,60.0,53.0,62.0,57.0,51.0,47.0,49.0,52.0,62.0,57.0,51.0,53.0,53.0,62.0,64.0,57.0,52.0,48.0,54.0,54.0,52.0,57.0,63.0,58.0,63.0,58.0,52.0,47.0,66.0,71.0,65.0,60.0,56.0,65.0,62.0,64.0,56.0,68.0,66.0,68.0,69.0,67.0,67.0,82.0,80.0,71.0,68.0,64.0,65.0,65.0,61.0,68.0,66.0,63.0,66.0,60.0,57.0,54.0,54.0,73.0,107.0,110.0,98.0,102.0,99.0,88.0,111.0,99.0,112.0,115.0,123.0,118.0,103.0,94.0,82.0,83.0,85.0,87.0,102.0,107.0,96.0,84.0,78.0,71.0,63.0,68.0,63.0,58.0,55.0,53.0,48.0,54.0,62.0,54.0,49.0,47.0,48.0,49.0,48.0,45.0,52.0,55.0,50.0,43.0,46.0,42.0,39.0,38.0,49.0,45.0,43.0,37.0,34.0,33.0,36.0,35.0,45.0,39.0,34.0,38.0,38.0,36.0,35.0,32.0,29.0,24.0,23.0,31.0,28.0,25.0,26.0,28.0,36.0,34.0,32.0,29.0,26.0,21.0,21.0,18.0,28.0,29.0,25.0,25.0,21.0,20.0,21.0,20.0,20.0,18.0,28.0,33.0,29.0,28.0,26.0,24.0,22.0,20.0,19.0,17.0,16.0,15.0,16.0,30.0,27.0,24.0,21.0,21.0,18.0,18.0,18.0,19.0,21.0,36.0,35.0,31.0,33.0,30.0,27.0,25.0,22.0,21.0,18.0,16.0,28.0,34.0,33.0,33.0,29.0,27.0,25.0,24.0,22.0,36.0,38.0,40.0,37.0,32.0,28.0,24.0,28.0,26.0,25.0,33.0,30.0,29.0,28.0,26.0,28.0,27.0,25.0,35.0,32.0,30.0,27.0,25.0,25.0,25.0,23.0,21.0,22.0,20.0,41.0,40.0,35.0,35.0,33.0,30.0,27.0,24.0,25.0,33.0,32.0,29.0,26.0,25.0,33.0,34.0,30.0,27.0,24.0,24.0,27.0,38.0,33.0,29.0,26.0,24.0,31.0,40.0,44.0,39.0,34.0,33.0,34.0,32.0,29.0,26.0,23.0,21.0,23.0,47.0,44.0,39.0,36.0,33.0,28.0,27.0,40.0,35.0,32.0,28.0,33.0,41.0,39.0,53.0,48.0,41.0,38.0,32.0,31.0,30.0,36.0,42.0,69.0,71.0,68.0,60.0,55.0,49.0,59.0,62.0,60.0,72.0,78.0,73.0,68.0,69.0,73.0,63.0,56.0,53.0,58.0,65.0,68.0,89.0,93.0,92.0,92.0,92.0,109.0,125.0,123.0,118.0,125.0,126.0,119.0,126.0,111.0,104.0,97.0,92.0,90.0,99.0,95.0,92.0,88.0,80.0,73.0,69.0,64.0,58.0,57.0,55.0,49.0,48.0,54.0,59.0,57.0,60.0,55.0,55.0,52.0,46.0,43.0,41.0,40.0,60.0,63.0,57.0,51.0,50.0,44.0,41.0,39.0,43.0,42.0,44.0,43.0,41.0,56.0,54.0,51.0,46.0,44.0,42.0,38.0,33.0,29.0,50.0,48.0,42.0,44.0,42.0,41.0,38.0,33.0,31.0,30.0,30.0,28.0,47.0,46.0,49.0,44.0,38.0,34.0,31.0,27.0,27.0,24.0,24.0,23.0,20.0,31.0,34.0,31.0,33.0,30.0,28.0,24.0,22.0,21.0,21.0,38.0,54.0,60.0,76.0,71.0,84.0,83.0,113.0,119.0,127.0,121.0,121.0,108.0,98.0,94.0,113.0,117.0,109.0,114.0,115.0,114.0,122.0,123.0,120.0,119.0,110.0,104.0,102.0,96.0,100.0,108.0,101.0,93.0,94.0,86.0,101.0,98.0,97.0,96.0,97.0,101.0,97.0,95.0,94.0,95.0,86.0,80.0,78.0,87.0,78.0,74.0,76.0,69.0,63.0,66.0,66.0,86.0,80.0,72.0,66.0,60.0,66.0,68.0,71.0,64.0,59.0,53.0,58.0,53.0,53.0,62.0,62.0,59.0,55.0,49.0,43.0,44.0,57.0,54.0,50.0,47.0,47.0,44.0,60.0,53.0,46.0,42.0,39.0,36.0,34.0,29.0,38.0,35.0,30.0,27.0,39.0,36.0,32.0,28.0,39.0,38.0,36.0,32.0,29.0,29.0,30.0,41.0,36.0,34.0,32.0,32.0,29.0,26.0,25.0,38.0,36.0,32.0,29.0,28.0,24.0,23.0,22.0,18.0,19.0,17.0,15.0,14.0,12.0,40.0,39.0,33.0,31.0,30.0,39.0,39.0,36.0,32.0,30.0,28.0,31.0,47.0,40.0,39.0,36.0,32.0,29.0,26.0,23.0,39.0,36.0,31.0,27.0,26.0,25.0,34.0,30.0,34.0,33.0,33.0,31.0,28.0,25.0,24.0,36.0,35.0,31.0,28.0,30.0,27.0,28.0,35.0,35.0,34.0,34.0,32.0,31.0,27.0,40.0,43.0,42.0,38.0,34.0,32.0,29.0,34.0,34.0,30.0,26.0,25.0,22.0,23.0,20.0,35.0,32.0,27.0,29.0,28.0,28.0,24.0,32.0,30.0,26.0,24.0,25.0,23.0,21.0,35.0,46.0,43.0,38.0,34.0,31.0,27.0,27.0,38.0,36.0,33.0,33.0,30.0,26.0,24.0,31.0,31.0,28.0,28.0,27.0,25.0,23.0,22.0,34.0,32.0,29.0,27.0,24.0,23.0,19.0,18.0,33.0,30.0,29.0,26.0,24.0,21.0,20.0,27.0,38.0,35.0,35.0,33.0,30.0,26.0,30.0,28.0,26.0,25.0,23.0,22.0,19.0,18.0,24.0,30.0,30.0,26.0,29.0,27.0,23.0,21.0,41.0,37.0,37.0,34.0,31.0,30.0,30.0,41.0,38.0,34.0,31.0,29.0,33.0,32.0,28.0,37.0,35.0,32.0,30.0,28.0,26.0,22.0,23.0,22.0,31.0,35.0,31.0,27.0,26.0,27.0,27.0,24.0,37.0,33.0,29.0,26.0,26.0,23.0,21.0,35.0,34.0,30.0,28.0,25.0,25.0,23.0,31.0,31.0,26.0,25.0,22.0,20.0,25.0,24.0,33.0,30.0,27.0,25.0,22.0,21.0,23.0,26.0,36.0,32.0,30.0,25.0,27.0,23.0,21.0,33.0,29.0,26.0,23.0,22.0,19.0,21.0,34.0,30.0,27.0,23.0,20.0,19.0,18.0,16.0,14.0,31.0,32.0,27.0,26.0,22.0,21.0,24.0,37.0,35.0,35.0,34.0,31.0,27.0,25.0,22.0,34.0,33.0,31.0,28.0,24.0,22.0,31.0,29.0,30.0,30.0,26.0,25.0,22.0,33.0,34.0,30.0,27.0,27.0,26.0,24.0,28.0,39.0,36.0,31.0,29.0,28.0,28.0,31.0,46.0,41.0,36.0,32.0,29.0,36.0,49.0,44.0,41.0,38.0,35.0,33.0,30.0,30.0,51.0,47.0,42.0,38.0,42.0,40.0,38.0,38.0,34.0,31.0,27.0,31.0,31.0,34.0,29.0,26.0,24.0,22.0,20.0,19.0,19.0,31.0,28.0,28.0,24.0,22.0,23.0,21.0,19.0,39.0,34.0,31.0,29.0,26.0,29.0,34.0,31.0,28.0,24.0,21.0,19.0,23.0,38.0,33.0,28.0,34.0,30.0,29.0,25.0,25.0,40.0,38.0,34.0,30.0,28.0,25.0,24.0,22.0,20.0,34.0,34.0,30.0,28.0,25.0,32.0,30.0,30.0,41.0,38.0,33.0,29.0,28.0,28.0,24.0,23.0,23.0,31.0
92.0,90.0,93.0,93.0,91.0,92.0,92.0,88.0,86.0,85.0,88.0,94.0,94.0,93.0,96.0,93.0,94.0,97.0,96.0,95.0,90.0,92.0,90.0,94.0,87.0,86.0,89.0,86.0,81.0,80.0,78.0,75.0,73.0,69.0,66.0,65.0,67.0,64.0,64.0,64.0,62.0,60.0,58.0,57.0,57.0,55.0,55.0,51.0,49.0,48.0,47.0,53.0,54.0,54.0,54.0,58.0,61.0,60.0,62.0,65.0,66.0,63.0,62.0,66.0,70.0,73.0,74.0,72.0,69.0,70.0,69.0,67.0,69.0,69.0,72.0,71.0,72.0,67.0,66.0,60.0,62.0,58.0,64.0,67.0,63.0,71.0,67.0,73.0,68.0,67.0,67.0,67.0,64.0,60.0,58.0,63.0,66.0,73.0,69.0,68.0,71.0,66.0,63.0,59.0,59.0,57.0,54.0,58.0,57.0,60.0,61.0,58.0,60.0,59.0,56.0,58.0,60.0,60.0,63.0,62.0,60.0,61.0,57.0,56.0,55.0,54.0,51.0,49.0,53.0,56.0,53.0,52.0,56.0,56.0,57.0,56.0,60.0,58.0,83.0,96.0,95.0,93.0,89.0,89.0,85.0,82.0,83.0,99.0,107.0,111.0,112.0,109.0,105.0,101.0,102.0,99.0,93.0,90.0,89.0,82.0,78.0,87.0,94.0,98.0,93.0,95.0,91.0,99.0,107.0,114.0,139.0,143.0,143.0,148.0,143.0,138.0,147.0,175.0,201.0,189.0,198.0,198.0,200.0,200.0,197.0,189.0,200.0,240.0,291.0,286.0,260.0,249.0,241.0,218.0,200.0,201.0,187.0,176.0,167.0,175.0,168.0,163.0,154.0,148.0,141.0,137.0,138.0,128.0,125.0,121.0,123.0,138.0,133.0,122.0,119.0,114.0,110.0,107.0,114.0,114.0,113.0,107.0,114.0,110.0,117.0,116.0,112.0,112.0,107.0,106.0,105.0,100.0,101.0,104.0,106.0,104.0,104.0,105.0,101.0,100.0,98.0,99.0,96.0,95.0,100.0,99.0,96.0,93.0,94.0,93.0,92.0,93.0,98.0,91.0,88.0,93.0,97.0,105.0,109.0,109.0,100.0,96.0,96.0,93.0,95.0,95.0,94.0,96.0,92.0,96.0,93.0,92.0,91.0,93.0,96.0,96.0,91.0,95.0,97.0,91.0,94.0,94.0,98.0,104.0,106.0,103.0,109.0,115.0,113.0,118.0,112.0,110.0,109.0,111.0,113.0,118.0,115.0,114.0,114.0,112.0,117.0,115.0,107.0,104.0,100.0,101.0,105.0,106.0,107.0,107.0,107.0,111.0,116.0,117.0,117.0,115.0,113.0,114.0,112.0,108.0,107.0,102.0,104.0,107.0,111.0,109.0,110.0,109.0,112.0,110.0,109.0,105.0,105.0,105.0,108.0,104.0,104.0,104.0,104.0,105.0,102.0,104.0,105.0,108.0,105.0,106.0,105.0,101.0,99.0,96.0,93.0,91.0,88.0,93.0,100.0,96.0,97.0,95.0,96.0,97.0,107.0,105.0,106.0,104.0,101.0,110.0,109.0,108.0,114.0,116.0,111.0,109.0,118.0,117.0,118.0,123.0,118.0,118.0,115.0,112.0,112.0,109.0,113.0,113.0,119.0,128.0,135.0,131.0,127.0,130.0,127.0,121.0,130.0,164.0,190.0,212.0,221.0,214.0,204.0,203.0,222.0,226.0,227.0,234.0,255.0,258.0,252.0,262.0,269.0,261.0,243.0,245.0,252.0,262.0,253.0,242.0,265.0,265.0,287.0,280.0,301.0,330.0,317.0,330.0,328.0,324.0,313.0,338.0,317.0,305.0,297.0,300.0,323.0,329.0,349.0,344.0,323.0,306.0,301.0,300.0,289.0,274.0,278.0,280.0,270.0,261.0,256.0,250.0,247.0,230.0,225.0,222.0,232.0,225.0,228.0,226.0,228.0,209.0,209.0,209.0,213.0,208.0,215.0,210.0,211.0,216.0,208.0,200.0,197.0,200.0,199.0,200.0,197.0,192.0,199.0,200.0,205.0,199.0,195.0,197.0,198.0,203.0,209.0,204.0,215.0,217.0,216.0,219.0,218.0,221.0,215.0,214.0,218.0,230.0,224.0,231.0,226.0,229.0,224.0,220.0,217.0,211.0,210.0,211.0,204.0,206.0,200.0,202.0,193.0,198.0,196.0,187.0,195.0,190.0,184.0,177.0,169.0,167.0,183.0,200.0,234.0,232.0,249.0,271.0,317.0,334.0,327.0,357.0,348.0,370.0,374.0,359.0,372.0,359.0,354.0,372.0,400.0,382.0,378.0,371.0,353.0,344.0,323.0,328.0,320.0,306.0,298.0,293.0,294.0,283.0,276.0,257.0,273.0,276.0,272.0,258.0,258.0,265.0,268.0,258.0,249.0,241.0,231.0,227.0,206.0,211.0,208.0,208.0,193.0,179.0,185.0,194.0,195.0,192.0,179.0,175.0,169.0,186.0,194.0,195.0,186.0,170.0,168.0,173.0,179.0,179.0,169.0,164.0,162.0,158.0,150.0,153.0,155.0,150.0,143.0,138.0,144.0,147.0,152.0,147.0,134.0,123.0,124.0,123.0,123.0,173.0,173.0,170.0,156.0,153.0,154.0,151.0,142.0,133.0,133.0,132.0,127.0,122.0,114.0,124.0,121.0,121.0,116.0,109.0,106.0,101.0,93.0,90.0,94.0,91.0,96.0,90.0,88.0,94.0,93.0,92.0,93.0,90.0,97.0,100.0,112.0,112.0,119.0,123.0,126.0,118.0,114.0,114.0,107.0,103.0,104.0,102.0,96.0,94.0,93.0,91.0,87.0,101.0,99.0,99.0,94.0,91.0,96.0,103.0,101.0,97.0,92.0,101.0,113.0,114.0,110.0,109.0,109.0,106.0,107.0,103.0,102.0,100.0,100.0,96.0,89.0,109.0,108.0,102.0,99.0,94.0,89.0,86.0,85.0,88.0,83.0,89.0,89.0,89.0,85.0,83.0,82.0,80.0,80.0,74.0,81.0,78.0,78.0,85.0,82.0,87.0,84.0,85.0,93.0,87.0,82.0,76.0,71.0,68.0,67.0,64.0,66.0,65.0,75.0,72.0,74.0,85.0,81.0,85.0,87.0,83.0,78.0,77.0,79.0,89.0,87.0,95.0,94.0,91.0,88.0,86.0,96.0,92.0,98.0,97.0,101.0,99.0,106.0,101.0,99.0,98.0,100.0,93.0,89.0,89.0,95.0,93.0,91.0,104.0,98.0,92.0,88.0,92.0,96.0,91.0,88.0,92.0,83.0,77.0,78.0,79.0,76.0,76.0,73.0,68.0,70.0,71.0,86.0,88.0,83.0,81.0,90.0,88.0,90.0,86.0,82.0,90.0,84.0,78.0,76.0,84.0,80.0,75.0,76.0,90.0,90.0,96.0,90.0,97.0,103.0,95.0,87.0,94.0,93.0,89.0,94.0,94.0,91.0,91.0,90.0,88.0,84.0,90.0,85.0,80.0,104.0,102.0,100.0,97.0,90.0,88.0,84.0,83.0,82.0,78.0,80.0,81.0,85.0,93.0,87.0,79.0,75.0,78.0,78.0,96.0,89.0,83.0,80.0,78.0,83.0,86.0,82.0,80.0,78.0,85.0,80.0,77.0,78.0,88.0,86.0,80.0,81.0,77.0,77.0,74.0,74.0,72.0,77.0,81.0,80.0,80.0,76.0,77.0,73.0,69.0,78.0,70.0,73.0,80.0,78.0,76.0,82.0,79.0,76.0,73.0,70.0,72.0,75.0,72.0,73.0,77.0,72.0,74.0,72.0,71.0,68.0,78.0,80.0,76.0,72.0,68.0,67.0,70.0,67.0,74.0,70.0,65.0,65.0,71.0,72.0,71.0,68.0,69.0,68.0,66.0,71.0,76.0,73.0,70.0,70.0,66.0,66.0,64.0,74.0,78.0,76.0,72.0,66.0,66.0,68.0,71.0,72.0,68.0,67.0,67.0,64.0,68.0,65.0,63.0,61.0,61.0,59.0,60.0,72.0,70.0,68.0,65.0,64.0,67.0,65.0,64.0,61.0,59.0,58.0,56.0,58.0,57.0,59.0,60.0,58.0,56.0,58.0,58.0,55.0,54.0,52.0,51.0,55.0,53.0,52.0,51.0,49.0,50.0,52.0,52.0,51.0,51.0,54.0,55.0,57.0,59.0,57.0,55.0,57.0,57.0,56.0,56.0,55.0,55.0,54.0,56.0,55.0,53.0,51.0,48.0,50.0,48.0,57.0,59.0,55.0,55.0,53.0,54.0,55.0,57.0,56.0,62.0,61.0,57.0,54.0,60.0,58.0,59.0,59.0,56.0
