52.0,53.0,51.0,53.0,54.0,52.0,53.0,53.0,54.0,54.0,54.0,53.0,53.0,53.0,53.0,53.0,52.0,51.0,51.0,51.0,50.0,51.0,51.0,53.0,51.0,53.0,51.0,52.0,53.0,53.0,55.0,53.0,54.0,54.0,54.0,56.0,56.0,57.0,56.0,57.0,59.0,57.0,57.0,58.0,58.0,58.0,58.0,60.0,59.0,58.0,60.0,60.0,60.0,58.0,59.0,58.0,58.0,59.0,59.0,58.0,58.0,58.0,57.0,59.0,59.0,58.0,59.0,58.0,58.0,59.0,58.0,57.0,57.0,57.0,56.0,56.0,57.0,56.0,57.0,56.0,57.0,56.0,53.0,53.0,52.0,53.0,54.0,52.0,53.0,50.0,51.0,50.0,49.0,49.0,51.0,50.0,51.0,51.0,52.0,51.0,52.0,50.0,51.0,51.0,52.0,51.0,50.0,49.0,49.0,49.0,51.0,50.0,50.0,50.0,49.0,49.0,51.0,52.0,52.0,53.0,52.0,53.0,52.0,53.0,54.0,54.0,55.0,54.0,54.0,54.0,53.0,52.0,52.0,52.0,51.0,50.0,51.0,53.0,54.0,53.0,52.0,55.0,53.0,54.0,54.0,57.0,57.0,56.0,56.0,55.0,55.0,56.0,56.0,55.0,54.0,54.0,54.0,52.0,53.0,54.0,54.0,53.0,53.0,53.0,52.0,53.0,54.0,55.0,52.0,50.0,50.0,51.0,51.0,52.0,53.0,54.0,54.0,56.0,56.0,56.0,57.0,56.0,55.0,56.0,58.0,56.0,57.0,56.0,56.0,56.0,55.0,55.0,55.0,59.0,60.0,59.0,65.0,73.0,92.0,94.0,102.0,98.0,101.0,111.0,124.0,128.0,158.0,169.0,161.0,149.0,143.0,142.0,137.0,132.0,137.0,127.0,128.0,139.0,128.0,118.0,118.0,114.0,106.0,113.0,106.0,105.0,100.0,97.0,100.0,99.0,99.0,96.0,92.0,91.0,87.0,83.0,89.0,90.0,87.0,85.0,84.0,88.0,87.0,92.0,91.0,90.0,87.0,84.0,82.0,85.0,84.0,82.0,86.0,82.0,78.0,80.0,82.0,79.0,79.0,77.0,78.0,76.0,76.0,73.0,75.0,71.0,68.0,69.0,67.0,68.0,68.0,70.0,75.0,74.0,72.0,70.0,69.0,68.0,68.0,72.0,70.0,73.0,75.0,78.0,76.0,77.0,80.0,80.0,81.0,84.0,83.0,83.0,84.0,91.0,89.0,83.0,78.0,76.0,74.0,72.0,77.0,76.0,80.0,77.0,76.0,75.0,73.0,77.0,77.0,76.0,79.0,75.0,75.0,76.0,76.0,76.0,78.0,74.0,77.0,74.0,74.0,71.0,72.0,69.0,70.0,70.0,69.0,69.0,68.0,70.0,68.0,72.0,71.0,69.0,67.0,65.0,63.0,63.0,67.0,73.0,75.0,77.0,76.0,78.0,78.0,78.0,77.0,76.0,74.0,72.0,78.0,78.0,78.0,78.0,74.0,73.0,69.0,68.0,72.0,70.0,70.0,67.0,65.0,72.0,72.0,72.0,69.0,68.0,68.0,70.0,72.0,68.0,66.0,68.0,66.0,66.0,66.0,69.0,68.0,66.0,67.0,64.0,66.0,64.0,64.0,64.0,68.0,69.0,67.0,65.0,63.0,65.0,67.0,64.0,64.0,65.0,64.0,65.0,65.0,66.0,65.0,68.0,69.0,66.0,67.0,64.0,65.0,64.0,63.0,65.0,70.0,67.0,65.0,66.0,66.0,66.0,66.0,70.0,69.0,68.0,68.0,70.0,70.0,69.0,68.0,69.0,67.0,64.0,64.0,62.0,61.0,60.0,58.0,60.0,61.0,61.0,60.0,60.0,59.0,60.0,62.0,60.0,61.0,60.0,62.0,60.0,62.0,63.0,61.0,63.0,64.0,63.0,64.0,64.0,63.0,64.0,61.0,62.0,63.0,63.0,62.0,61.0,62.0,64.0,66.0,66.0,68.0,67.0,66.0,66.0,64.0,65.0,62.0,61.0,62.0,64.0,64.0,61.0,63.0,64.0,62.0,63.0,64.0,65.0,66.0,64.0,64.0,64.0,65.0,66.0,68.0,67.0,65.0,67.0,65.0,64.0,64.0,65.0,64.0,61.0,61.0,60.0,61.0,61.0,59.0,62.0,61.0,61.0,61.0,63.0,62.0,64.0,62.0,62.0,61.0,62.0,62.0,64.0,64.0,63.0,63.0,65.0,66.0,68.0,68.0,68.0,68.0,67.0,66.0,65.0,64.0,63.0,61.0,61.0,59.0,59.0,59.0,66.0,64.0,67.0,68.0,67.0,67.0,68.0,67.0,65.0,68.0,67.0,78.0,77.0,77.0,78.0,76.0,80.0,79.0,80.0,83.0,85.0,86.0,93.0,92.0,92.0,93.0,96.0,96.0,97.0,98.0,99.0,99.0,102.0,102.0,103.0,103.0,103.0,104.0,103.0,103.0,102.0,104.0,103.0,104.0,103.0,105.0,103.0,103.0,105.0,104.0,106.0,103.0,103.0,103.0,104.0,105.0,105.0,108.0,108.0,109.0,108.0,107.0,106.0,107.0,108.0,108.0,106.0,109.0,106.0,106.0,106.0,104.0,103.0,106.0,107.0,104.0,104.0,105.0,103.0,106.0,103.0,104.0,104.0,103.0,103.0,103.0,102.0,102.0,102.0,102.0,102.0,101.0,99.0,99.0,99.0,99.0,99.0,99.0,98.0,97.0,96.0,97.0,96.0,100.0,100.0,101.0,101.0,100.0,98.0,97.0,98.0,96.0,96.0,95.0,93.0,96.0,95.0,95.0,95.0,94.0,94.0,93.0,93.0,91.0,90.0,89.0,88.0,88.0,86.0,84.0,86.0,84.0,83.0,82.0,80.0,81.0,79.0,80.0,79.0,78.0,79.0,78.0,78.0,77.0,75.0,73.0,74.0,74.0,74.0,74.0,75.0,73.0,74.0,73.0,72.0,72.0,73.0,74.0,73.0,72.0,72.0,72.0,70.0,71.0,70.0,69.0,70.0,69.0,69.0,69.0,70.0,73.0,72.0,73.0,73.0,75.0,76.0,77.0,79.0,79.0,80.0,80.0,80.0,79.0,79.0,80.0,79.0,79.0,78.0,76.0,77.0,75.0,74.0,73.0,73.0,72.0,72.0,72.0,72.0,73.0,72.0,71.0,72.0,72.0,73.0,73.0,74.0,71.0,73.0,72.0,73.0,73.0,73.0,73.0,73.0,74.0,74.0,74.0,76.0,76.0,75.0,75.0,75.0,75.0,77.0,77.0,78.0,78.0,78.0,78.0,77.0,76.0,75.0,77.0,74.0,74.0,73.0,70.0,71.0,71.0,71.0,70.0,69.0,69.0,67.0,67.0,68.0,67.0,67.0,66.0,65.0,67.0,66.0,66.0,66.0,68.0,67.0,67.0,67.0,67.0,67.0,65.0,66.0,64.0,64.0,64.0,65.0,66.0,65.0,66.0,65.0,66.0,64.0,63.0,62.0,62.0,63.0,62.0,62.0,63.0,62.0,64.0,64.0,62.0,63.0,62.0,63.0,62.0,61.0,62.0,62.0,63.0,61.0,61.0,61.0,59.0,61.0,63.0,64.0,63.0,62.0,65.0,65.0,66.0,66.0,66.0,65.0,67.0,67.0,68.0,69.0,70.0,70.0,72.0,71.0,72.0,73.0,74.0,72.0,70.0,69.0,68.0,68.0,68.0,67.0,66.0,65.0,65.0,64.0,65.0,64.0,64.0,65.0,63.0,64.0,62.0,60.0,62.0,63.0,64.0,64.0,63.0,64.0,64.0,66.0,65.0,64.0,64.0,62.0,60.0,58.0,60.0,59.0,60.0,60.0,58.0,59.0,60.0,61.0,62.0,63.0,64.0,64.0,63.0,65.0,64.0,65.0,64.0,65.0,64.0,62.0,61.0,62.0,62.0,61.0,62.0,62.0,62.0,64.0,64.0,63.0,63.0,63.0,63.0,64.0,65.0,65.0,65.0,64.0,65.0,65.0,64.0,64.0,62.0,63.0,63.0,64.0,67.0,66.0,66.0,66.0,66.0,67.0,66.0,67.0,67.0,66.0,67.0,66.0,65.0,65.0,64.0,63.0,62.0,62.0,60.0,59.0,59.0,57.0,58.0,58.0,58.0,59.0,58.0,57.0,57.0,58.0,57.0,56.0,54.0,56.0,55.0,54.0,57.0,54.0,54.0,53.0,54.0,54.0,55.0,56.0,55.0,54.0,55.0,58.0,57.0,59.0,61.0,61.0,60.0,61.0,60.0,60.0,61.0,60.0,60.0,58.0,58.0,58.0,58.0,58.0,57.0,58.0
41.0,39.0,39.0,41.0,40.0,41.0,42.0,41.0,40.0,41.0,41.0,41.0,42.0,40.0,41.0,42.0,41.0,40.0,41.0,42.0,40.0,40.0,41.0,40.0,42.0,43.0,43.0,41.0,41.0,42.0,40.0,42.0,41.0,42.0,43.0,43.0,43.0,44.0,46.0,47.0,48.0,48.0,46.0,46.0,44.0,43.0,46.0,45.0,45.0,44.0,43.0,43.0,42.0,40.0,40.0,42.0,41.0,42.0,41.0,39.0,40.0,39.0,42.0,43.0,40.0,40.0,39.0,39.0,41.0,40.0,42.0,41.0,42.0,40.0,39.0,39.0,39.0,38.0,42.0,41.0,41.0,40.0,39.0,37.0,39.0,38.0,41.0,40.0,39.0,39.0,38.0,39.0,37.0,37.0,40.0,39.0,41.0,41.0,42.0,41.0,39.0,39.0,42.0,40.0,40.0,38.0,38.0,39.0,41.0,43.0,42.0,41.0,39.0,39.0,40.0,40.0,41.0,40.0,39.0,40.0,40.0,39.0,39.0,41.0,40.0,40.0,40.0,40.0,40.0,40.0,41.0,40.0,40.0,39.0,38.0,38.0,41.0,41.0,40.0,40.0,40.0,40.0,41.0,41.0,44.0,43.0,42.0,42.0,41.0,41.0,43.0,42.0,43.0,43.0,42.0,42.0,42.0,43.0,44.0,43.0,42.0,43.0,43.0,41.0,44.0,44.0,45.0,45.0,46.0,47.0,49.0,51.0,51.0,50.0,51.0,49.0,50.0,51.0,50.0,52.0,54.0,54.0,55.0,56.0,54.0,57.0,55.0,56.0,57.0,55.0,54.0,53.0,54.0,54.0,63.0,114.0,152.0,217.0,307.0,362.0,343.0,337.0,358.0,432.0,419.0,432.0,570.0,577.0,542.0,531.0,500.0,492.0,483.0,477.0,476.0,466.0,482.0,483.0,452.0,432.0,427.0,419.0,412.0,433.0,405.0,395.0,382.0,375.0,373.0,351.0,347.0,342.0,325.0,311.0,306.0,289.0,290.0,277.0,272.0,257.0,261.0,250.0,233.0,228.0,215.0,203.0,200.0,195.0,184.0,187.0,173.0,167.0,169.0,161.0,157.0,157.0,154.0,144.0,147.0,143.0,137.0,130.0,126.0,119.0,120.0,120.0,118.0,116.0,108.0,110.0,112.0,115.0,123.0,124.0,118.0,111.0,108.0,107.0,105.0,111.0,124.0,121.0,128.0,134.0,134.0,128.0,134.0,139.0,134.0,140.0,135.0,141.0,141.0,150.0,142.0,131.0,124.0,119.0,113.0,110.0,115.0,113.0,117.0,118.0,114.0,121.0,115.0,119.0,112.0,110.0,120.0,116.0,114.0,119.0,120.0,113.0,114.0,110.0,121.0,114.0,113.0,112.0,111.0,105.0,109.0,110.0,118.0,112.0,110.0,113.0,108.0,118.0,111.0,109.0,107.0,105.0,105.0,105.0,106.0,110.0,109.0,99.0,109.0,115.0,109.0,109.0,109.0,101.0,98.0,90.0,101.0,106.0,105.0,100.0,99.0,97.0,95.0,100.0,101.0,105.0,101.0,99.0,98.0,107.0,111.0,104.0,103.0,103.0,106.0,104.0,109.0,106.0,105.0,106.0,100.0,95.0,100.0,106.0,100.0,99.0,93.0,98.0,94.0,87.0,88.0,84.0,97.0,93.0,96.0,90.0,87.0,90.0,91.0,87.0,93.0,102.0,94.0,95.0,92.0,87.0,91.0,98.0,99.0,95.0,96.0,93.0,87.0,88.0,87.0,94.0,96.0,92.0,88.0,89.0,87.0,83.0,79.0,86.0,89.0,90.0,88.0,86.0,81.0,88.0,89.0,91.0,86.0,81.0,81.0,81.0,79.0,77.0,74.0,82.0,79.0,78.0,81.0,77.0,75.0,75.0,71.0,72.0,73.0,72.0,71.0,77.0,76.0,74.0,77.0,77.0,78.0,79.0,76.0,72.0,72.0,71.0,69.0,67.0,65.0,65.0,68.0,67.0,71.0,72.0,74.0,75.0,76.0,74.0,72.0,70.0,68.0,66.0,67.0,66.0,68.0,79.0,76.0,75.0,71.0,71.0,68.0,77.0,76.0,72.0,69.0,71.0,74.0,74.0,69.0,72.0,73.0,73.0,76.0,72.0,74.0,73.0,72.0,70.0,69.0,69.0,67.0,63.0,65.0,65.0,66.0,70.0,68.0,70.0,71.0,75.0,73.0,72.0,71.0,70.0,71.0,69.0,76.0,77.0,74.0,73.0,75.0,72.0,77.0,81.0,76.0,77.0,73.0,72.0,72.0,68.0,67.0,67.0,64.0,62.0,60.0,58.0,59.0,68.0,66.0,65.0,62.0,62.0,61.0,60.0,61.0,59.0,57.0,59.0,63.0,74.0,88.0,103.0,124.0,147.0,166.0,184.0,201.0,218.0,229.0,242.0,254.0,259.0,267.0,271.0,274.0,274.0,277.0,278.0,280.0,285.0,284.0,286.0,286.0,284.0,283.0,279.0,277.0,269.0,266.0,263.0,258.0,252.0,248.0,242.0,239.0,240.0,238.0,235.0,231.0,228.0,225.0,222.0,220.0,215.0,213.0,210.0,205.0,200.0,195.0,191.0,188.0,186.0,184.0,180.0,177.0,174.0,169.0,169.0,163.0,160.0,159.0,155.0,152.0,150.0,150.0,149.0,149.0,145.0,144.0,142.0,139.0,136.0,134.0,132.0,129.0,126.0,124.0,121.0,118.0,116.0,115.0,115.0,114.0,111.0,111.0,106.0,105.0,102.0,100.0,97.0,97.0,97.0,95.0,92.0,92.0,88.0,87.0,85.0,84.0,84.0,82.0,82.0,82.0,82.0,83.0,83.0,83.0,81.0,79.0,79.0,78.0,80.0,77.0,79.0,78.0,78.0,73.0,76.0,76.0,77.0,78.0,76.0,76.0,76.0,75.0,75.0,73.0,74.0,74.0,73.0,74.0,71.0,71.0,72.0,72.0,74.0,73.0,75.0,71.0,71.0,71.0,70.0,70.0,69.0,71.0,69.0,68.0,70.0,69.0,69.0,70.0,71.0,72.0,73.0,73.0,69.0,71.0,70.0,69.0,70.0,68.0,69.0,69.0,69.0,68.0,69.0,67.0,66.0,64.0,64.0,62.0,63.0,64.0,64.0,64.0,63.0,63.0,63.0,64.0,62.0,62.0,60.0,59.0,60.0,59.0,59.0,59.0,59.0,58.0,59.0,60.0,60.0,60.0,61.0,59.0,62.0,60.0,59.0,58.0,57.0,56.0,53.0,54.0,51.0,53.0,54.0,53.0,54.0,52.0,52.0,52.0,54.0,52.0,51.0,51.0,49.0,48.0,48.0,48.0,49.0,51.0,51.0,51.0,49.0,49.0,53.0,55.0,54.0,54.0,53.0,52.0,53.0,53.0,55.0,54.0,53.0,52.0,49.0,49.0,48.0,47.0,50.0,49.0,49.0,45.0,46.0,43.0,42.0,44.0,42.0,42.0,42.0,41.0,41.0,42.0,40.0,41.0,42.0,42.0,40.0,41.0,40.0,41.0,40.0,39.0,39.0,37.0,38.0,41.0,41.0,43.0,43.0,44.0,41.0,42.0,41.0,41.0,44.0,43.0,44.0,41.0,42.0,41.0,40.0,44.0,43.0,45.0,45.0,45.0,46.0,45.0,47.0,45.0,44.0,43.0,41.0,41.0,41.0,40.0,39.0,40.0,40.0,39.0,38.0,37.0,37.0,37.0,38.0,37.0,38.0,40.0,40.0,40.0,39.0,39.0,41.0,40.0,39.0,41.0,40.0,39.0,39.0,41.0,43.0,42.0,40.0,40.0,40.0,39.0,39.0,40.0,41.0,41.0,40.0,40.0,40.0,40.0,40.0,40.0,39.0,39.0,38.0,39.0,40.0,43.0,41.0,42.0,42.0,42.0,42.0,43.0,44.0,43.0,42.0,40.0,40.0,40.0,40.0,41.0,42.0,40.0,40.0,39.0,39.0,42.0,41.0,42.0,41.0,42.0,41.0,43.0,44.0,45.0,46.0,44.0,44.0,44.0,44.0,43.0,42.0,42.0,40.0,41.0,42.0,42.0,42.0,41.0,41.0,40.0,38.0,41.0,40.0,40.0,40.0,39.0,39.0,38.0,40.0,39.0,38.0,39.0,39.0,40.0,40.0,40.0,40.0,39.0,39.0,39.0,42.0,41.0,41.0,40.0,40.0,40.0,39.0,42.0,42.0,42.0,42.0,41.0,42.0,41.0,42.0,42.0,40.0,39.0,39.0,39.0,40.0,41.0,42.0,42.0,41.0,41.0,40.0,40.0,40.0,40.0,42.0,40.0,40.0,39.0,40.0,41.0,41.0,44.0,44.0,45.0,46.0
28.0,26.0,23.0,23.0,24.0,39.0,42.0,43.0,46.0,40.0,38.0,48.0,50.0,44.0,39.0,37.0,34.0,30.0,40.0,35.0,31.0,29.0,27.0,26.0,40.0,41.0,35.0,40.0,37.0,39.0,37.0,46.0,40.0,40.0,40.0,35.0,31.0,28.0,37.0,36.0,32.0,30.0,29.0,29.0,26.0,23.0,34.0,33.0,29.0,35.0,34.0,30.0,27.0,23.0,22.0,37.0,36.0,33.0,29.0,27.0,26.0,26.0,36.0,31.0,28.0,27.0,24.0,24.0,23.0,23.0,38.0,35.0,33.0,30.0,25.0,24.0,22.0,20.0,34.0,30.0,28.0,24.0,25.0,28.0,26.0,24.0,34.0,31.0,28.0,25.0,24.0,22.0,19.0,18.0,28.0,30.0,32.0,29.0,26.0,22.0,21.0,21.0,32.0,36.0,32.0,30.0,26.0,23.0,21.0,41.0,36.0,32.0,30.0,28.0,27.0,24.0,29.0,27.0,23.0,21.0,19.0,18.0,19.0,31.0,33.0,30.0,28.0,24.0,22.0,19.0,28.0,26.0,27.0,25.0,22.0,20.0,35.0,32.0,28.0,24.0,23.0,21.0,19.0,26.0,34.0,33.0,28.0,25.0,24.0,22.0,21.0,23.0,31.0,28.0,25.0,25.0,25.0,23.0,36.0,32.0,29.0,26.0,24.0,21.0,18.0,25.0,23.0,21.0,17.0,16.0,19.0,45.0,43.0,37.0,35.0,34.0,34.0,42.0,38.0,34.0,32.0,28.0,25.0,38.0,36.0,34.0,30.0,29.0,40.0,36.0,32.0,29.0,35.0,41.0,38.0,50.0,53.0,73.0,94.0,93.0,88.0,84.0,93.0,105.0,92.0,98.0,133.0,123.0,119.0,116.0,108.0,111.0,104.0,121.0,109.0,109.0,109.0,129.0,128.0,111.0,112.0,112.0,115.0,115.0,108.0,105.0,105.0,103.0,90.0,97.0,93.0,100.0,99.0,95.0,94.0,97.0,89.0,84.0,92.0,87.0,97.0,89.0,83.0,88.0,82.0,80.0,72.0,73.0,63.0,71.0,67.0,64.0,60.0,59.0,58.0,58.0,60.0,52.0,55.0,55.0,53.0,50.0,46.0,40.0,40.0,55.0,58.0,60.0,55.0,52.0,54.0,56.0,73.0,68.0,59.0,55.0,52.0,46.0,45.0,48.0,46.0,42.0,37.0,39.0,46.0,41.0,45.0,42.0,38.0,35.0,37.0,41.0,43.0,42.0,38.0,34.0,30.0,28.0,24.0,22.0,31.0,38.0,40.0,35.0,35.0,31.0,29.0,27.0,39.0,37.0,35.0,32.0,35.0,35.0,41.0,37.0,40.0,44.0,38.0,35.0,31.0,30.0,43.0,46.0,49.0,47.0,50.0,44.0,46.0,53.0,48.0,50.0,45.0,40.0,41.0,36.0,46.0,47.0,45.0,40.0,40.0,35.0,40.0,41.0,42.0,40.0,38.0,36.0,33.0,28.0,43.0,41.0,36.0,36.0,33.0,32.0,38.0,48.0,42.0,41.0,36.0,37.0,35.0,40.0,47.0,42.0,35.0,34.0,31.0,28.0,26.0,22.0,22.0,38.0,34.0,33.0,34.0,32.0,33.0,41.0,42.0,36.0,33.0,31.0,32.0,34.0,45.0,41.0,39.0,36.0,33.0,33.0,32.0,40.0,42.0,47.0,41.0,37.0,33.0,31.0,28.0,49.0,45.0,46.0,40.0,38.0,34.0,32.0,30.0,42.0,38.0,34.0,33.0,32.0,28.0,30.0,37.0,41.0,39.0,41.0,37.0,34.0,30.0,31.0,35.0,43.0,39.0,35.0,34.0,35.0,31.0,32.0,36.0,34.0,42.0,38.0,36.0,36.0,35.0,46.0,40.0,39.0,37.0,38.0,37.0,41.0,41.0,48.0,41.0,37.0,34.0,32.0,29.0,29.0,29.0,27.0,43.0,41.0,38.0,34.0,30.0,32.0,28.0,28.0,29.0,27.0,48.0,44.0,41.0,36.0,33.0,33.0,29.0,31.0,31.0,32.0,30.0,29.0,27.0,22.0,20.0,34.0,31.0,30.0,25.0,29.0,29.0,29.0,26.0,22.0,36.0,34.0,33.0,32.0,27.0,33.0,37.0,34.0,30.0,26.0,31.0,26.0,23.0,22.0,20.0,21.0,37.0,35.0,34.0,30.0,26.0,23.0,35.0,32.0,31.0,34.0,36.0,33.0,30.0,26.0,37.0,36.0,34.0,31.0,29.0,26.0,23.0,22.0,33.0,36.0,31.0,29.0,34.0,31.0,38.0,37.0,38.0,46.0,51.0,46.0,42.0,48.0,43.0,51.0,58.0,77.0,80.0,88.0,94.0,84.0,90.0,80.0,78.0,81.0,82.0,79.0,78.0,93.0,85.0,90.0,96.0,92.0,90.0,87.0,85.0,107.0,98.0,92.0,93.0,85.0,82.0,83.0,76.0,72.0,70.0,68.0,70.0,83.0,85.0,78.0,72.0,66.0,61.0,71.0,82.0,76.0,68.0,63.0,55.0,50.0,51.0,56.0,62.0,56.0,52.0,47.0,43.0,38.0,44.0,42.0,57.0,55.0,49.0,44.0,42.0,50.0,63.0,57.0,51.0,47.0,42.0,37.0,44.0,44.0,54.0,47.0,43.0,37.0,33.0,30.0,31.0,34.0,45.0,41.0,36.0,32.0,28.0,34.0,32.0,32.0,43.0,36.0,34.0,32.0,27.0,27.0,24.0,27.0,26.0,32.0,29.0,26.0,23.0,20.0,19.0,19.0,30.0,27.0,25.0,24.0,21.0,20.0,21.0,32.0,31.0,27.0,30.0,28.0,25.0,23.0,32.0,32.0,41.0,42.0,37.0,33.0,43.0,48.0,43.0,38.0,36.0,33.0,30.0,28.0,27.0,24.0,28.0,24.0,25.0,22.0,19.0,22.0,28.0,36.0,36.0,32.0,30.0,27.0,25.0,25.0,23.0,38.0,35.0,33.0,30.0,29.0,29.0,25.0,42.0,42.0,38.0,33.0,31.0,30.0,31.0,39.0,43.0,40.0,35.0,32.0,29.0,26.0,35.0,30.0,29.0,27.0,25.0,24.0,25.0,24.0,28.0,38.0,34.0,30.0,28.0,24.0,22.0,29.0,27.0,25.0,23.0,21.0,31.0,31.0,31.0,29.0,28.0,35.0,37.0,51.0,45.0,40.0,37.0,33.0,32.0,41.0,43.0,38.0,35.0,32.0,28.0,25.0,24.0,25.0,43.0,38.0,34.0,30.0,27.0,30.0,29.0,43.0,38.0,33.0,31.0,27.0,24.0,37.0,35.0,42.0,39.0,35.0,31.0,28.0,30.0,35.0,30.0,27.0,23.0,22.0,20.0,27.0,34.0,36.0,33.0,28.0,25.0,22.0,21.0,19.0,20.0,26.0,24.0,22.0,19.0,21.0,20.0,17.0,32.0,32.0,32.0,31.0,29.0,29.0,42.0,37.0,34.0,35.0,33.0,32.0,29.0,27.0,38.0,38.0,34.0,30.0,27.0,32.0,32.0,28.0,30.0,31.0,27.0,26.0,23.0,21.0,21.0,32.0,35.0,31.0,28.0,29.0,26.0,23.0,32.0,30.0,27.0,24.0,30.0,32.0,31.0,42.0,38.0,33.0,29.0,26.0,23.0,22.0,20.0,20.0,30.0,27.0,28.0,30.0,28.0,24.0,20.0,19.0,17.0,17.0,23.0,33.0,30.0,25.0,23.0,28.0,27.0,25.0,27.0,25.0,23.0,22.0,23.0,38.0,36.0,32.0,29.0,26.0,29.0,34.0,42.0,37.0,35.0,33.0,29.0,27.0,31.0,34.0,33.0,34.0,31.0,27.0,27.0,26.0,35.0,31.0,34.0,31.0,28.0,24.0,44.0,42.0,39.0,35.0,30.0,29.0,24.0,24.0,35.0,35.0,30.0,27.0,25.0,26.0,45.0,41.0,35.0,31.0,28.0,25.0,36.0,42.0,41.0,38.0,35.0,31.0,36.0,40.0,36.0,34.0,31.0,27.0,28.0,39.0,41.0,38.0,35.0,30.0,27.0,25.0,36.0,38.0,34.0,37.0,33.0,30.0,38.0,34.0,32.0,28.0,23.0,28.0,30.0,40.0,37.0,33.0,29.0,31.0,31.0,42.0,48.0,43.0,39.0,35.0,33.0,33.0,48.0,51.0,46.0,43.0,39.0,34.0,30.0,45.0,41.0,36.0,33.0,33.0,32.0,34.0,40.0,42.0,46.0,40.0,36.0,32.0,30.0,33.0,30.0,41.0,37.0,37.0,40.0,34.0,32.0,30.0,31.0,28.0,26.0,28.0
59.0,63.0,62.0,63.0,64.0,64.0,70.0,70.0,70.0,71.0,69.0,69.0,68.0,68.0,66.0,68.0,67.0,65.0,64.0,64.0,60.0,59.0,58.0,57.0,57.0,56.0,55.0,51.0,51.0,53.0,53.0,51.0,54.0,60.0,59.0,61.0,62.0,60.0,59.0,63.0,69.0,66.0,63.0,60.0,64.0,65.0,66.0,65.0,67.0,69.0,68.0,65.0,65.0,63.0,61.0,60.0,64.0,68.0,66.0,63.0,63.0,63.0,68.0,65.0,64.0,62.0,64.0,65.0,67.0,66.0,64.0,60.0,63.0,62.0,62.0,62.0,63.0,60.0,64.0,64.0,65.0,60.0,56.0,60.0,68.0,71.0,68.0,66.0,65.0,60.0,58.0,61.0,63.0,62.0,61.0,58.0,55.0,55.0,55.0,54.0,55.0,53.0,58.0,57.0,53.0,58.0,58.0,55.0,55.0,60.0,59.0,60.0,61.0,59.0,62.0,67.0,70.0,69.0,67.0,63.0,65.0,71.0,70.0,68.0,67.0,66.0,64.0,66.0,64.0,61.0,59.0,55.0,61.0,59.0,62.0,62.0,69.0,70.0,68.0,65.0,64.0,62.0,64.0,64.0,71.0,72.0,68.0,67.0,68.0,70.0,69.0,72.0,67.0,69.0,66.0,61.0,63.0,59.0,59.0,61.0,63.0,61.0,59.0,57.0,58.0,61.0,61.0,59.0,60.0,67.0,65.0,74.0,73.0,70.0,73.0,75.0,71.0,70.0,72.0,70.0,72.0,75.0,74.0,80.0,73.0,73.0,73.0,71.0,74.0,70.0,69.0,68.0,66.0,66.0,67.0,77.0,77.0,90.0,97.0,100.0,97.0,108.0,121.0,123.0,117.0,121.0,127.0,127.0,116.0,111.0,102.0,107.0,99.0,92.0,88.0,80.0,78.0,102.0,102.0,100.0,103.0,105.0,104.0,120.0,136.0,144.0,162.0,173.0,169.0,175.0,168.0,211.0,203.0,201.0,191.0,203.0,200.0,195.0,180.0,187.0,210.0,223.0,215.0,224.0,217.0,253.0,253.0,251.0,242.0,227.0,220.0,222.0,210.0,222.0,211.0,212.0,211.0,213.0,212.0,210.0,215.0,208.0,201.0,201.0,186.0,189.0,193.0,194.0,191.0,189.0,186.0,188.0,199.0,197.0,194.0,194.0,193.0,190.0,184.0,195.0,189.0,185.0,185.0,180.0,181.0,182.0,183.0,184.0,181.0,176.0,165.0,167.0,176.0,171.0,168.0,168.0,158.0,162.0,159.0,152.0,149.0,150.0,148.0,143.0,140.0,134.0,125.0,127.0,131.0,135.0,132.0,130.0,128.0,120.0,123.0,125.0,121.0,123.0,124.0,120.0,119.0,122.0,125.0,128.0,136.0,133.0,133.0,132.0,131.0,131.0,126.0,117.0,126.0,120.0,117.0,123.0,119.0,123.0,121.0,131.0,130.0,129.0,130.0,134.0,130.0,133.0,130.0,129.0,133.0,134.0,128.0,130.0,138.0,134.0,133.0,126.0,126.0,130.0,131.0,132.0,131.0,134.0,127.0,134.0,125.0,136.0,132.0,128.0,138.0,130.0,125.0,120.0,117.0,118.0,125.0,126.0,121.0,119.0,118.0,111.0,113.0,118.0,118.0,115.0,115.0,118.0,111.0,118.0,126.0,120.0,117.0,119.0,119.0,118.0,121.0,129.0,126.0,126.0,115.0,122.0,120.0,118.0,121.0,123.0,128.0,128.0,131.0,127.0,131.0,128.0,136.0,129.0,134.0,134.0,127.0,133.0,140.0,140.0,140.0,130.0,132.0,131.0,132.0,132.0,131.0,126.0,133.0,135.0,133.0,130.0,132.0,124.0,123.0,122.0,122.0,130.0,128.0,127.0,131.0,138.0,135.0,128.0,131.0,124.0,117.0,132.0,126.0,130.0,128.0,125.0,128.0,122.0,121.0,121.0,126.0,127.0,135.0,127.0,126.0,125.0,130.0,134.0,128.0,120.0,119.0,115.0,125.0,129.0,127.0,128.0,121.0,125.0,125.0,125.0,128.0,125.0,126.0,129.0,126.0,121.0,114.0,108.0,110.0,112.0,103.0,97.0,101.0,95.0,96.0,99.0,98.0,97.0,96.0,99.0,105.0,102.0,111.0,115.0,108.0,105.0,108.0,113.0,106.0,113.0,109.0,108.0,106.0,109.0,106.0,107.0,106.0,107.0,103.0,100.0,95.0,94.0,100.0,94.0,98.0,92.0,91.0,91.0,93.0,91.0,96.0,93.0,90.0,87.0,86.0,91.0,90.0,87.0,86.0,82.0,80.0,80.0,78.0,85.0,96.0,96.0,98.0,98.0,97.0,98.0,95.0,106.0,102.0,136.0,183.0,187.0,182.0,177.0,197.0,196.0,208.0,209.0,237.0,226.0,222.0,236.0,252.0,239.0,237.0,229.0,236.0,235.0,227.0,218.0,210.0,218.0,212.0,211.0,208.0,199.0,188.0,186.0,176.0,162.0,166.0,156.0,147.0,137.0,135.0,142.0,147.0,151.0,143.0,147.0,136.0,129.0,129.0,132.0,122.0,118.0,119.0,117.0,107.0,109.0,104.0,102.0,104.0,105.0,101.0,97.0,92.0,87.0,81.0,80.0,79.0,79.0,78.0,80.0,88.0,90.0,88.0,82.0,82.0,94.0,100.0,93.0,87.0,89.0,85.0,82.0,85.0,83.0,85.0,82.0,77.0,74.0,75.0,74.0,75.0,75.0,70.0,68.0,70.0,70.0,69.0,70.0,68.0,64.0,61.0,60.0,57.0,58.0,71.0,84.0,92.0,88.0,82.0,83.0,82.0,79.0,77.0,77.0,77.0,80.0,84.0,79.0,73.0,76.0,91.0,90.0,84.0,81.0,93.0,88.0,81.0,78.0,74.0,86.0,90.0,84.0,79.0,89.0,90.0,86.0,86.0,82.0,78.0,86.0,86.0,80.0,79.0,81.0,81.0,78.0,86.0,88.0,88.0,84.0,81.0,81.0,81.0,86.0,80.0,79.0,79.0,81.0,82.0,78.0,80.0,78.0,75.0,77.0,78.0,77.0,84.0,86.0,96.0,90.0,87.0,89.0,84.0,96.0,99.0,96.0,91.0,91.0,90.0,91.0,87.0,94.0,90.0,97.0,92.0,95.0,90.0,93.0,88.0,84.0,86.0,89.0,91.0,90.0,96.0,100.0,93.0,91.0,95.0,88.0,92.0,88.0,86.0,94.0,94.0,89.0,83.0,88.0,84.0,81.0,83.0,78.0,78.0,74.0,73.0,75.0,74.0,75.0,74.0,73.0,77.0,73.0,86.0,84.0,80.0,78.0,82.0,77.0,71.0,83.0,76.0,75.0,75.0,74.0,68.0,77.0,83.0,85.0,78.0,77.0,82.0,81.0,83.0,76.0,75.0,79.0,78.0,74.0,86.0,87.0,82.0,88.0,100.0,100.0,93.0,92.0,93.0,90.0,87.0,82.0,97.0,94.0,86.0,85.0,78.0,80.0,77.0,82.0,84.0,86.0,86.0,82.0,76.0,75.0,79.0,83.0,86.0,80.0,85.0,79.0,77.0,73.0,77.0,77.0,77.0,74.0,79.0,81.0,81.0,86.0,82.0,78.0,77.0,72.0,72.0,75.0,81.0,79.0,76.0,72.0,73.0,69.0,68.0,74.0,70.0,68.0,66.0,66.0,68.0,67.0,72.0,73.0,68.0,64.0,66.0,67.0,62.0,66.0,79.0,81.0,80.0,76.0,76.0,75.0,70.0,68.0,69.0,65.0,64.0,65.0,69.0,68.0,66.0,63.0,64.0,72.0,70.0,81.0,80.0,76.0,87.0,85.0,82.0,90.0,94.0,92.0,92.0,101.0,99.0,103.0,107.0,107.0,105.0,104.0,102.0,109.0,103.0,105.0,104.0,108.0,101.0,105.0,104.0,97.0,100.0,102.0,106.0,103.0,98.0,94.0,94.0,95.0,96.0,91.0,91.0,89.0,94.0,90.0,94.0,91.0,89.0,94.0,84.0,89.0,84.0,82.0,81.0,83.0,87.0,86.0,87.0,81.0,79.0,79.0,78.0,83.0,86.0,82.0,79.0,80.0,75.0,81.0,86.0,85.0,82.0,75.0,78.0,77.0,74.0,77.0,78.0,80.0,75.0,73.0,71.0,84.0,81.0,79.0,79.0,75.0,78.0,73.0,69.0,69.0,67.0,63.0,79.0,78.0,75.0,71.0,65.0,67.0,78.0,72.0,68.0,71.0,72.0,80.0,81.0,74.0,70.0,65.0,66.0,62.0,70.0,72.0,68.0,66.0,66.0,72.0,73.0,73.0,69.0,75.0,85.0,88.0,84.0,79.0
