54.0,56.0,56.0,58.0,57.0,57.0,57.0,58.0,59.0,59.0,58.0,57.0,58.0,56.0,56.0,57.0,56.0,56.0,58.0,59.0,60.0,59.0,59.0,57.0,56.0,56.0,57.0,55.0,56.0,54.0,54.0,54.0,55.0,54.0,56.0,55.0,55.0,56.0,54.0,53.0,54.0,54.0,53.0,52.0,50.0,50.0,49.0,51.0,50.0,51.0,50.0,50.0,51.0,50.0,52.0,51.0,53.0,52.0,51.0,54.0,53.0,54.0,55.0,58.0,59.0,59.0,61.0,61.0,63.0,63.0,61.0,61.0,60.0,60.0,59.0,59.0,57.0,58.0,56.0,55.0,55.0,53.0,52.0,51.0,50.0,50.0,52.0,54.0,52.0,50.0,55.0,59.0,71.0,70.0,73.0,83.0,92.0,97.0,106.0,108.0,136.0,135.0,134.0,126.0,137.0,130.0,131.0,140.0,136.0,139.0,124.0,118.0,119.0,111.0,108.0,101.0,102.0,97.0,97.0,94.0,87.0,88.0,83.0,83.0,86.0,84.0,82.0,81.0,79.0,76.0,73.0,75.0,74.0,76.0,73.0,70.0,70.0,68.0,70.0,68.0,65.0,63.0,59.0,58.0,56.0,58.0,58.0,56.0,55.0,55.0,64.0,63.0,79.0,93.0,98.0,108.0,119.0,116.0,109.0,106.0,100.0,93.0,90.0,89.0,87.0,85.0,82.0,80.0,80.0,79.0,79.0,80.0,81.0,80.0,79.0,78.0,79.0,78.0,78.0,81.0,81.0,81.0,81.0,82.0,83.0,81.0,82.0,82.0,84.0,83.0,83.0,83.0,83.0,83.0,84.0,83.0,82.0,80.0,82.0,80.0,80.0,79.0,79.0,80.0,78.0,78.0,75.0,75.0,75.0,75.0,75.0,76.0,75.0,75.0,76.0,76.0,75.0,74.0,77.0,76.0,76.0,75.0,74.0,74.0,73.0,73.0,68.0,69.0,70.0,70.0,70.0,69.0,69.0,67.0,66.0,65.0,67.0,68.0,68.0,67.0,65.0,67.0,67.0,68.0,66.0,66.0,65.0,65.0,66.0,65.0,65.0,66.0,64.0,63.0,64.0,61.0,63.0,63.0,63.0,63.0,62.0,65.0,65.0,67.0,69.0,69.0,70.0,69.0,71.0,70.0,72.0,70.0,69.0,67.0,68.0,69.0,69.0,67.0,68.0,67.0,68.0,67.0,65.0,63.0,61.0,61.0,59.0,59.0,59.0,58.0,59.0,57.0,55.0,57.0,56.0,57.0,57.0,59.0,57.0,58.0,58.0,59.0,58.0,58.0,58.0,58.0,58.0,58.0,57.0,56.0,57.0,57.0,56.0,58.0,59.0,59.0,59.0,58.0,59.0,59.0,58.0,59.0,58.0,58.0,57.0,57.0,57.0,57.0,58.0,59.0,60.0,61.0,62.0,61.0,59.0,61.0,61.0,61.0,60.0,60.0,60.0,60.0,61.0,62.0,62.0,63.0,64.0,64.0,64.0,63.0,61.0,59.0,58.0,59.0,57.0,55.0,54.0,53.0,52.0,50.0,51.0,51.0,51.0,49.0,48.0,48.0,47.0,46.0,44.0,46.0,44.0,44.0,45.0,44.0,44.0,44.0,44.0,43.0,44.0,44.0,45.0,47.0,47.0,48.0,50.0,49.0,50.0,49.0,48.0,49.0,49.0,49.0,48.0,49.0,50.0,49.0,52.0,51.0,51.0,52.0,52.0,53.0,53.0,52.0,51.0,52.0,51.0,51.0,50.0,50.0,48.0,49.0,51.0,50.0,50.0,49.0,47.0,48.0,46.0,46.0,45.0,45.0,45.0,46.0,47.0,48.0,47.0,48.0,47.0,48.0,47.0,46.0,46.0,46.0,48.0,46.0,46.0,46.0,46.0,46.0,45.0,47.0,45.0,45.0,45.0,43.0,43.0,44.0,45.0,46.0,45.0,46.0,45.0,45.0,45.0,45.0,45.0,44.0,45.0,44.0,43.0,45.0,45.0,45.0,44.0,44.0,45.0,45.0,45.0,45.0,45.0,45.0,44.0,46.0,45.0,46.0,46.0,47.0,46.0,46.0,46.0,45.0,46.0,46.0,47.0,47.0,47.0,50.0,49.0,48.0,49.0,48.0,50.0,49.0,50.0,50.0,51.0,51.0,51.0,54.0,53.0,54.0,51.0,52.0,53.0,55.0,55.0,54.0,56.0,54.0,53.0,53.0,52.0,52.0,52.0,50.0,51.0,51.0,50.0,49.0,49.0,50.0,50.0,52.0,50.0,51.0,51.0,50.0,51.0,48.0,48.0,48.0,48.0,49.0,48.0,49.0,48.0,48.0,49.0,50.0,51.0,51.0,53.0,52.0,52.0,52.0,51.0,52.0,51.0,51.0,51.0,50.0,52.0,50.0,52.0,53.0,55.0,56.0,57.0,58.0,58.0,59.0,59.0,59.0,59.0,58.0,58.0,57.0,56.0,56.0,56.0,57.0,57.0,57.0,57.0,57.0,57.0,56.0,56.0,56.0,57.0,57.0,57.0,58.0,57.0,57.0,56.0,56.0,56.0,54.0,55.0,56.0,57.0,58.0,57.0,59.0,60.0,61.0,63.0,62.0,62.0,62.0,61.0,59.0,59.0,60.0,59.0,60.0,59.0,58.0,59.0,58.0,59.0,58.0,59.0,58.0,58.0,57.0,58.0,57.0,57.0,57.0,57.0,56.0,55.0,56.0,55.0,56.0,56.0,56.0,55.0,54.0,53.0,54.0,55.0,53.0,53.0,52.0,53.0,51.0,52.0,52.0,51.0,50.0,49.0,48.0,48.0,48.0,50.0,50.0,49.0,48.0,46.0,46.0,45.0,46.0,46.0,45.0,48.0,48.0,49.0,49.0,48.0,48.0,47.0,48.0,47.0,49.0,48.0,49.0,50.0,49.0,50.0,48.0,50.0,49.0,49.0,49.0,51.0,53.0,53.0,55.0,54.0,55.0,57.0,59.0,61.0,61.0,60.0,61.0,59.0,62.0,60.0,61.0,60.0,58.0,58.0,57.0,58.0,57.0,56.0,58.0,57.0,56.0,56.0,57.0,57.0,57.0,58.0,57.0,58.0,58.0,55.0,57.0,57.0,57.0,58.0,59.0,60.0,60.0,60.0,58.0,56.0,59.0,57.0,56.0,56.0,57.0,57.0,58.0,60.0,60.0,60.0,60.0,61.0,61.0,60.0,60.0,59.0,58.0,55.0,54.0,52.0,51.0,52.0,51.0,52.0,50.0,50.0,50.0,48.0,49.0,49.0,49.0,50.0,49.0,50.0,49.0,49.0,49.0,48.0,51.0,50.0,50.0,51.0,49.0,52.0,52.0,52.0,53.0,54.0,55.0,54.0,56.0,55.0,56.0,54.0,54.0,54.0,53.0,53.0,52.0,52.0,54.0,55.0,55.0,56.0,57.0,55.0,54.0,55.0,53.0,55.0,53.0,55.0,55.0,54.0,54.0,54.0,55.0,54.0,54.0,54.0,54.0,56.0,55.0,55.0,54.0,54.0,56.0,55.0,56.0,56.0,55.0,55.0,56.0,55.0,57.0,57.0,57.0,54.0,53.0,53.0,51.0,52.0,51.0,52.0,50.0,51.0,54.0,51.0,54.0,55.0,55.0,54.0,54.0,54.0,53.0,52.0,52.0,51.0,49.0,50.0,51.0,51.0,52.0,51.0,52.0,52.0,54.0,53.0,53.0,54.0,54.0,55.0,55.0,54.0,56.0,57.0,58.0,59.0,60.0,62.0,61.0,61.0,61.0,61.0,63.0,62.0,61.0,60.0,59.0,61.0,60.0,60.0,58.0,58.0,57.0,56.0,56.0,56.0,55.0,54.0,54.0,54.0,55.0,55.0,54.0,55.0,55.0,55.0,55.0,56.0,57.0,57.0,57.0,59.0,58.0,59.0,59.0,60.0,60.0,60.0,60.0,59.0,61.0,60.0,61.0,63.0,62.0,63.0,60.0,61.0,60.0,60.0,61.0,59.0,59.0,59.0,58.0,59.0,58.0,59.0,57.0,59.0,58.0,59.0,59.0,59.0,58.0,58.0,58.0,57.0,55.0,57.0,57.0,55.0,56.0,55.0,55.0,55.0,54.0,55.0,54.0,54.0,53.0,54.0,52.0,53.0,52.0,52.0,53.0,52.0,54.0,52.0,54.0,54.0,56.0,54.0,54.0,56.0,55.0,55.0,56.0,54.0,54.0,57.0,57.0,58.0,55.0,58.0,56.0,57.0,57.0,57.0,59.0,58.0,60.0,59.0,58.0,58.0,57.0,58.0,59.0,58.0,57.0,56.0,56.0,55.0,55.0,53.0,52.0,52.0,52.0,53.0,52.0,54.0,54.0,55.0,56.0
42.0,41.0,43.0,43.0,43.0,44.0,46.0,46.0,45.0,46.0,45.0,45.0,48.0,45.0,45.0,45.0,45.0,45.0,48.0,47.0,45.0,45.0,43.0,43.0,43.0,43.0,45.0,43.0,42.0,41.0,40.0,40.0,41.0,43.0,42.0,44.0,44.0,42.0,43.0,43.0,44.0,44.0,45.0,45.0,45.0,45.0,45.0,43.0,44.0,44.0,48.0,48.0,46.0,47.0,47.0,45.0,48.0,47.0,46.0,43.0,44.0,42.0,42.0,41.0,42.0,42.0,43.0,42.0,42.0,42.0,44.0,42.0,42.0,42.0,41.0,43.0,44.0,45.0,46.0,47.0,44.0,43.0,43.0,45.0,45.0,45.0,47.0,47.0,46.0,61.0,98.0,148.0,203.0,244.0,269.0,336.0,403.0,397.0,518.0,512.0,628.0,655.0,611.0,570.0,561.0,520.0,526.0,509.0,495.0,482.0,456.0,444.0,447.0,427.0,418.0,408.0,400.0,387.0,385.0,374.0,357.0,358.0,335.0,331.0,319.0,313.0,305.0,295.0,282.0,273.0,261.0,259.0,246.0,243.0,233.0,228.0,221.0,221.0,211.0,196.0,188.0,191.0,181.0,170.0,164.0,163.0,157.0,148.0,141.0,139.0,135.0,133.0,131.0,134.0,126.0,117.0,116.0,120.0,129.0,140.0,162.0,181.0,195.0,213.0,223.0,229.0,232.0,236.0,242.0,244.0,249.0,252.0,252.0,252.0,250.0,251.0,251.0,246.0,247.0,247.0,247.0,243.0,241.0,238.0,233.0,228.0,223.0,217.0,212.0,209.0,205.0,203.0,202.0,195.0,191.0,188.0,183.0,177.0,175.0,170.0,166.0,160.0,157.0,155.0,152.0,151.0,146.0,145.0,143.0,142.0,138.0,136.0,132.0,129.0,129.0,125.0,122.0,118.0,117.0,116.0,111.0,110.0,112.0,106.0,104.0,103.0,102.0,101.0,103.0,102.0,103.0,103.0,102.0,103.0,103.0,102.0,106.0,107.0,109.0,106.0,106.0,108.0,108.0,109.0,106.0,108.0,105.0,106.0,104.0,101.0,101.0,98.0,95.0,93.0,90.0,89.0,89.0,88.0,87.0,84.0,83.0,82.0,80.0,79.0,81.0,79.0,78.0,76.0,74.0,73.0,73.0,73.0,72.0,69.0,72.0,72.0,71.0,69.0,70.0,68.0,68.0,67.0,66.0,66.0,65.0,65.0,65.0,64.0,63.0,63.0,61.0,61.0,59.0,61.0,58.0,60.0,59.0,58.0,58.0,57.0,55.0,55.0,52.0,53.0,52.0,51.0,50.0,50.0,49.0,47.0,46.0,44.0,44.0,44.0,43.0,43.0,42.0,42.0,42.0,42.0,43.0,41.0,41.0,40.0,39.0,40.0,38.0,38.0,40.0,43.0,41.0,41.0,42.0,41.0,42.0,43.0,43.0,43.0,41.0,42.0,43.0,42.0,42.0,42.0,45.0,44.0,45.0,43.0,44.0,43.0,41.0,42.0,42.0,44.0,44.0,43.0,44.0,42.0,43.0,40.0,42.0,44.0,43.0,42.0,40.0,40.0,40.0,38.0,38.0,39.0,38.0,40.0,41.0,40.0,38.0,39.0,40.0,40.0,39.0,41.0,42.0,40.0,43.0,44.0,45.0,46.0,47.0,47.0,48.0,48.0,49.0,47.0,47.0,46.0,46.0,46.0,45.0,44.0,44.0,43.0,43.0,44.0,43.0,41.0,46.0,43.0,43.0,43.0,43.0,44.0,44.0,45.0,43.0,42.0,41.0,40.0,42.0,40.0,40.0,40.0,40.0,41.0,41.0,42.0,41.0,41.0,40.0,38.0,39.0,38.0,40.0,40.0,42.0,43.0,42.0,41.0,41.0,40.0,40.0,39.0,43.0,42.0,42.0,41.0,40.0,39.0,38.0,38.0,40.0,40.0,40.0,39.0,39.0,38.0,38.0,39.0,38.0,39.0,39.0,39.0,38.0,39.0,39.0,38.0,38.0,37.0,39.0,40.0,40.0,39.0,39.0,40.0,39.0,40.0,41.0,41.0,43.0,41.0,40.0,41.0,40.0,39.0,38.0,40.0,39.0,38.0,41.0,41.0,41.0,41.0,40.0,41.0,40.0,41.0,40.0,39.0,38.0,38.0,41.0,40.0,39.0,39.0,41.0,41.0,40.0,40.0,39.0,41.0,39.0,41.0,42.0,40.0,40.0,42.0,41.0,41.0,41.0,42.0,40.0,41.0,40.0,42.0,42.0,41.0,43.0,40.0,42.0,41.0,40.0,39.0,39.0,43.0,40.0,39.0,40.0,39.0,40.0,39.0,42.0,41.0,40.0,40.0,39.0,39.0,37.0,38.0,41.0,40.0,39.0,39.0,39.0,39.0,37.0,39.0,38.0,40.0,42.0,41.0,41.0,40.0,41.0,41.0,41.0,46.0,43.0,43.0,44.0,44.0,44.0,43.0,46.0,47.0,46.0,44.0,44.0,44.0,44.0,45.0,44.0,47.0,45.0,45.0,46.0,45.0,45.0,45.0,44.0,46.0,44.0,44.0,44.0,45.0,44.0,45.0,45.0,49.0,47.0,45.0,44.0,42.0,40.0,42.0,41.0,41.0,44.0,42.0,43.0,43.0,42.0,45.0,44.0,44.0,42.0,42.0,42.0,41.0,40.0,41.0,42.0,42.0,42.0,40.0,39.0,38.0,37.0,38.0,38.0,40.0,39.0,39.0,39.0,37.0,38.0,37.0,40.0,38.0,38.0,38.0,38.0,39.0,38.0,38.0,38.0,38.0,39.0,38.0,39.0,40.0,39.0,43.0,41.0,41.0,42.0,43.0,45.0,44.0,46.0,46.0,44.0,45.0,45.0,44.0,44.0,46.0,45.0,43.0,43.0,43.0,45.0,46.0,45.0,46.0,48.0,47.0,47.0,46.0,46.0,49.0,52.0,51.0,53.0,53.0,55.0,56.0,56.0,57.0,57.0,58.0,59.0,59.0,62.0,57.0,61.0,60.0,61.0,61.0,62.0,62.0,61.0,63.0,62.0,61.0,60.0,60.0,61.0,57.0,59.0,62.0,62.0,63.0,66.0,67.0,70.0,68.0,68.0,68.0,67.0,67.0,66.0,68.0,68.0,69.0,70.0,68.0,67.0,68.0,67.0,66.0,63.0,64.0,63.0,62.0,60.0,59.0,61.0,61.0,59.0,59.0,57.0,57.0,57.0,56.0,55.0,58.0,57.0,55.0,53.0,55.0,53.0,52.0,52.0,52.0,54.0,53.0,53.0,53.0,52.0,54.0,53.0,54.0,53.0,52.0,51.0,51.0,49.0,52.0,50.0,50.0,52.0,51.0,49.0,48.0,47.0,46.0,46.0,47.0,48.0,47.0,46.0,45.0,46.0,46.0,49.0,48.0,48.0,47.0,47.0,46.0,47.0,46.0,46.0,49.0,48.0,48.0,47.0,48.0,48.0,49.0,49.0,49.0,48.0,49.0,48.0,47.0,45.0,47.0,46.0,45.0,47.0,46.0,45.0,44.0,45.0,46.0,46.0,48.0,46.0,49.0,48.0,47.0,51.0,49.0,48.0,48.0,49.0,48.0,47.0,49.0,48.0,47.0,47.0,47.0,47.0,48.0,49.0,45.0,45.0,44.0,45.0,45.0,47.0,48.0,47.0,46.0,46.0,47.0,46.0,47.0,46.0,45.0,47.0,47.0,46.0,47.0,46.0,45.0,44.0,43.0,44.0,43.0,42.0,41.0,40.0,43.0,42.0,42.0,43.0,43.0,44.0,46.0,46.0,45.0,44.0,44.0,44.0,45.0,45.0,46.0,45.0,46.0,45.0,44.0,44.0,44.0,45.0,44.0,44.0,44.0,43.0,44.0,45.0,48.0,47.0,45.0,46.0,44.0,43.0,43.0,46.0,46.0,45.0,47.0,45.0,46.0,45.0,47.0,47.0,46.0,45.0,45.0,43.0,44.0,43.0,46.0,44.0,43.0,44.0,43.0,41.0,42.0,42.0,44.0,43.0,45.0,43.0,46.0,45.0,43.0,44.0,42.0,43.0,43.0,43.0,44.0,45.0,45.0,44.0,43.0,44.0,44.0,44.0,44.0,45.0,45.0,46.0,46.0,47.0,51.0,50.0,50.0,51.0,50.0,50.0,48.0,51.0,49.0,49.0,49.0,50.0,53.0,53.0,52.0,53.0,53.0,54.0,53.0,53.0,53.0,56.0,57.0,57.0,58.0,54.0,55.0,56.0,56.0,55.0,54.0,54.0,54.0,54.0,53.0,53.0,53.0,51.0,49.0,51.0,50.0,50.0,51.0,51.0,56.0,53.0,53.0,52.0,54.0,55.0,54.0,53.0,56.0
20.0,18.0,26.0,28.0,25.0,23.0,22.0,25.0,23.0,20.0,21.0,20.0,30.0,27.0,24.0,23.0,24.0,23.0,29.0,27.0,25.0,22.0,20.0,21.0,23.0,25.0,34.0,29.0,25.0,24.0,24.0,22.0,20.0,27.0,24.0,44.0,39.0,34.0,38.0,36.0,32.0,28.0,26.0,24.0,22.0,20.0,19.0,18.0,17.0,15.0,27.0,27.0,27.0,28.0,27.0,27.0,40.0,35.0,33.0,29.0,29.0,26.0,22.0,20.0,40.0,39.0,44.0,41.0,37.0,32.0,45.0,41.0,36.0,32.0,31.0,33.0,34.0,30.0,48.0,41.0,39.0,34.0,32.0,31.0,29.0,28.0,43.0,40.0,34.0,32.0,35.0,42.0,52.0,49.0,62.0,75.0,88.0,89.0,106.0,99.0,142.0,136.0,125.0,112.0,105.0,91.0,95.0,85.0,81.0,73.0,70.0,70.0,65.0,67.0,70.0,61.0,59.0,50.0,45.0,46.0,39.0,35.0,32.0,30.0,31.0,28.0,25.0,20.0,24.0,21.0,21.0,19.0,16.0,17.0,15.0,14.0,13.0,13.0,13.0,13.0,13.0,12.0,10.0,9.0,9.0,9.0,8.0,8.0,15.0,17.0,40.0,52.0,52.0,66.0,74.0,84.0,92.0,106.0,117.0,104.0,96.0,91.0,100.0,101.0,95.0,89.0,91.0,93.0,96.0,101.0,111.0,108.0,104.0,99.0,102.0,100.0,90.0,105.0,111.0,99.0,92.0,86.0,76.0,72.0,69.0,67.0,64.0,72.0,74.0,66.0,65.0,57.0,51.0,47.0,44.0,39.0,38.0,55.0,54.0,50.0,46.0,43.0,37.0,35.0,32.0,29.0,29.0,26.0,44.0,45.0,45.0,39.0,33.0,30.0,27.0,24.0,27.0,33.0,34.0,30.0,26.0,25.0,24.0,21.0,20.0,24.0,20.0,26.0,26.0,23.0,25.0,24.0,27.0,22.0,23.0,32.0,42.0,37.0,33.0,31.0,28.0,25.0,23.0,19.0,31.0,34.0,31.0,27.0,23.0,21.0,24.0,21.0,19.0,17.0,15.0,21.0,20.0,18.0,16.0,16.0,17.0,17.0,16.0,13.0,13.0,29.0,33.0,29.0,27.0,24.0,23.0,21.0,23.0,24.0,24.0,24.0,21.0,19.0,18.0,42.0,51.0,47.0,51.0,44.0,39.0,35.0,31.0,28.0,25.0,25.0,23.0,20.0,20.0,18.0,17.0,24.0,21.0,20.0,19.0,17.0,15.0,14.0,15.0,13.0,22.0,26.0,22.0,20.0,18.0,16.0,15.0,15.0,27.0,23.0,22.0,19.0,17.0,16.0,14.0,18.0,32.0,27.0,25.0,22.0,21.0,19.0,18.0,18.0,22.0,26.0,25.0,22.0,20.0,19.0,30.0,33.0,30.0,26.0,25.0,23.0,33.0,29.0,28.0,26.0,30.0,27.0,25.0,23.0,25.0,22.0,20.0,18.0,27.0,26.0,24.0,22.0,18.0,18.0,16.0,15.0,16.0,29.0,28.0,24.0,22.0,20.0,18.0,17.0,15.0,22.0,18.0,23.0,32.0,27.0,25.0,21.0,22.0,18.0,18.0,19.0,18.0,16.0,21.0,31.0,28.0,24.0,22.0,20.0,19.0,20.0,19.0,18.0,15.0,17.0,15.0,26.0,30.0,27.0,24.0,28.0,24.0,22.0,19.0,17.0,31.0,29.0,25.0,26.0,22.0,23.0,24.0,41.0,37.0,38.0,34.0,32.0,28.0,25.0,22.0,20.0,17.0,16.0,19.0,19.0,30.0,28.0,28.0,24.0,22.0,18.0,17.0,22.0,24.0,34.0,31.0,29.0,26.0,23.0,21.0,19.0,33.0,33.0,30.0,27.0,25.0,21.0,19.0,19.0,33.0,34.0,30.0,29.0,25.0,22.0,23.0,24.0,40.0,36.0,32.0,26.0,27.0,23.0,21.0,20.0,18.0,18.0,24.0,30.0,27.0,25.0,22.0,20.0,21.0,38.0,40.0,36.0,32.0,30.0,26.0,22.0,20.0,18.0,16.0,18.0,18.0,16.0,41.0,36.0,33.0,28.0,25.0,27.0,25.0,21.0,20.0,20.0,17.0,18.0,33.0,37.0,32.0,29.0,41.0,52.0,46.0,42.0,43.0,48.0,43.0,37.0,37.0,33.0,29.0,43.0,41.0,36.0,33.0,31.0,31.0,30.0,28.0,33.0,32.0,30.0,29.0,25.0,25.0,23.0,22.0,20.0,20.0,35.0,33.0,29.0,27.0,27.0,27.0,28.0,38.0,35.0,33.0,31.0,28.0,24.0,22.0,24.0,36.0,38.0,33.0,30.0,26.0,23.0,20.0,18.0,17.0,24.0,37.0,34.0,29.0,27.0,24.0,22.0,19.0,36.0,36.0,32.0,29.0,25.0,22.0,20.0,27.0,30.0,25.0,22.0,24.0,22.0,20.0,17.0,18.0,24.0,22.0,19.0,17.0,16.0,13.0,16.0,14.0,36.0,31.0,26.0,26.0,23.0,23.0,20.0,19.0,26.0,22.0,20.0,19.0,15.0,16.0,14.0,14.0,14.0,39.0,34.0,34.0,31.0,26.0,44.0,43.0,39.0,36.0,33.0,31.0,27.0,24.0,28.0,37.0,34.0,34.0,30.0,26.0,23.0,21.0,19.0,25.0,23.0,25.0,29.0,24.0,25.0,26.0,30.0,34.0,30.0,27.0,23.0,23.0,19.0,17.0,17.0,15.0,20.0,30.0,27.0,24.0,23.0,20.0,33.0,35.0,30.0,31.0,29.0,27.0,27.0,25.0,30.0,26.0,40.0,36.0,34.0,30.0,29.0,25.0,23.0,19.0,19.0,19.0,27.0,25.0,24.0,22.0,22.0,20.0,17.0,18.0,19.0,31.0,33.0,32.0,27.0,24.0,26.0,24.0,26.0,25.0,22.0,23.0,23.0,32.0,34.0,37.0,36.0,31.0,28.0,28.0,39.0,36.0,32.0,28.0,26.0,23.0,22.0,38.0,34.0,31.0,31.0,30.0,25.0,25.0,23.0,32.0,44.0,38.0,39.0,36.0,33.0,29.0,25.0,22.0,41.0,41.0,36.0,32.0,28.0,32.0,43.0,39.0,35.0,31.0,28.0,29.0,26.0,26.0,36.0,31.0,30.0,26.0,23.0,23.0,23.0,21.0,22.0,37.0,32.0,29.0,25.0,23.0,22.0,22.0,36.0,33.0,29.0,27.0,26.0,24.0,23.0,21.0,26.0,37.0,34.0,30.0,30.0,25.0,26.0,24.0,24.0,27.0,39.0,39.0,35.0,33.0,29.0,26.0,46.0,48.0,42.0,37.0,32.0,39.0,34.0,39.0,34.0,31.0,29.0,26.0,24.0,21.0,18.0,17.0,26.0,27.0,26.0,23.0,21.0,21.0,19.0,16.0,19.0,17.0,34.0,36.0,32.0,29.0,25.0,27.0,25.0,39.0,41.0,36.0,33.0,30.0,28.0,27.0,30.0,27.0,30.0,27.0,24.0,21.0,20.0,17.0,21.0,36.0,32.0,27.0,24.0,25.0,23.0,20.0,18.0,17.0,39.0,48.0,45.0,40.0,35.0,30.0,28.0,27.0,24.0,41.0,37.0,33.0,30.0,28.0,27.0,24.0,23.0,26.0,30.0,28.0,24.0,21.0,20.0,17.0,16.0,16.0,26.0,32.0,30.0,26.0,23.0,24.0,21.0,21.0,19.0,16.0,28.0,40.0,36.0,32.0,28.0,25.0,24.0,22.0,20.0,20.0,33.0,30.0,27.0,23.0,21.0,21.0,20.0,18.0,19.0,20.0,19.0,20.0,28.0,38.0,34.0,32.0,29.0,26.0,22.0,27.0,39.0,34.0,33.0,34.0,30.0,27.0,43.0,38.0,39.0,34.0,31.0,30.0,26.0,23.0,36.0,37.0,34.0,30.0,28.0,24.0,23.0,20.0,34.0,30.0,34.0,35.0,40.0,37.0,31.0,27.0,25.0,24.0,29.0,31.0,32.0,43.0,39.0,35.0,31.0,29.0,28.0,23.0,22.0,22.0,39.0,35.0,32.0,28.0,28.0,28.0,24.0,33.0,38.0,37.0,34.0,36.0,33.0,29.0,27.0,24.0,37.0,35.0,30.0,31.0,30.0,30.0,34.0,36.0,31.0,28.0,26.0,24.0,29.0,27.0,25.0,23.0,35.0,33.0,30.0,26.0,24.0,30.0,28.0,25.0,40.0,39.0,34.0,31.0,27.0,25.0,31.0,26.0,30.0,31.0,26.0,24.0,25.0,27.0,24.0,23.0,38.0
71.0,67.0,64.0,63.0,66.0,68.0,64.0,65.0,61.0,64.0,69.0,69.0,67.0,68.0,64.0,63.0,65.0,66.0,64.0,65.0,61.0,59.0,59.0,62.0,63.0,69.0,67.0,61.0,64.0,66.0,68.0,68.0,63.0,70.0,68.0,83.0,88.0,87.0,81.0,75.0,75.0,73.0,73.0,72.0,72.0,70.0,67.0,66.0,62.0,60.0,60.0,57.0,62.0,61.0,63.0,69.0,68.0,68.0,74.0,76.0,75.0,72.0,66.0,62.0,62.0,63.0,66.0,73.0,70.0,66.0,66.0,66.0,66.0,68.0,65.0,73.0,72.0,74.0,74.0,70.0,74.0,71.0,66.0,65.0,61.0,61.0,60.0,56.0,53.0,51.0,53.0,66.0,76.0,75.0,87.0,99.0,110.0,107.0,113.0,106.0,128.0,127.0,124.0,119.0,115.0,107.0,102.0,107.0,116.0,114.0,115.0,121.0,125.0,140.0,154.0,154.0,153.0,146.0,131.0,125.0,123.0,113.0,108.0,110.0,116.0,123.0,117.0,133.0,134.0,124.0,125.0,114.0,112.0,110.0,101.0,95.0,96.0,106.0,101.0,101.0,98.0,100.0,95.0,90.0,87.0,82.0,78.0,80.0,77.0,80.0,96.0,112.0,164.0,184.0,222.0,259.0,267.0,266.0,288.0,274.0,287.0,263.0,249.0,251.0,247.0,239.0,232.0,226.0,229.0,236.0,237.0,215.0,204.0,203.0,201.0,187.0,175.0,175.0,169.0,175.0,178.0,169.0,170.0,175.0,156.0,145.0,133.0,131.0,129.0,137.0,126.0,121.0,118.0,136.0,136.0,128.0,121.0,123.0,140.0,139.0,129.0,120.0,129.0,140.0,127.0,117.0,119.0,114.0,111.0,112.0,101.0,95.0,88.0,97.0,110.0,102.0,97.0,98.0,118.0,111.0,103.0,107.0,108.0,103.0,106.0,105.0,113.0,109.0,102.0,106.0,111.0,112.0,117.0,113.0,111.0,109.0,106.0,102.0,101.0,105.0,106.0,106.0,100.0,102.0,96.0,101.0,101.0,96.0,97.0,91.0,93.0,86.0,89.0,91.0,99.0,97.0,93.0,91.0,89.0,88.0,90.0,89.0,96.0,101.0,100.0,104.0,95.0,88.0,83.0,89.0,86.0,85.0,78.0,81.0,91.0,89.0,88.0,93.0,89.0,93.0,93.0,89.0,90.0,86.0,84.0,85.0,83.0,82.0,91.0,94.0,91.0,85.0,85.0,87.0,79.0,80.0,77.0,92.0,89.0,89.0,83.0,81.0,82.0,81.0,76.0,74.0,69.0,69.0,76.0,78.0,78.0,73.0,75.0,81.0,83.0,88.0,79.0,79.0,86.0,87.0,87.0,79.0,79.0,88.0,87.0,89.0,89.0,94.0,94.0,96.0,96.0,95.0,95.0,86.0,91.0,87.0,83.0,86.0,85.0,85.0,85.0,92.0,97.0,90.0,103.0,96.0,91.0,87.0,81.0,76.0,77.0,74.0,94.0,91.0,86.0,81.0,81.0,83.0,86.0,82.0,76.0,77.0,76.0,74.0,70.0,70.0,70.0,67.0,82.0,80.0,75.0,73.0,69.0,74.0,71.0,67.0,65.0,80.0,80.0,82.0,81.0,71.0,73.0,76.0,78.0,78.0,72.0,71.0,72.0,82.0,81.0,79.0,77.0,76.0,76.0,76.0,72.0,67.0,65.0,67.0,65.0,66.0,62.0,62.0,67.0,69.0,68.0,63.0,65.0,64.0,70.0,73.0,69.0,71.0,68.0,71.0,80.0,76.0,74.0,72.0,69.0,75.0,76.0,77.0,72.0,71.0,71.0,67.0,62.0,64.0,63.0,65.0,70.0,72.0,66.0,65.0,69.0,74.0,71.0,70.0,68.0,68.0,69.0,75.0,79.0,71.0,66.0,70.0,76.0,82.0,78.0,71.0,66.0,63.0,70.0,68.0,70.0,75.0,70.0,67.0,68.0,72.0,75.0,72.0,71.0,69.0,71.0,68.0,69.0,62.0,63.0,69.0,65.0,73.0,77.0,79.0,82.0,81.0,73.0,69.0,67.0,69.0,66.0,70.0,69.0,68.0,74.0,75.0,76.0,76.0,73.0,73.0,71.0,74.0,69.0,71.0,70.0,71.0,67.0,70.0,71.0,66.0,78.0,83.0,82.0,79.0,78.0,79.0,73.0,81.0,82.0,77.0,72.0,74.0,71.0,68.0,68.0,81.0,81.0,83.0,80.0,81.0,79.0,82.0,79.0,74.0,78.0,76.0,72.0,71.0,69.0,70.0,70.0,71.0,70.0,74.0,74.0,76.0,76.0,80.0,78.0,73.0,69.0,68.0,69.0,77.0,76.0,76.0,74.0,70.0,67.0,67.0,66.0,69.0,68.0,72.0,78.0,74.0,71.0,69.0,65.0,61.0,63.0,69.0,71.0,67.0,72.0,74.0,77.0,76.0,79.0,80.0,79.0,81.0,81.0,84.0,80.0,78.0,74.0,80.0,81.0,75.0,73.0,69.0,65.0,82.0,85.0,89.0,83.0,77.0,77.0,74.0,74.0,72.0,71.0,83.0,83.0,75.0,71.0,65.0,64.0,64.0,61.0,75.0,74.0,72.0,68.0,66.0,67.0,66.0,67.0,62.0,64.0,65.0,70.0,72.0,67.0,71.0,67.0,71.0,80.0,78.0,73.0,70.0,80.0,84.0,86.0,85.0,79.0,75.0,73.0,73.0,73.0,71.0,67.0,70.0,71.0,68.0,65.0,68.0,67.0,68.0,68.0,66.0,62.0,59.0,66.0,82.0,78.0,75.0,76.0,74.0,77.0,76.0,74.0,71.0,75.0,75.0,77.0,74.0,70.0,71.0,66.0,72.0,69.0,80.0,84.0,78.0,80.0,79.0,74.0,71.0,69.0,71.0,66.0,64.0,65.0,67.0,67.0,63.0,60.0,55.0,63.0,67.0,65.0,68.0,65.0,63.0,61.0,66.0,71.0,65.0,63.0,65.0,60.0,57.0,54.0,61.0,64.0,73.0,75.0,75.0,79.0,74.0,72.0,71.0,71.0,73.0,73.0,70.0,67.0,70.0,68.0,68.0,64.0,64.0,62.0,74.0,73.0,76.0,72.0,69.0,75.0,83.0,82.0,81.0,77.0,72.0,72.0,78.0,78.0,79.0,77.0,73.0,74.0,83.0,88.0,82.0,78.0,73.0,71.0,84.0,80.0,74.0,76.0,75.0,70.0,73.0,70.0,68.0,62.0,62.0,65.0,65.0,66.0,66.0,68.0,70.0,67.0,69.0,65.0,68.0,65.0,62.0,59.0,64.0,65.0,76.0,71.0,70.0,67.0,71.0,70.0,72.0,70.0,70.0,69.0,67.0,66.0,67.0,64.0,63.0,73.0,70.0,73.0,77.0,79.0,76.0,71.0,74.0,79.0,76.0,90.0,88.0,84.0,83.0,82.0,78.0,73.0,69.0,72.0,70.0,79.0,84.0,79.0,75.0,76.0,78.0,98.0,95.0,89.0,82.0,76.0,75.0,71.0,86.0,86.0,90.0,83.0,80.0,80.0,79.0,77.0,76.0,74.0,72.0,68.0,67.0,74.0,80.0,74.0,73.0,74.0,73.0,70.0,71.0,73.0,69.0,68.0,67.0,74.0,80.0,77.0,71.0,69.0,65.0,64.0,74.0,70.0,65.0,65.0,66.0,62.0,65.0,63.0,68.0,68.0,68.0,65.0,64.0,67.0,66.0,69.0,69.0,71.0,69.0,66.0,69.0,66.0,67.0,65.0,64.0,66.0,73.0,74.0,73.0,70.0,70.0,72.0,77.0,86.0,87.0,82.0,80.0,88.0,86.0,82.0,90.0,91.0,90.0,87.0,81.0,93.0,89.0,86.0,82.0,84.0,81.0,78.0,75.0,71.0,73.0,84.0,81.0,81.0,89.0,94.0,94.0,94.0,87.0,91.0,89.0,88.0,83.0,79.0,79.0,81.0,84.0,82.0,76.0,79.0,79.0,79.0,83.0,75.0,79.0,77.0,81.0,81.0,78.0,78.0,80.0,74.0,72.0,68.0,68.0,66.0,63.0,69.0,69.0,68.0,73.0,73.0,73.0,74.0,76.0,74.0,73.0,73.0,75.0,74.0,74.0,75.0,72.0,80.0,79.0,75.0,70.0,69.0,70.0,65.0,70.0,73.0,69.0,76.0,73.0,74.0,69.0,70.0,72.0,69.0,67.0,62.0,60.0,63.0,62.0,62.0,67.0,68.0,76.0,79.0,75.0,72.0,72.0,75.0,72.0,73.0,71.0,69.0,65.0,63.0,77.0,76.0,76.0,75.0,70.0,67.0,75.0,77.0,75.0
