60.0,59.0,58.0,57.0,60.0,60.0,60.0,60.0,58.0,59.0,58.0,60.0,58.0,58.0,57.0,58.0,59.0,57.0,59.0,60.0,60.0,60.0,61.0,60.0,60.0,60.0,58.0,58.0,59.0,59.0,59.0,58.0,57.0,57.0,59.0,59.0,59.0,59.0,59.0,57.0,57.0,56.0,56.0,57.0,58.0,58.0,56.0,57.0,57.0,58.0,59.0,57.0,59.0,58.0,59.0,61.0,59.0,59.0,60.0,62.0,60.0,60.0,59.0,58.0,59.0,60.0,61.0,61.0,61.0,61.0,62.0,62.0,62.0,60.0,62.0,60.0,62.0,61.0,61.0,60.0,61.0,63.0,62.0,61.0,60.0,59.0,58.0,59.0,60.0,58.0,59.0,59.0,58.0,59.0,57.0,57.0,56.0,57.0,54.0,54.0,54.0,53.0,56.0,55.0,56.0,54.0,54.0,55.0,54.0,52.0,52.0,52.0,51.0,50.0,51.0,50.0,51.0,49.0,48.0,50.0,48.0,48.0,49.0,51.0,50.0,51.0,52.0,51.0,51.0,51.0,51.0,50.0,50.0,51.0,51.0,51.0,52.0,53.0,54.0,54.0,55.0,56.0,56.0,57.0,58.0,56.0,56.0,57.0,59.0,59.0,59.0,61.0,60.0,62.0,61.0,62.0,61.0,60.0,59.0,57.0,60.0,57.0,56.0,54.0,52.0,52.0,53.0,51.0,50.0,50.0,50.0,50.0,51.0,51.0,53.0,53.0,53.0,51.0,51.0,51.0,51.0,52.0,52.0,54.0,53.0,52.0,54.0,53.0,53.0,52.0,53.0,54.0,54.0,55.0,55.0,54.0,55.0,54.0,55.0,54.0,55.0,57.0,56.0,56.0,54.0,55.0,57.0,58.0,58.0,57.0,55.0,55.0,53.0,58.0,57.0,64.0,72.0,98.0,96.0,109.0,139.0,142.0,136.0,160.0,215.0,226.0,221.0,222.0,213.0,198.0,177.0,168.0,158.0,148.0,136.0,157.0,661.0,327.0,322.0,245.0,198.0,134.0,5.0,0.0,0.0,0.0,0.0,0.0,0.0,1.0,0.0,0.0,1.0,1.0,0.0,668.0,668.0,668.0,668.0,668.0,669.0,668.0,668.0,667.0,668.0,668.0,668.0,669.0,668.0,668.0,667.0,668.0,668.0,667.0,650.0,667.0,670.0,667.0,665.0,662.0,663.0,660.0,665.0,657.0,665.0,652.0,596.0,629.0,630.0,640.0,556.0,199.0,126.0,3.0,1.0,665.0,668.0,667.0,658.0,664.0,664.0,665.0,666.0,665.0,666.0,665.0,665.0,662.0,647.0,193.0,54.0,1.0,0.0,0.0,0.0,668.0,669.0,668.0,668.0,660.0,557.0,186.0,34.0,1.0,1.0,0.0,0.0,0.0,0.0,0.0,0.0,0.0,0.0,0.0,0.0,0.0,0.0,0.0,0.0,0.0,0.0,0.0,0.0,0.0,0.0,0.0,0.0,0.0,0.0,668.0,668.0,669.0,664.0,667.0,669.0,668.0,669.0,668.0,668.0,668.0,669.0,668.0,668.0,669.0,668.0,668.0,668.0,668.0,668.0,669.0,668.0,668.0,668.0,668.0,668.0,668.0,668.0,668.0,668.0,668.0,668.0,668.0,668.0,667.0,667.0,667.0,668.0,668.0,668.0,668.0,668.0,668.0,667.0,667.0,668.0,668.0,667.0,668.0,263.0,167.0,271.0,659.0,668.0,656.0,662.0,187.0,666.0,666.0,644.0,664.0,668.0,668.0,668.0,669.0,668.0,668.0,668.0,668.0,668.0,667.0,668.0,668.0,668.0,668.0,668.0,668.0,668.0,668.0,668.0,668.0,667.0,667.0,668.0,667.0,668.0,667.0,667.0,667.0,667.0,668.0,667.0,667.0,667.0,668.0,667.0,668.0,668.0,668.0,668.0,668.0,668.0,668.0,668.0,668.0,668.0,668.0,668.0,668.0,668.0,668.0,667.0,668.0,667.0,667.0,668.0,668.0,668.0,667.0,669.0,668.0,668.0,668.0,668.0,668.0,667.0,668.0,668.0,667.0,668.0,668.0,668.0,668.0,668.0,668.0,668.0,668.0,668.0,668.0,668.0,668.0,668.0,668.0,667.0,668.0,668.0,668.0,667.0,668.0,667.0,668.0,667.0,668.0,667.0,667.0,668.0,668.0,668.0,668.0,667.0,668.0,668.0,667.0,668.0,668.0,668.0,668.0,668.0,668.0,668.0,668.0,667.0,667.0,667.0,667.0,667.0,667.0,667.0,667.0,667.0,660.0,652.0,642.0,632.0,625.0,617.0,612.0,603.0,595.0,589.0,582.0,575.0,568.0,558.0,555.0,547.0,542.0,536.0,532.0,528.0,523.0,518.0,513.0,506.0,498.0,495.0,490.0,486.0,481.0,478.0,474.0,473.0,468.0,464.0,459.0,455.0,450.0,447.0,445.0,440.0,438.0,433.0,432.0,429.0,426.0,423.0,418.0,416.0,413.0,408.0,406.0,403.0,400.0,398.0,395.0,392.0,389.0,385.0,381.0,378.0,375.0,372.0,370.0,366.0,366.0,363.0,362.0,359.0,355.0,353.0,347.0,346.0,343.0,340.0,336.0,332.0,330.0,326.0,324.0,322.0,318.0,316.0,315.0,315.0,312.0,311.0,310.0,310.0,308.0,306.0,305.0,303.0,302.0,301.0,300.0,298.0,297.0,295.0,295.0,292.0,288.0,286.0,283.0,281.0,280.0,279.0,276.0,277.0,275.0,274.0,273.0,270.0,268.0,266.0,266.0,266.0,264.0,263.0,259.0,258.0,256.0,254.0,252.0,250.0,250.0,250.0,250.0,246.0,247.0,247.0,245.0,243.0,241.0,239.0,236.0,231.0,229.0,227.0,225.0,221.0,221.0,221.0,218.0,216.0,215.0,214.0,212.0,211.0,210.0,206.0,206.0,204.0,204.0,203.0,200.0,200.0,198.0,197.0,197.0,195.0,198.0,198.0,199.0,197.0,197.0,194.0,193.0,192.0,190.0,188.0,186.0,184.0,185.0,185.0,183.0,181.0,180.0,179.0,176.0,173.0,173.0,171.0,170.0,170.0,170.0,168.0,166.0,166.0,164.0,164.0,165.0,165.0,164.0,164.0,163.0,164.0,164.0,162.0,163.0,163.0,162.0,162.0,160.0,163.0,162.0,163.0,164.0,162.0,163.0,161.0,159.0,158.0,156.0,155.0,154.0,153.0,153.0,150.0,150.0,148.0,148.0,145.0,146.0,144.0,141.0,141.0,139.0,141.0,141.0,140.0,139.0,140.0,141.0,141.0,144.0,143.0,143.0,141.0,141.0,142.0,141.0,141.0,139.0,137.0,137.0,136.0,135.0,136.0,137.0,138.0,138.0,139.0,138.0,137.0,136.0,135.0,137.0,136.0,135.0,135.0,134.0,134.0,132.0,132.0,130.0,131.0,131.0,128.0,130.0,130.0,131.0,130.0,132.0,132.0,131.0,129.0,129.0,129.0,128.0,128.0,127.0,126.0,124.0,127.0,126.0,126.0,125.0,124.0,121.0,122.0,121.0,121.0,121.0,118.0,121.0,121.0,121.0,120.0,119.0,119.0,116.0,117.0,115.0,114.0,115.0,113.0,113.0,111.0,111.0,110.0,108.0,107.0,107.0,107.0,106.0,104.0,103.0,100.0,102.0,105.0,104.0,105.0,105.0,105.0,106.0,106.0,105.0,107.0,108.0,105.0,105.0,103.0,103.0,101.0,102.0,102.0,101.0,100.0,99.0,98.0,96.0,95.0,94.0,93.0,93.0,91.0,95.0,96.0,97.0,98.0,98.0,97.0,98.0,98.0,98.0,98.0,100.0,99.0,99.0,102.0,103.0,104.0,105.0,105.0,104.0,104.0,103.0,102.0,102.0,101.0,101.0,100.0,100.0,100.0,101.0,101.0,101.0,100.0,101.0,100.0,100.0,100.0,101.0,101.0,104.0,105.0,103.0,105.0,104.0,104.0,105.0,106.0,107.0,106.0,105.0,105.0,102.0,103.0,103.0,102.0,102.0,101.0,100.0,100.0,100.0,100.0,100.0,101.0,100.0,100.0,99.0,99.0,98.0,97.0,97.0,97.0,95.0,95.0,94.0,94.0,93.0,90.0,91.0,91.0,89.0,89.0,88.0,87.0,86.0,86.0,87.0,86.0,86.0,86.0,85.0,85.0,84.0,85.0,86.0,86.0,86.0,85.0,87.0,85.0,82.0,84.0,81.0,82.0,80.0,81.0,81.0,79.0,78.0,78.0,76.0,79.0,80.0,80.0,79.0,78.0,77.0,76.0,75.0,73.0,74.0,71.0,70.0,69.0,68.0,69.0,69.0
41.0,43.0,44.0,43.0,43.0,43.0,44.0,44.0,44.0,42.0,44.0,43.0,43.0,42.0,42.0,40.0,41.0,42.0,40.0,40.0,41.0,39.0,40.0,38.0,40.0,40.0,39.0,40.0,42.0,42.0,42.0,43.0,43.0,42.0,43.0,40.0,41.0,40.0,39.0,41.0,40.0,41.0,40.0,41.0,40.0,38.0,38.0,40.0,39.0,39.0,39.0,39.0,38.0,38.0,40.0,41.0,41.0,39.0,39.0,39.0,39.0,40.0,39.0,39.0,38.0,38.0,38.0,40.0,41.0,39.0,42.0,40.0,39.0,39.0,42.0,42.0,41.0,41.0,39.0,41.0,40.0,40.0,40.0,40.0,41.0,42.0,44.0,44.0,43.0,44.0,44.0,43.0,44.0,42.0,41.0,41.0,40.0,41.0,41.0,42.0,42.0,42.0,41.0,40.0,40.0,41.0,42.0,41.0,40.0,41.0,39.0,39.0,40.0,39.0,38.0,38.0,38.0,37.0,40.0,37.0,39.0,37.0,38.0,37.0,38.0,39.0,39.0,39.0,37.0,37.0,38.0,36.0,37.0,38.0,39.0,38.0,37.0,38.0,38.0,41.0,41.0,41.0,41.0,39.0,39.0,38.0,40.0,40.0,40.0,40.0,38.0,39.0,42.0,43.0,42.0,41.0,42.0,40.0,39.0,41.0,42.0,42.0,40.0,42.0,40.0,43.0,41.0,42.0,43.0,41.0,41.0,42.0,42.0,41.0,39.0,39.0,39.0,41.0,42.0,39.0,40.0,39.0,38.0,39.0,41.0,40.0,39.0,39.0,38.0,38.0,39.0,40.0,40.0,42.0,41.0,40.0,39.0,38.0,37.0,42.0,40.0,39.0,40.0,38.0,39.0,39.0,39.0,39.0,38.0,38.0,38.0,37.0,48.0,86.0,100.0,148.0,183.0,223.0,257.0,333.0,345.0,331.0,334.0,332.0,328.0,333.0,353.0,337.0,313.0,329.0,299.0,288.0,266.0,247.0,240.0,243.0,231.0,270.0,281.0,304.0,350.0,372.0,418.0,459.0,495.0,547.0,579.0,613.0,647.0,664.0,663.0,663.0,663.0,663.0,663.0,669.0,669.0,667.0,636.0,610.0,578.0,552.0,528.0,508.0,485.0,471.0,453.0,437.0,427.0,417.0,400.0,392.0,382.0,371.0,369.0,372.0,387.0,372.0,365.0,368.0,363.0,361.0,357.0,357.0,353.0,347.0,340.0,337.0,331.0,322.0,314.0,308.0,316.0,324.0,330.0,340.0,332.0,314.0,301.0,291.0,279.0,272.0,263.0,250.0,245.0,232.0,228.0,226.0,224.0,217.0,229.0,243.0,255.0,286.0,296.0,292.0,274.0,253.0,242.0,226.0,218.0,207.0,211.0,215.0,224.0,226.0,236.0,245.0,255.0,260.0,268.0,279.0,285.0,288.0,289.0,293.0,298.0,299.0,299.0,299.0,301.0,305.0,304.0,301.0,304.0,301.0,307.0,299.0,329.0,280.0,250.0,229.0,212.0,198.0,186.0,179.0,169.0,165.0,157.0,150.0,146.0,142.0,133.0,133.0,128.0,121.0,116.0,111.0,108.0,114.0,113.0,110.0,107.0,106.0,100.0,98.0,96.0,93.0,90.0,84.0,83.0,81.0,79.0,76.0,71.0,69.0,71.0,76.0,86.0,92.0,101.0,108.0,108.0,113.0,115.0,122.0,116.0,126.0,131.0,131.0,146.0,158.0,171.0,175.0,193.0,202.0,213.0,225.0,244.0,255.0,263.0,263.0,255.0,255.0,252.0,247.0,243.0,240.0,233.0,228.0,222.0,217.0,207.0,199.0,191.0,178.0,165.0,152.0,139.0,128.0,120.0,114.0,110.0,108.0,104.0,100.0,95.0,91.0,85.0,82.0,79.0,76.0,71.0,68.0,64.0,63.0,61.0,58.0,55.0,53.0,53.0,50.0,50.0,51.0,51.0,52.0,52.0,56.0,58.0,58.0,57.0,59.0,62.0,61.0,64.0,66.0,65.0,68.0,72.0,72.0,74.0,77.0,79.0,81.0,84.0,85.0,86.0,86.0,88.0,89.0,86.0,87.0,86.0,86.0,86.0,87.0,92.0,94.0,96.0,100.0,104.0,108.0,106.0,108.0,108.0,110.0,110.0,111.0,112.0,111.0,112.0,111.0,110.0,109.0,107.0,108.0,107.0,106.0,108.0,106.0,107.0,103.0,102.0,105.0,104.0,106.0,104.0,103.0,103.0,99.0,98.0,96.0,96.0,93.0,91.0,92.0,91.0,92.0,93.0,92.0,90.0,86.0,85.0,84.0,83.0,81.0,79.0,80.0,79.0,77.0,76.0,76.0,72.0,75.0,75.0,75.0,74.0,73.0,71.0,71.0,69.0,71.0,70.0,68.0,71.0,73.0,77.0,77.0,81.0,83.0,85.0,85.0,85.0,85.0,84.0,85.0,86.0,88.0,89.0,90.0,88.0,88.0,89.0,90.0,91.0,90.0,88.0,87.0,85.0,85.0,87.0,86.0,85.0,84.0,83.0,83.0,81.0,80.0,78.0,78.0,77.0,77.0,74.0,74.0,74.0,73.0,72.0,71.0,72.0,71.0,72.0,74.0,73.0,72.0,73.0,71.0,72.0,71.0,73.0,73.0,75.0,78.0,80.0,81.0,82.0,82.0,84.0,82.0,83.0,82.0,82.0,82.0,81.0,82.0,80.0,78.0,77.0,77.0,74.0,69.0,73.0,71.0,71.0,70.0,71.0,70.0,71.0,71.0,68.0,68.0,65.0,64.0,62.0,63.0,63.0,61.0,60.0,59.0,56.0,57.0,57.0,57.0,57.0,55.0,55.0,55.0,54.0,57.0,56.0,57.0,54.0,56.0,54.0,53.0,51.0,53.0,55.0,53.0,52.0,51.0,50.0,48.0,47.0,48.0,48.0,49.0,48.0,49.0,49.0,47.0,47.0,50.0,48.0,47.0,46.0,46.0,45.0,44.0,45.0,48.0,47.0,48.0,48.0,48.0,46.0,47.0,46.0,46.0,46.0,46.0,44.0,45.0,43.0,42.0,44.0,44.0,43.0,43.0,41.0,42.0,40.0,43.0,44.0,42.0,42.0,41.0,41.0,40.0,43.0,44.0,42.0,42.0,41.0,40.0,40.0,40.0,41.0,41.0,41.0,40.0,39.0,39.0,40.0,39.0,38.0,38.0,37.0,37.0,38.0,37.0,37.0,37.0,37.0,38.0,37.0,39.0,42.0,44.0,44.0,43.0,43.0,42.0,41.0,39.0,38.0,39.0,38.0,39.0,37.0,38.0,38.0,38.0,39.0,42.0,42.0,42.0,41.0,40.0,41.0,42.0,42.0,41.0,41.0,40.0,40.0,39.0,41.0,42.0,42.0,42.0,42.0,42.0,40.0,40.0,41.0,42.0,40.0,39.0,40.0,39.0,41.0,41.0,41.0,40.0,40.0,42.0,40.0,41.0,41.0,39.0,40.0,39.0,40.0,42.0,40.0,41.0,40.0,42.0,42.0,41.0,40.0,39.0,43.0,44.0,42.0,43.0,41.0,43.0,45.0,45.0,46.0,46.0,45.0,46.0,45.0,42.0,43.0,42.0,42.0,44.0,46.0,46.0,46.0,49.0,49.0,49.0,49.0,49.0,49.0,48.0,48.0,51.0,51.0,53.0,52.0,52.0,52.0,54.0,57.0,57.0,59.0,59.0,60.0,61.0,59.0,60.0,59.0,59.0,59.0,57.0,58.0,58.0,57.0,58.0,58.0,58.0,59.0,60.0,59.0,60.0,59.0,59.0,59.0,60.0,60.0,65.0,67.0,67.0,70.0,71.0,71.0,71.0,73.0,73.0,74.0,74.0,72.0,72.0,71.0,73.0,72.0,71.0,70.0,67.0,66.0,65.0,65.0,63.0,63.0,65.0,63.0,65.0,64.0,65.0,65.0,66.0,66.0,66.0,67.0,68.0,69.0,68.0,68.0,70.0,70.0,70.0,69.0,69.0,68.0,68.0,67.0,65.0,62.0,61.0,59.0,59.0,60.0,62.0,59.0,59.0,57.0,57.0,55.0,54.0,54.0,53.0,54.0,53.0,51.0,52.0,50.0,49.0,49.0,51.0,53.0,53.0,55.0,55.0,55.0,56.0,54.0,56.0,55.0,55.0,53.0,51.0,50.0,50.0,50.0,49.0,47.0,45.0,42.0,43.0,41.0,40.0,39.0,38.0,38.0,37.0,36.0,37.0,37.0,39.0,40.0,41.0,40.0,42.0,40.0,40.0,40.0,40.0,41.0,42.0,44.0,42.0,41.0,40.0,39.0,40.0,39.0,40.0,41.0,41.0,41.0,41.0,43.0,43.0,43.0,46.0
22.0,20.0,27.0,37.0,34.0,30.0,27.0,29.0,25.0,23.0,26.0,29.0,26.0,24.0,23.0,20.0,19.0,31.0,28.0,24.0,32.0,29.0,26.0,24.0,28.0,33.0,35.0,32.0,29.0,25.0,23.0,20.0,37.0,40.0,37.0,32.0,28.0,25.0,24.0,31.0,34.0,34.0,34.0,34.0,32.0,28.0,25.0,30.0,28.0,24.0,23.0,21.0,20.0,20.0,21.0,19.0,18.0,16.0,16.0,15.0,14.0,23.0,20.0,23.0,23.0,20.0,19.0,20.0,18.0,19.0,17.0,16.0,15.0,14.0,22.0,23.0,21.0,19.0,19.0,24.0,23.0,21.0,20.0,22.0,20.0,18.0,23.0,20.0,22.0,22.0,24.0,22.0,30.0,28.0,24.0,24.0,24.0,24.0,22.0,29.0,30.0,29.0,29.0,24.0,25.0,27.0,34.0,30.0,27.0,24.0,24.0,22.0,29.0,25.0,24.0,24.0,22.0,22.0,32.0,28.0,26.0,23.0,23.0,21.0,26.0,33.0,30.0,27.0,24.0,22.0,20.0,18.0,16.0,30.0,25.0,25.0,25.0,21.0,20.0,31.0,27.0,28.0,24.0,21.0,21.0,20.0,26.0,25.0,23.0,19.0,19.0,17.0,17.0,34.0,29.0,25.0,22.0,21.0,18.0,32.0,37.0,36.0,33.0,27.0,26.0,40.0,36.0,32.0,28.0,27.0,23.0,25.0,29.0,27.0,28.0,23.0,21.0,20.0,34.0,30.0,25.0,27.0,23.0,22.0,26.0,26.0,23.0,20.0,18.0,25.0,28.0,25.0,24.0,30.0,29.0,26.0,23.0,20.0,19.0,26.0,24.0,23.0,24.0,21.0,18.0,26.0,22.0,21.0,18.0,16.0,15.0,13.0,12.0,11.0,11.0,20.0,23.0,36.0,37.0,49.0,48.0,42.0,37.0,48.0,50.0,56.0,53.0,59.0,57.0,55.0,54.0,50.0,47.0,42.0,37.0,39.0,39.0,40.0,44.0,41.0,44.0,47.0,63.0,82.0,96.0,117.0,128.0,137.0,152.0,163.0,158.0,148.0,141.0,146.0,160.0,141.0,122.0,106.0,94.0,81.0,75.0,68.0,68.0,75.0,79.0,87.0,100.0,96.0,121.0,126.0,113.0,106.0,100.0,94.0,99.0,120.0,147.0,131.0,133.0,133.0,119.0,105.0,98.0,87.0,82.0,70.0,61.0,55.0,49.0,44.0,39.0,36.0,47.0,53.0,64.0,79.0,70.0,60.0,53.0,48.0,42.0,39.0,33.0,31.0,26.0,27.0,23.0,22.0,24.0,21.0,22.0,23.0,23.0,22.0,23.0,50.0,85.0,106.0,125.0,148.0,172.0,168.0,157.0,152.0,143.0,135.0,128.0,116.0,107.0,95.0,84.0,81.0,70.0,68.0,63.0,59.0,57.0,55.0,51.0,48.0,44.0,43.0,38.0,34.0,38.0,36.0,46.0,42.0,63.0,115.0,154.0,193.0,210.0,223.0,256.0,257.0,271.0,275.0,271.0,278.0,281.0,282.0,282.0,276.0,275.0,275.0,275.0,275.0,272.0,270.0,266.0,271.0,270.0,269.0,271.0,270.0,273.0,272.0,271.0,267.0,269.0,268.0,266.0,263.0,241.0,227.0,227.0,247.0,299.0,299.0,318.0,324.0,291.0,290.0,295.0,314.0,290.0,295.0,276.0,268.0,278.0,282.0,282.0,268.0,310.0,313.0,321.0,301.0,334.0,306.0,291.0,275.0,268.0,257.0,249.0,230.0,213.0,207.0,195.0,196.0,189.0,182.0,191.0,201.0,201.0,207.0,217.0,238.0,239.0,243.0,251.0,256.0,255.0,248.0,268.0,278.0,271.0,269.0,277.0,279.0,266.0,276.0,279.0,274.0,268.0,268.0,267.0,262.0,253.0,248.0,250.0,243.0,232.0,235.0,235.0,230.0,219.0,214.0,206.0,201.0,196.0,197.0,198.0,199.0,186.0,176.0,168.0,175.0,173.0,163.0,156.0,149.0,147.0,144.0,140.0,134.0,127.0,128.0,138.0,134.0,135.0,127.0,116.0,115.0,108.0,105.0,102.0,115.0,110.0,104.0,95.0,92.0,99.0,102.0,95.0,94.0,85.0,82.0,76.0,86.0,78.0,75.0,74.0,69.0,63.0,59.0,56.0,62.0,66.0,63.0,56.0,53.0,50.0,46.0,50.0,49.0,49.0,42.0,39.0,43.0,41.0,56.0,51.0,48.0,43.0,42.0,37.0,32.0,29.0,24.0,23.0,23.0,24.0,35.0,30.0,28.0,24.0,22.0,19.0,17.0,15.0,14.0,35.0,38.0,34.0,31.0,27.0,25.0,21.0,18.0,17.0,15.0,14.0,16.0,20.0,30.0,30.0,26.0,26.0,22.0,20.0,17.0,16.0,16.0,29.0,30.0,33.0,29.0,25.0,25.0,34.0,35.0,29.0,30.0,26.0,23.0,20.0,19.0,36.0,36.0,35.0,31.0,27.0,26.0,23.0,21.0,20.0,19.0,25.0,21.0,21.0,20.0,27.0,26.0,23.0,20.0,17.0,29.0,27.0,24.0,25.0,27.0,23.0,22.0,20.0,20.0,16.0,16.0,17.0,26.0,26.0,24.0,23.0,22.0,23.0,21.0,18.0,16.0,15.0,17.0,24.0,20.0,19.0,18.0,20.0,25.0,24.0,22.0,20.0,30.0,29.0,29.0,30.0,28.0,47.0,42.0,39.0,35.0,33.0,32.0,35.0,34.0,40.0,38.0,36.0,34.0,40.0,37.0,40.0,37.0,48.0,41.0,42.0,40.0,37.0,36.0,33.0,40.0,38.0,36.0,34.0,40.0,43.0,41.0,36.0,45.0,40.0,36.0,32.0,34.0,33.0,30.0,44.0,47.0,41.0,37.0,33.0,35.0,32.0,33.0,55.0,50.0,45.0,41.0,44.0,44.0,41.0,37.0,54.0,52.0,46.0,46.0,44.0,41.0,42.0,43.0,52.0,45.0,43.0,40.0,38.0,38.0,37.0,40.0,49.0,54.0,52.0,46.0,43.0,43.0,40.0,49.0,44.0,40.0,36.0,34.0,35.0,34.0,49.0,43.0,39.0,41.0,38.0,36.0,33.0,38.0,48.0,45.0,42.0,40.0,36.0,35.0,52.0,51.0,50.0,46.0,42.0,38.0,38.0,38.0,39.0,36.0,44.0,39.0,35.0,35.0,41.0,37.0,36.0,43.0,41.0,41.0,36.0,34.0,33.0,37.0,40.0,34.0,33.0,31.0,36.0,33.0,43.0,41.0,36.0,35.0,32.0,32.0,33.0,43.0,41.0,37.0,32.0,38.0,38.0,41.0,40.0,37.0,32.0,30.0,31.0,31.0,31.0,31.0,44.0,43.0,40.0,38.0,36.0,45.0,56.0,51.0,48.0,45.0,47.0,55.0,49.0,46.0,47.0,43.0,40.0,38.0,36.0,51.0,46.0,45.0,41.0,38.0,35.0,33.0,30.0,28.0,33.0,29.0,25.0,28.0,29.0,30.0,39.0,34.0,32.0,28.0,26.0,29.0,30.0,27.0,39.0,35.0,31.0,30.0,31.0,35.0,48.0,41.0,41.0,37.0,37.0,32.0,34.0,31.0,38.0,37.0,35.0,33.0,31.0,30.0,36.0,48.0,44.0,41.0,35.0,32.0,31.0,30.0,39.0,40.0,42.0,38.0,33.0,28.0,27.0,35.0,34.0,31.0,28.0,23.0,22.0,21.0,31.0,28.0,25.0,24.0,22.0,19.0,34.0,33.0,28.0,25.0,27.0,24.0,22.0,21.0,37.0,33.0,30.0,29.0,25.0,24.0,30.0,30.0,27.0,23.0,23.0,21.0,20.0,20.0,23.0,33.0,33.0,29.0,32.0,30.0,28.0,40.0,37.0,33.0,29.0,29.0,28.0,25.0,22.0,19.0,45.0,41.0,36.0,32.0,28.0,25.0,22.0,37.0,32.0,28.0,25.0,23.0,24.0,32.0,31.0,27.0,25.0,21.0,21.0,18.0,16.0,25.0,27.0,23.0,22.0,21.0,20.0,17.0,15.0,13.0,15.0,25.0,21.0,20.0,20.0,19.0,19.0,18.0,27.0,30.0,27.0,25.0,22.0,21.0,20.0,23.0,34.0,31.0,27.0,24.0,22.0,19.0,18.0,16.0,15.0,13.0,11.0,10.0,9.0,10.0,8.0,10.0,23.0,25.0,36.0,32.0,31.0,27.0,26.0,31.0,36.0,54.0,49.0,47.0,42.0,36.0,32.0,29.0,25.0,42.0,37.0,34.0,30.0,28.0,25.0,43.0,43.0,41.0
78.0,81.0,91.0,91.0,95.0,97.0,90.0,84.0,91.0,88.0,92.0,87.0,80.0,88.0,86.0,85.0,92.0,97.0,91.0,88.0,90.0,92.0,90.0,88.0,91.0,96.0,90.0,100.0,96.0,89.0,84.0,90.0,87.0,96.0,100.0,92.0,90.0,90.0,84.0,79.0,76.0,79.0,78.0,85.0,81.0,94.0,96.0,89.0,85.0,80.0,81.0,79.0,77.0,76.0,81.0,82.0,76.0,77.0,86.0,83.0,90.0,92.0,98.0,96.0,92.0,96.0,98.0,96.0,94.0,102.0,100.0,100.0,106.0,103.0,100.0,109.0,101.0,94.0,92.0,99.0,107.0,110.0,114.0,109.0,110.0,106.0,100.0,98.0,103.0,95.0,109.0,102.0,108.0,110.0,103.0,93.0,86.0,94.0,95.0,94.0,95.0,92.0,91.0,86.0,101.0,99.0,109.0,111.0,104.0,95.0,94.0,89.0,101.0,103.0,100.0,97.0,98.0,92.0,97.0,90.0,104.0,99.0,100.0,90.0,87.0,81.0,79.0,82.0,85.0,84.0,78.0,75.0,72.0,75.0,81.0,92.0,84.0,78.0,92.0,96.0,93.0,87.0,86.0,81.0,86.0,87.0,87.0,88.0,88.0,84.0,84.0,84.0,82.0,82.0,84.0,83.0,80.0,83.0,86.0,81.0,81.0,80.0,77.0,82.0,81.0,85.0,83.0,80.0,80.0,79.0,87.0,85.0,85.0,82.0,77.0,81.0,81.0,78.0,76.0,73.0,82.0,90.0,86.0,84.0,82.0,77.0,77.0,84.0,87.0,90.0,86.0,87.0,82.0,86.0,82.0,85.0,83.0,86.0,92.0,92.0,87.0,89.0,88.0,85.0,100.0,93.0,87.0,91.0,90.0,83.0,75.0,69.0,74.0,73.0,68.0,78.0,88.0,103.0,96.0,107.0,108.0,122.0,119.0,134.0,130.0,155.0,155.0,161.0,176.0,177.0,172.0,165.0,196.0,223.0,229.0,235.0,240.0,242.0,254.0,269.0,299.0,306.0,312.0,304.0,314.0,313.0,330.0,327.0,309.0,301.0,302.0,310.0,320.0,305.0,349.0,347.0,394.0,419.0,429.0,442.0,448.0,468.0,480.0,455.0,439.0,450.0,483.0,512.0,538.0,595.0,667.0,645.0,647.0,624.0,604.0,591.0,624.0,666.0,608.0,612.0,595.0,594.0,570.0,558.0,582.0,556.0,525.0,527.0,524.0,521.0,541.0,515.0,580.0,572.0,520.0,502.0,528.0,552.0,536.0,504.0,489.0,487.0,487.0,451.0,458.0,449.0,436.0,419.0,402.0,387.0,357.0,335.0,311.0,290.0,271.0,282.0,290.0,298.0,301.0,303.0,310.0,302.0,288.0,274.0,259.0,245.0,232.0,219.0,208.0,192.0,178.0,175.0,163.0,162.0,150.0,141.0,138.0,140.0,133.0,123.0,113.0,111.0,113.0,131.0,164.0,197.0,239.0,230.0,265.0,290.0,279.0,303.0,287.0,317.0,382.0,360.0,418.0,390.0,378.0,379.0,370.0,363.0,359.0,367.0,385.0,360.0,363.0,355.0,374.0,364.0,352.0,376.0,364.0,354.0,355.0,344.0,345.0,334.0,319.0,301.0,310.0,307.0,293.0,275.0,249.0,234.0,227.0,227.0,249.0,224.0,250.0,240.0,216.0,207.0,223.0,224.0,210.0,197.0,218.0,218.0,230.0,225.0,215.0,254.0,257.0,260.0,255.0,257.0,254.0,235.0,221.0,200.0,259.0,279.0,260.0,255.0,247.0,236.0,247.0,229.0,236.0,247.0,249.0,330.0,358.0,344.0,329.0,323.0,305.0,314.0,287.0,286.0,285.0,294.0,288.0,277.0,262.0,262.0,263.0,255.0,245.0,240.0,232.0,240.0,236.0,222.0,225.0,223.0,210.0,212.0,199.0,194.0,191.0,219.0,198.0,190.0,189.0,188.0,172.0,166.0,183.0,178.0,171.0,168.0,164.0,161.0,174.0,163.0,155.0,153.0,156.0,160.0,164.0,159.0,151.0,171.0,164.0,155.0,152.0,166.0,181.0,172.0,172.0,168.0,167.0,180.0,181.0,169.0,171.0,162.0,162.0,158.0,153.0,144.0,139.0,131.0,129.0,136.0,148.0,137.0,137.0,131.0,123.0,120.0,111.0,110.0,97.0,95.0,89.0,110.0,108.0,104.0,98.0,106.0,116.0,112.0,119.0,121.0,121.0,113.0,109.0,105.0,103.0,103.0,101.0,102.0,98.0,95.0,113.0,115.0,105.0,103.0,96.0,101.0,112.0,118.0,129.0,131.0,124.0,117.0,122.0,115.0,117.0,116.0,111.0,111.0,100.0,100.0,95.0,90.0,85.0,84.0,80.0,87.0,85.0,94.0,92.0,97.0,96.0,98.0,99.0,91.0,93.0,96.0,104.0,106.0,104.0,97.0,94.0,98.0,100.0,100.0,111.0,113.0,109.0,104.0,106.0,106.0,109.0,106.0,99.0,101.0,101.0,96.0,95.0,93.0,87.0,91.0,90.0,114.0,112.0,102.0,100.0,90.0,109.0,109.0,109.0,102.0,102.0,104.0,113.0,110.0,107.0,96.0,94.0,93.0,91.0,97.0,94.0,92.0,102.0,94.0,85.0,85.0,93.0,94.0,89.0,94.0,95.0,94.0,97.0,92.0,88.0,90.0,83.0,83.0,88.0,85.0,90.0,89.0,83.0,92.0,93.0,93.0,99.0,101.0,99.0,101.0,101.0,93.0,90.0,113.0,106.0,102.0,104.0,101.0,101.0,98.0,99.0,94.0,108.0,101.0,97.0,112.0,115.0,110.0,105.0,98.0,100.0,98.0,106.0,110.0,104.0,98.0,93.0,97.0,99.0,96.0,94.0,93.0,88.0,101.0,93.0,92.0,92.0,90.0,99.0,98.0,100.0,105.0,103.0,99.0,98.0,98.0,97.0,103.0,97.0,94.0,90.0,87.0,87.0,86.0,85.0,87.0,91.0,92.0,87.0,93.0,88.0,82.0,85.0,83.0,88.0,87.0,90.0,87.0,88.0,96.0,92.0,95.0,92.0,88.0,83.0,85.0,80.0,91.0,102.0,100.0,117.0,109.0,110.0,110.0,101.0,96.0,103.0,99.0,108.0,104.0,116.0,113.0,109.0,101.0,92.0,101.0,96.0,99.0,97.0,96.0,89.0,82.0,83.0,79.0,75.0,76.0,81.0,93.0,94.0,93.0,98.0,107.0,113.0,118.0,121.0,117.0,114.0,110.0,103.0,106.0,108.0,110.0,108.0,103.0,108.0,107.0,104.0,106.0,105.0,103.0,97.0,101.0,99.0,91.0,98.0,100.0,102.0,96.0,92.0,113.0,107.0,100.0,104.0,97.0,96.0,95.0,111.0,113.0,103.0,97.0,91.0,92.0,96.0,88.0,103.0,103.0,114.0,117.0,110.0,110.0,105.0,102.0,119.0,115.0,110.0,113.0,103.0,106.0,100.0,94.0,90.0,100.0,95.0,94.0,97.0,97.0,95.0,93.0,99.0,111.0,122.0,116.0,109.0,105.0,107.0,111.0,133.0,127.0,118.0,112.0,104.0,107.0,112.0,115.0,119.0,116.0,117.0,115.0,112.0,108.0,100.0,100.0,109.0,105.0,100.0,104.0,98.0,106.0,102.0,103.0,101.0,106.0,98.0,108.0,100.0,99.0,96.0,97.0,96.0,104.0,101.0,105.0,94.0,98.0,107.0,110.0,104.0,102.0,97.0,101.0,102.0,114.0,113.0,104.0,106.0,101.0,102.0,96.0,94.0,92.0,87.0,85.0,81.0,88.0,86.0,92.0,92.0,84.0,95.0,92.0,102.0,107.0,99.0,95.0,99.0,107.0,114.0,109.0,101.0,93.0,91.0,86.0,91.0,87.0,82.0,97.0,96.0,97.0,91.0,94.0,96.0,104.0,114.0,110.0,109.0,109.0,104.0,100.0,112.0,121.0,111.0,114.0,118.0,112.0,106.0,97.0,131.0,122.0,113.0,116.0,110.0,113.0,114.0,111.0,110.0,102.0,95.0,93.0,111.0,117.0,109.0,108.0,108.0,102.0,101.0,95.0,93.0,98.0,94.0,89.0,95.0,92.0,90.0,88.0,85.0,94.0,90.0,89.0,96.0,88.0,92.0,91.0,90.0,86.0,90.0,90.0,84.0,82.0,80.0,84.0,80.0,83.0,82.0,83.0,79.0,81.0,81.0,102.0,96.0,94.0,91.0,92.0,94.0,91.0,92.0,94.0,98.0,110.0,107.0,100.0,97.0,97.0,98.0,103.0,97.0,107.0,102.0,104.0,103.0,92.0,93.0,88.0
