217.0,220.0,226.0,224.0,224.0,216.0,220.0,228.0,224.0,224.0,217.0,221.0,228.0,223.0,227.0,217.0,223.0,229.0,226.0,227.0,219.0,226.0,231.0,228.0,229.0,220.0,229.0,231.0,229.0,230.0,221.0,226.0,233.0,228.0,228.0,219.0,228.0,232.0,224.0,225.0,220.0,227.0,233.0,224.0,229.0,223.0,231.0,237.0,230.0,231.0,228.0,235.0,239.0,232.0,235.0,232.0,238.0,241.0,232.0,233.0,232.0,235.0,239.0,232.0,233.0,228.0,237.0,241.0,229.0,232.0,233.0,235.0,236.0,228.0,232.0,237.0,236.0,237.0,230.0,232.0,236.0,237.0,238.0,228.0,228.0,233.0,231.0,233.0,224.0,232.0,238.0,235.0,235.0,226.0,234.0,238.0,236.0,235.0,228.0,234.0,238.0,234.0,235.0,227.0,232.0,239.0,234.0,235.0,227.0,234.0,240.0,233.0,237.0,228.0,236.0,242.0,237.0,237.0,229.0,236.0,241.0,235.0,238.0,236.0,241.0,244.0,235.0,235.0,235.0,237.0,243.0,234.0,235.0,231.0,238.0,241.0,233.0,233.0,236.0,236.0,237.0,228.0,233.0,238.0,238.0,238.0,232.0,234.0,239.0,238.0,239.0,231.0,233.0,240.0,237.0,239.0,230.0,233.0,240.0,238.0,237.0,230.0,234.0,236.0,237.0,237.0,228.0,233.0,238.0,237.0,237.0,229.0,236.0,242.0,235.0,236.0,228.0,236.0,240.0,235.0,236.0,228.0,236.0,241.0,237.0,238.0,230.0,238.0,243.0,234.0,235.0,237.0,237.0,240.0,232.0,234.0,239.0,241.0,244.0,236.0,240.0,237.0,243.0,248.0,238.0,244.0,240.0,245.0,243.0,235.0,239.0,237.0,237.0,239.0,229.0,233.0,233.0,236.0,241.0,232.0,238.0,243.0,246.0,248.0,237.0,239.0,245.0,242.0,245.0,235.0,243.0,247.0,242.0,245.0,237.0,242.0,247.0,245.0,248.0,237.0,247.0,255.0,242.0,245.0,239.0,252.0,258.0,252.0,255.0,251.0,257.0,257.0,250.0,251.0,247.0,254.0,255.0,246.0,245.0,244.0,254.0,256.0,245.0,246.0,249.0,252.0,258.0,250.0,248.0,241.0,251.0,258.0,251.0,253.0,250.0,254.0,255.0,252.0,255.0,265.0,264.0,263.0,256.0,255.0,256.0,256.0,263.0,256.0,259.0,263.0,262.0,261.0,250.0,256.0,261.0,256.0,256.0,250.0,256.0,260.0,258.0,255.0,250.0,251.0,257.0,253.0,254.0,251.0,257.0,262.0,258.0,261.0,260.0,265.0,270.0,261.0,261.0,249.0,255.0,264.0,260.0,260.0,249.0,255.0,259.0,252.0,252.0,253.0,260.0,259.0,251.0,252.0,256.0,256.0,258.0,248.0,249.0,246.0,252.0,257.0,248.0,251.0,253.0,254.0,258.0,249.0,255.0,256.0,257.0,259.0,249.0,251.0,260.0,259.0,263.0,254.0,256.0,264.0,260.0,262.0,254.0,257.0,263.0,262.0,262.0,253.0,256.0,259.0,259.0,259.0,249.0,254.0,259.0,259.0,257.0,247.0,255.0,262.0,256.0,254.0,245.0,251.0,256.0,250.0,253.0,242.0,248.0,253.0,249.0,248.0,241.0,253.0,257.0,248.0,251.0,250.0,254.0,258.0,249.0,251.0,253.0,255.0,260.0,251.0,252.0,249.0,256.0,261.0,252.0,256.0,251.0,256.0,260.0,248.0,251.0,248.0,253.0,256.0,251.0,252.0,251.0,255.0,259.0,249.0,250.0,255.0,256.0,259.0,250.0,253.0,263.0,259.0,260.0,249.0,254.0,260.0,259.0,258.0,250.0,255.0,261.0,259.0,256.0,246.0,254.0,264.0,254.0,252.0,243.0,253.0,260.0,250.0,252.0,243.0,251.0,259.0,252.0,253.0,250.0,259.0,262.0,255.0,254.0,250.0,258.0,260.0,255.0,254.0,252.0,256.0,260.0,251.0,250.0,243.0,253.0,261.0,255.0,257.0,257.0,262.0,263.0,252.0,255.0,255.0,257.0,257.0,248.0,250.0,252.0,254.0,255.0,243.0,245.0,252.0,253.0,252.0,242.0,250.0,255.0,250.0,250.0,240.0,248.0,252.0,253.0,252.0,242.0,248.0,256.0,253.0,253.0,245.0,250.0,261.0,254.0,253.0,245.0,248.0,257.0,250.0,253.0,244.0,252.0,261.0,255.0,257.0,246.0,253.0,260.0,251.0,252.0,250.0,255.0,260.0,252.0,256.0,250.0,256.0,260.0,250.0,252.0,244.0,251.0,257.0,247.0,249.0,251.0,255.0,254.0,245.0,250.0,251.0,251.0,253.0,246.0,248.0,251.0,251.0,255.0,246.0,248.0,255.0,253.0,258.0,246.0,250.0,256.0,254.0,256.0,245.0,244.0,246.0,250.0,253.0,242.0,246.0,250.0,250.0,250.0,240.0,245.0,251.0,246.0,247.0,240.0,246.0,253.0,246.0,250.0,239.0,249.0,252.0,248.0,249.0,240.0,248.0,254.0,246.0,249.0,247.0,250.0,254.0,245.0,246.0,247.0,250.0,255.0,244.0,248.0,243.0,252.0,256.0,246.0,249.0,245.0,252.0,255.0,245.0,249.0,246.0,252.0,255.0,246.0,248.0,247.0,250.0,254.0,243.0,244.0,245.0,248.0,249.0,239.0,244.0,252.0,249.0,251.0,243.0,246.0,251.0,250.0,251.0,241.0,245.0,249.0,247.0,246.0,234.0,241.0,248.0,239.0,240.0,230.0,237.0,243.0,237.0,242.0,235.0,243.0,249.0,243.0,243.0,234.0,246.0,250.0,244.0,244.0,237.0,243.0,247.0,241.0,242.0,238.0,243.0,248.0,239.0,238.0,232.0,243.0,247.0,239.0,239.0,242.0,246.0,247.0,239.0,240.0,237.0,242.0,242.0,237.0,237.0,242.0,244.0,247.0,236.0,234.0,240.0,243.0,243.0,235.0,238.0,248.0,246.0,245.0,237.0,243.0,245.0,243.0,241.0,233.0,235.0,241.0,239.0,238.0,232.0,235.0,240.0,238.0,237.0,230.0,231.0,237.0,234.0,235.0,229.0,232.0,239.0,237.0,237.0,229.0,236.0,241.0,238.0,240.0,235.0,241.0,244.0,236.0,236.0,234.0,239.0,240.0,233.0,232.0,227.0,235.0,239.0,232.0,234.0,233.0,237.0,238.0,233.0,236.0,237.0,239.0,238.0,233.0,234.0,237.0,238.0,241.0,233.0,234.0,239.0,239.0,240.0,232.0,234.0,240.0,240.0,241.0,233.0,235.0,235.0,241.0,241.0,232.0,235.0,238.0,239.0,238.0,230.0,234.0,239.0,237.0,235.0,229.0,235.0,244.0,238.0,241.0,231.0,236.0,242.0,238.0,237.0,229.0,236.0,241.0,234.0,233.0,231.0,238.0,240.0,232.0,233.0,231.0,236.0,240.0,232.0,235.0,229.0,235.0,239.0,230.0,233.0,228.0,236.0,240.0,231.0,234.0,232.0,236.0,238.0,232.0,232.0,231.0,237.0,239.0,232.0,234.0,234.0,241.0,244.0,234.0,236.0,242.0,240.0,240.0,233.0,235.0,238.0,241.0,242.0,233.0,236.0,240.0,240.0,240.0,231.0,236.0,243.0,237.0,237.0,230.0,236.0,242.0,236.0,237.0,229.0,236.0,241.0,238.0,237.0,230.0,238.0,242.0,237.0,236.0,229.0,237.0,239.0,235.0,235.0,230.0,235.0,239.0,231.0,232.0,225.0,232.0,239.0,234.0,233.0,231.0,237.0,240.0,231.0,234.0,232.0,235.0,237.0,231.0,232.0,233.0,237.0,241.0,232.0,233.0,234.0,239.0,239.0,230.0,234.0,239.0,237.0,237.0,229.0,234.0,237.0,237.0,237.0,228.0,233.0,239.0,238.0,235.0,228.0,230.0,237.0,236.0,236.0,230.0,234.0,240.0,238.0,239.0,231.0,234.0,241.0,240.0,243.0,233.0,238.0,244.0,239.0,238.0,234.0,240.0,242.0,238.0,235.0,230.0,235.0,240.0,235.0,235.0,230.0,238.0,243.0,237.0,237.0,239.0,243.0,244.0,236.0,238.0,239.0,243.0,242.0,238.0,237.0,239.0,243.0,245.0,237.0,238.0,240.0,243.0,244.0,237.0,237.0,242.0,242.0,244.0,234.0,237.0,238.0,243.0,242.0,236.0,237.0,239.0,243.0,241.0,235.0,235.0,241.0,239.0,238.0,233.0,237.0,244.0,240.0,240.0,234.0,239.0,245.0
262.0,268.0,273.0,271.0,269.0,260.0,266.0,272.0,269.0,266.0,261.0,268.0,274.0,270.0,269.0,262.0,269.0,275.0,272.0,269.0,261.0,272.0,276.0,274.0,272.0,264.0,275.0,278.0,275.0,274.0,266.0,273.0,279.0,277.0,275.0,270.0,280.0,281.0,272.0,274.0,269.0,281.0,282.0,273.0,277.0,273.0,284.0,285.0,279.0,280.0,276.0,286.0,285.0,279.0,279.0,280.0,287.0,286.0,278.0,279.0,280.0,285.0,286.0,277.0,279.0,273.0,287.0,283.0,273.0,276.0,279.0,282.0,281.0,270.0,277.0,281.0,284.0,280.0,275.0,278.0,284.0,283.0,282.0,274.0,278.0,284.0,282.0,280.0,273.0,284.0,288.0,284.0,282.0,274.0,285.0,287.0,286.0,282.0,275.0,282.0,288.0,284.0,283.0,275.0,283.0,288.0,283.0,281.0,273.0,284.0,287.0,282.0,283.0,275.0,286.0,290.0,287.0,285.0,277.0,289.0,289.0,284.0,284.0,284.0,290.0,289.0,281.0,282.0,282.0,288.0,287.0,281.0,282.0,281.0,290.0,287.0,280.0,282.0,285.0,287.0,281.0,273.0,280.0,285.0,287.0,284.0,278.0,281.0,288.0,287.0,284.0,277.0,282.0,288.0,289.0,284.0,277.0,282.0,288.0,288.0,283.0,275.0,284.0,285.0,287.0,282.0,274.0,281.0,285.0,286.0,282.0,272.0,284.0,287.0,282.0,281.0,275.0,284.0,287.0,282.0,283.0,275.0,288.0,289.0,288.0,285.0,278.0,290.0,290.0,283.0,284.0,284.0,290.0,289.0,282.0,284.0,289.0,293.0,291.0,284.0,288.0,286.0,295.0,292.0,283.0,289.0,287.0,294.0,288.0,276.0,282.0,284.0,283.0,280.0,272.0,277.0,277.0,282.0,281.0,275.0,278.0,284.0,289.0,289.0,277.0,288.0,292.0,293.0,292.0,283.0,294.0,298.0,294.0,291.0,284.0,291.0,295.0,296.0,292.0,282.0,295.0,299.0,289.0,291.0,284.0,298.0,301.0,295.0,297.0,293.0,302.0,299.0,296.0,296.0,291.0,302.0,303.0,294.0,292.0,289.0,302.0,301.0,292.0,293.0,295.0,299.0,301.0,292.0,293.0,286.0,300.0,301.0,296.0,298.0,298.0,301.0,298.0,293.0,299.0,305.0,308.0,303.0,299.0,298.0,301.0,304.0,307.0,297.0,300.0,305.0,305.0,299.0,290.0,302.0,305.0,302.0,297.0,292.0,303.0,306.0,303.0,298.0,291.0,299.0,305.0,301.0,298.0,294.0,303.0,307.0,303.0,302.0,298.0,306.0,310.0,304.0,301.0,291.0,300.0,307.0,303.0,299.0,290.0,302.0,303.0,295.0,295.0,296.0,304.0,301.0,294.0,296.0,299.0,301.0,301.0,294.0,295.0,289.0,300.0,300.0,294.0,297.0,301.0,305.0,301.0,293.0,300.0,303.0,306.0,302.0,296.0,298.0,305.0,305.0,304.0,296.0,300.0,307.0,308.0,303.0,298.0,303.0,308.0,308.0,306.0,297.0,305.0,305.0,308.0,304.0,295.0,301.0,307.0,306.0,302.0,294.0,304.0,308.0,304.0,301.0,293.0,302.0,304.0,298.0,298.0,288.0,298.0,300.0,298.0,295.0,288.0,301.0,302.0,296.0,298.0,300.0,304.0,303.0,296.0,298.0,299.0,305.0,303.0,296.0,298.0,296.0,305.0,304.0,298.0,302.0,298.0,306.0,302.0,296.0,300.0,299.0,306.0,301.0,298.0,300.0,300.0,306.0,304.0,296.0,298.0,304.0,308.0,305.0,295.0,301.0,307.0,307.0,303.0,295.0,303.0,306.0,307.0,302.0,293.0,301.0,308.0,307.0,302.0,293.0,304.0,309.0,303.0,300.0,291.0,304.0,309.0,302.0,302.0,294.0,305.0,307.0,304.0,301.0,298.0,310.0,310.0,303.0,302.0,298.0,310.0,308.0,303.0,301.0,299.0,305.0,308.0,302.0,300.0,293.0,306.0,309.0,304.0,304.0,305.0,312.0,307.0,299.0,304.0,305.0,310.0,305.0,301.0,302.0,305.0,310.0,305.0,298.0,299.0,305.0,308.0,302.0,294.0,304.0,306.0,306.0,301.0,293.0,304.0,306.0,307.0,302.0,293.0,302.0,308.0,307.0,303.0,297.0,303.0,313.0,308.0,304.0,297.0,301.0,306.0,305.0,302.0,295.0,307.0,311.0,310.0,306.0,298.0,308.0,311.0,307.0,305.0,304.0,312.0,311.0,305.0,305.0,303.0,310.0,310.0,303.0,303.0,296.0,306.0,305.0,300.0,299.0,302.0,306.0,301.0,294.0,301.0,304.0,306.0,301.0,299.0,300.0,306.0,308.0,304.0,299.0,302.0,308.0,311.0,306.0,299.0,302.0,308.0,309.0,305.0,298.0,300.0,302.0,306.0,301.0,294.0,298.0,302.0,306.0,300.0,293.0,300.0,304.0,300.0,297.0,290.0,299.0,303.0,300.0,299.0,290.0,302.0,304.0,302.0,300.0,292.0,303.0,305.0,299.0,298.0,298.0,305.0,303.0,297.0,297.0,297.0,303.0,302.0,296.0,297.0,294.0,305.0,305.0,297.0,300.0,296.0,304.0,301.0,295.0,298.0,297.0,306.0,302.0,297.0,299.0,299.0,304.0,302.0,293.0,294.0,295.0,300.0,295.0,288.0,294.0,299.0,300.0,298.0,294.0,300.0,304.0,305.0,300.0,291.0,295.0,300.0,299.0,295.0,286.0,298.0,300.0,293.0,293.0,283.0,292.0,295.0,289.0,290.0,283.0,295.0,298.0,295.0,290.0,282.0,296.0,297.0,294.0,292.0,286.0,297.0,298.0,293.0,292.0,289.0,294.0,295.0,291.0,288.0,281.0,294.0,294.0,288.0,288.0,289.0,296.0,291.0,283.0,285.0,285.0,291.0,287.0,284.0,287.0,289.0,294.0,293.0,285.0,285.0,292.0,294.0,290.0,283.0,289.0,295.0,295.0,290.0,284.0,291.0,292.0,292.0,288.0,278.0,284.0,290.0,288.0,285.0,280.0,285.0,290.0,288.0,285.0,278.0,285.0,291.0,286.0,286.0,277.0,284.0,289.0,288.0,283.0,275.0,285.0,289.0,284.0,284.0,280.0,289.0,289.0,282.0,282.0,281.0,287.0,289.0,281.0,283.0,275.0,288.0,289.0,282.0,283.0,283.0,288.0,286.0,277.0,283.0,286.0,290.0,285.0,281.0,283.0,286.0,289.0,289.0,282.0,285.0,290.0,291.0,287.0,280.0,283.0,289.0,290.0,286.0,278.0,282.0,283.0,288.0,285.0,277.0,282.0,285.0,288.0,284.0,276.0,283.0,288.0,285.0,283.0,276.0,287.0,289.0,285.0,285.0,275.0,285.0,290.0,287.0,284.0,275.0,286.0,288.0,282.0,282.0,281.0,288.0,288.0,281.0,284.0,283.0,289.0,289.0,280.0,282.0,277.0,288.0,287.0,280.0,282.0,278.0,287.0,287.0,279.0,283.0,280.0,289.0,285.0,283.0,282.0,281.0,289.0,289.0,282.0,284.0,284.0,292.0,288.0,280.0,285.0,293.0,291.0,288.0,278.0,284.0,286.0,290.0,286.0,277.0,282.0,287.0,288.0,286.0,276.0,284.0,290.0,284.0,283.0,275.0,286.0,288.0,282.0,284.0,276.0,286.0,288.0,285.0,283.0,275.0,286.0,288.0,285.0,282.0,275.0,286.0,287.0,283.0,283.0,277.0,284.0,288.0,282.0,282.0,274.0,285.0,289.0,280.0,281.0,279.0,287.0,285.0,277.0,282.0,282.0,288.0,286.0,280.0,281.0,283.0,287.0,287.0,279.0,281.0,283.0,288.0,285.0,276.0,283.0,288.0,287.0,284.0,275.0,284.0,287.0,287.0,283.0,274.0,280.0,286.0,285.0,283.0,275.0,280.0,287.0,285.0,283.0,276.0,284.0,290.0,286.0,285.0,276.0,285.0,288.0,289.0,285.0,276.0,285.0,291.0,285.0,284.0,280.0,290.0,290.0,286.0,284.0,281.0,288.0,291.0,285.0,285.0,276.0,287.0,289.0,282.0,284.0,284.0,291.0,288.0,280.0,284.0,286.0,292.0,287.0,283.0,284.0,286.0,291.0,288.0,282.0,284.0,287.0,291.0,288.0,280.0,285.0,288.0,290.0,286.0,280.0,283.0,285.0,290.0,287.0,280.0,285.0,286.0,292.0,286.0,278.0,283.0,290.0,288.0,285.0,277.0,286.0,290.0,286.0,284.0,277.0,286.0,289.0
4.0,3.0,4.0,4.0,4.0,4.0,4.0,3.0,2.0,4.0,3.0,3.0,4.0,4.0,4.0,3.0,4.0,3.0,4.0,4.0,4.0,3.0,4.0,3.0,3.0,4.0,4.0,4.0,3.0,3.0,4.0,3.0,4.0,2.0,3.0,3.0,4.0,3.0,5.0,4.0,4.0,3.0,4.0,4.0,4.0,3.0,4.0,3.0,3.0,3.0,4.0,3.0,3.0,4.0,4.0,4.0,4.0,4.0,4.0,4.0,3.0,4.0,4.0,4.0,3.0,3.0,3.0,3.0,4.0,4.0,4.0,3.0,3.0,4.0,3.0,5.0,3.0,4.0,3.0,4.0,4.0,5.0,3.0,4.0,3.0,3.0,3.0,5.0,3.0,3.0,3.0,4.0,3.0,5.0,4.0,4.0,3.0,3.0,4.0,4.0,4.0,4.0,3.0,3.0,3.0,4.0,3.0,4.0,4.0,3.0,4.0,4.0,4.0,4.0,4.0,3.0,4.0,3.0,4.0,2.0,4.0,3.0,4.0,3.0,5.0,3.0,3.0,4.0,4.0,4.0,5.0,4.0,3.0,3.0,3.0,4.0,5.0,2.0,4.0,3.0,4.0,3.0,5.0,4.0,4.0,3.0,3.0,3.0,4.0,3.0,4.0,3.0,3.0,4.0,4.0,4.0,3.0,3.0,4.0,4.0,4.0,4.0,3.0,4.0,3.0,4.0,4.0,4.0,4.0,4.0,3.0,4.0,4.0,4.0,3.0,3.0,3.0,4.0,3.0,5.0,2.0,3.0,3.0,4.0,3.0,4.0,3.0,4.0,3.0,4.0,3.0,5.0,3.0,3.0,3.0,4.0,3.0,4.0,4.0,4.0,4.0,4.0,4.0,4.0,4.0,4.0,3.0,3.0,3.0,4.0,4.0,4.0,4.0,3.0,4.0,3.0,4.0,2.0,4.0,3.0,4.0,3.0,5.0,2.0,4.0,3.0,4.0,3.0,5.0,4.0,3.0,3.0,4.0,3.0,5.0,4.0,4.0,3.0,3.0,3.0,5.0,4.0,3.0,3.0,3.0,4.0,4.0,4.0,3.0,3.0,3.0,4.0,3.0,4.0,4.0,4.0,3.0,4.0,4.0,4.0,4.0,3.0,3.0,4.0,4.0,5.0,2.0,4.0,3.0,3.0,4.0,5.0,2.0,5.0,3.0,3.0,3.0,5.0,4.0,4.0,3.0,3.0,3.0,5.0,3.0,3.0,3.0,3.0,4.0,4.0,3.0,4.0,3.0,3.0,4.0,4.0,4.0,3.0,3.0,3.0,4.0,4.0,4.0,3.0,4.0,3.0,3.0,3.0,3.0,3.0,4.0,3.0,4.0,4.0,4.0,2.0,4.0,3.0,4.0,4.0,5.0,4.0,4.0,3.0,4.0,4.0,5.0,3.0,4.0,4.0,4.0,3.0,5.0,3.0,4.0,4.0,3.0,4.0,4.0,4.0,3.0,3.0,3.0,4.0,4.0,4.0,4.0,4.0,3.0,3.0,4.0,4.0,3.0,4.0,3.0,4.0,4.0,4.0,3.0,4.0,3.0,4.0,4.0,5.0,4.0,4.0,3.0,3.0,4.0,4.0,2.0,4.0,4.0,4.0,4.0,5.0,4.0,4.0,3.0,3.0,4.0,5.0,4.0,4.0,4.0,3.0,4.0,5.0,4.0,4.0,4.0,3.0,3.0,4.0,4.0,3.0,3.0,3.0,4.0,2.0,4.0,4.0,4.0,3.0,4.0,4.0,4.0,4.0,4.0,3.0,4.0,4.0,5.0,4.0,4.0,4.0,3.0,3.0,4.0,4.0,3.0,3.0,3.0,4.0,5.0,4.0,4.0,3.0,3.0,4.0,4.0,4.0,3.0,4.0,4.0,4.0,4.0,4.0,3.0,4.0,3.0,4.0,4.0,4.0,3.0,3.0,3.0,3.0,4.0,4.0,3.0,4.0,3.0,4.0,3.0,3.0,4.0,4.0,3.0,3.0,3.0,4.0,4.0,3.0,3.0,4.0,4.0,5.0,4.0,4.0,3.0,3.0,4.0,4.0,3.0,3.0,3.0,3.0,4.0,4.0,4.0,4.0,3.0,3.0,4.0,3.0,4.0,3.0,4.0,3.0,4.0,3.0,4.0,3.0,4.0,3.0,3.0,3.0,4.0,3.0,3.0,3.0,4.0,4.0,5.0,2.0,4.0,3.0,3.0,4.0,5.0,3.0,3.0,4.0,3.0,4.0,5.0,4.0,4.0,3.0,3.0,3.0,4.0,3.0,3.0,3.0,3.0,3.0,4.0,2.0,3.0,4.0,3.0,4.0,3.0,4.0,4.0,4.0,3.0,4.0,3.0,4.0,3.0,4.0,3.0,4.0,4.0,4.0,2.0,4.0,3.0,3.0,4.0,4.0,4.0,4.0,3.0,4.0,4.0,4.0,2.0,4.0,3.0,3.0,3.0,4.0,3.0,4.0,3.0,3.0,4.0,4.0,3.0,3.0,3.0,3.0,4.0,4.0,4.0,4.0,4.0,3.0,4.0,4.0,3.0,3.0,4.0,3.0,4.0,3.0,4.0,4.0,4.0,3.0,4.0,4.0,4.0,4.0,4.0,3.0,4.0,4.0,5.0,3.0,4.0,3.0,3.0,3.0,5.0,4.0,4.0,3.0,3.0,3.0,4.0,3.0,4.0,3.0,3.0,4.0,4.0,4.0,3.0,3.0,3.0,3.0,4.0,4.0,2.0,4.0,3.0,4.0,4.0,4.0,4.0,4.0,3.0,4.0,4.0,5.0,4.0,4.0,3.0,4.0,4.0,4.0,2.0,4.0,3.0,4.0,4.0,5.0,4.0,4.0,4.0,4.0,3.0,5.0,3.0,3.0,3.0,3.0,4.0,5.0,3.0,3.0,4.0,3.0,3.0,4.0,4.0,4.0,4.0,3.0,4.0,3.0,4.0,2.0,3.0,4.0,3.0,3.0,4.0,4.0,4.0,3.0,4.0,4.0,4.0,3.0,4.0,3.0,3.0,3.0,4.0,4.0,4.0,3.0,4.0,3.0,4.0,3.0,4.0,3.0,4.0,4.0,4.0,4.0,3.0,3.0,3.0,3.0,5.0,4.0,3.0,3.0,3.0,3.0,4.0,4.0,4.0,3.0,3.0,4.0,4.0,4.0,4.0,3.0,3.0,4.0,3.0,4.0,3.0,4.0,3.0,3.0,4.0,4.0,2.0,3.0,3.0,4.0,3.0,5.0,2.0,4.0,3.0,4.0,3.0,4.0,3.0,3.0,3.0,4.0,3.0,5.0,4.0,4.0,4.0,4.0,3.0,4.0,4.0,3.0,3.0,3.0,4.0,4.0,4.0,4.0,4.0,3.0,3.0,3.0,4.0,3.0,4.0,3.0,4.0,3.0,4.0,4.0,4.0,2.0,3.0,3.0,4.0,3.0,4.0,3.0,4.0,4.0,5.0,4.0,4.0,3.0,3.0,4.0,4.0,4.0,5.0,3.0,4.0,4.0,5.0,4.0,3.0,3.0,3.0,3.0,2.0,4.0,4.0,3.0,3.0,3.0,3.0,4.0,4.0,4.0,3.0,4.0,3.0,4.0,4.0,4.0,3.0,4.0,3.0,4.0,4.0,4.0,3.0,4.0,3.0,4.0,2.0,4.0,3.0,3.0,3.0,3.0,3.0,5.0,3.0,4.0,3.0,3.0,2.0,4.0,3.0,3.0,3.0,5.0,4.0,4.0,4.0,3.0,4.0,4.0,4.0,3.0,3.0,3.0,3.0,4.0,4.0,3.0,4.0,3.0,3.0,4.0,4.0,4.0,3.0,3.0,4.0,4.0,4.0,4.0,4.0,3.0,4.0,3.0,5.0,2.0,4.0,3.0,4.0,3.0,4.0,2.0,3.0,3.0,3.0,4.0,4.0,2.0,4.0,4.0,3.0,4.0,4.0,4.0,4.0,3.0,3.0,4.0,4.0,4.0,3.0,4.0,3.0,3.0,4.0,4.0,2.0,4.0,3.0,4.0,3.0,5.0,2.0,4.0,2.0,4.0,3.0,5.0,3.0,4.0,3.0,4.0,4.0,4.0,4.0,3.0,3.0,3.0,4.0,4.0,2.0,3.0,3.0,4.0,4.0,4.0,4.0,3.0,3.0,4.0,4.0,4.0,4.0,3.0,3.0,3.0,3.0,4.0,4.0,4.0,3.0,4.0,3.0,4.0,4.0,4.0,4.0,3.0,4.0,4.0,3.0,4.0,4.0,3.0,4.0,3.0,5.0,2.0,3.0,4.0,4.0,3.0,4.0,4.0,3.0,3.0,4.0,3.0,5.0,4.0,3.0,3.0,4.0,4.0,4.0,3.0,4.0,4.0,3.0,4.0
243.0,246.0,252.0,249.0,249.0,240.0,246.0,251.0,249.0,247.0,241.0,246.0,253.0,249.0,250.0,242.0,250.0,256.0,254.0,251.0,243.0,253.0,256.0,254.0,252.0,245.0,254.0,258.0,256.0,255.0,247.0,254.0,259.0,256.0,255.0,250.0,260.0,261.0,252.0,254.0,251.0,262.0,262.0,254.0,256.0,255.0,263.0,266.0,260.0,260.0,258.0,266.0,268.0,262.0,261.0,263.0,267.0,269.0,261.0,262.0,263.0,265.0,267.0,261.0,260.0,258.0,267.0,266.0,257.0,259.0,262.0,264.0,262.0,254.0,259.0,264.0,265.0,263.0,259.0,260.0,267.0,266.0,265.0,257.0,261.0,267.0,265.0,262.0,255.0,264.0,269.0,263.0,262.0,255.0,265.0,268.0,266.0,262.0,258.0,264.0,271.0,265.0,264.0,257.0,265.0,271.0,265.0,263.0,257.0,265.0,270.0,264.0,265.0,258.0,266.0,270.0,266.0,263.0,257.0,268.0,269.0,264.0,263.0,264.0,267.0,269.0,261.0,260.0,262.0,265.0,267.0,258.0,259.0,260.0,266.0,266.0,259.0,262.0,267.0,268.0,263.0,256.0,260.0,267.0,265.0,264.0,258.0,260.0,267.0,264.0,263.0,257.0,260.0,267.0,266.0,263.0,256.0,261.0,266.0,264.0,262.0,254.0,261.0,266.0,266.0,262.0,256.0,261.0,268.0,267.0,263.0,256.0,265.0,269.0,265.0,264.0,258.0,266.0,270.0,263.0,263.0,257.0,268.0,270.0,267.0,265.0,261.0,270.0,272.0,263.0,264.0,266.0,269.0,270.0,263.0,262.0,268.0,268.0,268.0,261.0,266.0,265.0,272.0,270.0,261.0,264.0,265.0,271.0,267.0,259.0,264.0,263.0,261.0,260.0,254.0,257.0,259.0,263.0,265.0,259.0,259.0,265.0,269.0,269.0,260.0,268.0,273.0,271.0,270.0,261.0,271.0,273.0,271.0,270.0,262.0,268.0,273.0,271.0,269.0,260.0,271.0,274.0,264.0,264.0,260.0,272.0,277.0,267.0,266.0,262.0,271.0,270.0,268.0,268.0,267.0,277.0,276.0,271.0,269.0,270.0,275.0,277.0,270.0,268.0,271.0,273.0,276.0,269.0,268.0,263.0,275.0,278.0,271.0,271.0,273.0,275.0,273.0,265.0,269.0,273.0,272.0,268.0,264.0,266.0,271.0,273.0,277.0,268.0,271.0,278.0,277.0,271.0,263.0,272.0,274.0,270.0,265.0,261.0,271.0,274.0,272.0,270.0,264.0,270.0,278.0,273.0,272.0,264.0,271.0,278.0,271.0,270.0,266.0,273.0,278.0,272.0,271.0,263.0,270.0,275.0,271.0,270.0,261.0,273.0,276.0,268.0,267.0,270.0,276.0,278.0,268.0,270.0,272.0,274.0,275.0,266.0,266.0,264.0,273.0,275.0,266.0,270.0,273.0,273.0,271.0,262.0,268.0,273.0,272.0,270.0,264.0,267.0,276.0,275.0,275.0,266.0,271.0,277.0,277.0,275.0,266.0,272.0,278.0,276.0,277.0,265.0,274.0,276.0,277.0,275.0,265.0,269.0,277.0,275.0,274.0,264.0,273.0,279.0,274.0,270.0,262.0,272.0,278.0,270.0,273.0,263.0,272.0,276.0,269.0,267.0,261.0,272.0,276.0,267.0,267.0,267.0,271.0,273.0,263.0,265.0,269.0,271.0,274.0,264.0,264.0,263.0,271.0,272.0,262.0,266.0,264.0,270.0,270.0,261.0,265.0,264.0,268.0,268.0,262.0,263.0,265.0,269.0,272.0,262.0,264.0,269.0,269.0,270.0,259.0,266.0,273.0,271.0,271.0,262.0,269.0,273.0,272.0,270.0,261.0,268.0,274.0,272.0,268.0,259.0,270.0,275.0,267.0,266.0,259.0,269.0,274.0,265.0,267.0,260.0,269.0,273.0,267.0,267.0,266.0,274.0,277.0,270.0,270.0,266.0,275.0,276.0,270.0,270.0,268.0,273.0,278.0,269.0,268.0,261.0,272.0,277.0,270.0,270.0,271.0,274.0,274.0,264.0,270.0,271.0,275.0,271.0,264.0,267.0,271.0,272.0,274.0,265.0,268.0,274.0,274.0,272.0,262.0,271.0,275.0,271.0,269.0,260.0,270.0,273.0,270.0,269.0,260.0,267.0,274.0,271.0,269.0,262.0,268.0,277.0,270.0,269.0,262.0,269.0,275.0,272.0,272.0,262.0,273.0,279.0,275.0,275.0,268.0,277.0,280.0,272.0,271.0,271.0,276.0,279.0,271.0,272.0,272.0,276.0,277.0,267.0,268.0,264.0,272.0,275.0,266.0,266.0,270.0,270.0,269.0,261.0,265.0,269.0,270.0,267.0,263.0,265.0,273.0,271.0,271.0,262.0,266.0,273.0,274.0,270.0,263.0,266.0,272.0,271.0,269.0,260.0,264.0,268.0,270.0,268.0,260.0,264.0,270.0,269.0,267.0,258.0,268.0,274.0,268.0,268.0,260.0,269.0,276.0,268.0,268.0,260.0,271.0,275.0,271.0,269.0,261.0,270.0,273.0,268.0,268.0,270.0,273.0,274.0,267.0,268.0,270.0,274.0,275.0,266.0,267.0,266.0,273.0,275.0,265.0,269.0,266.0,272.0,271.0,264.0,266.0,267.0,272.0,271.0,265.0,266.0,268.0,271.0,271.0,261.0,261.0,266.0,268.0,267.0,257.0,264.0,268.0,268.0,272.0,268.0,271.0,275.0,273.0,272.0,262.0,266.0,269.0,264.0,264.0,255.0,267.0,268.0,256.0,257.0,246.0,252.0,259.0,250.0,255.0,249.0,262.0,269.0,261.0,260.0,252.0,262.0,266.0,260.0,259.0,254.0,262.0,266.0,259.0,260.0,260.0,264.0,268.0,259.0,260.0,253.0,264.0,266.0,256.0,260.0,262.0,267.0,268.0,256.0,256.0,256.0,260.0,260.0,253.0,257.0,262.0,266.0,267.0,256.0,257.0,263.0,261.0,260.0,251.0,258.0,264.0,261.0,257.0,250.0,259.0,262.0,259.0,258.0,248.0,253.0,261.0,259.0,258.0,252.0,255.0,264.0,260.0,257.0,248.0,255.0,261.0,256.0,257.0,248.0,255.0,261.0,258.0,257.0,247.0,257.0,264.0,257.0,258.0,256.0,265.0,268.0,259.0,259.0,260.0,263.0,267.0,259.0,261.0,255.0,266.0,267.0,258.0,260.0,262.0,265.0,265.0,255.0,259.0,261.0,263.0,261.0,257.0,258.0,264.0,263.0,264.0,255.0,259.0,264.0,264.0,263.0,254.0,257.0,263.0,263.0,262.0,255.0,258.0,261.0,263.0,262.0,253.0,258.0,262.0,264.0,262.0,253.0,259.0,266.0,261.0,260.0,252.0,262.0,267.0,260.0,261.0,254.0,263.0,268.0,264.0,262.0,255.0,264.0,268.0,262.0,261.0,260.0,265.0,267.0,259.0,260.0,261.0,265.0,266.0,259.0,259.0,257.0,266.0,267.0,258.0,260.0,259.0,267.0,268.0,259.0,262.0,263.0,269.0,267.0,263.0,261.0,262.0,267.0,267.0,261.0,262.0,263.0,268.0,265.0,257.0,261.0,269.0,266.0,264.0,257.0,263.0,266.0,268.0,264.0,256.0,260.0,266.0,265.0,263.0,254.0,264.0,269.0,263.0,261.0,254.0,264.0,269.0,262.0,262.0,257.0,265.0,268.0,265.0,262.0,255.0,265.0,268.0,263.0,262.0,257.0,267.0,270.0,265.0,264.0,260.0,266.0,270.0,264.0,263.0,257.0,266.0,270.0,264.0,264.0,263.0,270.0,267.0,261.0,263.0,264.0,269.0,267.0,263.0,262.0,266.0,271.0,271.0,264.0,264.0,267.0,269.0,266.0,258.0,265.0,270.0,269.0,266.0,259.0,265.0,269.0,269.0,266.0,257.0,263.0,268.0,268.0,264.0,260.0,263.0,270.0,269.0,265.0,262.0,266.0,272.0,269.0,268.0,260.0,266.0,271.0,271.0,267.0,262.0,269.0,274.0,269.0,266.0,263.0,272.0,273.0,270.0,266.0,265.0,269.0,273.0,267.0,265.0,259.0,269.0,272.0,265.0,264.0,267.0,270.0,267.0,259.0,262.0,267.0,271.0,266.0,264.0,264.0,269.0,272.0,270.0,264.0,263.0,269.0,270.0,269.0,261.0,263.0,268.0,269.0,267.0,260.0,264.0,265.0,269.0,266.0,259.0,262.0,266.0,269.0,266.0,258.0,262.0,269.0,265.0,264.0,256.0,264.0,269.0,265.0,264.0,257.0,264.0,269.0
