341.0,341.0,336.0,344.0,350.0,341.0,338.0,336.0,336.0,345.0,335.0,334.0,334.0,338.0,346.0,335.0,335.0,329.0,338.0,345.0,334.0,336.0,331.0,340.0,347.0,339.0,338.0,334.0,345.0,349.0,340.0,338.0,338.0,345.0,351.0,341.0,340.0,338.0,343.0,352.0,340.0,340.0,338.0,344.0,348.0,335.0,337.0,341.0,345.0,347.0,335.0,339.0,343.0,347.0,347.0,339.0,339.0,344.0,347.0,347.0,334.0,340.0,352.0,345.0,345.0,335.0,342.0,351.0,347.0,345.0,334.0,343.0,347.0,345.0,343.0,334.0,339.0,348.0,346.0,342.0,333.0,339.0,348.0,339.0,338.0,330.0,338.0,347.0,342.0,343.0,332.0,339.0,348.0,342.0,340.0,337.0,347.0,352.0,343.0,342.0,338.0,347.0,353.0,343.0,341.0,339.0,344.0,356.0,344.0,342.0,341.0,347.0,350.0,336.0,339.0,342.0,346.0,348.0,336.0,339.0,341.0,346.0,346.0,341.0,340.0,344.0,347.0,352.0,340.0,340.0,345.0,347.0,351.0,338.0,340.0,347.0,347.0,350.0,338.0,339.0,342.0,347.0,352.0,339.0,341.0,351.0,349.0,348.0,337.0,344.0,353.0,349.0,347.0,337.0,342.0,351.0,346.0,348.0,336.0,344.0,353.0,346.0,344.0,335.0,346.0,353.0,343.0,342.0,338.0,347.0,356.0,347.0,346.0,342.0,348.0,355.0,345.0,344.0,336.0,346.0,353.0,341.0,340.0,336.0,345.0,352.0,341.0,343.0,336.0,348.0,354.0,345.0,344.0,338.0,348.0,353.0,341.0,339.0,345.0,347.0,351.0,340.0,341.0,347.0,347.0,352.0,339.0,340.0,345.0,352.0,354.0,343.0,344.0,352.0,351.0,347.0,336.0,342.0,349.0,345.0,347.0,340.0,345.0,364.0,358.0,361.0,348.0,354.0,363.0,357.0,361.0,347.0,354.0,361.0,350.0,349.0,336.0,347.0,353.0,354.0,354.0,343.0,349.0,357.0,357.0,357.0,344.0,358.0,370.0,356.0,350.0,349.0,363.0,374.0,360.0,357.0,348.0,361.0,368.0,362.0,363.0,355.0,365.0,373.0,362.0,366.0,372.0,370.0,379.0,364.0,367.0,374.0,372.0,378.0,361.0,366.0,369.0,376.0,383.0,371.0,372.0,372.0,381.0,380.0,365.0,371.0,371.0,374.0,373.0,365.0,367.0,372.0,376.0,380.0,364.0,367.0,371.0,374.0,381.0,368.0,375.0,383.0,378.0,377.0,362.0,366.0,373.0,373.0,372.0,359.0,364.0,370.0,370.0,370.0,356.0,369.0,381.0,376.0,375.0,367.0,378.0,386.0,377.0,383.0,369.0,382.0,394.0,382.0,382.0,376.0,384.0,390.0,382.0,372.0,366.0,376.0,384.0,376.0,375.0,369.0,376.0,385.0,376.0,373.0,364.0,374.0,386.0,375.0,372.0,371.0,379.0,381.0,370.0,377.0,378.0,377.0,377.0,371.0,368.0,371.0,379.0,389.0,376.0,374.0,379.0,383.0,380.0,368.0,373.0,386.0,382.0,384.0,372.0,379.0,384.0,385.0,381.0,370.0,377.0,383.0,383.0,379.0,371.0,372.0,381.0,379.0,376.0,371.0,375.0,386.0,384.0,383.0,371.0,376.0,386.0,384.0,383.0,369.0,376.0,386.0,380.0,376.0,369.0,382.0,390.0,380.0,377.0,371.0,375.0,388.0,378.0,374.0,367.0,376.0,383.0,372.0,369.0,366.0,372.0,374.0,363.0,366.0,368.0,374.0,376.0,368.0,365.0,368.0,374.0,379.0,367.0,365.0,366.0,369.0,373.0,360.0,359.0,366.0,367.0,369.0,359.0,357.0,360.0,367.0,368.0,356.0,357.0,359.0,364.0,364.0,355.0,354.0,364.0,362.0,353.0,345.0,350.0,358.0,354.0,355.0,345.0,350.0,360.0,354.0,352.0,342.0,348.0,357.0,352.0,350.0,343.0,352.0,357.0,353.0,350.0,344.0,348.0,358.0,350.0,347.0,341.0,349.0,357.0,349.0,350.0,341.0,348.0,356.0,346.0,347.0,340.0,349.0,355.0,349.0,346.0,340.0,349.0,354.0,349.0,345.0,342.0,350.0,355.0,344.0,344.0,350.0,351.0,354.0,342.0,342.0,342.0,349.0,353.0,343.0,347.0,347.0,352.0,353.0,343.0,343.0,352.0,347.0,344.0,337.0,341.0,350.0,348.0,350.0,341.0,343.0,355.0,351.0,350.0,339.0,344.0,350.0,352.0,353.0,341.0,347.0,352.0,355.0,350.0,339.0,338.0,346.0,346.0,344.0,336.0,339.0,347.0,344.0,342.0,333.0,342.0,352.0,343.0,343.0,334.0,343.0,354.0,347.0,345.0,338.0,348.0,352.0,347.0,341.0,333.0,344.0,351.0,339.0,339.0,344.0,345.0,350.0,337.0,337.0,338.0,344.0,349.0,337.0,341.0,341.0,347.0,351.0,343.0,340.0,341.0,347.0,350.0,340.0,340.0,342.0,347.0,352.0,340.0,339.0,347.0,348.0,354.0,342.0,342.0,347.0,350.0,348.0,335.0,339.0,343.0,345.0,343.0,333.0,338.0,347.0,347.0,345.0,337.0,338.0,344.0,344.0,343.0,332.0,340.0,351.0,340.0,342.0,333.0,343.0,351.0,347.0,343.0,334.0,344.0,349.0,345.0,344.0,337.0,342.0,351.0,343.0,343.0,337.0,344.0,353.0,345.0,343.0,334.0,343.0,353.0,342.0,345.0,335.0,344.0,352.0,342.0,340.0,339.0,345.0,347.0,338.0,338.0,340.0,345.0,351.0,339.0,340.0,343.0,346.0,354.0,340.0,339.0,345.0,347.0,349.0,334.0,341.0,345.0,347.0,346.0,335.0,337.0,345.0,347.0,345.0,335.0,339.0,348.0,346.0,348.0,336.0,341.0,351.0,348.0,350.0,337.0,341.0,351.0,349.0,348.0,338.0,345.0,350.0,352.0,350.0,339.0,345.0,354.0,350.0,348.0,341.0,347.0,354.0,347.0,345.0,336.0,345.0,354.0,344.0,346.0,336.0,346.0,354.0,345.0,343.0,342.0,346.0,349.0,342.0,341.0,343.0,349.0,355.0,343.0,344.0,346.0,349.0,354.0,342.0,341.0,340.0,349.0,355.0,342.0,343.0,341.0,349.0,353.0,342.0,344.0,343.0,351.0,351.0,342.0,341.0,342.0,348.0,350.0,338.0,340.0,351.0,349.0,350.0,336.0,340.0,350.0,348.0,349.0,336.0,342.0,347.0,349.0,347.0,335.0,340.0,350.0,346.0,344.0,338.0,344.0,353.0,347.0,347.0,337.0,346.0,355.0,345.0,346.0,336.0,344.0,353.0,347.0,348.0,337.0,347.0,354.0,347.0,345.0,337.0,346.0,352.0,345.0,345.0,337.0,344.0,353.0,346.0,344.0,338.0,348.0,355.0,340.0,343.0,339.0,346.0,351.0,339.0,341.0,339.0,346.0,351.0,341.0,338.0,337.0,344.0,348.0,335.0,338.0,347.0,346.0,347.0,335.0,338.0,351.0,348.0,350.0,334.0,340.0,345.0,347.0,347.0,335.0,336.0,343.0,343.0,343.0,330.0,337.0,345.0,344.0,343.0,334.0,335.0,344.0,342.0,346.0,333.0,337.0,348.0,345.0,344.0,333.0,345.0,355.0,348.0,346.0,336.0,346.0,351.0,345.0,343.0,334.0,340.0,347.0,338.0,337.0,332.0,341.0,349.0,334.0,335.0,334.0,342.0,347.0,333.0,337.0,334.0,342.0,347.0,338.0,337.0,337.0,340.0,348.0,336.0,336.0,336.0,343.0,350.0,336.0,336.0,338.0,341.0,350.0,335.0,336.0,334.0,342.0,348.0,336.0,337.0,343.0,344.0,344.0,331.0,337.0,345.0,344.0,344.0,334.0,336.0,347.0,345.0,348.0,334.0,337.0,346.0,344.0,341.0,326.0,340.0,348.0,342.0,341.0,331.0,342.0,348.0,344.0,343.0,334.0,341.0,350.0,343.0,342.0,332.0,342.0,355.0,346.0,343.0,334.0,343.0,352.0,342.0,344.0,332.0,343.0,351.0,344.0,343.0,333.0,343.0,351.0,339.0,338.0,339.0,346.0,352.0,337.0,337.0,340.0,343.0,352.0,337.0,335.0,331.0,339.0,346.0,333.0,335.0,340.0,342.0,343.0,329.0,335.0,342.0,342.0,341.0,331.0,334.0,343.0,343.0,345.0,332.0,336.0,345.0,344.0,346.0,334.0,339.0,348.0,347.0
421.0,420.0,417.0,429.0,430.0,421.0,419.0,417.0,425.0,428.0,419.0,417.0,418.0,425.0,428.0,418.0,417.0,411.0,425.0,428.0,416.0,418.0,412.0,427.0,428.0,423.0,420.0,418.0,432.0,429.0,425.0,423.0,420.0,432.0,433.0,426.0,423.0,424.0,432.0,434.0,425.0,424.0,425.0,433.0,428.0,416.0,422.0,425.0,433.0,427.0,417.0,422.0,428.0,434.0,428.0,422.0,424.0,430.0,435.0,427.0,416.0,428.0,436.0,430.0,427.0,414.0,429.0,433.0,432.0,426.0,414.0,429.0,431.0,431.0,425.0,414.0,423.0,432.0,429.0,424.0,415.0,426.0,432.0,430.0,425.0,414.0,427.0,434.0,428.0,427.0,415.0,428.0,435.0,428.0,424.0,419.0,433.0,431.0,426.0,425.0,421.0,434.0,436.0,426.0,425.0,423.0,432.0,437.0,425.0,424.0,424.0,434.0,430.0,418.0,423.0,426.0,434.0,428.0,418.0,422.0,427.0,434.0,427.0,422.0,424.0,429.0,434.0,432.0,422.0,423.0,430.0,433.0,430.0,420.0,424.0,431.0,434.0,430.0,419.0,423.0,423.0,433.0,428.0,417.0,423.0,432.0,432.0,427.0,416.0,428.0,434.0,432.0,427.0,418.0,427.0,437.0,432.0,428.0,416.0,428.0,436.0,431.0,428.0,422.0,437.0,437.0,431.0,429.0,423.0,436.0,437.0,428.0,428.0,425.0,435.0,437.0,427.0,426.0,418.0,432.0,436.0,424.0,423.0,416.0,432.0,433.0,423.0,425.0,418.0,432.0,434.0,427.0,426.0,420.0,432.0,431.0,422.0,421.0,428.0,432.0,431.0,419.0,422.0,430.0,433.0,431.0,418.0,422.0,424.0,434.0,430.0,419.0,425.0,434.0,434.0,429.0,417.0,429.0,436.0,433.0,431.0,424.0,433.0,449.0,442.0,441.0,426.0,439.0,447.0,445.0,445.0,429.0,438.0,444.0,437.0,434.0,421.0,436.0,441.0,439.0,435.0,423.0,434.0,442.0,437.0,432.0,422.0,441.0,454.0,437.0,433.0,425.0,444.0,450.0,437.0,437.0,429.0,443.0,446.0,440.0,442.0,435.0,449.0,453.0,439.0,441.0,445.0,446.0,449.0,434.0,439.0,448.0,451.0,451.0,436.0,443.0,446.0,457.0,453.0,443.0,446.0,451.0,462.0,456.0,443.0,451.0,453.0,459.0,451.0,444.0,445.0,450.0,456.0,454.0,441.0,443.0,450.0,455.0,451.0,437.0,449.0,459.0,457.0,450.0,438.0,448.0,454.0,455.0,448.0,435.0,445.0,453.0,452.0,447.0,435.0,452.0,462.0,453.0,453.0,444.0,460.0,465.0,455.0,460.0,448.0,463.0,469.0,460.0,456.0,450.0,462.0,464.0,456.0,452.0,446.0,462.0,463.0,454.0,450.0,447.0,458.0,463.0,454.0,450.0,441.0,457.0,462.0,454.0,452.0,453.0,465.0,459.0,448.0,454.0,456.0,461.0,456.0,451.0,450.0,454.0,463.0,463.0,451.0,450.0,457.0,463.0,455.0,440.0,453.0,461.0,462.0,455.0,443.0,455.0,460.0,463.0,456.0,443.0,455.0,461.0,462.0,454.0,446.0,451.0,460.0,459.0,451.0,444.0,453.0,462.0,461.0,456.0,444.0,454.0,462.0,463.0,455.0,442.0,455.0,463.0,457.0,451.0,444.0,461.0,463.0,456.0,450.0,446.0,455.0,462.0,454.0,448.0,439.0,455.0,459.0,449.0,446.0,444.0,455.0,449.0,440.0,444.0,446.0,454.0,447.0,442.0,441.0,445.0,454.0,453.0,444.0,444.0,448.0,454.0,451.0,439.0,440.0,446.0,451.0,445.0,438.0,439.0,439.0,450.0,443.0,434.0,437.0,438.0,447.0,440.0,431.0,434.0,443.0,443.0,433.0,423.0,432.0,442.0,440.0,437.0,425.0,436.0,443.0,443.0,436.0,424.0,436.0,444.0,437.0,432.0,425.0,441.0,440.0,434.0,431.0,425.0,432.0,439.0,429.0,427.0,419.0,434.0,437.0,427.0,427.0,418.0,432.0,436.0,425.0,427.0,416.0,432.0,434.0,427.0,423.0,416.0,431.0,433.0,425.0,422.0,418.0,431.0,432.0,418.0,421.0,427.0,430.0,428.0,416.0,420.0,420.0,429.0,427.0,413.0,420.0,421.0,430.0,427.0,415.0,422.0,430.0,429.0,424.0,414.0,421.0,431.0,427.0,428.0,414.0,425.0,434.0,432.0,427.0,415.0,424.0,431.0,433.0,428.0,413.0,428.0,431.0,432.0,427.0,412.0,420.0,429.0,427.0,423.0,414.0,421.0,430.0,427.0,424.0,411.0,426.0,432.0,420.0,422.0,414.0,427.0,433.0,424.0,422.0,414.0,430.0,433.0,425.0,422.0,415.0,429.0,432.0,417.0,420.0,426.0,428.0,430.0,415.0,419.0,418.0,429.0,429.0,416.0,421.0,422.0,430.0,429.0,419.0,420.0,420.0,429.0,427.0,417.0,420.0,423.0,429.0,433.0,417.0,420.0,426.0,430.0,431.0,416.0,420.0,427.0,430.0,425.0,410.0,422.0,427.0,428.0,425.0,410.0,420.0,429.0,430.0,424.0,414.0,421.0,429.0,428.0,426.0,413.0,429.0,434.0,422.0,424.0,415.0,430.0,434.0,428.0,426.0,416.0,433.0,434.0,428.0,426.0,419.0,429.0,435.0,428.0,425.0,420.0,431.0,438.0,428.0,427.0,417.0,433.0,438.0,428.0,428.0,418.0,433.0,437.0,426.0,425.0,425.0,434.0,430.0,424.0,424.0,427.0,436.0,437.0,424.0,425.0,429.0,435.0,435.0,423.0,424.0,430.0,434.0,428.0,415.0,427.0,430.0,432.0,427.0,415.0,424.0,433.0,435.0,429.0,420.0,427.0,438.0,436.0,434.0,421.0,428.0,437.0,436.0,432.0,420.0,428.0,435.0,436.0,429.0,419.0,429.0,433.0,438.0,431.0,418.0,431.0,437.0,432.0,429.0,423.0,432.0,439.0,432.0,429.0,419.0,434.0,438.0,430.0,429.0,420.0,435.0,439.0,430.0,427.0,427.0,437.0,431.0,427.0,426.0,429.0,439.0,439.0,429.0,428.0,432.0,439.0,437.0,428.0,429.0,426.0,439.0,437.0,427.0,429.0,429.0,439.0,436.0,425.0,429.0,428.0,442.0,436.0,430.0,429.0,431.0,440.0,434.0,423.0,429.0,438.0,439.0,434.0,423.0,431.0,439.0,441.0,433.0,422.0,432.0,437.0,441.0,433.0,422.0,434.0,440.0,438.0,432.0,427.0,436.0,442.0,436.0,432.0,420.0,435.0,439.0,433.0,431.0,421.0,435.0,439.0,437.0,430.0,421.0,437.0,440.0,436.0,429.0,421.0,437.0,438.0,436.0,429.0,422.0,431.0,437.0,432.0,428.0,423.0,438.0,436.0,426.0,428.0,429.0,439.0,435.0,426.0,428.0,427.0,441.0,437.0,432.0,430.0,431.0,441.0,434.0,425.0,430.0,439.0,439.0,434.0,425.0,431.0,439.0,442.0,433.0,421.0,431.0,435.0,440.0,433.0,420.0,428.0,435.0,439.0,431.0,420.0,429.0,437.0,439.0,432.0,425.0,429.0,436.0,438.0,433.0,423.0,430.0,439.0,439.0,433.0,422.0,438.0,442.0,438.0,433.0,426.0,441.0,441.0,437.0,432.0,426.0,435.0,441.0,434.0,432.0,426.0,439.0,438.0,427.0,429.0,427.0,440.0,437.0,426.0,430.0,430.0,442.0,438.0,433.0,431.0,431.0,440.0,441.0,430.0,429.0,431.0,440.0,440.0,428.0,429.0,432.0,437.0,437.0,425.0,426.0,425.0,438.0,435.0,425.0,426.0,434.0,438.0,431.0,418.0,427.0,435.0,438.0,431.0,423.0,428.0,438.0,438.0,434.0,422.0,430.0,438.0,437.0,431.0,420.0,436.0,442.0,437.0,432.0,422.0,439.0,441.0,437.0,432.0,424.0,433.0,440.0,433.0,430.0,419.0,434.0,442.0,435.0,431.0,420.0,436.0,442.0,434.0,432.0,422.0,437.0,441.0,436.0,430.0,421.0,437.0,440.0,429.0,427.0,429.0,438.0,439.0,428.0,428.0,431.0,438.0,437.0,426.0,427.0,425.0,438.0,436.0,426.0,428.0,435.0,438.0,431.0,418.0,426.0,435.0,438.0,431.0,424.0,428.0,437.0,438.0,434.0,423.0,429.0,438.0,440.0,432.0,422.0,430.0,439.0,439.0
4.0,4.0,3.0,4.0,4.0,3.0,3.0,3.0,3.0,4.0,4.0,3.0,3.0,3.0,4.0,4.0,4.0,4.0,4.0,3.0,4.0,4.0,5.0,4.0,4.0,4.0,3.0,3.0,5.0,3.0,4.0,3.0,3.0,4.0,4.0,3.0,3.0,3.0,3.0,4.0,4.0,4.0,3.0,4.0,3.0,3.0,4.0,4.0,3.0,4.0,3.0,4.0,4.0,5.0,4.0,3.0,3.0,4.0,3.0,5.0,4.0,4.0,4.0,3.0,3.0,4.0,4.0,4.0,3.0,3.0,3.0,5.0,4.0,4.0,3.0,3.0,3.0,4.0,4.0,3.0,4.0,3.0,3.0,3.0,4.0,2.0,4.0,3.0,4.0,3.0,4.0,4.0,4.0,4.0,3.0,4.0,4.0,4.0,3.0,3.0,3.0,4.0,4.0,4.0,4.0,3.0,3.0,4.0,4.0,4.0,3.0,4.0,3.0,3.0,4.0,5.0,3.0,4.0,3.0,4.0,4.0,4.0,2.0,4.0,3.0,3.0,4.0,5.0,4.0,3.0,4.0,3.0,3.0,4.0,4.0,4.0,3.0,3.0,3.0,4.0,4.0,4.0,4.0,3.0,3.0,4.0,4.0,2.0,4.0,3.0,4.0,3.0,5.0,2.0,4.0,3.0,4.0,3.0,4.0,3.0,4.0,3.0,3.0,3.0,5.0,4.0,4.0,3.0,3.0,4.0,4.0,4.0,3.0,4.0,3.0,4.0,3.0,4.0,4.0,4.0,3.0,4.0,3.0,4.0,4.0,4.0,3.0,3.0,3.0,4.0,4.0,4.0,3.0,4.0,3.0,4.0,4.0,3.0,3.0,3.0,3.0,4.0,3.0,3.0,3.0,3.0,4.0,3.0,4.0,4.0,4.0,3.0,4.0,4.0,4.0,4.0,4.0,3.0,4.0,3.0,3.0,2.0,4.0,3.0,3.0,3.0,4.0,4.0,3.0,3.0,3.0,4.0,4.0,4.0,3.0,4.0,3.0,4.0,3.0,4.0,3.0,3.0,3.0,4.0,4.0,4.0,4.0,4.0,3.0,3.0,3.0,5.0,2.0,4.0,3.0,3.0,3.0,4.0,3.0,3.0,4.0,3.0,4.0,4.0,4.0,4.0,3.0,3.0,4.0,4.0,4.0,2.0,4.0,3.0,3.0,3.0,5.0,2.0,4.0,3.0,4.0,4.0,5.0,4.0,3.0,3.0,3.0,3.0,4.0,3.0,3.0,4.0,3.0,4.0,4.0,4.0,3.0,3.0,3.0,3.0,4.0,4.0,2.0,3.0,3.0,4.0,4.0,4.0,3.0,4.0,3.0,4.0,3.0,4.0,2.0,4.0,3.0,3.0,4.0,5.0,4.0,4.0,3.0,3.0,3.0,4.0,4.0,3.0,3.0,3.0,4.0,4.0,4.0,4.0,4.0,3.0,4.0,4.0,4.0,2.0,4.0,3.0,3.0,4.0,5.0,4.0,4.0,3.0,3.0,3.0,4.0,3.0,4.0,3.0,3.0,3.0,4.0,3.0,4.0,4.0,3.0,4.0,4.0,3.0,2.0,4.0,3.0,3.0,4.0,4.0,3.0,3.0,3.0,4.0,3.0,4.0,2.0,4.0,3.0,3.0,3.0,5.0,4.0,3.0,3.0,3.0,3.0,4.0,4.0,4.0,4.0,3.0,3.0,3.0,4.0,3.0,4.0,3.0,4.0,3.0,4.0,3.0,4.0,3.0,4.0,3.0,4.0,2.0,3.0,3.0,3.0,3.0,4.0,4.0,3.0,3.0,4.0,4.0,4.0,4.0,4.0,4.0,3.0,4.0,4.0,4.0,3.0,3.0,3.0,4.0,3.0,4.0,4.0,3.0,3.0,4.0,3.0,4.0,4.0,4.0,3.0,3.0,3.0,4.0,4.0,4.0,3.0,3.0,3.0,4.0,4.0,4.0,4.0,3.0,3.0,2.0,4.0,3.0,4.0,3.0,4.0,3.0,4.0,3.0,4.0,3.0,3.0,3.0,4.0,3.0,4.0,3.0,3.0,4.0,4.0,4.0,4.0,4.0,3.0,3.0,4.0,3.0,4.0,3.0,3.0,4.0,4.0,4.0,3.0,4.0,4.0,4.0,4.0,4.0,3.0,4.0,3.0,4.0,4.0,5.0,4.0,3.0,3.0,3.0,4.0,5.0,3.0,3.0,3.0,3.0,3.0,5.0,4.0,4.0,3.0,3.0,4.0,4.0,4.0,4.0,4.0,3.0,3.0,3.0,4.0,3.0,4.0,3.0,4.0,4.0,4.0,4.0,4.0,3.0,4.0,3.0,4.0,4.0,3.0,3.0,3.0,5.0,4.0,4.0,3.0,4.0,3.0,3.0,3.0,4.0,3.0,4.0,3.0,4.0,4.0,4.0,3.0,3.0,3.0,3.0,4.0,5.0,4.0,4.0,3.0,3.0,3.0,5.0,2.0,3.0,3.0,3.0,4.0,4.0,4.0,4.0,3.0,3.0,3.0,4.0,4.0,4.0,3.0,3.0,3.0,4.0,5.0,3.0,3.0,3.0,3.0,3.0,3.0,3.0,3.0,3.0,3.0,4.0,5.0,3.0,3.0,3.0,3.0,3.0,5.0,4.0,3.0,3.0,3.0,3.0,4.0,3.0,4.0,3.0,3.0,4.0,4.0,4.0,4.0,4.0,3.0,4.0,3.0,4.0,4.0,4.0,3.0,3.0,3.0,5.0,4.0,4.0,3.0,3.0,4.0,5.0,4.0,4.0,4.0,3.0,3.0,5.0,4.0,4.0,4.0,3.0,4.0,3.0,4.0,2.0,4.0,3.0,4.0,4.0,4.0,4.0,3.0,3.0,4.0,3.0,5.0,2.0,3.0,3.0,4.0,4.0,5.0,3.0,4.0,3.0,3.0,4.0,4.0,4.0,3.0,3.0,4.0,4.0,4.0,4.0,2.0,4.0,3.0,3.0,3.0,4.0,4.0,4.0,3.0,3.0,3.0,4.0,3.0,3.0,3.0,3.0,3.0,4.0,4.0,3.0,3.0,4.0,4.0,3.0,4.0,4.0,3.0,3.0,3.0,3.0,4.0,3.0,4.0,4.0,3.0,4.0,4.0,2.0,3.0,3.0,4.0,3.0,4.0,2.0,4.0,3.0,3.0,4.0,4.0,4.0,3.0,4.0,3.0,3.0,4.0,4.0,3.0,3.0,3.0,4.0,4.0,4.0,3.0,3.0,3.0,4.0,4.0,4.0,4.0,3.0,3.0,3.0,3.0,4.0,4.0,4.0,3.0,3.0,3.0,5.0,2.0,3.0,3.0,3.0,4.0,3.0,4.0,3.0,3.0,3.0,3.0,3.0,4.0,4.0,4.0,3.0,4.0,3.0,5.0,3.0,4.0,3.0,3.0,3.0,5.0,2.0,3.0,3.0,4.0,4.0,4.0,4.0,4.0,3.0,3.0,3.0,4.0,4.0,3.0,4.0,3.0,4.0,4.0,4.0,4.0,4.0,3.0,4.0,4.0,4.0,3.0,3.0,3.0,4.0,4.0,5.0,4.0,4.0,3.0,3.0,3.0,5.0,4.0,4.0,4.0,3.0,3.0,4.0,4.0,3.0,3.0,3.0,4.0,3.0,3.0,3.0,4.0,3.0,3.0,3.0,4.0,4.0,5.0,3.0,4.0,3.0,4.0,4.0,3.0,3.0,3.0,3.0,5.0,3.0,3.0,3.0,3.0,3.0,3.0,4.0,3.0,3.0,3.0,4.0,3.0,4.0,4.0,4.0,3.0,4.0,3.0,4.0,4.0,4.0,3.0,4.0,3.0,5.0,4.0,4.0,3.0,4.0,4.0,4.0,4.0,3.0,4.0,3.0,4.0,4.0,4.0,3.0,4.0,3.0,3.0,4.0,4.0,4.0,4.0,3.0,4.0,4.0,4.0,4.0,4.0,3.0,3.0,3.0,4.0,4.0,4.0,3.0,3.0,3.0,4.0,3.0,3.0,4.0,3.0,3.0,4.0,3.0,4.0,4.0,3.0,3.0,3.0,4.0,2.0,4.0,3.0,3.0,4.0,5.0,4.0,4.0,4.0,4.0,3.0,4.0,2.0,3.0,3.0,4.0,4.0,4.0,3.0,4.0,4.0,3.0,4.0,4.0,3.0,4.0,4.0,3.0,3.0,4.0,4.0,4.0,4.0,3.0,4.0,4.0,4.0,4.0,4.0,3.0,4.0,3.0,5.0,3.0,3.0,4.0,4.0,4.0,4.0,2.0,4.0,3.0,3.0,4.0,4.0,4.0,4.0,4.0,3.0,4.0,4.0,4.0,3.0,4.0,3.0,3.0,4.0,4.0,2.0,4.0,3.0,3.0
401.0,400.0,400.0,409.0,413.0,401.0,399.0,399.0,404.0,411.0,399.0,397.0,400.0,405.0,411.0,399.0,399.0,397.0,407.0,412.0,400.0,400.0,397.0,408.0,412.0,406.0,403.0,403.0,413.0,414.0,406.0,405.0,405.0,413.0,416.0,405.0,402.0,405.0,410.0,416.0,405.0,403.0,408.0,414.0,410.0,399.0,404.0,409.0,413.0,410.0,399.0,402.0,409.0,412.0,408.0,401.0,404.0,412.0,415.0,409.0,397.0,408.0,419.0,412.0,409.0,399.0,410.0,418.0,416.0,409.0,399.0,411.0,415.0,414.0,410.0,401.0,409.0,419.0,415.0,411.0,402.0,409.0,418.0,414.0,409.0,401.0,412.0,422.0,414.0,412.0,401.0,413.0,421.0,413.0,409.0,407.0,418.0,420.0,413.0,411.0,410.0,420.0,425.0,414.0,411.0,413.0,416.0,423.0,411.0,408.0,412.0,418.0,417.0,406.0,409.0,413.0,418.0,415.0,403.0,405.0,412.0,416.0,411.0,404.0,405.0,413.0,415.0,415.0,406.0,405.0,414.0,415.0,414.0,403.0,405.0,416.0,417.0,414.0,404.0,407.0,411.0,417.0,414.0,402.0,407.0,417.0,413.0,409.0,401.0,409.0,418.0,414.0,410.0,400.0,409.0,421.0,412.0,411.0,399.0,411.0,419.0,412.0,407.0,403.0,413.0,416.0,410.0,409.0,408.0,417.0,423.0,412.0,408.0,409.0,415.0,421.0,410.0,407.0,402.0,413.0,418.0,405.0,404.0,401.0,413.0,417.0,406.0,406.0,401.0,413.0,416.0,408.0,406.0,404.0,414.0,416.0,405.0,404.0,414.0,414.0,415.0,403.0,405.0,414.0,415.0,413.0,401.0,402.0,407.0,414.0,412.0,401.0,407.0,418.0,413.0,410.0,400.0,410.0,419.0,415.0,411.0,402.0,412.0,429.0,421.0,420.0,407.0,418.0,427.0,424.0,422.0,409.0,416.0,424.0,418.0,414.0,403.0,415.0,421.0,419.0,415.0,405.0,413.0,422.0,418.0,415.0,407.0,421.0,429.0,416.0,415.0,411.0,424.0,432.0,420.0,420.0,416.0,425.0,429.0,424.0,421.0,418.0,430.0,438.0,422.0,421.0,429.0,429.0,433.0,417.0,420.0,431.0,433.0,434.0,423.0,426.0,429.0,436.0,435.0,424.0,426.0,433.0,440.0,436.0,421.0,427.0,432.0,435.0,430.0,424.0,422.0,430.0,434.0,434.0,422.0,422.0,431.0,433.0,428.0,418.0,429.0,438.0,434.0,429.0,416.0,426.0,431.0,431.0,426.0,413.0,420.0,429.0,425.0,422.0,413.0,426.0,437.0,423.0,421.0,416.0,430.0,437.0,425.0,426.0,418.0,431.0,438.0,430.0,425.0,421.0,432.0,437.0,427.0,425.0,421.0,431.0,438.0,427.0,424.0,421.0,430.0,438.0,424.0,419.0,412.0,426.0,433.0,421.0,418.0,422.0,430.0,428.0,416.0,422.0,427.0,428.0,429.0,422.0,422.0,429.0,433.0,435.0,421.0,421.0,430.0,431.0,427.0,413.0,423.0,434.0,430.0,427.0,414.0,423.0,430.0,429.0,425.0,412.0,421.0,430.0,427.0,422.0,413.0,419.0,431.0,425.0,421.0,412.0,420.0,432.0,427.0,426.0,414.0,425.0,434.0,430.0,425.0,412.0,425.0,435.0,426.0,422.0,417.0,431.0,435.0,424.0,420.0,418.0,423.0,435.0,422.0,419.0,412.0,426.0,432.0,416.0,413.0,413.0,416.0,415.0,403.0,406.0,409.0,414.0,413.0,405.0,407.0,414.0,420.0,427.0,415.0,413.0,419.0,418.0,423.0,406.0,409.0,419.0,418.0,416.0,402.0,401.0,402.0,412.0,411.0,398.0,405.0,407.0,413.0,411.0,398.0,400.0,415.0,411.0,405.0,393.0,400.0,409.0,399.0,403.0,393.0,406.0,410.0,407.0,404.0,393.0,403.0,416.0,405.0,403.0,396.0,410.0,416.0,405.0,400.0,399.0,404.0,418.0,402.0,402.0,399.0,413.0,418.0,404.0,406.0,398.0,407.0,415.0,400.0,403.0,397.0,405.0,412.0,404.0,402.0,398.0,408.0,413.0,403.0,400.0,397.0,407.0,409.0,394.0,396.0,405.0,407.0,405.0,390.0,393.0,396.0,403.0,403.0,389.0,395.0,399.0,407.0,405.0,393.0,399.0,408.0,406.0,402.0,392.0,400.0,411.0,409.0,410.0,397.0,406.0,420.0,416.0,412.0,398.0,406.0,415.0,415.0,415.0,401.0,413.0,416.0,415.0,408.0,395.0,402.0,414.0,411.0,407.0,396.0,403.0,414.0,408.0,405.0,395.0,408.0,415.0,403.0,403.0,397.0,409.0,417.0,408.0,406.0,401.0,414.0,418.0,411.0,408.0,407.0,417.0,420.0,405.0,405.0,412.0,411.0,416.0,402.0,405.0,406.0,411.0,412.0,399.0,403.0,404.0,411.0,411.0,402.0,399.0,403.0,415.0,414.0,405.0,405.0,410.0,414.0,417.0,402.0,404.0,413.0,415.0,417.0,405.0,405.0,419.0,419.0,414.0,400.0,408.0,412.0,412.0,407.0,397.0,405.0,415.0,412.0,408.0,401.0,407.0,416.0,414.0,410.0,398.0,412.0,417.0,406.0,406.0,398.0,411.0,416.0,410.0,406.0,399.0,413.0,418.0,410.0,407.0,400.0,406.0,415.0,406.0,402.0,400.0,408.0,420.0,409.0,407.0,400.0,412.0,419.0,406.0,408.0,401.0,413.0,418.0,407.0,405.0,407.0,413.0,413.0,405.0,404.0,412.0,416.0,421.0,407.0,405.0,412.0,417.0,420.0,405.0,407.0,415.0,417.0,411.0,396.0,410.0,415.0,415.0,410.0,398.0,404.0,415.0,415.0,411.0,402.0,407.0,421.0,419.0,417.0,403.0,408.0,419.0,415.0,412.0,400.0,408.0,419.0,416.0,413.0,400.0,410.0,415.0,415.0,412.0,399.0,410.0,420.0,411.0,409.0,403.0,410.0,418.0,407.0,403.0,396.0,408.0,416.0,405.0,406.0,398.0,411.0,419.0,406.0,401.0,404.0,412.0,409.0,401.0,400.0,406.0,411.0,416.0,402.0,401.0,411.0,415.0,418.0,404.0,406.0,404.0,413.0,415.0,402.0,401.0,403.0,412.0,413.0,400.0,405.0,405.0,416.0,416.0,408.0,406.0,410.0,413.0,411.0,397.0,404.0,415.0,411.0,412.0,398.0,406.0,418.0,415.0,412.0,400.0,409.0,416.0,414.0,409.0,395.0,408.0,417.0,408.0,405.0,403.0,410.0,420.0,409.0,408.0,398.0,409.0,418.0,407.0,407.0,400.0,412.0,419.0,412.0,408.0,399.0,412.0,417.0,409.0,405.0,399.0,412.0,418.0,410.0,405.0,400.0,408.0,419.0,408.0,406.0,403.0,414.0,418.0,403.0,405.0,407.0,415.0,415.0,402.0,405.0,405.0,414.0,412.0,403.0,403.0,406.0,414.0,411.0,399.0,406.0,416.0,413.0,412.0,400.0,407.0,418.0,417.0,412.0,396.0,406.0,411.0,411.0,406.0,392.0,399.0,409.0,411.0,405.0,394.0,401.0,414.0,411.0,408.0,397.0,403.0,413.0,410.0,410.0,399.0,408.0,417.0,412.0,409.0,400.0,412.0,420.0,413.0,409.0,403.0,413.0,417.0,411.0,408.0,402.0,409.0,417.0,407.0,405.0,401.0,410.0,413.0,400.0,402.0,405.0,413.0,413.0,401.0,406.0,406.0,414.0,413.0,405.0,404.0,406.0,412.0,417.0,403.0,403.0,407.0,412.0,416.0,403.0,401.0,409.0,413.0,419.0,405.0,406.0,408.0,416.0,418.0,406.0,408.0,416.0,418.0,412.0,401.0,408.0,419.0,418.0,415.0,405.0,409.0,420.0,415.0,414.0,401.0,408.0,419.0,413.0,410.0,402.0,413.0,421.0,413.0,408.0,401.0,415.0,419.0,410.0,406.0,401.0,408.0,416.0,406.0,406.0,395.0,409.0,418.0,409.0,404.0,396.0,411.0,419.0,408.0,406.0,396.0,408.0,415.0,407.0,404.0,397.0,409.0,415.0,403.0,403.0,408.0,414.0,417.0,402.0,404.0,410.0,413.0,416.0,403.0,403.0,405.0,414.0,416.0,403.0,405.0,414.0,415.0,411.0,398.0,404.0,414.0,416.0,411.0,401.0,405.0,416.0,413.0,413.0,401.0,407.0,417.0,416.0,413.0,403.0,409.0,420.0,419.0
