353.0,361.0,357.0,355.0,344.0,353.0,358.0,356.0,355.0,346.0,357.0,364.0,356.0,353.0,350.0,355.0,363.0,353.0,351.0,345.0,357.0,365.0,353.0,355.0,347.0,357.0,365.0,352.0,350.0,353.0,358.0,357.0,350.0,348.0,353.0,357.0,361.0,349.0,349.0,355.0,356.0,361.0,350.0,347.0,348.0,356.0,359.0,348.0,349.0,353.0,358.0,360.0,348.0,351.0,353.0,355.0,357.0,349.0,348.0,353.0,357.0,357.0,346.0,350.0,360.0,353.0,354.0,343.0,350.0,360.0,356.0,355.0,344.0,352.0,358.0,357.0,355.0,345.0,352.0,363.0,354.0,352.0,350.0,355.0,364.0,354.0,352.0,346.0,356.0,362.0,348.0,351.0,344.0,353.0,362.0,354.0,352.0,346.0,356.0,363.0,354.0,353.0,347.0,355.0,361.0,353.0,351.0,349.0,353.0,363.0,355.0,354.0,354.0,359.0,362.0,349.0,351.0,353.0,359.0,361.0,349.0,354.0,356.0,360.0,361.0,353.0,352.0,357.0,360.0,359.0,347.0,353.0,362.0,358.0,362.0,348.0,355.0,365.0,360.0,358.0,346.0,356.0,362.0,363.0,361.0,350.0,356.0,365.0,363.0,360.0,349.0,355.0,369.0,365.0,363.0,352.0,358.0,366.0,362.0,362.0,349.0,354.0,364.0,358.0,355.0,351.0,361.0,368.0,360.0,357.0,352.0,358.0,372.0,363.0,359.0,357.0,361.0,369.0,359.0,360.0,356.0,363.0,368.0,358.0,354.0,359.0,364.0,363.0,352.0,353.0,358.0,362.0,361.0,353.0,350.0,354.0,354.0,358.0,349.0,349.0,355.0,357.0,359.0,347.0,347.0,353.0,349.0,354.0,340.0,342.0,346.0,354.0,356.0,347.0,351.0,357.0,355.0,352.0,341.0,348.0,358.0,356.0,361.0,352.0,357.0,366.0,360.0,360.0,347.0,351.0,359.0,353.0,351.0,342.0,353.0,361.0,351.0,349.0,344.0,346.0,352.0,343.0,342.0,340.0,349.0,357.0,347.0,346.0,343.0,354.0,362.0,351.0,348.0,342.0,352.0,359.0,349.0,351.0,343.0,353.0,360.0,351.0,349.0,345.0,352.0,357.0,341.0,342.0,348.0,349.0,353.0,340.0,343.0,351.0,347.0,351.0,338.0,340.0,342.0,348.0,352.0,339.0,344.0,356.0,353.0,351.0,340.0,346.0,356.0,350.0,348.0,337.0,343.0,353.0,349.0,351.0,338.0,345.0,355.0,351.0,350.0,339.0,347.0,356.0,348.0,347.0,336.0,345.0,350.0,348.0,347.0,336.0,341.0,355.0,352.0,353.0,340.0,351.0,359.0,349.0,344.0,337.0,348.0,355.0,342.0,346.0,340.0,349.0,355.0,349.0,351.0,345.0,352.0,357.0,343.0,346.0,352.0,354.0,361.0,346.0,348.0,354.0,355.0,356.0,343.0,347.0,347.0,352.0,355.0,343.0,350.0,352.0,356.0,358.0,345.0,352.0,355.0,359.0,359.0,351.0,351.0,357.0,361.0,369.0,353.0,354.0,362.0,359.0,354.0,341.0,350.0,361.0,356.0,355.0,343.0,354.0,361.0,358.0,354.0,340.0,347.0,358.0,354.0,354.0,344.0,352.0,362.0,350.0,350.0,346.0,357.0,365.0,351.0,354.0,348.0,355.0,363.0,354.0,352.0,349.0,360.0,366.0,357.0,356.0,350.0,358.0,363.0,354.0,352.0,351.0,356.0,365.0,354.0,353.0,348.0,358.0,366.0,353.0,353.0,357.0,361.0,365.0,350.0,354.0,359.0,361.0,360.0,352.0,353.0,359.0,359.0,362.0,348.0,349.0,357.0,358.0,357.0,345.0,354.0,362.0,358.0,354.0,340.0,351.0,358.0,357.0,354.0,344.0,351.0,360.0,357.0,358.0,349.0,355.0,364.0,359.0,357.0,348.0,355.0,364.0,358.0,361.0,348.0,357.0,365.0,361.0,358.0,346.0,357.0,366.0,356.0,352.0,348.0,355.0,361.0,351.0,350.0,350.0,355.0,364.0,353.0,350.0,346.0,356.0,363.0,352.0,352.0,357.0,362.0,361.0,350.0,353.0,360.0,363.0,363.0,354.0,354.0,362.0,363.0,366.0,355.0,353.0,362.0,363.0,364.0,352.0,354.0,364.0,363.0,364.0,352.0,355.0,359.0,363.0,360.0,347.0,351.0,356.0,360.0,360.0,347.0,353.0,363.0,358.0,357.0,347.0,355.0,368.0,361.0,361.0,350.0,359.0,368.0,362.0,359.0,349.0,359.0,368.0,357.0,355.0,355.0,362.0,368.0,357.0,356.0,356.0,362.0,369.0,357.0,355.0,352.0,361.0,368.0,356.0,358.0,353.0,362.0,367.0,356.0,357.0,354.0,360.0,363.0,356.0,353.0,352.0,360.0,366.0,357.0,356.0,356.0,365.0,368.0,355.0,357.0,366.0,365.0,365.0,354.0,357.0,361.0,364.0,364.0,351.0,354.0,360.0,363.0,361.0,349.0,355.0,366.0,359.0,358.0,347.0,357.0,366.0,358.0,359.0,347.0,357.0,366.0,361.0,359.0,351.0,363.0,368.0,365.0,361.0,352.0,362.0,367.0,362.0,359.0,352.0,354.0,363.0,358.0,356.0,348.0,356.0,366.0,359.0,356.0,352.0,357.0,363.0,351.0,353.0,351.0,360.0,364.0,357.0,355.0,355.0,363.0,370.0,359.0,356.0,358.0,363.0,364.0,352.0,354.0,364.0,363.0,359.0,345.0,352.0,356.0,360.0,361.0,348.0,353.0,360.0,362.0,361.0,352.0,353.0,361.0,362.0,359.0,352.0,354.0,363.0,361.0,363.0,351.0,355.0,363.0,363.0,361.0,349.0,354.0,364.0,359.0,359.0,349.0,359.0,367.0,362.0,359.0,352.0,357.0,366.0,359.0,357.0,348.0,357.0,366.0,358.0,356.0,350.0,358.0,365.0,352.0,354.0,353.0,360.0,364.0,358.0,359.0,358.0,364.0,369.0,357.0,356.0,359.0,362.0,368.0,357.0,356.0,359.0,361.0,367.0,354.0,352.0,350.0,358.0,363.0,351.0,353.0,352.0,360.0,364.0,352.0,354.0,362.0,362.0,359.0,349.0,351.0,361.0,359.0,361.0,349.0,352.0,362.0,361.0,361.0,349.0,354.0,364.0,360.0,358.0,350.0,361.0,366.0,360.0,357.0,354.0,362.0,370.0,362.0,360.0,350.0,358.0,368.0,359.0,361.0,352.0,363.0,371.0,361.0,361.0,352.0,361.0,369.0,363.0,359.0,351.0,361.0,366.0,361.0,358.0,353.0,363.0,368.0,357.0,355.0,360.0,363.0,369.0,356.0,355.0,354.0,358.0,362.0,352.0,354.0,354.0,361.0,364.0,353.0,354.0,363.0,362.0,360.0,352.0,355.0,364.0,364.0,364.0,351.0,355.0,365.0,363.0,364.0,352.0,357.0,362.0,365.0,363.0,353.0,358.0,363.0,367.0,363.0,351.0,355.0,365.0,364.0,362.0,354.0,356.0,364.0,363.0,360.0,352.0,363.0,371.0,360.0,361.0,352.0,362.0,369.0,362.0,359.0,352.0,361.0,366.0,360.0,358.0,352.0,361.0,368.0,358.0,357.0,361.0,364.0,369.0,358.0,357.0,357.0,366.0,373.0,359.0,361.0,359.0,366.0,369.0,361.0,358.0,360.0,360.0,362.0,355.0,355.0,359.0,363.0,370.0,356.0,355.0,358.0,358.0,364.0,353.0,352.0,360.0,361.0,360.0,348.0,356.0,362.0,363.0,365.0,351.0,356.0,365.0,363.0,360.0,352.0,354.0,364.0,362.0,359.0,350.0,362.0,370.0,358.0,359.0,350.0,359.0,368.0,360.0,357.0,352.0,363.0,368.0,361.0,359.0,353.0,358.0,368.0,359.0,356.0,349.0,355.0,365.0,356.0,354.0,346.0,357.0,366.0,356.0,354.0,344.0,354.0,362.0,351.0,351.0,354.0,360.0,364.0,354.0,354.0,357.0,361.0,367.0,353.0,354.0,358.0,361.0,366.0,353.0,353.0,360.0,361.0,360.0,347.0,356.0,364.0,364.0,362.0,350.0,355.0,365.0,363.0,360.0,352.0,355.0,363.0,359.0,361.0,348.0,354.0,364.0,360.0,361.0,350.0,355.0,370.0,366.0,364.0,351.0,359.0,365.0,364.0,362.0,349.0,359.0,367.0,358.0,355.0,353.0,359.0,368.0,358.0,358.0,351.0,362.0,373.0,362.0,363.0,355.0,364.0,372.0,361.0,360.0,363.0,367.0
439.0,444.0,441.0,435.0,422.0,436.0,439.0,440.0,435.0,421.0,436.0,443.0,435.0,432.0,432.0,441.0,444.0,435.0,434.0,426.0,443.0,447.0,435.0,437.0,429.0,444.0,446.0,434.0,434.0,438.0,445.0,440.0,432.0,434.0,440.0,445.0,443.0,431.0,433.0,441.0,445.0,445.0,428.0,434.0,435.0,442.0,442.0,427.0,433.0,435.0,444.0,441.0,428.0,434.0,438.0,446.0,439.0,433.0,435.0,440.0,447.0,441.0,428.0,439.0,446.0,443.0,439.0,427.0,440.0,448.0,447.0,440.0,427.0,442.0,445.0,446.0,439.0,427.0,442.0,447.0,439.0,436.0,434.0,445.0,448.0,438.0,436.0,429.0,446.0,448.0,438.0,438.0,431.0,446.0,448.0,443.0,438.0,431.0,445.0,446.0,439.0,436.0,432.0,445.0,447.0,437.0,435.0,433.0,442.0,447.0,436.0,435.0,435.0,446.0,442.0,431.0,435.0,436.0,445.0,440.0,430.0,435.0,439.0,447.0,441.0,435.0,436.0,442.0,448.0,441.0,429.0,440.0,447.0,444.0,441.0,428.0,440.0,448.0,449.0,440.0,428.0,445.0,446.0,448.0,441.0,429.0,440.0,448.0,448.0,441.0,430.0,442.0,451.0,449.0,444.0,433.0,446.0,453.0,446.0,442.0,427.0,440.0,448.0,441.0,436.0,429.0,443.0,444.0,438.0,435.0,431.0,443.0,445.0,436.0,434.0,431.0,440.0,447.0,435.0,434.0,432.0,442.0,438.0,427.0,430.0,432.0,440.0,436.0,423.0,430.0,432.0,440.0,434.0,427.0,427.0,432.0,435.0,436.0,425.0,427.0,433.0,436.0,435.0,422.0,427.0,434.0,437.0,434.0,420.0,424.0,427.0,435.0,432.0,419.0,425.0,435.0,432.0,427.0,416.0,427.0,437.0,433.0,431.0,420.0,432.0,442.0,436.0,435.0,421.0,434.0,440.0,433.0,430.0,423.0,437.0,440.0,431.0,428.0,423.0,435.0,437.0,428.0,425.0,424.0,435.0,438.0,427.0,428.0,421.0,437.0,441.0,429.0,428.0,421.0,436.0,438.0,426.0,428.0,423.0,436.0,437.0,430.0,428.0,423.0,435.0,434.0,422.0,423.0,430.0,435.0,434.0,421.0,426.0,435.0,436.0,434.0,421.0,426.0,429.0,437.0,433.0,422.0,428.0,439.0,436.0,431.0,420.0,431.0,439.0,435.0,428.0,417.0,428.0,437.0,432.0,430.0,417.0,431.0,437.0,436.0,430.0,418.0,433.0,440.0,438.0,431.0,418.0,434.0,438.0,437.0,431.0,420.0,429.0,439.0,436.0,433.0,422.0,439.0,443.0,434.0,426.0,417.0,434.0,437.0,428.0,430.0,426.0,440.0,440.0,437.0,435.0,433.0,439.0,439.0,429.0,435.0,441.0,444.0,442.0,434.0,437.0,446.0,449.0,444.0,431.0,438.0,438.0,448.0,442.0,430.0,437.0,441.0,449.0,442.0,432.0,441.0,447.0,451.0,445.0,438.0,441.0,449.0,454.0,454.0,442.0,444.0,456.0,454.0,447.0,431.0,446.0,454.0,451.0,445.0,430.0,446.0,450.0,448.0,444.0,431.0,440.0,450.0,446.0,441.0,432.0,446.0,450.0,438.0,437.0,431.0,447.0,448.0,436.0,438.0,433.0,447.0,447.0,442.0,439.0,435.0,448.0,450.0,442.0,441.0,437.0,449.0,450.0,440.0,438.0,439.0,448.0,450.0,439.0,439.0,433.0,449.0,451.0,438.0,440.0,443.0,451.0,446.0,433.0,440.0,446.0,450.0,444.0,436.0,438.0,446.0,449.0,446.0,433.0,438.0,447.0,448.0,441.0,428.0,443.0,449.0,446.0,439.0,426.0,443.0,446.0,446.0,440.0,430.0,439.0,448.0,446.0,440.0,429.0,441.0,449.0,446.0,441.0,430.0,444.0,452.0,447.0,442.0,431.0,445.0,451.0,448.0,442.0,430.0,447.0,450.0,442.0,439.0,438.0,449.0,449.0,439.0,438.0,438.0,447.0,450.0,439.0,437.0,432.0,448.0,448.0,437.0,438.0,441.0,449.0,443.0,430.0,438.0,445.0,451.0,443.0,435.0,438.0,445.0,447.0,445.0,433.0,436.0,445.0,449.0,443.0,430.0,436.0,444.0,447.0,442.0,429.0,437.0,440.0,446.0,440.0,427.0,436.0,441.0,443.0,439.0,424.0,437.0,446.0,439.0,436.0,424.0,439.0,447.0,439.0,438.0,424.0,440.0,447.0,443.0,437.0,426.0,441.0,446.0,435.0,434.0,433.0,445.0,448.0,435.0,435.0,437.0,445.0,449.0,435.0,436.0,431.0,445.0,448.0,434.0,437.0,431.0,444.0,445.0,431.0,437.0,433.0,444.0,444.0,434.0,435.0,433.0,444.0,447.0,434.0,434.0,436.0,444.0,443.0,428.0,436.0,445.0,445.0,442.0,429.0,436.0,439.0,445.0,439.0,423.0,432.0,439.0,442.0,438.0,424.0,438.0,446.0,439.0,436.0,423.0,439.0,447.0,436.0,439.0,423.0,439.0,448.0,442.0,437.0,426.0,441.0,446.0,441.0,437.0,426.0,443.0,446.0,438.0,436.0,428.0,436.0,445.0,438.0,435.0,423.0,439.0,447.0,437.0,436.0,431.0,444.0,444.0,430.0,434.0,433.0,444.0,443.0,435.0,434.0,434.0,444.0,448.0,433.0,434.0,435.0,444.0,441.0,427.0,435.0,445.0,444.0,439.0,425.0,437.0,439.0,443.0,439.0,425.0,433.0,443.0,444.0,439.0,430.0,435.0,444.0,446.0,440.0,430.0,435.0,445.0,444.0,442.0,428.0,435.0,444.0,444.0,439.0,426.0,436.0,445.0,440.0,436.0,427.0,442.0,446.0,439.0,436.0,428.0,438.0,446.0,439.0,436.0,425.0,440.0,448.0,439.0,438.0,433.0,446.0,444.0,432.0,436.0,435.0,446.0,443.0,436.0,437.0,437.0,445.0,449.0,435.0,435.0,437.0,444.0,447.0,434.0,436.0,441.0,445.0,447.0,433.0,435.0,433.0,444.0,444.0,431.0,436.0,435.0,446.0,444.0,430.0,434.0,443.0,443.0,439.0,428.0,435.0,445.0,444.0,441.0,429.0,436.0,445.0,446.0,440.0,427.0,437.0,447.0,441.0,437.0,428.0,444.0,447.0,440.0,437.0,430.0,440.0,448.0,440.0,438.0,426.0,442.0,449.0,440.0,440.0,429.0,445.0,450.0,440.0,440.0,430.0,446.0,451.0,445.0,440.0,432.0,447.0,449.0,445.0,440.0,434.0,448.0,450.0,437.0,439.0,443.0,449.0,447.0,436.0,437.0,437.0,446.0,444.0,431.0,436.0,436.0,447.0,443.0,432.0,437.0,445.0,446.0,440.0,432.0,438.0,448.0,447.0,443.0,432.0,441.0,449.0,451.0,444.0,432.0,443.0,447.0,450.0,443.0,431.0,444.0,448.0,451.0,443.0,430.0,439.0,448.0,450.0,443.0,436.0,441.0,450.0,451.0,446.0,435.0,453.0,456.0,446.0,445.0,435.0,452.0,455.0,450.0,444.0,435.0,452.0,452.0,448.0,443.0,437.0,452.0,451.0,441.0,442.0,447.0,453.0,449.0,440.0,442.0,441.0,454.0,450.0,439.0,442.0,442.0,453.0,450.0,443.0,441.0,443.0,452.0,446.0,441.0,441.0,444.0,453.0,452.0,440.0,440.0,446.0,449.0,447.0,436.0,439.0,446.0,452.0,443.0,431.0,444.0,447.0,450.0,443.0,430.0,440.0,449.0,450.0,443.0,435.0,441.0,449.0,449.0,443.0,433.0,449.0,453.0,442.0,442.0,433.0,450.0,452.0,448.0,442.0,435.0,451.0,452.0,447.0,443.0,436.0,446.0,452.0,444.0,442.0,438.0,447.0,452.0,443.0,440.0,431.0,447.0,452.0,442.0,440.0,431.0,448.0,451.0,440.0,439.0,441.0,450.0,443.0,438.0,439.0,443.0,450.0,448.0,437.0,439.0,447.0,451.0,448.0,438.0,439.0,446.0,451.0,444.0,431.0,447.0,449.0,451.0,444.0,433.0,443.0,451.0,452.0,445.0,436.0,445.0,452.0,451.0,447.0,435.0,444.0,453.0,450.0,446.0,434.0,446.0,455.0,454.0,447.0,434.0,448.0,451.0,454.0,446.0,435.0,449.0,455.0,447.0,444.0,441.0,451.0,455.0,446.0,444.0,436.0,452.0,457.0,445.0,447.0,437.0,453.0,456.0,446.0,445.0,448.0,456.0
2.0,3.0,4.0,3.0,4.0,4.0,3.0,3.0,3.0,3.0,5.0,4.0,4.0,4.0,4.0,3.0,4.0,4.0,4.0,2.0,3.0,4.0,4.0,3.0,4.0,4.0,3.0,3.0,4.0,5.0,4.0,3.0,4.0,3.0,3.0,4.0,4.0,3.0,4.0,3.0,3.0,3.0,4.0,4.0,4.0,3.0,4.0,4.0,4.0,4.0,3.0,4.0,3.0,4.0,3.0,3.0,3.0,3.0,3.0,3.0,3.0,4.0,2.0,3.0,4.0,4.0,3.0,4.0,3.0,4.0,3.0,3.0,4.0,3.0,3.0,3.0,3.0,4.0,4.0,4.0,4.0,4.0,4.0,3.0,4.0,3.0,4.0,4.0,3.0,3.0,3.0,3.0,4.0,4.0,3.0,3.0,4.0,4.0,3.0,4.0,4.0,3.0,4.0,3.0,5.0,3.0,4.0,4.0,4.0,4.0,4.0,4.0,5.0,3.0,4.0,3.0,3.0,3.0,3.0,4.0,3.0,4.0,4.0,3.0,4.0,4.0,4.0,4.0,4.0,4.0,3.0,4.0,4.0,4.0,3.0,3.0,4.0,4.0,4.0,4.0,3.0,3.0,3.0,3.0,4.0,3.0,4.0,4.0,4.0,2.0,3.0,4.0,4.0,3.0,4.0,4.0,3.0,3.0,3.0,4.0,4.0,4.0,4.0,3.0,3.0,4.0,4.0,4.0,4.0,3.0,4.0,4.0,3.0,5.0,2.0,3.0,4.0,3.0,3.0,3.0,4.0,3.0,4.0,3.0,4.0,3.0,4.0,3.0,3.0,4.0,4.0,2.0,3.0,4.0,3.0,3.0,4.0,4.0,3.0,4.0,4.0,3.0,3.0,4.0,3.0,3.0,4.0,5.0,2.0,3.0,3.0,3.0,3.0,4.0,4.0,3.0,3.0,3.0,3.0,4.0,4.0,4.0,3.0,3.0,3.0,3.0,4.0,3.0,3.0,3.0,4.0,3.0,4.0,3.0,3.0,3.0,4.0,3.0,5.0,3.0,4.0,3.0,4.0,3.0,4.0,4.0,3.0,3.0,3.0,3.0,4.0,4.0,3.0,4.0,3.0,3.0,3.0,3.0,2.0,4.0,4.0,4.0,3.0,5.0,4.0,5.0,3.0,4.0,3.0,5.0,3.0,4.0,3.0,4.0,4.0,4.0,3.0,3.0,4.0,3.0,4.0,4.0,4.0,4.0,4.0,3.0,4.0,3.0,3.0,4.0,4.0,3.0,4.0,3.0,5.0,4.0,3.0,3.0,4.0,3.0,4.0,3.0,3.0,4.0,3.0,4.0,4.0,4.0,2.0,4.0,3.0,4.0,3.0,3.0,2.0,4.0,3.0,3.0,3.0,5.0,2.0,3.0,3.0,4.0,3.0,4.0,2.0,4.0,3.0,3.0,4.0,3.0,4.0,3.0,4.0,3.0,4.0,3.0,4.0,3.0,4.0,2.0,4.0,4.0,4.0,3.0,4.0,3.0,4.0,3.0,4.0,3.0,3.0,4.0,3.0,3.0,3.0,4.0,4.0,3.0,3.0,4.0,4.0,5.0,3.0,3.0,3.0,4.0,3.0,5.0,4.0,3.0,3.0,3.0,3.0,5.0,4.0,4.0,3.0,4.0,3.0,4.0,3.0,4.0,4.0,3.0,4.0,4.0,4.0,4.0,4.0,3.0,4.0,3.0,5.0,2.0,4.0,2.0,4.0,3.0,4.0,4.0,5.0,4.0,4.0,4.0,3.0,4.0,3.0,4.0,3.0,4.0,3.0,4.0,3.0,4.0,4.0,4.0,3.0,4.0,3.0,4.0,3.0,4.0,3.0,3.0,2.0,3.0,4.0,3.0,3.0,3.0,4.0,4.0,3.0,3.0,4.0,4.0,4.0,3.0,4.0,3.0,4.0,4.0,4.0,4.0,4.0,2.0,4.0,4.0,4.0,4.0,3.0,3.0,3.0,3.0,4.0,3.0,4.0,4.0,3.0,4.0,4.0,4.0,4.0,4.0,3.0,4.0,4.0,4.0,3.0,4.0,3.0,4.0,3.0,3.0,2.0,4.0,3.0,4.0,4.0,4.0,4.0,4.0,4.0,3.0,3.0,4.0,3.0,4.0,3.0,3.0,4.0,3.0,5.0,3.0,4.0,3.0,3.0,3.0,5.0,4.0,4.0,3.0,3.0,3.0,4.0,3.0,3.0,4.0,3.0,4.0,3.0,4.0,4.0,3.0,3.0,4.0,3.0,4.0,3.0,4.0,3.0,4.0,4.0,4.0,4.0,3.0,3.0,4.0,4.0,4.0,4.0,3.0,3.0,3.0,3.0,3.0,3.0,3.0,4.0,3.0,4.0,3.0,4.0,3.0,3.0,3.0,3.0,4.0,5.0,2.0,3.0,3.0,3.0,3.0,4.0,3.0,3.0,3.0,3.0,3.0,4.0,4.0,3.0,4.0,3.0,4.0,3.0,4.0,3.0,3.0,3.0,3.0,3.0,5.0,2.0,4.0,3.0,3.0,4.0,4.0,4.0,3.0,3.0,3.0,4.0,4.0,4.0,4.0,4.0,3.0,4.0,4.0,4.0,2.0,4.0,3.0,4.0,4.0,4.0,4.0,3.0,3.0,3.0,3.0,5.0,4.0,3.0,3.0,3.0,3.0,4.0,4.0,3.0,4.0,3.0,4.0,3.0,4.0,3.0,4.0,3.0,4.0,4.0,5.0,4.0,3.0,4.0,4.0,3.0,5.0,4.0,4.0,4.0,3.0,4.0,4.0,4.0,4.0,4.0,3.0,4.0,4.0,4.0,3.0,4.0,3.0,4.0,4.0,5.0,4.0,4.0,3.0,4.0,3.0,4.0,4.0,3.0,3.0,3.0,4.0,4.0,3.0,3.0,3.0,3.0,4.0,4.0,4.0,3.0,4.0,3.0,3.0,3.0,4.0,4.0,4.0,3.0,3.0,4.0,5.0,4.0,4.0,3.0,3.0,4.0,4.0,4.0,3.0,4.0,3.0,4.0,5.0,4.0,3.0,3.0,3.0,4.0,4.0,4.0,3.0,4.0,3.0,3.0,4.0,5.0,4.0,4.0,3.0,3.0,4.0,4.0,4.0,3.0,4.0,3.0,4.0,4.0,4.0,4.0,3.0,3.0,4.0,3.0,4.0,2.0,4.0,3.0,4.0,3.0,4.0,4.0,4.0,3.0,3.0,3.0,4.0,4.0,4.0,4.0,3.0,4.0,4.0,4.0,4.0,4.0,3.0,3.0,3.0,4.0,4.0,4.0,3.0,4.0,4.0,5.0,4.0,5.0,3.0,3.0,3.0,4.0,4.0,4.0,4.0,3.0,4.0,4.0,4.0,3.0,4.0,3.0,4.0,4.0,5.0,3.0,4.0,3.0,4.0,4.0,5.0,4.0,3.0,3.0,3.0,4.0,4.0,4.0,3.0,3.0,3.0,4.0,4.0,4.0,3.0,3.0,3.0,5.0,4.0,4.0,3.0,4.0,3.0,3.0,3.0,5.0,2.0,4.0,3.0,3.0,3.0,5.0,3.0,3.0,3.0,3.0,4.0,4.0,3.0,3.0,4.0,3.0,4.0,4.0,4.0,2.0,3.0,3.0,4.0,3.0,4.0,4.0,4.0,3.0,3.0,3.0,4.0,3.0,4.0,4.0,3.0,4.0,3.0,4.0,3.0,3.0,3.0,4.0,4.0,4.0,3.0,4.0,3.0,4.0,4.0,4.0,2.0,3.0,3.0,4.0,3.0,5.0,3.0,3.0,3.0,3.0,4.0,4.0,4.0,3.0,4.0,3.0,4.0,3.0,5.0,4.0,4.0,3.0,4.0,3.0,4.0,4.0,4.0,4.0,4.0,3.0,5.0,2.0,4.0,3.0,3.0,4.0,4.0,3.0,4.0,4.0,4.0,4.0,4.0,3.0,3.0,4.0,3.0,4.0,4.0,4.0,4.0,3.0,3.0,4.0,3.0,5.0,2.0,3.0,4.0,3.0,4.0,4.0,3.0,3.0,4.0,3.0,4.0,4.0,4.0,4.0,4.0,3.0,3.0,3.0,4.0,2.0,3.0,3.0,3.0,3.0,4.0,4.0,3.0,3.0,3.0,3.0,4.0,3.0,4.0,4.0,3.0,4.0,4.0,4.0,4.0,4.0,3.0,3.0,4.0,4.0,2.0,4.0,3.0,4.0,4.0,4.0,3.0,4.0,3.0,4.0,3.0,4.0,3.0,3.0,4.0,3.0,3.0,4.0,4.0,4.0,4.0,3.0,4.0,4.0,4.0,3.0,3.0,3.0,4.0,3.0,5.0,4.0,3.0,3.0,3.0,3.0,5.0,3.0,3.0,4.0,4.0,3.0,4.0
418.0,425.0,418.0,414.0,401.0,413.0,420.0,418.0,413.0,403.0,416.0,425.0,413.0,412.0,410.0,416.0,423.0,410.0,408.0,404.0,417.0,424.0,410.0,412.0,408.0,420.0,425.0,412.0,412.0,419.0,423.0,420.0,411.0,410.0,419.0,421.0,423.0,410.0,411.0,421.0,423.0,421.0,408.0,412.0,416.0,422.0,420.0,407.0,412.0,417.0,424.0,420.0,409.0,414.0,420.0,423.0,421.0,412.0,412.0,421.0,423.0,419.0,405.0,415.0,426.0,418.0,417.0,404.0,415.0,424.0,421.0,415.0,404.0,416.0,423.0,421.0,416.0,406.0,419.0,427.0,415.0,413.0,414.0,420.0,427.0,415.0,413.0,408.0,420.0,427.0,413.0,414.0,408.0,421.0,426.0,417.0,414.0,412.0,423.0,427.0,419.0,416.0,414.0,424.0,429.0,418.0,415.0,416.0,421.0,429.0,417.0,414.0,416.0,424.0,423.0,409.0,413.0,418.0,423.0,421.0,408.0,412.0,418.0,423.0,419.0,412.0,412.0,420.0,422.0,418.0,404.0,414.0,426.0,420.0,419.0,408.0,418.0,429.0,424.0,420.0,407.0,422.0,426.0,424.0,420.0,409.0,417.0,427.0,424.0,420.0,410.0,419.0,428.0,422.0,418.0,409.0,421.0,429.0,419.0,417.0,404.0,415.0,424.0,415.0,414.0,410.0,419.0,425.0,416.0,415.0,413.0,423.0,427.0,416.0,414.0,414.0,419.0,425.0,412.0,412.0,412.0,418.0,418.0,405.0,407.0,410.0,417.0,415.0,403.0,409.0,415.0,419.0,416.0,409.0,407.0,414.0,416.0,419.0,406.0,407.0,415.0,417.0,418.0,406.0,408.0,416.0,416.0,412.0,398.0,405.0,410.0,416.0,415.0,403.0,410.0,419.0,415.0,410.0,401.0,410.0,419.0,413.0,412.0,402.0,413.0,424.0,416.0,416.0,403.0,415.0,425.0,416.0,410.0,406.0,418.0,424.0,414.0,411.0,409.0,417.0,423.0,414.0,409.0,409.0,413.0,420.0,408.0,408.0,402.0,415.0,422.0,410.0,409.0,407.0,417.0,422.0,409.0,411.0,409.0,419.0,423.0,414.0,411.0,409.0,421.0,424.0,411.0,412.0,422.0,423.0,423.0,409.0,412.0,421.0,420.0,419.0,406.0,409.0,414.0,420.0,417.0,406.0,412.0,424.0,419.0,415.0,404.0,411.0,421.0,417.0,412.0,402.0,412.0,422.0,415.0,415.0,403.0,415.0,424.0,418.0,414.0,405.0,417.0,425.0,418.0,414.0,403.0,416.0,423.0,419.0,414.0,404.0,411.0,429.0,421.0,416.0,405.0,420.0,426.0,418.0,400.0,399.0,415.0,420.0,407.0,408.0,407.0,416.0,420.0,418.0,413.0,412.0,418.0,422.0,412.0,416.0,424.0,423.0,424.0,418.0,420.0,429.0,429.0,425.0,414.0,419.0,422.0,430.0,425.0,414.0,418.0,426.0,432.0,425.0,414.0,419.0,427.0,432.0,430.0,421.0,422.0,432.0,434.0,435.0,422.0,425.0,437.0,434.0,429.0,416.0,429.0,440.0,434.0,427.0,416.0,429.0,434.0,431.0,428.0,416.0,424.0,434.0,429.0,425.0,418.0,428.0,434.0,421.0,419.0,418.0,430.0,434.0,419.0,420.0,417.0,427.0,430.0,423.0,419.0,418.0,427.0,433.0,422.0,421.0,420.0,428.0,433.0,421.0,419.0,424.0,429.0,434.0,420.0,417.0,416.0,427.0,432.0,418.0,419.0,425.0,431.0,427.0,414.0,419.0,429.0,431.0,426.0,418.0,418.0,428.0,430.0,428.0,415.0,419.0,432.0,430.0,424.0,414.0,426.0,435.0,427.0,423.0,413.0,426.0,430.0,427.0,423.0,415.0,420.0,431.0,425.0,421.0,412.0,421.0,431.0,425.0,421.0,411.0,423.0,434.0,424.0,424.0,412.0,424.0,433.0,427.0,422.0,412.0,425.0,432.0,420.0,416.0,419.0,426.0,430.0,418.0,415.0,419.0,426.0,432.0,418.0,416.0,414.0,426.0,432.0,417.0,418.0,424.0,428.0,424.0,412.0,417.0,427.0,429.0,424.0,416.0,417.0,428.0,428.0,428.0,416.0,418.0,429.0,430.0,426.0,413.0,418.0,429.0,426.0,426.0,412.0,420.0,425.0,428.0,425.0,412.0,418.0,427.0,428.0,424.0,411.0,423.0,434.0,425.0,423.0,412.0,426.0,435.0,426.0,424.0,412.0,426.0,433.0,427.0,424.0,414.0,427.0,435.0,423.0,420.0,423.0,430.0,434.0,421.0,419.0,421.0,427.0,433.0,418.0,417.0,415.0,426.0,430.0,418.0,419.0,417.0,426.0,429.0,416.0,419.0,418.0,426.0,425.0,418.0,415.0,418.0,425.0,430.0,417.0,416.0,422.0,427.0,427.0,414.0,419.0,431.0,430.0,428.0,413.0,421.0,426.0,429.0,424.0,410.0,418.0,426.0,427.0,423.0,411.0,423.0,433.0,426.0,422.0,412.0,424.0,434.0,424.0,424.0,412.0,425.0,434.0,426.0,421.0,414.0,426.0,433.0,426.0,422.0,414.0,427.0,432.0,424.0,421.0,415.0,422.0,431.0,422.0,417.0,409.0,422.0,432.0,423.0,420.0,418.0,427.0,429.0,416.0,419.0,420.0,429.0,428.0,421.0,419.0,421.0,429.0,433.0,420.0,418.0,422.0,428.0,425.0,412.0,418.0,432.0,431.0,427.0,413.0,423.0,429.0,431.0,426.0,413.0,418.0,430.0,430.0,424.0,416.0,418.0,429.0,430.0,423.0,414.0,417.0,429.0,426.0,425.0,413.0,419.0,430.0,428.0,425.0,413.0,421.0,431.0,423.0,420.0,414.0,426.0,431.0,423.0,419.0,415.0,422.0,431.0,423.0,419.0,411.0,424.0,433.0,421.0,419.0,417.0,427.0,430.0,417.0,420.0,420.0,429.0,428.0,421.0,420.0,423.0,429.0,434.0,419.0,418.0,424.0,428.0,431.0,420.0,417.0,426.0,429.0,432.0,419.0,418.0,419.0,427.0,429.0,416.0,419.0,421.0,430.0,429.0,416.0,418.0,428.0,427.0,424.0,414.0,418.0,429.0,426.0,425.0,414.0,418.0,430.0,428.0,425.0,413.0,423.0,433.0,427.0,422.0,416.0,428.0,434.0,426.0,421.0,419.0,426.0,435.0,426.0,423.0,413.0,425.0,433.0,422.0,422.0,414.0,426.0,433.0,421.0,421.0,413.0,427.0,433.0,425.0,422.0,416.0,427.0,433.0,424.0,420.0,416.0,428.0,432.0,418.0,419.0,426.0,428.0,431.0,419.0,417.0,421.0,429.0,428.0,416.0,418.0,421.0,430.0,429.0,418.0,420.0,432.0,430.0,425.0,416.0,420.0,431.0,428.0,427.0,415.0,423.0,433.0,430.0,426.0,414.0,423.0,430.0,431.0,424.0,413.0,424.0,430.0,430.0,425.0,414.0,419.0,431.0,428.0,424.0,415.0,419.0,431.0,427.0,425.0,416.0,431.0,436.0,424.0,424.0,416.0,428.0,436.0,427.0,423.0,417.0,430.0,434.0,426.0,422.0,418.0,429.0,433.0,420.0,420.0,428.0,429.0,431.0,419.0,420.0,422.0,430.0,431.0,417.0,420.0,422.0,430.0,427.0,419.0,417.0,423.0,428.0,427.0,420.0,418.0,425.0,429.0,432.0,418.0,418.0,426.0,426.0,428.0,415.0,417.0,426.0,427.0,422.0,411.0,422.0,427.0,427.0,424.0,413.0,420.0,431.0,428.0,423.0,414.0,419.0,430.0,426.0,421.0,413.0,427.0,433.0,421.0,421.0,415.0,428.0,434.0,425.0,420.0,415.0,426.0,432.0,423.0,420.0,416.0,424.0,433.0,422.0,420.0,419.0,424.0,431.0,420.0,419.0,413.0,427.0,433.0,419.0,420.0,412.0,424.0,432.0,417.0,415.0,421.0,426.0,424.0,416.0,417.0,423.0,426.0,429.0,416.0,415.0,426.0,427.0,428.0,413.0,415.0,426.0,426.0,421.0,409.0,423.0,428.0,426.0,422.0,411.0,417.0,430.0,426.0,423.0,413.0,421.0,431.0,425.0,425.0,410.0,420.0,432.0,424.0,424.0,411.0,421.0,433.0,428.0,423.0,410.0,422.0,429.0,427.0,423.0,411.0,425.0,434.0,422.0,419.0,419.0,426.0,434.0,421.0,419.0,413.0,426.0,434.0,420.0,422.0,415.0,427.0,432.0,419.0,418.0,425.0,430.0
