360.0,357.0,366.0,375.0,366.0,367.0,358.0,368.0,375.0,367.0,364.0,357.0,368.0,374.0,361.0,358.0,361.0,366.0,370.0,358.0,358.0,364.0,366.0,371.0,362.0,362.0,363.0,370.0,372.0,359.0,363.0,362.0,370.0,372.0,358.0,361.0,364.0,368.0,370.0,361.0,360.0,365.0,369.0,372.0,358.0,358.0,364.0,367.0,366.0,355.0,360.0,370.0,369.0,369.0,356.0,364.0,370.0,370.0,366.0,354.0,359.0,370.0,368.0,369.0,357.0,367.0,376.0,364.0,362.0,355.0,367.0,380.0,367.0,368.0,360.0,369.0,376.0,367.0,364.0,359.0,370.0,374.0,366.0,363.0,360.0,368.0,373.0,362.0,360.0,356.0,362.0,370.0,362.0,360.0,353.0,366.0,373.0,358.0,357.0,357.0,361.0,363.0,352.0,357.0,359.0,364.0,364.0,355.0,353.0,356.0,358.0,367.0,353.0,352.0,356.0,356.0,355.0,343.0,355.0,362.0,357.0,352.0,339.0,352.0,356.0,369.0,384.0,358.0,364.0,370.0,360.0,362.0,351.0,359.0,375.0,371.0,373.0,358.0,365.0,374.0,370.0,371.0,361.0,371.0,378.0,370.0,365.0,347.0,359.0,362.0,348.0,349.0,342.0,351.0,362.0,353.0,350.0,349.0,356.0,366.0,351.0,349.0,344.0,354.0,366.0,351.0,352.0,360.0,358.0,361.0,343.0,350.0,347.0,352.0,357.0,347.0,350.0,350.0,350.0,354.0,341.0,342.0,352.0,353.0,356.0,341.0,350.0,360.0,357.0,362.0,349.0,353.0,359.0,367.0,368.0,352.0,351.0,355.0,354.0,356.0,342.0,350.0,361.0,354.0,349.0,341.0,346.0,358.0,353.0,356.0,339.0,351.0,358.0,357.0,355.0,341.0,346.0,359.0,349.0,350.0,350.0,354.0,364.0,351.0,349.0,351.0,353.0,363.0,349.0,353.0,347.0,358.0,365.0,348.0,351.0,345.0,351.0,357.0,343.0,346.0,339.0,348.0,358.0,351.0,350.0,352.0,354.0,368.0,358.0,351.0,350.0,356.0,357.0,344.0,345.0,356.0,354.0,356.0,340.0,345.0,360.0,365.0,362.0,349.0,356.0,364.0,363.0,365.0,351.0,354.0,362.0,352.0,352.0,344.0,353.0,365.0,360.0,360.0,348.0,357.0,362.0,356.0,358.0,343.0,349.0,352.0,345.0,345.0,339.0,351.0,358.0,355.0,356.0,348.0,357.0,360.0,353.0,351.0,339.0,348.0,357.0,349.0,348.0,345.0,355.0,360.0,345.0,349.0,346.0,353.0,358.0,352.0,352.0,358.0,362.0,367.0,353.0,351.0,351.0,354.0,362.0,351.0,351.0,358.0,356.0,355.0,342.0,347.0,354.0,357.0,359.0,344.0,348.0,355.0,356.0,352.0,346.0,346.0,356.0,356.0,354.0,345.0,348.0,357.0,354.0,356.0,345.0,352.0,360.0,359.0,357.0,347.0,352.0,364.0,360.0,358.0,350.0,359.0,365.0,360.0,356.0,353.0,362.0,368.0,362.0,359.0,350.0,357.0,366.0,358.0,355.0,353.0,357.0,362.0,352.0,354.0,354.0,361.0,362.0,352.0,352.0,354.0,357.0,366.0,356.0,355.0,358.0,357.0,365.0,353.0,353.0,360.0,362.0,367.0,357.0,353.0,353.0,361.0,365.0,353.0,355.0,356.0,363.0,365.0,356.0,358.0,366.0,366.0,363.0,355.0,357.0,367.0,360.0,361.0,351.0,355.0,365.0,362.0,361.0,349.0,357.0,370.0,364.0,361.0,353.0,362.0,367.0,361.0,358.0,353.0,356.0,364.0,356.0,351.0,344.0,355.0,365.0,355.0,355.0,348.0,357.0,365.0,355.0,355.0,347.0,359.0,366.0,358.0,355.0,350.0,359.0,364.0,357.0,355.0,350.0,361.0,362.0,347.0,347.0,355.0,356.0,361.0,349.0,350.0,352.0,359.0,364.0,350.0,352.0,354.0,360.0,361.0,349.0,354.0,364.0,361.0,358.0,350.0,355.0,364.0,359.0,360.0,351.0,358.0,367.0,362.0,362.0,348.0,356.0,361.0,363.0,363.0,350.0,358.0,363.0,362.0,358.0,347.0,353.0,363.0,355.0,353.0,345.0,350.0,361.0,357.0,355.0,348.0,359.0,370.0,356.0,358.0,350.0,361.0,366.0,358.0,356.0,352.0,362.0,369.0,360.0,359.0,353.0,361.0,365.0,351.0,352.0,361.0,362.0,362.0,349.0,350.0,356.0,361.0,363.0,351.0,355.0,357.0,365.0,364.0,356.0,355.0,361.0,363.0,362.0,355.0,355.0,362.0,364.0,367.0,356.0,357.0,364.0,364.0,365.0,355.0,355.0,363.0,363.0,360.0,349.0,360.0,363.0,361.0,359.0,350.0,356.0,366.0,362.0,360.0,351.0,356.0,366.0,361.0,359.0,352.0,362.0,369.0,359.0,360.0,355.0,364.0,368.0,360.0,358.0,355.0,365.0,370.0,362.0,359.0,358.0,362.0,371.0,360.0,358.0,360.0,364.0,370.0,359.0,358.0,354.0,363.0,369.0,358.0,359.0,357.0,364.0,368.0,357.0,352.0,360.0,363.0,360.0,354.0,353.0,362.0,363.0,365.0,354.0,351.0,362.0,361.0,362.0,352.0,355.0,365.0,363.0,360.0,352.0,362.0,368.0,364.0,361.0,354.0,359.0,369.0,365.0,361.0,353.0,362.0,371.0,364.0,365.0,354.0,364.0,371.0,365.0,365.0,356.0,368.0,372.0,364.0,361.0,354.0,365.0,370.0,366.0,363.0,357.0,366.0,369.0,357.0,354.0,358.0,362.0,368.0,357.0,356.0,355.0,364.0,373.0,360.0,361.0,360.0,368.0,370.0,359.0,359.0,367.0,367.0,368.0,359.0,359.0,368.0,366.0,366.0,355.0,357.0,367.0,363.0,362.0,351.0,355.0,362.0,364.0,362.0,350.0,357.0,363.0,364.0,361.0,350.0,354.0,364.0,364.0,362.0,355.0,356.0,367.0,365.0,361.0,353.0,361.0,370.0,361.0,361.0,353.0,363.0,369.0,362.0,360.0,354.0,365.0,369.0,365.0,362.0,356.0,366.0,371.0,359.0,359.0,362.0,365.0,369.0,358.0,357.0,362.0,368.0,372.0,359.0,361.0,360.0,366.0,368.0,363.0,362.0,362.0,367.0,367.0,360.0,358.0,360.0,365.0,373.0,359.0,358.0,362.0,364.0,368.0,356.0,356.0,363.0,364.0,359.0,345.0,356.0,361.0,361.0,359.0,347.0,353.0,363.0,362.0,359.0,352.0,354.0,365.0,361.0,358.0,348.0,359.0,366.0,357.0,359.0,350.0,360.0,368.0,359.0,357.0,351.0,361.0,366.0,358.0,356.0,351.0,357.0,366.0,357.0,355.0,353.0,358.0,371.0,359.0,358.0,350.0,361.0,367.0,356.0,357.0,349.0,357.0,366.0,353.0,352.0,357.0,360.0,361.0,354.0,353.0,362.0,364.0,369.0,355.0,355.0,363.0,363.0,367.0,353.0,355.0,363.0,364.0,362.0,349.0,359.0,364.0,361.0,360.0,348.0,350.0,360.0,357.0,355.0,347.0,352.0,362.0,357.0,359.0,347.0,355.0,365.0,357.0,358.0,345.0,354.0,364.0,360.0,356.0,345.0,356.0,363.0,359.0,358.0,347.0,358.0,366.0,357.0,356.0,356.0,358.0,365.0,354.0,353.0,349.0,360.0,367.0,355.0,354.0,347.0,357.0,364.0,352.0,352.0,358.0,361.0,360.0,354.0,357.0,363.0,364.0,367.0,354.0,355.0,364.0,363.0,370.0,357.0,359.0,362.0,367.0,367.0,354.0,357.0,362.0,365.0,368.0,356.0,359.0,364.0,366.0,364.0,357.0,357.0,365.0,366.0,363.0,351.0,359.0,368.0,360.0,361.0,350.0,355.0,364.0,359.0,358.0,348.0,359.0,364.0,363.0,360.0,352.0,361.0,370.0,359.0,357.0,360.0,366.0,372.0,363.0,362.0,358.0,368.0,373.0,361.0,362.0,359.0,367.0,368.0,357.0,357.0,355.0,363.0,366.0,360.0,358.0,359.0,364.0,369.0,357.0,354.0,357.0,363.0,369.0,358.0,356.0,362.0,367.0,364.0,351.0,356.0,361.0,364.0,363.0,351.0,356.0,363.0,364.0,362.0,355.0,355.0,366.0,364.0,363.0,352.0,361.0,368.0,360.0,362.0,351.0,362.0,370.0,363.0,361.0,352.0,357.0,364.0,358.0,356.0,350.0,357.0
442.0,437.0,453.0,456.0,446.0,446.0,437.0,452.0,456.0,450.0,445.0,438.0,454.0,455.0,444.0,444.0,449.0,455.0,454.0,442.0,445.0,451.0,456.0,453.0,442.0,445.0,446.0,458.0,453.0,442.0,446.0,447.0,459.0,452.0,441.0,446.0,450.0,458.0,451.0,446.0,446.0,452.0,458.0,456.0,444.0,446.0,453.0,458.0,449.0,436.0,449.0,457.0,457.0,450.0,438.0,453.0,456.0,457.0,451.0,437.0,449.0,457.0,457.0,451.0,439.0,456.0,460.0,450.0,448.0,440.0,457.0,460.0,449.0,449.0,441.0,457.0,459.0,452.0,448.0,441.0,456.0,459.0,449.0,448.0,442.0,458.0,460.0,449.0,447.0,447.0,454.0,460.0,448.0,446.0,438.0,454.0,458.0,442.0,440.0,442.0,450.0,445.0,433.0,439.0,443.0,450.0,445.0,436.0,438.0,442.0,445.0,446.0,433.0,435.0,442.0,442.0,436.0,421.0,436.0,443.0,439.0,432.0,419.0,437.0,441.0,474.0,480.0,454.0,455.0,461.0,453.0,451.0,434.0,444.0,458.0,450.0,443.0,428.0,441.0,452.0,449.0,450.0,442.0,453.0,452.0,448.0,448.0,426.0,446.0,448.0,432.0,429.0,435.0,448.0,456.0,443.0,439.0,436.0,445.0,453.0,438.0,436.0,434.0,452.0,455.0,438.0,440.0,448.0,453.0,446.0,429.0,433.0,437.0,441.0,439.0,426.0,431.0,436.0,433.0,432.0,418.0,421.0,431.0,435.0,434.0,423.0,431.0,441.0,435.0,434.0,419.0,427.0,429.0,439.0,432.0,422.0,425.0,426.0,430.0,422.0,409.0,422.0,432.0,426.0,422.0,413.0,428.0,436.0,430.0,435.0,422.0,438.0,445.0,449.0,445.0,428.0,440.0,446.0,438.0,440.0,445.0,457.0,460.0,445.0,441.0,440.0,446.0,449.0,440.0,442.0,435.0,451.0,455.0,441.0,439.0,432.0,448.0,449.0,433.0,439.0,434.0,449.0,449.0,444.0,442.0,442.0,456.0,459.0,442.0,435.0,441.0,448.0,438.0,421.0,424.0,437.0,439.0,433.0,419.0,433.0,442.0,450.0,447.0,437.0,447.0,455.0,454.0,447.0,430.0,437.0,442.0,429.0,429.0,422.0,437.0,445.0,441.0,437.0,428.0,440.0,440.0,437.0,433.0,422.0,432.0,433.0,427.0,423.0,414.0,434.0,434.0,433.0,430.0,423.0,436.0,441.0,435.0,432.0,420.0,435.0,441.0,435.0,431.0,429.0,443.0,440.0,431.0,433.0,434.0,446.0,440.0,439.0,436.0,441.0,450.0,448.0,441.0,438.0,441.0,451.0,446.0,437.0,440.0,447.0,450.0,441.0,431.0,440.0,445.0,453.0,445.0,435.0,437.0,449.0,451.0,443.0,439.0,440.0,450.0,453.0,444.0,438.0,443.0,453.0,454.0,448.0,439.0,444.0,452.0,454.0,448.0,435.0,445.0,452.0,450.0,443.0,436.0,452.0,453.0,448.0,443.0,439.0,452.0,454.0,450.0,444.0,434.0,446.0,451.0,444.0,441.0,438.0,449.0,446.0,437.0,441.0,441.0,451.0,446.0,440.0,438.0,439.0,447.0,449.0,436.0,437.0,441.0,445.0,446.0,433.0,435.0,441.0,446.0,445.0,432.0,435.0,434.0,445.0,443.0,430.0,436.0,435.0,446.0,442.0,428.0,435.0,445.0,443.0,439.0,426.0,435.0,444.0,439.0,439.0,424.0,434.0,444.0,440.0,437.0,421.0,434.0,446.0,435.0,435.0,426.0,439.0,445.0,433.0,433.0,428.0,435.0,445.0,431.0,433.0,421.0,436.0,446.0,429.0,434.0,423.0,436.0,445.0,427.0,432.0,424.0,438.0,445.0,431.0,432.0,425.0,438.0,445.0,431.0,433.0,427.0,439.0,443.0,423.0,430.0,438.0,436.0,440.0,423.0,430.0,432.0,438.0,439.0,420.0,429.0,430.0,436.0,438.0,420.0,430.0,443.0,433.0,436.0,421.0,432.0,444.0,433.0,437.0,419.0,433.0,443.0,435.0,436.0,418.0,432.0,440.0,436.0,436.0,419.0,435.0,441.0,435.0,435.0,420.0,431.0,442.0,433.0,434.0,420.0,431.0,443.0,432.0,434.0,422.0,438.0,444.0,425.0,432.0,424.0,437.0,445.0,429.0,431.0,426.0,438.0,445.0,430.0,432.0,429.0,439.0,442.0,423.0,429.0,440.0,439.0,441.0,424.0,429.0,433.0,440.0,439.0,422.0,430.0,434.0,439.0,440.0,427.0,431.0,438.0,440.0,439.0,426.0,431.0,439.0,439.0,442.0,425.0,431.0,442.0,442.0,442.0,426.0,433.0,444.0,440.0,437.0,422.0,438.0,444.0,438.0,439.0,425.0,436.0,447.0,438.0,437.0,422.0,435.0,447.0,435.0,436.0,428.0,442.0,447.0,430.0,436.0,430.0,441.0,445.0,432.0,433.0,430.0,440.0,447.0,431.0,435.0,432.0,439.0,447.0,430.0,432.0,436.0,441.0,447.0,429.0,433.0,428.0,441.0,447.0,428.0,435.0,429.0,442.0,445.0,427.0,431.0,439.0,440.0,437.0,425.0,432.0,440.0,438.0,440.0,424.0,430.0,441.0,439.0,438.0,423.0,432.0,443.0,437.0,436.0,423.0,439.0,444.0,436.0,435.0,425.0,435.0,446.0,436.0,437.0,423.0,440.0,446.0,435.0,438.0,424.0,443.0,450.0,436.0,440.0,426.0,444.0,450.0,440.0,439.0,428.0,445.0,449.0,442.0,439.0,431.0,446.0,449.0,432.0,435.0,438.0,446.0,447.0,430.0,434.0,431.0,444.0,447.0,431.0,436.0,434.0,445.0,445.0,429.0,434.0,442.0,442.0,438.0,426.0,433.0,444.0,440.0,440.0,425.0,433.0,443.0,443.0,439.0,424.0,434.0,440.0,443.0,438.0,423.0,435.0,441.0,442.0,438.0,423.0,434.0,443.0,442.0,438.0,428.0,434.0,445.0,441.0,437.0,424.0,441.0,449.0,434.0,437.0,426.0,444.0,448.0,440.0,438.0,430.0,445.0,449.0,440.0,438.0,432.0,446.0,449.0,434.0,436.0,443.0,448.0,450.0,433.0,436.0,437.0,448.0,448.0,433.0,437.0,437.0,445.0,443.0,434.0,436.0,438.0,446.0,443.0,433.0,435.0,439.0,444.0,445.0,430.0,433.0,439.0,443.0,445.0,429.0,432.0,442.0,443.0,438.0,422.0,439.0,442.0,442.0,438.0,423.0,435.0,444.0,440.0,438.0,426.0,435.0,445.0,441.0,438.0,426.0,441.0,448.0,433.0,438.0,428.0,443.0,448.0,438.0,437.0,431.0,444.0,448.0,438.0,437.0,432.0,442.0,448.0,436.0,435.0,433.0,441.0,449.0,436.0,435.0,427.0,442.0,448.0,434.0,437.0,428.0,444.0,448.0,433.0,435.0,441.0,446.0,441.0,433.0,434.0,443.0,447.0,447.0,433.0,436.0,444.0,447.0,445.0,432.0,436.0,446.0,446.0,440.0,426.0,443.0,446.0,445.0,440.0,428.0,438.0,448.0,444.0,438.0,428.0,440.0,449.0,444.0,442.0,429.0,443.0,449.0,443.0,440.0,428.0,442.0,449.0,447.0,440.0,427.0,444.0,447.0,445.0,440.0,429.0,445.0,451.0,440.0,439.0,440.0,448.0,451.0,439.0,439.0,432.0,448.0,451.0,439.0,440.0,435.0,448.0,448.0,436.0,437.0,444.0,450.0,443.0,436.0,438.0,446.0,449.0,446.0,435.0,438.0,448.0,451.0,446.0,435.0,440.0,442.0,451.0,444.0,433.0,441.0,445.0,452.0,444.0,432.0,440.0,447.0,454.0,445.0,438.0,441.0,449.0,452.0,444.0,431.0,446.0,452.0,445.0,443.0,431.0,445.0,450.0,447.0,441.0,431.0,448.0,451.0,448.0,442.0,433.0,450.0,452.0,442.0,440.0,442.0,450.0,451.0,441.0,441.0,436.0,450.0,450.0,439.0,441.0,437.0,450.0,448.0,443.0,440.0,439.0,450.0,447.0,443.0,441.0,443.0,453.0,452.0,442.0,440.0,443.0,450.0,450.0,439.0,440.0,445.0,453.0,445.0,433.0,443.0,447.0,452.0,444.0,432.0,441.0,449.0,453.0,445.0,437.0,441.0,450.0,453.0,445.0,435.0,450.0,454.0,447.0,444.0,434.0,451.0,454.0,450.0,445.0,436.0,451.0,452.0,449.0,442.0,435.0,447.0
2.0,4.0,4.0,4.0,3.0,4.0,4.0,4.0,3.0,4.0,3.0,5.0,3.0,3.0,2.0,4.0,3.0,4.0,2.0,5.0,3.0,3.0,3.0,3.0,4.0,4.0,4.0,3.0,3.0,4.0,4.0,3.0,4.0,4.0,4.0,4.0,4.0,3.0,4.0,2.0,4.0,3.0,5.0,4.0,4.0,3.0,3.0,3.0,4.0,4.0,3.0,4.0,3.0,4.0,4.0,4.0,4.0,3.0,3.0,3.0,4.0,4.0,4.0,4.0,3.0,4.0,3.0,4.0,4.0,3.0,3.0,3.0,3.0,3.0,4.0,4.0,4.0,3.0,4.0,4.0,4.0,4.0,3.0,3.0,4.0,4.0,4.0,4.0,4.0,4.0,4.0,3.0,5.0,3.0,4.0,4.0,3.0,4.0,4.0,4.0,3.0,3.0,3.0,4.0,4.0,4.0,3.0,4.0,3.0,3.0,4.0,4.0,2.0,3.0,2.0,3.0,4.0,4.0,3.0,4.0,3.0,3.0,3.0,4.0,4.0,3.0,3.0,3.0,4.0,3.0,4.0,4.0,5.0,3.0,4.0,3.0,4.0,2.0,5.0,3.0,3.0,3.0,5.0,3.0,4.0,4.0,4.0,4.0,4.0,4.0,3.0,3.0,3.0,4.0,4.0,4.0,3.0,3.0,3.0,4.0,3.0,4.0,4.0,3.0,3.0,4.0,3.0,5.0,4.0,4.0,3.0,3.0,4.0,4.0,4.0,3.0,4.0,3.0,4.0,4.0,4.0,3.0,3.0,3.0,4.0,3.0,4.0,2.0,4.0,3.0,3.0,3.0,4.0,4.0,3.0,4.0,3.0,4.0,3.0,4.0,4.0,4.0,3.0,3.0,4.0,4.0,2.0,4.0,3.0,4.0,3.0,4.0,2.0,3.0,4.0,4.0,3.0,3.0,4.0,3.0,3.0,3.0,4.0,4.0,3.0,4.0,4.0,3.0,3.0,3.0,4.0,3.0,4.0,3.0,3.0,3.0,5.0,4.0,3.0,3.0,3.0,3.0,3.0,4.0,4.0,4.0,3.0,4.0,3.0,4.0,4.0,4.0,3.0,4.0,4.0,3.0,3.0,4.0,3.0,4.0,3.0,5.0,3.0,3.0,3.0,4.0,3.0,4.0,3.0,3.0,3.0,4.0,3.0,3.0,4.0,4.0,4.0,3.0,4.0,3.0,4.0,4.0,3.0,3.0,4.0,3.0,3.0,2.0,4.0,3.0,3.0,3.0,4.0,3.0,4.0,4.0,4.0,3.0,4.0,4.0,3.0,4.0,3.0,3.0,4.0,4.0,2.0,4.0,3.0,4.0,4.0,4.0,2.0,3.0,3.0,4.0,3.0,4.0,3.0,3.0,3.0,3.0,4.0,4.0,4.0,4.0,4.0,3.0,3.0,4.0,4.0,2.0,5.0,3.0,4.0,4.0,4.0,2.0,4.0,3.0,3.0,3.0,4.0,3.0,3.0,3.0,3.0,4.0,4.0,4.0,3.0,4.0,3.0,4.0,4.0,4.0,2.0,3.0,3.0,4.0,4.0,4.0,4.0,4.0,3.0,3.0,4.0,4.0,3.0,3.0,3.0,3.0,3.0,4.0,4.0,3.0,3.0,3.0,4.0,3.0,4.0,4.0,3.0,2.0,4.0,3.0,4.0,4.0,4.0,3.0,3.0,3.0,4.0,3.0,3.0,3.0,4.0,3.0,4.0,4.0,3.0,4.0,3.0,4.0,4.0,4.0,4.0,4.0,3.0,3.0,4.0,5.0,2.0,4.0,3.0,4.0,4.0,4.0,4.0,3.0,4.0,3.0,3.0,4.0,4.0,3.0,4.0,3.0,4.0,3.0,4.0,4.0,3.0,3.0,4.0,3.0,4.0,4.0,3.0,3.0,3.0,3.0,4.0,3.0,4.0,3.0,3.0,4.0,4.0,4.0,3.0,4.0,3.0,3.0,3.0,5.0,3.0,4.0,4.0,4.0,3.0,5.0,4.0,4.0,3.0,3.0,3.0,5.0,4.0,4.0,3.0,3.0,3.0,4.0,3.0,4.0,3.0,3.0,4.0,4.0,4.0,2.0,4.0,4.0,4.0,3.0,4.0,3.0,3.0,3.0,4.0,3.0,4.0,3.0,3.0,3.0,3.0,4.0,3.0,4.0,3.0,4.0,3.0,3.0,4.0,4.0,3.0,4.0,3.0,4.0,4.0,5.0,3.0,3.0,3.0,3.0,3.0,5.0,4.0,3.0,4.0,3.0,4.0,4.0,4.0,3.0,3.0,3.0,4.0,4.0,4.0,4.0,4.0,3.0,4.0,3.0,4.0,4.0,4.0,3.0,3.0,3.0,5.0,2.0,4.0,3.0,3.0,3.0,4.0,4.0,3.0,4.0,3.0,4.0,3.0,5.0,4.0,3.0,3.0,4.0,3.0,5.0,4.0,3.0,3.0,4.0,4.0,5.0,4.0,4.0,3.0,3.0,3.0,4.0,4.0,3.0,4.0,3.0,3.0,3.0,5.0,3.0,4.0,3.0,3.0,4.0,5.0,4.0,4.0,3.0,3.0,3.0,3.0,3.0,3.0,4.0,3.0,4.0,4.0,4.0,3.0,4.0,3.0,3.0,3.0,4.0,2.0,4.0,4.0,3.0,3.0,5.0,3.0,4.0,3.0,3.0,4.0,4.0,3.0,4.0,4.0,3.0,4.0,4.0,4.0,3.0,4.0,3.0,4.0,4.0,4.0,2.0,4.0,3.0,3.0,4.0,5.0,3.0,3.0,3.0,4.0,3.0,4.0,4.0,3.0,3.0,4.0,3.0,4.0,4.0,3.0,4.0,3.0,4.0,3.0,5.0,2.0,4.0,3.0,4.0,3.0,5.0,3.0,4.0,3.0,4.0,3.0,4.0,4.0,4.0,4.0,3.0,4.0,4.0,4.0,4.0,4.0,3.0,4.0,3.0,4.0,3.0,3.0,3.0,4.0,3.0,5.0,4.0,4.0,3.0,3.0,3.0,4.0,4.0,3.0,3.0,3.0,4.0,4.0,3.0,3.0,4.0,3.0,4.0,3.0,5.0,4.0,4.0,3.0,4.0,4.0,5.0,4.0,3.0,3.0,3.0,3.0,5.0,4.0,4.0,3.0,3.0,3.0,4.0,4.0,3.0,3.0,3.0,3.0,4.0,5.0,3.0,4.0,3.0,4.0,4.0,5.0,3.0,4.0,3.0,4.0,4.0,4.0,3.0,5.0,4.0,3.0,3.0,4.0,4.0,4.0,3.0,3.0,4.0,4.0,4.0,4.0,3.0,3.0,3.0,4.0,5.0,3.0,3.0,4.0,3.0,3.0,5.0,4.0,3.0,3.0,3.0,3.0,4.0,4.0,4.0,4.0,3.0,4.0,3.0,4.0,3.0,4.0,3.0,3.0,3.0,4.0,2.0,3.0,3.0,3.0,3.0,4.0,3.0,4.0,4.0,3.0,3.0,4.0,4.0,3.0,4.0,3.0,3.0,3.0,5.0,2.0,3.0,3.0,3.0,3.0,4.0,4.0,3.0,3.0,4.0,4.0,4.0,4.0,3.0,4.0,3.0,3.0,4.0,4.0,4.0,4.0,3.0,4.0,3.0,5.0,3.0,4.0,3.0,4.0,3.0,4.0,4.0,4.0,3.0,4.0,3.0,5.0,4.0,3.0,3.0,3.0,3.0,4.0,4.0,3.0,4.0,3.0,4.0,3.0,5.0,2.0,3.0,3.0,3.0,3.0,4.0,4.0,4.0,4.0,4.0,4.0,5.0,4.0,3.0,3.0,3.0,4.0,4.0,4.0,3.0,4.0,4.0,4.0,4.0,4.0,3.0,3.0,3.0,4.0,3.0,4.0,3.0,4.0,3.0,3.0,3.0,4.0,3.0,3.0,3.0,3.0,4.0,3.0,4.0,3.0,3.0,4.0,4.0,3.0,4.0,4.0,4.0,3.0,4.0,4.0,4.0,4.0,4.0,3.0,4.0,3.0,4.0,3.0,4.0,4.0,3.0,4.0,3.0,4.0,4.0,4.0,3.0,4.0,3.0,4.0,4.0,4.0,3.0,3.0,3.0,2.0,2.0,3.0,3.0,4.0,4.0,5.0,4.0,3.0,3.0,3.0,4.0,3.0,4.0,4.0,4.0,3.0,4.0,3.0,4.0,2.0,4.0,3.0,3.0,3.0,4.0,4.0,3.0,3.0,3.0,3.0,4.0,4.0,3.0,4.0,3.0,4.0,3.0,4.0,3.0,4.0,3.0,4.0,3.0,5.0,4.0,4.0,3.0,3.0,4.0,4.0,4.0,4.0,3.0,4.0,4.0,4.0,4.0,4.0,4.0,3.0,4.0,4.0,4.0
421.0,418.0,430.0,436.0,423.0,423.0,416.0,428.0,435.0,424.0,421.0,415.0,428.0,433.0,420.0,420.0,429.0,431.0,433.0,419.0,421.0,431.0,433.0,434.0,422.0,424.0,427.0,434.0,434.0,419.0,423.0,426.0,434.0,431.0,419.0,423.0,429.0,434.0,430.0,422.0,422.0,431.0,433.0,437.0,423.0,425.0,435.0,437.0,432.0,417.0,428.0,439.0,433.0,429.0,416.0,429.0,435.0,433.0,430.0,417.0,426.0,437.0,433.0,429.0,419.0,431.0,439.0,426.0,424.0,420.0,433.0,438.0,425.0,427.0,420.0,432.0,438.0,429.0,427.0,424.0,435.0,441.0,430.0,427.0,426.0,438.0,441.0,429.0,425.0,428.0,434.0,443.0,430.0,428.0,423.0,436.0,440.0,427.0,425.0,429.0,434.0,432.0,417.0,422.0,427.0,432.0,428.0,419.0,419.0,425.0,427.0,430.0,419.0,417.0,424.0,423.0,422.0,411.0,422.0,437.0,428.0,418.0,408.0,426.0,421.0,436.0,446.0,434.0,439.0,445.0,435.0,425.0,412.0,413.0,416.0,407.0,400.0,396.0,419.0,435.0,430.0,432.0,425.0,436.0,442.0,437.0,426.0,409.0,427.0,444.0,427.0,415.0,415.0,420.0,425.0,410.0,406.0,406.0,416.0,432.0,413.0,412.0,407.0,424.0,431.0,416.0,418.0,429.0,429.0,434.0,416.0,418.0,422.0,416.0,406.0,398.0,410.0,416.0,408.0,411.0,398.0,405.0,416.0,423.0,422.0,416.0,423.0,427.0,416.0,409.0,386.0,393.0,397.0,405.0,406.0,393.0,400.0,417.0,417.0,417.0,403.0,405.0,411.0,404.0,400.0,387.0,398.0,408.0,404.0,405.0,393.0,410.0,414.0,417.0,420.0,415.0,423.0,425.0,414.0,419.0,423.0,428.0,430.0,412.0,407.0,413.0,418.0,419.0,410.0,416.0,409.0,422.0,425.0,405.0,410.0,411.0,422.0,429.0,411.0,411.0,404.0,423.0,428.0,426.0,426.0,426.0,434.0,443.0,422.0,426.0,431.0,432.0,432.0,416.0,415.0,420.0,416.0,417.0,407.0,412.0,432.0,433.0,441.0,430.0,431.0,432.0,423.0,430.0,408.0,409.0,422.0,407.0,418.0,415.0,425.0,437.0,420.0,423.0,413.0,420.0,425.0,416.0,411.0,395.0,396.0,402.0,398.0,401.0,393.0,413.0,421.0,412.0,410.0,405.0,414.0,425.0,417.0,412.0,402.0,416.0,425.0,415.0,411.0,412.0,418.0,418.0,410.0,412.0,415.0,423.0,421.0,421.0,417.0,420.0,428.0,429.0,421.0,418.0,428.0,434.0,431.0,418.0,419.0,429.0,428.0,424.0,414.0,421.0,429.0,433.0,429.0,419.0,420.0,433.0,430.0,424.0,419.0,421.0,433.0,435.0,427.0,421.0,424.0,437.0,434.0,431.0,421.0,426.0,437.0,438.0,433.0,422.0,429.0,439.0,433.0,428.0,423.0,433.0,437.0,428.0,425.0,423.0,432.0,438.0,428.0,423.0,415.0,425.0,430.0,422.0,418.0,418.0,427.0,427.0,415.0,418.0,421.0,428.0,426.0,418.0,417.0,422.0,427.0,432.0,419.0,418.0,424.0,425.0,426.0,413.0,412.0,423.0,426.0,427.0,414.0,415.0,416.0,424.0,424.0,412.0,415.0,418.0,425.0,423.0,411.0,417.0,427.0,424.0,418.0,409.0,416.0,427.0,422.0,421.0,408.0,417.0,428.0,425.0,421.0,409.0,420.0,430.0,420.0,418.0,412.0,423.0,428.0,419.0,415.0,414.0,420.0,429.0,417.0,415.0,407.0,421.0,429.0,416.0,416.0,409.0,420.0,427.0,417.0,418.0,412.0,423.0,426.0,420.0,416.0,413.0,424.0,429.0,420.0,416.0,415.0,425.0,425.0,411.0,411.0,421.0,422.0,421.0,411.0,413.0,417.0,422.0,421.0,409.0,412.0,416.0,422.0,419.0,407.0,414.0,426.0,421.0,417.0,407.0,416.0,427.0,420.0,421.0,407.0,419.0,428.0,424.0,419.0,407.0,418.0,423.0,421.0,419.0,407.0,421.0,427.0,424.0,418.0,407.0,414.0,426.0,421.0,418.0,408.0,417.0,428.0,421.0,418.0,412.0,425.0,430.0,417.0,418.0,416.0,426.0,430.0,420.0,417.0,415.0,424.0,429.0,419.0,416.0,417.0,425.0,424.0,412.0,414.0,425.0,425.0,424.0,411.0,415.0,420.0,427.0,422.0,410.0,414.0,421.0,426.0,424.0,417.0,417.0,426.0,429.0,423.0,416.0,418.0,427.0,428.0,427.0,414.0,418.0,428.0,427.0,425.0,413.0,418.0,430.0,427.0,421.0,411.0,425.0,430.0,425.0,422.0,412.0,420.0,429.0,423.0,418.0,408.0,420.0,429.0,420.0,417.0,413.0,423.0,428.0,414.0,416.0,413.0,424.0,426.0,418.0,416.0,416.0,424.0,430.0,417.0,417.0,418.0,423.0,428.0,416.0,414.0,420.0,423.0,428.0,415.0,414.0,414.0,425.0,430.0,414.0,417.0,415.0,425.0,426.0,413.0,413.0,423.0,424.0,420.0,412.0,416.0,427.0,426.0,425.0,413.0,417.0,428.0,426.0,423.0,411.0,418.0,431.0,426.0,421.0,412.0,424.0,428.0,423.0,418.0,412.0,420.0,429.0,422.0,417.0,408.0,423.0,429.0,421.0,420.0,409.0,424.0,433.0,422.0,422.0,412.0,428.0,433.0,425.0,421.0,414.0,427.0,430.0,423.0,420.0,415.0,426.0,430.0,413.0,412.0,420.0,426.0,428.0,414.0,414.0,414.0,424.0,428.0,413.0,417.0,417.0,424.0,425.0,412.0,414.0,424.0,423.0,418.0,409.0,414.0,425.0,422.0,422.0,410.0,417.0,429.0,426.0,421.0,406.0,416.0,421.0,424.0,419.0,404.0,416.0,424.0,424.0,420.0,407.0,415.0,425.0,424.0,419.0,410.0,415.0,430.0,423.0,420.0,409.0,422.0,431.0,417.0,417.0,409.0,423.0,429.0,421.0,418.0,412.0,425.0,429.0,420.0,417.0,413.0,425.0,428.0,413.0,413.0,422.0,424.0,427.0,412.0,415.0,418.0,428.0,427.0,414.0,416.0,419.0,426.0,423.0,414.0,414.0,418.0,423.0,422.0,413.0,413.0,420.0,423.0,425.0,410.0,410.0,420.0,421.0,423.0,407.0,408.0,420.0,420.0,416.0,402.0,417.0,422.0,420.0,416.0,405.0,414.0,424.0,422.0,418.0,409.0,416.0,427.0,421.0,416.0,409.0,422.0,429.0,416.0,417.0,410.0,421.0,427.0,417.0,414.0,410.0,419.0,426.0,416.0,413.0,412.0,419.0,427.0,416.0,414.0,416.0,422.0,429.0,416.0,415.0,410.0,422.0,429.0,414.0,416.0,409.0,421.0,425.0,411.0,411.0,420.0,422.0,420.0,410.0,412.0,422.0,424.0,423.0,409.0,411.0,421.0,421.0,422.0,408.0,411.0,423.0,420.0,417.0,405.0,419.0,425.0,422.0,418.0,408.0,415.0,426.0,420.0,417.0,407.0,418.0,428.0,421.0,420.0,407.0,418.0,427.0,420.0,419.0,406.0,418.0,428.0,421.0,417.0,405.0,419.0,426.0,421.0,417.0,408.0,420.0,429.0,416.0,413.0,417.0,422.0,428.0,414.0,412.0,410.0,421.0,427.0,413.0,416.0,413.0,422.0,425.0,412.0,412.0,421.0,424.0,418.0,411.0,413.0,424.0,423.0,424.0,411.0,415.0,426.0,425.0,423.0,411.0,416.0,420.0,423.0,421.0,407.0,416.0,422.0,423.0,419.0,406.0,411.0,422.0,425.0,421.0,413.0,413.0,424.0,423.0,420.0,406.0,421.0,430.0,419.0,419.0,409.0,420.0,429.0,422.0,418.0,410.0,424.0,428.0,421.0,418.0,411.0,422.0,429.0,416.0,414.0,420.0,424.0,430.0,417.0,417.0,417.0,427.0,430.0,417.0,420.0,420.0,430.0,430.0,421.0,418.0,419.0,427.0,426.0,419.0,417.0,421.0,428.0,431.0,419.0,418.0,425.0,428.0,431.0,419.0,418.0,426.0,431.0,426.0,413.0,421.0,428.0,429.0,424.0,413.0,418.0,428.0,428.0,424.0,415.0,418.0,429.0,427.0,422.0,412.0,424.0,432.0,421.0,421.0,413.0,427.0,433.0,426.0,422.0,415.0,428.0,433.0,425.0,420.0,416.0,424.0
