350.0,362.0,356.0,355.0,345.0,356.0,364.0,351.0,353.0,347.0,355.0,362.0,353.0,352.0,347.0,356.0,363.0,353.0,352.0,349.0,357.0,363.0,349.0,350.0,358.0,358.0,361.0,348.0,351.0,354.0,359.0,361.0,347.0,352.0,355.0,359.0,359.0,345.0,351.0,361.0,356.0,354.0,344.0,352.0,362.0,356.0,358.0,345.0,353.0,364.0,358.0,357.0,344.0,356.0,360.0,358.0,357.0,346.0,357.0,363.0,358.0,357.0,347.0,354.0,364.0,359.0,357.0,346.0,354.0,365.0,358.0,356.0,351.0,359.0,365.0,352.0,355.0,352.0,361.0,366.0,356.0,354.0,352.0,360.0,367.0,354.0,354.0,354.0,359.0,361.0,346.0,350.0,359.0,358.0,359.0,346.0,351.0,356.0,359.0,359.0,345.0,351.0,357.0,360.0,359.0,350.0,352.0,359.0,360.0,359.0,350.0,353.0,361.0,359.0,361.0,348.0,353.0,362.0,360.0,360.0,347.0,354.0,368.0,360.0,358.0,351.0,361.0,366.0,359.0,358.0,353.0,358.0,367.0,359.0,358.0,350.0,359.0,368.0,358.0,358.0,356.0,364.0,368.0,356.0,359.0,360.0,366.0,369.0,359.0,359.0,361.0,365.0,370.0,357.0,358.0,362.0,364.0,370.0,357.0,357.0,365.0,366.0,372.0,357.0,357.0,358.0,366.0,368.0,355.0,359.0,361.0,367.0,368.0,354.0,357.0,368.0,365.0,364.0,355.0,360.0,370.0,366.0,367.0,354.0,361.0,372.0,367.0,366.0,352.0,361.0,372.0,364.0,361.0,356.0,365.0,371.0,361.0,361.0,358.0,363.0,372.0,361.0,360.0,354.0,366.0,374.0,361.0,363.0,356.0,365.0,374.0,358.0,361.0,356.0,366.0,372.0,363.0,362.0,358.0,367.0,373.0,365.0,364.0,363.0,370.0,373.0,360.0,362.0,370.0,369.0,370.0,358.0,360.0,366.0,370.0,370.0,358.0,363.0,368.0,370.0,369.0,357.0,362.0,373.0,368.0,365.0,356.0,365.0,374.0,366.0,368.0,357.0,366.0,376.0,370.0,367.0,357.0,367.0,373.0,369.0,367.0,356.0,367.0,372.0,366.0,364.0,357.0,361.0,372.0,365.0,363.0,354.0,363.0,374.0,364.0,363.0,359.0,367.0,373.0,359.0,362.0,361.0,369.0,372.0,363.0,362.0,362.0,368.0,374.0,361.0,360.0,364.0,367.0,368.0,356.0,361.0,371.0,369.0,369.0,357.0,363.0,366.0,368.0,367.0,354.0,358.0,367.0,367.0,366.0,357.0,360.0,368.0,368.0,366.0,357.0,360.0,371.0,367.0,367.0,355.0,361.0,373.0,370.0,370.0,356.0,364.0,374.0,368.0,365.0,361.0,369.0,375.0,367.0,366.0,360.0,367.0,375.0,365.0,362.0,355.0,365.0,375.0,364.0,362.0,362.0,368.0,371.0,358.0,363.0,364.0,369.0,370.0,362.0,359.0,363.0,366.0,372.0,358.0,359.0,365.0,368.0,372.0,359.0,360.0,369.0,370.0,373.0,361.0,362.0,368.0,373.0,375.0,363.0,366.0,370.0,375.0,376.0,365.0,368.0,379.0,374.0,370.0,362.0,368.0,377.0,372.0,371.0,360.0,368.0,378.0,375.0,372.0,362.0,370.0,380.0,371.0,368.0,366.0,375.0,380.0,370.0,367.0,367.0,372.0,381.0,369.0,367.0,363.0,373.0,380.0,368.0,368.0,362.0,372.0,377.0,366.0,367.0,365.0,373.0,378.0,370.0,368.0,366.0,375.0,380.0,370.0,367.0,368.0,375.0,376.0,365.0,366.0,377.0,375.0,375.0,363.0,368.0,372.0,376.0,373.0,363.0,365.0,375.0,376.0,374.0,362.0,369.0,380.0,374.0,370.0,363.0,372.0,381.0,373.0,373.0,364.0,373.0,382.0,376.0,372.0,364.0,374.0,379.0,375.0,371.0,366.0,375.0,381.0,374.0,372.0,366.0,373.0,381.0,377.0,373.0,366.0,377.0,384.0,376.0,372.0,372.0,380.0,383.0,371.0,373.0,375.0,382.0,382.0,376.0,373.0,376.0,381.0,386.0,374.0,370.0,376.0,379.0,377.0,367.0,371.0,381.0,379.0,375.0,365.0,372.0,378.0,378.0,374.0,365.0,369.0,378.0,378.0,374.0,367.0,369.0,379.0,377.0,374.0,366.0,369.0,380.0,377.0,377.0,365.0,371.0,381.0,378.0,376.0,364.0,372.0,382.0,374.0,370.0,367.0,376.0,380.0,373.0,369.0,368.0,372.0,381.0,370.0,369.0,363.0,373.0,381.0,369.0,367.0,370.0,375.0,375.0,363.0,365.0,370.0,375.0,374.0,365.0,365.0,370.0,373.0,377.0,363.0,363.0,371.0,371.0,375.0,361.0,363.0,372.0,371.0,373.0,360.0,362.0,366.0,371.0,371.0,359.0,363.0,369.0,371.0,371.0,357.0,364.0,374.0,369.0,365.0,357.0,364.0,374.0,366.0,367.0,354.0,366.0,375.0,369.0,367.0,355.0,367.0,376.0,365.0,363.0,362.0,369.0,376.0,363.0,363.0,362.0,366.0,375.0,361.0,360.0,357.0,366.0,373.0,360.0,362.0,358.0,367.0,372.0,359.0,361.0,360.0,368.0,372.0,363.0,361.0,361.0,368.0,374.0,362.0,361.0,362.0,368.0,369.0,356.0,360.0,371.0,368.0,368.0,355.0,361.0,367.0,369.0,368.0,355.0,360.0,369.0,370.0,368.0,355.0,365.0,374.0,367.0,365.0,356.0,368.0,377.0,366.0,367.0,357.0,367.0,377.0,368.0,367.0,358.0,368.0,374.0,368.0,366.0,359.0,369.0,375.0,367.0,365.0,361.0,366.0,376.0,366.0,364.0,355.0,366.0,375.0,365.0,363.0,363.0,369.0,373.0,359.0,362.0,364.0,369.0,371.0,363.0,363.0,366.0,370.0,375.0,362.0,361.0,367.0,369.0,368.0,355.0,362.0,372.0,369.0,367.0,354.0,363.0,370.0,369.0,367.0,356.0,361.0,371.0,368.0,367.0,357.0,362.0,374.0,370.0,367.0,358.0,364.0,376.0,368.0,370.0,357.0,364.0,374.0,372.0,368.0,356.0,366.0,375.0,366.0,364.0,362.0,370.0,376.0,366.0,364.0,363.0,368.0,377.0,364.0,363.0,358.0,368.0,377.0,363.0,363.0,366.0,370.0,371.0,358.0,361.0,367.0,370.0,369.0,361.0,361.0,370.0,371.0,374.0,361.0,362.0,371.0,371.0,372.0,359.0,362.0,372.0,370.0,371.0,358.0,363.0,367.0,371.0,370.0,359.0,363.0,370.0,372.0,370.0,358.0,366.0,376.0,369.0,367.0,357.0,367.0,376.0,369.0,370.0,359.0,369.0,378.0,372.0,369.0,359.0,369.0,379.0,367.0,365.0,368.0,374.0,379.0,367.0,365.0,368.0,371.0,379.0,365.0,365.0,363.0,372.0,377.0,364.0,366.0,365.0,373.0,377.0,364.0,367.0,367.0,372.0,375.0,367.0,365.0,369.0,374.0,379.0,367.0,365.0,370.0,373.0,374.0,361.0,366.0,376.0,373.0,372.0,360.0,367.0,372.0,374.0,371.0,359.0,364.0,374.0,373.0,371.0,360.0,373.0,380.0,371.0,369.0,361.0,372.0,380.0,370.0,372.0,362.0,372.0,380.0,371.0,368.0,363.0,372.0,378.0,372.0,369.0,365.0,374.0,380.0,370.0,368.0,366.0,371.0,380.0,370.0,368.0,362.0,372.0,381.0,369.0,367.0,368.0,374.0,375.0,363.0,365.0,370.0,373.0,373.0,367.0,365.0,371.0,374.0,379.0,365.0,365.0,373.0,374.0,372.0,360.0,368.0,378.0,373.0,371.0,359.0,370.0,375.0,374.0,370.0,359.0,366.0,376.0,372.0,369.0,360.0,365.0,375.0,370.0,369.0,359.0,367.0,376.0,371.0,371.0,358.0,366.0,376.0,371.0,369.0,357.0,367.0,377.0,367.0,365.0,363.0,371.0,378.0,366.0,364.0,365.0,369.0,377.0,365.0,364.0,359.0,369.0,376.0,363.0,362.0,368.0,371.0,370.0,357.0,362.0,368.0,370.0,369.0,360.0,361.0,370.0,370.0,374.0,360.0,361.0,370.0,369.0,371.0,356.0,361.0,370.0,368.0,369.0,355.0,361.0,366.0,368.0,367.0,354.0,359.0,367.0,368.0,367.0,353.0,362.0,373.0,365.0,364.0,355.0,364.0,374.0,364.0,366.0,353.0
436.0,448.0,442.0,437.0,429.0,444.0,449.0,435.0,438.0,431.0,445.0,446.0,438.0,436.0,432.0,445.0,448.0,438.0,437.0,436.0,447.0,446.0,433.0,437.0,445.0,449.0,445.0,432.0,438.0,440.0,449.0,445.0,432.0,438.0,443.0,449.0,444.0,431.0,441.0,451.0,446.0,441.0,430.0,444.0,453.0,445.0,444.0,431.0,446.0,453.0,451.0,444.0,432.0,448.0,451.0,450.0,445.0,433.0,449.0,451.0,448.0,444.0,435.0,446.0,454.0,450.0,445.0,434.0,447.0,455.0,448.0,443.0,439.0,452.0,451.0,441.0,442.0,440.0,453.0,450.0,444.0,442.0,442.0,453.0,454.0,442.0,441.0,444.0,452.0,446.0,434.0,441.0,450.0,451.0,445.0,432.0,443.0,446.0,452.0,445.0,434.0,441.0,449.0,453.0,447.0,439.0,442.0,450.0,452.0,446.0,436.0,442.0,451.0,452.0,448.0,436.0,444.0,453.0,454.0,449.0,436.0,450.0,461.0,454.0,448.0,440.0,455.0,456.0,448.0,445.0,441.0,451.0,459.0,450.0,445.0,436.0,454.0,458.0,449.0,446.0,446.0,459.0,455.0,442.0,446.0,446.0,456.0,450.0,443.0,443.0,448.0,453.0,453.0,443.0,444.0,449.0,454.0,452.0,442.0,443.0,451.0,456.0,454.0,441.0,441.0,443.0,453.0,448.0,438.0,446.0,447.0,456.0,450.0,438.0,445.0,455.0,452.0,444.0,435.0,447.0,456.0,454.0,450.0,437.0,450.0,457.0,456.0,449.0,438.0,453.0,461.0,453.0,448.0,444.0,459.0,459.0,449.0,448.0,448.0,457.0,463.0,453.0,450.0,444.0,459.0,463.0,450.0,451.0,443.0,457.0,459.0,445.0,447.0,442.0,455.0,455.0,450.0,448.0,445.0,457.0,458.0,449.0,446.0,447.0,459.0,454.0,443.0,450.0,459.0,459.0,454.0,443.0,451.0,453.0,461.0,453.0,443.0,449.0,456.0,462.0,456.0,444.0,455.0,463.0,458.0,451.0,440.0,454.0,460.0,456.0,453.0,442.0,459.0,464.0,463.0,455.0,443.0,459.0,461.0,460.0,452.0,444.0,460.0,462.0,458.0,455.0,447.0,456.0,463.0,458.0,452.0,441.0,455.0,461.0,453.0,449.0,448.0,460.0,457.0,445.0,447.0,446.0,458.0,454.0,447.0,447.0,448.0,456.0,460.0,446.0,446.0,450.0,456.0,451.0,438.0,446.0,455.0,456.0,452.0,439.0,450.0,455.0,457.0,451.0,437.0,444.0,453.0,454.0,447.0,437.0,444.0,454.0,452.0,450.0,438.0,446.0,454.0,450.0,447.0,433.0,445.0,452.0,452.0,446.0,433.0,448.0,457.0,448.0,446.0,440.0,455.0,457.0,449.0,446.0,443.0,453.0,458.0,445.0,445.0,435.0,451.0,457.0,445.0,444.0,446.0,455.0,452.0,439.0,445.0,449.0,455.0,451.0,442.0,442.0,446.0,450.0,451.0,437.0,440.0,448.0,451.0,452.0,437.0,442.0,450.0,453.0,451.0,435.0,441.0,447.0,452.0,449.0,434.0,443.0,447.0,452.0,452.0,434.0,445.0,455.0,448.0,446.0,433.0,445.0,455.0,444.0,446.0,429.0,446.0,456.0,448.0,447.0,431.0,446.0,456.0,441.0,441.0,439.0,448.0,455.0,438.0,441.0,442.0,448.0,455.0,437.0,440.0,434.0,448.0,456.0,436.0,441.0,434.0,447.0,452.0,432.0,440.0,437.0,448.0,451.0,440.0,441.0,441.0,449.0,456.0,438.0,441.0,442.0,449.0,449.0,431.0,439.0,451.0,447.0,447.0,429.0,441.0,446.0,448.0,447.0,428.0,438.0,446.0,447.0,446.0,428.0,443.0,453.0,439.0,441.0,428.0,445.0,453.0,438.0,442.0,428.0,444.0,454.0,442.0,442.0,430.0,445.0,451.0,441.0,442.0,431.0,446.0,453.0,440.0,441.0,435.0,446.0,455.0,441.0,444.0,431.0,450.0,459.0,440.0,444.0,443.0,452.0,454.0,435.0,444.0,446.0,452.0,453.0,440.0,444.0,447.0,450.0,458.0,437.0,441.0,447.0,447.0,449.0,429.0,442.0,453.0,446.0,446.0,427.0,442.0,449.0,445.0,446.0,428.0,438.0,450.0,443.0,444.0,429.0,440.0,451.0,441.0,443.0,428.0,440.0,453.0,441.0,447.0,428.0,442.0,455.0,446.0,447.0,428.0,443.0,455.0,438.0,443.0,437.0,446.0,455.0,436.0,441.0,439.0,446.0,458.0,437.0,441.0,431.0,445.0,458.0,433.0,441.0,443.0,445.0,450.0,430.0,440.0,446.0,445.0,449.0,433.0,439.0,449.0,445.0,455.0,432.0,439.0,450.0,447.0,452.0,431.0,439.0,451.0,446.0,451.0,430.0,439.0,445.0,445.0,449.0,429.0,440.0,447.0,445.0,449.0,428.0,441.0,456.0,438.0,443.0,426.0,441.0,455.0,437.0,445.0,427.0,443.0,457.0,442.0,446.0,430.0,446.0,458.0,435.0,442.0,441.0,446.0,459.0,435.0,442.0,444.0,446.0,458.0,432.0,440.0,434.0,446.0,457.0,433.0,443.0,437.0,445.0,454.0,431.0,442.0,440.0,446.0,453.0,435.0,441.0,441.0,446.0,456.0,434.0,440.0,444.0,446.0,450.0,429.0,439.0,451.0,444.0,447.0,428.0,440.0,447.0,444.0,446.0,427.0,438.0,450.0,446.0,447.0,430.0,446.0,457.0,440.0,443.0,430.0,446.0,456.0,437.0,445.0,431.0,446.0,455.0,440.0,443.0,432.0,447.0,454.0,441.0,443.0,434.0,447.0,455.0,439.0,442.0,437.0,445.0,455.0,439.0,440.0,429.0,446.0,455.0,436.0,440.0,440.0,447.0,449.0,431.0,440.0,444.0,448.0,447.0,435.0,440.0,445.0,448.0,455.0,433.0,438.0,446.0,447.0,446.0,429.0,442.0,453.0,447.0,445.0,428.0,445.0,450.0,446.0,445.0,429.0,440.0,452.0,445.0,443.0,430.0,442.0,453.0,445.0,445.0,431.0,445.0,455.0,445.0,447.0,432.0,445.0,455.0,448.0,446.0,430.0,446.0,455.0,440.0,441.0,438.0,449.0,456.0,439.0,441.0,440.0,448.0,454.0,439.0,443.0,435.0,449.0,455.0,437.0,440.0,446.0,449.0,447.0,431.0,440.0,447.0,449.0,446.0,435.0,440.0,450.0,450.0,450.0,435.0,440.0,451.0,450.0,448.0,433.0,441.0,451.0,449.0,448.0,432.0,441.0,447.0,450.0,446.0,430.0,438.0,447.0,448.0,446.0,430.0,444.0,453.0,443.0,444.0,432.0,448.0,456.0,442.0,445.0,431.0,449.0,455.0,447.0,444.0,432.0,450.0,456.0,440.0,441.0,443.0,451.0,455.0,439.0,442.0,445.0,451.0,454.0,439.0,441.0,439.0,450.0,451.0,435.0,442.0,440.0,452.0,451.0,436.0,442.0,443.0,450.0,449.0,439.0,441.0,445.0,450.0,456.0,438.0,442.0,446.0,450.0,448.0,431.0,443.0,454.0,449.0,446.0,430.0,444.0,449.0,450.0,446.0,430.0,441.0,451.0,448.0,446.0,433.0,451.0,458.0,443.0,444.0,433.0,449.0,457.0,441.0,445.0,434.0,448.0,455.0,444.0,443.0,435.0,449.0,455.0,443.0,443.0,437.0,448.0,454.0,441.0,441.0,439.0,446.0,456.0,441.0,442.0,432.0,449.0,455.0,439.0,441.0,444.0,450.0,449.0,433.0,441.0,445.0,449.0,447.0,437.0,441.0,447.0,449.0,452.0,436.0,440.0,450.0,449.0,446.0,429.0,445.0,455.0,450.0,446.0,431.0,447.0,453.0,448.0,446.0,432.0,442.0,453.0,445.0,445.0,431.0,444.0,455.0,444.0,445.0,430.0,444.0,456.0,441.0,448.0,429.0,444.0,455.0,446.0,445.0,430.0,445.0,457.0,437.0,443.0,440.0,448.0,458.0,437.0,441.0,443.0,447.0,456.0,436.0,441.0,436.0,448.0,458.0,435.0,441.0,446.0,447.0,448.0,429.0,439.0,448.0,447.0,447.0,433.0,440.0,451.0,446.0,451.0,431.0,438.0,451.0,446.0,448.0,429.0,439.0,451.0,445.0,447.0,428.0,440.0,446.0,447.0,445.0,429.0,438.0,448.0,447.0,447.0,429.0,445.0,455.0,441.0,442.0,430.0,446.0,454.0,441.0,444.0,431.0
2.0,4.0,3.0,5.0,4.0,4.0,3.0,4.0,3.0,4.0,4.0,4.0,4.0,4.0,4.0,3.0,4.0,3.0,4.0,3.0,4.0,4.0,4.0,3.0,3.0,3.0,4.0,4.0,5.0,4.0,3.0,3.0,3.0,4.0,4.0,4.0,3.0,3.0,4.0,4.0,4.0,4.0,4.0,3.0,3.0,4.0,4.0,4.0,3.0,4.0,3.0,4.0,3.0,5.0,4.0,3.0,3.0,3.0,3.0,4.0,4.0,4.0,4.0,3.0,4.0,4.0,4.0,2.0,3.0,3.0,4.0,3.0,4.0,4.0,4.0,3.0,3.0,3.0,5.0,4.0,4.0,4.0,4.0,3.0,3.0,4.0,4.0,3.0,3.0,3.0,4.0,4.0,4.0,4.0,3.0,3.0,3.0,5.0,3.0,4.0,3.0,3.0,3.0,5.0,3.0,3.0,3.0,4.0,4.0,4.0,4.0,3.0,3.0,3.0,4.0,4.0,4.0,4.0,4.0,3.0,3.0,4.0,4.0,2.0,4.0,3.0,3.0,4.0,4.0,2.0,4.0,3.0,3.0,3.0,4.0,4.0,3.0,4.0,3.0,4.0,4.0,4.0,4.0,3.0,3.0,4.0,3.0,5.0,3.0,4.0,4.0,3.0,4.0,4.0,4.0,3.0,4.0,3.0,4.0,3.0,4.0,4.0,3.0,3.0,4.0,3.0,5.0,4.0,4.0,3.0,4.0,3.0,5.0,3.0,3.0,4.0,4.0,3.0,5.0,3.0,3.0,3.0,3.0,4.0,4.0,4.0,4.0,4.0,3.0,3.0,3.0,4.0,2.0,4.0,3.0,4.0,3.0,5.0,3.0,3.0,3.0,3.0,4.0,5.0,4.0,3.0,3.0,3.0,4.0,4.0,4.0,4.0,4.0,3.0,4.0,3.0,4.0,2.0,3.0,3.0,3.0,3.0,4.0,3.0,4.0,4.0,3.0,3.0,4.0,4.0,4.0,4.0,3.0,4.0,4.0,3.0,3.0,4.0,4.0,4.0,3.0,4.0,4.0,3.0,2.0,3.0,3.0,4.0,4.0,4.0,3.0,3.0,3.0,3.0,4.0,4.0,4.0,3.0,3.0,3.0,5.0,4.0,4.0,3.0,3.0,3.0,4.0,4.0,4.0,4.0,3.0,3.0,4.0,3.0,3.0,4.0,3.0,3.0,4.0,4.0,2.0,4.0,3.0,4.0,4.0,4.0,4.0,3.0,3.0,4.0,3.0,4.0,3.0,4.0,4.0,3.0,4.0,4.0,3.0,3.0,4.0,3.0,3.0,4.0,4.0,4.0,4.0,3.0,3.0,3.0,4.0,3.0,3.0,3.0,3.0,3.0,4.0,4.0,4.0,3.0,3.0,4.0,4.0,4.0,4.0,3.0,3.0,4.0,4.0,5.0,2.0,3.0,3.0,3.0,3.0,5.0,4.0,4.0,3.0,4.0,3.0,5.0,4.0,3.0,4.0,4.0,3.0,4.0,4.0,3.0,4.0,3.0,4.0,4.0,5.0,2.0,3.0,3.0,4.0,3.0,4.0,4.0,3.0,3.0,3.0,4.0,4.0,4.0,3.0,3.0,4.0,3.0,4.0,4.0,3.0,4.0,3.0,4.0,3.0,5.0,2.0,3.0,3.0,4.0,3.0,4.0,4.0,4.0,4.0,3.0,4.0,4.0,4.0,3.0,4.0,3.0,4.0,4.0,4.0,3.0,4.0,3.0,4.0,4.0,5.0,4.0,4.0,3.0,4.0,3.0,5.0,4.0,3.0,3.0,3.0,4.0,4.0,4.0,3.0,4.0,3.0,4.0,4.0,5.0,4.0,4.0,3.0,4.0,3.0,5.0,2.0,3.0,3.0,3.0,3.0,5.0,3.0,4.0,3.0,3.0,3.0,4.0,4.0,3.0,3.0,4.0,4.0,4.0,5.0,4.0,4.0,3.0,4.0,3.0,4.0,4.0,4.0,4.0,3.0,4.0,4.0,3.0,4.0,3.0,3.0,3.0,4.0,4.0,3.0,4.0,3.0,4.0,3.0,5.0,4.0,3.0,3.0,3.0,4.0,4.0,4.0,3.0,3.0,3.0,4.0,3.0,4.0,3.0,4.0,3.0,3.0,4.0,3.0,4.0,3.0,3.0,3.0,4.0,4.0,4.0,4.0,3.0,3.0,3.0,5.0,3.0,3.0,3.0,3.0,4.0,4.0,4.0,4.0,3.0,3.0,4.0,3.0,5.0,2.0,4.0,3.0,4.0,4.0,4.0,3.0,3.0,3.0,3.0,4.0,4.0,4.0,4.0,3.0,3.0,4.0,4.0,4.0,3.0,3.0,3.0,4.0,3.0,5.0,4.0,4.0,3.0,3.0,3.0,4.0,4.0,4.0,3.0,3.0,3.0,4.0,3.0,4.0,4.0,3.0,4.0,4.0,4.0,4.0,4.0,3.0,4.0,3.0,5.0,4.0,3.0,3.0,3.0,3.0,4.0,4.0,4.0,3.0,3.0,5.0,4.0,4.0,3.0,4.0,3.0,4.0,4.0,4.0,4.0,4.0,3.0,3.0,3.0,4.0,3.0,4.0,3.0,3.0,3.0,4.0,4.0,3.0,4.0,4.0,4.0,4.0,4.0,2.0,3.0,3.0,3.0,3.0,4.0,4.0,3.0,3.0,3.0,3.0,4.0,4.0,3.0,4.0,3.0,4.0,4.0,4.0,3.0,4.0,3.0,4.0,4.0,5.0,2.0,4.0,3.0,4.0,4.0,5.0,3.0,4.0,3.0,3.0,3.0,4.0,4.0,3.0,3.0,3.0,3.0,3.0,4.0,2.0,3.0,3.0,3.0,3.0,4.0,4.0,4.0,3.0,3.0,3.0,5.0,4.0,3.0,4.0,3.0,3.0,4.0,4.0,3.0,4.0,3.0,4.0,4.0,4.0,2.0,4.0,3.0,4.0,3.0,4.0,3.0,5.0,3.0,3.0,3.0,5.0,4.0,4.0,3.0,3.0,4.0,4.0,4.0,3.0,4.0,3.0,4.0,4.0,4.0,4.0,3.0,3.0,4.0,4.0,5.0,4.0,3.0,3.0,4.0,3.0,4.0,4.0,4.0,4.0,4.0,4.0,4.0,4.0,4.0,4.0,3.0,4.0,3.0,4.0,2.0,4.0,3.0,4.0,3.0,4.0,4.0,3.0,3.0,3.0,3.0,4.0,4.0,3.0,4.0,3.0,4.0,4.0,4.0,2.0,3.0,3.0,4.0,3.0,5.0,4.0,5.0,3.0,4.0,3.0,4.0,3.0,3.0,3.0,4.0,4.0,4.0,4.0,4.0,4.0,3.0,4.0,4.0,4.0,4.0,3.0,3.0,4.0,3.0,5.0,4.0,4.0,3.0,3.0,3.0,4.0,3.0,3.0,4.0,3.0,4.0,4.0,4.0,3.0,3.0,3.0,4.0,3.0,4.0,4.0,3.0,3.0,4.0,3.0,5.0,3.0,3.0,4.0,4.0,3.0,5.0,4.0,4.0,4.0,3.0,4.0,4.0,4.0,4.0,4.0,3.0,3.0,4.0,4.0,4.0,4.0,3.0,4.0,4.0,5.0,3.0,3.0,3.0,3.0,4.0,4.0,4.0,4.0,4.0,3.0,4.0,3.0,4.0,3.0,4.0,3.0,4.0,3.0,3.0,4.0,3.0,3.0,3.0,3.0,3.0,4.0,4.0,4.0,3.0,4.0,4.0,4.0,3.0,4.0,3.0,4.0,4.0,5.0,4.0,3.0,4.0,4.0,4.0,5.0,2.0,3.0,4.0,3.0,4.0,4.0,4.0,3.0,4.0,3.0,3.0,3.0,3.0,3.0,4.0,3.0,4.0,3.0,4.0,4.0,4.0,3.0,3.0,4.0,4.0,4.0,4.0,4.0,3.0,4.0,4.0,4.0,3.0,3.0,3.0,3.0,4.0,3.0,3.0,3.0,3.0,4.0,3.0,5.0,4.0,5.0,3.0,3.0,4.0,5.0,4.0,3.0,3.0,4.0,3.0,4.0,4.0,4.0,4.0,3.0,4.0,3.0,5.0,4.0,3.0,3.0,3.0,4.0,4.0,3.0,3.0,3.0,4.0,3.0,4.0,4.0,4.0,4.0,3.0,4.0,3.0,4.0,4.0,4.0,3.0,4.0,3.0,5.0,4.0,3.0,3.0,4.0,3.0,5.0,3.0,3.0,3.0,3.0,4.0,4.0,4.0,4.0,3.0,3.0,4.0,4.0,4.0,2.0,3.0,3.0,4.0,4.0,5.0,4.0,4.0,3.0,3.0,4.0,4.0,4.0,4.0,3.0,3.0,3.0,4.0,4.0,4.0,4.0,3.0,4.0,4.0
414.0,427.0,420.0,416.0,410.0,421.0,428.0,414.0,416.0,411.0,420.0,425.0,417.0,414.0,414.0,423.0,428.0,416.0,414.0,414.0,422.0,422.0,409.0,413.0,424.0,424.0,423.0,410.0,415.0,419.0,424.0,423.0,409.0,414.0,421.0,424.0,420.0,408.0,417.0,428.0,421.0,418.0,409.0,420.0,429.0,421.0,421.0,409.0,422.0,432.0,426.0,421.0,411.0,425.0,430.0,426.0,423.0,413.0,426.0,431.0,426.0,421.0,415.0,420.0,431.0,423.0,419.0,410.0,423.0,433.0,423.0,420.0,418.0,429.0,430.0,418.0,420.0,420.0,429.0,429.0,421.0,419.0,422.0,429.0,433.0,420.0,418.0,424.0,428.0,425.0,413.0,418.0,430.0,429.0,424.0,412.0,420.0,426.0,429.0,425.0,412.0,418.0,429.0,430.0,425.0,416.0,421.0,430.0,427.0,422.0,412.0,418.0,429.0,422.0,422.0,409.0,418.0,430.0,426.0,423.0,408.0,419.0,432.0,423.0,419.0,413.0,424.0,429.0,420.0,417.0,414.0,421.0,430.0,416.0,414.0,404.0,419.0,427.0,411.0,412.0,411.0,419.0,420.0,406.0,413.0,418.0,422.0,420.0,409.0,409.0,420.0,422.0,429.0,413.0,416.0,423.0,423.0,427.0,412.0,415.0,429.0,428.0,430.0,416.0,416.0,420.0,424.0,424.0,411.0,417.0,421.0,426.0,424.0,410.0,420.0,432.0,427.0,423.0,414.0,425.0,435.0,431.0,429.0,418.0,431.0,440.0,436.0,431.0,419.0,430.0,441.0,430.0,428.0,427.0,437.0,441.0,430.0,427.0,430.0,437.0,445.0,432.0,429.0,426.0,437.0,443.0,431.0,431.0,426.0,439.0,442.0,431.0,432.0,432.0,441.0,442.0,436.0,433.0,434.0,443.0,446.0,437.0,433.0,437.0,443.0,441.0,432.0,437.0,448.0,446.0,441.0,430.0,435.0,440.0,445.0,442.0,431.0,433.0,443.0,446.0,441.0,429.0,438.0,449.0,441.0,435.0,428.0,440.0,449.0,440.0,439.0,430.0,440.0,448.0,443.0,436.0,430.0,442.0,448.0,444.0,439.0,433.0,443.0,447.0,440.0,435.0,432.0,438.0,449.0,442.0,436.0,429.0,441.0,451.0,440.0,437.0,437.0,446.0,445.0,434.0,433.0,436.0,444.0,440.0,436.0,432.0,437.0,445.0,447.0,435.0,432.0,440.0,444.0,440.0,432.0,435.0,446.0,444.0,439.0,427.0,439.0,443.0,444.0,437.0,426.0,432.0,444.0,444.0,437.0,430.0,432.0,442.0,441.0,437.0,429.0,434.0,445.0,440.0,435.0,425.0,433.0,445.0,443.0,437.0,427.0,437.0,447.0,438.0,433.0,432.0,443.0,448.0,438.0,432.0,434.0,439.0,447.0,437.0,434.0,432.0,444.0,449.0,440.0,435.0,441.0,447.0,441.0,435.0,436.0,443.0,448.0,440.0,434.0,431.0,436.0,441.0,438.0,427.0,428.0,438.0,443.0,443.0,432.0,437.0,446.0,450.0,448.0,439.0,439.0,456.0,459.0,453.0,444.0,446.0,453.0,457.0,456.0,444.0,449.0,458.0,451.0,441.0,435.0,444.0,450.0,444.0,441.0,432.0,444.0,452.0,448.0,442.0,433.0,442.0,450.0,441.0,436.0,438.0,446.0,449.0,438.0,435.0,438.0,443.0,447.0,435.0,431.0,430.0,440.0,444.0,432.0,432.0,429.0,439.0,439.0,426.0,428.0,428.0,437.0,440.0,433.0,430.0,433.0,439.0,445.0,432.0,430.0,433.0,440.0,436.0,423.0,426.0,437.0,433.0,430.0,417.0,426.0,431.0,435.0,430.0,417.0,424.0,434.0,435.0,431.0,417.0,429.0,439.0,429.0,425.0,417.0,432.0,441.0,429.0,429.0,419.0,431.0,440.0,431.0,427.0,419.0,432.0,438.0,431.0,427.0,422.0,434.0,440.0,431.0,427.0,424.0,431.0,439.0,430.0,426.0,419.0,436.0,443.0,430.0,427.0,429.0,437.0,435.0,422.0,426.0,432.0,439.0,435.0,428.0,426.0,433.0,436.0,439.0,425.0,423.0,432.0,433.0,430.0,416.0,426.0,436.0,433.0,427.0,414.0,426.0,431.0,429.0,425.0,412.0,420.0,432.0,429.0,425.0,415.0,422.0,433.0,428.0,424.0,414.0,423.0,435.0,429.0,429.0,414.0,427.0,437.0,433.0,429.0,415.0,428.0,437.0,426.0,424.0,423.0,432.0,438.0,424.0,421.0,422.0,429.0,436.0,423.0,421.0,417.0,429.0,436.0,419.0,420.0,425.0,430.0,428.0,415.0,418.0,427.0,430.0,428.0,419.0,420.0,429.0,429.0,432.0,416.0,419.0,429.0,429.0,428.0,417.0,421.0,432.0,432.0,431.0,416.0,423.0,428.0,432.0,428.0,416.0,422.0,429.0,431.0,428.0,414.0,425.0,436.0,426.0,421.0,411.0,424.0,433.0,424.0,424.0,413.0,427.0,435.0,428.0,425.0,416.0,430.0,437.0,423.0,421.0,424.0,430.0,435.0,421.0,421.0,427.0,430.0,436.0,420.0,420.0,419.0,431.0,434.0,421.0,423.0,422.0,430.0,432.0,417.0,420.0,423.0,430.0,430.0,423.0,421.0,425.0,431.0,435.0,422.0,421.0,427.0,430.0,428.0,413.0,421.0,432.0,430.0,426.0,413.0,423.0,429.0,429.0,425.0,412.0,421.0,431.0,430.0,426.0,415.0,428.0,437.0,426.0,423.0,415.0,429.0,436.0,423.0,424.0,415.0,427.0,435.0,426.0,422.0,416.0,429.0,434.0,427.0,423.0,420.0,432.0,437.0,427.0,424.0,423.0,431.0,438.0,428.0,424.0,418.0,432.0,439.0,426.0,426.0,429.0,435.0,432.0,420.0,424.0,430.0,434.0,431.0,423.0,423.0,431.0,435.0,437.0,422.0,423.0,432.0,433.0,429.0,416.0,428.0,438.0,434.0,428.0,418.0,431.0,435.0,433.0,427.0,418.0,425.0,437.0,433.0,428.0,421.0,429.0,441.0,435.0,431.0,421.0,432.0,441.0,434.0,432.0,422.0,433.0,442.0,438.0,432.0,422.0,436.0,441.0,432.0,428.0,430.0,440.0,445.0,432.0,429.0,433.0,438.0,442.0,431.0,429.0,427.0,438.0,442.0,431.0,429.0,438.0,442.0,437.0,425.0,429.0,438.0,440.0,434.0,427.0,428.0,440.0,440.0,439.0,427.0,429.0,441.0,440.0,436.0,426.0,431.0,441.0,439.0,434.0,424.0,429.0,437.0,438.0,434.0,421.0,425.0,437.0,438.0,432.0,420.0,432.0,442.0,433.0,430.0,423.0,435.0,444.0,434.0,433.0,424.0,438.0,443.0,436.0,430.0,425.0,438.0,444.0,432.0,429.0,434.0,440.0,442.0,431.0,429.0,436.0,439.0,442.0,431.0,429.0,434.0,442.0,442.0,430.0,431.0,433.0,444.0,441.0,431.0,432.0,436.0,443.0,440.0,435.0,431.0,438.0,442.0,444.0,432.0,429.0,436.0,440.0,435.0,422.0,432.0,443.0,438.0,433.0,421.0,433.0,439.0,439.0,433.0,423.0,429.0,439.0,438.0,433.0,424.0,439.0,445.0,433.0,430.0,424.0,436.0,443.0,431.0,430.0,425.0,437.0,441.0,434.0,429.0,426.0,437.0,441.0,433.0,429.0,428.0,437.0,441.0,431.0,427.0,428.0,434.0,442.0,431.0,428.0,424.0,436.0,442.0,430.0,427.0,433.0,437.0,436.0,423.0,426.0,433.0,437.0,432.0,427.0,425.0,434.0,437.0,437.0,426.0,427.0,437.0,438.0,432.0,420.0,432.0,441.0,436.0,431.0,419.0,432.0,438.0,433.0,430.0,420.0,427.0,438.0,432.0,427.0,418.0,428.0,439.0,430.0,426.0,416.0,429.0,439.0,430.0,430.0,417.0,428.0,439.0,433.0,428.0,418.0,431.0,440.0,427.0,426.0,427.0,435.0,439.0,426.0,423.0,428.0,432.0,437.0,425.0,423.0,422.0,434.0,439.0,424.0,423.0,432.0,435.0,431.0,419.0,423.0,434.0,434.0,431.0,422.0,425.0,435.0,432.0,433.0,420.0,424.0,436.0,435.0,432.0,419.0,425.0,437.0,433.0,430.0,415.0,424.0,430.0,432.0,427.0,416.0,420.0,431.0,432.0,428.0,416.0,429.0,439.0,428.0,424.0,415.0,429.0,438.0,426.0,426.0,418.0
