358.0,352.0,362.0,369.0,360.0,358.0,353.0,361.0,369.0,358.0,357.0,354.0,360.0,368.0,359.0,357.0,356.0,362.0,367.0,353.0,354.0,358.0,364.0,367.0,354.0,358.0,361.0,368.0,369.0,360.0,359.0,365.0,368.0,369.0,356.0,365.0,373.0,368.0,369.0,357.0,368.0,374.0,371.0,369.0,355.0,369.0,372.0,369.0,367.0,355.0,367.0,375.0,365.0,362.0,362.0,368.0,375.0,364.0,363.0,358.0,370.0,376.0,364.0,365.0,359.0,370.0,375.0,365.0,363.0,360.0,368.0,374.0,363.0,362.0,360.0,366.0,372.0,360.0,358.0,358.0,362.0,370.0,358.0,357.0,359.0,364.0,366.0,353.0,358.0,362.0,366.0,367.0,353.0,358.0,364.0,365.0,366.0,356.0,356.0,365.0,364.0,363.0,352.0,359.0,369.0,360.0,361.0,349.0,360.0,369.0,362.0,361.0,351.0,364.0,369.0,365.0,362.0,354.0,360.0,371.0,364.0,363.0,355.0,361.0,370.0,363.0,360.0,352.0,362.0,372.0,362.0,364.0,353.0,363.0,373.0,361.0,360.0,359.0,367.0,370.0,361.0,359.0,361.0,366.0,373.0,360.0,359.0,362.0,364.0,370.0,355.0,355.0,363.0,364.0,363.0,349.0,357.0,363.0,363.0,362.0,349.0,356.0,364.0,363.0,361.0,352.0,354.0,364.0,363.0,369.0,368.0,378.0,388.0,378.0,378.0,364.0,370.0,387.0,381.0,379.0,362.0,368.0,373.0,369.0,369.0,354.0,365.0,377.0,365.0,363.0,357.0,359.0,368.0,357.0,356.0,348.0,361.0,367.0,350.0,356.0,348.0,362.0,370.0,360.0,357.0,362.0,363.0,366.0,361.0,365.0,369.0,372.0,376.0,361.0,364.0,373.0,369.0,374.0,359.0,364.0,366.0,376.0,381.0,363.0,368.0,376.0,379.0,378.0,365.0,368.0,371.0,371.0,370.0,359.0,363.0,369.0,371.0,368.0,357.0,369.0,384.0,373.0,374.0,361.0,372.0,381.0,375.0,375.0,363.0,375.0,378.0,374.0,372.0,361.0,365.0,374.0,363.0,365.0,368.0,372.0,378.0,362.0,361.0,358.0,368.0,377.0,362.0,364.0,356.0,365.0,376.0,366.0,367.0,363.0,370.0,373.0,364.0,364.0,364.0,370.0,377.0,362.0,358.0,361.0,366.0,376.0,361.0,362.0,366.0,370.0,371.0,363.0,372.0,380.0,380.0,379.0,365.0,370.0,378.0,378.0,374.0,365.0,366.0,376.0,372.0,368.0,356.0,367.0,375.0,362.0,364.0,356.0,367.0,375.0,367.0,367.0,360.0,368.0,377.0,368.0,367.0,368.0,371.0,381.0,371.0,370.0,365.0,365.0,372.0,361.0,360.0,356.0,368.0,377.0,365.0,367.0,360.0,371.0,382.0,371.0,368.0,371.0,372.0,372.0,366.0,366.0,372.0,373.0,380.0,365.0,364.0,371.0,372.0,377.0,365.0,365.0,376.0,375.0,373.0,361.0,372.0,377.0,375.0,373.0,362.0,367.0,378.0,374.0,372.0,364.0,369.0,379.0,374.0,374.0,360.0,367.0,377.0,372.0,372.0,361.0,368.0,379.0,373.0,370.0,360.0,372.0,375.0,373.0,371.0,362.0,372.0,382.0,371.0,368.0,369.0,373.0,381.0,369.0,367.0,361.0,371.0,378.0,366.0,367.0,364.0,372.0,378.0,365.0,364.0,371.0,373.0,372.0,365.0,365.0,373.0,375.0,377.0,365.0,366.0,376.0,375.0,376.0,364.0,367.0,371.0,374.0,373.0,362.0,365.0,372.0,374.0,372.0,362.0,365.0,373.0,374.0,372.0,365.0,366.0,374.0,375.0,372.0,363.0,370.0,380.0,372.0,372.0,361.0,372.0,380.0,373.0,370.0,362.0,371.0,378.0,372.0,369.0,363.0,372.0,379.0,365.0,365.0,369.0,372.0,379.0,365.0,363.0,366.0,373.0,377.0,363.0,365.0,365.0,372.0,374.0,366.0,364.0,366.0,371.0,372.0,365.0,363.0,367.0,371.0,377.0,364.0,364.0,369.0,371.0,376.0,363.0,362.0,370.0,371.0,371.0,357.0,366.0,371.0,371.0,367.0,354.0,359.0,369.0,367.0,365.0,358.0,361.0,372.0,368.0,365.0,356.0,369.0,376.0,364.0,365.0,359.0,369.0,377.0,368.0,365.0,360.0,369.0,375.0,367.0,364.0,360.0,366.0,376.0,366.0,364.0,362.0,368.0,376.0,364.0,363.0,359.0,369.0,376.0,365.0,365.0,359.0,368.0,376.0,362.0,362.0,367.0,370.0,369.0,361.0,361.0,368.0,369.0,373.0,360.0,360.0,370.0,370.0,372.0,359.0,361.0,371.0,369.0,366.0,355.0,366.0,371.0,369.0,367.0,357.0,362.0,373.0,368.0,366.0,357.0,364.0,373.0,366.0,367.0,356.0,365.0,377.0,368.0,369.0,358.0,367.0,377.0,370.0,368.0,359.0,369.0,375.0,371.0,368.0,361.0,370.0,378.0,367.0,364.0,367.0,371.0,376.0,365.0,363.0,363.0,370.0,375.0,364.0,366.0,364.0,372.0,376.0,364.0,363.0,373.0,374.0,371.0,364.0,365.0,375.0,372.0,373.0,362.0,365.0,375.0,374.0,372.0,361.0,365.0,371.0,373.0,373.0,360.0,367.0,373.0,374.0,371.0,360.0,364.0,374.0,372.0,369.0,363.0,365.0,376.0,373.0,371.0,361.0,371.0,380.0,369.0,370.0,362.0,371.0,379.0,371.0,368.0,361.0,370.0,376.0,369.0,367.0,362.0,371.0,376.0,365.0,363.0,371.0,372.0,376.0,363.0,364.0,366.0,371.0,374.0,363.0,365.0,367.0,372.0,373.0,366.0,365.0,370.0,374.0,374.0,367.0,366.0,372.0,376.0,379.0,366.0,366.0,374.0,375.0,378.0,365.0,365.0,374.0,373.0,371.0,361.0,369.0,375.0,373.0,369.0,361.0,365.0,377.0,373.0,369.0,361.0,366.0,376.0,372.0,368.0,361.0,371.0,378.0,365.0,368.0,363.0,371.0,377.0,369.0,367.0,365.0,372.0,378.0,368.0,366.0,366.0,369.0,378.0,368.0,365.0,367.0,372.0,379.0,368.0,365.0,362.0,372.0,378.0,367.0,367.0,364.0,372.0,377.0,365.0,364.0,373.0,375.0,372.0,365.0,365.0,374.0,374.0,377.0,364.0,365.0,375.0,373.0,373.0,363.0,365.0,376.0,372.0,369.0,361.0,371.0,376.0,371.0,368.0,360.0,365.0,376.0,370.0,367.0,359.0,367.0,376.0,369.0,371.0,359.0,369.0,379.0,369.0,369.0,361.0,371.0,380.0,372.0,369.0,361.0,371.0,377.0,371.0,368.0,362.0,372.0,379.0,367.0,364.0,370.0,372.0,378.0,364.0,364.0,364.0,373.0,376.0,362.0,364.0,365.0,373.0,375.0,362.0,363.0,373.0,371.0,369.0,360.0,364.0,374.0,371.0,372.0,363.0,366.0,376.0,373.0,372.0,360.0,368.0,372.0,374.0,372.0,359.0,369.0,375.0,375.0,371.0,361.0,366.0,376.0,373.0,370.0,362.0,366.0,376.0,371.0,368.0,361.0,369.0,379.0,367.0,368.0,362.0,372.0,379.0,370.0,368.0,365.0,373.0,379.0,372.0,368.0,366.0,372.0,377.0,364.0,365.0,373.0,374.0,376.0,363.0,363.0,368.0,373.0,373.0,361.0,365.0,370.0,374.0,373.0,366.0,365.0,371.0,373.0,372.0,365.0,362.0,372.0,373.0,375.0,362.0,364.0,372.0,372.0,374.0,361.0,364.0,374.0,371.0,369.0,360.0,370.0,375.0,372.0,370.0,360.0,366.0,376.0,370.0,367.0,360.0,367.0,377.0,369.0,367.0,362.0,372.0,377.0,364.0,366.0,364.0,371.0,377.0,369.0,366.0,365.0,372.0,379.0,367.0,365.0,367.0,371.0,379.0,367.0,365.0,370.0,372.0,379.0,366.0,365.0,364.0,372.0,378.0,363.0,364.0,363.0,370.0,375.0,363.0,362.0,371.0,371.0,369.0,360.0,363.0,373.0,371.0,372.0,360.0,363.0,375.0,372.0,371.0,359.0,363.0,374.0,369.0,367.0,359.0,369.0,374.0,368.0,365.0,361.0,365.0,376.0,368.0,366.0,358.0,368.0,377.0,368.0,368.0,357.0,368.0,377.0,366.0,366.0,358.0,368.0,377.0,368.0,367.0,360.0,369.0,376.0,368.0
435.0,427.0,437.0,451.0,430.0,438.0,430.0,439.0,453.0,430.0,438.0,433.0,440.0,457.0,428.0,439.0,438.0,438.0,458.0,427.0,438.0,445.0,443.0,464.0,434.0,450.0,457.0,450.0,472.0,442.0,457.0,469.0,456.0,483.0,453.0,476.0,501.0,471.0,508.0,478.0,504.0,529.0,497.0,532.0,502.0,525.0,542.0,515.0,548.0,521.0,538.0,571.0,532.0,565.0,558.0,559.0,589.0,547.0,580.0,566.0,574.0,610.0,568.0,607.0,590.0,594.0,633.0,590.0,626.0,610.0,607.0,643.0,593.0,616.0,600.0,586.0,616.0,568.0,590.0,577.0,568.0,587.0,538.0,553.0,547.0,528.0,551.0,508.0,520.0,525.0,505.0,525.0,485.0,496.0,504.0,484.0,500.0,468.0,478.0,490.0,466.0,482.0,453.0,463.0,479.0,448.0,464.0,441.0,454.0,471.0,445.0,457.0,439.0,452.0,464.0,441.0,453.0,439.0,448.0,464.0,441.0,449.0,437.0,444.0,461.0,437.0,445.0,428.0,443.0,456.0,433.0,446.0,429.0,444.0,457.0,432.0,438.0,438.0,442.0,448.0,431.0,436.0,439.0,444.0,450.0,432.0,436.0,441.0,444.0,448.0,431.0,434.0,442.0,443.0,440.0,423.0,438.0,443.0,441.0,438.0,425.0,435.0,447.0,444.0,440.0,429.0,436.0,444.0,441.0,442.0,435.0,447.0,456.0,447.0,448.0,432.0,447.0,457.0,454.0,445.0,431.0,445.0,449.0,453.0,449.0,436.0,448.0,457.0,445.0,443.0,437.0,442.0,450.0,440.0,438.0,428.0,444.0,446.0,426.0,432.0,429.0,445.0,451.0,438.0,442.0,449.0,451.0,448.0,444.0,447.0,456.0,455.0,456.0,438.0,445.0,453.0,453.0,453.0,438.0,448.0,450.0,459.0,462.0,441.0,450.0,456.0,455.0,451.0,438.0,446.0,453.0,451.0,447.0,434.0,437.0,447.0,449.0,448.0,434.0,452.0,465.0,450.0,452.0,439.0,456.0,464.0,457.0,455.0,446.0,463.0,460.0,451.0,447.0,436.0,447.0,453.0,441.0,447.0,453.0,460.0,462.0,443.0,445.0,439.0,453.0,459.0,435.0,440.0,434.0,445.0,450.0,442.0,442.0,441.0,447.0,449.0,439.0,442.0,441.0,450.0,458.0,441.0,438.0,444.0,448.0,452.0,438.0,443.0,450.0,455.0,456.0,442.0,460.0,465.0,467.0,459.0,444.0,453.0,463.0,462.0,454.0,443.0,448.0,457.0,454.0,446.0,436.0,454.0,458.0,447.0,446.0,436.0,452.0,454.0,444.0,442.0,432.0,449.0,456.0,453.0,448.0,447.0,452.0,459.0,446.0,444.0,435.0,439.0,445.0,431.0,435.0,426.0,445.0,452.0,436.0,441.0,435.0,447.0,456.0,440.0,441.0,442.0,443.0,441.0,435.0,443.0,449.0,448.0,453.0,434.0,437.0,448.0,447.0,449.0,432.0,438.0,449.0,448.0,446.0,431.0,445.0,451.0,445.0,448.0,431.0,443.0,453.0,443.0,445.0,433.0,444.0,457.0,445.0,443.0,427.0,443.0,451.0,446.0,445.0,433.0,448.0,457.0,451.0,448.0,432.0,450.0,455.0,452.0,450.0,440.0,456.0,462.0,446.0,446.0,447.0,454.0,460.0,446.0,447.0,440.0,453.0,460.0,440.0,447.0,440.0,452.0,457.0,437.0,440.0,447.0,447.0,445.0,433.0,439.0,450.0,448.0,451.0,434.0,441.0,452.0,449.0,447.0,429.0,439.0,443.0,445.0,445.0,426.0,437.0,443.0,444.0,444.0,428.0,436.0,447.0,446.0,443.0,433.0,439.0,451.0,448.0,446.0,431.0,446.0,456.0,440.0,443.0,430.0,446.0,455.0,442.0,443.0,431.0,447.0,453.0,441.0,443.0,433.0,446.0,452.0,432.0,436.0,442.0,444.0,454.0,430.0,438.0,439.0,450.0,453.0,434.0,442.0,440.0,448.0,448.0,436.0,441.0,442.0,448.0,450.0,435.0,441.0,447.0,449.0,454.0,433.0,439.0,447.0,447.0,455.0,433.0,439.0,450.0,445.0,446.0,429.0,442.0,451.0,442.0,444.0,425.0,436.0,449.0,439.0,441.0,425.0,437.0,451.0,437.0,441.0,428.0,444.0,454.0,433.0,442.0,432.0,446.0,453.0,438.0,438.0,433.0,445.0,452.0,436.0,439.0,435.0,443.0,454.0,436.0,439.0,437.0,444.0,456.0,436.0,439.0,434.0,448.0,456.0,434.0,443.0,434.0,445.0,452.0,429.0,436.0,444.0,443.0,445.0,429.0,437.0,446.0,442.0,450.0,430.0,437.0,448.0,446.0,449.0,430.0,438.0,451.0,439.0,441.0,425.0,442.0,450.0,435.0,441.0,427.0,436.0,449.0,436.0,442.0,425.0,440.0,451.0,437.0,443.0,424.0,440.0,451.0,437.0,442.0,429.0,444.0,454.0,444.0,443.0,428.0,445.0,450.0,440.0,442.0,431.0,446.0,453.0,435.0,436.0,439.0,445.0,450.0,432.0,437.0,433.0,445.0,449.0,432.0,437.0,437.0,445.0,448.0,430.0,438.0,448.0,446.0,445.0,431.0,440.0,450.0,444.0,448.0,429.0,441.0,452.0,448.0,446.0,428.0,441.0,444.0,445.0,443.0,427.0,441.0,448.0,446.0,445.0,427.0,438.0,447.0,443.0,442.0,428.0,439.0,451.0,446.0,444.0,431.0,446.0,454.0,438.0,444.0,431.0,447.0,451.0,441.0,441.0,432.0,448.0,453.0,441.0,440.0,434.0,448.0,448.0,435.0,439.0,446.0,447.0,445.0,430.0,435.0,437.0,448.0,446.0,433.0,438.0,440.0,450.0,445.0,437.0,436.0,443.0,449.0,444.0,439.0,440.0,448.0,452.0,452.0,437.0,442.0,451.0,453.0,450.0,435.0,441.0,451.0,446.0,445.0,431.0,446.0,450.0,448.0,443.0,432.0,442.0,453.0,449.0,444.0,430.0,441.0,450.0,442.0,439.0,433.0,447.0,450.0,435.0,440.0,435.0,448.0,451.0,438.0,439.0,435.0,446.0,453.0,437.0,438.0,436.0,443.0,451.0,435.0,439.0,441.0,446.0,450.0,433.0,435.0,431.0,445.0,449.0,430.0,438.0,432.0,444.0,450.0,430.0,435.0,447.0,447.0,444.0,432.0,437.0,448.0,444.0,448.0,429.0,437.0,450.0,443.0,445.0,427.0,436.0,449.0,443.0,441.0,429.0,444.0,449.0,441.0,440.0,432.0,441.0,451.0,444.0,442.0,430.0,446.0,453.0,443.0,443.0,432.0,447.0,455.0,441.0,446.0,433.0,449.0,456.0,444.0,444.0,432.0,447.0,454.0,440.0,442.0,434.0,448.0,453.0,434.0,438.0,445.0,448.0,450.0,432.0,435.0,436.0,446.0,449.0,429.0,437.0,437.0,445.0,447.0,428.0,437.0,449.0,441.0,443.0,428.0,440.0,451.0,442.0,445.0,429.0,441.0,451.0,450.0,445.0,429.0,443.0,448.0,447.0,445.0,430.0,447.0,453.0,450.0,447.0,433.0,443.0,452.0,447.0,445.0,430.0,441.0,453.0,443.0,442.0,430.0,443.0,451.0,433.0,440.0,431.0,444.0,451.0,437.0,439.0,433.0,444.0,451.0,435.0,438.0,434.0,443.0,445.0,429.0,435.0,447.0,445.0,450.0,430.0,435.0,439.0,444.0,443.0,426.0,435.0,441.0,444.0,445.0,431.0,437.0,447.0,445.0,446.0,431.0,438.0,449.0,447.0,450.0,433.0,438.0,449.0,446.0,449.0,429.0,436.0,448.0,439.0,440.0,427.0,443.0,449.0,439.0,441.0,429.0,439.0,452.0,439.0,441.0,426.0,443.0,453.0,440.0,440.0,435.0,446.0,450.0,433.0,442.0,438.0,447.0,449.0,438.0,440.0,439.0,448.0,453.0,437.0,439.0,441.0,447.0,454.0,434.0,438.0,443.0,447.0,454.0,437.0,441.0,439.0,449.0,453.0,432.0,439.0,438.0,447.0,448.0,431.0,437.0,448.0,445.0,445.0,430.0,438.0,449.0,443.0,447.0,428.0,438.0,450.0,447.0,444.0,430.0,440.0,452.0,441.0,441.0,431.0,446.0,451.0,437.0,440.0,432.0,441.0,452.0,438.0,439.0,428.0,444.0,454.0,436.0,442.0,428.0,443.0,452.0,435.0,441.0,430.0,445.0,453.0,439.0,441.0,432.0,446.0,455.0,438.0
5.0,4.0,4.0,4.0,4.0,3.0,4.0,4.0,4.0,4.0,4.0,3.0,3.0,3.0,5.0,4.0,5.0,3.0,3.0,4.0,5.0,4.0,4.0,4.0,3.0,4.0,4.0,4.0,3.0,4.0,3.0,4.0,3.0,4.0,4.0,3.0,3.0,3.0,4.0,4.0,4.0,4.0,3.0,3.0,3.0,4.0,4.0,4.0,3.0,3.0,3.0,3.0,4.0,4.0,4.0,3.0,4.0,4.0,4.0,4.0,3.0,3.0,4.0,4.0,4.0,4.0,3.0,4.0,3.0,4.0,3.0,4.0,4.0,3.0,3.0,4.0,3.0,4.0,2.0,4.0,3.0,4.0,4.0,5.0,4.0,3.0,3.0,3.0,3.0,4.0,4.0,4.0,2.0,3.0,4.0,4.0,4.0,2.0,3.0,3.0,3.0,4.0,4.0,3.0,3.0,3.0,3.0,4.0,4.0,4.0,4.0,4.0,3.0,3.0,4.0,4.0,4.0,4.0,3.0,4.0,3.0,4.0,3.0,3.0,3.0,4.0,4.0,4.0,4.0,4.0,3.0,3.0,3.0,4.0,3.0,4.0,4.0,3.0,4.0,4.0,4.0,3.0,4.0,4.0,4.0,3.0,4.0,2.0,4.0,3.0,3.0,3.0,4.0,4.0,4.0,3.0,3.0,3.0,4.0,3.0,3.0,4.0,3.0,4.0,3.0,4.0,2.0,3.0,4.0,3.0,3.0,5.0,10.0,15.0,16.0,41.0,35.0,63.0,86.0,88.0,129.0,125.0,161.0,207.0,198.0,249.0,257.0,282.0,333.0,316.0,368.0,386.0,395.0,452.0,430.0,484.0,494.0,492.0,539.0,512.0,558.0,569.0,556.0,611.0,583.0,609.0,629.0,601.0,651.0,622.0,637.0,661.0,630.0,668.0,642.0,657.0,667.0,637.0,667.0,654.0,664.0,668.0,647.0,667.0,656.0,663.0,668.0,636.0,668.0,632.0,650.0,657.0,618.0,653.0,621.0,639.0,652.0,613.0,644.0,637.0,628.0,643.0,604.0,626.0,620.0,611.0,630.0,596.0,617.0,612.0,607.0,614.0,586.0,591.0,578.0,570.0,586.0,566.0,583.0,584.0,560.0,563.0,535.0,549.0,549.0,542.0,539.0,518.0,513.0,511.0,506.0,509.0,489.0,487.0,485.0,471.0,478.0,467.0,471.0,470.0,471.0,462.0,445.0,453.0,454.0,463.0,447.0,445.0,447.0,448.0,443.0,429.0,437.0,440.0,434.0,434.0,408.0,410.0,421.0,409.0,403.0,382.0,388.0,396.0,384.0,389.0,368.0,386.0,405.0,385.0,400.0,378.0,394.0,402.0,376.0,391.0,370.0,390.0,415.0,404.0,423.0,408.0,415.0,432.0,407.0,429.0,406.0,410.0,427.0,402.0,423.0,395.0,413.0,432.0,402.0,437.0,411.0,432.0,449.0,429.0,455.0,441.0,444.0,472.0,444.0,474.0,459.0,457.0,475.0,442.0,467.0,459.0,464.0,475.0,451.0,480.0,472.0,469.0,488.0,464.0,490.0,477.0,473.0,487.0,466.0,492.0,477.0,472.0,485.0,475.0,494.0,496.0,506.0,511.0,516.0,516.0,515.0,511.0,505.0,501.0,491.0,484.0,475.0,464.0,455.0,445.0,435.0,423.0,412.0,402.0,389.0,380.0,368.0,356.0,347.0,336.0,326.0,315.0,305.0,296.0,285.0,275.0,266.0,256.0,249.0,238.0,230.0,221.0,212.0,204.0,197.0,187.0,182.0,173.0,167.0,159.0,153.0,147.0,140.0,134.0,128.0,122.0,117.0,112.0,106.0,101.0,96.0,92.0,87.0,84.0,79.0,75.0,70.0,68.0,64.0,61.0,57.0,54.0,52.0,49.0,46.0,42.0,41.0,37.0,34.0,32.0,30.0,28.0,26.0,23.0,22.0,20.0,19.0,17.0,16.0,14.0,13.0,11.0,11.0,10.0,10.0,9.0,8.0,8.0,7.0,7.0,5.0,7.0,6.0,6.0,6.0,6.0,5.0,6.0,4.0,5.0,5.0,5.0,4.0,5.0,4.0,4.0,4.0,4.0,5.0,5.0,5.0,4.0,5.0,3.0,4.0,4.0,5.0,4.0,5.0,3.0,4.0,4.0,5.0,4.0,4.0,4.0,4.0,3.0,5.0,4.0,4.0,4.0,4.0,4.0,4.0,4.0,4.0,4.0,3.0,4.0,3.0,4.0,3.0,4.0,3.0,4.0,3.0,5.0,4.0,4.0,4.0,3.0,4.0,4.0,4.0,4.0,3.0,4.0,4.0,4.0,5.0,3.0,5.0,2.0,3.0,4.0,5.0,4.0,4.0,3.0,4.0,4.0,4.0,4.0,4.0,4.0,3.0,4.0,4.0,4.0,4.0,4.0,4.0,4.0,4.0,5.0,2.0,4.0,3.0,4.0,4.0,4.0,4.0,4.0,4.0,3.0,4.0,4.0,4.0,3.0,3.0,3.0,4.0,4.0,5.0,4.0,4.0,3.0,4.0,3.0,4.0,4.0,5.0,4.0,3.0,4.0,4.0,4.0,4.0,4.0,3.0,4.0,4.0,4.0,4.0,3.0,4.0,4.0,3.0,3.0,4.0,4.0,3.0,3.0,4.0,3.0,4.0,3.0,4.0,3.0,4.0,4.0,4.0,4.0,4.0,4.0,4.0,4.0,4.0,4.0,4.0,3.0,4.0,4.0,5.0,4.0,4.0,3.0,3.0,4.0,5.0,4.0,4.0,3.0,3.0,4.0,4.0,4.0,4.0,4.0,3.0,4.0,4.0,4.0,4.0,4.0,3.0,4.0,3.0,4.0,4.0,4.0,3.0,3.0,4.0,4.0,4.0,4.0,4.0,3.0,4.0,3.0,4.0,4.0,4.0,2.0,3.0,3.0,5.0,4.0,4.0,3.0,4.0,3.0,4.0,3.0,5.0,4.0,3.0,4.0,4.0,4.0,2.0,4.0,3.0,4.0,3.0,4.0,4.0,3.0,3.0,3.0,4.0,4.0,2.0,3.0,4.0,4.0,4.0,5.0,4.0,3.0,4.0,3.0,4.0,3.0,4.0,4.0,4.0,3.0,4.0,4.0,4.0,2.0,3.0,3.0,3.0,4.0,4.0,3.0,4.0,3.0,3.0,4.0,4.0,4.0,3.0,4.0,3.0,4.0,3.0,4.0,3.0,4.0,3.0,4.0,5.0,4.0,4.0,4.0,3.0,4.0,3.0,4.0,4.0,3.0,4.0,3.0,3.0,3.0,4.0,4.0,4.0,3.0,3.0,3.0,4.0,4.0,5.0,3.0,3.0,3.0,5.0,4.0,4.0,4.0,3.0,3.0,4.0,4.0,3.0,4.0,3.0,3.0,4.0,4.0,4.0,3.0,3.0,4.0,3.0,5.0,3.0,5.0,4.0,3.0,4.0,3.0,4.0,3.0,4.0,3.0,3.0,3.0,4.0,4.0,4.0,3.0,7.0,9.0,9.0,12.0,11.0,15.0,20.0,19.0,27.0,23.0,30.0,37.0,33.0,41.0,45.0,45.0,55.0,48.0,58.0,63.0,60.0,72.0,62.0,72.0,76.0,74.0,87.0,77.0,90.0,96.0,90.0,107.0,93.0,109.0,115.0,107.0,122.0,108.0,122.0,134.0,123.0,140.0,125.0,141.0,153.0,141.0,159.0,152.0,159.0,174.0,161.0,177.0,177.0,178.0,194.0,178.0,195.0,197.0,197.0,213.0,198.0,212.0,219.0,212.0,229.0,213.0,230.0,243.0,234.0,253.0,236.0,254.0,264.0,253.0,270.0,253.0,272.0,286.0,273.0,293.0,273.0,290.0,304.0,289.0,308.0,289.0,306.0,319.0,304.0,319.0,304.0,316.0,331.0,317.0,330.0,317.0,331.0,345.0,329.0,339.0,343.0,341.0,358.0,341.0,352.0,349.0,352.0,369.0,349.0,365.0,363.0,364.0,379.0,363.0,373.0,383.0,373.0,386.0,371.0,381.0,391.0,382.0,395.0,377.0,389.0,401.0,393.0,403.0,388.0,398.0,406.0,401.0,409.0,395.0,407.0,417.0,411.0,417.0,404.0,413.0,425.0,417.0,423.0,409.0,418.0,430.0,426.0,429.0,416.0,425.0,436.0,421.0,429.0,422.0,429.0,441.0,428.0,433.0,426.0,434.0,444.0,430.0,435.0,432.0,438.0,446.0,431.0,437.0,448.0,444.0,450.0,435.0,439.0,443.0,446.0,452.0,437.0,441.0,449.0,451.0,453.0,438.0,440.0,448.0,451.0,449.0,438.0,443.0,453.0,454.0,456.0,443.0,445.0,456.0,457.0,458.0
418.0,415.0,424.0,430.0,421.0,418.0,414.0,424.0,430.0,418.0,415.0,416.0,422.0,430.0,417.0,415.0,417.0,424.0,424.0,411.0,416.0,421.0,428.0,426.0,414.0,418.0,426.0,431.0,427.0,419.0,419.0,428.0,432.0,428.0,415.0,429.0,437.0,429.0,427.0,415.0,431.0,438.0,433.0,428.0,415.0,431.0,434.0,432.0,427.0,418.0,432.0,438.0,425.0,421.0,423.0,431.0,435.0,420.0,418.0,417.0,431.0,436.0,422.0,425.0,422.0,434.0,436.0,429.0,425.0,424.0,432.0,432.0,425.0,422.0,425.0,431.0,436.0,422.0,421.0,424.0,427.0,431.0,417.0,417.0,423.0,427.0,425.0,412.0,419.0,425.0,429.0,426.0,412.0,418.0,428.0,428.0,424.0,415.0,417.0,429.0,426.0,421.0,410.0,422.0,432.0,421.0,420.0,410.0,422.0,431.0,423.0,418.0,411.0,427.0,432.0,426.0,422.0,417.0,423.0,433.0,427.0,421.0,417.0,424.0,433.0,422.0,418.0,411.0,423.0,432.0,421.0,420.0,410.0,423.0,431.0,420.0,418.0,422.0,430.0,431.0,421.0,420.0,426.0,430.0,433.0,418.0,417.0,426.0,427.0,429.0,413.0,414.0,423.0,424.0,421.0,409.0,421.0,427.0,424.0,419.0,406.0,414.0,428.0,424.0,421.0,411.0,415.0,424.0,419.0,419.0,407.0,417.0,432.0,421.0,423.0,406.0,421.0,435.0,428.0,422.0,405.0,422.0,427.0,427.0,429.0,409.0,419.0,432.0,416.0,417.0,413.0,414.0,428.0,415.0,417.0,412.0,422.0,428.0,405.0,411.0,406.0,417.0,424.0,409.0,412.0,422.0,420.0,420.0,411.0,411.0,424.0,423.0,425.0,408.0,414.0,423.0,418.0,417.0,404.0,415.0,420.0,428.0,428.0,406.0,416.0,421.0,418.0,415.0,402.0,411.0,426.0,428.0,420.0,407.0,411.0,424.0,421.0,419.0,412.0,438.0,448.0,436.0,436.0,427.0,442.0,448.0,445.0,444.0,436.0,450.0,451.0,451.0,454.0,440.0,442.0,446.0,438.0,441.0,456.0,459.0,456.0,442.0,443.0,443.0,447.0,457.0,437.0,436.0,430.0,438.0,445.0,441.0,434.0,431.0,437.0,435.0,432.0,434.0,438.0,438.0,441.0,435.0,429.0,438.0,444.0,457.0,441.0,443.0,448.0,455.0,448.0,442.0,458.0,465.0,460.0,451.0,439.0,443.0,458.0,451.0,441.0,428.0,436.0,442.0,436.0,429.0,417.0,429.0,440.0,436.0,437.0,432.0,445.0,443.0,434.0,431.0,432.0,450.0,466.0,459.0,452.0,449.0,450.0,461.0,452.0,446.0,440.0,438.0,446.0,432.0,431.0,430.0,436.0,437.0,421.0,422.0,422.0,429.0,439.0,425.0,422.0,424.0,420.0,418.0,419.0,424.0,434.0,429.0,431.0,412.0,412.0,421.0,424.0,427.0,413.0,418.0,433.0,428.0,425.0,415.0,428.0,436.0,431.0,429.0,420.0,430.0,442.0,437.0,433.0,425.0,435.0,449.0,438.0,430.0,413.0,427.0,438.0,433.0,434.0,423.0,435.0,444.0,434.0,427.0,422.0,436.0,441.0,437.0,435.0,437.0,454.0,461.0,447.0,442.0,452.0,455.0,459.0,452.0,448.0,446.0,456.0,459.0,447.0,446.0,447.0,455.0,454.0,442.0,441.0,450.0,452.0,446.0,441.0,442.0,450.0,452.0,450.0,437.0,443.0,452.0,451.0,446.0,433.0,437.0,443.0,446.0,441.0,428.0,432.0,439.0,438.0,432.0,425.0,428.0,440.0,440.0,433.0,427.0,430.0,440.0,440.0,435.0,425.0,438.0,446.0,433.0,431.0,422.0,436.0,445.0,436.0,431.0,428.0,440.0,443.0,438.0,434.0,430.0,439.0,442.0,425.0,424.0,432.0,435.0,439.0,424.0,425.0,431.0,440.0,439.0,426.0,428.0,433.0,439.0,436.0,430.0,428.0,431.0,438.0,435.0,427.0,425.0,435.0,437.0,438.0,426.0,426.0,434.0,436.0,439.0,424.0,424.0,434.0,434.0,430.0,420.0,431.0,437.0,431.0,424.0,412.0,420.0,432.0,429.0,424.0,415.0,424.0,437.0,430.0,425.0,418.0,433.0,439.0,425.0,427.0,424.0,435.0,440.0,430.0,425.0,421.0,431.0,436.0,422.0,419.0,420.0,427.0,438.0,423.0,421.0,424.0,434.0,439.0,425.0,423.0,422.0,433.0,438.0,423.0,425.0,420.0,431.0,435.0,420.0,420.0,431.0,433.0,429.0,418.0,420.0,431.0,430.0,429.0,416.0,419.0,431.0,431.0,430.0,415.0,420.0,433.0,428.0,424.0,413.0,431.0,436.0,430.0,427.0,419.0,426.0,436.0,428.0,425.0,415.0,426.0,435.0,425.0,425.0,410.0,424.0,435.0,424.0,422.0,410.0,423.0,433.0,424.0,421.0,412.0,426.0,430.0,424.0,422.0,414.0,428.0,434.0,419.0,418.0,424.0,425.0,430.0,416.0,416.0,417.0,427.0,430.0,418.0,420.0,421.0,428.0,429.0,415.0,417.0,430.0,429.0,425.0,416.0,422.0,432.0,429.0,430.0,415.0,423.0,434.0,431.0,426.0,413.0,422.0,426.0,427.0,424.0,411.0,423.0,431.0,429.0,425.0,411.0,418.0,430.0,426.0,421.0,412.0,420.0,432.0,427.0,423.0,417.0,429.0,436.0,421.0,422.0,416.0,427.0,431.0,424.0,418.0,414.0,427.0,434.0,424.0,421.0,418.0,428.0,430.0,418.0,416.0,426.0,427.0,427.0,414.0,418.0,422.0,429.0,430.0,417.0,420.0,425.0,430.0,426.0,421.0,419.0,430.0,433.0,430.0,421.0,421.0,431.0,433.0,434.0,420.0,422.0,433.0,434.0,432.0,420.0,423.0,435.0,432.0,428.0,419.0,431.0,438.0,434.0,428.0,419.0,426.0,436.0,431.0,424.0,414.0,424.0,436.0,428.0,423.0,419.0,431.0,435.0,419.0,422.0,421.0,430.0,434.0,427.0,424.0,424.0,433.0,438.0,428.0,424.0,425.0,429.0,436.0,425.0,423.0,427.0,431.0,437.0,424.0,423.0,423.0,434.0,437.0,423.0,425.0,424.0,433.0,436.0,423.0,425.0,437.0,436.0,431.0,423.0,425.0,437.0,435.0,433.0,421.0,426.0,438.0,435.0,432.0,419.0,427.0,438.0,433.0,429.0,422.0,434.0,438.0,429.0,426.0,420.0,426.0,437.0,429.0,427.0,418.0,430.0,439.0,428.0,428.0,417.0,432.0,440.0,428.0,428.0,419.0,432.0,439.0,430.0,427.0,419.0,432.0,437.0,427.0,423.0,419.0,432.0,438.0,423.0,422.0,432.0,433.0,434.0,419.0,419.0,423.0,431.0,431.0,417.0,421.0,426.0,433.0,431.0,419.0,423.0,434.0,432.0,429.0,418.0,427.0,437.0,431.0,430.0,416.0,427.0,436.0,431.0,428.0,415.0,425.0,431.0,429.0,427.0,415.0,428.0,434.0,431.0,427.0,416.0,422.0,434.0,429.0,425.0,414.0,422.0,434.0,427.0,423.0,415.0,428.0,436.0,425.0,427.0,422.0,433.0,439.0,428.0,426.0,424.0,433.0,438.0,427.0,423.0,423.0,429.0,429.0,417.0,419.0,431.0,430.0,430.0,417.0,419.0,424.0,429.0,426.0,414.0,418.0,427.0,430.0,427.0,422.0,423.0,432.0,434.0,430.0,421.0,422.0,433.0,431.0,430.0,417.0,420.0,432.0,431.0,429.0,418.0,424.0,436.0,431.0,426.0,419.0,431.0,436.0,431.0,427.0,422.0,428.0,438.0,432.0,427.0,419.0,432.0,439.0,431.0,427.0,426.0,434.0,438.0,425.0,428.0,425.0,433.0,433.0,427.0,424.0,428.0,434.0,439.0,427.0,425.0,431.0,435.0,440.0,426.0,424.0,433.0,437.0,439.0,427.0,425.0,427.0,436.0,438.0,424.0,424.0,426.0,435.0,436.0,423.0,423.0,436.0,434.0,428.0,420.0,425.0,437.0,433.0,431.0,418.0,425.0,436.0,434.0,431.0,420.0,427.0,438.0,429.0,425.0,422.0,435.0,440.0,430.0,427.0,425.0,431.0,441.0,433.0,430.0,424.0,437.0,445.0,435.0,433.0,423.0,436.0,445.0,432.0,431.0,428.0,439.0,445.0,438.0,432.0,429.0,440.0,447.0,435.0
