352.0,353.0,352.0,340.0,346.0,350.0,352.0,354.0,340.0,345.0,353.0,353.0,352.0,339.0,345.0,354.0,353.0,352.0,343.0,347.0,357.0,354.0,357.0,344.0,349.0,358.0,354.0,352.0,342.0,353.0,362.0,353.0,352.0,342.0,353.0,358.0,353.0,352.0,345.0,352.0,360.0,353.0,351.0,343.0,354.0,364.0,354.0,354.0,345.0,356.0,364.0,354.0,355.0,347.0,357.0,366.0,358.0,356.0,348.0,356.0,364.0,352.0,351.0,353.0,359.0,363.0,350.0,350.0,356.0,357.0,364.0,349.0,350.0,351.0,358.0,362.0,350.0,351.0,359.0,358.0,357.0,345.0,351.0,360.0,358.0,356.0,347.0,351.0,360.0,358.0,359.0,346.0,352.0,361.0,358.0,358.0,345.0,352.0,361.0,359.0,359.0,346.0,354.0,359.0,359.0,357.0,345.0,351.0,361.0,358.0,356.0,344.0,355.0,364.0,356.0,354.0,346.0,356.0,365.0,354.0,356.0,348.0,358.0,366.0,358.0,356.0,349.0,359.0,364.0,351.0,348.0,352.0,353.0,357.0,344.0,346.0,353.0,355.0,359.0,347.0,346.0,348.0,352.0,354.0,338.0,344.0,348.0,355.0,355.0,341.0,348.0,351.0,355.0,354.0,344.0,345.0,349.0,354.0,360.0,347.0,348.0,354.0,357.0,360.0,346.0,353.0,361.0,360.0,361.0,347.0,357.0,364.0,364.0,363.0,350.0,356.0,364.0,363.0,365.0,353.0,364.0,373.0,361.0,362.0,353.0,365.0,376.0,362.0,363.0,354.0,365.0,371.0,362.0,363.0,355.0,366.0,374.0,364.0,364.0,359.0,367.0,373.0,362.0,361.0,360.0,365.0,375.0,361.0,361.0,355.0,367.0,375.0,360.0,357.0,357.0,367.0,367.0,354.0,361.0,364.0,366.0,365.0,350.0,352.0,363.0,365.0,371.0,356.0,356.0,362.0,363.0,368.0,352.0,364.0,374.0,369.0,369.0,354.0,364.0,372.0,372.0,370.0,358.0,364.0,372.0,369.0,371.0,359.0,365.0,375.0,369.0,368.0,356.0,365.0,374.0,366.0,369.0,354.0,362.0,372.0,365.0,364.0,352.0,364.0,370.0,359.0,357.0,355.0,364.0,372.0,361.0,360.0,357.0,363.0,372.0,358.0,357.0,351.0,361.0,370.0,357.0,360.0,362.0,365.0,368.0,352.0,357.0,361.0,362.0,363.0,353.0,353.0,362.0,365.0,369.0,355.0,356.0,365.0,365.0,370.0,354.0,358.0,367.0,368.0,368.0,358.0,361.0,367.0,367.0,370.0,354.0,359.0,362.0,365.0,366.0,352.0,361.0,370.0,363.0,364.0,352.0,357.0,368.0,362.0,367.0,353.0,363.0,372.0,368.0,367.0,355.0,366.0,374.0,363.0,362.0,361.0,366.0,372.0,360.0,360.0,361.0,366.0,375.0,362.0,361.0,358.0,368.0,375.0,360.0,363.0,359.0,368.0,375.0,361.0,364.0,361.0,368.0,373.0,366.0,364.0,363.0,372.0,378.0,366.0,365.0,366.0,374.0,373.0,360.0,363.0,371.0,370.0,371.0,356.0,360.0,364.0,368.0,368.0,359.0,363.0,369.0,372.0,370.0,359.0,367.0,376.0,368.0,365.0,356.0,364.0,374.0,366.0,366.0,356.0,366.0,374.0,369.0,366.0,356.0,367.0,373.0,369.0,366.0,357.0,367.0,372.0,367.0,365.0,358.0,363.0,372.0,365.0,362.0,354.0,363.0,372.0,365.0,362.0,358.0,367.0,373.0,359.0,362.0,360.0,367.0,370.0,363.0,361.0,362.0,369.0,374.0,361.0,361.0,363.0,367.0,370.0,357.0,361.0,370.0,369.0,368.0,358.0,362.0,367.0,369.0,367.0,354.0,358.0,365.0,366.0,364.0,357.0,357.0,366.0,365.0,363.0,355.0,357.0,367.0,365.0,368.0,354.0,358.0,368.0,365.0,364.0,352.0,357.0,367.0,361.0,359.0,352.0,362.0,367.0,359.0,359.0,352.0,359.0,368.0,360.0,358.0,349.0,359.0,368.0,358.0,358.0,354.0,362.0,367.0,353.0,355.0,356.0,361.0,364.0,355.0,355.0,356.0,361.0,367.0,353.0,354.0,357.0,360.0,367.0,354.0,354.0,359.0,361.0,366.0,352.0,354.0,353.0,360.0,365.0,351.0,354.0,355.0,362.0,364.0,352.0,355.0,364.0,361.0,359.0,351.0,355.0,366.0,363.0,364.0,351.0,355.0,366.0,363.0,362.0,351.0,358.0,367.0,361.0,359.0,353.0,362.0,367.0,360.0,357.0,353.0,359.0,369.0,360.0,359.0,351.0,362.0,370.0,360.0,360.0,353.0,362.0,371.0,360.0,361.0,354.0,364.0,372.0,363.0,361.0,356.0,366.0,371.0,364.0,359.0,355.0,365.0,369.0,357.0,357.0,364.0,365.0,369.0,357.0,358.0,361.0,367.0,368.0,357.0,360.0,363.0,368.0,369.0,356.0,359.0,368.0,365.0,362.0,355.0,360.0,369.0,365.0,365.0,353.0,361.0,370.0,367.0,365.0,353.0,362.0,368.0,368.0,365.0,354.0,363.0,369.0,367.0,366.0,354.0,360.0,370.0,367.0,364.0,357.0,360.0,370.0,367.0,363.0,356.0,367.0,372.0,363.0,364.0,359.0,367.0,373.0,366.0,362.0,359.0,367.0,374.0,365.0,364.0,361.0,368.0,371.0,360.0,360.0,371.0,370.0,372.0,359.0,360.0,363.0,368.0,369.0,356.0,360.0,365.0,368.0,368.0,361.0,359.0,365.0,367.0,366.0,358.0,359.0,365.0,367.0,370.0,358.0,358.0,367.0,366.0,368.0,355.0,357.0,366.0,365.0,363.0,352.0,362.0,368.0,364.0,362.0,355.0,359.0,369.0,364.0,362.0,353.0,360.0,371.0,365.0,362.0,355.0,365.0,372.0,358.0,360.0,356.0,365.0,371.0,362.0,361.0,358.0,368.0,372.0,363.0,360.0,361.0,365.0,373.0,362.0,361.0,362.0,366.0,373.0,361.0,360.0,358.0,368.0,373.0,361.0,362.0,359.0,368.0,372.0,360.0,360.0,367.0,369.0,367.0,359.0,360.0,368.0,368.0,369.0,357.0,358.0,368.0,367.0,368.0,356.0,359.0,369.0,367.0,363.0,355.0,364.0,369.0,365.0,362.0,354.0,361.0,370.0,365.0,363.0,354.0,362.0,372.0,365.0,365.0,354.0,363.0,372.0,364.0,365.0,354.0,365.0,373.0,367.0,363.0,356.0,366.0,371.0,367.0,363.0,356.0,367.0,374.0,361.0,360.0,365.0,368.0,373.0,361.0,359.0,359.0,367.0,371.0,359.0,361.0,358.0,366.0,370.0,357.0,358.0,367.0,366.0,363.0,355.0,357.0,367.0,366.0,367.0,355.0,358.0,368.0,367.0,367.0,355.0,358.0,363.0,366.0,366.0,353.0,361.0,366.0,367.0,365.0,352.0,359.0,367.0,367.0,364.0,355.0,357.0,367.0,365.0,363.0,352.0,363.0,371.0,361.0,362.0,353.0,363.0,371.0,364.0,361.0,352.0,363.0,367.0,362.0,360.0,353.0,363.0,369.0,357.0,355.0,361.0,363.0,368.0,355.0,355.0,355.0,363.0,367.0,354.0,357.0,358.0,364.0,367.0,358.0,356.0,359.0,365.0,365.0,356.0,356.0,360.0,364.0,368.0,356.0,356.0,362.0,365.0,370.0,355.0,356.0,362.0,364.0,363.0,350.0,358.0,365.0,362.0,360.0,350.0,356.0,366.0,363.0,361.0,352.0,356.0,365.0,362.0,360.0,351.0,361.0,369.0,357.0,360.0,352.0,365.0,370.0,361.0,359.0,352.0,362.0,368.0,360.0,357.0,353.0,359.0,369.0,359.0,359.0,356.0,361.0,370.0,360.0,358.0,353.0,362.0,370.0,358.0,360.0,353.0,366.0,373.0,360.0,360.0,364.0,368.0,368.0,361.0,360.0,366.0,369.0,372.0,358.0,360.0,366.0,368.0,372.0,359.0,359.0,369.0,366.0,364.0,352.0,361.0,367.0,366.0,363.0,352.0,358.0,367.0,364.0,360.0,351.0,355.0,366.0,360.0,363.0,348.0,357.0,366.0,358.0,361.0,346.0,356.0,366.0,360.0,359.0,345.0,356.0,362.0,360.0,359.0,346.0,357.0,365.0,353.0,353.0,352.0,356.0,365.0,352.0,351.0,345.0,357.0,365.0,351.0,354.0,347.0,357.0,366.0,350.0,351.0,356.0,358.0,361.0
28.0,29.0,28.0,28.0,28.0,28.0,29.0,29.0,28.0,28.0,29.0,28.0,28.0,28.0,27.0,28.0,29.0,28.0,28.0,28.0,27.0,29.0,28.0,29.0,28.0,28.0,27.0,29.0,28.0,28.0,28.0,28.0,28.0,29.0,28.0,29.0,28.0,28.0,28.0,27.0,28.0,28.0,28.0,28.0,28.0,27.0,28.0,28.0,29.0,28.0,28.0,27.0,27.0,29.0,28.0,28.0,28.0,27.0,27.0,28.0,28.0,28.0,27.0,28.0,27.0,28.0,27.0,29.0,28.0,28.0,27.0,28.0,28.0,29.0,28.0,27.0,27.0,28.0,27.0,28.0,28.0,28.0,28.0,27.0,28.0,28.0,29.0,26.0,28.0,27.0,28.0,27.0,29.0,28.0,28.0,27.0,27.0,28.0,28.0,27.0,28.0,28.0,27.0,28.0,28.0,29.0,28.0,27.0,27.0,28.0,28.0,29.0,28.0,28.0,27.0,28.0,27.0,29.0,28.0,27.0,28.0,27.0,27.0,28.0,28.0,28.0,28.0,27.0,28.0,28.0,28.0,28.0,28.0,27.0,28.0,28.0,29.0,28.0,28.0,27.0,28.0,28.0,29.0,28.0,28.0,28.0,27.0,27.0,28.0,28.0,28.0,28.0,27.0,28.0,28.0,29.0,27.0,28.0,27.0,27.0,28.0,29.0,28.0,28.0,28.0,27.0,28.0,28.0,28.0,28.0,28.0,27.0,28.0,28.0,28.0,28.0,28.0,27.0,28.0,28.0,28.0,28.0,28.0,27.0,29.0,28.0,29.0,28.0,28.0,28.0,27.0,28.0,28.0,29.0,28.0,28.0,27.0,28.0,28.0,28.0,28.0,28.0,27.0,28.0,28.0,29.0,28.0,28.0,28.0,27.0,28.0,28.0,28.0,28.0,28.0,27.0,28.0,28.0,29.0,28.0,28.0,27.0,28.0,28.0,28.0,28.0,28.0,28.0,28.0,29.0,29.0,28.0,28.0,28.0,27.0,28.0,28.0,28.0,28.0,28.0,28.0,28.0,28.0,29.0,28.0,28.0,28.0,28.0,28.0,29.0,28.0,28.0,29.0,29.0,28.0,28.0,29.0,28.0,28.0,27.0,29.0,28.0,29.0,28.0,28.0,27.0,29.0,28.0,29.0,28.0,28.0,27.0,28.0,28.0,29.0,28.0,28.0,28.0,27.0,28.0,28.0,28.0,28.0,28.0,27.0,28.0,28.0,29.0,28.0,28.0,28.0,28.0,28.0,29.0,28.0,27.0,28.0,28.0,28.0,28.0,29.0,28.0,29.0,28.0,29.0,28.0,29.0,28.0,28.0,27.0,29.0,28.0,29.0,28.0,28.0,28.0,28.0,29.0,29.0,28.0,28.0,28.0,29.0,28.0,28.0,29.0,28.0,29.0,29.0,29.0,28.0,29.0,28.0,28.0,29.0,28.0,29.0,29.0,28.0,28.0,28.0,27.0,28.0,29.0,28.0,28.0,28.0,27.0,29.0,28.0,29.0,28.0,29.0,27.0,28.0,28.0,29.0,28.0,29.0,29.0,29.0,28.0,28.0,29.0,28.0,28.0,28.0,29.0,28.0,29.0,28.0,28.0,29.0,29.0,29.0,29.0,28.0,28.0,29.0,29.0,28.0,29.0,28.0,28.0,28.0,28.0,28.0,29.0,29.0,28.0,29.0,27.0,29.0,29.0,29.0,28.0,28.0,28.0,29.0,28.0,29.0,28.0,28.0,29.0,28.0,29.0,29.0,29.0,28.0,28.0,29.0,29.0,29.0,28.0,28.0,28.0,28.0,28.0,29.0,29.0,28.0,28.0,28.0,29.0,29.0,29.0,28.0,28.0,29.0,28.0,29.0,29.0,29.0,29.0,29.0,29.0,29.0,29.0,30.0,28.0,29.0,28.0,29.0,29.0,29.0,28.0,29.0,29.0,29.0,29.0,29.0,28.0,28.0,29.0,29.0,29.0,29.0,29.0,28.0,29.0,29.0,28.0,28.0,30.0,28.0,29.0,29.0,29.0,28.0,29.0,28.0,29.0,28.0,29.0,29.0,29.0,29.0,28.0,29.0,29.0,29.0,28.0,29.0,29.0,28.0,29.0,29.0,28.0,30.0,28.0,28.0,28.0,29.0,28.0,29.0,28.0,28.0,29.0,29.0,29.0,28.0,29.0,28.0,28.0,29.0,28.0,29.0,30.0,28.0,28.0,29.0,29.0,29.0,29.0,29.0,28.0,29.0,29.0,28.0,29.0,29.0,28.0,29.0,29.0,29.0,29.0,30.0,28.0,28.0,29.0,29.0,29.0,29.0,28.0,29.0,29.0,29.0,29.0,29.0,29.0,29.0,29.0,29.0,29.0,29.0,30.0,30.0,29.0,29.0,30.0,29.0,30.0,28.0,29.0,29.0,29.0,29.0,30.0,29.0,29.0,29.0,29.0,29.0,29.0,30.0,30.0,30.0,29.0,30.0,30.0,30.0,30.0,30.0,30.0,30.0,29.0,31.0,29.0,30.0,30.0,30.0,30.0,29.0,30.0,30.0,30.0,30.0,30.0,29.0,31.0,29.0,30.0,29.0,30.0,29.0,31.0,29.0,29.0,29.0,30.0,29.0,30.0,30.0,29.0,30.0,30.0,30.0,29.0,30.0,28.0,29.0,30.0,30.0,29.0,31.0,30.0,29.0,29.0,29.0,29.0,28.0,29.0,30.0,29.0,30.0,29.0,30.0,30.0,29.0,30.0,29.0,30.0,29.0,30.0,30.0,30.0,29.0,30.0,29.0,29.0,28.0,29.0,30.0,30.0,29.0,30.0,30.0,29.0,30.0,30.0,29.0,29.0,30.0,30.0,30.0,29.0,29.0,29.0,31.0,30.0,29.0,30.0,30.0,29.0,31.0,29.0,30.0,30.0,30.0,30.0,30.0,30.0,30.0,30.0,29.0,30.0,29.0,31.0,30.0,30.0,30.0,30.0,29.0,31.0,30.0,30.0,30.0,30.0,30.0,31.0,31.0,30.0,31.0,30.0,30.0,30.0,30.0,30.0,30.0,30.0,30.0,29.0,31.0,30.0,30.0,30.0,29.0,30.0,31.0,30.0,30.0,30.0,30.0,30.0,30.0,31.0,30.0,30.0,30.0,30.0,29.0,31.0,30.0,30.0,31.0,31.0,29.0,31.0,30.0,30.0,31.0,30.0,30.0,31.0,30.0,30.0,30.0,30.0,31.0,31.0,31.0,30.0,31.0,31.0,31.0,29.0,31.0,30.0,30.0,30.0,30.0,29.0,31.0,30.0,30.0,30.0,30.0,31.0,31.0,31.0,30.0,30.0,30.0,30.0,29.0,31.0,30.0,30.0,30.0,30.0,29.0,31.0,30.0,30.0,30.0,30.0,31.0,31.0,30.0,30.0,30.0,30.0,30.0,29.0,30.0,29.0,29.0,29.0,30.0,29.0,31.0,30.0,30.0,29.0,30.0,29.0,31.0,29.0,29.0,29.0,30.0,29.0,29.0,30.0,29.0,29.0,29.0,30.0,30.0,30.0,29.0,29.0,30.0,30.0,29.0,31.0,30.0,30.0,30.0,30.0,29.0,30.0,30.0,30.0,30.0,29.0,29.0,30.0,31.0,30.0,30.0,29.0,30.0,29.0,30.0,30.0,30.0,29.0,30.0,29.0,30.0,30.0,30.0,30.0,29.0,30.0,30.0,30.0,30.0,29.0,29.0,30.0,29.0,31.0,30.0,30.0,30.0,30.0,29.0,30.0,30.0,30.0,30.0,30.0,30.0,30.0,30.0,29.0,31.0,30.0,30.0,29.0,31.0,30.0,30.0,31.0,30.0,29.0,30.0,30.0,30.0,30.0,30.0,30.0,31.0,30.0,30.0,30.0,30.0,30.0,29.0,31.0,30.0,30.0,29.0,30.0,29.0,30.0,30.0,29.0,30.0,30.0,29.0,30.0,29.0,30.0,30.0,30.0,30.0,31.0,30.0,30.0,29.0,29.0,30.0,29.0,30.0,28.0,30.0,29.0,30.0,29.0,31.0,30.0,30.0,30.0,30.0,30.0,31.0,30.0,30.0,30.0,29.0,30.0,30.0,30.0,30.0,30.0,30.0,31.0,31.0,31.0,30.0,30.0,31.0,30.0,31.0,31.0,30.0,30.0,31.0,31.0,30.0,31.0,30.0,30.0,30.0,30.0,30.0,29.0,31.0,30.0,30.0,30.0,31.0,29.0,31.0,30.0,31.0,30.0,31.0,31.0,31.0,30.0,30.0,30.0,30.0,30.0,30.0,31.0,30.0,30.0,30.0,30.0,29.0,31.0,30.0,31.0,30.0,30.0,29.0,31.0,30.0,30.0,31.0,30.0,30.0,31.0,30.0,30.0
6.0,6.0,4.0,5.0,5.0,4.0,4.0,5.0,4.0,4.0,5.0,4.0,4.0,5.0,4.0,4.0,4.0,4.0,4.0,4.0,5.0,3.0,4.0,3.0,4.0,4.0,5.0,4.0,4.0,3.0,4.0,4.0,5.0,4.0,4.0,3.0,3.0,4.0,4.0,4.0,4.0,4.0,3.0,4.0,3.0,5.0,4.0,4.0,3.0,4.0,4.0,5.0,4.0,3.0,4.0,4.0,3.0,4.0,4.0,4.0,3.0,3.0,4.0,4.0,4.0,4.0,4.0,3.0,4.0,4.0,4.0,4.0,3.0,3.0,4.0,4.0,4.0,4.0,4.0,4.0,3.0,4.0,4.0,4.0,4.0,4.0,3.0,4.0,4.0,4.0,4.0,4.0,3.0,4.0,4.0,4.0,4.0,4.0,4.0,4.0,4.0,4.0,4.0,4.0,4.0,3.0,3.0,4.0,4.0,2.0,4.0,3.0,3.0,4.0,5.0,4.0,4.0,3.0,4.0,4.0,4.0,3.0,4.0,4.0,3.0,3.0,4.0,4.0,4.0,4.0,3.0,4.0,4.0,5.0,4.0,3.0,4.0,4.0,4.0,5.0,4.0,4.0,3.0,3.0,4.0,4.0,4.0,4.0,4.0,3.0,4.0,4.0,5.0,3.0,4.0,3.0,4.0,3.0,5.0,4.0,4.0,4.0,3.0,3.0,4.0,3.0,3.0,3.0,3.0,3.0,4.0,4.0,4.0,4.0,3.0,4.0,4.0,4.0,2.0,3.0,3.0,4.0,4.0,4.0,4.0,4.0,3.0,4.0,4.0,4.0,4.0,4.0,4.0,3.0,4.0,4.0,5.0,4.0,4.0,3.0,4.0,3.0,5.0,4.0,4.0,3.0,4.0,4.0,4.0,4.0,3.0,4.0,3.0,4.0,4.0,4.0,3.0,4.0,3.0,4.0,3.0,4.0,3.0,3.0,3.0,4.0,3.0,4.0,3.0,4.0,3.0,4.0,3.0,4.0,4.0,4.0,4.0,3.0,4.0,4.0,4.0,3.0,3.0,3.0,4.0,4.0,4.0,4.0,4.0,3.0,4.0,3.0,4.0,3.0,3.0,4.0,3.0,4.0,4.0,4.0,3.0,4.0,3.0,3.0,3.0,4.0,4.0,4.0,3.0,3.0,4.0,5.0,4.0,4.0,3.0,3.0,4.0,4.0,4.0,4.0,4.0,3.0,4.0,4.0,4.0,3.0,4.0,3.0,4.0,3.0,5.0,4.0,4.0,3.0,3.0,5.0,4.0,4.0,4.0,4.0,3.0,4.0,4.0,4.0,3.0,4.0,3.0,4.0,3.0,5.0,2.0,3.0,3.0,3.0,4.0,5.0,4.0,3.0,4.0,3.0,4.0,4.0,4.0,3.0,4.0,3.0,4.0,3.0,4.0,3.0,3.0,3.0,4.0,3.0,4.0,4.0,4.0,3.0,4.0,4.0,5.0,4.0,4.0,3.0,3.0,4.0,4.0,4.0,2.0,4.0,3.0,3.0,4.0,5.0,4.0,4.0,4.0,4.0,4.0,4.0,4.0,4.0,4.0,3.0,3.0,4.0,4.0,3.0,4.0,3.0,4.0,4.0,4.0,4.0,4.0,3.0,4.0,4.0,4.0,4.0,4.0,3.0,4.0,3.0,5.0,4.0,4.0,3.0,3.0,3.0,4.0,5.0,3.0,4.0,3.0,3.0,3.0,4.0,4.0,4.0,3.0,4.0,3.0,4.0,4.0,4.0,3.0,3.0,4.0,4.0,4.0,3.0,3.0,3.0,4.0,3.0,4.0,4.0,3.0,3.0,4.0,3.0,5.0,4.0,3.0,3.0,3.0,4.0,5.0,4.0,3.0,3.0,5.0,3.0,4.0,3.0,4.0,4.0,3.0,3.0,4.0,5.0,4.0,4.0,3.0,4.0,4.0,4.0,3.0,4.0,3.0,3.0,3.0,4.0,4.0,4.0,4.0,3.0,3.0,4.0,4.0,4.0,4.0,3.0,4.0,3.0,4.0,4.0,4.0,3.0,4.0,3.0,4.0,4.0,4.0,4.0,3.0,4.0,4.0,4.0,3.0,4.0,3.0,4.0,4.0,5.0,2.0,4.0,3.0,4.0,4.0,4.0,3.0,4.0,4.0,3.0,3.0,4.0,4.0,2.0,4.0,4.0,3.0,4.0,4.0,4.0,4.0,3.0,4.0,3.0,5.0,4.0,3.0,4.0,3.0,4.0,4.0,4.0,3.0,4.0,3.0,4.0,3.0,4.0,4.0,3.0,3.0,4.0,4.0,4.0,4.0,3.0,3.0,4.0,4.0,4.0,3.0,4.0,3.0,4.0,4.0,4.0,4.0,4.0,4.0,3.0,3.0,4.0,5.0,3.0,4.0,3.0,4.0,3.0,4.0,4.0,3.0,3.0,3.0,3.0,4.0,4.0,4.0,4.0,3.0,4.0,4.0,5.0,3.0,3.0,3.0,4.0,3.0,4.0,3.0,4.0,3.0,3.0,3.0,4.0,4.0,3.0,4.0,3.0,3.0,4.0,3.0,4.0,4.0,3.0,4.0,4.0,5.0,4.0,4.0,3.0,4.0,3.0,5.0,4.0,4.0,4.0,3.0,4.0,4.0,3.0,3.0,4.0,3.0,4.0,4.0,4.0,4.0,4.0,3.0,4.0,4.0,4.0,3.0,3.0,4.0,4.0,3.0,5.0,3.0,3.0,4.0,3.0,4.0,4.0,3.0,3.0,4.0,3.0,3.0,3.0,5.0,2.0,3.0,4.0,4.0,4.0,4.0,4.0,3.0,3.0,3.0,4.0,4.0,4.0,4.0,4.0,3.0,3.0,4.0,5.0,4.0,4.0,3.0,4.0,4.0,5.0,2.0,3.0,3.0,3.0,3.0,5.0,3.0,3.0,4.0,3.0,4.0,4.0,4.0,4.0,3.0,3.0,4.0,4.0,4.0,2.0,4.0,3.0,4.0,3.0,5.0,4.0,4.0,3.0,3.0,4.0,3.0,4.0,3.0,4.0,4.0,3.0,4.0,4.0,4.0,4.0,3.0,4.0,3.0,5.0,4.0,3.0,3.0,4.0,3.0,4.0,3.0,4.0,4.0,3.0,3.0,4.0,4.0,3.0,4.0,4.0,4.0,4.0,4.0,3.0,4.0,3.0,4.0,4.0,4.0,4.0,3.0,3.0,3.0,4.0,4.0,4.0,3.0,3.0,3.0,5.0,3.0,4.0,4.0,4.0,3.0,4.0,4.0,5.0,4.0,4.0,3.0,3.0,3.0,5.0,4.0,3.0,4.0,3.0,3.0,4.0,4.0,4.0,4.0,3.0,4.0,3.0,5.0,2.0,3.0,3.0,4.0,4.0,4.0,4.0,3.0,3.0,4.0,3.0,4.0,4.0,3.0,4.0,3.0,4.0,4.0,5.0,2.0,4.0,3.0,3.0,4.0,5.0,4.0,3.0,3.0,4.0,3.0,5.0,3.0,4.0,3.0,3.0,3.0,4.0,4.0,3.0,3.0,3.0,4.0,3.0,5.0,3.0,4.0,3.0,4.0,3.0,5.0,3.0,3.0,4.0,3.0,4.0,4.0,4.0,4.0,4.0,3.0,3.0,3.0,4.0,4.0,4.0,3.0,4.0,4.0,4.0,4.0,4.0,3.0,3.0,3.0,4.0,4.0,4.0,3.0,3.0,4.0,4.0,4.0,3.0,3.0,3.0,3.0,4.0,4.0,2.0,4.0,3.0,4.0,3.0,4.0,4.0,4.0,4.0,4.0,4.0,4.0,4.0,4.0,4.0,3.0,4.0,4.0,4.0,4.0,4.0,3.0,4.0,3.0,4.0,3.0,4.0,3.0,4.0,4.0,3.0,4.0,4.0,3.0,3.0,3.0,4.0,4.0,4.0,4.0,4.0,4.0,4.0,4.0,3.0,4.0,3.0,4.0,3.0,5.0,4.0,3.0,3.0,3.0,4.0,4.0,4.0,3.0,4.0,3.0,4.0,4.0,5.0,4.0,4.0,3.0,3.0,3.0,5.0,4.0,4.0,3.0,3.0,4.0,5.0,4.0,3.0,3.0,3.0,4.0,4.0,4.0,2.0,4.0,3.0,4.0,4.0,4.0,4.0,3.0,3.0,4.0,4.0,4.0,2.0,4.0,4.0,3.0,3.0,4.0,4.0,3.0,4.0,3.0,4.0,4.0,4.0,4.0,4.0,3.0,3.0,3.0,5.0,2.0,4.0,3.0,4.0,4.0,4.0,4.0,3.0,4.0,3.0,4.0,4.0,4.0,4.0,4.0,3.0,4.0,3.0,4.0,4.0,3.0,3.0,4.0,4.0,4.0,4.0,3.0,4.0,3.0,3.0
422.0,422.0,418.0,407.0,417.0,421.0,423.0,419.0,407.0,412.0,423.0,423.0,420.0,410.0,417.0,427.0,427.0,423.0,413.0,416.0,427.0,424.0,422.0,409.0,417.0,430.0,423.0,418.0,409.0,422.0,428.0,420.0,416.0,412.0,424.0,431.0,422.0,419.0,415.0,421.0,428.0,420.0,418.0,410.0,426.0,435.0,425.0,425.0,418.0,429.0,437.0,424.0,425.0,419.0,431.0,437.0,428.0,423.0,416.0,427.0,432.0,417.0,414.0,422.0,426.0,428.0,415.0,415.0,423.0,426.0,428.0,416.0,418.0,424.0,433.0,432.0,419.0,421.0,431.0,430.0,426.0,413.0,421.0,429.0,424.0,416.0,406.0,413.0,426.0,424.0,426.0,412.0,422.0,430.0,427.0,424.0,413.0,425.0,436.0,432.0,429.0,416.0,429.0,434.0,433.0,429.0,413.0,421.0,432.0,429.0,424.0,413.0,428.0,437.0,425.0,423.0,415.0,427.0,432.0,420.0,424.0,416.0,430.0,436.0,428.0,423.0,418.0,428.0,429.0,416.0,416.0,425.0,428.0,427.0,418.0,419.0,429.0,428.0,428.0,418.0,410.0,415.0,423.0,420.0,407.0,402.0,406.0,412.0,417.0,401.0,404.0,415.0,413.0,410.0,402.0,400.0,410.0,413.0,417.0,406.0,401.0,410.0,416.0,417.0,403.0,408.0,421.0,419.0,415.0,404.0,422.0,433.0,435.0,436.0,423.0,426.0,436.0,441.0,438.0,426.0,434.0,442.0,433.0,435.0,429.0,447.0,459.0,446.0,446.0,437.0,441.0,451.0,442.0,438.0,430.0,447.0,453.0,441.0,441.0,434.0,436.0,441.0,430.0,429.0,429.0,433.0,436.0,417.0,419.0,418.0,434.0,450.0,435.0,431.0,435.0,433.0,427.0,415.0,417.0,421.0,427.0,427.0,422.0,414.0,430.0,437.0,442.0,428.0,425.0,429.0,426.0,425.0,410.0,431.0,437.0,433.0,428.0,411.0,425.0,439.0,441.0,439.0,427.0,430.0,442.0,440.0,440.0,430.0,432.0,442.0,436.0,434.0,419.0,436.0,449.0,437.0,435.0,422.0,429.0,434.0,430.0,429.0,420.0,437.0,443.0,430.0,428.0,425.0,434.0,439.0,428.0,425.0,429.0,439.0,443.0,427.0,424.0,424.0,436.0,447.0,437.0,438.0,443.0,442.0,436.0,428.0,440.0,444.0,445.0,434.0,422.0,418.0,430.0,432.0,429.0,412.0,418.0,429.0,429.0,431.0,415.0,422.0,433.0,433.0,431.0,422.0,433.0,447.0,441.0,434.0,422.0,430.0,441.0,439.0,436.0,428.0,444.0,449.0,435.0,431.0,422.0,432.0,442.0,433.0,434.0,425.0,433.0,441.0,435.0,431.0,425.0,439.0,444.0,431.0,431.0,429.0,422.0,431.0,419.0,418.0,427.0,431.0,437.0,429.0,431.0,431.0,441.0,442.0,430.0,435.0,436.0,446.0,451.0,433.0,435.0,433.0,442.0,439.0,436.0,432.0,434.0,448.0,452.0,437.0,435.0,445.0,456.0,449.0,431.0,434.0,441.0,439.0,438.0,423.0,432.0,437.0,439.0,437.0,433.0,439.0,452.0,449.0,443.0,434.0,446.0,452.0,441.0,438.0,431.0,446.0,454.0,442.0,439.0,429.0,440.0,447.0,441.0,434.0,428.0,441.0,445.0,440.0,435.0,428.0,438.0,441.0,433.0,429.0,426.0,434.0,442.0,434.0,431.0,425.0,435.0,442.0,436.0,432.0,432.0,447.0,450.0,432.0,434.0,437.0,445.0,444.0,435.0,433.0,438.0,445.0,446.0,432.0,429.0,435.0,440.0,436.0,424.0,432.0,444.0,441.0,435.0,424.0,434.0,439.0,442.0,436.0,425.0,425.0,435.0,436.0,432.0,423.0,426.0,437.0,435.0,434.0,425.0,430.0,441.0,438.0,436.0,422.0,431.0,443.0,439.0,432.0,417.0,425.0,436.0,432.0,426.0,420.0,432.0,438.0,429.0,429.0,425.0,432.0,442.0,429.0,426.0,419.0,429.0,436.0,423.0,422.0,423.0,433.0,434.0,418.0,420.0,422.0,430.0,429.0,423.0,422.0,429.0,433.0,434.0,419.0,419.0,427.0,428.0,432.0,417.0,416.0,427.0,429.0,431.0,418.0,421.0,424.0,431.0,431.0,416.0,421.0,424.0,429.0,428.0,414.0,420.0,431.0,427.0,423.0,412.0,422.0,435.0,429.0,426.0,412.0,420.0,429.0,428.0,421.0,407.0,419.0,429.0,420.0,418.0,414.0,424.0,430.0,417.0,416.0,416.0,423.0,432.0,420.0,418.0,411.0,425.0,433.0,418.0,421.0,414.0,426.0,432.0,419.0,419.0,413.0,425.0,433.0,425.0,425.0,421.0,431.0,437.0,425.0,418.0,418.0,430.0,429.0,414.0,416.0,426.0,428.0,429.0,418.0,418.0,423.0,429.0,428.0,414.0,419.0,426.0,429.0,423.0,407.0,416.0,427.0,420.0,417.0,408.0,419.0,429.0,423.0,423.0,410.0,422.0,431.0,425.0,421.0,407.0,421.0,427.0,426.0,421.0,409.0,425.0,430.0,427.0,424.0,413.0,420.0,434.0,426.0,422.0,413.0,423.0,433.0,430.0,426.0,419.0,430.0,435.0,421.0,424.0,419.0,426.0,435.0,423.0,422.0,420.0,429.0,435.0,423.0,422.0,422.0,422.0,422.0,407.0,413.0,428.0,428.0,429.0,416.0,418.0,423.0,427.0,424.0,407.0,414.0,428.0,430.0,427.0,416.0,417.0,425.0,427.0,423.0,416.0,419.0,430.0,429.0,430.0,414.0,416.0,428.0,427.0,428.0,413.0,417.0,428.0,423.0,420.0,409.0,424.0,432.0,424.0,421.0,412.0,419.0,429.0,423.0,420.0,411.0,423.0,439.0,427.0,423.0,421.0,431.0,432.0,414.0,417.0,417.0,426.0,428.0,419.0,418.0,422.0,434.0,438.0,423.0,423.0,425.0,429.0,435.0,421.0,418.0,422.0,424.0,429.0,417.0,421.0,420.0,429.0,432.0,418.0,418.0,416.0,427.0,426.0,412.0,417.0,431.0,431.0,429.0,418.0,420.0,432.0,432.0,431.0,417.0,422.0,436.0,434.0,429.0,417.0,423.0,433.0,430.0,426.0,419.0,428.0,434.0,429.0,427.0,419.0,426.0,437.0,431.0,431.0,422.0,435.0,445.0,433.0,434.0,423.0,435.0,441.0,431.0,432.0,422.0,434.0,440.0,430.0,427.0,421.0,435.0,441.0,433.0,428.0,422.0,434.0,438.0,426.0,423.0,432.0,434.0,436.0,423.0,422.0,422.0,432.0,436.0,422.0,422.0,423.0,428.0,428.0,417.0,419.0,430.0,429.0,425.0,417.0,421.0,433.0,429.0,428.0,415.0,424.0,435.0,433.0,427.0,414.0,422.0,429.0,430.0,426.0,414.0,425.0,432.0,432.0,429.0,414.0,423.0,432.0,432.0,426.0,416.0,420.0,436.0,431.0,426.0,417.0,430.0,438.0,427.0,428.0,420.0,432.0,438.0,430.0,426.0,421.0,431.0,436.0,429.0,428.0,423.0,434.0,436.0,423.0,420.0,428.0,429.0,431.0,419.0,421.0,423.0,432.0,430.0,418.0,423.0,426.0,434.0,431.0,425.0,422.0,428.0,433.0,428.0,420.0,419.0,426.0,430.0,432.0,420.0,420.0,430.0,435.0,434.0,421.0,421.0,431.0,431.0,427.0,415.0,429.0,432.0,430.0,426.0,419.0,426.0,441.0,435.0,431.0,420.0,428.0,440.0,434.0,430.0,422.0,437.0,441.0,431.0,434.0,425.0,439.0,443.0,433.0,431.0,428.0,439.0,445.0,433.0,427.0,427.0,434.0,443.0,430.0,426.0,426.0,433.0,440.0,430.0,428.0,423.0,435.0,440.0,428.0,428.0,424.0,436.0,440.0,429.0,427.0,435.0,436.0,432.0,425.0,426.0,437.0,440.0,439.0,426.0,427.0,438.0,441.0,440.0,428.0,431.0,441.0,437.0,432.0,424.0,434.0,439.0,438.0,433.0,425.0,432.0,443.0,438.0,433.0,422.0,431.0,441.0,435.0,435.0,420.0,430.0,438.0,429.0,429.0,415.0,427.0,437.0,432.0,426.0,416.0,428.0,436.0,434.0,429.0,420.0,431.0,437.0,423.0,422.0,425.0,428.0,435.0,422.0,420.0,418.0,430.0,436.0,422.0,425.0,423.0,434.0,437.0,423.0,425.0,435.0,437.0,431.0
