357.0,361.0,348.0,347.0,350.0,357.0,360.0,348.0,349.0,351.0,357.0,361.0,348.0,351.0,361.0,359.0,357.0,347.0,354.0,364.0,359.0,361.0,349.0,355.0,365.0,360.0,360.0,347.0,355.0,364.0,357.0,354.0,349.0,358.0,365.0,357.0,354.0,352.0,357.0,366.0,356.0,354.0,348.0,357.0,365.0,355.0,356.0,347.0,357.0,368.0,355.0,356.0,349.0,359.0,366.0,358.0,356.0,350.0,360.0,366.0,357.0,355.0,353.0,360.0,366.0,353.0,353.0,360.0,361.0,365.0,352.0,353.0,356.0,361.0,362.0,350.0,353.0,355.0,359.0,360.0,348.0,354.0,362.0,360.0,358.0,349.0,355.0,367.0,361.0,362.0,349.0,355.0,366.0,362.0,362.0,348.0,356.0,362.0,361.0,359.0,349.0,357.0,363.0,361.0,358.0,348.0,354.0,364.0,361.0,358.0,350.0,354.0,365.0,360.0,357.0,350.0,360.0,367.0,355.0,355.0,349.0,360.0,368.0,359.0,356.0,353.0,360.0,368.0,358.0,356.0,353.0,362.0,366.0,353.0,353.0,362.0,363.0,364.0,353.0,353.0,357.0,362.0,364.0,351.0,355.0,358.0,362.0,361.0,353.0,353.0,359.0,354.0,355.0,348.0,348.0,356.0,358.0,366.0,350.0,351.0,359.0,359.0,364.0,350.0,352.0,364.0,364.0,363.0,352.0,362.0,365.0,360.0,359.0,350.0,357.0,367.0,366.0,366.0,359.0,364.0,374.0,368.0,368.0,358.0,365.0,373.0,363.0,366.0,362.0,370.0,378.0,369.0,370.0,367.0,372.0,381.0,371.0,367.0,364.0,368.0,377.0,367.0,364.0,366.0,370.0,383.0,368.0,367.0,362.0,373.0,381.0,366.0,366.0,363.0,371.0,377.0,364.0,363.0,369.0,372.0,372.0,361.0,361.0,371.0,369.0,371.0,358.0,357.0,367.0,368.0,371.0,358.0,358.0,367.0,368.0,367.0,357.0,368.0,376.0,371.0,366.0,356.0,359.0,371.0,365.0,365.0,353.0,360.0,372.0,368.0,370.0,357.0,365.0,375.0,369.0,370.0,358.0,368.0,377.0,371.0,368.0,358.0,368.0,375.0,372.0,368.0,359.0,365.0,377.0,364.0,363.0,363.0,366.0,374.0,359.0,360.0,357.0,370.0,375.0,362.0,364.0,361.0,372.0,379.0,364.0,363.0,369.0,370.0,369.0,361.0,360.0,371.0,372.0,373.0,359.0,360.0,371.0,369.0,373.0,359.0,361.0,367.0,372.0,372.0,358.0,363.0,367.0,370.0,369.0,355.0,358.0,368.0,369.0,369.0,359.0,361.0,368.0,369.0,369.0,356.0,365.0,375.0,367.0,369.0,357.0,369.0,375.0,368.0,366.0,354.0,366.0,370.0,364.0,363.0,353.0,365.0,374.0,360.0,360.0,362.0,367.0,374.0,363.0,362.0,359.0,368.0,377.0,364.0,365.0,361.0,370.0,376.0,366.0,364.0,362.0,373.0,375.0,366.0,364.0,364.0,369.0,375.0,364.0,363.0,365.0,368.0,376.0,363.0,362.0,363.0,367.0,367.0,356.0,359.0,366.0,368.0,367.0,357.0,363.0,370.0,373.0,370.0,363.0,363.0,371.0,369.0,365.0,352.0,362.0,372.0,363.0,364.0,355.0,368.0,374.0,370.0,367.0,358.0,368.0,373.0,368.0,363.0,354.0,360.0,370.0,366.0,362.0,357.0,361.0,371.0,364.0,359.0,352.0,362.0,370.0,363.0,362.0,352.0,362.0,372.0,362.0,359.0,359.0,364.0,366.0,359.0,356.0,357.0,364.0,368.0,356.0,353.0,356.0,360.0,365.0,353.0,352.0,358.0,361.0,364.0,351.0,356.0,361.0,363.0,360.0,349.0,353.0,361.0,362.0,362.0,353.0,352.0,362.0,362.0,363.0,351.0,352.0,361.0,360.0,360.0,350.0,350.0,361.0,357.0,357.0,346.0,351.0,356.0,359.0,358.0,345.0,352.0,363.0,360.0,358.0,352.0,358.0,366.0,358.0,357.0,348.0,358.0,365.0,356.0,357.0,345.0,354.0,364.0,352.0,351.0,350.0,358.0,360.0,351.0,349.0,351.0,355.0,361.0,350.0,349.0,351.0,354.0,360.0,347.0,347.0,346.0,352.0,358.0,344.0,344.0,345.0,353.0,357.0,344.0,347.0,348.0,355.0,358.0,348.0,347.0,348.0,356.0,357.0,345.0,348.0,355.0,350.0,353.0,340.0,346.0,357.0,354.0,354.0,339.0,347.0,352.0,353.0,352.0,340.0,348.0,357.0,351.0,353.0,346.0,351.0,361.0,351.0,350.0,341.0,351.0,360.0,349.0,351.0,341.0,351.0,360.0,351.0,350.0,340.0,351.0,359.0,351.0,350.0,341.0,350.0,357.0,349.0,348.0,341.0,347.0,357.0,347.0,347.0,343.0,351.0,357.0,343.0,344.0,344.0,351.0,356.0,339.0,344.0,345.0,350.0,353.0,344.0,344.0,346.0,350.0,353.0,339.0,345.0,355.0,350.0,352.0,339.0,346.0,356.0,353.0,352.0,339.0,347.0,352.0,352.0,352.0,339.0,345.0,354.0,353.0,351.0,339.0,346.0,355.0,351.0,350.0,341.0,345.0,358.0,352.0,355.0,341.0,349.0,358.0,352.0,349.0,341.0,351.0,359.0,350.0,350.0,343.0,353.0,359.0,349.0,349.0,344.0,350.0,358.0,348.0,347.0,345.0,352.0,358.0,343.0,344.0,346.0,352.0,356.0,343.0,347.0,348.0,353.0,355.0,346.0,346.0,349.0,352.0,358.0,344.0,345.0,350.0,353.0,358.0,344.0,343.0,351.0,351.0,357.0,342.0,345.0,347.0,353.0,356.0,343.0,347.0,356.0,353.0,352.0,341.0,347.0,356.0,352.0,351.0,340.0,347.0,356.0,352.0,352.0,339.0,347.0,357.0,351.0,350.0,342.0,352.0,360.0,351.0,349.0,344.0,354.0,359.0,350.0,348.0,345.0,351.0,359.0,347.0,347.0,339.0,350.0,359.0,348.0,346.0,341.0,353.0,361.0,348.0,351.0,345.0,353.0,360.0,351.0,350.0,345.0,355.0,361.0,347.0,348.0,354.0,356.0,361.0,347.0,347.0,354.0,354.0,358.0,344.0,347.0,350.0,354.0,356.0,344.0,346.0,357.0,353.0,351.0,342.0,347.0,357.0,355.0,353.0,344.0,349.0,359.0,354.0,356.0,346.0,352.0,362.0,359.0,357.0,345.0,355.0,364.0,359.0,357.0,345.0,356.0,362.0,358.0,355.0,345.0,351.0,360.0,357.0,355.0,346.0,356.0,365.0,352.0,352.0,348.0,356.0,364.0,351.0,353.0,347.0,358.0,364.0,354.0,353.0,350.0,358.0,364.0,350.0,350.0,357.0,358.0,361.0,347.0,349.0,356.0,356.0,359.0,345.0,348.0,352.0,355.0,357.0,344.0,348.0,351.0,356.0,355.0,342.0,347.0,352.0,354.0,354.0,347.0,347.0,355.0,356.0,360.0,345.0,348.0,356.0,355.0,353.0,341.0,349.0,360.0,353.0,352.0,341.0,351.0,356.0,352.0,351.0,340.0,346.0,357.0,353.0,351.0,342.0,352.0,360.0,347.0,347.0,342.0,352.0,359.0,345.0,348.0,343.0,353.0,361.0,350.0,349.0,346.0,354.0,361.0,349.0,349.0,347.0,353.0,360.0,348.0,346.0,348.0,351.0,359.0,346.0,346.0,343.0,351.0,358.0,346.0,346.0,352.0,355.0,354.0,343.0,347.0,354.0,355.0,356.0,347.0,349.0,356.0,357.0,360.0,347.0,350.0,360.0,359.0,355.0,344.0,356.0,364.0,358.0,357.0,347.0,359.0,363.0,360.0,357.0,349.0,356.0,366.0,361.0,358.0,347.0,355.0,364.0,357.0,354.0,345.0,354.0,363.0,355.0,355.0,344.0,355.0,364.0,357.0,355.0,344.0,355.0,362.0,351.0,352.0,353.0,358.0,364.0,352.0,350.0,352.0,356.0,364.0,350.0,349.0,347.0,355.0,361.0,350.0,348.0,354.0,356.0,355.0,342.0,348.0,356.0,357.0,356.0,348.0,350.0,359.0,358.0,361.0,348.0,350.0,360.0,358.0,360.0,347.0,352.0,361.0,358.0,358.0,346.0,352.0,357.0,358.0,358.0,345.0,350.0,359.0,359.0,358.0,344.0,353.0,362.0,356.0,353.0,346.0,355.0,365.0,356.0,357.0,345.0,355.0,363.0,356.0,354.0,346.0,356.0,364.0,353.0
458.0,452.0,448.0,447.0,452.0,464.0,456.0,453.0,452.0,458.0,469.0,461.0,461.0,463.0,474.0,478.0,465.0,465.0,472.0,480.0,485.0,474.0,474.0,479.0,483.0,487.0,473.0,467.0,476.0,480.0,476.0,467.0,467.0,480.0,478.0,474.0,465.0,462.0,467.0,469.0,459.0,453.0,445.0,457.0,459.0,450.0,447.0,440.0,455.0,457.0,450.0,449.0,445.0,460.0,459.0,461.0,454.0,453.0,468.0,467.0,464.0,458.0,459.0,473.0,466.0,462.0,460.0,470.0,474.0,466.0,461.0,461.0,462.0,470.0,460.0,450.0,453.0,459.0,467.0,456.0,449.0,455.0,462.0,463.0,454.0,446.0,455.0,463.0,460.0,454.0,441.0,452.0,458.0,460.0,451.0,441.0,456.0,458.0,461.0,451.0,441.0,455.0,457.0,455.0,446.0,435.0,444.0,453.0,450.0,445.0,433.0,443.0,451.0,445.0,440.0,433.0,449.0,451.0,439.0,438.0,432.0,447.0,452.0,443.0,441.0,436.0,448.0,451.0,442.0,439.0,436.0,446.0,449.0,429.0,435.0,446.0,444.0,445.0,425.0,433.0,435.0,441.0,442.0,423.0,433.0,437.0,439.0,442.0,425.0,432.0,437.0,431.0,434.0,418.0,425.0,434.0,438.0,443.0,427.0,431.0,442.0,440.0,442.0,424.0,431.0,443.0,442.0,439.0,424.0,440.0,445.0,439.0,437.0,427.0,439.0,448.0,441.0,441.0,426.0,440.0,449.0,439.0,442.0,432.0,445.0,451.0,432.0,439.0,433.0,445.0,448.0,438.0,442.0,440.0,448.0,458.0,442.0,447.0,444.0,450.0,461.0,442.0,445.0,443.0,448.0,464.0,435.0,443.0,436.0,449.0,467.0,438.0,448.0,439.0,448.0,460.0,435.0,439.0,449.0,443.0,451.0,429.0,436.0,446.0,438.0,448.0,424.0,432.0,446.0,444.0,448.0,428.0,435.0,447.0,444.0,443.0,431.0,449.0,451.0,444.0,439.0,426.0,436.0,445.0,439.0,439.0,426.0,439.0,452.0,441.0,445.0,428.0,444.0,456.0,440.0,446.0,429.0,447.0,458.0,447.0,447.0,435.0,450.0,455.0,450.0,446.0,436.0,451.0,462.0,438.0,442.0,442.0,446.0,455.0,437.0,438.0,433.0,452.0,455.0,439.0,443.0,439.0,454.0,455.0,441.0,443.0,452.0,453.0,446.0,435.0,439.0,451.0,449.0,448.0,435.0,439.0,450.0,455.0,453.0,439.0,443.0,448.0,454.0,449.0,434.0,446.0,447.0,454.0,447.0,434.0,439.0,449.0,453.0,447.0,438.0,442.0,450.0,453.0,448.0,436.0,454.0,459.0,451.0,451.0,439.0,456.0,460.0,456.0,450.0,442.0,459.0,459.0,457.0,450.0,443.0,460.0,463.0,451.0,448.0,452.0,459.0,459.0,447.0,446.0,441.0,454.0,458.0,443.0,448.0,444.0,458.0,455.0,449.0,445.0,445.0,457.0,454.0,446.0,446.0,447.0,453.0,459.0,441.0,445.0,447.0,450.0,459.0,434.0,439.0,443.0,442.0,445.0,425.0,436.0,445.0,441.0,444.0,423.0,434.0,445.0,444.0,444.0,433.0,438.0,446.0,445.0,441.0,429.0,445.0,451.0,441.0,442.0,432.0,450.0,454.0,447.0,442.0,432.0,449.0,453.0,450.0,442.0,435.0,444.0,451.0,447.0,443.0,438.0,446.0,453.0,447.0,441.0,434.0,450.0,454.0,454.0,448.0,446.0,463.0,466.0,463.0,458.0,461.0,473.0,463.0,466.0,460.0,462.0,471.0,467.0,458.0,451.0,453.0,460.0,456.0,447.0,445.0,452.0,461.0,451.0,439.0,448.0,451.0,453.0,446.0,433.0,441.0,452.0,457.0,446.0,444.0,447.0,455.0,461.0,453.0,447.0,449.0,457.0,457.0,449.0,444.0,451.0,459.0,459.0,449.0,438.0,448.0,450.0,458.0,447.0,438.0,452.0,457.0,457.0,450.0,448.0,459.0,462.0,460.0,453.0,447.0,463.0,464.0,459.0,455.0,447.0,462.0,463.0,457.0,451.0,452.0,463.0,454.0,451.0,448.0,449.0,456.0,454.0,445.0,444.0,450.0,457.0,455.0,442.0,442.0,440.0,452.0,449.0,440.0,442.0,444.0,456.0,450.0,440.0,443.0,444.0,455.0,447.0,444.0,440.0,444.0,453.0,447.0,433.0,442.0,449.0,444.0,442.0,429.0,440.0,449.0,451.0,443.0,431.0,442.0,445.0,448.0,443.0,429.0,443.0,451.0,438.0,438.0,433.0,442.0,450.0,440.0,438.0,428.0,444.0,448.0,441.0,440.0,431.0,448.0,450.0,450.0,443.0,436.0,448.0,453.0,442.0,440.0,433.0,447.0,446.0,441.0,437.0,434.0,443.0,452.0,432.0,439.0,437.0,439.0,454.0,424.0,434.0,437.0,439.0,448.0,421.0,433.0,435.0,436.0,442.0,425.0,432.0,437.0,436.0,442.0,420.0,432.0,442.0,434.0,435.0,420.0,433.0,444.0,441.0,437.0,422.0,436.0,440.0,443.0,436.0,427.0,437.0,446.0,447.0,440.0,430.0,440.0,450.0,445.0,440.0,428.0,438.0,446.0,443.0,439.0,429.0,442.0,449.0,445.0,438.0,433.0,449.0,449.0,442.0,439.0,433.0,447.0,449.0,437.0,437.0,434.0,443.0,449.0,438.0,437.0,435.0,445.0,444.0,430.0,434.0,436.0,443.0,442.0,427.0,434.0,437.0,443.0,439.0,429.0,432.0,439.0,439.0,447.0,424.0,430.0,436.0,436.0,440.0,421.0,426.0,434.0,435.0,437.0,419.0,427.0,430.0,436.0,438.0,420.0,428.0,439.0,435.0,433.0,418.0,428.0,439.0,432.0,432.0,418.0,429.0,440.0,431.0,434.0,418.0,433.0,441.0,434.0,432.0,425.0,439.0,444.0,434.0,432.0,429.0,441.0,446.0,435.0,434.0,432.0,442.0,445.0,434.0,434.0,427.0,443.0,447.0,431.0,432.0,425.0,443.0,447.0,433.0,436.0,431.0,443.0,447.0,436.0,436.0,432.0,442.0,446.0,426.0,434.0,441.0,439.0,444.0,425.0,429.0,439.0,437.0,439.0,420.0,428.0,432.0,435.0,440.0,420.0,429.0,439.0,431.0,431.0,418.0,427.0,438.0,432.0,432.0,420.0,431.0,443.0,432.0,436.0,422.0,436.0,450.0,439.0,442.0,423.0,437.0,448.0,437.0,438.0,420.0,437.0,444.0,435.0,437.0,423.0,434.0,443.0,438.0,435.0,427.0,442.0,448.0,436.0,435.0,429.0,444.0,447.0,435.0,437.0,432.0,444.0,447.0,435.0,436.0,432.0,444.0,446.0,431.0,435.0,442.0,445.0,440.0,430.0,434.0,443.0,447.0,443.0,435.0,440.0,443.0,449.0,442.0,433.0,437.0,443.0,449.0,440.0,429.0,437.0,444.0,449.0,442.0,434.0,438.0,445.0,450.0,446.0,434.0,437.0,445.0,443.0,439.0,425.0,441.0,448.0,439.0,437.0,424.0,439.0,444.0,435.0,435.0,422.0,431.0,443.0,435.0,435.0,426.0,441.0,447.0,433.0,434.0,430.0,444.0,445.0,430.0,434.0,430.0,443.0,444.0,435.0,435.0,434.0,444.0,448.0,432.0,434.0,433.0,441.0,448.0,430.0,430.0,432.0,438.0,445.0,428.0,431.0,426.0,435.0,444.0,423.0,429.0,437.0,438.0,438.0,421.0,431.0,440.0,437.0,438.0,420.0,429.0,442.0,432.0,442.0,420.0,432.0,447.0,434.0,442.0,424.0,440.0,454.0,435.0,444.0,429.0,444.0,456.0,434.0,447.0,432.0,442.0,459.0,437.0,449.0,429.0,441.0,459.0,433.0,445.0,428.0,441.0,458.0,432.0,447.0,427.0,443.0,458.0,431.0,447.0,429.0,442.0,465.0,432.0,446.0,447.0,444.0,464.0,435.0,443.0,451.0,448.0,470.0,436.0,445.0,440.0,448.0,455.0,431.0,433.0,441.0,447.0,438.0,428.0,435.0,444.0,441.0,441.0,425.0,431.0,445.0,430.0,451.0,422.0,435.0,453.0,436.0,460.0,428.0,442.0,467.0,443.0,472.0,440.0,461.0,477.0,461.0,492.0,460.0,484.0,500.0,479.0,510.0,480.0,496.0,520.0,483.0,511.0,487.0,503.0,527.0,488.0,518.0,491.0,502.0,528.0,489.0,517.0,493.0,502.0,528.0,486.0
409.0,406.0,399.0,394.0,398.0,409.0,404.0,398.0,395.0,398.0,409.0,406.0,399.0,400.0,408.0,414.0,404.0,400.0,406.0,415.0,417.0,412.0,405.0,408.0,416.0,419.0,409.0,405.0,412.0,417.0,413.0,404.0,404.0,417.0,419.0,418.0,408.0,410.0,419.0,421.0,418.0,409.0,409.0,419.0,423.0,418.0,412.0,410.0,420.0,427.0,420.0,415.0,413.0,425.0,428.0,425.0,415.0,415.0,427.0,429.0,423.0,414.0,414.0,424.0,423.0,416.0,412.0,423.0,428.0,426.0,421.0,416.0,421.0,429.0,421.0,414.0,414.0,422.0,430.0,422.0,419.0,421.0,430.0,433.0,422.0,419.0,423.0,432.0,432.0,425.0,419.0,424.0,433.0,435.0,426.0,418.0,427.0,430.0,434.0,423.0,418.0,428.0,431.0,432.0,418.0,414.0,416.0,428.0,429.0,418.0,416.0,418.0,429.0,426.0,416.0,414.0,425.0,428.0,422.0,412.0,412.0,427.0,432.0,427.0,417.0,419.0,428.0,431.0,425.0,413.0,414.0,425.0,423.0,416.0,410.0,422.0,425.0,421.0,409.0,407.0,413.0,422.0,417.0,408.0,406.0,413.0,420.0,412.0,408.0,404.0,419.0,418.0,415.0,410.0,405.0,419.0,429.0,434.0,418.0,415.0,424.0,421.0,417.0,402.0,400.0,413.0,416.0,410.0,400.0,413.0,413.0,409.0,404.0,403.0,410.0,424.0,420.0,413.0,406.0,414.0,425.0,423.0,416.0,412.0,420.0,427.0,416.0,411.0,418.0,428.0,431.0,425.0,422.0,422.0,430.0,436.0,423.0,415.0,414.0,415.0,425.0,412.0,406.0,408.0,414.0,426.0,405.0,403.0,398.0,410.0,420.0,400.0,401.0,393.0,404.0,412.0,390.0,392.0,401.0,401.0,400.0,379.0,383.0,389.0,385.0,394.0,366.0,376.0,386.0,386.0,401.0,370.0,380.0,388.0,382.0,398.0,375.0,393.0,397.0,386.0,404.0,378.0,393.0,400.0,388.0,409.0,379.0,403.0,410.0,399.0,429.0,395.0,419.0,424.0,413.0,441.0,413.0,439.0,439.0,435.0,456.0,432.0,458.0,447.0,447.0,462.0,444.0,463.0,453.0,442.0,462.0,443.0,455.0,447.0,433.0,447.0,427.0,439.0,429.0,421.0,428.0,417.0,424.0,417.0,416.0,417.0,415.0,414.0,409.0,406.0,400.0,395.0,387.0,380.0,373.0,365.0,356.0,347.0,338.0,329.0,319.0,312.0,302.0,291.0,282.0,273.0,265.0,256.0,247.0,238.0,231.0,222.0,214.0,205.0,199.0,191.0,183.0,176.0,169.0,163.0,155.0,150.0,142.0,138.0,131.0,125.0,119.0,115.0,108.0,105.0,99.0,95.0,91.0,87.0,83.0,78.0,74.0,71.0,66.0,64.0,60.0,57.0,54.0,50.0,49.0,45.0,44.0,40.0,38.0,36.0,33.0,30.0,29.0,26.0,24.0,22.0,20.0,19.0,17.0,16.0,14.0,14.0,12.0,11.0,11.0,10.0,9.0,8.0,7.0,8.0,7.0,8.0,5.0,6.0,6.0,6.0,5.0,5.0,6.0,5.0,5.0,5.0,5.0,5.0,5.0,4.0,5.0,4.0,5.0,4.0,4.0,4.0,4.0,4.0,4.0,4.0,4.0,5.0,4.0,4.0,3.0,4.0,4.0,5.0,4.0,5.0,3.0,4.0,4.0,5.0,4.0,4.0,4.0,4.0,4.0,3.0,4.0,4.0,4.0,3.0,4.0,3.0,5.0,3.0,4.0,3.0,4.0,4.0,5.0,4.0,5.0,4.0,4.0,4.0,4.0,4.0,4.0,4.0,3.0,4.0,4.0,4.0,4.0,4.0,4.0,4.0,4.0,4.0,4.0,5.0,4.0,3.0,4.0,3.0,4.0,4.0,4.0,3.0,4.0,4.0,4.0,4.0,5.0,3.0,4.0,4.0,5.0,4.0,5.0,3.0,3.0,3.0,5.0,4.0,4.0,4.0,4.0,4.0,3.0,4.0,3.0,3.0,4.0,4.0,4.0,4.0,4.0,5.0,3.0,4.0,4.0,4.0,4.0,4.0,4.0,4.0,3.0,3.0,4.0,4.0,4.0,3.0,4.0,4.0,4.0,4.0,4.0,4.0,4.0,3.0,4.0,4.0,4.0,4.0,4.0,4.0,3.0,4.0,3.0,4.0,3.0,3.0,4.0,5.0,3.0,4.0,2.0,4.0,3.0,5.0,4.0,5.0,3.0,3.0,3.0,4.0,4.0,3.0,4.0,3.0,4.0,4.0,4.0,4.0,3.0,3.0,4.0,3.0,5.0,4.0,3.0,3.0,3.0,4.0,5.0,4.0,4.0,4.0,3.0,4.0,4.0,5.0,3.0,4.0,3.0,4.0,4.0,5.0,4.0,4.0,4.0,3.0,3.0,5.0,4.0,4.0,4.0,3.0,4.0,4.0,5.0,4.0,4.0,3.0,4.0,4.0,5.0,4.0,4.0,3.0,3.0,4.0,5.0,4.0,4.0,4.0,3.0,4.0,4.0,4.0,2.0,4.0,4.0,4.0,3.0,5.0,4.0,4.0,3.0,3.0,4.0,4.0,3.0,4.0,4.0,4.0,4.0,3.0,4.0,3.0,4.0,3.0,4.0,4.0,5.0,4.0,4.0,3.0,4.0,4.0,4.0,4.0,3.0,4.0,4.0,4.0,4.0,4.0,2.0,4.0,3.0,4.0,4.0,5.0,2.0,3.0,3.0,4.0,4.0,5.0,4.0,3.0,3.0,4.0,4.0,4.0,4.0,3.0,3.0,4.0,3.0,4.0,4.0,3.0,4.0,3.0,4.0,3.0,5.0,4.0,3.0,4.0,3.0,3.0,4.0,4.0,3.0,4.0,3.0,3.0,4.0,4.0,4.0,4.0,4.0,3.0,4.0,5.0,4.0,4.0,3.0,4.0,3.0,4.0,3.0,3.0,3.0,3.0,4.0,4.0,4.0,4.0,4.0,3.0,4.0,4.0,5.0,4.0,4.0,3.0,3.0,4.0,4.0,4.0,3.0,3.0,3.0,4.0,4.0,4.0,4.0,4.0,3.0,4.0,3.0,4.0,3.0,4.0,3.0,4.0,3.0,5.0,3.0,4.0,3.0,4.0,3.0,4.0,3.0,3.0,4.0,3.0,3.0,3.0,4.0,4.0,3.0,3.0,4.0,3.0,5.0,4.0,4.0,3.0,3.0,3.0,4.0,4.0,4.0,4.0,3.0,4.0,4.0,4.0,4.0,4.0,3.0,4.0,3.0,4.0,2.0,4.0,3.0,3.0,4.0,4.0,4.0,4.0,3.0,3.0,4.0,4.0,4.0,2.0,4.0,3.0,3.0,3.0,4.0,4.0,4.0,3.0,3.0,4.0,4.0,4.0,3.0,4.0,3.0,4.0,4.0,4.0,2.0,4.0,3.0,4.0,3.0,5.0,3.0,4.0,3.0,4.0,4.0,4.0,3.0,3.0,3.0,3.0,4.0,4.0,4.0,4.0,4.0,3.0,4.0,3.0,4.0,4.0,4.0,4.0,4.0,4.0,5.0,4.0,4.0,3.0,3.0,4.0,4.0,4.0,3.0,4.0,3.0,3.0,3.0,4.0,4.0,4.0,3.0,3.0,3.0,5.0,4.0,5.0,4.0,3.0,4.0,5.0,4.0,4.0,4.0,3.0,4.0,4.0,4.0,4.0,4.0,3.0,4.0,4.0,5.0,4.0,3.0,3.0,4.0,4.0,5.0,4.0,3.0,3.0,3.0,4.0,4.0,4.0,4.0,3.0,3.0,4.0,4.0,5.0,4.0,4.0,4.0,3.0,4.0,4.0,3.0,3.0,4.0,3.0,4.0,4.0,4.0,3.0,3.0,3.0,4.0,3.0,3.0,3.0,5.0,3.0,4.0,3.0,4.0,4.0,4.0,3.0,3.0,4.0,4.0,4.0,4.0,4.0,3.0,4.0,3.0,5.0,4.0,4.0,4.0,4.0,4.0,4.0,4.0,4.0,4.0,3.0,3.0,4.0,4.0,4.0,4.0,3.0,4.0,3.0,4.0,4.0,4.0,3.0,4.0,4.0,5.0,4.0,4.0,3.0,3.0,4.0,4.0,4.0,4.0,4.0,3.0,4.0,3.0,5.0,4.0,3.0,3.0,3.0,3.0,4.0,4.0,4.0,3.0,4.0,3.0,4.0,4.0,4.0,4.0,3.0,4.0,3.0,4.0,4.0,4.0,3.0,4.0,4.0,5.0,4.0,3.0,3.0,4.0,3.0,4.0,4.0,5.0,3.0
423.0,424.0,409.0,412.0,415.0,421.0,420.0,408.0,412.0,416.0,421.0,422.0,408.0,416.0,429.0,422.0,421.0,410.0,424.0,434.0,426.0,426.0,414.0,424.0,435.0,429.0,424.0,414.0,427.0,437.0,425.0,422.0,421.0,433.0,440.0,428.0,424.0,424.0,430.0,436.0,422.0,419.0,415.0,426.0,433.0,420.0,421.0,414.0,426.0,435.0,421.0,422.0,417.0,427.0,432.0,422.0,419.0,417.0,428.0,433.0,421.0,419.0,419.0,430.0,430.0,417.0,418.0,433.0,431.0,431.0,420.0,423.0,427.0,430.0,426.0,411.0,417.0,427.0,430.0,426.0,416.0,427.0,437.0,434.0,429.0,420.0,431.0,443.0,435.0,433.0,421.0,430.0,439.0,436.0,431.0,416.0,430.0,434.0,430.0,426.0,415.0,428.0,432.0,430.0,423.0,413.0,420.0,433.0,428.0,424.0,414.0,424.0,434.0,426.0,422.0,418.0,428.0,433.0,421.0,419.0,415.0,428.0,434.0,426.0,424.0,423.0,433.0,438.0,426.0,419.0,421.0,428.0,428.0,416.0,419.0,432.0,432.0,428.0,414.0,420.0,426.0,432.0,429.0,415.0,416.0,424.0,429.0,424.0,416.0,417.0,426.0,425.0,425.0,417.0,418.0,437.0,441.0,451.0,433.0,436.0,444.0,441.0,440.0,423.0,426.0,438.0,438.0,436.0,427.0,435.0,434.0,424.0,421.0,417.0,427.0,440.0,432.0,428.0,418.0,431.0,450.0,443.0,442.0,435.0,439.0,455.0,438.0,437.0,444.0,453.0,460.0,448.0,448.0,449.0,459.0,468.0,448.0,444.0,442.0,444.0,449.0,438.0,435.0,437.0,445.0,452.0,434.0,432.0,436.0,448.0,457.0,440.0,440.0,434.0,443.0,443.0,433.0,433.0,449.0,445.0,435.0,425.0,422.0,432.0,428.0,421.0,408.0,415.0,428.0,432.0,434.0,422.0,417.0,428.0,430.0,428.0,421.0,437.0,434.0,424.0,419.0,416.0,426.0,433.0,421.0,417.0,406.0,414.0,427.0,422.0,428.0,418.0,432.0,445.0,438.0,441.0,428.0,439.0,453.0,446.0,440.0,432.0,446.0,455.0,448.0,447.0,437.0,446.0,464.0,446.0,441.0,443.0,439.0,444.0,424.0,421.0,418.0,436.0,437.0,423.0,424.0,424.0,438.0,440.0,423.0,425.0,433.0,432.0,431.0,421.0,426.0,437.0,438.0,434.0,423.0,425.0,441.0,440.0,440.0,428.0,431.0,439.0,449.0,442.0,428.0,438.0,439.0,447.0,439.0,426.0,422.0,441.0,443.0,441.0,432.0,434.0,442.0,443.0,445.0,433.0,444.0,452.0,442.0,440.0,430.0,443.0,446.0,443.0,439.0,432.0,446.0,449.0,442.0,437.0,430.0,441.0,451.0,432.0,431.0,438.0,441.0,445.0,429.0,427.0,430.0,440.0,443.0,428.0,427.0,427.0,435.0,442.0,433.0,428.0,430.0,436.0,440.0,431.0,428.0,434.0,440.0,444.0,433.0,431.0,435.0,439.0,442.0,428.0,428.0,435.0,435.0,430.0,418.0,427.0,435.0,435.0,432.0,418.0,425.0,438.0,439.0,438.0,427.0,425.0,434.0,432.0,428.0,420.0,433.0,444.0,432.0,433.0,424.0,435.0,439.0,432.0,425.0,415.0,428.0,434.0,427.0,424.0,420.0,427.0,439.0,425.0,422.0,416.0,422.0,431.0,420.0,413.0,409.0,421.0,430.0,419.0,419.0,409.0,425.0,431.0,416.0,415.0,418.0,426.0,424.0,422.0,418.0,422.0,431.0,435.0,420.0,419.0,423.0,429.0,430.0,416.0,417.0,426.0,428.0,429.0,412.0,421.0,426.0,427.0,423.0,412.0,418.0,432.0,429.0,425.0,413.0,420.0,430.0,430.0,428.0,413.0,417.0,429.0,423.0,422.0,408.0,418.0,430.0,424.0,420.0,408.0,417.0,424.0,426.0,418.0,403.0,417.0,427.0,418.0,415.0,414.0,422.0,430.0,420.0,417.0,412.0,423.0,431.0,418.0,420.0,411.0,423.0,431.0,418.0,416.0,421.0,427.0,422.0,415.0,417.0,421.0,425.0,429.0,415.0,416.0,425.0,428.0,429.0,417.0,419.0,420.0,429.0,432.0,418.0,419.0,421.0,426.0,424.0,413.0,414.0,417.0,422.0,421.0,412.0,409.0,415.0,422.0,419.0,408.0,417.0,427.0,420.0,420.0,408.0,419.0,432.0,428.0,423.0,408.0,418.0,422.0,421.0,418.0,408.0,418.0,427.0,418.0,416.0,414.0,421.0,433.0,420.0,419.0,410.0,423.0,431.0,418.0,419.0,411.0,424.0,430.0,424.0,422.0,414.0,426.0,431.0,423.0,421.0,417.0,421.0,424.0,413.0,408.0,407.0,414.0,424.0,412.0,412.0,413.0,423.0,427.0,413.0,414.0,416.0,424.0,421.0,407.0,412.0,419.0,424.0,423.0,416.0,415.0,422.0,426.0,421.0,408.0,417.0,427.0,418.0,420.0,407.0,419.0,430.0,425.0,422.0,410.0,419.0,426.0,424.0,419.0,408.0,415.0,427.0,422.0,418.0,406.0,414.0,426.0,419.0,417.0,408.0,417.0,428.0,422.0,424.0,412.0,426.0,434.0,424.0,420.0,414.0,426.0,431.0,423.0,419.0,418.0,428.0,432.0,419.0,418.0,416.0,422.0,432.0,418.0,415.0,417.0,425.0,426.0,414.0,416.0,422.0,427.0,426.0,413.0,419.0,423.0,428.0,426.0,418.0,419.0,429.0,429.0,432.0,418.0,417.0,425.0,426.0,428.0,415.0,409.0,422.0,424.0,426.0,413.0,416.0,421.0,426.0,426.0,411.0,416.0,428.0,424.0,420.0,412.0,417.0,428.0,421.0,417.0,404.0,415.0,426.0,420.0,419.0,406.0,419.0,430.0,421.0,418.0,414.0,425.0,435.0,423.0,420.0,418.0,425.0,432.0,421.0,417.0,414.0,420.0,426.0,414.0,411.0,408.0,420.0,430.0,416.0,415.0,412.0,425.0,430.0,416.0,418.0,414.0,424.0,428.0,422.0,418.0,419.0,428.0,430.0,416.0,419.0,426.0,426.0,427.0,415.0,411.0,421.0,420.0,419.0,409.0,415.0,419.0,417.0,416.0,404.0,410.0,420.0,415.0,412.0,406.0,410.0,423.0,419.0,416.0,406.0,415.0,424.0,419.0,420.0,409.0,421.0,431.0,427.0,425.0,412.0,425.0,436.0,430.0,424.0,411.0,424.0,431.0,424.0,420.0,410.0,417.0,430.0,426.0,421.0,413.0,425.0,433.0,420.0,419.0,416.0,429.0,437.0,420.0,422.0,421.0,432.0,435.0,425.0,423.0,422.0,432.0,435.0,419.0,420.0,432.0,429.0,428.0,416.0,420.0,431.0,431.0,429.0,418.0,423.0,426.0,428.0,424.0,414.0,415.0,423.0,426.0,422.0,406.0,413.0,424.0,424.0,421.0,411.0,411.0,422.0,424.0,425.0,412.0,415.0,424.0,421.0,420.0,411.0,425.0,435.0,428.0,425.0,415.0,426.0,431.0,424.0,421.0,415.0,420.0,434.0,426.0,421.0,415.0,425.0,429.0,418.0,416.0,416.0,426.0,429.0,415.0,417.0,416.0,429.0,429.0,423.0,421.0,419.0,428.0,435.0,420.0,419.0,419.0,427.0,434.0,420.0,415.0,421.0,424.0,428.0,416.0,414.0,412.0,420.0,425.0,413.0,414.0,429.0,430.0,426.0,412.0,421.0,430.0,431.0,423.0,415.0,419.0,430.0,427.0,427.0,416.0,422.0,432.0,429.0,421.0,412.0,425.0,432.0,428.0,423.0,418.0,431.0,436.0,432.0,428.0,422.0,430.0,438.0,429.0,426.0,416.0,425.0,434.0,424.0,423.0,414.0,426.0,434.0,424.0,426.0,414.0,427.0,437.0,429.0,423.0,413.0,425.0,430.0,418.0,416.0,425.0,430.0,434.0,421.0,416.0,423.0,428.0,434.0,419.0,419.0,421.0,426.0,428.0,416.0,417.0,427.0,429.0,425.0,413.0,419.0,432.0,429.0,427.0,418.0,423.0,434.0,430.0,428.0,415.0,421.0,433.0,431.0,426.0,414.0,426.0,434.0,430.0,426.0,414.0,425.0,429.0,431.0,427.0,413.0,421.0,431.0,433.0,426.0,411.0,424.0,433.0,423.0,419.0,410.0,426.0,436.0,422.0,423.0,413.0,425.0,431.0,419.0,417.0,409.0,418.0,424.0,413.0
