219.0,224.0,220.0,219.0,212.0,218.0,223.0,219.0,217.0,216.0,222.0,224.0,216.0,218.0,216.0,222.0,223.0,218.0,217.0,217.0,221.0,225.0,217.0,217.0,218.0,222.0,222.0,215.0,218.0,225.0,222.0,222.0,214.0,218.0,221.0,222.0,223.0,214.0,219.0,222.0,222.0,222.0,217.0,219.0,224.0,222.0,222.0,217.0,218.0,225.0,223.0,224.0,216.0,220.0,225.0,224.0,224.0,215.0,219.0,225.0,222.0,222.0,215.0,223.0,225.0,221.0,220.0,215.0,220.0,225.0,219.0,219.0,212.0,219.0,224.0,217.0,218.0,216.0,222.0,223.0,214.0,217.0,216.0,220.0,222.0,215.0,217.0,218.0,221.0,224.0,215.0,217.0,218.0,221.0,223.0,214.0,216.0,218.0,219.0,222.0,213.0,214.0,214.0,218.0,221.0,212.0,216.0,215.0,222.0,222.0,213.0,215.0,222.0,219.0,220.0,213.0,216.0,223.0,218.0,220.0,211.0,216.0,221.0,219.0,219.0,209.0,214.0,221.0,214.0,216.0,211.0,219.0,222.0,216.0,216.0,212.0,217.0,221.0,216.0,216.0,210.0,218.0,223.0,215.0,219.0,211.0,219.0,222.0,215.0,217.0,211.0,218.0,223.0,216.0,217.0,213.0,219.0,223.0,216.0,216.0,212.0,218.0,222.0,213.0,214.0,220.0,218.0,221.0,212.0,216.0,215.0,220.0,221.0,211.0,215.0,217.0,219.0,219.0,210.0,212.0,219.0,215.0,216.0,210.0,215.0,221.0,216.0,218.0,209.0,215.0,222.0,217.0,218.0,209.0,214.0,219.0,217.0,219.0,209.0,215.0,219.0,217.0,217.0,210.0,216.0,221.0,217.0,220.0,211.0,215.0,222.0,216.0,217.0,209.0,216.0,220.0,212.0,216.0,211.0,218.0,223.0,216.0,219.0,215.0,220.0,223.0,216.0,217.0,215.0,219.0,221.0,213.0,213.0,219.0,217.0,219.0,210.0,214.0,215.0,218.0,218.0,211.0,214.0,216.0,217.0,217.0,209.0,213.0,215.0,216.0,217.0,211.0,215.0,218.0,218.0,220.0,211.0,215.0,220.0,219.0,220.0,211.0,214.0,220.0,217.0,217.0,209.0,216.0,220.0,217.0,216.0,211.0,215.0,222.0,216.0,216.0,210.0,216.0,222.0,216.0,217.0,212.0,219.0,222.0,214.0,216.0,214.0,219.0,222.0,215.0,217.0,215.0,221.0,223.0,215.0,217.0,217.0,221.0,223.0,216.0,217.0,218.0,218.0,221.0,214.0,216.0,214.0,220.0,223.0,215.0,218.0,216.0,221.0,222.0,213.0,216.0,220.0,219.0,219.0,211.0,215.0,221.0,219.0,220.0,212.0,214.0,221.0,219.0,220.0,210.0,216.0,221.0,217.0,217.0,210.0,217.0,221.0,216.0,216.0,211.0,214.0,220.0,214.0,217.0,209.0,216.0,221.0,216.0,217.0,209.0,217.0,221.0,214.0,217.0,209.0,217.0,222.0,216.0,217.0,211.0,219.0,222.0,218.0,218.0,212.0,219.0,223.0,214.0,217.0,219.0,220.0,223.0,214.0,215.0,214.0,220.0,222.0,213.0,216.0,216.0,220.0,222.0,211.0,215.0,221.0,218.0,219.0,213.0,217.0,223.0,219.0,221.0,213.0,216.0,222.0,217.0,217.0,209.0,216.0,218.0,217.0,218.0,210.0,214.0,217.0,215.0,215.0,208.0,214.0,218.0,215.0,215.0,208.0,213.0,219.0,215.0,215.0,207.0,215.0,220.0,214.0,218.0,211.0,219.0,221.0,216.0,217.0,211.0,218.0,221.0,215.0,216.0,213.0,219.0,221.0,212.0,215.0,219.0,220.0,222.0,214.0,214.0,215.0,219.0,220.0,214.0,216.0,217.0,220.0,221.0,214.0,215.0,217.0,219.0,219.0,214.0,214.0,216.0,217.0,219.0,211.0,214.0,219.0,218.0,220.0,212.0,214.0,218.0,217.0,216.0,209.0,216.0,218.0,217.0,216.0,210.0,213.0,220.0,215.0,215.0,208.0,214.0,219.0,215.0,216.0,210.0,217.0,221.0,212.0,215.0,211.0,217.0,220.0,214.0,215.0,212.0,218.0,221.0,214.0,215.0,214.0,216.0,221.0,214.0,215.0,215.0,218.0,221.0,213.0,214.0,211.0,218.0,221.0,213.0,215.0,213.0,219.0,221.0,211.0,213.0,216.0,218.0,218.0,211.0,214.0,218.0,217.0,219.0,210.0,213.0,219.0,217.0,218.0,209.0,213.0,219.0,216.0,216.0,210.0,216.0,221.0,217.0,217.0,210.0,214.0,220.0,216.0,216.0,211.0,216.0,221.0,217.0,217.0,210.0,216.0,221.0,216.0,218.0,211.0,220.0,223.0,219.0,219.0,212.0,219.0,223.0,219.0,218.0,213.0,220.0,224.0,216.0,217.0,219.0,221.0,223.0,215.0,216.0,214.0,220.0,222.0,214.0,217.0,214.0,219.0,221.0,212.0,214.0,219.0,221.0,217.0,213.0,215.0,221.0,219.0,221.0,211.0,215.0,221.0,219.0,219.0,212.0,215.0,217.0,219.0,218.0,211.0,216.0,219.0,220.0,220.0,212.0,216.0,221.0,221.0,219.0,214.0,217.0,222.0,221.0,219.0,213.0,220.0,225.0,218.0,220.0,213.0,221.0,224.0,221.0,219.0,214.0,222.0,225.0,220.0,219.0,216.0,222.0,225.0,217.0,218.0,220.0,223.0,224.0,216.0,218.0,218.0,221.0,223.0,216.0,219.0,218.0,223.0,222.0,218.0,218.0,219.0,223.0,221.0,219.0,218.0,221.0,224.0,226.0,219.0,220.0,222.0,224.0,225.0,219.0,220.0,224.0,224.0,223.0,216.0,221.0,224.0,221.0,221.0,213.0,218.0,224.0,222.0,221.0,215.0,217.0,223.0,219.0,219.0,212.0,220.0,224.0,217.0,219.0,213.0,220.0,223.0,219.0,218.0,213.0,220.0,223.0,218.0,218.0,215.0,218.0,223.0,217.0,217.0,216.0,219.0,223.0,217.0,218.0,213.0,221.0,225.0,217.0,219.0,214.0,222.0,224.0,219.0,218.0,221.0,223.0,222.0,219.0,218.0,222.0,222.0,224.0,217.0,218.0,222.0,223.0,223.0,216.0,217.0,222.0,221.0,221.0,214.0,221.0,224.0,222.0,220.0,213.0,217.0,224.0,221.0,219.0,213.0,217.0,224.0,219.0,221.0,213.0,218.0,223.0,219.0,220.0,213.0,219.0,224.0,221.0,220.0,213.0,220.0,223.0,219.0,220.0,212.0,219.0,222.0,217.0,218.0,217.0,220.0,223.0,214.0,215.0,212.0,219.0,223.0,214.0,218.0,213.0,220.0,223.0,214.0,216.0,220.0,220.0,219.0,215.0,216.0,221.0,221.0,223.0,213.0,216.0,222.0,221.0,221.0,215.0,216.0,219.0,220.0,220.0,212.0,217.0,218.0,220.0,220.0,212.0,216.0,219.0,220.0,218.0,214.0,215.0,220.0,219.0,219.0,210.0,217.0,222.0,216.0,218.0,211.0,217.0,223.0,218.0,218.0,211.0,219.0,223.0,217.0,218.0,211.0,218.0,221.0,215.0,214.0,216.0,219.0,221.0,213.0,215.0,212.0,218.0,221.0,212.0,215.0,211.0,218.0,219.0,214.0,214.0,212.0,217.0,220.0,212.0,214.0,214.0,217.0,221.0,213.0,214.0,214.0,216.0,220.0,211.0,213.0,216.0,216.0,217.0,208.0,213.0,217.0,216.0,216.0,209.0,214.0,217.0,217.0,217.0,211.0,214.0,220.0,218.0,218.0,210.0,217.0,221.0,215.0,217.0,210.0,218.0,223.0,217.0,218.0,210.0,217.0,221.0,216.0,216.0,210.0,215.0,220.0,215.0,215.0,211.0,216.0,221.0,215.0,215.0,209.0,216.0,222.0,215.0,217.0,209.0,217.0,222.0,214.0,215.0,215.0,217.0,219.0,213.0,215.0,215.0,217.0,221.0,213.0,214.0,216.0,218.0,220.0,211.0,214.0,218.0,218.0,219.0,211.0,215.0,219.0,218.0,217.0,210.0,214.0,220.0,218.0,217.0,211.0,214.0,220.0,216.0,218.0,209.0,213.0,219.0,217.0,218.0,210.0,214.0,220.0,217.0,218.0,210.0,215.0,219.0,218.0,218.0,210.0,217.0,220.0,214.0,215.0,213.0,216.0,222.0,214.0,215.0,209.0,218.0,221.0,216.0,217.0,211.0,219.0,223.0,216.0,217.0,217.0,220.0,221.0,215.0
33.0,33.0,32.0,32.0,32.0,33.0,32.0,31.0,32.0,33.0,32.0,33.0,32.0,33.0,32.0,32.0,33.0,32.0,32.0,32.0,33.0,33.0,33.0,32.0,33.0,32.0,33.0,32.0,33.0,32.0,31.0,33.0,32.0,33.0,33.0,32.0,32.0,32.0,32.0,32.0,32.0,34.0,32.0,32.0,33.0,33.0,33.0,32.0,32.0,32.0,32.0,32.0,32.0,32.0,32.0,32.0,32.0,32.0,33.0,32.0,32.0,32.0,32.0,32.0,33.0,32.0,33.0,32.0,33.0,33.0,32.0,32.0,32.0,33.0,33.0,32.0,33.0,33.0,32.0,33.0,32.0,33.0,33.0,33.0,33.0,32.0,32.0,33.0,32.0,33.0,33.0,32.0,33.0,33.0,33.0,32.0,33.0,32.0,32.0,34.0,33.0,32.0,33.0,33.0,33.0,33.0,32.0,33.0,32.0,32.0,32.0,33.0,33.0,32.0,33.0,33.0,33.0,33.0,33.0,33.0,33.0,33.0,33.0,32.0,34.0,33.0,33.0,33.0,33.0,32.0,34.0,33.0,33.0,32.0,33.0,33.0,32.0,33.0,31.0,33.0,32.0,33.0,33.0,32.0,33.0,32.0,32.0,33.0,32.0,32.0,32.0,32.0,33.0,33.0,33.0,32.0,32.0,33.0,32.0,33.0,34.0,32.0,34.0,32.0,33.0,32.0,33.0,34.0,33.0,33.0,33.0,32.0,33.0,32.0,32.0,34.0,32.0,33.0,33.0,33.0,33.0,33.0,32.0,33.0,33.0,34.0,33.0,33.0,32.0,33.0,33.0,33.0,33.0,32.0,33.0,33.0,33.0,33.0,33.0,33.0,33.0,33.0,32.0,32.0,33.0,32.0,33.0,33.0,33.0,33.0,33.0,32.0,32.0,32.0,32.0,33.0,32.0,34.0,32.0,33.0,33.0,32.0,32.0,33.0,32.0,34.0,32.0,32.0,32.0,32.0,33.0,32.0,33.0,32.0,32.0,33.0,32.0,32.0,32.0,32.0,33.0,32.0,32.0,32.0,33.0,33.0,32.0,32.0,33.0,32.0,32.0,32.0,32.0,33.0,31.0,33.0,32.0,33.0,33.0,31.0,32.0,32.0,32.0,32.0,32.0,31.0,32.0,33.0,33.0,32.0,32.0,32.0,33.0,33.0,33.0,32.0,33.0,33.0,32.0,32.0,32.0,32.0,32.0,32.0,31.0,32.0,31.0,32.0,33.0,32.0,32.0,32.0,31.0,33.0,32.0,32.0,32.0,31.0,32.0,31.0,32.0,32.0,32.0,32.0,32.0,31.0,31.0,32.0,33.0,31.0,31.0,32.0,33.0,32.0,31.0,32.0,32.0,32.0,31.0,32.0,32.0,32.0,31.0,32.0,31.0,33.0,32.0,32.0,32.0,31.0,32.0,33.0,32.0,33.0,32.0,32.0,33.0,31.0,33.0,33.0,32.0,32.0,32.0,33.0,33.0,33.0,33.0,33.0,33.0,33.0,34.0,33.0,33.0,34.0,34.0,34.0,34.0,35.0,35.0,35.0,34.0,35.0,34.0,35.0,33.0,34.0,34.0,33.0,34.0,34.0,33.0,34.0,33.0,34.0,33.0,33.0,34.0,32.0,33.0,32.0,32.0,33.0,33.0,33.0,32.0,32.0,32.0,32.0,32.0,32.0,32.0,33.0,32.0,33.0,33.0,33.0,33.0,32.0,32.0,33.0,32.0,33.0,32.0,33.0,33.0,32.0,33.0,33.0,33.0,33.0,32.0,32.0,32.0,32.0,33.0,32.0,33.0,32.0,32.0,33.0,33.0,34.0,33.0,33.0,32.0,32.0,33.0,33.0,32.0,33.0,32.0,32.0,32.0,33.0,32.0,32.0,32.0,32.0,32.0,33.0,32.0,33.0,32.0,32.0,32.0,31.0,33.0,32.0,32.0,32.0,31.0,32.0,33.0,32.0,32.0,32.0,31.0,32.0,32.0,33.0,32.0,33.0,31.0,32.0,32.0,31.0,32.0,33.0,31.0,31.0,31.0,33.0,32.0,31.0,32.0,31.0,32.0,31.0,33.0,32.0,33.0,31.0,32.0,32.0,33.0,32.0,32.0,33.0,31.0,32.0,32.0,32.0,32.0,32.0,32.0,32.0,32.0,33.0,32.0,32.0,31.0,31.0,32.0,33.0,32.0,32.0,31.0,31.0,31.0,31.0,31.0,31.0,31.0,30.0,31.0,31.0,31.0,31.0,31.0,30.0,31.0,29.0,30.0,30.0,30.0,30.0,31.0,31.0,30.0,31.0,30.0,31.0,31.0,30.0,29.0,32.0,30.0,31.0,31.0,31.0,31.0,31.0,30.0,32.0,31.0,31.0,31.0,31.0,32.0,32.0,32.0,30.0,32.0,31.0,32.0,32.0,31.0,30.0,31.0,31.0,32.0,32.0,33.0,31.0,31.0,32.0,31.0,32.0,32.0,32.0,32.0,31.0,32.0,31.0,31.0,32.0,32.0,31.0,32.0,31.0,32.0,32.0,32.0,31.0,32.0,33.0,32.0,32.0,33.0,32.0,33.0,31.0,33.0,32.0,32.0,32.0,32.0,32.0,33.0,32.0,33.0,32.0,32.0,32.0,32.0,32.0,32.0,33.0,32.0,32.0,33.0,33.0,32.0,33.0,32.0,32.0,32.0,31.0,33.0,32.0,32.0,31.0,32.0,32.0,33.0,32.0,33.0,32.0,32.0,32.0,33.0,32.0,32.0,33.0,32.0,33.0,31.0,33.0,33.0,32.0,32.0,32.0,32.0,33.0,32.0,33.0,32.0,32.0,32.0,33.0,32.0,33.0,32.0,31.0,32.0,33.0,32.0,32.0,33.0,33.0,32.0,32.0,32.0,32.0,32.0,33.0,33.0,32.0,33.0,32.0,33.0,33.0,32.0,32.0,31.0,33.0,33.0,32.0,32.0,32.0,32.0,33.0,32.0,33.0,32.0,32.0,33.0,33.0,32.0,33.0,32.0,33.0,32.0,32.0,32.0,32.0,33.0,32.0,33.0,32.0,32.0,33.0,33.0,33.0,32.0,32.0,33.0,32.0,32.0,32.0,31.0,33.0,32.0,33.0,32.0,33.0,33.0,32.0,33.0,32.0,32.0,34.0,33.0,33.0,33.0,33.0,32.0,32.0,33.0,33.0,33.0,33.0,32.0,32.0,33.0,33.0,33.0,32.0,33.0,33.0,33.0,32.0,32.0,32.0,33.0,32.0,32.0,33.0,32.0,33.0,32.0,33.0,32.0,34.0,33.0,33.0,33.0,33.0,33.0,33.0,32.0,33.0,32.0,33.0,33.0,32.0,34.0,31.0,32.0,33.0,33.0,32.0,32.0,32.0,33.0,32.0,33.0,32.0,33.0,33.0,32.0,32.0,32.0,32.0,32.0,32.0,33.0,33.0,32.0,34.0,32.0,33.0,33.0,32.0,32.0,33.0,32.0,33.0,33.0,33.0,32.0,32.0,33.0,32.0,34.0,32.0,32.0,33.0,33.0,32.0,32.0,33.0,33.0,32.0,33.0,32.0,32.0,33.0,32.0,33.0,32.0,33.0,32.0,33.0,33.0,32.0,32.0,34.0,32.0,32.0,32.0,33.0,33.0,33.0,33.0,32.0,33.0,32.0,32.0,33.0,33.0,32.0,33.0,32.0,33.0,33.0,34.0,32.0,32.0,33.0,31.0,32.0,33.0,32.0,32.0,32.0,32.0,33.0,32.0,32.0,32.0,33.0,33.0,32.0,33.0,33.0,32.0,33.0,32.0,32.0,32.0,32.0,33.0,32.0,33.0,33.0,32.0,32.0,32.0,32.0,32.0,32.0,32.0,32.0,32.0,32.0,33.0,32.0,31.0,32.0,32.0,32.0,32.0,32.0,31.0,33.0,32.0,33.0,31.0,31.0,32.0,32.0,32.0,33.0,32.0,33.0,32.0,32.0,32.0,32.0,33.0,32.0,32.0,32.0,32.0,33.0,33.0,32.0,32.0,32.0,32.0,32.0,32.0,32.0,32.0,32.0,31.0,32.0,33.0,33.0,32.0,32.0,33.0,33.0,33.0,33.0,32.0,33.0,33.0,32.0,33.0,32.0,33.0,32.0,32.0,33.0,32.0,33.0,33.0,32.0,33.0,32.0,32.0,32.0,33.0,32.0,33.0,33.0,32.0,32.0,33.0,32.0,32.0,33.0,31.0,32.0,32.0,33.0,32.0,33.0,32.0,32.0,33.0,33.0,32.0,32.0,32.0,32.0,33.0,32.0,32.0,32.0,32.0,32.0,32.0,32.0,33.0,32.0,33.0,32.0,32.0,32.0,32.0,32.0,32.0,32.0,32.0,32.0,33.0,32.0
241.0,245.0,245.0,236.0,238.0,238.0,243.0,242.0,233.0,238.0,245.0,240.0,241.0,237.0,240.0,245.0,238.0,243.0,235.0,240.0,246.0,244.0,245.0,238.0,243.0,248.0,239.0,242.0,241.0,246.0,247.0,239.0,241.0,240.0,245.0,246.0,238.0,237.0,235.0,241.0,241.0,234.0,237.0,234.0,242.0,242.0,234.0,236.0,233.0,240.0,241.0,235.0,234.0,235.0,240.0,242.0,233.0,234.0,234.0,240.0,241.0,233.0,232.0,242.0,240.0,239.0,233.0,235.0,236.0,239.0,238.0,232.0,231.0,234.0,236.0,235.0,229.0,232.0,238.0,231.0,231.0,226.0,232.0,236.0,229.0,232.0,228.0,232.0,237.0,233.0,232.0,229.0,234.0,238.0,233.0,232.0,228.0,235.0,237.0,231.0,230.0,225.0,228.0,233.0,228.0,229.0,228.0,231.0,236.0,229.0,227.0,224.0,232.0,231.0,228.0,224.0,225.0,232.0,232.0,226.0,225.0,227.0,231.0,233.0,223.0,220.0,221.0,226.0,223.0,218.0,218.0,227.0,226.0,224.0,220.0,219.0,223.0,225.0,220.0,217.0,214.0,221.0,223.0,217.0,217.0,211.0,218.0,220.0,210.0,211.0,206.0,212.0,215.0,207.0,208.0,203.0,210.0,214.0,203.0,204.0,200.0,203.0,208.0,196.0,197.0,207.0,204.0,208.0,193.0,199.0,199.0,200.0,206.0,189.0,198.0,201.0,198.0,207.0,187.0,195.0,207.0,193.0,204.0,188.0,201.0,211.0,196.0,211.0,192.0,204.0,217.0,203.0,214.0,193.0,206.0,216.0,206.0,219.0,199.0,211.0,221.0,208.0,219.0,201.0,213.0,224.0,208.0,224.0,205.0,220.0,232.0,213.0,229.0,216.0,224.0,240.0,216.0,235.0,225.0,230.0,249.0,224.0,243.0,234.0,237.0,254.0,232.0,249.0,244.0,242.0,263.0,237.0,252.0,262.0,251.0,271.0,245.0,259.0,263.0,257.0,277.0,254.0,270.0,269.0,260.0,281.0,255.0,270.0,274.0,260.0,280.0,254.0,272.0,278.0,261.0,284.0,256.0,270.0,279.0,264.0,284.0,256.0,268.0,278.0,258.0,275.0,255.0,264.0,277.0,255.0,273.0,255.0,263.0,276.0,253.0,268.0,246.0,259.0,271.0,248.0,264.0,251.0,254.0,270.0,243.0,262.0,252.0,251.0,271.0,245.0,263.0,256.0,254.0,273.0,248.0,267.0,263.0,263.0,283.0,257.0,275.0,274.0,271.0,291.0,263.0,285.0,278.0,281.0,303.0,278.0,302.0,294.0,294.0,317.0,291.0,312.0,318.0,303.0,330.0,305.0,326.0,336.0,319.0,350.0,323.0,344.0,357.0,339.0,370.0,344.0,367.0,384.0,363.0,395.0,381.0,391.0,416.0,397.0,433.0,421.0,437.0,462.0,441.0,475.0,460.0,483.0,512.0,494.0,533.0,520.0,541.0,574.0,555.0,595.0,585.0,605.0,642.0,622.0,662.0,653.0,666.0,667.0,666.0,666.0,666.0,666.0,667.0,666.0,667.0,667.0,666.0,667.0,666.0,666.0,667.0,666.0,666.0,666.0,666.0,667.0,666.0,667.0,666.0,666.0,666.0,666.0,666.0,666.0,666.0,667.0,666.0,666.0,666.0,667.0,667.0,666.0,666.0,667.0,666.0,667.0,666.0,666.0,667.0,666.0,668.0,666.0,666.0,667.0,666.0,667.0,666.0,666.0,666.0,667.0,667.0,666.0,666.0,666.0,666.0,668.0,666.0,666.0,666.0,666.0,666.0,666.0,666.0,667.0,666.0,666.0,665.0,666.0,667.0,666.0,667.0,666.0,666.0,667.0,666.0,667.0,666.0,666.0,667.0,666.0,666.0,667.0,666.0,667.0,666.0,667.0,666.0,666.0,667.0,666.0,666.0,666.0,666.0,667.0,666.0,666.0,666.0,666.0,667.0,666.0,666.0,666.0,666.0,667.0,666.0,666.0,668.0,666.0,667.0,666.0,667.0,667.0,666.0,667.0,666.0,666.0,658.0,666.0,667.0,635.0,657.0,630.0,623.0,641.0,601.0,622.0,597.0,587.0,606.0,566.0,585.0,564.0,549.0,569.0,531.0,550.0,529.0,518.0,532.0,491.0,507.0,489.0,477.0,493.0,453.0,469.0,446.0,440.0,456.0,418.0,437.0,414.0,408.0,424.0,387.0,401.0,396.0,375.0,391.0,359.0,367.0,369.0,347.0,366.0,332.0,340.0,342.0,320.0,333.0,299.0,305.0,308.0,286.0,298.0,275.0,278.0,286.0,261.0,271.0,250.0,254.0,262.0,241.0,248.0,228.0,235.0,244.0,224.0,235.0,213.0,221.0,230.0,211.0,220.0,202.0,211.0,218.0,205.0,209.0,195.0,204.0,210.0,199.0,201.0,193.0,199.0,205.0,193.0,196.0,200.0,201.0,204.0,194.0,196.0,196.0,202.0,204.0,195.0,199.0,198.0,203.0,203.0,198.0,201.0,210.0,211.0,206.0,204.0,205.0,215.0,213.0,212.0,209.0,211.0,219.0,221.0,217.0,217.0,218.0,223.0,224.0,219.0,219.0,223.0,228.0,232.0,227.0,226.0,228.0,236.0,242.0,233.0,239.0,236.0,243.0,247.0,241.0,243.0,248.0,248.0,251.0,245.0,247.0,254.0,249.0,257.0,248.0,253.0,259.0,257.0,260.0,251.0,256.0,263.0,255.0,261.0,254.0,263.0,266.0,257.0,264.0,256.0,263.0,267.0,261.0,265.0,258.0,264.0,269.0,259.0,267.0,258.0,265.0,266.0,255.0,266.0,256.0,265.0,270.0,262.0,269.0,260.0,266.0,272.0,265.0,272.0,264.0,273.0,276.0,263.0,270.0,270.0,273.0,274.0,261.0,268.0,264.0,272.0,277.0,264.0,274.0,268.0,273.0,274.0,263.0,269.0,275.0,268.0,277.0,267.0,272.0,278.0,271.0,282.0,270.0,279.0,284.0,278.0,286.0,276.0,283.0,284.0,281.0,288.0,275.0,283.0,283.0,279.0,285.0,275.0,278.0,282.0,276.0,283.0,272.0,279.0,285.0,275.0,287.0,277.0,286.0,290.0,276.0,289.0,275.0,284.0,289.0,277.0,288.0,279.0,287.0,292.0,277.0,287.0,278.0,286.0,290.0,278.0,284.0,284.0,285.0,289.0,276.0,280.0,277.0,282.0,289.0,275.0,284.0,279.0,283.0,287.0,275.0,283.0,280.0,281.0,286.0,273.0,281.0,280.0,279.0,286.0,273.0,279.0,280.0,280.0,283.0,273.0,277.0,278.0,272.0,280.0,269.0,276.0,279.0,271.0,274.0,265.0,269.0,275.0,267.0,275.0,267.0,270.0,277.0,269.0,277.0,268.0,277.0,279.0,267.0,279.0,269.0,279.0,282.0,270.0,278.0,270.0,276.0,279.0,267.0,275.0,268.0,274.0,278.0,268.0,273.0,269.0,274.0,279.0,266.0,274.0,267.0,272.0,276.0,261.0,267.0,259.0,268.0,271.0,260.0,264.0,264.0,264.0,268.0,257.0,263.0,265.0,264.0,268.0,258.0,263.0,267.0,267.0,272.0,260.0,265.0,270.0,264.0,271.0,262.0,270.0,273.0,265.0,273.0,267.0,271.0,275.0,265.0,272.0,264.0,271.0,277.0,265.0,276.0,262.0,269.0,275.0,269.0,276.0,265.0,272.0,276.0,267.0,274.0,264.0,272.0,274.0,267.0,275.0,266.0,274.0,277.0,264.0,268.0,265.0,271.0,274.0,260.0,267.0,261.0,270.0,272.0,260.0,265.0,259.0,266.0,271.0,258.0,259.0,263.0,261.0,265.0,255.0,258.0,263.0,260.0,265.0,256.0,258.0,264.0,261.0,263.0,252.0,254.0,256.0,257.0,261.0,251.0,257.0,260.0,259.0,263.0,254.0,258.0,262.0,263.0,265.0,253.0,256.0,261.0,259.0,261.0,253.0,260.0,264.0,254.0,260.0,253.0,257.0,261.0,254.0,257.0,251.0,258.0,258.0,253.0,256.0,249.0,256.0,260.0,250.0,254.0,255.0,258.0,260.0,250.0,254.0,250.0,257.0,261.0,252.0,256.0,252.0,259.0,260.0,250.0,257.0,253.0,259.0,262.0,252.0,256.0,254.0,257.0,260.0,251.0,255.0,256.0,259.0,263.0,251.0,253.0,254.0,256.0,258.0,248.0,252.0,255.0,254.0,256.0,250.0,251.0,258.0,255.0,258.0,251.0,254.0,260.0,256.0,260.0,252.0,258.0,262.0,251.0,258.0
243.0,250.0,243.0,243.0,235.0,242.0,249.0,241.0,240.0,241.0,246.0,248.0,239.0,243.0,242.0,247.0,246.0,242.0,243.0,244.0,248.0,250.0,244.0,244.0,247.0,249.0,248.0,240.0,247.0,251.0,250.0,249.0,242.0,248.0,253.0,252.0,249.0,240.0,245.0,251.0,248.0,248.0,242.0,247.0,254.0,251.0,248.0,243.0,247.0,254.0,251.0,252.0,243.0,247.0,254.0,251.0,249.0,241.0,247.0,252.0,249.0,251.0,245.0,255.0,256.0,249.0,250.0,246.0,250.0,254.0,247.0,247.0,240.0,249.0,252.0,244.0,244.0,246.0,251.0,250.0,242.0,245.0,247.0,252.0,247.0,241.0,242.0,244.0,247.0,249.0,241.0,242.0,247.0,250.0,249.0,237.0,241.0,246.0,247.0,247.0,239.0,241.0,244.0,248.0,247.0,240.0,245.0,246.0,249.0,249.0,241.0,244.0,251.0,248.0,247.0,241.0,244.0,252.0,247.0,248.0,240.0,248.0,252.0,250.0,248.0,239.0,247.0,250.0,243.0,242.0,240.0,248.0,250.0,243.0,245.0,243.0,248.0,252.0,244.0,245.0,240.0,251.0,254.0,246.0,248.0,242.0,251.0,252.0,242.0,246.0,241.0,249.0,250.0,242.0,243.0,240.0,248.0,252.0,244.0,245.0,244.0,248.0,248.0,238.0,239.0,247.0,248.0,246.0,240.0,243.0,245.0,247.0,248.0,240.0,244.0,246.0,246.0,246.0,237.0,241.0,249.0,243.0,243.0,238.0,244.0,252.0,245.0,246.0,236.0,245.0,250.0,248.0,245.0,238.0,245.0,248.0,246.0,245.0,238.0,245.0,247.0,244.0,245.0,239.0,246.0,254.0,249.0,247.0,240.0,249.0,252.0,245.0,245.0,240.0,247.0,250.0,242.0,247.0,245.0,252.0,254.0,249.0,251.0,252.0,255.0,259.0,250.0,249.0,249.0,254.0,252.0,245.0,246.0,254.0,250.0,249.0,240.0,244.0,247.0,250.0,247.0,236.0,240.0,244.0,245.0,244.0,238.0,241.0,249.0,246.0,245.0,240.0,242.0,249.0,247.0,249.0,240.0,246.0,252.0,251.0,250.0,242.0,246.0,253.0,248.0,245.0,238.0,248.0,250.0,244.0,244.0,239.0,245.0,250.0,243.0,242.0,237.0,245.0,252.0,243.0,244.0,241.0,249.0,249.0,241.0,245.0,243.0,248.0,249.0,242.0,244.0,244.0,249.0,253.0,242.0,245.0,246.0,249.0,252.0,242.0,243.0,246.0,247.0,249.0,241.0,243.0,243.0,250.0,251.0,241.0,246.0,244.0,251.0,249.0,240.0,244.0,249.0,248.0,248.0,240.0,244.0,252.0,249.0,250.0,241.0,245.0,252.0,249.0,247.0,240.0,248.0,254.0,247.0,248.0,241.0,250.0,252.0,246.0,246.0,243.0,246.0,250.0,244.0,246.0,240.0,248.0,253.0,246.0,249.0,242.0,252.0,256.0,248.0,248.0,241.0,250.0,253.0,248.0,247.0,242.0,252.0,254.0,246.0,247.0,243.0,251.0,250.0,242.0,244.0,251.0,250.0,250.0,243.0,247.0,248.0,253.0,252.0,243.0,245.0,247.0,250.0,249.0,241.0,243.0,251.0,248.0,246.0,239.0,245.0,251.0,248.0,249.0,242.0,247.0,254.0,248.0,243.0,233.0,244.0,248.0,248.0,246.0,242.0,247.0,251.0,244.0,245.0,239.0,246.0,248.0,244.0,242.0,240.0,251.0,256.0,249.0,244.0,234.0,242.0,246.0,241.0,242.0,240.0,250.0,252.0,247.0,249.0,246.0,251.0,255.0,247.0,251.0,246.0,254.0,252.0,245.0,247.0,252.0,251.0,248.0,241.0,245.0,249.0,254.0,251.0,245.0,251.0,255.0,255.0,251.0,248.0,247.0,251.0,252.0,249.0,242.0,243.0,247.0,249.0,250.0,242.0,246.0,253.0,251.0,249.0,242.0,246.0,254.0,250.0,249.0,241.0,251.0,252.0,247.0,246.0,240.0,247.0,252.0,246.0,246.0,239.0,246.0,250.0,245.0,246.0,241.0,250.0,250.0,242.0,244.0,242.0,250.0,249.0,244.0,245.0,244.0,251.0,253.0,246.0,246.0,247.0,251.0,253.0,247.0,247.0,250.0,251.0,252.0,244.0,246.0,244.0,254.0,253.0,247.0,247.0,246.0,255.0,253.0,246.0,247.0,253.0,253.0,252.0,247.0,249.0,254.0,253.0,252.0,247.0,249.0,255.0,254.0,252.0,245.0,249.0,255.0,250.0,248.0,242.0,251.0,253.0,250.0,247.0,243.0,248.0,254.0,249.0,248.0,242.0,249.0,254.0,249.0,250.0,242.0,252.0,254.0,250.0,250.0,245.0,253.0,258.0,254.0,252.0,245.0,255.0,256.0,251.0,248.0,246.0,254.0,256.0,248.0,249.0,252.0,253.0,253.0,246.0,247.0,246.0,253.0,252.0,246.0,246.0,246.0,250.0,250.0,244.0,246.0,255.0,253.0,250.0,245.0,247.0,253.0,251.0,250.0,243.0,247.0,255.0,254.0,252.0,245.0,250.0,253.0,253.0,252.0,244.0,251.0,254.0,254.0,252.0,246.0,250.0,258.0,256.0,253.0,248.0,252.0,260.0,256.0,255.0,247.0,256.0,259.0,252.0,253.0,249.0,256.0,257.0,253.0,253.0,249.0,256.0,258.0,253.0,252.0,249.0,257.0,255.0,248.0,250.0,255.0,257.0,256.0,250.0,251.0,251.0,257.0,256.0,250.0,252.0,254.0,256.0,256.0,252.0,252.0,255.0,255.0,252.0,249.0,247.0,252.0,253.0,253.0,247.0,247.0,253.0,253.0,253.0,246.0,249.0,254.0,253.0,249.0,243.0,251.0,254.0,251.0,249.0,243.0,248.0,254.0,252.0,250.0,245.0,250.0,257.0,253.0,252.0,247.0,254.0,255.0,250.0,252.0,247.0,254.0,255.0,251.0,250.0,248.0,254.0,254.0,251.0,250.0,250.0,254.0,258.0,252.0,251.0,251.0,254.0,256.0,251.0,250.0,245.0,255.0,255.0,248.0,249.0,247.0,254.0,254.0,248.0,250.0,253.0,256.0,251.0,247.0,246.0,252.0,252.0,253.0,246.0,247.0,256.0,255.0,253.0,246.0,248.0,254.0,253.0,249.0,242.0,251.0,255.0,252.0,249.0,244.0,250.0,256.0,253.0,252.0,245.0,252.0,258.0,254.0,254.0,248.0,254.0,258.0,252.0,252.0,244.0,252.0,256.0,253.0,250.0,243.0,253.0,255.0,252.0,249.0,244.0,252.0,255.0,248.0,249.0,250.0,254.0,255.0,247.0,248.0,246.0,254.0,253.0,247.0,249.0,246.0,254.0,255.0,248.0,249.0,254.0,253.0,251.0,248.0,248.0,254.0,252.0,253.0,245.0,248.0,255.0,254.0,252.0,244.0,248.0,251.0,255.0,253.0,246.0,251.0,254.0,256.0,253.0,246.0,250.0,255.0,255.0,252.0,247.0,249.0,254.0,254.0,251.0,244.0,251.0,256.0,249.0,251.0,243.0,253.0,255.0,252.0,249.0,244.0,252.0,254.0,252.0,250.0,245.0,254.0,255.0,248.0,248.0,251.0,255.0,255.0,248.0,250.0,249.0,254.0,254.0,245.0,249.0,248.0,253.0,253.0,249.0,248.0,247.0,253.0,252.0,248.0,247.0,250.0,251.0,254.0,245.0,247.0,249.0,253.0,254.0,247.0,248.0,253.0,254.0,249.0,241.0,247.0,252.0,250.0,249.0,241.0,247.0,252.0,251.0,248.0,241.0,244.0,253.0,250.0,249.0,241.0,250.0,254.0,246.0,248.0,241.0,251.0,253.0,248.0,248.0,244.0,252.0,254.0,247.0,246.0,242.0,246.0,251.0,244.0,244.0,242.0,247.0,252.0,245.0,245.0,241.0,250.0,256.0,248.0,249.0,243.0,252.0,255.0,248.0,249.0,252.0,256.0,252.0,247.0,248.0,250.0,251.0,253.0,244.0,245.0,248.0,248.0,249.0,242.0,244.0,250.0,250.0,249.0,242.0,251.0,254.0,250.0,249.0,241.0,246.0,253.0,251.0,249.0,243.0,246.0,252.0,248.0,249.0,240.0,247.0,252.0,248.0,248.0,239.0,247.0,252.0,249.0,249.0,240.0,249.0,253.0,250.0,249.0,240.0,249.0,254.0,247.0,246.0,245.0,249.0,252.0,244.0,244.0,239.0,248.0,252.0,242.0,246.0,240.0,250.0,251.0,244.0,245.0,246.0,247.0,244.0,238.0
