209.0,210.0,215.0,207.0,210.0,203.0,210.0,216.0,206.0,208.0,201.0,211.0,214.0,206.0,210.0,205.0,212.0,217.0,208.0,210.0,205.0,211.0,215.0,207.0,209.0,206.0,213.0,216.0,209.0,210.0,210.0,212.0,218.0,209.0,212.0,205.0,214.0,218.0,210.0,212.0,211.0,215.0,217.0,207.0,212.0,213.0,215.0,217.0,209.0,213.0,215.0,215.0,218.0,209.0,211.0,215.0,215.0,217.0,210.0,213.0,217.0,217.0,219.0,208.0,212.0,213.0,217.0,217.0,210.0,213.0,215.0,217.0,217.0,210.0,214.0,220.0,214.0,215.0,208.0,213.0,220.0,215.0,217.0,209.0,215.0,222.0,217.0,218.0,208.0,209.0,212.0,203.0,201.0,199.0,212.0,209.0,207.0,211.0,211.0,216.0,225.0,218.0,223.0,222.0,240.0,254.0,246.0,248.0,228.0,241.0,247.0,242.0,246.0,238.0,241.0,236.0,227.0,228.0,230.0,239.0,234.0,227.0,223.0,223.0,218.0,228.0,227.0,234.0,240.0,237.0,236.0,222.0,218.0,222.0,231.0,238.0,227.0,236.0,237.0,245.0,247.0,238.0,236.0,248.0,247.0,243.0,238.0,241.0,243.0,236.0,235.0,234.0,240.0,245.0,242.0,244.0,235.0,240.0,249.0,248.0,248.0,234.0,243.0,252.0,253.0,250.0,250.0,251.0,251.0,246.0,254.0,248.0,248.0,256.0,250.0,245.0,238.0,253.0,250.0,240.0,240.0,235.0,242.0,249.0,244.0,240.0,235.0,239.0,246.0,241.0,232.0,226.0,243.0,248.0,238.0,238.0,246.0,240.0,242.0,238.0,251.0,255.0,266.0,260.0,254.0,255.0,253.0,257.0,256.0,250.0,240.0,246.0,263.0,265.0,260.0,259.0,259.0,263.0,257.0,250.0,253.0,256.0,254.0,260.0,254.0,246.0,255.0,268.0,264.0,249.0,251.0,252.0,249.0,250.0,245.0,247.0,253.0,249.0,244.0,239.0,243.0,246.0,243.0,239.0,232.0,241.0,243.0,236.0,236.0,231.0,239.0,242.0,236.0,236.0,229.0,237.0,239.0,233.0,232.0,229.0,233.0,236.0,229.0,229.0,227.0,228.0,232.0,222.0,223.0,218.0,224.0,227.0,221.0,222.0,216.0,224.0,226.0,218.0,219.0,220.0,223.0,220.0,216.0,217.0,220.0,222.0,222.0,216.0,218.0,221.0,223.0,223.0,216.0,217.0,223.0,222.0,220.0,215.0,220.0,222.0,222.0,219.0,213.0,217.0,223.0,221.0,219.0,214.0,217.0,222.0,221.0,220.0,213.0,216.0,222.0,220.0,220.0,214.0,219.0,224.0,222.0,220.0,213.0,220.0,222.0,221.0,219.0,212.0,219.0,225.0,218.0,217.0,215.0,218.0,222.0,216.0,217.0,211.0,219.0,223.0,216.0,217.0,213.0,220.0,222.0,215.0,216.0,216.0,221.0,219.0,215.0,216.0,218.0,220.0,221.0,214.0,214.0,218.0,220.0,220.0,213.0,216.0,214.0,220.0,220.0,212.0,214.0,215.0,220.0,219.0,212.0,215.0,216.0,221.0,220.0,215.0,216.0,219.0,221.0,219.0,213.0,216.0,222.0,219.0,219.0,212.0,216.0,222.0,219.0,218.0,211.0,216.0,219.0,220.0,218.0,210.0,217.0,222.0,215.0,216.0,212.0,217.0,222.0,215.0,216.0,210.0,218.0,222.0,215.0,217.0,210.0,218.0,222.0,216.0,216.0,210.0,218.0,221.0,216.0,216.0,212.0,219.0,221.0,215.0,215.0,213.0,215.0,221.0,214.0,215.0,213.0,220.0,220.0,211.0,213.0,213.0,218.0,219.0,211.0,214.0,215.0,219.0,220.0,213.0,216.0,217.0,218.0,219.0,211.0,215.0,222.0,216.0,219.0,211.0,215.0,221.0,217.0,218.0,208.0,216.0,218.0,216.0,216.0,209.0,212.0,218.0,216.0,216.0,208.0,213.0,219.0,216.0,216.0,210.0,214.0,220.0,217.0,218.0,210.0,214.0,220.0,215.0,217.0,210.0,217.0,220.0,215.0,216.0,211.0,218.0,220.0,215.0,215.0,212.0,216.0,222.0,214.0,215.0,213.0,218.0,219.0,212.0,214.0,214.0,219.0,219.0,211.0,213.0,214.0,218.0,218.0,211.0,214.0,215.0,218.0,221.0,211.0,213.0,216.0,216.0,220.0,211.0,212.0,216.0,216.0,219.0,209.0,213.0,212.0,217.0,218.0,210.0,212.0,219.0,216.0,216.0,208.0,213.0,218.0,216.0,216.0,209.0,213.0,219.0,216.0,217.0,210.0,214.0,220.0,215.0,215.0,209.0,217.0,220.0,215.0,215.0,209.0,216.0,219.0,212.0,213.0,210.0,214.0,219.0,211.0,214.0,206.0,214.0,219.0,211.0,213.0,207.0,215.0,220.0,211.0,215.0,208.0,216.0,221.0,214.0,215.0,209.0,215.0,219.0,210.0,212.0,214.0,217.0,220.0,211.0,213.0,216.0,216.0,219.0,210.0,211.0,212.0,218.0,218.0,209.0,211.0,217.0,214.0,216.0,207.0,212.0,218.0,215.0,215.0,209.0,212.0,218.0,214.0,217.0,207.0,212.0,218.0,214.0,215.0,206.0,211.0,217.0,215.0,215.0,206.0,211.0,216.0,214.0,215.0,207.0,210.0,217.0,214.0,215.0,207.0,215.0,218.0,211.0,212.0,206.0,213.0,219.0,209.0,213.0,206.0,214.0,218.0,212.0,214.0,206.0,214.0,218.0,210.0,211.0,215.0,214.0,218.0,210.0,211.0,214.0,217.0,219.0,210.0,212.0,211.0,216.0,217.0,209.0,212.0,212.0,216.0,217.0,208.0,213.0,212.0,215.0,216.0,209.0,212.0,213.0,215.0,218.0,209.0,211.0,214.0,215.0,216.0,206.0,212.0,219.0,215.0,215.0,207.0,212.0,215.0,214.0,214.0,206.0,210.0,217.0,214.0,214.0,206.0,213.0,218.0,212.0,213.0,206.0,213.0,218.0,209.0,213.0,206.0,214.0,218.0,211.0,213.0,207.0,215.0,218.0,212.0,212.0,208.0,215.0,219.0,212.0,212.0,209.0,214.0,219.0,212.0,213.0,205.0,213.0,218.0,211.0,212.0,212.0,215.0,217.0,208.0,212.0,212.0,216.0,217.0,210.0,213.0,214.0,216.0,219.0,211.0,212.0,214.0,216.0,216.0,207.0,212.0,218.0,214.0,215.0,207.0,212.0,216.0,216.0,214.0,207.0,211.0,217.0,216.0,216.0,210.0,212.0,218.0,215.0,215.0,209.0,212.0,218.0,215.0,217.0,208.0,213.0,219.0,216.0,216.0,208.0,214.0,219.0,215.0,214.0,210.0,217.0,219.0,215.0,216.0,212.0,216.0,220.0,214.0,215.0,208.0,216.0,220.0,213.0,214.0,213.0,217.0,219.0,210.0,214.0,213.0,218.0,217.0,212.0,213.0,214.0,217.0,219.0,212.0,214.0,216.0,218.0,220.0,211.0,213.0,216.0,218.0,219.0,212.0,213.0,213.0,218.0,219.0,211.0,214.0,215.0,219.0,218.0,212.0,214.0,219.0,217.0,216.0,211.0,213.0,221.0,218.0,219.0,211.0,215.0,221.0,219.0,218.0,211.0,216.0,221.0,217.0,216.0,212.0,218.0,221.0,216.0,216.0,212.0,217.0,221.0,215.0,216.0,209.0,217.0,220.0,215.0,216.0,210.0,218.0,221.0,214.0,217.0,210.0,218.0,220.0,216.0,216.0,212.0,218.0,220.0,216.0,216.0,211.0,220.0,221.0,212.0,214.0,217.0,219.0,220.0,213.0,214.0,214.0,220.0,219.0,212.0,215.0,214.0,218.0,219.0,211.0,214.0,219.0,218.0,216.0,211.0,214.0,220.0,217.0,218.0,211.0,214.0,221.0,218.0,218.0,210.0,215.0,218.0,217.0,216.0,208.0,213.0,218.0,215.0,215.0,208.0,212.0,217.0,216.0,215.0,208.0,212.0,218.0,215.0,216.0,209.0,215.0,220.0,213.0,216.0,209.0,218.0,220.0,214.0,215.0,209.0,217.0,220.0,214.0,214.0,210.0,217.0,219.0,209.0,213.0,215.0,217.0,218.0,210.0,212.0,212.0,218.0,219.0,210.0,214.0,213.0,217.0,218.0,211.0,213.0,213.0,217.0,217.0,212.0,212.0,214.0,216.0,219.0,210.0,214.0,215.0,217.0,220.0,210.0,213.0,217.0,216.0,216.0,206.0,213.0,217.0,214.0,216.0,207.0
249.0,256.0,256.0,251.0,251.0,244.0,253.0,253.0,248.0,247.0,243.0,253.0,253.0,247.0,250.0,244.0,255.0,253.0,252.0,250.0,246.0,252.0,252.0,247.0,247.0,246.0,255.0,254.0,249.0,249.0,248.0,256.0,257.0,255.0,254.0,249.0,259.0,260.0,253.0,255.0,254.0,259.0,255.0,250.0,254.0,257.0,260.0,256.0,254.0,255.0,259.0,259.0,257.0,250.0,254.0,259.0,259.0,257.0,251.0,256.0,261.0,262.0,261.0,251.0,254.0,259.0,260.0,258.0,252.0,256.0,259.0,263.0,258.0,253.0,259.0,263.0,261.0,258.0,253.0,260.0,265.0,258.0,261.0,251.0,260.0,266.0,260.0,260.0,249.0,253.0,257.0,250.0,243.0,242.0,261.0,261.0,265.0,268.0,280.0,279.0,267.0,260.0,261.0,258.0,264.0,273.0,257.0,260.0,241.0,249.0,253.0,244.0,252.0,245.0,252.0,244.0,245.0,248.0,252.0,266.0,277.0,268.0,272.0,268.0,255.0,254.0,258.0,271.0,275.0,270.0,271.0,261.0,257.0,260.0,270.0,272.0,254.0,257.0,257.0,267.0,268.0,267.0,267.0,281.0,277.0,275.0,275.0,288.0,288.0,275.0,275.0,282.0,294.0,294.0,294.0,288.0,275.0,285.0,280.0,287.0,290.0,275.0,289.0,298.0,301.0,296.0,297.0,299.0,296.0,293.0,287.0,283.0,287.0,294.0,288.0,283.0,275.0,296.0,288.0,285.0,282.0,282.0,293.0,290.0,297.0,290.0,293.0,297.0,300.0,295.0,283.0,280.0,310.0,306.0,301.0,299.0,302.0,302.0,294.0,302.0,309.0,310.0,323.0,310.0,313.0,313.0,313.0,321.0,311.0,315.0,295.0,303.0,320.0,315.0,319.0,315.0,317.0,326.0,312.0,308.0,308.0,315.0,322.0,317.0,321.0,317.0,326.0,340.0,326.0,316.0,320.0,320.0,320.0,318.0,314.0,319.0,323.0,327.0,310.0,310.0,311.0,313.0,315.0,303.0,297.0,307.0,298.0,299.0,295.0,292.0,303.0,298.0,300.0,292.0,291.0,301.0,297.0,295.0,290.0,287.0,294.0,289.0,289.0,284.0,285.0,290.0,283.0,284.0,280.0,277.0,285.0,281.0,279.0,276.0,278.0,292.0,282.0,287.0,282.0,287.0,294.0,284.0,288.0,286.0,289.0,294.0,285.0,286.0,284.0,287.0,292.0,282.0,284.0,282.0,289.0,290.0,281.0,272.0,278.0,277.0,274.0,268.0,259.0,263.0,269.0,271.0,265.0,265.0,268.0,271.0,271.0,265.0,260.0,266.0,269.0,269.0,264.0,259.0,268.0,270.0,270.0,263.0,256.0,264.0,266.0,264.0,260.0,252.0,260.0,263.0,258.0,257.0,256.0,261.0,263.0,253.0,256.0,250.0,260.0,263.0,253.0,257.0,251.0,261.0,261.0,253.0,256.0,258.0,261.0,260.0,252.0,256.0,259.0,258.0,263.0,252.0,256.0,263.0,264.0,263.0,254.0,257.0,257.0,261.0,259.0,250.0,254.0,258.0,259.0,258.0,250.0,256.0,257.0,260.0,258.0,252.0,256.0,261.0,260.0,260.0,250.0,257.0,265.0,256.0,261.0,248.0,257.0,265.0,259.0,258.0,251.0,258.0,261.0,259.0,258.0,251.0,261.0,262.0,254.0,256.0,254.0,259.0,263.0,256.0,256.0,249.0,259.0,260.0,254.0,257.0,249.0,260.0,260.0,256.0,256.0,252.0,260.0,264.0,255.0,259.0,253.0,261.0,266.0,255.0,257.0,254.0,257.0,260.0,253.0,254.0,252.0,259.0,258.0,250.0,255.0,254.0,259.0,257.0,251.0,255.0,257.0,261.0,260.0,249.0,253.0,257.0,256.0,258.0,248.0,255.0,261.0,254.0,256.0,247.0,254.0,260.0,255.0,255.0,245.0,256.0,259.0,254.0,255.0,245.0,252.0,257.0,255.0,254.0,246.0,253.0,261.0,253.0,256.0,248.0,254.0,262.0,255.0,257.0,247.0,254.0,262.0,254.0,257.0,251.0,259.0,263.0,255.0,256.0,251.0,260.0,262.0,254.0,257.0,252.0,258.0,263.0,253.0,255.0,254.0,258.0,258.0,251.0,253.0,255.0,262.0,256.0,249.0,255.0,257.0,261.0,257.0,255.0,254.0,257.0,258.0,259.0,250.0,255.0,258.0,256.0,258.0,248.0,252.0,257.0,258.0,257.0,251.0,255.0,257.0,260.0,262.0,251.0,257.0,262.0,261.0,259.0,252.0,257.0,263.0,258.0,257.0,251.0,255.0,262.0,254.0,256.0,249.0,256.0,262.0,255.0,256.0,251.0,259.0,263.0,254.0,256.0,249.0,256.0,261.0,252.0,255.0,252.0,257.0,261.0,252.0,253.0,246.0,256.0,262.0,253.0,257.0,250.0,260.0,262.0,255.0,256.0,250.0,260.0,261.0,257.0,257.0,252.0,260.0,261.0,250.0,252.0,257.0,260.0,262.0,251.0,255.0,258.0,258.0,261.0,250.0,253.0,255.0,258.0,258.0,249.0,255.0,260.0,255.0,255.0,245.0,252.0,261.0,255.0,256.0,249.0,255.0,262.0,255.0,257.0,247.0,254.0,260.0,258.0,255.0,247.0,254.0,260.0,256.0,255.0,247.0,256.0,260.0,257.0,255.0,247.0,254.0,260.0,255.0,256.0,247.0,257.0,261.0,250.0,255.0,246.0,256.0,259.0,250.0,257.0,251.0,259.0,261.0,254.0,254.0,251.0,258.0,260.0,251.0,254.0,257.0,258.0,261.0,251.0,254.0,259.0,258.0,259.0,247.0,252.0,252.0,254.0,256.0,245.0,252.0,253.0,257.0,258.0,248.0,254.0,256.0,257.0,259.0,250.0,253.0,256.0,256.0,262.0,249.0,254.0,258.0,255.0,258.0,247.0,253.0,265.0,256.0,257.0,246.0,253.0,258.0,253.0,255.0,245.0,250.0,259.0,249.0,253.0,244.0,254.0,263.0,249.0,257.0,249.0,259.0,266.0,252.0,260.0,251.0,259.0,264.0,254.0,256.0,249.0,257.0,258.0,251.0,254.0,250.0,259.0,260.0,255.0,253.0,252.0,258.0,261.0,254.0,256.0,248.0,257.0,262.0,250.0,255.0,255.0,258.0,258.0,250.0,255.0,257.0,257.0,260.0,251.0,256.0,258.0,259.0,263.0,251.0,255.0,261.0,258.0,260.0,249.0,255.0,263.0,257.0,257.0,247.0,256.0,260.0,257.0,255.0,249.0,252.0,261.0,253.0,257.0,249.0,254.0,260.0,258.0,255.0,251.0,256.0,261.0,261.0,256.0,253.0,258.0,262.0,262.0,257.0,250.0,258.0,261.0,257.0,257.0,252.0,262.0,261.0,256.0,255.0,251.0,256.0,262.0,254.0,256.0,247.0,257.0,261.0,252.0,254.0,252.0,258.0,256.0,248.0,252.0,253.0,258.0,254.0,249.0,252.0,254.0,257.0,257.0,247.0,252.0,255.0,259.0,257.0,251.0,254.0,257.0,261.0,258.0,249.0,253.0,252.0,259.0,256.0,247.0,253.0,253.0,258.0,254.0,249.0,252.0,258.0,254.0,253.0,246.0,252.0,257.0,256.0,254.0,248.0,254.0,260.0,258.0,256.0,248.0,257.0,260.0,256.0,254.0,249.0,259.0,259.0,256.0,255.0,252.0,257.0,259.0,253.0,257.0,250.0,258.0,261.0,252.0,254.0,248.0,260.0,259.0,255.0,255.0,251.0,263.0,261.0,258.0,257.0,252.0,263.0,261.0,256.0,257.0,253.0,262.0,259.0,252.0,255.0,259.0,262.0,260.0,250.0,253.0,252.0,260.0,255.0,250.0,253.0,253.0,259.0,252.0,248.0,252.0,258.0,259.0,255.0,251.0,257.0,262.0,257.0,255.0,250.0,256.0,262.0,261.0,257.0,251.0,259.0,260.0,260.0,255.0,248.0,257.0,259.0,259.0,254.0,249.0,253.0,258.0,258.0,254.0,250.0,255.0,261.0,258.0,256.0,248.0,258.0,257.0,254.0,256.0,248.0,259.0,260.0,256.0,255.0,249.0,259.0,259.0,253.0,254.0,250.0,260.0,255.0,248.0,252.0,256.0,259.0,257.0,250.0,251.0,251.0,261.0,257.0,252.0,254.0,255.0,259.0,255.0,251.0,253.0,254.0,256.0,255.0,250.0,253.0,256.0,260.0,258.0,250.0,253.0,257.0,262.0,258.0,253.0,254.0,259.0,260.0,256.0,250.0,260.0,261.0,262.0,257.0,252.0
3.0,3.0,4.0,3.0,5.0,4.0,3.0,4.0,3.0,4.0,4.0,4.0,3.0,4.0,3.0,4.0,4.0,4.0,2.0,4.0,3.0,4.0,4.0,5.0,4.0,4.0,3.0,3.0,3.0,3.0,4.0,4.0,4.0,3.0,4.0,3.0,5.0,4.0,4.0,3.0,3.0,3.0,5.0,4.0,3.0,4.0,3.0,4.0,3.0,4.0,4.0,4.0,3.0,4.0,4.0,5.0,2.0,4.0,3.0,3.0,4.0,4.0,4.0,4.0,4.0,3.0,4.0,4.0,4.0,4.0,4.0,3.0,4.0,3.0,5.0,4.0,4.0,4.0,3.0,4.0,4.0,4.0,3.0,4.0,3.0,4.0,3.0,4.0,2.0,4.0,3.0,3.0,4.0,5.0,4.0,4.0,3.0,3.0,3.0,4.0,4.0,3.0,4.0,3.0,3.0,3.0,4.0,4.0,4.0,3.0,3.0,3.0,4.0,4.0,4.0,4.0,3.0,3.0,3.0,4.0,4.0,4.0,3.0,4.0,4.0,5.0,3.0,3.0,4.0,3.0,4.0,4.0,4.0,4.0,4.0,3.0,4.0,4.0,5.0,3.0,4.0,3.0,4.0,4.0,5.0,4.0,4.0,4.0,3.0,4.0,4.0,5.0,3.0,4.0,3.0,4.0,4.0,4.0,4.0,4.0,3.0,4.0,4.0,4.0,5.0,4.0,4.0,3.0,3.0,4.0,5.0,4.0,4.0,3.0,3.0,4.0,5.0,4.0,4.0,3.0,3.0,4.0,4.0,4.0,3.0,4.0,3.0,4.0,4.0,5.0,4.0,3.0,4.0,4.0,4.0,4.0,4.0,4.0,3.0,4.0,4.0,4.0,4.0,4.0,3.0,3.0,4.0,4.0,5.0,4.0,3.0,4.0,4.0,4.0,4.0,4.0,4.0,4.0,3.0,4.0,4.0,5.0,3.0,4.0,3.0,3.0,4.0,4.0,4.0,4.0,4.0,3.0,4.0,4.0,4.0,4.0,4.0,3.0,4.0,4.0,5.0,4.0,4.0,3.0,3.0,4.0,5.0,4.0,4.0,4.0,3.0,4.0,3.0,5.0,4.0,4.0,3.0,4.0,4.0,5.0,4.0,4.0,3.0,4.0,4.0,4.0,4.0,4.0,4.0,3.0,4.0,4.0,5.0,2.0,4.0,3.0,4.0,4.0,5.0,4.0,3.0,4.0,4.0,4.0,5.0,4.0,4.0,3.0,3.0,4.0,4.0,5.0,4.0,4.0,4.0,3.0,4.0,5.0,4.0,4.0,3.0,3.0,4.0,4.0,4.0,3.0,4.0,3.0,3.0,3.0,5.0,4.0,4.0,3.0,4.0,4.0,5.0,4.0,4.0,4.0,3.0,4.0,4.0,5.0,3.0,4.0,3.0,4.0,4.0,5.0,4.0,3.0,4.0,3.0,3.0,5.0,4.0,3.0,4.0,3.0,4.0,4.0,4.0,4.0,4.0,3.0,3.0,3.0,4.0,4.0,3.0,4.0,4.0,3.0,4.0,4.0,3.0,3.0,3.0,4.0,4.0,5.0,2.0,4.0,3.0,4.0,4.0,5.0,4.0,3.0,4.0,3.0,4.0,4.0,4.0,4.0,4.0,4.0,4.0,4.0,5.0,4.0,4.0,3.0,4.0,3.0,5.0,4.0,4.0,4.0,4.0,4.0,4.0,5.0,4.0,4.0,3.0,3.0,4.0,5.0,4.0,4.0,4.0,3.0,3.0,4.0,4.0,3.0,4.0,3.0,4.0,3.0,5.0,3.0,4.0,3.0,4.0,4.0,5.0,4.0,4.0,4.0,3.0,4.0,4.0,4.0,4.0,4.0,3.0,4.0,4.0,4.0,2.0,4.0,3.0,4.0,3.0,5.0,4.0,3.0,4.0,3.0,3.0,4.0,5.0,4.0,4.0,3.0,4.0,4.0,5.0,4.0,3.0,3.0,3.0,4.0,4.0,4.0,4.0,4.0,4.0,3.0,4.0,5.0,4.0,4.0,3.0,4.0,4.0,4.0,4.0,4.0,4.0,3.0,3.0,4.0,4.0,4.0,4.0,3.0,4.0,4.0,5.0,4.0,4.0,3.0,4.0,3.0,5.0,4.0,4.0,3.0,3.0,4.0,4.0,5.0,3.0,4.0,3.0,4.0,4.0,5.0,2.0,4.0,3.0,4.0,4.0,4.0,4.0,4.0,3.0,3.0,3.0,4.0,4.0,4.0,4.0,3.0,4.0,3.0,5.0,3.0,3.0,3.0,4.0,4.0,3.0,4.0,3.0,4.0,3.0,4.0,4.0,4.0,3.0,4.0,3.0,3.0,3.0,5.0,3.0,4.0,4.0,3.0,3.0,4.0,4.0,4.0,4.0,3.0,4.0,4.0,4.0,4.0,4.0,4.0,4.0,4.0,4.0,4.0,4.0,4.0,3.0,4.0,4.0,5.0,4.0,4.0,3.0,4.0,4.0,4.0,4.0,4.0,3.0,3.0,4.0,4.0,4.0,3.0,4.0,3.0,4.0,4.0,5.0,4.0,4.0,3.0,4.0,3.0,5.0,4.0,3.0,4.0,3.0,3.0,4.0,4.0,3.0,4.0,3.0,4.0,4.0,5.0,4.0,4.0,4.0,4.0,4.0,4.0,4.0,4.0,4.0,3.0,3.0,5.0,5.0,4.0,4.0,3.0,4.0,3.0,5.0,4.0,4.0,3.0,4.0,3.0,5.0,4.0,3.0,4.0,3.0,4.0,4.0,5.0,4.0,4.0,4.0,4.0,4.0,5.0,4.0,4.0,4.0,4.0,3.0,4.0,4.0,3.0,3.0,3.0,4.0,4.0,5.0,4.0,4.0,3.0,4.0,4.0,5.0,4.0,4.0,3.0,3.0,4.0,4.0,4.0,4.0,4.0,3.0,4.0,3.0,5.0,4.0,4.0,3.0,3.0,3.0,5.0,4.0,4.0,4.0,3.0,4.0,4.0,5.0,4.0,4.0,3.0,4.0,4.0,5.0,4.0,3.0,4.0,3.0,4.0,4.0,4.0,3.0,4.0,3.0,4.0,4.0,5.0,4.0,4.0,3.0,4.0,3.0,4.0,4.0,3.0,3.0,3.0,3.0,4.0,4.0,4.0,4.0,4.0,4.0,4.0,4.0,3.0,3.0,4.0,4.0,3.0,5.0,4.0,4.0,4.0,3.0,4.0,4.0,4.0,4.0,3.0,3.0,4.0,3.0,5.0,4.0,4.0,4.0,4.0,4.0,4.0,4.0,4.0,4.0,3.0,4.0,4.0,4.0,2.0,4.0,3.0,4.0,4.0,4.0,4.0,4.0,4.0,3.0,4.0,3.0,4.0,3.0,4.0,3.0,4.0,4.0,5.0,4.0,4.0,3.0,4.0,4.0,5.0,4.0,4.0,4.0,3.0,4.0,4.0,4.0,4.0,3.0,3.0,4.0,3.0,5.0,4.0,4.0,3.0,3.0,3.0,4.0,4.0,4.0,3.0,3.0,5.0,4.0,4.0,4.0,4.0,3.0,4.0,3.0,4.0,4.0,3.0,3.0,3.0,4.0,4.0,4.0,4.0,4.0,3.0,4.0,4.0,5.0,4.0,4.0,3.0,4.0,3.0,5.0,3.0,4.0,4.0,3.0,4.0,4.0,4.0,4.0,4.0,3.0,4.0,3.0,5.0,4.0,4.0,3.0,4.0,4.0,4.0,4.0,4.0,4.0,3.0,4.0,4.0,3.0,2.0,4.0,3.0,3.0,4.0,5.0,4.0,4.0,3.0,3.0,3.0,4.0,4.0,4.0,4.0,3.0,4.0,4.0,5.0,4.0,4.0,3.0,4.0,4.0,4.0,4.0,3.0,4.0,4.0,4.0,4.0,4.0,4.0,4.0,3.0,4.0,4.0,5.0,3.0,4.0,3.0,4.0,3.0,4.0,4.0,4.0,4.0,3.0,4.0,4.0,4.0,2.0,4.0,3.0,4.0,3.0,5.0,2.0,4.0,4.0,4.0,4.0,5.0,4.0,4.0,4.0,3.0,3.0,4.0,5.0,2.0,4.0,3.0,4.0,4.0,5.0,4.0,4.0,3.0,3.0,3.0,5.0,4.0,3.0,4.0,3.0,4.0,4.0,4.0,4.0,3.0,3.0,4.0,3.0,5.0,4.0,3.0,4.0,3.0,4.0,4.0,4.0,3.0,4.0,3.0,3.0,3.0,4.0,4.0,3.0,4.0,3.0,3.0,4.0,4.0,4.0,4.0,3.0,4.0,4.0,5.0,4.0,4.0,3.0,3.0,4.0,5.0,4.0,4.0,4.0,3.0,4.0,4.0,4.0,4.0,4.0,3.0,4.0,4.0,5.0,2.0
233.0,237.0,237.0,231.0,230.0,226.0,235.0,238.0,231.0,231.0,227.0,235.0,237.0,229.0,231.0,227.0,236.0,236.0,231.0,230.0,229.0,236.0,237.0,230.0,231.0,228.0,236.0,236.0,229.0,230.0,230.0,234.0,235.0,228.0,229.0,225.0,234.0,237.0,228.0,232.0,234.0,237.0,235.0,227.0,232.0,234.0,236.0,234.0,227.0,231.0,235.0,235.0,237.0,229.0,232.0,238.0,239.0,237.0,229.0,232.0,238.0,239.0,238.0,228.0,231.0,236.0,238.0,237.0,229.0,233.0,237.0,239.0,238.0,230.0,235.0,242.0,236.0,237.0,229.0,236.0,241.0,237.0,237.0,228.0,236.0,242.0,240.0,239.0,232.0,237.0,243.0,238.0,236.0,233.0,246.0,250.0,249.0,256.0,259.0,257.0,239.0,226.0,221.0,220.0,238.0,255.0,243.0,242.0,227.0,233.0,230.0,216.0,220.0,219.0,231.0,226.0,219.0,226.0,229.0,238.0,244.0,233.0,237.0,231.0,232.0,237.0,228.0,234.0,239.0,234.0,236.0,226.0,228.0,232.0,237.0,239.0,226.0,229.0,230.0,232.0,231.0,225.0,231.0,239.0,230.0,230.0,228.0,237.0,242.0,237.0,236.0,237.0,248.0,253.0,249.0,245.0,239.0,249.0,253.0,256.0,256.0,246.0,258.0,260.0,260.0,254.0,253.0,258.0,262.0,258.0,252.0,250.0,256.0,262.0,258.0,252.0,248.0,259.0,254.0,256.0,254.0,258.0,266.0,259.0,262.0,257.0,262.0,269.0,274.0,272.0,267.0,273.0,285.0,274.0,276.0,276.0,280.0,281.0,272.0,280.0,280.0,289.0,298.0,284.0,289.0,290.0,292.0,301.0,290.0,295.0,283.0,294.0,300.0,293.0,300.0,297.0,306.0,310.0,295.0,300.0,296.0,299.0,303.0,295.0,303.0,296.0,306.0,315.0,298.0,296.0,304.0,302.0,304.0,299.0,297.0,290.0,297.0,298.0,286.0,291.0,291.0,294.0,296.0,288.0,288.0,296.0,291.0,297.0,289.0,294.0,298.0,295.0,302.0,291.0,296.0,302.0,296.0,300.0,297.0,300.0,307.0,297.0,310.0,300.0,306.0,308.0,302.0,304.0,302.0,300.0,305.0,299.0,301.0,294.0,296.0,304.0,292.0,294.0,287.0,290.0,293.0,284.0,291.0,286.0,290.0,295.0,285.0,286.0,282.0,286.0,288.0,280.0,279.0,275.0,281.0,280.0,271.0,271.0,276.0,276.0,278.0,270.0,268.0,270.0,274.0,273.0,266.0,265.0,266.0,270.0,269.0,264.0,261.0,266.0,267.0,265.0,260.0,258.0,262.0,264.0,264.0,258.0,255.0,260.0,262.0,263.0,257.0,252.0,260.0,260.0,258.0,255.0,256.0,258.0,259.0,256.0,252.0,249.0,256.0,255.0,250.0,250.0,246.0,254.0,252.0,247.0,246.0,250.0,251.0,246.0,244.0,244.0,247.0,249.0,246.0,240.0,241.0,246.0,249.0,243.0,239.0,240.0,242.0,246.0,244.0,238.0,240.0,241.0,246.0,243.0,237.0,239.0,242.0,244.0,240.0,235.0,237.0,242.0,241.0,239.0,232.0,239.0,244.0,240.0,238.0,231.0,239.0,243.0,240.0,238.0,230.0,239.0,242.0,240.0,239.0,230.0,241.0,244.0,237.0,237.0,236.0,239.0,243.0,234.0,235.0,230.0,239.0,242.0,232.0,236.0,230.0,240.0,241.0,236.0,237.0,232.0,240.0,241.0,235.0,235.0,232.0,239.0,243.0,234.0,235.0,234.0,237.0,241.0,234.0,234.0,235.0,239.0,238.0,228.0,234.0,234.0,237.0,238.0,227.0,233.0,235.0,236.0,236.0,228.0,231.0,235.0,235.0,237.0,226.0,232.0,239.0,232.0,235.0,226.0,234.0,240.0,235.0,235.0,225.0,236.0,238.0,234.0,235.0,226.0,232.0,239.0,235.0,234.0,226.0,233.0,241.0,233.0,235.0,226.0,233.0,239.0,232.0,235.0,225.0,233.0,240.0,231.0,234.0,229.0,237.0,242.0,231.0,234.0,230.0,236.0,241.0,233.0,234.0,232.0,236.0,241.0,232.0,233.0,234.0,238.0,239.0,227.0,232.0,233.0,237.0,238.0,227.0,234.0,235.0,236.0,239.0,229.0,233.0,235.0,235.0,240.0,228.0,233.0,236.0,235.0,240.0,227.0,232.0,239.0,236.0,239.0,227.0,232.0,234.0,237.0,239.0,227.0,232.0,240.0,233.0,235.0,227.0,233.0,241.0,233.0,236.0,226.0,234.0,241.0,231.0,236.0,225.0,232.0,239.0,232.0,233.0,228.0,237.0,239.0,229.0,233.0,228.0,236.0,240.0,230.0,233.0,231.0,235.0,240.0,229.0,233.0,226.0,236.0,241.0,229.0,233.0,227.0,235.0,239.0,229.0,234.0,228.0,236.0,239.0,229.0,233.0,228.0,234.0,239.0,227.0,230.0,235.0,234.0,238.0,225.0,228.0,236.0,235.0,237.0,226.0,230.0,229.0,233.0,235.0,225.0,230.0,237.0,232.0,234.0,224.0,230.0,239.0,231.0,233.0,225.0,230.0,237.0,231.0,233.0,223.0,230.0,238.0,233.0,233.0,224.0,232.0,239.0,233.0,234.0,223.0,233.0,236.0,232.0,232.0,223.0,230.0,238.0,232.0,232.0,224.0,234.0,238.0,229.0,232.0,225.0,234.0,238.0,229.0,233.0,227.0,236.0,238.0,231.0,232.0,227.0,235.0,239.0,227.0,230.0,234.0,233.0,237.0,227.0,229.0,235.0,235.0,237.0,227.0,231.0,232.0,234.0,236.0,226.0,231.0,233.0,236.0,236.0,225.0,232.0,234.0,234.0,237.0,227.0,231.0,235.0,234.0,239.0,227.0,230.0,234.0,233.0,233.0,223.0,231.0,238.0,231.0,233.0,223.0,232.0,236.0,233.0,233.0,224.0,231.0,238.0,233.0,234.0,225.0,233.0,238.0,228.0,231.0,224.0,235.0,238.0,228.0,233.0,226.0,235.0,241.0,232.0,234.0,228.0,236.0,240.0,231.0,234.0,229.0,236.0,240.0,230.0,233.0,230.0,234.0,238.0,228.0,231.0,224.0,234.0,238.0,229.0,230.0,232.0,236.0,235.0,226.0,230.0,232.0,235.0,234.0,226.0,230.0,232.0,233.0,237.0,226.0,229.0,235.0,235.0,234.0,224.0,233.0,239.0,234.0,235.0,224.0,233.0,237.0,235.0,233.0,226.0,231.0,238.0,234.0,233.0,226.0,232.0,239.0,234.0,234.0,227.0,233.0,239.0,234.0,234.0,224.0,232.0,239.0,234.0,234.0,226.0,234.0,240.0,233.0,233.0,230.0,237.0,239.0,232.0,232.0,231.0,235.0,239.0,230.0,232.0,226.0,235.0,239.0,230.0,232.0,232.0,236.0,236.0,227.0,232.0,235.0,236.0,237.0,229.0,232.0,235.0,237.0,239.0,229.0,231.0,235.0,238.0,238.0,229.0,232.0,237.0,238.0,238.0,228.0,233.0,232.0,237.0,237.0,228.0,232.0,234.0,236.0,235.0,226.0,233.0,239.0,235.0,235.0,226.0,233.0,239.0,233.0,236.0,228.0,233.0,240.0,235.0,235.0,226.0,232.0,239.0,231.0,233.0,229.0,237.0,239.0,233.0,232.0,230.0,235.0,239.0,231.0,234.0,225.0,235.0,239.0,230.0,233.0,226.0,236.0,239.0,229.0,233.0,228.0,236.0,239.0,233.0,234.0,229.0,238.0,240.0,232.0,233.0,231.0,238.0,238.0,228.0,231.0,237.0,236.0,236.0,228.0,232.0,233.0,238.0,236.0,228.0,232.0,233.0,237.0,236.0,226.0,232.0,239.0,234.0,235.0,227.0,233.0,238.0,234.0,235.0,226.0,232.0,239.0,234.0,233.0,224.0,232.0,236.0,235.0,234.0,225.0,234.0,238.0,234.0,233.0,226.0,231.0,238.0,233.0,234.0,226.0,233.0,238.0,233.0,233.0,226.0,236.0,240.0,230.0,233.0,228.0,237.0,239.0,232.0,234.0,228.0,237.0,239.0,231.0,233.0,230.0,236.0,238.0,229.0,231.0,236.0,237.0,237.0,227.0,231.0,232.0,237.0,236.0,228.0,232.0,232.0,237.0,236.0,230.0,233.0,235.0,237.0,236.0,230.0,232.0,235.0,236.0,238.0,229.0,231.0,237.0,237.0,237.0,228.0,231.0,236.0,235.0,234.0,226.0,234.0,238.0,235.0,234.0,226.0
