211.0,211.0,215.0,215.0,212.0,212.0,213.0,217.0,219.0,211.0,213.0,212.0,216.0,217.0,211.0,211.0,214.0,218.0,217.0,210.0,212.0,211.0,217.0,219.0,210.0,214.0,213.0,218.0,216.0,211.0,213.0,214.0,218.0,217.0,213.0,214.0,216.0,218.0,219.0,213.0,213.0,217.0,219.0,217.0,211.0,215.0,221.0,218.0,219.0,212.0,217.0,219.0,218.0,217.0,211.0,215.0,220.0,219.0,217.0,211.0,217.0,222.0,215.0,215.0,211.0,218.0,221.0,215.0,216.0,210.0,217.0,219.0,215.0,214.0,211.0,216.0,219.0,213.0,214.0,211.0,218.0,218.0,213.0,214.0,212.0,215.0,220.0,213.0,213.0,208.0,215.0,219.0,212.0,214.0,215.0,217.0,218.0,209.0,213.0,215.0,216.0,216.0,210.0,213.0,216.0,217.0,220.0,210.0,213.0,217.0,216.0,215.0,208.0,214.0,219.0,215.0,215.0,207.0,215.0,218.0,215.0,215.0,205.0,210.0,216.0,212.0,212.0,205.0,209.0,217.0,211.0,213.0,204.0,211.0,215.0,207.0,212.0,204.0,213.0,219.0,214.0,219.0,210.0,218.0,226.0,215.0,216.0,216.0,218.0,222.0,213.0,216.0,221.0,222.0,226.0,217.0,223.0,217.0,222.0,223.0,214.0,216.0,219.0,221.0,222.0,214.0,222.0,227.0,225.0,231.0,233.0,237.0,238.0,230.0,235.0,229.0,239.0,242.0,236.0,237.0,229.0,236.0,239.0,234.0,233.0,224.0,227.0,228.0,228.0,229.0,221.0,228.0,233.0,228.0,228.0,220.0,228.0,237.0,231.0,230.0,219.0,227.0,231.0,222.0,225.0,215.0,224.0,236.0,229.0,231.0,223.0,227.0,236.0,225.0,228.0,227.0,230.0,236.0,223.0,227.0,227.0,228.0,233.0,224.0,226.0,224.0,231.0,236.0,224.0,229.0,227.0,233.0,235.0,228.0,232.0,234.0,238.0,235.0,227.0,229.0,230.0,234.0,237.0,227.0,227.0,230.0,232.0,230.0,221.0,225.0,232.0,229.0,227.0,217.0,222.0,229.0,227.0,228.0,219.0,222.0,226.0,225.0,224.0,215.0,223.0,232.0,224.0,225.0,218.0,226.0,231.0,223.0,225.0,216.0,224.0,232.0,228.0,230.0,225.0,232.0,235.0,229.0,230.0,223.0,232.0,235.0,229.0,229.0,223.0,229.0,236.0,229.0,228.0,223.0,231.0,234.0,227.0,230.0,230.0,235.0,235.0,226.0,228.0,229.0,233.0,234.0,227.0,230.0,232.0,233.0,237.0,227.0,232.0,234.0,234.0,233.0,224.0,228.0,235.0,233.0,233.0,225.0,231.0,236.0,234.0,233.0,223.0,227.0,233.0,231.0,230.0,222.0,226.0,233.0,232.0,234.0,226.0,230.0,237.0,233.0,233.0,223.0,230.0,234.0,231.0,230.0,220.0,225.0,233.0,225.0,224.0,223.0,229.0,232.0,226.0,226.0,224.0,228.0,233.0,226.0,225.0,220.0,232.0,238.0,226.0,227.0,226.0,231.0,228.0,221.0,224.0,227.0,229.0,227.0,222.0,221.0,226.0,227.0,228.0,221.0,222.0,225.0,225.0,223.0,218.0,218.0,222.0,223.0,220.0,214.0,216.0,218.0,221.0,220.0,213.0,216.0,218.0,221.0,219.0,214.0,216.0,222.0,218.0,219.0,213.0,219.0,222.0,217.0,217.0,210.0,216.0,220.0,218.0,217.0,210.0,217.0,222.0,216.0,217.0,214.0,218.0,221.0,215.0,216.0,216.0,220.0,220.0,214.0,214.0,211.0,218.0,219.0,211.0,213.0,210.0,218.0,217.0,210.0,212.0,210.0,216.0,217.0,211.0,212.0,212.0,215.0,217.0,211.0,213.0,212.0,216.0,214.0,209.0,211.0,217.0,216.0,216.0,208.0,211.0,215.0,216.0,215.0,208.0,212.0,215.0,216.0,214.0,208.0,213.0,218.0,212.0,212.0,207.0,213.0,217.0,212.0,214.0,207.0,214.0,218.0,213.0,213.0,207.0,215.0,217.0,213.0,212.0,207.0,216.0,218.0,213.0,212.0,208.0,212.0,217.0,214.0,212.0,206.0,213.0,219.0,213.0,214.0,210.0,217.0,217.0,209.0,211.0,211.0,216.0,215.0,211.0,212.0,212.0,214.0,217.0,209.0,210.0,212.0,215.0,213.0,207.0,210.0,217.0,214.0,214.0,206.0,212.0,215.0,215.0,214.0,208.0,212.0,217.0,217.0,214.0,208.0,211.0,216.0,213.0,213.0,207.0,210.0,217.0,213.0,214.0,206.0,212.0,218.0,215.0,214.0,207.0,212.0,217.0,212.0,214.0,209.0,216.0,218.0,212.0,213.0,209.0,213.0,218.0,211.0,212.0,207.0,213.0,218.0,211.0,212.0,212.0,216.0,216.0,208.0,212.0,212.0,215.0,214.0,209.0,210.0,212.0,214.0,216.0,207.0,211.0,213.0,214.0,216.0,208.0,210.0,215.0,215.0,215.0,207.0,210.0,211.0,213.0,216.0,206.0,210.0,211.0,213.0,213.0,207.0,210.0,216.0,213.0,212.0,207.0,212.0,218.0,214.0,215.0,207.0,213.0,218.0,216.0,214.0,207.0,213.0,218.0,212.0,212.0,208.0,214.0,217.0,210.0,212.0,209.0,214.0,218.0,210.0,211.0,206.0,215.0,217.0,209.0,211.0,206.0,214.0,217.0,209.0,212.0,208.0,215.0,217.0,211.0,212.0,211.0,215.0,217.0,211.0,211.0,210.0,216.0,215.0,208.0,211.0,216.0,214.0,215.0,208.0,210.0,213.0,215.0,214.0,205.0,211.0,212.0,214.0,213.0,205.0,210.0,218.0,213.0,213.0,208.0,214.0,219.0,213.0,216.0,207.0,215.0,219.0,215.0,214.0,207.0,214.0,217.0,214.0,214.0,207.0,215.0,217.0,213.0,213.0,208.0,212.0,217.0,213.0,212.0,207.0,212.0,218.0,212.0,214.0,209.0,216.0,217.0,210.0,212.0,211.0,217.0,217.0,211.0,212.0,212.0,216.0,219.0,211.0,212.0,213.0,216.0,216.0,209.0,212.0,219.0,217.0,217.0,208.0,212.0,216.0,214.0,214.0,206.0,210.0,215.0,216.0,213.0,209.0,211.0,216.0,214.0,213.0,209.0,210.0,217.0,214.0,215.0,207.0,212.0,217.0,216.0,215.0,208.0,212.0,219.0,214.0,213.0,208.0,215.0,218.0,213.0,214.0,209.0,213.0,219.0,213.0,213.0,208.0,214.0,219.0,212.0,213.0,211.0,217.0,217.0,209.0,213.0,212.0,217.0,216.0,212.0,212.0,213.0,216.0,219.0,210.0,212.0,214.0,216.0,218.0,210.0,211.0,215.0,216.0,217.0,210.0,211.0,211.0,216.0,217.0,210.0,213.0,213.0,217.0,217.0,210.0,213.0,219.0,215.0,215.0,209.0,213.0,219.0,214.0,216.0,207.0,212.0,217.0,217.0,214.0,208.0,214.0,219.0,213.0,213.0,209.0,216.0,218.0,211.0,213.0,209.0,215.0,218.0,211.0,212.0,207.0,214.0,219.0,212.0,214.0,208.0,215.0,218.0,211.0,214.0,208.0,216.0,218.0,214.0,213.0,212.0,217.0,220.0,213.0,214.0,211.0,217.0,217.0,209.0,211.0,216.0,216.0,217.0,210.0,212.0,214.0,217.0,217.0,209.0,214.0,214.0,216.0,215.0,206.0,211.0,218.0,213.0,213.0,206.0,211.0,217.0,211.0,214.0,206.0,213.0,218.0,214.0,213.0,206.0,212.0,216.0,213.0,214.0,207.0,216.0,218.0,214.0,214.0,207.0,212.0,217.0,214.0,213.0,206.0,213.0,218.0,212.0,213.0,208.0,214.0,218.0,208.0,212.0,209.0,215.0,215.0,210.0,211.0,210.0,215.0,219.0,210.0,211.0,211.0,215.0,215.0,206.0,209.0,215.0,214.0,214.0,206.0,209.0,214.0,214.0,215.0,206.0,211.0,214.0,214.0,214.0,208.0,211.0,216.0,215.0,215.0,209.0,210.0,216.0,213.0,215.0,205.0,210.0,216.0,214.0,214.0,207.0,210.0,218.0,213.0,213.0,207.0,213.0,217.0,211.0,213.0,206.0,211.0,217.0,210.0,212.0,206.0,212.0,217.0,211.0,212.0,210.0,216.0,217.0,208.0,212.0,211.0,214.0,215.0,210.0,211.0,211.0,214.0,217.0,209.0,212.0,214.0,215.0,218.0,209.0,211.0,213.0,215.0
251.0,251.0,260.0,253.0,255.0,255.0,257.0,266.0,258.0,261.0,260.0,264.0,266.0,262.0,256.0,256.0,258.0,264.0,259.0,253.0,255.0,254.0,262.0,256.0,251.0,253.0,254.0,260.0,255.0,251.0,254.0,255.0,262.0,255.0,252.0,253.0,256.0,261.0,257.0,253.0,254.0,257.0,260.0,255.0,249.0,259.0,262.0,261.0,257.0,251.0,260.0,261.0,263.0,258.0,253.0,258.0,266.0,265.0,260.0,254.0,264.0,264.0,257.0,257.0,252.0,262.0,260.0,251.0,254.0,248.0,257.0,259.0,253.0,253.0,250.0,257.0,257.0,251.0,250.0,248.0,256.0,257.0,249.0,252.0,252.0,257.0,261.0,251.0,256.0,248.0,258.0,259.0,248.0,253.0,255.0,257.0,256.0,248.0,254.0,257.0,258.0,255.0,248.0,252.0,259.0,256.0,264.0,252.0,257.0,263.0,258.0,256.0,249.0,259.0,263.0,259.0,259.0,250.0,261.0,262.0,257.0,256.0,248.0,254.0,261.0,255.0,255.0,248.0,256.0,260.0,256.0,255.0,246.0,257.0,257.0,248.0,252.0,247.0,258.0,262.0,258.0,262.0,253.0,263.0,266.0,257.0,257.0,257.0,261.0,261.0,253.0,257.0,265.0,266.0,270.0,257.0,263.0,256.0,263.0,261.0,252.0,258.0,261.0,263.0,264.0,256.0,263.0,270.0,267.0,268.0,271.0,276.0,278.0,274.0,273.0,273.0,281.0,284.0,278.0,276.0,268.0,280.0,283.0,279.0,272.0,265.0,269.0,272.0,270.0,269.0,261.0,267.0,275.0,272.0,270.0,262.0,274.0,279.0,276.0,270.0,263.0,274.0,272.0,270.0,272.0,263.0,273.0,280.0,275.0,272.0,266.0,276.0,280.0,271.0,269.0,271.0,275.0,274.0,267.0,268.0,269.0,270.0,272.0,262.0,268.0,265.0,275.0,275.0,267.0,273.0,271.0,274.0,272.0,263.0,267.0,271.0,276.0,271.0,264.0,269.0,269.0,276.0,277.0,267.0,270.0,274.0,274.0,272.0,264.0,271.0,278.0,274.0,272.0,262.0,269.0,276.0,272.0,269.0,261.0,266.0,272.0,269.0,266.0,256.0,267.0,274.0,266.0,265.0,260.0,270.0,271.0,262.0,266.0,256.0,268.0,272.0,264.0,266.0,258.0,269.0,271.0,269.0,268.0,262.0,273.0,273.0,269.0,269.0,264.0,270.0,277.0,267.0,268.0,262.0,272.0,274.0,266.0,268.0,269.0,273.0,274.0,264.0,269.0,268.0,275.0,270.0,268.0,268.0,270.0,275.0,273.0,266.0,268.0,274.0,274.0,271.0,263.0,269.0,272.0,274.0,269.0,262.0,271.0,272.0,275.0,269.0,264.0,269.0,275.0,278.0,273.0,272.0,276.0,280.0,284.0,277.0,274.0,279.0,283.0,282.0,278.0,269.0,276.0,278.0,280.0,274.0,269.0,279.0,280.0,278.0,273.0,274.0,282.0,279.0,277.0,275.0,276.0,282.0,281.0,272.0,271.0,266.0,284.0,283.0,275.0,272.0,272.0,279.0,271.0,267.0,271.0,274.0,281.0,272.0,272.0,271.0,275.0,279.0,270.0,270.0,271.0,276.0,279.0,270.0,268.0,268.0,271.0,274.0,268.0,261.0,264.0,266.0,269.0,260.0,260.0,262.0,268.0,271.0,263.0,259.0,264.0,268.0,269.0,264.0,259.0,268.0,269.0,268.0,264.0,262.0,270.0,269.0,271.0,265.0,260.0,271.0,269.0,267.0,264.0,264.0,271.0,266.0,265.0,265.0,265.0,271.0,266.0,264.0,264.0,260.0,271.0,264.0,262.0,261.0,261.0,270.0,261.0,257.0,257.0,255.0,264.0,258.0,256.0,257.0,258.0,265.0,261.0,260.0,258.0,260.0,266.0,258.0,256.0,259.0,263.0,264.0,257.0,254.0,260.0,260.0,265.0,258.0,257.0,259.0,264.0,268.0,262.0,257.0,266.0,267.0,261.0,258.0,252.0,260.0,259.0,259.0,257.0,250.0,262.0,261.0,260.0,255.0,249.0,261.0,260.0,260.0,256.0,252.0,262.0,261.0,258.0,255.0,252.0,258.0,261.0,255.0,255.0,245.0,256.0,259.0,252.0,252.0,250.0,257.0,255.0,247.0,252.0,253.0,258.0,254.0,251.0,252.0,253.0,256.0,255.0,250.0,251.0,255.0,257.0,254.0,245.0,251.0,256.0,257.0,252.0,244.0,252.0,256.0,255.0,254.0,247.0,252.0,258.0,255.0,253.0,247.0,252.0,256.0,254.0,251.0,247.0,251.0,257.0,252.0,251.0,245.0,251.0,257.0,254.0,253.0,245.0,254.0,258.0,254.0,254.0,250.0,258.0,258.0,253.0,253.0,250.0,256.0,260.0,254.0,255.0,248.0,259.0,259.0,253.0,253.0,254.0,259.0,259.0,251.0,256.0,256.0,257.0,255.0,249.0,252.0,253.0,256.0,254.0,246.0,250.0,257.0,256.0,259.0,248.0,253.0,259.0,259.0,260.0,249.0,253.0,253.0,256.0,256.0,247.0,251.0,255.0,255.0,256.0,248.0,253.0,258.0,255.0,254.0,246.0,253.0,259.0,251.0,255.0,246.0,254.0,258.0,256.0,255.0,245.0,255.0,257.0,252.0,252.0,251.0,257.0,258.0,251.0,252.0,252.0,258.0,259.0,249.0,252.0,246.0,257.0,257.0,248.0,250.0,248.0,254.0,256.0,245.0,251.0,247.0,256.0,253.0,252.0,252.0,251.0,258.0,257.0,250.0,252.0,250.0,256.0,253.0,245.0,250.0,256.0,254.0,250.0,242.0,248.0,252.0,255.0,253.0,244.0,249.0,254.0,255.0,253.0,243.0,253.0,259.0,254.0,254.0,248.0,257.0,262.0,255.0,256.0,249.0,259.0,262.0,256.0,255.0,247.0,257.0,260.0,255.0,255.0,246.0,257.0,259.0,253.0,253.0,248.0,252.0,256.0,251.0,252.0,243.0,254.0,258.0,250.0,253.0,252.0,260.0,259.0,250.0,254.0,252.0,257.0,257.0,251.0,255.0,253.0,259.0,259.0,251.0,254.0,257.0,259.0,257.0,250.0,257.0,263.0,260.0,257.0,248.0,255.0,257.0,260.0,254.0,249.0,254.0,259.0,259.0,255.0,250.0,255.0,259.0,256.0,253.0,247.0,252.0,258.0,256.0,256.0,247.0,253.0,259.0,259.0,254.0,248.0,255.0,260.0,257.0,255.0,250.0,262.0,262.0,258.0,255.0,253.0,259.0,260.0,258.0,256.0,250.0,260.0,260.0,256.0,254.0,253.0,260.0,257.0,251.0,256.0,256.0,261.0,257.0,253.0,254.0,254.0,260.0,257.0,251.0,251.0,255.0,260.0,259.0,250.0,254.0,258.0,262.0,257.0,252.0,256.0,256.0,262.0,258.0,253.0,256.0,257.0,262.0,256.0,251.0,255.0,261.0,259.0,257.0,249.0,256.0,262.0,256.0,257.0,249.0,256.0,261.0,258.0,256.0,247.0,256.0,261.0,253.0,254.0,250.0,260.0,260.0,254.0,254.0,250.0,255.0,256.0,250.0,252.0,246.0,256.0,257.0,252.0,253.0,248.0,259.0,258.0,252.0,258.0,253.0,261.0,260.0,256.0,256.0,253.0,262.0,262.0,256.0,256.0,253.0,261.0,258.0,252.0,256.0,261.0,262.0,258.0,252.0,257.0,257.0,265.0,256.0,252.0,256.0,260.0,261.0,258.0,248.0,254.0,258.0,256.0,253.0,247.0,255.0,260.0,257.0,256.0,247.0,257.0,261.0,258.0,253.0,248.0,257.0,258.0,260.0,255.0,249.0,263.0,261.0,261.0,257.0,251.0,256.0,260.0,259.0,256.0,251.0,259.0,260.0,257.0,256.0,251.0,261.0,258.0,253.0,256.0,253.0,261.0,256.0,254.0,256.0,255.0,263.0,262.0,255.0,255.0,257.0,263.0,258.0,250.0,254.0,260.0,260.0,257.0,248.0,255.0,258.0,262.0,255.0,253.0,256.0,258.0,260.0,255.0,252.0,255.0,261.0,262.0,257.0,254.0,255.0,260.0,260.0,256.0,250.0,255.0,261.0,260.0,258.0,250.0,255.0,261.0,255.0,255.0,249.0,260.0,260.0,256.0,254.0,252.0,258.0,262.0,258.0,256.0,251.0,260.0,261.0,257.0,256.0,256.0,264.0,261.0,252.0,256.0,256.0,260.0,256.0,251.0,253.0,254.0,262.0,257.0,253.0,255.0,257.0,261.0,259.0,252.0,254.0,256.0,259.0
3.0,4.0,4.0,5.0,4.0,4.0,3.0,3.0,4.0,4.0,5.0,2.0,4.0,3.0,4.0,3.0,4.0,4.0,4.0,4.0,4.0,4.0,3.0,4.0,3.0,4.0,3.0,4.0,4.0,5.0,4.0,3.0,3.0,3.0,4.0,5.0,4.0,3.0,4.0,3.0,4.0,4.0,4.0,4.0,4.0,3.0,4.0,3.0,5.0,4.0,3.0,4.0,3.0,5.0,4.0,4.0,4.0,4.0,3.0,4.0,4.0,5.0,3.0,4.0,3.0,3.0,4.0,5.0,4.0,4.0,3.0,3.0,4.0,4.0,4.0,4.0,4.0,3.0,4.0,4.0,4.0,4.0,4.0,3.0,4.0,4.0,4.0,4.0,3.0,4.0,3.0,4.0,3.0,5.0,4.0,4.0,3.0,4.0,3.0,4.0,3.0,4.0,4.0,4.0,4.0,5.0,4.0,4.0,4.0,3.0,4.0,4.0,5.0,2.0,4.0,3.0,4.0,3.0,5.0,4.0,4.0,3.0,3.0,4.0,4.0,4.0,4.0,4.0,3.0,4.0,4.0,5.0,4.0,4.0,4.0,3.0,4.0,4.0,4.0,3.0,4.0,3.0,4.0,4.0,5.0,3.0,4.0,3.0,4.0,4.0,4.0,4.0,4.0,4.0,4.0,4.0,4.0,4.0,4.0,4.0,3.0,3.0,4.0,5.0,4.0,4.0,3.0,4.0,4.0,5.0,4.0,4.0,4.0,3.0,4.0,3.0,4.0,3.0,4.0,3.0,4.0,3.0,4.0,4.0,4.0,3.0,4.0,4.0,4.0,4.0,3.0,4.0,3.0,3.0,4.0,4.0,2.0,4.0,3.0,4.0,4.0,4.0,4.0,4.0,3.0,3.0,4.0,3.0,4.0,4.0,4.0,3.0,4.0,3.0,5.0,3.0,4.0,3.0,4.0,3.0,4.0,4.0,4.0,4.0,3.0,4.0,4.0,5.0,3.0,4.0,3.0,4.0,4.0,5.0,4.0,4.0,3.0,3.0,3.0,4.0,4.0,4.0,4.0,3.0,4.0,3.0,4.0,4.0,4.0,3.0,3.0,4.0,4.0,4.0,4.0,4.0,3.0,4.0,4.0,4.0,4.0,3.0,3.0,4.0,3.0,5.0,4.0,4.0,4.0,4.0,4.0,5.0,4.0,4.0,3.0,3.0,4.0,4.0,4.0,4.0,4.0,3.0,4.0,4.0,5.0,4.0,4.0,3.0,3.0,4.0,4.0,4.0,4.0,4.0,3.0,3.0,4.0,5.0,4.0,3.0,3.0,4.0,3.0,4.0,3.0,4.0,3.0,3.0,4.0,4.0,4.0,3.0,4.0,3.0,3.0,3.0,4.0,4.0,4.0,4.0,3.0,4.0,4.0,4.0,4.0,4.0,3.0,4.0,4.0,4.0,4.0,3.0,3.0,4.0,4.0,4.0,4.0,3.0,3.0,4.0,4.0,4.0,4.0,4.0,4.0,3.0,4.0,4.0,5.0,2.0,4.0,3.0,4.0,4.0,5.0,4.0,4.0,4.0,3.0,4.0,4.0,5.0,3.0,4.0,3.0,4.0,4.0,5.0,4.0,4.0,3.0,3.0,3.0,3.0,4.0,4.0,4.0,3.0,4.0,3.0,4.0,4.0,3.0,3.0,4.0,4.0,5.0,4.0,3.0,3.0,3.0,4.0,4.0,4.0,4.0,4.0,3.0,4.0,4.0,5.0,4.0,4.0,3.0,4.0,4.0,5.0,4.0,4.0,4.0,3.0,4.0,4.0,5.0,4.0,4.0,3.0,3.0,3.0,5.0,3.0,4.0,4.0,3.0,3.0,5.0,4.0,4.0,4.0,3.0,4.0,4.0,4.0,3.0,4.0,3.0,3.0,4.0,4.0,4.0,4.0,4.0,3.0,4.0,4.0,4.0,4.0,3.0,3.0,4.0,3.0,4.0,3.0,3.0,3.0,4.0,4.0,5.0,4.0,4.0,4.0,3.0,4.0,3.0,5.0,4.0,4.0,3.0,4.0,4.0,5.0,3.0,4.0,4.0,3.0,3.0,5.0,3.0,4.0,4.0,3.0,4.0,4.0,5.0,4.0,4.0,3.0,3.0,3.0,5.0,4.0,4.0,4.0,3.0,4.0,4.0,4.0,4.0,4.0,3.0,4.0,4.0,4.0,4.0,4.0,3.0,4.0,4.0,4.0,4.0,4.0,3.0,3.0,4.0,4.0,4.0,3.0,4.0,3.0,4.0,4.0,5.0,4.0,4.0,3.0,3.0,4.0,4.0,4.0,4.0,4.0,3.0,4.0,4.0,5.0,3.0,4.0,3.0,4.0,4.0,5.0,4.0,4.0,4.0,3.0,4.0,4.0,4.0,4.0,4.0,3.0,4.0,4.0,5.0,3.0,5.0,3.0,3.0,4.0,4.0,4.0,4.0,4.0,3.0,4.0,4.0,5.0,4.0,4.0,3.0,4.0,4.0,5.0,4.0,4.0,3.0,4.0,3.0,4.0,4.0,3.0,4.0,3.0,4.0,4.0,5.0,4.0,3.0,3.0,3.0,4.0,4.0,4.0,3.0,3.0,3.0,3.0,4.0,4.0,3.0,4.0,3.0,4.0,3.0,5.0,3.0,4.0,3.0,4.0,4.0,3.0,4.0,4.0,4.0,4.0,4.0,4.0,4.0,3.0,4.0,3.0,4.0,3.0,5.0,4.0,3.0,3.0,3.0,4.0,4.0,4.0,3.0,4.0,3.0,4.0,4.0,4.0,4.0,3.0,3.0,4.0,4.0,5.0,3.0,4.0,4.0,4.0,4.0,4.0,4.0,4.0,4.0,3.0,4.0,4.0,5.0,4.0,4.0,3.0,4.0,4.0,5.0,4.0,4.0,4.0,3.0,4.0,4.0,5.0,4.0,3.0,3.0,4.0,4.0,5.0,4.0,3.0,3.0,4.0,3.0,4.0,4.0,4.0,3.0,3.0,4.0,4.0,5.0,3.0,4.0,3.0,4.0,4.0,4.0,4.0,3.0,4.0,3.0,4.0,4.0,5.0,3.0,4.0,3.0,4.0,3.0,5.0,4.0,4.0,3.0,4.0,4.0,4.0,4.0,4.0,3.0,3.0,4.0,3.0,5.0,4.0,4.0,3.0,3.0,3.0,4.0,4.0,4.0,3.0,3.0,4.0,4.0,4.0,2.0,4.0,3.0,4.0,4.0,5.0,3.0,4.0,3.0,4.0,3.0,4.0,4.0,4.0,4.0,3.0,4.0,3.0,4.0,4.0,4.0,4.0,4.0,3.0,5.0,3.0,3.0,4.0,3.0,4.0,4.0,4.0,4.0,4.0,3.0,4.0,4.0,5.0,4.0,4.0,3.0,3.0,4.0,4.0,4.0,3.0,4.0,3.0,4.0,4.0,4.0,4.0,4.0,3.0,4.0,4.0,5.0,4.0,4.0,4.0,4.0,3.0,4.0,4.0,4.0,4.0,3.0,4.0,4.0,4.0,3.0,3.0,3.0,3.0,3.0,4.0,4.0,3.0,3.0,3.0,3.0,4.0,4.0,4.0,4.0,3.0,4.0,4.0,5.0,4.0,4.0,3.0,4.0,4.0,5.0,4.0,3.0,4.0,3.0,4.0,4.0,4.0,3.0,4.0,3.0,4.0,4.0,5.0,4.0,4.0,3.0,3.0,4.0,4.0,4.0,3.0,4.0,3.0,4.0,4.0,5.0,4.0,4.0,3.0,4.0,4.0,4.0,3.0,4.0,3.0,4.0,4.0,4.0,4.0,3.0,3.0,3.0,4.0,4.0,5.0,4.0,4.0,3.0,4.0,4.0,4.0,4.0,4.0,3.0,3.0,4.0,4.0,4.0,4.0,4.0,3.0,4.0,3.0,4.0,4.0,4.0,3.0,4.0,4.0,4.0,4.0,4.0,4.0,3.0,4.0,4.0,5.0,4.0,4.0,3.0,3.0,3.0,5.0,4.0,4.0,4.0,3.0,4.0,4.0,4.0,4.0,4.0,3.0,4.0,4.0,5.0,3.0,4.0,3.0,3.0,3.0,4.0,4.0,3.0,3.0,3.0,4.0,4.0,5.0,2.0,4.0,3.0,3.0,4.0,5.0,4.0,4.0,3.0,3.0,4.0,4.0,4.0,4.0,4.0,3.0,4.0,3.0,4.0,2.0,4.0,3.0,3.0,4.0,5.0,4.0,4.0,4.0,4.0,4.0,4.0,4.0,3.0,4.0,3.0,4.0,3.0,5.0,4.0,4.0,3.0,4.0,4.0,4.0,4.0,3.0,4.0,3.0,4.0,4.0,4.0,4.0,4.0,3.0,4.0,3.0,4.0,3.0,3.0,4.0,3.0,4.0,4.0,4.0
235.0,236.0,240.0,238.0,234.0,235.0,239.0,243.0,242.0,235.0,237.0,244.0,245.0,247.0,237.0,237.0,242.0,243.0,241.0,234.0,236.0,236.0,242.0,238.0,232.0,236.0,238.0,242.0,238.0,230.0,235.0,238.0,242.0,239.0,235.0,237.0,241.0,243.0,243.0,235.0,237.0,241.0,241.0,237.0,228.0,237.0,240.0,239.0,238.0,234.0,241.0,245.0,241.0,240.0,234.0,239.0,244.0,241.0,240.0,231.0,242.0,242.0,234.0,236.0,231.0,240.0,242.0,236.0,238.0,234.0,243.0,242.0,238.0,237.0,234.0,242.0,243.0,238.0,236.0,236.0,243.0,244.0,239.0,239.0,240.0,243.0,245.0,239.0,241.0,236.0,244.0,244.0,238.0,237.0,240.0,243.0,243.0,234.0,238.0,242.0,243.0,239.0,237.0,238.0,244.0,243.0,242.0,235.0,237.0,242.0,240.0,238.0,230.0,242.0,244.0,243.0,238.0,233.0,242.0,243.0,240.0,238.0,232.0,238.0,246.0,241.0,241.0,234.0,241.0,246.0,241.0,239.0,230.0,241.0,246.0,237.0,237.0,229.0,239.0,244.0,240.0,241.0,231.0,243.0,246.0,239.0,241.0,241.0,243.0,244.0,235.0,233.0,238.0,242.0,246.0,238.0,237.0,234.0,241.0,239.0,233.0,232.0,236.0,239.0,238.0,231.0,239.0,248.0,247.0,247.0,244.0,246.0,254.0,248.0,249.0,245.0,250.0,255.0,250.0,247.0,240.0,244.0,248.0,247.0,245.0,239.0,246.0,244.0,245.0,244.0,234.0,239.0,249.0,249.0,247.0,240.0,257.0,264.0,259.0,260.0,249.0,259.0,257.0,246.0,250.0,238.0,249.0,254.0,247.0,246.0,241.0,257.0,266.0,256.0,253.0,252.0,250.0,252.0,240.0,241.0,247.0,248.0,252.0,242.0,245.0,243.0,252.0,251.0,240.0,243.0,243.0,249.0,247.0,237.0,240.0,244.0,249.0,249.0,238.0,240.0,243.0,244.0,246.0,242.0,242.0,247.0,247.0,246.0,238.0,246.0,258.0,254.0,251.0,244.0,253.0,259.0,253.0,250.0,240.0,244.0,251.0,249.0,249.0,238.0,248.0,254.0,245.0,243.0,238.0,246.0,249.0,240.0,243.0,239.0,248.0,252.0,247.0,247.0,239.0,246.0,247.0,241.0,242.0,239.0,248.0,251.0,244.0,244.0,242.0,248.0,251.0,244.0,246.0,241.0,252.0,252.0,244.0,247.0,250.0,252.0,251.0,240.0,245.0,250.0,253.0,249.0,243.0,244.0,247.0,247.0,247.0,238.0,241.0,248.0,247.0,244.0,233.0,241.0,246.0,246.0,244.0,236.0,244.0,247.0,245.0,243.0,234.0,238.0,248.0,244.0,245.0,237.0,244.0,248.0,246.0,246.0,238.0,247.0,252.0,245.0,245.0,236.0,244.0,248.0,245.0,243.0,234.0,244.0,248.0,239.0,236.0,236.0,244.0,245.0,237.0,236.0,236.0,243.0,247.0,240.0,235.0,229.0,245.0,249.0,236.0,237.0,241.0,245.0,238.0,230.0,239.0,243.0,245.0,244.0,239.0,241.0,248.0,244.0,243.0,237.0,237.0,244.0,244.0,246.0,236.0,238.0,244.0,241.0,239.0,231.0,234.0,236.0,238.0,237.0,228.0,235.0,239.0,239.0,238.0,227.0,235.0,240.0,237.0,236.0,231.0,240.0,242.0,233.0,237.0,228.0,237.0,240.0,237.0,238.0,227.0,239.0,242.0,233.0,234.0,234.0,238.0,238.0,229.0,234.0,235.0,238.0,242.0,232.0,235.0,231.0,240.0,241.0,232.0,234.0,232.0,238.0,239.0,229.0,232.0,231.0,237.0,236.0,229.0,231.0,232.0,237.0,239.0,230.0,234.0,235.0,237.0,238.0,228.0,232.0,238.0,236.0,235.0,226.0,232.0,236.0,236.0,235.0,227.0,231.0,237.0,236.0,236.0,228.0,237.0,239.0,232.0,233.0,227.0,234.0,240.0,233.0,235.0,228.0,238.0,240.0,234.0,233.0,228.0,239.0,241.0,235.0,235.0,232.0,240.0,242.0,237.0,239.0,235.0,239.0,242.0,235.0,236.0,229.0,239.0,243.0,235.0,235.0,235.0,240.0,239.0,231.0,235.0,237.0,239.0,237.0,233.0,233.0,237.0,239.0,240.0,232.0,233.0,237.0,239.0,236.0,227.0,235.0,240.0,239.0,235.0,229.0,237.0,240.0,239.0,237.0,230.0,234.0,243.0,237.0,235.0,229.0,236.0,241.0,238.0,237.0,231.0,236.0,243.0,237.0,237.0,230.0,239.0,244.0,241.0,239.0,231.0,240.0,244.0,241.0,243.0,240.0,245.0,246.0,239.0,239.0,237.0,241.0,244.0,237.0,237.0,232.0,240.0,242.0,237.0,237.0,240.0,241.0,239.0,231.0,236.0,236.0,239.0,236.0,232.0,232.0,237.0,238.0,237.0,233.0,235.0,240.0,241.0,240.0,232.0,236.0,241.0,241.0,239.0,232.0,234.0,238.0,241.0,239.0,232.0,235.0,239.0,238.0,236.0,229.0,236.0,241.0,238.0,235.0,230.0,239.0,245.0,239.0,239.0,232.0,239.0,243.0,241.0,240.0,231.0,239.0,241.0,235.0,236.0,235.0,240.0,241.0,234.0,236.0,236.0,239.0,240.0,233.0,234.0,231.0,241.0,241.0,234.0,236.0,233.0,240.0,241.0,232.0,232.0,230.0,238.0,237.0,231.0,233.0,233.0,238.0,239.0,232.0,232.0,234.0,238.0,237.0,230.0,236.0,239.0,238.0,237.0,228.0,233.0,237.0,240.0,236.0,228.0,233.0,239.0,239.0,239.0,231.0,238.0,242.0,237.0,236.0,232.0,240.0,244.0,239.0,239.0,231.0,241.0,243.0,239.0,237.0,229.0,240.0,241.0,241.0,238.0,233.0,242.0,246.0,240.0,239.0,233.0,238.0,242.0,237.0,237.0,230.0,240.0,245.0,238.0,237.0,236.0,242.0,241.0,234.0,237.0,238.0,242.0,240.0,237.0,236.0,237.0,241.0,242.0,236.0,236.0,240.0,242.0,240.0,233.0,237.0,244.0,243.0,240.0,233.0,240.0,243.0,244.0,240.0,234.0,237.0,244.0,243.0,241.0,237.0,241.0,245.0,243.0,241.0,235.0,238.0,245.0,241.0,240.0,233.0,239.0,245.0,242.0,239.0,232.0,241.0,244.0,239.0,238.0,236.0,242.0,244.0,239.0,239.0,237.0,241.0,245.0,238.0,238.0,234.0,243.0,244.0,240.0,239.0,239.0,244.0,241.0,234.0,238.0,239.0,244.0,240.0,238.0,239.0,241.0,244.0,244.0,238.0,239.0,243.0,246.0,244.0,238.0,238.0,243.0,245.0,241.0,235.0,239.0,239.0,245.0,241.0,234.0,238.0,243.0,245.0,242.0,235.0,239.0,245.0,242.0,240.0,235.0,241.0,246.0,242.0,239.0,234.0,240.0,245.0,243.0,241.0,233.0,243.0,245.0,240.0,239.0,237.0,244.0,245.0,239.0,238.0,236.0,241.0,243.0,237.0,239.0,234.0,244.0,245.0,239.0,237.0,235.0,241.0,242.0,235.0,237.0,233.0,242.0,243.0,240.0,238.0,238.0,245.0,245.0,242.0,240.0,240.0,246.0,243.0,236.0,241.0,245.0,244.0,241.0,237.0,240.0,243.0,246.0,242.0,236.0,239.0,242.0,243.0,239.0,232.0,239.0,243.0,239.0,237.0,233.0,240.0,246.0,242.0,242.0,235.0,245.0,247.0,244.0,241.0,235.0,244.0,246.0,244.0,241.0,234.0,245.0,246.0,242.0,239.0,237.0,242.0,248.0,243.0,242.0,236.0,244.0,246.0,241.0,240.0,238.0,246.0,244.0,237.0,238.0,238.0,244.0,242.0,240.0,240.0,240.0,246.0,245.0,239.0,239.0,244.0,246.0,243.0,237.0,241.0,248.0,247.0,244.0,237.0,241.0,243.0,246.0,243.0,237.0,240.0,245.0,244.0,241.0,236.0,239.0,244.0,242.0,240.0,235.0,237.0,243.0,241.0,240.0,234.0,239.0,245.0,244.0,241.0,234.0,239.0,245.0,240.0,238.0,236.0,244.0,244.0,239.0,238.0,237.0,240.0,244.0,237.0,238.0,233.0,242.0,243.0,238.0,237.0,239.0,245.0,243.0,237.0,239.0,240.0,241.0,238.0,235.0,235.0,237.0,241.0,241.0,235.0,237.0,242.0,244.0,244.0,237.0,238.0,241.0,242.0
