214.0,207.0,208.0,206.0,212.0,215.0,207.0,211.0,208.0,213.0,215.0,208.0,211.0,209.0,214.0,216.0,209.0,211.0,210.0,214.0,216.0,209.0,210.0,212.0,214.0,217.0,209.0,211.0,209.0,215.0,217.0,209.0,212.0,210.0,216.0,217.0,209.0,212.0,212.0,216.0,216.0,211.0,213.0,213.0,218.0,218.0,211.0,212.0,214.0,217.0,216.0,208.0,212.0,218.0,215.0,216.0,207.0,212.0,216.0,216.0,215.0,207.0,211.0,217.0,215.0,215.0,205.0,209.0,216.0,209.0,210.0,204.0,212.0,216.0,210.0,212.0,207.0,214.0,220.0,214.0,215.0,209.0,216.0,221.0,215.0,216.0,211.0,220.0,222.0,215.0,215.0,212.0,216.0,220.0,212.0,214.0,209.0,217.0,221.0,212.0,214.0,213.0,218.0,218.0,209.0,213.0,213.0,214.0,219.0,211.0,215.0,217.0,220.0,221.0,211.0,213.0,217.0,216.0,217.0,208.0,214.0,222.0,218.0,217.0,211.0,216.0,218.0,217.0,216.0,208.0,213.0,222.0,218.0,216.0,208.0,214.0,226.0,219.0,225.0,214.0,226.0,233.0,229.0,239.0,229.0,231.0,240.0,241.0,240.0,244.0,252.0,261.0,251.0,253.0,244.0,245.0,256.0,244.0,248.0,262.0,273.0,275.0,261.0,261.0,256.0,266.0,263.0,261.0,258.0,265.0,258.0,251.0,241.0,248.0,253.0,255.0,265.0,253.0,260.0,274.0,275.0,280.0,270.0,280.0,275.0,276.0,288.0,280.0,280.0,282.0,278.0,284.0,274.0,274.0,270.0,259.0,254.0,243.0,248.0,252.0,250.0,251.0,240.0,240.0,247.0,237.0,239.0,232.0,244.0,257.0,246.0,245.0,237.0,246.0,255.0,252.0,250.0,233.0,234.0,247.0,237.0,247.0,243.0,251.0,260.0,248.0,250.0,245.0,238.0,244.0,234.0,239.0,234.0,245.0,253.0,239.0,236.0,226.0,245.0,245.0,235.0,238.0,233.0,244.0,254.0,242.0,247.0,247.0,251.0,259.0,248.0,246.0,241.0,238.0,239.0,227.0,224.0,239.0,236.0,238.0,235.0,231.0,230.0,237.0,248.0,239.0,244.0,244.0,246.0,247.0,237.0,244.0,257.0,248.0,253.0,244.0,252.0,257.0,255.0,261.0,249.0,253.0,259.0,252.0,249.0,241.0,244.0,244.0,238.0,239.0,230.0,242.0,241.0,239.0,240.0,235.0,239.0,244.0,238.0,239.0,231.0,238.0,240.0,234.0,236.0,230.0,239.0,239.0,229.0,232.0,236.0,239.0,244.0,237.0,236.0,237.0,239.0,241.0,235.0,236.0,237.0,238.0,236.0,230.0,233.0,237.0,235.0,231.0,222.0,228.0,231.0,230.0,228.0,221.0,225.0,230.0,229.0,226.0,221.0,224.0,229.0,225.0,225.0,218.0,222.0,228.0,224.0,224.0,218.0,224.0,230.0,227.0,226.0,219.0,222.0,227.0,220.0,220.0,216.0,218.0,221.0,216.0,215.0,213.0,216.0,220.0,214.0,214.0,209.0,216.0,219.0,212.0,213.0,213.0,216.0,216.0,210.0,213.0,214.0,217.0,214.0,207.0,209.0,214.0,214.0,216.0,209.0,210.0,214.0,215.0,216.0,210.0,211.0,216.0,216.0,218.0,210.0,211.0,213.0,217.0,217.0,209.0,213.0,213.0,216.0,216.0,208.0,210.0,217.0,213.0,212.0,205.0,211.0,215.0,211.0,212.0,206.0,212.0,217.0,215.0,213.0,206.0,213.0,217.0,210.0,212.0,210.0,216.0,217.0,210.0,212.0,210.0,214.0,219.0,211.0,211.0,208.0,214.0,217.0,210.0,212.0,207.0,214.0,216.0,210.0,212.0,209.0,217.0,218.0,212.0,212.0,211.0,217.0,218.0,211.0,212.0,211.0,217.0,215.0,208.0,211.0,216.0,216.0,216.0,207.0,209.0,211.0,213.0,213.0,206.0,211.0,212.0,214.0,214.0,207.0,211.0,218.0,212.0,212.0,206.0,212.0,217.0,212.0,214.0,205.0,213.0,218.0,213.0,213.0,206.0,213.0,217.0,213.0,212.0,205.0,214.0,216.0,213.0,213.0,206.0,211.0,217.0,212.0,212.0,206.0,213.0,218.0,212.0,213.0,208.0,216.0,217.0,209.0,212.0,211.0,217.0,218.0,212.0,211.0,212.0,216.0,219.0,210.0,212.0,213.0,215.0,215.0,208.0,210.0,217.0,215.0,215.0,206.0,210.0,214.0,214.0,214.0,206.0,211.0,215.0,216.0,214.0,208.0,211.0,217.0,214.0,214.0,208.0,210.0,217.0,214.0,215.0,208.0,212.0,218.0,216.0,214.0,208.0,212.0,218.0,214.0,215.0,209.0,217.0,218.0,213.0,213.0,209.0,214.0,218.0,213.0,213.0,209.0,214.0,219.0,213.0,214.0,212.0,218.0,217.0,210.0,213.0,214.0,218.0,217.0,212.0,212.0,214.0,217.0,218.0,211.0,213.0,214.0,216.0,218.0,211.0,212.0,216.0,217.0,218.0,209.0,211.0,211.0,216.0,217.0,208.0,211.0,211.0,215.0,215.0,209.0,211.0,216.0,214.0,214.0,208.0,211.0,218.0,214.0,215.0,207.0,212.0,217.0,216.0,213.0,208.0,213.0,219.0,214.0,215.0,209.0,217.0,219.0,213.0,214.0,211.0,217.0,220.0,213.0,214.0,208.0,215.0,218.0,210.0,214.0,208.0,215.0,219.0,212.0,213.0,209.0,216.0,218.0,213.0,213.0,211.0,217.0,219.0,213.0,212.0,210.0,217.0,218.0,211.0,212.0,217.0,218.0,218.0,211.0,212.0,214.0,218.0,217.0,209.0,214.0,214.0,216.0,216.0,209.0,212.0,219.0,215.0,214.0,208.0,213.0,219.0,214.0,215.0,208.0,213.0,219.0,216.0,214.0,207.0,213.0,217.0,215.0,214.0,206.0,214.0,218.0,214.0,213.0,207.0,212.0,218.0,215.0,214.0,208.0,212.0,218.0,213.0,214.0,209.0,217.0,220.0,211.0,214.0,210.0,216.0,218.0,212.0,214.0,211.0,217.0,219.0,211.0,212.0,212.0,216.0,217.0,210.0,212.0,218.0,217.0,216.0,209.0,213.0,215.0,217.0,216.0,209.0,213.0,217.0,218.0,217.0,212.0,214.0,218.0,218.0,217.0,212.0,213.0,218.0,216.0,218.0,210.0,213.0,218.0,217.0,216.0,209.0,213.0,219.0,216.0,214.0,208.0,216.0,219.0,213.0,214.0,208.0,213.0,218.0,213.0,214.0,209.0,213.0,219.0,214.0,214.0,211.0,218.0,219.0,210.0,213.0,212.0,218.0,219.0,213.0,213.0,213.0,218.0,219.0,211.0,214.0,214.0,216.0,219.0,211.0,213.0,214.0,217.0,219.0,210.0,211.0,210.0,216.0,219.0,208.0,212.0,211.0,216.0,217.0,210.0,213.0,218.0,216.0,215.0,210.0,213.0,219.0,216.0,217.0,210.0,213.0,218.0,217.0,215.0,208.0,212.0,218.0,214.0,213.0,209.0,216.0,219.0,214.0,214.0,209.0,216.0,220.0,215.0,215.0,209.0,215.0,220.0,214.0,215.0,208.0,216.0,220.0,212.0,216.0,209.0,217.0,219.0,215.0,215.0,210.0,218.0,219.0,214.0,214.0,211.0,219.0,219.0,211.0,212.0,217.0,217.0,219.0,211.0,212.0,211.0,217.0,217.0,209.0,214.0,213.0,217.0,217.0,210.0,212.0,217.0,215.0,215.0,208.0,211.0,219.0,214.0,217.0,208.0,212.0,219.0,216.0,215.0,207.0,213.0,215.0,214.0,215.0,206.0,212.0,217.0,214.0,214.0,207.0,211.0,217.0,214.0,214.0,208.0,211.0,218.0,215.0,214.0,208.0,215.0,219.0,212.0,215.0,209.0,218.0,219.0,214.0,214.0,209.0,217.0,219.0,213.0,214.0,211.0,217.0,219.0,210.0,212.0,215.0,216.0,217.0,209.0,211.0,214.0,217.0,218.0,210.0,214.0,215.0,218.0,217.0,211.0,213.0,215.0,217.0,217.0,212.0,214.0,217.0,216.0,218.0,210.0,212.0,217.0,218.0,218.0,211.0,212.0,218.0,216.0,215.0,208.0,214.0,218.0,216.0,216.0,208.0,214.0,219.0,216.0,216.0,210.0,214.0,220.0,216.0,215.0,210.0,217.0,220.0,212.0,215.0,210.0,218.0,219.0,215.0,215.0,214.0,219.0,221.0,215.0,216.0
256.0,247.0,251.0,248.0,256.0,254.0,246.0,253.0,250.0,260.0,256.0,254.0,254.0,255.0,262.0,260.0,256.0,255.0,257.0,262.0,262.0,253.0,255.0,256.0,259.0,259.0,251.0,254.0,252.0,259.0,259.0,251.0,255.0,254.0,262.0,260.0,252.0,258.0,258.0,265.0,260.0,256.0,258.0,259.0,265.0,261.0,257.0,259.0,262.0,261.0,259.0,251.0,257.0,262.0,260.0,256.0,249.0,255.0,258.0,261.0,256.0,254.0,259.0,264.0,266.0,261.0,257.0,264.0,265.0,260.0,259.0,254.0,263.0,265.0,257.0,258.0,253.0,266.0,264.0,261.0,258.0,253.0,264.0,265.0,263.0,262.0,259.0,272.0,269.0,265.0,264.0,260.0,268.0,268.0,265.0,263.0,260.0,268.0,265.0,261.0,260.0,260.0,269.0,262.0,256.0,260.0,261.0,265.0,263.0,257.0,258.0,263.0,263.0,262.0,254.0,257.0,261.0,263.0,258.0,252.0,261.0,269.0,265.0,261.0,255.0,260.0,263.0,262.0,260.0,252.0,258.0,267.0,263.0,258.0,252.0,263.0,284.0,270.0,272.0,262.0,281.0,285.0,286.0,290.0,291.0,299.0,307.0,307.0,308.0,311.0,322.0,320.0,314.0,303.0,288.0,288.0,300.0,286.0,298.0,318.0,329.0,321.0,308.0,304.0,307.0,318.0,327.0,322.0,317.0,332.0,318.0,307.0,291.0,299.0,306.0,311.0,314.0,296.0,307.0,326.0,335.0,335.0,343.0,350.0,348.0,343.0,359.0,356.0,355.0,349.0,339.0,339.0,327.0,327.0,325.0,308.0,302.0,289.0,290.0,296.0,293.0,293.0,283.0,295.0,309.0,304.0,302.0,292.0,304.0,320.0,307.0,309.0,300.0,309.0,317.0,310.0,308.0,283.0,285.0,295.0,284.0,292.0,285.0,293.0,308.0,294.0,299.0,291.0,280.0,271.0,257.0,265.0,258.0,265.0,273.0,262.0,258.0,250.0,276.0,280.0,271.0,279.0,274.0,283.0,290.0,281.0,280.0,284.0,286.0,289.0,282.0,271.0,265.0,259.0,258.0,250.0,254.0,274.0,270.0,271.0,270.0,266.0,276.0,284.0,294.0,280.0,288.0,292.0,289.0,293.0,278.0,287.0,300.0,288.0,289.0,285.0,291.0,296.0,293.0,299.0,283.0,287.0,289.0,278.0,279.0,271.0,280.0,279.0,274.0,273.0,270.0,280.0,278.0,275.0,277.0,277.0,282.0,284.0,281.0,282.0,275.0,284.0,284.0,276.0,276.0,274.0,281.0,278.0,268.0,272.0,274.0,280.0,278.0,274.0,276.0,278.0,284.0,279.0,274.0,276.0,277.0,280.0,275.0,269.0,274.0,279.0,279.0,273.0,271.0,277.0,278.0,278.0,271.0,267.0,271.0,276.0,271.0,267.0,264.0,271.0,276.0,278.0,273.0,269.0,272.0,278.0,278.0,272.0,270.0,275.0,278.0,284.0,276.0,276.0,281.0,280.0,282.0,276.0,274.0,282.0,277.0,275.0,270.0,270.0,273.0,270.0,269.0,266.0,261.0,273.0,270.0,269.0,266.0,266.0,274.0,266.0,261.0,266.0,269.0,275.0,268.0,268.0,268.0,273.0,277.0,272.0,267.0,267.0,268.0,271.0,266.0,262.0,265.0,270.0,272.0,265.0,258.0,260.0,259.0,266.0,258.0,255.0,259.0,263.0,266.0,259.0,255.0,259.0,265.0,263.0,260.0,254.0,260.0,263.0,261.0,260.0,252.0,261.0,262.0,262.0,256.0,252.0,263.0,261.0,262.0,260.0,261.0,270.0,267.0,261.0,261.0,259.0,265.0,265.0,259.0,259.0,253.0,264.0,262.0,257.0,259.0,256.0,266.0,263.0,256.0,259.0,256.0,265.0,261.0,255.0,256.0,253.0,260.0,261.0,252.0,254.0,255.0,260.0,257.0,248.0,253.0,260.0,259.0,257.0,247.0,253.0,257.0,256.0,256.0,245.0,251.0,255.0,255.0,257.0,246.0,254.0,262.0,254.0,255.0,248.0,257.0,261.0,255.0,257.0,250.0,261.0,262.0,260.0,257.0,250.0,261.0,263.0,259.0,256.0,251.0,262.0,262.0,258.0,260.0,251.0,259.0,262.0,260.0,258.0,252.0,262.0,265.0,258.0,257.0,255.0,264.0,259.0,255.0,257.0,256.0,264.0,259.0,256.0,256.0,256.0,265.0,260.0,258.0,257.0,260.0,262.0,257.0,251.0,257.0,260.0,261.0,254.0,248.0,255.0,257.0,255.0,250.0,244.0,250.0,256.0,259.0,256.0,252.0,257.0,261.0,261.0,257.0,254.0,257.0,264.0,258.0,256.0,250.0,255.0,262.0,259.0,256.0,250.0,257.0,263.0,260.0,259.0,252.0,262.0,261.0,257.0,256.0,253.0,258.0,262.0,254.0,255.0,248.0,258.0,260.0,255.0,255.0,255.0,261.0,259.0,250.0,257.0,257.0,263.0,257.0,253.0,256.0,257.0,260.0,258.0,253.0,255.0,257.0,261.0,261.0,253.0,256.0,258.0,262.0,258.0,252.0,254.0,255.0,262.0,258.0,251.0,254.0,256.0,262.0,260.0,250.0,255.0,260.0,255.0,255.0,249.0,254.0,261.0,255.0,255.0,248.0,257.0,264.0,259.0,260.0,249.0,259.0,266.0,256.0,259.0,254.0,261.0,263.0,255.0,255.0,254.0,263.0,262.0,258.0,259.0,253.0,263.0,261.0,257.0,257.0,254.0,262.0,261.0,253.0,255.0,251.0,261.0,259.0,260.0,258.0,256.0,265.0,263.0,260.0,257.0,256.0,263.0,260.0,255.0,257.0,261.0,263.0,260.0,253.0,257.0,259.0,263.0,260.0,254.0,258.0,260.0,262.0,259.0,253.0,260.0,264.0,263.0,258.0,255.0,263.0,264.0,261.0,260.0,251.0,259.0,262.0,256.0,258.0,251.0,262.0,263.0,260.0,258.0,250.0,260.0,264.0,258.0,256.0,249.0,257.0,264.0,256.0,257.0,249.0,257.0,262.0,255.0,254.0,250.0,260.0,258.0,251.0,254.0,252.0,259.0,257.0,253.0,255.0,254.0,261.0,260.0,253.0,253.0,253.0,258.0,258.0,249.0,253.0,260.0,258.0,257.0,250.0,257.0,259.0,259.0,258.0,249.0,254.0,262.0,260.0,259.0,252.0,257.0,260.0,261.0,258.0,252.0,255.0,259.0,258.0,256.0,252.0,256.0,262.0,264.0,258.0,252.0,257.0,263.0,258.0,258.0,253.0,263.0,265.0,257.0,256.0,252.0,259.0,262.0,258.0,258.0,254.0,262.0,266.0,259.0,260.0,258.0,265.0,260.0,257.0,259.0,257.0,266.0,260.0,258.0,258.0,258.0,266.0,262.0,259.0,257.0,259.0,264.0,261.0,257.0,259.0,260.0,265.0,263.0,257.0,259.0,257.0,264.0,261.0,254.0,257.0,257.0,262.0,260.0,253.0,259.0,266.0,263.0,260.0,254.0,259.0,264.0,262.0,260.0,252.0,258.0,262.0,260.0,258.0,252.0,259.0,261.0,257.0,258.0,251.0,259.0,264.0,256.0,258.0,254.0,262.0,265.0,259.0,259.0,252.0,261.0,262.0,255.0,256.0,250.0,259.0,264.0,255.0,258.0,252.0,263.0,264.0,259.0,259.0,252.0,265.0,263.0,259.0,258.0,254.0,265.0,261.0,253.0,256.0,261.0,263.0,260.0,251.0,255.0,255.0,263.0,257.0,253.0,258.0,262.0,263.0,264.0,251.0,257.0,266.0,255.0,258.0,251.0,258.0,264.0,257.0,258.0,248.0,256.0,265.0,258.0,257.0,248.0,255.0,260.0,256.0,257.0,248.0,257.0,261.0,259.0,257.0,250.0,256.0,261.0,258.0,256.0,249.0,256.0,263.0,256.0,256.0,248.0,258.0,261.0,252.0,257.0,251.0,260.0,259.0,255.0,255.0,253.0,261.0,260.0,255.0,256.0,255.0,262.0,262.0,253.0,256.0,261.0,260.0,261.0,250.0,255.0,256.0,260.0,257.0,252.0,256.0,258.0,259.0,257.0,251.0,254.0,257.0,262.0,255.0,253.0,255.0,261.0,261.0,259.0,252.0,256.0,264.0,260.0,262.0,253.0,260.0,268.0,262.0,262.0,252.0,262.0,264.0,260.0,260.0,254.0,259.0,267.0,260.0,259.0,253.0,260.0,265.0,259.0,259.0,254.0,266.0,261.0,258.0,257.0,257.0,266.0,265.0,259.0,261.0,260.0,271.0,268.0,263.0,262.0
4.0,3.0,4.0,3.0,4.0,5.0,3.0,3.0,4.0,3.0,4.0,4.0,4.0,4.0,4.0,3.0,4.0,3.0,3.0,4.0,4.0,4.0,3.0,4.0,4.0,4.0,3.0,4.0,3.0,3.0,4.0,4.0,3.0,4.0,4.0,3.0,4.0,2.0,4.0,3.0,4.0,3.0,3.0,4.0,4.0,3.0,4.0,3.0,4.0,4.0,5.0,3.0,3.0,4.0,4.0,4.0,4.0,4.0,3.0,4.0,4.0,4.0,3.0,4.0,3.0,4.0,4.0,4.0,4.0,4.0,4.0,4.0,4.0,3.0,5.0,2.0,4.0,3.0,4.0,4.0,4.0,3.0,4.0,4.0,3.0,4.0,4.0,4.0,4.0,4.0,3.0,3.0,4.0,4.0,2.0,3.0,3.0,4.0,4.0,3.0,4.0,5.0,3.0,4.0,3.0,3.0,4.0,4.0,4.0,3.0,3.0,3.0,5.0,3.0,5.0,3.0,4.0,3.0,4.0,4.0,4.0,4.0,4.0,3.0,4.0,4.0,4.0,5.0,3.0,4.0,3.0,4.0,3.0,4.0,3.0,3.0,4.0,4.0,4.0,4.0,4.0,4.0,4.0,4.0,5.0,3.0,4.0,3.0,3.0,4.0,4.0,3.0,4.0,4.0,3.0,4.0,4.0,4.0,4.0,4.0,3.0,4.0,4.0,3.0,4.0,4.0,4.0,4.0,4.0,3.0,4.0,4.0,4.0,3.0,4.0,3.0,5.0,4.0,5.0,3.0,3.0,4.0,3.0,4.0,3.0,4.0,3.0,4.0,3.0,5.0,4.0,4.0,3.0,4.0,3.0,3.0,4.0,5.0,3.0,3.0,4.0,5.0,4.0,4.0,4.0,3.0,4.0,4.0,3.0,4.0,4.0,3.0,4.0,3.0,4.0,3.0,3.0,4.0,4.0,3.0,4.0,4.0,4.0,4.0,3.0,4.0,3.0,4.0,4.0,4.0,4.0,3.0,4.0,3.0,4.0,4.0,3.0,4.0,4.0,4.0,4.0,4.0,3.0,4.0,4.0,4.0,5.0,4.0,3.0,3.0,4.0,4.0,3.0,4.0,4.0,4.0,4.0,4.0,3.0,5.0,4.0,4.0,3.0,4.0,4.0,3.0,4.0,4.0,3.0,3.0,4.0,4.0,4.0,4.0,4.0,3.0,3.0,4.0,4.0,4.0,3.0,3.0,4.0,4.0,4.0,4.0,4.0,4.0,4.0,4.0,3.0,5.0,3.0,5.0,4.0,3.0,3.0,4.0,3.0,4.0,4.0,4.0,4.0,3.0,5.0,3.0,4.0,3.0,4.0,4.0,3.0,3.0,4.0,4.0,4.0,4.0,4.0,4.0,4.0,4.0,4.0,4.0,3.0,4.0,4.0,4.0,3.0,4.0,4.0,3.0,4.0,4.0,4.0,3.0,4.0,4.0,4.0,4.0,3.0,2.0,4.0,4.0,5.0,4.0,5.0,4.0,3.0,4.0,3.0,4.0,3.0,4.0,3.0,4.0,3.0,5.0,4.0,4.0,3.0,4.0,4.0,5.0,3.0,4.0,3.0,3.0,3.0,4.0,4.0,4.0,4.0,3.0,3.0,4.0,4.0,3.0,5.0,3.0,4.0,4.0,4.0,4.0,5.0,3.0,4.0,4.0,4.0,4.0,4.0,4.0,3.0,3.0,4.0,3.0,4.0,5.0,4.0,4.0,4.0,4.0,4.0,3.0,4.0,3.0,3.0,4.0,5.0,4.0,4.0,3.0,4.0,4.0,5.0,4.0,4.0,3.0,4.0,4.0,3.0,4.0,4.0,4.0,3.0,4.0,4.0,3.0,3.0,5.0,3.0,4.0,3.0,4.0,4.0,5.0,3.0,3.0,4.0,4.0,4.0,4.0,4.0,3.0,4.0,3.0,5.0,3.0,4.0,3.0,4.0,3.0,4.0,4.0,5.0,3.0,4.0,3.0,3.0,5.0,3.0,4.0,3.0,4.0,4.0,5.0,4.0,4.0,4.0,3.0,4.0,3.0,4.0,4.0,4.0,3.0,4.0,3.0,5.0,3.0,3.0,3.0,4.0,4.0,3.0,3.0,4.0,4.0,3.0,4.0,3.0,4.0,4.0,5.0,3.0,4.0,3.0,4.0,4.0,5.0,4.0,4.0,3.0,4.0,4.0,4.0,4.0,3.0,4.0,3.0,4.0,2.0,4.0,3.0,4.0,3.0,5.0,4.0,4.0,4.0,3.0,4.0,4.0,4.0,3.0,4.0,3.0,4.0,3.0,4.0,4.0,4.0,3.0,4.0,4.0,3.0,4.0,4.0,3.0,3.0,4.0,4.0,5.0,3.0,3.0,3.0,4.0,3.0,4.0,4.0,4.0,4.0,4.0,3.0,3.0,4.0,2.0,4.0,4.0,4.0,4.0,4.0,4.0,4.0,3.0,4.0,3.0,5.0,4.0,4.0,4.0,3.0,4.0,4.0,4.0,2.0,4.0,4.0,4.0,3.0,4.0,3.0,4.0,3.0,4.0,3.0,4.0,4.0,4.0,3.0,3.0,4.0,4.0,4.0,4.0,4.0,3.0,4.0,4.0,5.0,4.0,4.0,3.0,4.0,3.0,4.0,4.0,4.0,4.0,4.0,4.0,3.0,5.0,4.0,4.0,3.0,4.0,4.0,4.0,4.0,4.0,3.0,3.0,3.0,4.0,4.0,4.0,4.0,3.0,4.0,4.0,5.0,3.0,4.0,3.0,4.0,4.0,3.0,4.0,5.0,4.0,4.0,4.0,3.0,3.0,4.0,4.0,4.0,3.0,3.0,4.0,4.0,4.0,4.0,3.0,4.0,4.0,4.0,4.0,4.0,3.0,4.0,4.0,4.0,4.0,4.0,4.0,4.0,4.0,3.0,4.0,3.0,4.0,4.0,4.0,3.0,3.0,4.0,4.0,4.0,4.0,3.0,5.0,3.0,4.0,3.0,3.0,4.0,4.0,3.0,3.0,4.0,3.0,3.0,3.0,5.0,4.0,5.0,3.0,4.0,3.0,3.0,3.0,4.0,3.0,4.0,4.0,4.0,4.0,2.0,4.0,2.0,4.0,4.0,4.0,3.0,4.0,4.0,3.0,4.0,4.0,3.0,4.0,4.0,4.0,4.0,4.0,5.0,4.0,4.0,2.0,4.0,3.0,4.0,4.0,4.0,3.0,4.0,3.0,3.0,4.0,4.0,3.0,3.0,4.0,4.0,4.0,4.0,4.0,4.0,4.0,4.0,4.0,4.0,4.0,4.0,3.0,4.0,4.0,4.0,2.0,4.0,3.0,3.0,4.0,4.0,4.0,4.0,3.0,4.0,4.0,4.0,4.0,4.0,4.0,4.0,4.0,3.0,5.0,4.0,4.0,3.0,4.0,3.0,5.0,4.0,3.0,3.0,4.0,4.0,3.0,4.0,4.0,4.0,3.0,4.0,4.0,5.0,4.0,3.0,4.0,4.0,3.0,4.0,4.0,5.0,4.0,3.0,4.0,3.0,5.0,4.0,3.0,4.0,4.0,4.0,3.0,4.0,5.0,4.0,4.0,3.0,4.0,4.0,4.0,3.0,4.0,3.0,4.0,5.0,3.0,4.0,3.0,4.0,4.0,3.0,4.0,5.0,3.0,4.0,3.0,4.0,5.0,3.0,4.0,3.0,4.0,4.0,4.0,4.0,4.0,3.0,4.0,4.0,4.0,4.0,4.0,4.0,3.0,3.0,3.0,4.0,3.0,4.0,4.0,3.0,4.0,4.0,3.0,4.0,4.0,3.0,4.0,4.0,4.0,4.0,4.0,3.0,4.0,4.0,5.0,4.0,4.0,4.0,4.0,4.0,5.0,4.0,5.0,4.0,3.0,4.0,4.0,4.0,4.0,4.0,3.0,4.0,4.0,5.0,4.0,4.0,4.0,3.0,4.0,4.0,4.0,4.0,3.0,3.0,3.0,4.0,4.0,4.0,4.0,3.0,3.0,4.0,5.0,4.0,4.0,4.0,3.0,3.0,3.0,5.0,2.0,4.0,4.0,4.0,3.0,4.0,4.0,4.0,3.0,4.0,4.0,5.0,3.0,3.0,4.0,4.0,4.0,3.0,5.0,4.0,4.0,2.0,3.0,4.0,4.0,4.0,4.0,4.0,3.0,4.0,4.0,5.0,3.0,4.0,4.0,4.0,3.0,5.0,4.0,4.0,4.0,4.0,3.0,4.0,3.0,4.0,4.0,4.0,4.0,4.0,4.0,2.0,4.0,3.0,4.0,4.0,5.0,4.0,3.0,4.0,3.0,4.0,3.0,4.0,4.0,4.0,4.0,4.0,3.0,4.0,4.0,5.0,3.0,3.0,3.0,4.0
235.0,228.0,229.0,228.0,233.0,234.0,226.0,230.0,230.0,236.0,234.0,228.0,231.0,231.0,235.0,237.0,227.0,230.0,233.0,236.0,237.0,229.0,231.0,236.0,239.0,239.0,231.0,232.0,231.0,238.0,238.0,229.0,234.0,233.0,239.0,238.0,230.0,235.0,236.0,240.0,239.0,233.0,234.0,237.0,240.0,242.0,231.0,235.0,238.0,240.0,237.0,230.0,236.0,242.0,239.0,238.0,231.0,239.0,241.0,238.0,236.0,228.0,235.0,242.0,240.0,239.0,233.0,240.0,243.0,236.0,238.0,231.0,242.0,244.0,237.0,241.0,234.0,243.0,243.0,238.0,238.0,233.0,237.0,241.0,233.0,234.0,232.0,240.0,243.0,235.0,238.0,235.0,241.0,246.0,237.0,239.0,234.0,243.0,244.0,236.0,237.0,238.0,242.0,240.0,231.0,236.0,241.0,241.0,241.0,236.0,236.0,241.0,242.0,243.0,234.0,238.0,241.0,242.0,239.0,231.0,241.0,249.0,244.0,239.0,230.0,239.0,244.0,242.0,243.0,233.0,238.0,243.0,238.0,239.0,237.0,239.0,254.0,247.0,251.0,245.0,245.0,259.0,256.0,257.0,256.0,257.0,267.0,273.0,293.0,278.0,295.0,279.0,276.0,276.0,295.0,305.0,335.0,320.0,333.0,358.0,359.0,373.0,358.0,363.0,359.0,351.0,359.0,343.0,328.0,327.0,335.0,318.0,305.0,300.0,336.0,344.0,352.0,336.0,345.0,379.0,359.0,369.0,370.0,394.0,387.0,385.0,399.0,386.0,401.0,390.0,377.0,372.0,354.0,365.0,345.0,322.0,322.0,299.0,311.0,313.0,307.0,313.0,297.0,295.0,293.0,292.0,298.0,325.0,321.0,330.0,305.0,298.0,284.0,284.0,290.0,290.0,303.0,277.0,264.0,286.0,302.0,325.0,334.0,327.0,342.0,323.0,335.0,331.0,326.0,329.0,302.0,315.0,299.0,292.0,301.0,299.0,307.0,296.0,310.0,309.0,296.0,297.0,287.0,298.0,284.0,268.0,275.0,296.0,293.0,289.0,283.0,285.0,280.0,275.0,275.0,258.0,258.0,268.0,261.0,266.0,263.0,256.0,257.0,261.0,273.0,280.0,296.0,311.0,304.0,288.0,267.0,265.0,298.0,304.0,318.0,324.0,335.0,325.0,312.0,312.0,312.0,318.0,313.0,311.0,309.0,291.0,280.0,280.0,277.0,272.0,267.0,267.0,266.0,260.0,260.0,258.0,260.0,260.0,254.0,249.0,246.0,249.0,245.0,237.0,238.0,241.0,254.0,256.0,258.0,261.0,267.0,274.0,273.0,266.0,261.0,259.0,267.0,265.0,262.0,261.0,264.0,265.0,262.0,256.0,263.0,268.0,266.0,259.0,254.0,260.0,260.0,259.0,252.0,250.0,254.0,258.0,258.0,248.0,241.0,247.0,252.0,252.0,250.0,245.0,247.0,256.0,252.0,250.0,242.0,248.0,252.0,250.0,247.0,240.0,246.0,251.0,245.0,245.0,244.0,249.0,250.0,243.0,243.0,242.0,245.0,245.0,237.0,238.0,234.0,243.0,245.0,236.0,236.0,239.0,240.0,237.0,230.0,236.0,238.0,240.0,237.0,232.0,235.0,240.0,240.0,241.0,233.0,235.0,241.0,241.0,241.0,234.0,237.0,244.0,244.0,240.0,233.0,236.0,239.0,242.0,239.0,232.0,236.0,241.0,243.0,240.0,233.0,239.0,245.0,243.0,239.0,232.0,240.0,245.0,241.0,242.0,234.0,242.0,247.0,244.0,241.0,235.0,243.0,245.0,240.0,239.0,240.0,246.0,247.0,240.0,240.0,240.0,244.0,246.0,239.0,238.0,235.0,244.0,244.0,237.0,239.0,237.0,245.0,244.0,237.0,239.0,237.0,245.0,242.0,239.0,238.0,238.0,244.0,245.0,238.0,238.0,240.0,245.0,241.0,236.0,240.0,244.0,245.0,242.0,235.0,239.0,243.0,243.0,240.0,233.0,237.0,241.0,242.0,241.0,233.0,240.0,244.0,240.0,239.0,234.0,240.0,245.0,240.0,240.0,232.0,242.0,244.0,241.0,238.0,232.0,242.0,243.0,241.0,239.0,235.0,245.0,247.0,242.0,241.0,237.0,242.0,246.0,240.0,240.0,233.0,242.0,245.0,240.0,240.0,238.0,245.0,244.0,236.0,238.0,239.0,243.0,241.0,238.0,237.0,239.0,243.0,243.0,238.0,239.0,242.0,244.0,241.0,234.0,238.0,245.0,244.0,240.0,232.0,238.0,241.0,241.0,241.0,232.0,236.0,242.0,241.0,240.0,235.0,239.0,244.0,243.0,240.0,235.0,238.0,246.0,241.0,240.0,234.0,239.0,245.0,245.0,241.0,234.0,241.0,246.0,243.0,241.0,239.0,248.0,249.0,243.0,242.0,240.0,244.0,247.0,242.0,240.0,235.0,244.0,246.0,240.0,240.0,240.0,246.0,243.0,237.0,242.0,244.0,248.0,244.0,240.0,241.0,244.0,247.0,245.0,239.0,240.0,245.0,246.0,246.0,238.0,240.0,245.0,246.0,242.0,238.0,238.0,241.0,246.0,243.0,237.0,242.0,245.0,248.0,246.0,239.0,243.0,249.0,247.0,244.0,239.0,245.0,250.0,247.0,245.0,239.0,246.0,250.0,247.0,243.0,236.0,244.0,246.0,243.0,240.0,239.0,245.0,246.0,241.0,241.0,240.0,245.0,246.0,240.0,240.0,237.0,247.0,247.0,241.0,242.0,239.0,247.0,247.0,240.0,242.0,239.0,247.0,245.0,242.0,242.0,241.0,248.0,249.0,243.0,241.0,242.0,246.0,244.0,238.0,240.0,245.0,245.0,242.0,237.0,240.0,243.0,246.0,243.0,237.0,240.0,244.0,245.0,243.0,236.0,243.0,248.0,244.0,241.0,237.0,242.0,247.0,244.0,243.0,237.0,244.0,249.0,246.0,244.0,237.0,246.0,248.0,245.0,241.0,236.0,244.0,246.0,243.0,241.0,235.0,241.0,247.0,243.0,242.0,235.0,243.0,247.0,243.0,242.0,239.0,247.0,246.0,239.0,241.0,240.0,247.0,244.0,242.0,241.0,241.0,246.0,245.0,239.0,239.0,241.0,244.0,243.0,235.0,239.0,245.0,245.0,241.0,234.0,239.0,241.0,243.0,241.0,235.0,238.0,243.0,242.0,240.0,237.0,239.0,244.0,243.0,240.0,235.0,238.0,245.0,242.0,240.0,235.0,238.0,245.0,244.0,241.0,234.0,240.0,246.0,243.0,240.0,236.0,245.0,246.0,241.0,240.0,236.0,241.0,246.0,240.0,240.0,232.0,242.0,244.0,239.0,240.0,239.0,245.0,243.0,236.0,239.0,240.0,246.0,244.0,240.0,241.0,241.0,246.0,246.0,238.0,239.0,243.0,245.0,244.0,236.0,239.0,242.0,243.0,242.0,236.0,237.0,238.0,244.0,241.0,234.0,237.0,238.0,242.0,240.0,234.0,238.0,244.0,243.0,240.0,235.0,239.0,245.0,242.0,240.0,233.0,240.0,246.0,245.0,243.0,235.0,242.0,246.0,242.0,240.0,236.0,245.0,247.0,240.0,240.0,237.0,241.0,245.0,239.0,239.0,233.0,243.0,246.0,239.0,239.0,235.0,244.0,245.0,238.0,239.0,235.0,244.0,244.0,241.0,240.0,236.0,246.0,245.0,241.0,239.0,238.0,246.0,245.0,237.0,240.0,244.0,246.0,243.0,237.0,237.0,238.0,245.0,240.0,234.0,238.0,240.0,243.0,241.0,235.0,239.0,245.0,243.0,240.0,235.0,240.0,246.0,241.0,241.0,233.0,239.0,245.0,242.0,239.0,231.0,240.0,243.0,241.0,238.0,231.0,241.0,245.0,242.0,240.0,233.0,239.0,245.0,240.0,240.0,232.0,239.0,245.0,240.0,239.0,233.0,241.0,244.0,235.0,238.0,234.0,240.0,241.0,236.0,236.0,234.0,242.0,242.0,236.0,237.0,237.0,242.0,242.0,233.0,238.0,243.0,244.0,241.0,234.0,237.0,239.0,242.0,239.0,233.0,236.0,240.0,242.0,239.0,233.0,236.0,240.0,241.0,240.0,235.0,238.0,242.0,242.0,241.0,235.0,236.0,243.0,242.0,240.0,233.0,238.0,242.0,240.0,239.0,232.0,241.0,243.0,240.0,238.0,231.0,236.0,242.0,237.0,237.0,230.0,236.0,243.0,238.0,238.0,235.0,243.0,245.0,236.0,239.0,235.0,243.0,243.0,238.0,238.0,237.0,244.0,244.0,236.0,238.0
