212.0,215.0,204.0,209.0,215.0,210.0,211.0,202.0,206.0,209.0,209.0,210.0,203.0,209.0,214.0,213.0,213.0,204.0,210.0,215.0,208.0,209.0,203.0,211.0,216.0,210.0,213.0,206.0,213.0,217.0,213.0,213.0,206.0,214.0,217.0,212.0,214.0,207.0,214.0,215.0,209.0,209.0,206.0,212.0,216.0,209.0,211.0,204.0,213.0,219.0,209.0,211.0,209.0,213.0,215.0,206.0,209.0,210.0,213.0,214.0,208.0,209.0,211.0,210.0,214.0,205.0,207.0,211.0,212.0,211.0,203.0,209.0,214.0,211.0,213.0,204.0,208.0,213.0,211.0,211.0,202.0,208.0,214.0,211.0,211.0,205.0,208.0,217.0,212.0,212.0,205.0,209.0,216.0,211.0,214.0,205.0,210.0,216.0,213.0,213.0,206.0,210.0,217.0,211.0,213.0,210.0,216.0,219.0,211.0,213.0,211.0,215.0,219.0,212.0,212.0,207.0,213.0,219.0,209.0,211.0,212.0,214.0,215.0,206.0,210.0,212.0,215.0,215.0,210.0,213.0,215.0,214.0,219.0,208.0,211.0,216.0,215.0,217.0,207.0,211.0,216.0,216.0,217.0,209.0,211.0,213.0,215.0,216.0,207.0,211.0,213.0,215.0,215.0,206.0,210.0,217.0,211.0,212.0,206.0,210.0,217.0,211.0,213.0,206.0,214.0,220.0,214.0,214.0,208.0,217.0,223.0,214.0,217.0,214.0,220.0,220.0,211.0,217.0,216.0,218.0,220.0,210.0,211.0,213.0,217.0,224.0,215.0,226.0,219.0,231.0,238.0,226.0,226.0,224.0,230.0,230.0,221.0,224.0,218.0,216.0,221.0,212.0,218.0,219.0,220.0,223.0,212.0,218.0,225.0,225.0,226.0,216.0,221.0,227.0,228.0,232.0,227.0,229.0,232.0,230.0,230.0,217.0,223.0,228.0,221.0,221.0,212.0,221.0,228.0,221.0,224.0,222.0,233.0,240.0,233.0,235.0,225.0,230.0,233.0,227.0,229.0,224.0,232.0,234.0,231.0,232.0,222.0,233.0,239.0,234.0,242.0,239.0,248.0,249.0,246.0,251.0,249.0,258.0,255.0,241.0,242.0,237.0,240.0,242.0,233.0,233.0,228.0,229.0,232.0,227.0,229.0,230.0,233.0,236.0,228.0,233.0,240.0,238.0,237.0,229.0,234.0,236.0,235.0,236.0,227.0,233.0,236.0,228.0,231.0,225.0,228.0,238.0,233.0,233.0,224.0,228.0,238.0,234.0,240.0,227.0,233.0,242.0,237.0,236.0,228.0,236.0,241.0,233.0,236.0,228.0,235.0,241.0,233.0,235.0,231.0,237.0,244.0,236.0,237.0,228.0,236.0,243.0,237.0,237.0,236.0,237.0,241.0,233.0,235.0,236.0,239.0,238.0,231.0,234.0,235.0,236.0,237.0,231.0,231.0,235.0,237.0,238.0,230.0,233.0,235.0,236.0,237.0,230.0,232.0,233.0,238.0,242.0,234.0,235.0,238.0,241.0,242.0,231.0,234.0,243.0,237.0,236.0,229.0,234.0,241.0,238.0,240.0,233.0,239.0,246.0,242.0,240.0,231.0,238.0,243.0,240.0,238.0,234.0,242.0,244.0,236.0,236.0,233.0,236.0,241.0,233.0,234.0,227.0,237.0,240.0,233.0,235.0,229.0,237.0,239.0,230.0,232.0,227.0,233.0,238.0,231.0,232.0,228.0,235.0,237.0,230.0,229.0,227.0,232.0,232.0,225.0,225.0,230.0,230.0,229.0,221.0,223.0,225.0,229.0,228.0,224.0,226.0,228.0,233.0,231.0,223.0,226.0,230.0,228.0,227.0,221.0,224.0,233.0,227.0,226.0,221.0,226.0,228.0,224.0,223.0,217.0,222.0,229.0,227.0,225.0,219.0,225.0,227.0,224.0,223.0,216.0,221.0,226.0,224.0,222.0,219.0,224.0,227.0,223.0,220.0,215.0,223.0,223.0,216.0,218.0,219.0,224.0,226.0,220.0,220.0,216.0,222.0,223.0,216.0,216.0,215.0,219.0,219.0,211.0,213.0,217.0,216.0,216.0,209.0,212.0,214.0,216.0,213.0,204.0,209.0,215.0,215.0,215.0,210.0,212.0,215.0,215.0,214.0,208.0,212.0,216.0,214.0,215.0,210.0,210.0,216.0,215.0,214.0,207.0,209.0,214.0,211.0,211.0,204.0,212.0,216.0,212.0,212.0,205.0,210.0,217.0,209.0,211.0,204.0,211.0,217.0,211.0,211.0,209.0,215.0,217.0,209.0,211.0,208.0,209.0,212.0,206.0,208.0,208.0,213.0,216.0,209.0,210.0,212.0,215.0,216.0,210.0,212.0,214.0,216.0,218.0,210.0,211.0,209.0,217.0,218.0,211.0,214.0,212.0,217.0,218.0,211.0,212.0,217.0,216.0,216.0,209.0,214.0,218.0,215.0,217.0,210.0,212.0,220.0,217.0,216.0,209.0,215.0,220.0,215.0,215.0,213.0,221.0,222.0,217.0,217.0,212.0,216.0,221.0,214.0,215.0,208.0,215.0,220.0,212.0,214.0,207.0,214.0,217.0,212.0,213.0,206.0,214.0,218.0,213.0,213.0,208.0,215.0,218.0,213.0,213.0,209.0,217.0,219.0,211.0,211.0,215.0,216.0,218.0,208.0,209.0,208.0,212.0,214.0,207.0,210.0,210.0,214.0,214.0,206.0,209.0,216.0,213.0,213.0,207.0,211.0,217.0,215.0,214.0,206.0,211.0,217.0,215.0,214.0,206.0,212.0,215.0,214.0,215.0,207.0,215.0,218.0,215.0,213.0,207.0,211.0,222.0,218.0,217.0,210.0,213.0,219.0,214.0,214.0,207.0,216.0,218.0,210.0,213.0,209.0,214.0,218.0,212.0,212.0,208.0,215.0,218.0,211.0,213.0,210.0,216.0,217.0,209.0,211.0,216.0,215.0,216.0,208.0,211.0,212.0,215.0,216.0,206.0,211.0,212.0,216.0,218.0,210.0,212.0,215.0,215.0,216.0,208.0,212.0,215.0,214.0,218.0,207.0,211.0,215.0,215.0,217.0,207.0,210.0,216.0,212.0,214.0,204.0,212.0,215.0,213.0,213.0,205.0,210.0,217.0,212.0,213.0,207.0,211.0,217.0,210.0,213.0,207.0,215.0,217.0,209.0,213.0,209.0,215.0,218.0,212.0,214.0,211.0,217.0,219.0,210.0,212.0,208.0,212.0,216.0,208.0,209.0,211.0,212.0,217.0,206.0,210.0,206.0,213.0,217.0,206.0,211.0,206.0,213.0,217.0,208.0,210.0,215.0,213.0,215.0,207.0,211.0,215.0,213.0,217.0,207.0,211.0,217.0,215.0,216.0,206.0,211.0,217.0,212.0,215.0,206.0,214.0,219.0,212.0,214.0,207.0,212.0,218.0,212.0,214.0,206.0,213.0,220.0,211.0,214.0,206.0,213.0,218.0,211.0,213.0,205.0,214.0,219.0,212.0,214.0,207.0,214.0,218.0,211.0,212.0,206.0,214.0,217.0,208.0,211.0,213.0,215.0,219.0,209.0,212.0,210.0,216.0,219.0,209.0,213.0,211.0,216.0,217.0,208.0,211.0,217.0,214.0,214.0,207.0,210.0,216.0,213.0,216.0,206.0,210.0,216.0,213.0,213.0,207.0,210.0,213.0,214.0,215.0,206.0,212.0,216.0,214.0,214.0,206.0,211.0,216.0,215.0,213.0,208.0,211.0,217.0,214.0,215.0,207.0,216.0,219.0,213.0,215.0,209.0,219.0,220.0,216.0,215.0,210.0,218.0,221.0,215.0,216.0,211.0,218.0,219.0,212.0,214.0,217.0,218.0,218.0,210.0,212.0,213.0,217.0,217.0,209.0,212.0,213.0,218.0,217.0,212.0,212.0,215.0,217.0,216.0,212.0,212.0,214.0,216.0,219.0,211.0,213.0,216.0,217.0,218.0,209.0,211.0,217.0,215.0,215.0,207.0,214.0,218.0,215.0,215.0,206.0,213.0,219.0,216.0,216.0,210.0,214.0,219.0,215.0,214.0,209.0,217.0,219.0,212.0,213.0,210.0,218.0,219.0,216.0,214.0,213.0,219.0,221.0,216.0,215.0,215.0,218.0,222.0,216.0,216.0,217.0,220.0,222.0,217.0,217.0,215.0,221.0,223.0,217.0,218.0,215.0,222.0,222.0,217.0,217.0,221.0,223.0,220.0,218.0,217.0,223.0,224.0,223.0,219.0,219.0,225.0,229.0,226.0,220.0,221.0,227.0,225.0,223.0,219.0,225.0,226.0,224.0,222.0,217.0,221.0,225.0,222.0,219.0,216.0
260.0,255.0,250.0,255.0,257.0,259.0,254.0,249.0,253.0,257.0,260.0,254.0,250.0,254.0,259.0,260.0,256.0,248.0,257.0,258.0,255.0,254.0,250.0,260.0,260.0,260.0,258.0,254.0,264.0,262.0,259.0,256.0,253.0,265.0,263.0,263.0,260.0,258.0,269.0,267.0,262.0,259.0,257.0,266.0,265.0,261.0,261.0,255.0,266.0,265.0,260.0,259.0,260.0,268.0,260.0,257.0,260.0,260.0,263.0,261.0,255.0,256.0,259.0,260.0,260.0,254.0,255.0,260.0,259.0,254.0,248.0,256.0,260.0,259.0,256.0,250.0,257.0,260.0,258.0,256.0,247.0,254.0,261.0,256.0,256.0,248.0,254.0,261.0,256.0,256.0,248.0,255.0,260.0,256.0,256.0,248.0,254.0,261.0,258.0,256.0,247.0,257.0,260.0,254.0,255.0,252.0,261.0,261.0,256.0,256.0,255.0,262.0,262.0,256.0,257.0,251.0,261.0,260.0,254.0,255.0,256.0,263.0,258.0,252.0,257.0,259.0,263.0,261.0,256.0,259.0,262.0,265.0,260.0,256.0,258.0,263.0,265.0,259.0,254.0,257.0,263.0,263.0,259.0,250.0,254.0,257.0,262.0,257.0,252.0,256.0,258.0,262.0,258.0,252.0,257.0,262.0,259.0,258.0,253.0,262.0,264.0,263.0,260.0,253.0,266.0,267.0,266.0,262.0,256.0,269.0,271.0,270.0,269.0,267.0,275.0,271.0,263.0,265.0,270.0,274.0,272.0,261.0,261.0,263.0,269.0,271.0,263.0,270.0,266.0,283.0,280.0,266.0,261.0,261.0,270.0,268.0,266.0,268.0,262.0,261.0,266.0,255.0,262.0,265.0,264.0,267.0,258.0,264.0,273.0,269.0,269.0,257.0,268.0,273.0,273.0,275.0,268.0,270.0,275.0,272.0,271.0,258.0,264.0,272.0,260.0,260.0,250.0,259.0,268.0,259.0,266.0,259.0,272.0,279.0,268.0,269.0,260.0,269.0,275.0,266.0,268.0,261.0,273.0,273.0,270.0,277.0,268.0,276.0,281.0,273.0,278.0,269.0,278.0,284.0,275.0,278.0,274.0,288.0,284.0,272.0,274.0,272.0,279.0,278.0,270.0,273.0,272.0,275.0,274.0,271.0,273.0,272.0,278.0,275.0,269.0,275.0,282.0,281.0,276.0,270.0,279.0,279.0,280.0,278.0,268.0,274.0,278.0,274.0,271.0,269.0,272.0,280.0,280.0,274.0,270.0,274.0,280.0,281.0,281.0,272.0,278.0,283.0,282.0,277.0,269.0,281.0,286.0,281.0,282.0,274.0,284.0,286.0,278.0,278.0,273.0,282.0,286.0,277.0,275.0,268.0,278.0,285.0,277.0,278.0,277.0,284.0,280.0,275.0,277.0,279.0,286.0,280.0,276.0,278.0,281.0,286.0,282.0,275.0,277.0,280.0,285.0,278.0,272.0,272.0,274.0,277.0,273.0,270.0,273.0,273.0,280.0,278.0,268.0,274.0,273.0,283.0,275.0,270.0,274.0,281.0,277.0,275.0,271.0,281.0,287.0,285.0,282.0,274.0,282.0,286.0,286.0,280.0,273.0,282.0,285.0,280.0,278.0,276.0,289.0,285.0,283.0,280.0,279.0,287.0,287.0,283.0,280.0,273.0,286.0,285.0,277.0,279.0,273.0,285.0,282.0,275.0,277.0,272.0,285.0,280.0,281.0,278.0,274.0,283.0,282.0,276.0,272.0,269.0,277.0,273.0,268.0,270.0,274.0,277.0,271.0,269.0,271.0,274.0,280.0,276.0,273.0,274.0,276.0,282.0,273.0,269.0,274.0,278.0,276.0,273.0,267.0,271.0,275.0,272.0,268.0,261.0,272.0,270.0,271.0,267.0,263.0,269.0,272.0,271.0,267.0,260.0,269.0,269.0,267.0,264.0,259.0,264.0,268.0,267.0,264.0,258.0,265.0,268.0,264.0,263.0,259.0,271.0,265.0,263.0,265.0,262.0,270.0,267.0,265.0,262.0,260.0,268.0,264.0,260.0,261.0,259.0,265.0,259.0,254.0,256.0,261.0,263.0,258.0,251.0,256.0,259.0,263.0,259.0,253.0,258.0,261.0,266.0,260.0,260.0,261.0,265.0,265.0,259.0,258.0,260.0,265.0,266.0,262.0,257.0,259.0,262.0,267.0,259.0,256.0,262.0,265.0,265.0,261.0,257.0,266.0,268.0,262.0,261.0,253.0,258.0,261.0,257.0,254.0,250.0,259.0,263.0,256.0,257.0,253.0,262.0,260.0,254.0,257.0,254.0,262.0,259.0,253.0,255.0,256.0,254.0,260.0,252.0,255.0,256.0,261.0,260.0,254.0,255.0,258.0,261.0,259.0,252.0,254.0,252.0,260.0,259.0,252.0,257.0,256.0,263.0,259.0,253.0,256.0,260.0,258.0,255.0,250.0,255.0,260.0,258.0,257.0,250.0,255.0,261.0,259.0,256.0,250.0,257.0,263.0,257.0,255.0,250.0,261.0,261.0,254.0,255.0,249.0,256.0,260.0,256.0,256.0,248.0,257.0,263.0,255.0,258.0,251.0,260.0,260.0,254.0,255.0,250.0,262.0,262.0,259.0,257.0,251.0,260.0,260.0,256.0,254.0,248.0,259.0,257.0,251.0,254.0,256.0,261.0,255.0,251.0,253.0,255.0,262.0,256.0,257.0,259.0,260.0,269.0,261.0,260.0,261.0,266.0,267.0,262.0,259.0,263.0,266.0,264.0,262.0,256.0,262.0,266.0,265.0,258.0,253.0,261.0,263.0,264.0,259.0,252.0,262.0,262.0,261.0,258.0,252.0,258.0,264.0,263.0,259.0,254.0,262.0,265.0,261.0,260.0,252.0,263.0,262.0,253.0,259.0,253.0,261.0,261.0,256.0,255.0,252.0,262.0,262.0,254.0,255.0,253.0,260.0,257.0,250.0,254.0,259.0,267.0,260.0,254.0,256.0,257.0,261.0,258.0,250.0,254.0,256.0,260.0,258.0,252.0,255.0,258.0,259.0,257.0,252.0,255.0,259.0,260.0,258.0,250.0,254.0,259.0,261.0,257.0,250.0,256.0,261.0,261.0,256.0,251.0,260.0,259.0,259.0,255.0,251.0,258.0,263.0,260.0,258.0,251.0,260.0,264.0,260.0,258.0,254.0,265.0,261.0,257.0,259.0,256.0,264.0,263.0,257.0,259.0,257.0,264.0,264.0,255.0,256.0,256.0,261.0,262.0,253.0,255.0,255.0,260.0,260.0,252.0,254.0,250.0,262.0,262.0,254.0,256.0,253.0,261.0,261.0,254.0,257.0,261.0,261.0,258.0,252.0,256.0,260.0,260.0,259.0,252.0,256.0,262.0,260.0,260.0,249.0,257.0,262.0,257.0,257.0,251.0,259.0,265.0,258.0,258.0,253.0,259.0,264.0,254.0,258.0,250.0,258.0,262.0,256.0,256.0,248.0,255.0,259.0,248.0,253.0,245.0,257.0,260.0,253.0,255.0,248.0,258.0,260.0,253.0,254.0,248.0,258.0,260.0,249.0,255.0,258.0,260.0,262.0,254.0,258.0,256.0,264.0,260.0,252.0,257.0,255.0,261.0,260.0,248.0,253.0,258.0,257.0,257.0,252.0,255.0,262.0,256.0,257.0,248.0,254.0,258.0,258.0,254.0,251.0,257.0,258.0,259.0,256.0,248.0,258.0,260.0,256.0,256.0,248.0,255.0,261.0,259.0,257.0,250.0,257.0,261.0,259.0,257.0,250.0,261.0,267.0,257.0,262.0,255.0,265.0,268.0,259.0,261.0,253.0,263.0,263.0,259.0,258.0,254.0,264.0,260.0,254.0,257.0,258.0,263.0,258.0,252.0,256.0,254.0,262.0,255.0,250.0,254.0,254.0,261.0,256.0,253.0,257.0,257.0,263.0,259.0,255.0,258.0,261.0,263.0,262.0,252.0,255.0,260.0,261.0,258.0,250.0,253.0,259.0,259.0,257.0,248.0,257.0,259.0,256.0,257.0,248.0,254.0,261.0,256.0,255.0,249.0,257.0,263.0,260.0,257.0,251.0,261.0,261.0,254.0,256.0,252.0,262.0,260.0,258.0,258.0,254.0,265.0,262.0,258.0,256.0,255.0,261.0,262.0,256.0,256.0,255.0,261.0,262.0,257.0,258.0,252.0,263.0,262.0,254.0,257.0,253.0,262.0,260.0,252.0,256.0,257.0,259.0,258.0,253.0,256.0,261.0,261.0,261.0,255.0,257.0,262.0,264.0,262.0,255.0,260.0,265.0,263.0,260.0,254.0,265.0,266.0,261.0,259.0,250.0,257.0,263.0,258.0,258.0,248.0
202.0,200.0,191.0,195.0,205.0,199.0,199.0,190.0,194.0,199.0,198.0,197.0,189.0,193.0,201.0,200.0,197.0,189.0,197.0,204.0,195.0,197.0,189.0,199.0,204.0,194.0,198.0,190.0,200.0,205.0,196.0,197.0,189.0,199.0,205.0,196.0,199.0,193.0,202.0,206.0,193.0,197.0,194.0,200.0,206.0,192.0,198.0,188.0,198.0,209.0,192.0,198.0,198.0,201.0,209.0,192.0,203.0,205.0,203.0,214.0,197.0,208.0,213.0,208.0,226.0,203.0,216.0,223.0,216.0,232.0,212.0,226.0,243.0,226.0,247.0,227.0,241.0,254.0,241.0,263.0,245.0,262.0,276.0,261.0,286.0,266.0,284.0,301.0,283.0,309.0,290.0,308.0,325.0,306.0,336.0,314.0,332.0,352.0,331.0,361.0,342.0,358.0,381.0,358.0,390.0,381.0,383.0,414.0,389.0,419.0,414.0,417.0,445.0,423.0,452.0,437.0,447.0,477.0,450.0,480.0,478.0,468.0,501.0,474.0,502.0,500.0,488.0,521.0,493.0,520.0,518.0,504.0,539.0,508.0,533.0,531.0,520.0,551.0,523.0,546.0,542.0,531.0,557.0,530.0,550.0,541.0,534.0,554.0,531.0,555.0,537.0,532.0,547.0,529.0,544.0,533.0,521.0,535.0,517.0,529.0,518.0,509.0,515.0,503.0,511.0,499.0,495.0,495.0,488.0,488.0,480.0,475.0,471.0,467.0,461.0,457.0,448.0,441.0,433.0,425.0,416.0,406.0,396.0,389.0,377.0,368.0,358.0,348.0,339.0,328.0,319.0,308.0,299.0,290.0,280.0,271.0,264.0,253.0,245.0,236.0,229.0,221.0,212.0,204.0,196.0,188.0,181.0,174.0,167.0,162.0,154.0,148.0,142.0,137.0,131.0,125.0,119.0,115.0,109.0,104.0,100.0,96.0,91.0,86.0,83.0,78.0,76.0,71.0,68.0,64.0,60.0,58.0,55.0,51.0,49.0,46.0,44.0,41.0,39.0,37.0,33.0,33.0,30.0,28.0,26.0,23.0,21.0,21.0,18.0,16.0,16.0,15.0,13.0,12.0,12.0,10.0,10.0,9.0,8.0,7.0,7.0,7.0,7.0,6.0,7.0,6.0,7.0,6.0,5.0,6.0,5.0,5.0,5.0,5.0,4.0,5.0,5.0,5.0,5.0,5.0,4.0,4.0,4.0,5.0,4.0,4.0,5.0,4.0,4.0,3.0,4.0,4.0,5.0,4.0,4.0,3.0,4.0,4.0,4.0,4.0,4.0,5.0,3.0,4.0,4.0,5.0,4.0,4.0,4.0,4.0,4.0,5.0,4.0,4.0,4.0,3.0,5.0,5.0,4.0,4.0,5.0,3.0,4.0,4.0,5.0,4.0,4.0,3.0,3.0,4.0,4.0,4.0,4.0,4.0,3.0,4.0,4.0,5.0,4.0,3.0,4.0,4.0,3.0,4.0,4.0,4.0,4.0,4.0,4.0,5.0,4.0,4.0,4.0,3.0,4.0,3.0,5.0,4.0,4.0,3.0,3.0,3.0,4.0,4.0,3.0,3.0,3.0,4.0,4.0,4.0,4.0,4.0,5.0,4.0,4.0,4.0,4.0,4.0,3.0,4.0,4.0,4.0,4.0,4.0,3.0,3.0,4.0,4.0,4.0,4.0,4.0,3.0,3.0,4.0,5.0,4.0,4.0,5.0,3.0,4.0,4.0,4.0,4.0,4.0,3.0,4.0,3.0,5.0,4.0,4.0,3.0,4.0,4.0,5.0,4.0,4.0,4.0,3.0,4.0,4.0,4.0,4.0,4.0,3.0,4.0,4.0,5.0,4.0,4.0,4.0,4.0,4.0,5.0,4.0,4.0,4.0,3.0,4.0,3.0,5.0,4.0,3.0,4.0,4.0,4.0,4.0,4.0,3.0,4.0,3.0,4.0,4.0,4.0,4.0,4.0,3.0,3.0,4.0,5.0,3.0,4.0,4.0,4.0,3.0,4.0,4.0,4.0,5.0,3.0,4.0,4.0,4.0,4.0,4.0,3.0,3.0,4.0,5.0,4.0,5.0,4.0,3.0,4.0,4.0,4.0,4.0,4.0,3.0,4.0,4.0,5.0,4.0,3.0,3.0,3.0,4.0,4.0,4.0,4.0,4.0,4.0,5.0,3.0,5.0,2.0,4.0,3.0,3.0,3.0,5.0,4.0,4.0,4.0,3.0,4.0,4.0,4.0,4.0,4.0,3.0,4.0,3.0,5.0,4.0,4.0,4.0,4.0,3.0,5.0,4.0,4.0,3.0,3.0,4.0,4.0,4.0,4.0,4.0,4.0,4.0,4.0,4.0,4.0,4.0,4.0,3.0,4.0,4.0,4.0,2.0,4.0,4.0,3.0,4.0,5.0,4.0,4.0,4.0,4.0,4.0,4.0,3.0,3.0,4.0,3.0,4.0,4.0,5.0,3.0,4.0,3.0,4.0,3.0,5.0,4.0,3.0,4.0,4.0,4.0,3.0,4.0,3.0,4.0,4.0,4.0,4.0,4.0,4.0,4.0,3.0,4.0,3.0,4.0,4.0,3.0,3.0,3.0,4.0,4.0,4.0,4.0,4.0,3.0,4.0,3.0,4.0,4.0,4.0,3.0,3.0,4.0,5.0,4.0,4.0,4.0,3.0,4.0,4.0,4.0,4.0,4.0,4.0,4.0,3.0,4.0,4.0,4.0,4.0,3.0,4.0,4.0,5.0,4.0,4.0,3.0,4.0,4.0,5.0,4.0,4.0,3.0,4.0,4.0,4.0,4.0,4.0,4.0,3.0,4.0,4.0,4.0,4.0,3.0,3.0,4.0,4.0,5.0,4.0,3.0,3.0,3.0,4.0,4.0,4.0,4.0,4.0,4.0,4.0,3.0,5.0,4.0,3.0,4.0,4.0,3.0,5.0,4.0,4.0,4.0,3.0,4.0,5.0,5.0,4.0,4.0,3.0,4.0,4.0,5.0,4.0,4.0,4.0,3.0,4.0,5.0,4.0,3.0,4.0,4.0,3.0,3.0,5.0,2.0,5.0,3.0,3.0,4.0,4.0,3.0,4.0,4.0,3.0,4.0,4.0,4.0,4.0,4.0,3.0,4.0,3.0,5.0,3.0,4.0,4.0,4.0,4.0,3.0,4.0,4.0,4.0,3.0,4.0,3.0,5.0,4.0,3.0,3.0,4.0,3.0,4.0,4.0,4.0,4.0,3.0,4.0,4.0,4.0,4.0,4.0,4.0,4.0,3.0,5.0,4.0,5.0,3.0,3.0,4.0,3.0,4.0,3.0,4.0,4.0,3.0,4.0,5.0,4.0,4.0,3.0,3.0,4.0,5.0,3.0,4.0,4.0,3.0,4.0,4.0,4.0,4.0,4.0,3.0,3.0,4.0,5.0,4.0,4.0,3.0,4.0,4.0,5.0,4.0,3.0,4.0,4.0,4.0,3.0,5.0,4.0,4.0,3.0,4.0,3.0,4.0,3.0,4.0,3.0,4.0,3.0,2.0,4.0,4.0,4.0,3.0,4.0,3.0,5.0,2.0,4.0,3.0,3.0,3.0,5.0,4.0,4.0,3.0,3.0,4.0,4.0,4.0,4.0,4.0,3.0,4.0,3.0,5.0,4.0,4.0,4.0,3.0,3.0,4.0,4.0,4.0,3.0,3.0,4.0,4.0,5.0,4.0,4.0,3.0,3.0,4.0,4.0,4.0,4.0,3.0,4.0,4.0,4.0,4.0,4.0,4.0,3.0,4.0,3.0,5.0,4.0,4.0,3.0,3.0,4.0,4.0,4.0,3.0,4.0,4.0,4.0,4.0,5.0,2.0,5.0,3.0,4.0,4.0,4.0,4.0,10.0,10.0,13.0,19.0,17.0,24.0,25.0,27.0,35.0,31.0,39.0,43.0,42.0,51.0,45.0,53.0,58.0,56.0,66.0,58.0,67.0,73.0,69.0,77.0,69.0,80.0,87.0,81.0,94.0,81.0,95.0,102.0,93.0,105.0,102.0,106.0,117.0,106.0,117.0,109.0,117.0,128.0,117.0,131.0,122.0,129.0,142.0,129.0,140.0,144.0,139.0,150.0,138.0,149.0,155.0,149.0,161.0,148.0,159.0,166.0,160.0,171.0,159.0,169.0,173.0,170.0,181.0,169.0,178.0,184.0,179.0,189.0,179.0,186.0,192.0,188.0,194.0,186.0,193.0,202.0,193.0,203.0,193.0,199.0,210.0,198.0,208.0,200.0,206.0,216.0,207.0,213.0,207.0,212.0,222.0,211.0,218.0,214.0,218.0,226.0,217.0,221.0,226.0,224.0,231.0,220.0,225.0,227.0,228.0,235.0,225.0,229.0
248.0,243.0,237.0,240.0,247.0,247.0,242.0,239.0,243.0,247.0,247.0,243.0,239.0,243.0,250.0,250.0,244.0,239.0,246.0,248.0,245.0,242.0,240.0,248.0,250.0,244.0,246.0,241.0,250.0,249.0,247.0,244.0,241.0,250.0,250.0,247.0,244.0,242.0,250.0,249.0,244.0,243.0,242.0,247.0,248.0,243.0,242.0,237.0,247.0,247.0,243.0,241.0,245.0,248.0,245.0,240.0,242.0,245.0,250.0,246.0,244.0,243.0,247.0,249.0,248.0,243.0,242.0,247.0,247.0,244.0,237.0,245.0,249.0,247.0,244.0,238.0,245.0,247.0,246.0,244.0,238.0,243.0,250.0,248.0,245.0,240.0,244.0,250.0,247.0,245.0,239.0,243.0,249.0,245.0,243.0,239.0,246.0,251.0,248.0,245.0,237.0,246.0,251.0,247.0,244.0,244.0,251.0,250.0,244.0,244.0,244.0,248.0,249.0,243.0,242.0,238.0,242.0,242.0,238.0,236.0,240.0,243.0,242.0,234.0,239.0,244.0,246.0,243.0,239.0,241.0,246.0,246.0,245.0,239.0,240.0,247.0,248.0,246.0,241.0,243.0,248.0,248.0,245.0,238.0,241.0,243.0,246.0,243.0,237.0,240.0,244.0,245.0,242.0,235.0,241.0,247.0,243.0,242.0,235.0,244.0,247.0,242.0,242.0,236.0,245.0,248.0,244.0,243.0,234.0,246.0,251.0,245.0,246.0,244.0,250.0,250.0,246.0,249.0,254.0,257.0,257.0,245.0,244.0,241.0,246.0,254.0,241.0,245.0,242.0,252.0,251.0,244.0,241.0,255.0,253.0,251.0,246.0,248.0,241.0,233.0,237.0,230.0,234.0,233.0,229.0,232.0,224.0,224.0,233.0,232.0,227.0,220.0,234.0,239.0,246.0,246.0,249.0,253.0,256.0,253.0,244.0,224.0,236.0,240.0,235.0,233.0,224.0,236.0,236.0,229.0,235.0,225.0,234.0,244.0,242.0,247.0,237.0,249.0,251.0,239.0,246.0,249.0,258.0,259.0,252.0,248.0,243.0,252.0,257.0,252.0,255.0,243.0,250.0,255.0,246.0,248.0,245.0,252.0,254.0,240.0,242.0,241.0,244.0,246.0,231.0,238.0,239.0,240.0,244.0,235.0,240.0,244.0,247.0,250.0,242.0,250.0,254.0,250.0,249.0,244.0,249.0,251.0,248.0,244.0,237.0,246.0,252.0,246.0,244.0,246.0,248.0,260.0,259.0,255.0,258.0,262.0,267.0,268.0,270.0,263.0,266.0,287.0,281.0,271.0,269.0,280.0,281.0,279.0,276.0,271.0,277.0,275.0,275.0,270.0,274.0,277.0,280.0,275.0,271.0,270.0,274.0,279.0,272.0,268.0,270.0,270.0,267.0,265.0,264.0,268.0,276.0,269.0,266.0,267.0,267.0,266.0,264.0,257.0,256.0,268.0,269.0,263.0,256.0,256.0,260.0,260.0,257.0,254.0,257.0,256.0,257.0,256.0,249.0,253.0,259.0,262.0,258.0,249.0,251.0,255.0,251.0,253.0,246.0,247.0,254.0,250.0,250.0,243.0,253.0,258.0,255.0,253.0,244.0,252.0,258.0,249.0,248.0,247.0,259.0,260.0,251.0,251.0,251.0,254.0,256.0,245.0,247.0,241.0,254.0,256.0,245.0,250.0,242.0,250.0,253.0,242.0,245.0,243.0,249.0,251.0,243.0,247.0,243.0,248.0,253.0,238.0,240.0,239.0,246.0,244.0,235.0,240.0,248.0,247.0,248.0,236.0,243.0,244.0,244.0,246.0,235.0,243.0,245.0,245.0,249.0,237.0,243.0,249.0,242.0,246.0,238.0,243.0,248.0,237.0,241.0,233.0,244.0,250.0,239.0,242.0,230.0,239.0,246.0,237.0,241.0,233.0,240.0,244.0,236.0,240.0,234.0,239.0,248.0,238.0,242.0,233.0,240.0,245.0,233.0,237.0,233.0,240.0,244.0,234.0,238.0,235.0,241.0,242.0,231.0,232.0,231.0,235.0,238.0,225.0,232.0,232.0,235.0,237.0,228.0,231.0,239.0,236.0,238.0,229.0,236.0,240.0,239.0,240.0,229.0,233.0,238.0,237.0,237.0,232.0,234.0,240.0,238.0,238.0,229.0,235.0,241.0,236.0,239.0,229.0,236.0,241.0,239.0,236.0,226.0,233.0,241.0,235.0,236.0,228.0,240.0,243.0,237.0,236.0,234.0,241.0,246.0,240.0,240.0,232.0,239.0,245.0,237.0,238.0,236.0,243.0,242.0,235.0,238.0,238.0,242.0,239.0,237.0,237.0,239.0,241.0,243.0,237.0,238.0,240.0,246.0,246.0,240.0,241.0,245.0,246.0,244.0,238.0,239.0,241.0,249.0,247.0,240.0,243.0,243.0,247.0,244.0,237.0,241.0,245.0,242.0,240.0,234.0,240.0,246.0,242.0,242.0,234.0,240.0,246.0,244.0,241.0,239.0,244.0,247.0,242.0,243.0,240.0,248.0,249.0,244.0,243.0,241.0,246.0,248.0,244.0,242.0,237.0,246.0,248.0,244.0,244.0,238.0,247.0,249.0,243.0,244.0,240.0,250.0,250.0,247.0,245.0,242.0,249.0,249.0,245.0,243.0,242.0,250.0,247.0,240.0,241.0,246.0,247.0,245.0,241.0,241.0,243.0,247.0,245.0,239.0,241.0,242.0,247.0,243.0,236.0,242.0,247.0,244.0,243.0,238.0,242.0,247.0,243.0,243.0,236.0,244.0,248.0,247.0,243.0,237.0,244.0,247.0,246.0,243.0,237.0,245.0,247.0,244.0,243.0,236.0,241.0,247.0,246.0,244.0,239.0,243.0,248.0,245.0,243.0,240.0,250.0,248.0,242.0,244.0,240.0,249.0,247.0,244.0,242.0,241.0,248.0,249.0,243.0,243.0,242.0,247.0,244.0,239.0,241.0,249.0,251.0,246.0,240.0,242.0,246.0,249.0,246.0,238.0,241.0,245.0,247.0,243.0,241.0,240.0,245.0,247.0,243.0,240.0,240.0,247.0,245.0,244.0,239.0,242.0,248.0,250.0,247.0,240.0,243.0,249.0,247.0,243.0,239.0,247.0,249.0,245.0,244.0,239.0,243.0,248.0,243.0,242.0,236.0,243.0,247.0,241.0,240.0,237.0,245.0,244.0,239.0,241.0,240.0,247.0,244.0,241.0,239.0,240.0,246.0,247.0,241.0,241.0,243.0,247.0,247.0,240.0,240.0,242.0,246.0,245.0,241.0,242.0,240.0,249.0,247.0,240.0,242.0,241.0,247.0,245.0,238.0,240.0,245.0,247.0,243.0,238.0,240.0,247.0,244.0,243.0,236.0,240.0,247.0,246.0,241.0,235.0,240.0,245.0,243.0,240.0,237.0,245.0,249.0,244.0,243.0,242.0,246.0,250.0,246.0,244.0,237.0,246.0,248.0,243.0,243.0,237.0,245.0,248.0,240.0,241.0,235.0,246.0,246.0,244.0,242.0,238.0,247.0,248.0,245.0,242.0,239.0,247.0,248.0,241.0,243.0,246.0,248.0,246.0,240.0,240.0,241.0,247.0,244.0,238.0,240.0,242.0,247.0,246.0,239.0,241.0,247.0,245.0,243.0,239.0,242.0,248.0,245.0,243.0,236.0,241.0,247.0,245.0,242.0,236.0,243.0,247.0,246.0,243.0,236.0,244.0,246.0,245.0,243.0,235.0,240.0,246.0,245.0,242.0,238.0,243.0,247.0,245.0,242.0,236.0,248.0,247.0,240.0,241.0,238.0,247.0,248.0,244.0,242.0,239.0,246.0,247.0,241.0,239.0,240.0,245.0,244.0,237.0,239.0,244.0,246.0,242.0,237.0,239.0,241.0,246.0,243.0,237.0,238.0,242.0,244.0,242.0,237.0,239.0,241.0,242.0,240.0,236.0,237.0,243.0,242.0,242.0,235.0,237.0,244.0,244.0,244.0,236.0,238.0,245.0,243.0,240.0,233.0,241.0,244.0,241.0,239.0,233.0,239.0,246.0,242.0,242.0,235.0,241.0,246.0,242.0,240.0,236.0,245.0,245.0,236.0,239.0,237.0,244.0,243.0,239.0,238.0,238.0,244.0,244.0,237.0,238.0,239.0,242.0,244.0,236.0,237.0,239.0,242.0,245.0,237.0,238.0,236.0,244.0,245.0,236.0,238.0,238.0,246.0,243.0,236.0,238.0,243.0,243.0,239.0,234.0,236.0,242.0,241.0,241.0,234.0,237.0,244.0,243.0,240.0,233.0,238.0,244.0,241.0,240.0,234.0,243.0,246.0,240.0,240.0,235.0,240.0,246.0,240.0,240.0,231.0
