204.0,208.0,214.0,211.0,211.0,203.0,208.0,214.0,210.0,210.0,203.0,209.0,212.0,210.0,210.0,203.0,207.0,214.0,210.0,211.0,205.0,209.0,215.0,212.0,211.0,206.0,210.0,217.0,212.0,213.0,206.0,212.0,217.0,213.0,213.0,205.0,215.0,217.0,211.0,211.0,210.0,216.0,218.0,211.0,212.0,211.0,215.0,218.0,210.0,212.0,207.0,216.0,218.0,210.0,213.0,209.0,215.0,220.0,210.0,214.0,211.0,217.0,220.0,212.0,213.0,212.0,216.0,219.0,212.0,213.0,212.0,215.0,217.0,207.0,210.0,216.0,214.0,216.0,207.0,211.0,212.0,214.0,215.0,206.0,211.0,215.0,215.0,215.0,207.0,213.0,219.0,213.0,214.0,207.0,213.0,219.0,212.0,215.0,206.0,213.0,219.0,213.0,214.0,206.0,214.0,217.0,214.0,214.0,206.0,212.0,215.0,210.0,209.0,205.0,209.0,215.0,210.0,213.0,205.0,214.0,219.0,213.0,215.0,211.0,217.0,219.0,209.0,213.0,211.0,217.0,221.0,214.0,216.0,215.0,218.0,224.0,213.0,217.0,216.0,214.0,215.0,226.0,227.0,236.0,235.0,225.0,225.0,227.0,230.0,232.0,233.0,239.0,258.0,268.0,258.0,259.0,258.0,257.0,257.0,245.0,243.0,235.0,236.0,240.0,239.0,244.0,238.0,248.0,258.0,253.0,250.0,239.0,246.0,249.0,241.0,241.0,234.0,249.0,249.0,238.0,240.0,242.0,243.0,245.0,234.0,236.0,228.0,233.0,236.0,223.0,224.0,224.0,230.0,233.0,222.0,222.0,227.0,236.0,241.0,232.0,235.0,235.0,233.0,236.0,224.0,228.0,228.0,230.0,226.0,231.0,246.0,241.0,231.0,252.0,243.0,247.0,250.0,256.0,263.0,254.0,249.0,255.0,251.0,256.0,250.0,249.0,252.0,247.0,243.0,231.0,235.0,242.0,237.0,236.0,229.0,242.0,251.0,244.0,247.0,237.0,242.0,250.0,243.0,250.0,251.0,256.0,255.0,245.0,245.0,243.0,251.0,253.0,245.0,247.0,239.0,250.0,256.0,244.0,245.0,243.0,250.0,250.0,239.0,239.0,234.0,241.0,244.0,236.0,237.0,235.0,241.0,243.0,237.0,242.0,239.0,246.0,245.0,236.0,237.0,244.0,240.0,240.0,232.0,234.0,237.0,241.0,239.0,233.0,236.0,241.0,246.0,241.0,235.0,238.0,244.0,240.0,238.0,234.0,244.0,246.0,241.0,242.0,236.0,242.0,253.0,248.0,245.0,237.0,243.0,248.0,244.0,242.0,234.0,243.0,244.0,239.0,239.0,236.0,240.0,247.0,241.0,240.0,234.0,239.0,246.0,238.0,239.0,234.0,240.0,243.0,235.0,237.0,235.0,238.0,238.0,232.0,233.0,233.0,237.0,240.0,230.0,231.0,233.0,235.0,233.0,224.0,228.0,236.0,234.0,235.0,225.0,229.0,230.0,232.0,236.0,226.0,230.0,232.0,231.0,228.0,222.0,224.0,229.0,226.0,227.0,221.0,223.0,229.0,225.0,225.0,216.0,219.0,224.0,223.0,221.0,215.0,220.0,225.0,219.0,217.0,213.0,222.0,223.0,217.0,218.0,213.0,218.0,221.0,216.0,215.0,210.0,215.0,219.0,213.0,215.0,212.0,218.0,217.0,210.0,213.0,213.0,217.0,218.0,213.0,214.0,216.0,218.0,221.0,216.0,218.0,218.0,219.0,219.0,212.0,213.0,218.0,219.0,220.0,214.0,217.0,218.0,221.0,222.0,212.0,215.0,216.0,220.0,222.0,213.0,215.0,221.0,217.0,215.0,208.0,210.0,217.0,213.0,214.0,205.0,212.0,218.0,215.0,215.0,208.0,213.0,219.0,214.0,213.0,209.0,216.0,218.0,212.0,214.0,211.0,215.0,219.0,212.0,212.0,209.0,214.0,219.0,211.0,214.0,208.0,217.0,220.0,212.0,214.0,210.0,217.0,220.0,215.0,214.0,210.0,217.0,219.0,211.0,213.0,212.0,217.0,216.0,206.0,209.0,215.0,214.0,214.0,207.0,210.0,213.0,214.0,217.0,207.0,212.0,215.0,216.0,216.0,206.0,211.0,217.0,212.0,212.0,206.0,212.0,219.0,212.0,215.0,206.0,213.0,222.0,217.0,217.0,208.0,215.0,219.0,214.0,215.0,207.0,214.0,218.0,214.0,214.0,207.0,213.0,219.0,213.0,214.0,207.0,213.0,219.0,213.0,214.0,209.0,215.0,219.0,208.0,213.0,209.0,216.0,219.0,211.0,212.0,212.0,215.0,219.0,209.0,211.0,212.0,215.0,218.0,208.0,211.0,218.0,216.0,216.0,207.0,210.0,214.0,215.0,216.0,207.0,212.0,216.0,214.0,216.0,208.0,211.0,216.0,214.0,214.0,207.0,210.0,217.0,214.0,218.0,208.0,211.0,218.0,216.0,216.0,207.0,212.0,219.0,213.0,213.0,206.0,213.0,219.0,212.0,213.0,208.0,212.0,219.0,212.0,213.0,205.0,213.0,218.0,211.0,213.0,211.0,214.0,218.0,208.0,213.0,211.0,216.0,217.0,209.0,211.0,212.0,216.0,219.0,210.0,211.0,214.0,215.0,219.0,209.0,213.0,215.0,216.0,219.0,209.0,212.0,212.0,216.0,218.0,209.0,213.0,213.0,216.0,217.0,208.0,210.0,217.0,214.0,214.0,209.0,212.0,219.0,215.0,217.0,208.0,213.0,220.0,216.0,217.0,208.0,212.0,219.0,214.0,213.0,209.0,215.0,218.0,212.0,214.0,209.0,214.0,219.0,211.0,212.0,205.0,214.0,218.0,212.0,214.0,208.0,216.0,221.0,212.0,215.0,210.0,217.0,220.0,215.0,215.0,210.0,218.0,220.0,214.0,213.0,213.0,218.0,220.0,213.0,214.0,217.0,219.0,219.0,211.0,213.0,215.0,219.0,217.0,211.0,214.0,215.0,218.0,218.0,210.0,214.0,220.0,217.0,216.0,210.0,213.0,220.0,215.0,216.0,209.0,214.0,220.0,216.0,216.0,208.0,215.0,219.0,218.0,218.0,210.0,217.0,220.0,218.0,216.0,208.0,213.0,220.0,215.0,216.0,210.0,215.0,221.0,217.0,216.0,211.0,218.0,221.0,213.0,215.0,211.0,219.0,221.0,215.0,216.0,212.0,219.0,221.0,214.0,215.0,213.0,218.0,219.0,211.0,214.0,219.0,220.0,219.0,212.0,215.0,216.0,220.0,219.0,211.0,214.0,217.0,218.0,217.0,212.0,214.0,218.0,219.0,218.0,213.0,215.0,219.0,219.0,221.0,213.0,214.0,221.0,219.0,219.0,211.0,214.0,220.0,217.0,216.0,209.0,218.0,220.0,217.0,215.0,210.0,214.0,220.0,216.0,216.0,209.0,214.0,220.0,215.0,215.0,212.0,218.0,220.0,212.0,215.0,213.0,218.0,220.0,214.0,215.0,213.0,218.0,220.0,214.0,214.0,214.0,217.0,219.0,212.0,213.0,215.0,217.0,221.0,212.0,214.0,212.0,220.0,220.0,212.0,215.0,213.0,217.0,220.0,211.0,213.0,218.0,217.0,217.0,211.0,214.0,218.0,215.0,217.0,210.0,212.0,219.0,216.0,217.0,208.0,213.0,220.0,214.0,214.0,208.0,216.0,220.0,213.0,213.0,208.0,212.0,218.0,211.0,214.0,207.0,214.0,219.0,213.0,215.0,207.0,216.0,220.0,213.0,215.0,208.0,216.0,221.0,215.0,216.0,209.0,218.0,220.0,215.0,216.0,211.0,217.0,220.0,212.0,213.0,218.0,219.0,220.0,211.0,215.0,213.0,219.0,220.0,212.0,214.0,215.0,219.0,219.0,211.0,214.0,220.0,217.0,216.0,210.0,213.0,219.0,216.0,218.0,211.0,215.0,220.0,218.0,219.0,210.0,215.0,219.0,218.0,218.0,210.0,216.0,219.0,218.0,217.0,209.0,213.0,221.0,217.0,216.0,211.0,213.0,220.0,217.0,216.0,209.0,218.0,220.0,213.0,216.0,211.0,219.0,221.0,216.0,216.0,211.0,219.0,222.0,215.0,215.0,213.0,220.0,221.0,213.0,214.0,219.0,219.0,221.0,212.0,214.0,216.0,219.0,220.0,212.0,216.0,217.0,219.0,219.0,214.0,214.0,218.0,220.0,220.0,214.0,217.0,219.0,219.0,221.0,213.0,215.0,219.0,220.0,220.0,212.0,215.0,221.0,218.0,218.0,211.0,219.0,223.0,220.0,219.0,213.0,216.0,223.0
243.0,251.0,254.0,253.0,249.0,242.0,250.0,253.0,252.0,250.0,244.0,252.0,254.0,255.0,252.0,241.0,249.0,254.0,254.0,252.0,248.0,252.0,259.0,253.0,254.0,246.0,253.0,257.0,254.0,253.0,248.0,257.0,257.0,259.0,252.0,248.0,259.0,259.0,257.0,257.0,253.0,263.0,261.0,256.0,256.0,255.0,261.0,263.0,253.0,254.0,249.0,259.0,258.0,250.0,254.0,250.0,260.0,260.0,253.0,256.0,252.0,262.0,260.0,256.0,256.0,253.0,261.0,261.0,255.0,256.0,255.0,261.0,257.0,250.0,255.0,260.0,262.0,259.0,252.0,257.0,256.0,260.0,255.0,251.0,256.0,258.0,261.0,256.0,249.0,256.0,262.0,256.0,256.0,250.0,258.0,261.0,256.0,256.0,249.0,259.0,259.0,257.0,254.0,249.0,259.0,260.0,257.0,255.0,249.0,259.0,258.0,254.0,252.0,247.0,255.0,257.0,254.0,254.0,248.0,257.0,261.0,255.0,258.0,252.0,258.0,258.0,251.0,255.0,252.0,262.0,262.0,256.0,257.0,254.0,258.0,262.0,252.0,257.0,256.0,261.0,261.0,275.0,280.0,287.0,290.0,282.0,288.0,291.0,289.0,289.0,291.0,303.0,324.0,323.0,307.0,305.0,310.0,312.0,308.0,289.0,294.0,285.0,289.0,290.0,287.0,303.0,292.0,308.0,312.0,310.0,308.0,285.0,291.0,298.0,286.0,279.0,268.0,290.0,297.0,283.0,288.0,291.0,292.0,291.0,278.0,283.0,268.0,276.0,276.0,257.0,253.0,253.0,263.0,261.0,249.0,252.0,254.0,277.0,283.0,273.0,274.0,273.0,276.0,277.0,264.0,268.0,261.0,266.0,259.0,265.0,269.0,261.0,258.0,263.0,256.0,253.0,252.0,269.0,277.0,265.0,258.0,256.0,269.0,268.0,259.0,258.0,260.0,264.0,251.0,247.0,252.0,254.0,253.0,246.0,238.0,250.0,260.0,265.0,263.0,254.0,265.0,271.0,271.0,274.0,277.0,288.0,286.0,278.0,280.0,276.0,283.0,279.0,274.0,275.0,268.0,279.0,281.0,273.0,274.0,277.0,287.0,284.0,274.0,275.0,265.0,276.0,275.0,271.0,270.0,266.0,275.0,271.0,271.0,274.0,270.0,281.0,275.0,267.0,270.0,272.0,276.0,273.0,268.0,271.0,269.0,275.0,270.0,261.0,265.0,267.0,276.0,271.0,262.0,270.0,269.0,273.0,268.0,267.0,276.0,273.0,273.0,272.0,269.0,279.0,280.0,281.0,274.0,267.0,277.0,274.0,275.0,271.0,263.0,274.0,269.0,270.0,269.0,264.0,273.0,273.0,276.0,272.0,269.0,277.0,278.0,279.0,273.0,269.0,281.0,276.0,272.0,274.0,270.0,280.0,271.0,276.0,272.0,273.0,282.0,279.0,270.0,270.0,269.0,274.0,267.0,265.0,270.0,274.0,279.0,272.0,267.0,272.0,269.0,276.0,273.0,268.0,273.0,272.0,275.0,269.0,266.0,267.0,268.0,274.0,268.0,268.0,269.0,272.0,272.0,267.0,266.0,269.0,271.0,276.0,268.0,267.0,271.0,272.0,274.0,268.0,264.0,274.0,270.0,269.0,266.0,262.0,269.0,268.0,266.0,262.0,259.0,270.0,267.0,264.0,261.0,259.0,268.0,263.0,257.0,261.0,258.0,266.0,261.0,258.0,259.0,258.0,264.0,261.0,259.0,256.0,256.0,259.0,258.0,250.0,254.0,256.0,263.0,258.0,254.0,256.0,256.0,269.0,260.0,259.0,259.0,262.0,270.0,263.0,260.0,262.0,267.0,263.0,261.0,253.0,258.0,262.0,258.0,258.0,249.0,256.0,260.0,260.0,259.0,250.0,258.0,261.0,255.0,255.0,250.0,260.0,260.0,252.0,253.0,250.0,257.0,261.0,252.0,254.0,249.0,259.0,258.0,254.0,254.0,249.0,261.0,259.0,255.0,257.0,252.0,262.0,261.0,254.0,255.0,251.0,260.0,259.0,252.0,253.0,252.0,256.0,260.0,250.0,253.0,255.0,257.0,254.0,248.0,252.0,250.0,257.0,254.0,248.0,253.0,253.0,259.0,255.0,246.0,251.0,253.0,251.0,249.0,243.0,251.0,255.0,249.0,251.0,246.0,254.0,257.0,256.0,254.0,245.0,254.0,254.0,253.0,252.0,245.0,255.0,254.0,254.0,252.0,247.0,254.0,257.0,254.0,254.0,246.0,254.0,257.0,252.0,254.0,248.0,259.0,258.0,250.0,253.0,250.0,260.0,259.0,254.0,255.0,251.0,260.0,258.0,253.0,252.0,249.0,256.0,258.0,248.0,252.0,254.0,255.0,254.0,244.0,249.0,248.0,253.0,251.0,244.0,249.0,250.0,253.0,253.0,245.0,247.0,247.0,251.0,249.0,241.0,248.0,254.0,250.0,259.0,251.0,254.0,256.0,261.0,255.0,249.0,255.0,257.0,257.0,254.0,247.0,258.0,255.0,254.0,251.0,248.0,254.0,255.0,253.0,252.0,246.0,257.0,257.0,252.0,251.0,247.0,257.0,254.0,248.0,250.0,246.0,254.0,250.0,247.0,249.0,245.0,255.0,252.0,250.0,250.0,250.0,259.0,256.0,250.0,251.0,253.0,259.0,257.0,250.0,252.0,250.0,260.0,255.0,249.0,253.0,250.0,257.0,254.0,247.0,250.0,253.0,253.0,252.0,246.0,250.0,252.0,255.0,254.0,247.0,253.0,254.0,257.0,252.0,246.0,254.0,254.0,254.0,251.0,248.0,259.0,256.0,255.0,252.0,249.0,256.0,255.0,252.0,251.0,246.0,256.0,256.0,254.0,253.0,250.0,262.0,260.0,255.0,256.0,253.0,263.0,260.0,260.0,256.0,251.0,262.0,259.0,254.0,253.0,249.0,260.0,255.0,253.0,254.0,254.0,259.0,255.0,249.0,252.0,251.0,258.0,253.0,249.0,253.0,252.0,261.0,255.0,251.0,254.0,256.0,257.0,255.0,249.0,255.0,258.0,259.0,256.0,251.0,258.0,260.0,259.0,255.0,248.0,256.0,257.0,259.0,257.0,249.0,259.0,257.0,256.0,254.0,247.0,253.0,256.0,253.0,253.0,246.0,252.0,256.0,255.0,254.0,248.0,258.0,257.0,250.0,254.0,249.0,260.0,261.0,255.0,253.0,249.0,259.0,257.0,253.0,254.0,250.0,259.0,256.0,249.0,251.0,254.0,257.0,256.0,247.0,250.0,249.0,255.0,255.0,244.0,251.0,248.0,254.0,251.0,246.0,248.0,248.0,251.0,251.0,243.0,247.0,248.0,253.0,253.0,244.0,248.0,249.0,251.0,250.0,241.0,246.0,247.0,245.0,248.0,240.0,250.0,248.0,248.0,245.0,241.0,248.0,249.0,247.0,246.0,240.0,248.0,248.0,245.0,246.0,240.0,249.0,249.0,240.0,244.0,240.0,253.0,249.0,246.0,247.0,244.0,251.0,251.0,243.0,244.0,241.0,249.0,247.0,242.0,243.0,242.0,249.0,248.0,241.0,243.0,240.0,250.0,249.0,242.0,245.0,240.0,251.0,248.0,242.0,244.0,245.0,250.0,245.0,242.0,244.0,246.0,245.0,248.0,238.0,242.0,243.0,246.0,243.0,235.0,240.0,241.0,242.0,241.0,235.0,248.0,245.0,246.0,243.0,239.0,247.0,247.0,248.0,244.0,240.0,249.0,248.0,244.0,244.0,239.0,248.0,247.0,244.0,244.0,239.0,250.0,247.0,245.0,245.0,238.0,248.0,245.0,243.0,243.0,238.0,249.0,246.0,241.0,242.0,242.0,251.0,247.0,242.0,245.0,243.0,253.0,249.0,244.0,247.0,245.0,254.0,249.0,245.0,247.0,249.0,253.0,249.0,245.0,248.0,248.0,253.0,250.0,244.0,251.0,250.0,257.0,251.0,244.0,251.0,247.0,253.0,248.0,242.0,250.0,247.0,250.0,247.0,241.0,247.0,248.0,251.0,247.0,242.0,247.0,247.0,249.0,245.0,241.0,251.0,250.0,246.0,247.0,242.0,252.0,250.0,247.0,245.0,240.0,249.0,244.0,245.0,244.0,239.0,251.0,246.0,243.0,244.0,245.0,253.0,249.0,245.0,246.0,244.0,252.0,249.0,242.0,245.0,243.0,253.0,248.0,245.0,246.0,244.0,252.0,246.0,243.0,244.0,245.0,247.0,249.0,240.0,243.0,243.0,249.0,248.0,239.0,242.0,243.0,248.0,243.0,238.0,246.0,244.0,248.0,244.0,239.0,246.0,247.0
220.0,222.0,226.0,227.0,219.0,218.0,220.0,223.0,225.0,217.0,217.0,221.0,225.0,226.0,219.0,217.0,219.0,227.0,227.0,220.0,220.0,222.0,227.0,228.0,220.0,221.0,224.0,228.0,228.0,221.0,220.0,226.0,227.0,230.0,222.0,219.0,228.0,228.0,226.0,220.0,224.0,231.0,229.0,227.0,221.0,224.0,230.0,226.0,223.0,220.0,218.0,229.0,225.0,221.0,219.0,219.0,226.0,224.0,221.0,218.0,218.0,225.0,220.0,219.0,216.0,217.0,223.0,221.0,220.0,215.0,219.0,224.0,218.0,215.0,216.0,222.0,223.0,217.0,212.0,216.0,219.0,221.0,215.0,211.0,213.0,219.0,220.0,215.0,209.0,215.0,221.0,219.0,214.0,211.0,218.0,221.0,218.0,215.0,212.0,220.0,221.0,220.0,214.0,211.0,220.0,222.0,221.0,214.0,212.0,221.0,222.0,219.0,214.0,212.0,216.0,221.0,219.0,214.0,210.0,220.0,222.0,219.0,215.0,214.0,221.0,217.0,212.0,212.0,214.0,222.0,218.0,217.0,215.0,215.0,219.0,219.0,212.0,211.0,219.0,227.0,224.0,226.0,231.0,235.0,238.0,231.0,237.0,228.0,226.0,229.0,228.0,227.0,235.0,248.0,237.0,235.0,230.0,225.0,227.0,213.0,210.0,206.0,210.0,215.0,212.0,221.0,212.0,226.0,234.0,229.0,229.0,214.0,221.0,228.0,217.0,215.0,217.0,231.0,230.0,222.0,219.0,222.0,220.0,221.0,210.0,217.0,208.0,212.0,214.0,205.0,203.0,210.0,215.0,213.0,208.0,211.0,221.0,232.0,227.0,221.0,215.0,219.0,225.0,224.0,217.0,213.0,218.0,222.0,215.0,217.0,218.0,221.0,222.0,218.0,221.0,223.0,229.0,242.0,241.0,243.0,241.0,248.0,253.0,243.0,247.0,243.0,253.0,262.0,249.0,246.0,250.0,250.0,250.0,241.0,238.0,248.0,279.0,273.0,264.0,253.0,265.0,271.0,265.0,262.0,266.0,276.0,273.0,253.0,249.0,245.0,246.0,252.0,237.0,233.0,227.0,231.0,240.0,221.0,229.0,222.0,228.0,235.0,216.0,225.0,216.0,224.0,239.0,220.0,231.0,226.0,224.0,234.0,214.0,224.0,221.0,223.0,228.0,208.0,217.0,225.0,218.0,231.0,211.0,221.0,225.0,220.0,226.0,208.0,218.0,229.0,223.0,230.0,213.0,220.0,233.0,217.0,224.0,208.0,224.0,233.0,216.0,227.0,212.0,224.0,238.0,222.0,227.0,212.0,221.0,234.0,219.0,228.0,214.0,224.0,232.0,216.0,227.0,217.0,222.0,235.0,216.0,227.0,213.0,224.0,242.0,221.0,231.0,224.0,228.0,239.0,219.0,232.0,229.0,229.0,244.0,222.0,236.0,235.0,232.0,248.0,223.0,235.0,235.0,229.0,240.0,219.0,229.0,240.0,228.0,244.0,224.0,233.0,240.0,230.0,243.0,223.0,233.0,240.0,226.0,234.0,215.0,225.0,236.0,222.0,237.0,218.0,226.0,238.0,222.0,238.0,217.0,226.0,237.0,223.0,236.0,216.0,228.0,241.0,222.0,234.0,224.0,231.0,243.0,223.0,237.0,229.0,232.0,246.0,225.0,237.0,224.0,232.0,247.0,224.0,233.0,229.0,229.0,242.0,220.0,232.0,229.0,225.0,238.0,218.0,227.0,231.0,224.0,240.0,216.0,225.0,228.0,221.0,234.0,212.0,221.0,228.0,221.0,234.0,212.0,219.0,222.0,221.0,232.0,210.0,222.0,221.0,216.0,228.0,207.0,215.0,228.0,213.0,221.0,204.0,212.0,223.0,208.0,219.0,200.0,209.0,218.0,207.0,214.0,198.0,207.0,216.0,201.0,204.0,198.0,204.0,212.0,196.0,200.0,198.0,200.0,208.0,193.0,198.0,192.0,200.0,207.0,191.0,198.0,191.0,201.0,206.0,191.0,198.0,193.0,201.0,205.0,195.0,196.0,194.0,201.0,207.0,194.0,199.0,197.0,202.0,203.0,193.0,195.0,205.0,203.0,202.0,192.0,197.0,201.0,203.0,203.0,194.0,199.0,205.0,205.0,203.0,196.0,202.0,209.0,205.0,203.0,198.0,204.0,211.0,207.0,206.0,200.0,209.0,213.0,212.0,208.0,203.0,212.0,215.0,213.0,210.0,206.0,215.0,217.0,216.0,211.0,207.0,214.0,218.0,216.0,212.0,209.0,215.0,221.0,217.0,214.0,214.0,223.0,218.0,217.0,216.0,218.0,226.0,220.0,223.0,219.0,224.0,230.0,227.0,227.0,222.0,227.0,233.0,225.0,226.0,225.0,232.0,235.0,228.0,231.0,230.0,235.0,240.0,231.0,232.0,232.0,238.0,242.0,233.0,237.0,233.0,240.0,243.0,233.0,237.0,233.0,240.0,243.0,236.0,238.0,236.0,243.0,247.0,237.0,241.0,240.0,245.0,247.0,237.0,241.0,247.0,247.0,248.0,240.0,243.0,245.0,247.0,250.0,241.0,243.0,248.0,248.0,251.0,241.0,247.0,254.0,244.0,249.0,243.0,248.0,254.0,242.0,251.0,243.0,250.0,254.0,247.0,250.0,243.0,250.0,254.0,246.0,251.0,245.0,251.0,254.0,246.0,252.0,245.0,252.0,257.0,247.0,252.0,246.0,252.0,258.0,247.0,251.0,247.0,253.0,257.0,245.0,252.0,248.0,255.0,257.0,247.0,251.0,250.0,254.0,257.0,247.0,249.0,249.0,251.0,253.0,244.0,246.0,253.0,250.0,253.0,245.0,248.0,251.0,249.0,251.0,242.0,244.0,250.0,247.0,249.0,241.0,243.0,249.0,246.0,246.0,240.0,242.0,249.0,242.0,247.0,238.0,241.0,248.0,244.0,246.0,237.0,242.0,248.0,239.0,241.0,237.0,243.0,247.0,238.0,240.0,235.0,241.0,246.0,236.0,239.0,234.0,241.0,246.0,237.0,238.0,238.0,242.0,243.0,235.0,237.0,237.0,244.0,245.0,236.0,237.0,239.0,242.0,244.0,234.0,234.0,239.0,241.0,243.0,235.0,236.0,240.0,242.0,243.0,234.0,234.0,235.0,241.0,242.0,233.0,234.0,236.0,240.0,243.0,233.0,236.0,244.0,239.0,240.0,234.0,237.0,245.0,236.0,240.0,233.0,236.0,243.0,238.0,238.0,232.0,236.0,242.0,235.0,236.0,232.0,239.0,242.0,233.0,235.0,232.0,238.0,242.0,232.0,233.0,230.0,236.0,240.0,231.0,235.0,230.0,237.0,241.0,230.0,233.0,230.0,238.0,240.0,233.0,234.0,230.0,237.0,238.0,230.0,231.0,230.0,236.0,237.0,228.0,229.0,237.0,237.0,238.0,230.0,230.0,233.0,237.0,238.0,230.0,230.0,234.0,236.0,237.0,230.0,234.0,240.0,233.0,234.0,230.0,233.0,241.0,233.0,238.0,231.0,235.0,241.0,235.0,236.0,229.0,235.0,238.0,234.0,233.0,229.0,233.0,238.0,232.0,232.0,227.0,230.0,238.0,230.0,231.0,227.0,231.0,236.0,229.0,230.0,226.0,234.0,236.0,228.0,228.0,226.0,233.0,234.0,227.0,227.0,226.0,233.0,234.0,226.0,226.0,228.0,233.0,233.0,225.0,227.0,235.0,234.0,234.0,227.0,227.0,230.0,233.0,232.0,226.0,224.0,233.0,233.0,234.0,227.0,225.0,234.0,234.0,232.0,226.0,227.0,235.0,233.0,235.0,228.0,228.0,236.0,234.0,235.0,228.0,230.0,236.0,230.0,229.0,225.0,232.0,236.0,228.0,230.0,227.0,230.0,237.0,229.0,230.0,227.0,233.0,237.0,229.0,230.0,228.0,236.0,237.0,228.0,230.0,230.0,236.0,237.0,229.0,229.0,230.0,235.0,236.0,229.0,228.0,230.0,234.0,236.0,228.0,225.0,230.0,234.0,234.0,226.0,223.0,225.0,234.0,233.0,225.0,225.0,225.0,233.0,233.0,225.0,225.0,234.0,230.0,231.0,227.0,227.0,235.0,231.0,235.0,229.0,229.0,238.0,234.0,234.0,228.0,231.0,239.0,233.0,232.0,228.0,234.0,236.0,230.0,229.0,225.0,230.0,235.0,228.0,227.0,226.0,231.0,235.0,227.0,229.0,225.0,231.0,234.0,226.0,226.0,225.0,230.0,231.0,226.0,226.0,222.0,230.0,232.0,225.0,223.0,221.0,229.0,228.0,222.0,219.0,228.0,229.0,229.0,222.0,220.0,222.0,228.0
229.0,236.0,242.0,240.0,235.0,229.0,236.0,241.0,238.0,235.0,228.0,237.0,240.0,240.0,237.0,230.0,236.0,242.0,239.0,237.0,233.0,238.0,244.0,240.0,238.0,233.0,241.0,246.0,240.0,240.0,233.0,243.0,246.0,244.0,241.0,235.0,246.0,247.0,241.0,240.0,242.0,249.0,246.0,242.0,241.0,244.0,248.0,248.0,241.0,241.0,240.0,249.0,248.0,240.0,242.0,239.0,247.0,247.0,240.0,242.0,241.0,246.0,245.0,240.0,241.0,242.0,246.0,247.0,241.0,241.0,244.0,249.0,245.0,241.0,245.0,252.0,250.0,247.0,240.0,245.0,248.0,249.0,245.0,237.0,242.0,247.0,247.0,243.0,236.0,243.0,249.0,243.0,242.0,236.0,245.0,249.0,245.0,245.0,238.0,247.0,250.0,247.0,243.0,238.0,246.0,249.0,243.0,241.0,238.0,248.0,248.0,242.0,240.0,237.0,244.0,249.0,243.0,241.0,235.0,245.0,248.0,243.0,245.0,242.0,247.0,243.0,237.0,240.0,241.0,248.0,246.0,243.0,241.0,241.0,245.0,249.0,241.0,244.0,248.0,255.0,256.0,255.0,266.0,271.0,281.0,275.0,277.0,273.0,267.0,265.0,265.0,258.0,268.0,277.0,271.0,269.0,263.0,247.0,246.0,237.0,247.0,241.0,244.0,253.0,252.0,261.0,256.0,274.0,271.0,273.0,275.0,260.0,269.0,269.0,259.0,263.0,282.0,292.0,292.0,284.0,273.0,275.0,268.0,257.0,242.0,249.0,243.0,249.0,250.0,239.0,241.0,261.0,264.0,261.0,262.0,274.0,299.0,303.0,303.0,290.0,273.0,275.0,283.0,297.0,276.0,268.0,271.0,282.0,277.0,270.0,269.0,264.0,261.0,257.0,244.0,247.0,250.0,258.0,271.0,256.0,258.0,268.0,268.0,265.0,261.0,267.0,268.0,260.0,252.0,237.0,245.0,257.0,247.0,249.0,237.0,253.0,276.0,270.0,281.0,269.0,274.0,280.0,274.0,281.0,285.0,297.0,285.0,268.0,267.0,267.0,273.0,268.0,267.0,260.0,257.0,269.0,278.0,270.0,271.0,267.0,274.0,273.0,267.0,266.0,272.0,279.0,277.0,280.0,277.0,276.0,276.0,271.0,266.0,259.0,263.0,269.0,262.0,259.0,261.0,268.0,265.0,260.0,259.0,263.0,265.0,267.0,261.0,261.0,266.0,272.0,277.0,272.0,267.0,274.0,282.0,274.0,271.0,264.0,271.0,271.0,264.0,266.0,265.0,276.0,281.0,273.0,265.0,260.0,270.0,281.0,273.0,266.0,259.0,266.0,268.0,262.0,261.0,256.0,262.0,265.0,260.0,256.0,251.0,259.0,270.0,260.0,255.0,254.0,260.0,253.0,246.0,251.0,250.0,252.0,251.0,246.0,246.0,250.0,255.0,258.0,247.0,247.0,250.0,249.0,248.0,239.0,244.0,252.0,253.0,254.0,250.0,252.0,254.0,252.0,252.0,240.0,245.0,249.0,244.0,240.0,235.0,240.0,249.0,247.0,249.0,239.0,245.0,254.0,245.0,246.0,237.0,243.0,247.0,242.0,241.0,234.0,241.0,247.0,240.0,241.0,237.0,247.0,250.0,241.0,243.0,240.0,245.0,251.0,242.0,242.0,235.0,246.0,251.0,240.0,242.0,241.0,245.0,243.0,235.0,240.0,241.0,243.0,241.0,237.0,237.0,240.0,241.0,242.0,236.0,237.0,243.0,242.0,243.0,234.0,236.0,244.0,245.0,243.0,236.0,238.0,241.0,246.0,242.0,233.0,237.0,241.0,243.0,242.0,233.0,239.0,246.0,241.0,240.0,235.0,239.0,246.0,240.0,241.0,233.0,241.0,248.0,245.0,244.0,234.0,243.0,247.0,240.0,237.0,238.0,244.0,245.0,240.0,240.0,240.0,244.0,246.0,239.0,240.0,236.0,245.0,245.0,239.0,238.0,234.0,242.0,244.0,235.0,238.0,236.0,244.0,243.0,240.0,239.0,238.0,245.0,244.0,238.0,238.0,238.0,243.0,242.0,234.0,238.0,245.0,244.0,241.0,235.0,238.0,242.0,244.0,242.0,235.0,239.0,244.0,244.0,243.0,235.0,241.0,246.0,242.0,240.0,234.0,241.0,245.0,240.0,239.0,233.0,242.0,247.0,243.0,242.0,235.0,245.0,247.0,244.0,242.0,235.0,245.0,248.0,242.0,241.0,236.0,242.0,248.0,241.0,241.0,233.0,241.0,246.0,240.0,239.0,238.0,244.0,244.0,235.0,238.0,239.0,244.0,243.0,238.0,239.0,240.0,244.0,246.0,240.0,238.0,242.0,244.0,243.0,236.0,238.0,245.0,244.0,242.0,235.0,240.0,244.0,246.0,243.0,235.0,240.0,247.0,246.0,244.0,238.0,240.0,247.0,245.0,243.0,237.0,240.0,246.0,244.0,243.0,236.0,241.0,247.0,246.0,242.0,236.0,241.0,248.0,242.0,241.0,237.0,245.0,247.0,242.0,241.0,239.0,243.0,248.0,242.0,241.0,235.0,245.0,247.0,240.0,239.0,239.0,245.0,242.0,236.0,239.0,241.0,244.0,242.0,238.0,240.0,242.0,244.0,245.0,237.0,238.0,242.0,244.0,243.0,236.0,236.0,242.0,243.0,242.0,235.0,236.0,239.0,244.0,241.0,236.0,238.0,241.0,244.0,241.0,235.0,237.0,245.0,241.0,240.0,234.0,240.0,246.0,244.0,242.0,234.0,241.0,246.0,244.0,242.0,233.0,240.0,245.0,240.0,239.0,237.0,245.0,245.0,242.0,240.0,239.0,243.0,247.0,238.0,239.0,234.0,243.0,246.0,238.0,240.0,234.0,244.0,246.0,239.0,240.0,238.0,245.0,245.0,240.0,240.0,237.0,245.0,246.0,240.0,240.0,239.0,245.0,243.0,237.0,238.0,245.0,245.0,242.0,235.0,238.0,240.0,244.0,242.0,234.0,238.0,242.0,244.0,242.0,236.0,241.0,247.0,243.0,242.0,236.0,243.0,250.0,245.0,244.0,237.0,243.0,249.0,246.0,243.0,236.0,245.0,249.0,246.0,244.0,235.0,245.0,248.0,246.0,242.0,238.0,242.0,247.0,244.0,242.0,236.0,242.0,248.0,243.0,241.0,239.0,249.0,247.0,240.0,242.0,240.0,248.0,247.0,242.0,241.0,240.0,247.0,247.0,241.0,240.0,241.0,246.0,243.0,236.0,239.0,245.0,244.0,242.0,234.0,239.0,241.0,243.0,240.0,233.0,238.0,242.0,242.0,240.0,236.0,238.0,245.0,242.0,239.0,234.0,237.0,244.0,243.0,243.0,236.0,238.0,245.0,244.0,242.0,235.0,240.0,246.0,242.0,241.0,234.0,243.0,246.0,241.0,239.0,234.0,241.0,247.0,241.0,240.0,233.0,240.0,245.0,239.0,239.0,237.0,245.0,244.0,238.0,239.0,239.0,244.0,243.0,240.0,240.0,241.0,246.0,247.0,239.0,240.0,243.0,247.0,246.0,239.0,239.0,244.0,246.0,246.0,238.0,239.0,239.0,245.0,244.0,237.0,240.0,242.0,245.0,243.0,236.0,239.0,246.0,243.0,240.0,235.0,238.0,245.0,243.0,243.0,234.0,240.0,246.0,245.0,241.0,235.0,240.0,246.0,241.0,240.0,235.0,244.0,245.0,240.0,239.0,236.0,241.0,245.0,241.0,239.0,233.0,243.0,247.0,240.0,241.0,234.0,244.0,247.0,239.0,240.0,235.0,244.0,246.0,240.0,240.0,236.0,244.0,247.0,239.0,239.0,237.0,244.0,243.0,237.0,238.0,243.0,244.0,242.0,235.0,237.0,238.0,243.0,242.0,235.0,238.0,240.0,244.0,241.0,234.0,239.0,245.0,241.0,239.0,234.0,239.0,246.0,241.0,242.0,233.0,241.0,245.0,244.0,241.0,232.0,240.0,245.0,243.0,240.0,232.0,242.0,245.0,243.0,241.0,233.0,240.0,246.0,242.0,240.0,235.0,240.0,247.0,242.0,241.0,236.0,246.0,247.0,240.0,242.0,238.0,247.0,247.0,243.0,242.0,241.0,247.0,249.0,241.0,242.0,241.0,249.0,246.0,238.0,240.0,247.0,246.0,244.0,237.0,240.0,242.0,245.0,244.0,236.0,241.0,243.0,246.0,243.0,239.0,241.0,245.0,247.0,244.0,239.0,241.0,247.0,245.0,246.0,238.0,240.0,246.0,248.0,245.0,237.0,240.0,248.0,245.0,243.0,237.0,246.0,247.0,243.0,242.0,235.0,241.0,247.0
