213.0,215.0,206.0,210.0,208.0,213.0,214.0,206.0,209.0,210.0,212.0,212.0,206.0,208.0,210.0,212.0,214.0,206.0,208.0,211.0,212.0,212.0,205.0,208.0,216.0,213.0,213.0,205.0,211.0,214.0,212.0,213.0,203.0,209.0,215.0,213.0,212.0,204.0,212.0,218.0,210.0,212.0,205.0,214.0,218.0,210.0,213.0,207.0,215.0,218.0,212.0,212.0,208.0,215.0,219.0,212.0,213.0,211.0,217.0,219.0,213.0,214.0,211.0,215.0,219.0,211.0,212.0,206.0,214.0,218.0,210.0,212.0,212.0,216.0,215.0,206.0,211.0,213.0,215.0,216.0,209.0,211.0,214.0,215.0,218.0,208.0,212.0,215.0,215.0,215.0,207.0,212.0,220.0,215.0,215.0,207.0,214.0,219.0,215.0,215.0,207.0,213.0,218.0,214.0,215.0,208.0,213.0,219.0,215.0,215.0,209.0,214.0,219.0,213.0,216.0,208.0,214.0,220.0,217.0,216.0,209.0,215.0,220.0,214.0,215.0,212.0,219.0,220.0,213.0,213.0,213.0,216.0,219.0,210.0,213.0,209.0,217.0,220.0,212.0,215.0,215.0,220.0,221.0,215.0,220.0,224.0,223.0,220.0,216.0,221.0,223.0,220.0,215.0,207.0,214.0,225.0,229.0,230.0,224.0,224.0,231.0,226.0,224.0,215.0,218.0,220.0,223.0,226.0,216.0,218.0,233.0,229.0,226.0,215.0,217.0,225.0,216.0,218.0,213.0,226.0,228.0,222.0,223.0,215.0,222.0,228.0,225.0,229.0,231.0,235.0,240.0,235.0,232.0,231.0,236.0,234.0,227.0,226.0,230.0,230.0,233.0,227.0,226.0,225.0,231.0,232.0,225.0,230.0,230.0,235.0,234.0,228.0,235.0,233.0,240.0,241.0,235.0,235.0,235.0,233.0,239.0,234.0,234.0,233.0,238.0,237.0,230.0,226.0,227.0,224.0,222.0,216.0,225.0,227.0,230.0,230.0,222.0,227.0,233.0,234.0,228.0,220.0,227.0,231.0,229.0,234.0,225.0,232.0,236.0,233.0,232.0,226.0,230.0,232.0,230.0,227.0,223.0,227.0,235.0,229.0,228.0,222.0,229.0,233.0,227.0,228.0,225.0,228.0,231.0,223.0,222.0,218.0,225.0,230.0,222.0,223.0,221.0,228.0,227.0,220.0,223.0,220.0,221.0,223.0,218.0,222.0,223.0,226.0,226.0,217.0,219.0,220.0,221.0,220.0,214.0,218.0,225.0,222.0,219.0,212.0,218.0,222.0,220.0,219.0,212.0,217.0,222.0,221.0,219.0,217.0,218.0,223.0,221.0,220.0,215.0,218.0,224.0,219.0,217.0,209.0,215.0,220.0,218.0,216.0,208.0,214.0,222.0,215.0,216.0,212.0,220.0,221.0,215.0,214.0,212.0,216.0,220.0,213.0,214.0,209.0,217.0,221.0,214.0,215.0,215.0,219.0,219.0,212.0,214.0,215.0,217.0,217.0,212.0,213.0,217.0,218.0,220.0,213.0,215.0,219.0,220.0,219.0,211.0,213.0,218.0,219.0,218.0,211.0,212.0,214.0,218.0,217.0,209.0,214.0,214.0,218.0,217.0,209.0,213.0,219.0,214.0,215.0,209.0,213.0,219.0,214.0,216.0,208.0,214.0,219.0,217.0,215.0,209.0,215.0,220.0,214.0,214.0,213.0,219.0,221.0,214.0,214.0,214.0,217.0,219.0,212.0,214.0,209.0,217.0,220.0,211.0,215.0,210.0,217.0,219.0,210.0,214.0,211.0,217.0,218.0,212.0,213.0,212.0,217.0,221.0,212.0,213.0,213.0,217.0,217.0,209.0,211.0,218.0,217.0,217.0,209.0,213.0,216.0,216.0,217.0,209.0,213.0,216.0,217.0,216.0,208.0,214.0,219.0,213.0,214.0,207.0,214.0,219.0,212.0,214.0,206.0,214.0,218.0,213.0,213.0,206.0,214.0,219.0,214.0,214.0,207.0,215.0,218.0,213.0,214.0,208.0,213.0,219.0,214.0,215.0,209.0,215.0,221.0,213.0,213.0,211.0,217.0,218.0,209.0,212.0,211.0,216.0,217.0,212.0,212.0,213.0,217.0,219.0,211.0,213.0,214.0,217.0,216.0,208.0,211.0,218.0,216.0,215.0,208.0,213.0,215.0,215.0,215.0,207.0,213.0,217.0,216.0,216.0,210.0,212.0,218.0,215.0,214.0,209.0,212.0,218.0,214.0,217.0,208.0,213.0,217.0,217.0,214.0,208.0,214.0,218.0,213.0,214.0,208.0,216.0,218.0,213.0,213.0,209.0,216.0,218.0,213.0,213.0,207.0,215.0,219.0,212.0,212.0,211.0,217.0,218.0,210.0,214.0,214.0,217.0,217.0,212.0,213.0,216.0,217.0,219.0,210.0,212.0,215.0,217.0,218.0,209.0,212.0,216.0,217.0,217.0,210.0,211.0,213.0,217.0,217.0,209.0,214.0,214.0,216.0,216.0,208.0,212.0,218.0,214.0,214.0,207.0,211.0,218.0,213.0,216.0,207.0,213.0,219.0,216.0,216.0,209.0,214.0,219.0,214.0,214.0,211.0,218.0,220.0,213.0,214.0,211.0,215.0,219.0,213.0,214.0,208.0,215.0,219.0,212.0,215.0,209.0,217.0,219.0,211.0,214.0,209.0,217.0,218.0,212.0,213.0,210.0,216.0,220.0,211.0,213.0,211.0,216.0,217.0,209.0,212.0,216.0,216.0,218.0,210.0,212.0,215.0,216.0,217.0,209.0,213.0,215.0,217.0,216.0,208.0,213.0,219.0,214.0,214.0,209.0,214.0,220.0,214.0,215.0,207.0,216.0,220.0,215.0,215.0,208.0,214.0,218.0,215.0,214.0,206.0,215.0,217.0,213.0,214.0,206.0,212.0,219.0,214.0,213.0,207.0,212.0,218.0,214.0,213.0,210.0,218.0,219.0,211.0,214.0,211.0,218.0,219.0,213.0,214.0,213.0,218.0,220.0,212.0,214.0,214.0,217.0,217.0,210.0,212.0,219.0,218.0,216.0,208.0,213.0,216.0,216.0,217.0,209.0,212.0,216.0,216.0,215.0,210.0,213.0,218.0,216.0,216.0,210.0,213.0,219.0,215.0,218.0,209.0,212.0,218.0,215.0,215.0,208.0,212.0,219.0,215.0,215.0,208.0,216.0,219.0,214.0,215.0,209.0,215.0,220.0,213.0,214.0,207.0,214.0,220.0,212.0,213.0,210.0,215.0,217.0,207.0,212.0,211.0,216.0,216.0,210.0,211.0,214.0,216.0,218.0,211.0,212.0,214.0,216.0,218.0,209.0,210.0,214.0,215.0,217.0,210.0,210.0,210.0,216.0,217.0,207.0,212.0,212.0,216.0,216.0,208.0,211.0,217.0,215.0,214.0,208.0,211.0,218.0,213.0,216.0,207.0,211.0,217.0,214.0,215.0,206.0,212.0,218.0,212.0,213.0,208.0,215.0,219.0,211.0,213.0,210.0,213.0,218.0,212.0,212.0,207.0,215.0,219.0,211.0,213.0,207.0,214.0,219.0,210.0,213.0,207.0,215.0,218.0,213.0,213.0,209.0,215.0,219.0,212.0,214.0,210.0,216.0,218.0,209.0,211.0,215.0,214.0,217.0,208.0,209.0,212.0,215.0,216.0,208.0,211.0,213.0,216.0,217.0,207.0,211.0,219.0,214.0,214.0,208.0,212.0,219.0,214.0,215.0,206.0,213.0,218.0,215.0,214.0,207.0,214.0,218.0,216.0,215.0,207.0,215.0,219.0,214.0,215.0,206.0,212.0,219.0,214.0,214.0,207.0,214.0,218.0,213.0,214.0,208.0,215.0,218.0,208.0,213.0,208.0,214.0,217.0,212.0,212.0,209.0,215.0,218.0,209.0,212.0,210.0,214.0,217.0,206.0,210.0,215.0,215.0,215.0,206.0,210.0,213.0,215.0,216.0,207.0,211.0,214.0,215.0,215.0,208.0,211.0,215.0,214.0,215.0,208.0,210.0,217.0,213.0,217.0,207.0,210.0,216.0,215.0,216.0,207.0,211.0,217.0,214.0,215.0,207.0,214.0,218.0,212.0,214.0,207.0,213.0,218.0,211.0,214.0,205.0,212.0,219.0,211.0,212.0,208.0,215.0,217.0,207.0,212.0,209.0,215.0,216.0,210.0,211.0,212.0,215.0,219.0,210.0,212.0,213.0,215.0,219.0,210.0,213.0,214.0,216.0,218.0,210.0,211.0,210.0,216.0,219.0,209.0,213.0,211.0,215.0,217.0,207.0,211.0,217.0,214.0,214.0,207.0,211.0,217.0,213.0,216.0,207.0
30.0,30.0,30.0,31.0,30.0,29.0,32.0,30.0,30.0,31.0,29.0,31.0,31.0,30.0,31.0,32.0,32.0,31.0,31.0,32.0,30.0,31.0,31.0,32.0,32.0,33.0,32.0,32.0,32.0,32.0,32.0,33.0,32.0,33.0,33.0,32.0,33.0,32.0,34.0,32.0,33.0,33.0,33.0,33.0,35.0,32.0,34.0,33.0,33.0,34.0,33.0,34.0,32.0,33.0,32.0,32.0,33.0,33.0,33.0,34.0,33.0,34.0,33.0,33.0,34.0,33.0,34.0,34.0,34.0,34.0,35.0,34.0,35.0,34.0,35.0,33.0,34.0,34.0,34.0,34.0,34.0,34.0,34.0,34.0,33.0,33.0,33.0,33.0,33.0,33.0,32.0,32.0,33.0,32.0,32.0,33.0,32.0,33.0,32.0,33.0,32.0,32.0,34.0,32.0,33.0,32.0,32.0,33.0,33.0,32.0,32.0,32.0,33.0,32.0,32.0,32.0,32.0,32.0,32.0,33.0,31.0,32.0,32.0,33.0,32.0,32.0,31.0,33.0,32.0,33.0,32.0,32.0,32.0,32.0,33.0,32.0,32.0,33.0,32.0,33.0,34.0,32.0,34.0,34.0,35.0,37.0,37.0,37.0,36.0,37.0,37.0,36.0,35.0,35.0,34.0,34.0,33.0,34.0,33.0,34.0,32.0,32.0,33.0,31.0,32.0,33.0,32.0,32.0,31.0,32.0,32.0,31.0,33.0,31.0,32.0,32.0,31.0,32.0,33.0,31.0,32.0,32.0,31.0,32.0,32.0,32.0,30.0,32.0,31.0,32.0,32.0,33.0,32.0,32.0,31.0,33.0,32.0,33.0,32.0,32.0,32.0,31.0,32.0,32.0,33.0,32.0,32.0,31.0,32.0,32.0,33.0,32.0,32.0,32.0,31.0,32.0,32.0,32.0,32.0,32.0,32.0,31.0,32.0,33.0,32.0,32.0,32.0,32.0,32.0,33.0,32.0,31.0,32.0,32.0,32.0,32.0,32.0,32.0,32.0,31.0,32.0,32.0,33.0,32.0,32.0,32.0,31.0,32.0,33.0,32.0,32.0,32.0,32.0,33.0,32.0,33.0,32.0,32.0,33.0,31.0,32.0,33.0,32.0,32.0,32.0,31.0,32.0,32.0,33.0,32.0,33.0,32.0,33.0,33.0,34.0,33.0,34.0,33.0,34.0,33.0,34.0,34.0,34.0,35.0,34.0,35.0,35.0,36.0,36.0,38.0,39.0,41.0,40.0,42.0,42.0,42.0,43.0,42.0,42.0,47.0,44.0,46.0,43.0,43.0,41.0,40.0,40.0,38.0,38.0,38.0,38.0,37.0,37.0,34.0,34.0,33.0,33.0,32.0,32.0,31.0,30.0,31.0,31.0,30.0,29.0,31.0,30.0,29.0,30.0,30.0,29.0,30.0,28.0,30.0,29.0,29.0,29.0,29.0,29.0,28.0,29.0,29.0,29.0,28.0,30.0,28.0,29.0,29.0,29.0,29.0,29.0,29.0,28.0,29.0,29.0,29.0,29.0,30.0,28.0,30.0,29.0,30.0,29.0,29.0,30.0,30.0,30.0,29.0,30.0,29.0,30.0,30.0,30.0,30.0,31.0,29.0,31.0,30.0,31.0,30.0,30.0,30.0,31.0,31.0,31.0,31.0,31.0,31.0,31.0,31.0,30.0,31.0,31.0,31.0,31.0,32.0,31.0,31.0,30.0,31.0,31.0,32.0,32.0,30.0,32.0,31.0,31.0,31.0,33.0,32.0,31.0,32.0,32.0,32.0,33.0,32.0,32.0,32.0,31.0,32.0,32.0,32.0,32.0,32.0,33.0,32.0,32.0,34.0,32.0,33.0,32.0,32.0,32.0,33.0,32.0,32.0,33.0,31.0,32.0,32.0,32.0,32.0,32.0,32.0,32.0,32.0,33.0,32.0,32.0,32.0,32.0,32.0,33.0,32.0,32.0,32.0,32.0,33.0,32.0,33.0,32.0,32.0,33.0,31.0,33.0,33.0,32.0,32.0,32.0,31.0,32.0,32.0,33.0,32.0,32.0,32.0,32.0,33.0,33.0,32.0,32.0,33.0,33.0,32.0,33.0,33.0,32.0,33.0,31.0,32.0,32.0,32.0,32.0,32.0,32.0,33.0,32.0,34.0,32.0,32.0,32.0,31.0,32.0,32.0,32.0,32.0,32.0,31.0,32.0,32.0,33.0,32.0,32.0,32.0,31.0,32.0,33.0,32.0,31.0,32.0,31.0,32.0,32.0,33.0,32.0,33.0,32.0,32.0,31.0,32.0,32.0,32.0,32.0,32.0,32.0,33.0,33.0,32.0,32.0,31.0,32.0,32.0,33.0,32.0,32.0,33.0,31.0,32.0,33.0,32.0,32.0,32.0,31.0,33.0,32.0,32.0,32.0,32.0,32.0,32.0,32.0,33.0,32.0,33.0,32.0,33.0,32.0,33.0,32.0,32.0,32.0,31.0,32.0,32.0,33.0,32.0,32.0,32.0,32.0,32.0,33.0,32.0,32.0,33.0,31.0,33.0,32.0,32.0,32.0,32.0,33.0,32.0,32.0,34.0,32.0,32.0,33.0,33.0,33.0,33.0,33.0,33.0,33.0,33.0,32.0,33.0,33.0,32.0,33.0,33.0,32.0,32.0,33.0,33.0,32.0,33.0,32.0,32.0,33.0,32.0,32.0,33.0,33.0,33.0,32.0,34.0,32.0,33.0,33.0,32.0,33.0,33.0,32.0,33.0,32.0,33.0,33.0,32.0,33.0,32.0,33.0,33.0,32.0,32.0,33.0,32.0,33.0,32.0,33.0,33.0,33.0,33.0,32.0,33.0,31.0,32.0,33.0,33.0,32.0,32.0,33.0,33.0,32.0,32.0,32.0,33.0,33.0,31.0,33.0,33.0,33.0,32.0,33.0,33.0,33.0,32.0,33.0,32.0,32.0,32.0,33.0,33.0,33.0,33.0,32.0,33.0,33.0,32.0,33.0,33.0,32.0,33.0,33.0,33.0,32.0,33.0,32.0,32.0,32.0,32.0,32.0,33.0,32.0,32.0,33.0,32.0,32.0,33.0,33.0,32.0,32.0,33.0,32.0,32.0,32.0,32.0,33.0,32.0,33.0,33.0,33.0,33.0,32.0,32.0,33.0,32.0,33.0,34.0,32.0,33.0,32.0,33.0,32.0,33.0,33.0,32.0,33.0,33.0,33.0,32.0,33.0,32.0,33.0,32.0,33.0,33.0,34.0,32.0,32.0,33.0,32.0,33.0,32.0,32.0,32.0,32.0,33.0,32.0,32.0,34.0,32.0,33.0,33.0,32.0,33.0,32.0,32.0,32.0,32.0,33.0,33.0,33.0,33.0,32.0,33.0,32.0,33.0,33.0,33.0,32.0,32.0,33.0,33.0,33.0,33.0,33.0,33.0,33.0,32.0,33.0,32.0,33.0,33.0,32.0,33.0,32.0,33.0,34.0,32.0,32.0,33.0,33.0,33.0,32.0,32.0,32.0,33.0,32.0,32.0,33.0,33.0,32.0,33.0,32.0,32.0,32.0,33.0,32.0,32.0,32.0,31.0,32.0,33.0,32.0,32.0,32.0,31.0,32.0,31.0,33.0,32.0,32.0,33.0,31.0,32.0,33.0,32.0,32.0,32.0,32.0,32.0,32.0,34.0,32.0,33.0,32.0,32.0,33.0,33.0,32.0,32.0,32.0,31.0,32.0,32.0,33.0,32.0,33.0,31.0,32.0,33.0,33.0,32.0,32.0,33.0,33.0,32.0,33.0,32.0,33.0,33.0,31.0,32.0,32.0,32.0,32.0,32.0,32.0,33.0,32.0,34.0,32.0,33.0,32.0,32.0,32.0,32.0,33.0,32.0,33.0,33.0,33.0,32.0,33.0,32.0,33.0,32.0,33.0,33.0,33.0,33.0,32.0,32.0,31.0,32.0,33.0,32.0,32.0,33.0,31.0,33.0,32.0,33.0,32.0,32.0,33.0,32.0,32.0,33.0,32.0,32.0,32.0,32.0,33.0,32.0,33.0,31.0,32.0,31.0,32.0,32.0,33.0,32.0,32.0,32.0,31.0,31.0,32.0,32.0,32.0,32.0,31.0,32.0,32.0,33.0,32.0,32.0,32.0,33.0,32.0,33.0,32.0,32.0,32.0,31.0,32.0,32.0,32.0,32.0,32.0,33.0,32.0,32.0,33.0,32.0,32.0,32.0,31.0,32.0,32.0,32.0,32.0,33.0,33.0,32.0,32.0,33.0,32.0,33.0,32.0,32.0,32.0,33.0,32.0,31.0,32.0,31.0,32.0,32.0,32.0,32.0,33.0,31.0,33.0,32.0,33.0,32.0,32.0,33.0,31.0
217.0,212.0,209.0,208.0,210.0,216.0,210.0,208.0,207.0,213.0,217.0,210.0,211.0,209.0,214.0,218.0,213.0,210.0,208.0,213.0,217.0,210.0,208.0,211.0,216.0,217.0,211.0,208.0,214.0,216.0,216.0,210.0,206.0,210.0,217.0,217.0,210.0,207.0,216.0,216.0,213.0,211.0,208.0,217.0,216.0,213.0,210.0,209.0,216.0,214.0,214.0,210.0,209.0,217.0,216.0,214.0,211.0,211.0,219.0,218.0,215.0,210.0,213.0,217.0,217.0,214.0,211.0,209.0,219.0,218.0,214.0,211.0,215.0,221.0,213.0,210.0,211.0,216.0,219.0,214.0,211.0,209.0,216.0,218.0,213.0,209.0,209.0,215.0,216.0,210.0,206.0,212.0,217.0,217.0,210.0,206.0,215.0,217.0,217.0,210.0,206.0,211.0,217.0,215.0,209.0,206.0,210.0,216.0,214.0,210.0,207.0,214.0,217.0,214.0,210.0,206.0,213.0,217.0,216.0,210.0,207.0,215.0,217.0,214.0,210.0,213.0,221.0,218.0,215.0,212.0,217.0,221.0,218.0,216.0,212.0,214.0,224.0,220.0,216.0,215.0,219.0,224.0,214.0,207.0,208.0,211.0,210.0,207.0,209.0,216.0,221.0,218.0,215.0,211.0,214.0,217.0,214.0,212.0,203.0,208.0,215.0,211.0,211.0,201.0,203.0,207.0,206.0,200.0,190.0,195.0,204.0,201.0,201.0,195.0,204.0,210.0,208.0,205.0,196.0,208.0,212.0,207.0,206.0,202.0,214.0,216.0,211.0,210.0,208.0,219.0,222.0,218.0,213.0,216.0,229.0,224.0,224.0,225.0,229.0,227.0,224.0,223.0,221.0,220.0,227.0,228.0,222.0,223.0,226.0,234.0,227.0,226.0,224.0,230.0,240.0,234.0,235.0,230.0,233.0,234.0,227.0,230.0,225.0,230.0,236.0,225.0,229.0,230.0,233.0,235.0,222.0,216.0,225.0,230.0,236.0,231.0,229.0,230.0,238.0,244.0,231.0,231.0,240.0,235.0,238.0,231.0,230.0,237.0,234.0,235.0,230.0,232.0,240.0,237.0,245.0,234.0,233.0,234.0,236.0,238.0,230.0,232.0,239.0,237.0,239.0,233.0,235.0,235.0,238.0,239.0,232.0,233.0,240.0,239.0,242.0,234.0,239.0,247.0,236.0,239.0,236.0,239.0,244.0,236.0,240.0,236.0,241.0,245.0,238.0,236.0,232.0,235.0,236.0,226.0,226.0,229.0,235.0,234.0,226.0,222.0,227.0,229.0,228.0,219.0,216.0,220.0,227.0,226.0,218.0,220.0,220.0,226.0,226.0,218.0,217.0,220.0,225.0,222.0,217.0,212.0,218.0,221.0,222.0,214.0,210.0,216.0,222.0,216.0,213.0,212.0,218.0,217.0,210.0,207.0,207.0,209.0,212.0,203.0,203.0,199.0,207.0,211.0,200.0,201.0,203.0,204.0,204.0,193.0,198.0,202.0,200.0,202.0,192.0,195.0,201.0,197.0,206.0,189.0,194.0,201.0,198.0,204.0,186.0,194.0,204.0,197.0,209.0,190.0,199.0,204.0,201.0,213.0,195.0,208.0,212.0,208.0,222.0,203.0,213.0,229.0,210.0,225.0,209.0,222.0,237.0,218.0,237.0,217.0,230.0,245.0,227.0,245.0,227.0,238.0,254.0,231.0,248.0,243.0,243.0,260.0,236.0,252.0,251.0,250.0,269.0,245.0,260.0,251.0,256.0,273.0,248.0,267.0,256.0,259.0,277.0,250.0,269.0,260.0,259.0,277.0,252.0,267.0,261.0,257.0,276.0,249.0,264.0,262.0,255.0,272.0,247.0,256.0,266.0,250.0,267.0,241.0,252.0,257.0,245.0,261.0,237.0,250.0,255.0,242.0,256.0,235.0,245.0,257.0,235.0,249.0,231.0,241.0,254.0,231.0,247.0,228.0,238.0,249.0,229.0,242.0,224.0,232.0,242.0,222.0,234.0,219.0,227.0,236.0,219.0,228.0,218.0,222.0,232.0,214.0,222.0,209.0,217.0,227.0,208.0,216.0,209.0,212.0,219.0,199.0,208.0,205.0,206.0,213.0,198.0,202.0,202.0,201.0,209.0,192.0,198.0,199.0,197.0,203.0,187.0,194.0,205.0,196.0,199.0,186.0,193.0,199.0,195.0,198.0,185.0,192.0,200.0,193.0,196.0,188.0,191.0,200.0,194.0,196.0,187.0,193.0,202.0,193.0,197.0,187.0,193.0,201.0,198.0,197.0,188.0,197.0,203.0,196.0,197.0,193.0,204.0,205.0,199.0,198.0,197.0,203.0,206.0,199.0,198.0,193.0,204.0,205.0,199.0,199.0,202.0,208.0,204.0,200.0,201.0,205.0,210.0,205.0,204.0,203.0,208.0,212.0,209.0,205.0,203.0,209.0,214.0,210.0,208.0,207.0,215.0,218.0,212.0,211.0,210.0,215.0,221.0,215.0,214.0,215.0,219.0,224.0,217.0,216.0,217.0,224.0,224.0,217.0,217.0,220.0,225.0,225.0,220.0,218.0,224.0,227.0,231.0,223.0,222.0,228.0,228.0,230.0,223.0,226.0,235.0,231.0,232.0,226.0,230.0,234.0,232.0,234.0,228.0,230.0,237.0,233.0,236.0,230.0,232.0,240.0,234.0,236.0,231.0,233.0,242.0,234.0,239.0,231.0,234.0,240.0,236.0,238.0,231.0,235.0,242.0,232.0,237.0,232.0,240.0,244.0,234.0,238.0,235.0,240.0,244.0,234.0,238.0,234.0,240.0,246.0,235.0,238.0,238.0,241.0,244.0,236.0,238.0,240.0,242.0,245.0,237.0,239.0,243.0,242.0,247.0,237.0,238.0,244.0,246.0,248.0,237.0,240.0,246.0,246.0,249.0,239.0,242.0,244.0,247.0,249.0,239.0,242.0,242.0,244.0,247.0,239.0,242.0,249.0,240.0,244.0,237.0,241.0,248.0,239.0,246.0,238.0,242.0,249.0,242.0,245.0,239.0,242.0,248.0,237.0,241.0,237.0,244.0,247.0,236.0,240.0,238.0,243.0,249.0,238.0,240.0,237.0,245.0,247.0,236.0,243.0,237.0,244.0,247.0,236.0,239.0,236.0,243.0,244.0,235.0,237.0,235.0,240.0,242.0,232.0,233.0,233.0,238.0,239.0,230.0,231.0,238.0,238.0,238.0,230.0,231.0,235.0,236.0,237.0,230.0,230.0,235.0,236.0,236.0,230.0,234.0,240.0,231.0,233.0,228.0,232.0,237.0,227.0,232.0,226.0,232.0,236.0,230.0,230.0,225.0,231.0,235.0,228.0,229.0,225.0,231.0,234.0,227.0,229.0,225.0,229.0,235.0,227.0,228.0,225.0,230.0,237.0,227.0,230.0,227.0,234.0,236.0,227.0,229.0,228.0,235.0,236.0,228.0,226.0,228.0,233.0,234.0,225.0,224.0,228.0,231.0,231.0,223.0,224.0,232.0,230.0,230.0,222.0,224.0,228.0,228.0,229.0,222.0,222.0,232.0,228.0,228.0,225.0,223.0,231.0,228.0,227.0,223.0,223.0,232.0,226.0,229.0,222.0,223.0,230.0,228.0,227.0,221.0,224.0,231.0,224.0,225.0,221.0,228.0,230.0,222.0,222.0,220.0,225.0,228.0,220.0,222.0,220.0,225.0,230.0,222.0,221.0,222.0,227.0,228.0,221.0,222.0,226.0,229.0,230.0,224.0,223.0,227.0,230.0,232.0,223.0,223.0,229.0,231.0,232.0,224.0,223.0,231.0,232.0,232.0,225.0,224.0,227.0,231.0,232.0,224.0,225.0,228.0,231.0,231.0,224.0,225.0,233.0,228.0,226.0,222.0,224.0,232.0,225.0,229.0,222.0,224.0,231.0,227.0,227.0,223.0,225.0,230.0,223.0,223.0,222.0,229.0,232.0,223.0,223.0,222.0,227.0,231.0,224.0,224.0,222.0,229.0,232.0,223.0,227.0,223.0,230.0,233.0,224.0,228.0,224.0,233.0,234.0,227.0,229.0,226.0,232.0,236.0,226.0,228.0,228.0,235.0,236.0,229.0,229.0,237.0,236.0,237.0,229.0,229.0,233.0,235.0,235.0,227.0,226.0,231.0,233.0,232.0,225.0,228.0,235.0,228.0,229.0,225.0,228.0,234.0,226.0,230.0,224.0,230.0,234.0,229.0,230.0,225.0,231.0,235.0,229.0,231.0,226.0,232.0,235.0,228.0,230.0,225.0,228.0,235.0,228.0,228.0,225.0,227.0,235.0,227.0,228.0,225.0,233.0,235.0,226.0,228.0,227.0,234.0,234.0,228.0,227.0
239.0,237.0,228.0,231.0,233.0,237.0,236.0,226.0,231.0,235.0,238.0,235.0,230.0,231.0,236.0,237.0,238.0,229.0,232.0,238.0,238.0,237.0,229.0,237.0,241.0,239.0,237.0,228.0,238.0,241.0,237.0,238.0,228.0,235.0,241.0,237.0,237.0,229.0,240.0,242.0,233.0,235.0,230.0,239.0,242.0,232.0,237.0,231.0,240.0,241.0,235.0,237.0,233.0,241.0,242.0,236.0,237.0,236.0,242.0,244.0,237.0,238.0,237.0,243.0,245.0,238.0,239.0,235.0,245.0,247.0,239.0,240.0,243.0,245.0,243.0,235.0,239.0,243.0,244.0,242.0,236.0,239.0,245.0,243.0,244.0,235.0,238.0,245.0,243.0,241.0,232.0,242.0,246.0,242.0,240.0,235.0,243.0,247.0,243.0,241.0,235.0,241.0,246.0,242.0,240.0,234.0,241.0,247.0,242.0,240.0,236.0,243.0,248.0,241.0,242.0,234.0,242.0,247.0,243.0,240.0,234.0,243.0,246.0,239.0,239.0,239.0,243.0,246.0,238.0,240.0,241.0,245.0,244.0,237.0,238.0,239.0,249.0,248.0,241.0,247.0,251.0,256.0,249.0,235.0,239.0,239.0,241.0,238.0,248.0,257.0,269.0,263.0,261.0,266.0,267.0,266.0,261.0,258.0,249.0,256.0,258.0,257.0,262.0,256.0,256.0,262.0,256.0,246.0,233.0,237.0,245.0,245.0,246.0,237.0,250.0,250.0,250.0,242.0,234.0,246.0,249.0,243.0,245.0,246.0,258.0,258.0,246.0,253.0,243.0,255.0,260.0,251.0,250.0,253.0,263.0,270.0,263.0,271.0,266.0,258.0,258.0,255.0,260.0,257.0,259.0,260.0,244.0,250.0,251.0,257.0,258.0,251.0,253.0,252.0,260.0,264.0,252.0,252.0,247.0,248.0,254.0,247.0,249.0,250.0,248.0,246.0,239.0,247.0,249.0,247.0,238.0,225.0,238.0,247.0,245.0,245.0,232.0,242.0,251.0,250.0,248.0,239.0,253.0,250.0,242.0,243.0,235.0,244.0,248.0,238.0,243.0,236.0,249.0,255.0,257.0,258.0,248.0,247.0,253.0,247.0,245.0,242.0,248.0,252.0,243.0,244.0,240.0,239.0,246.0,238.0,238.0,233.0,243.0,245.0,239.0,237.0,239.0,244.0,242.0,233.0,239.0,242.0,244.0,243.0,239.0,243.0,246.0,250.0,251.0,244.0,247.0,252.0,248.0,248.0,238.0,248.0,252.0,248.0,245.0,235.0,244.0,243.0,237.0,237.0,229.0,236.0,242.0,238.0,238.0,231.0,238.0,244.0,239.0,238.0,231.0,238.0,244.0,239.0,241.0,231.0,240.0,245.0,243.0,242.0,233.0,244.0,249.0,242.0,242.0,240.0,245.0,248.0,239.0,240.0,240.0,244.0,246.0,240.0,240.0,237.0,244.0,245.0,238.0,239.0,243.0,246.0,244.0,236.0,242.0,246.0,248.0,244.0,240.0,241.0,246.0,246.0,247.0,239.0,242.0,248.0,248.0,244.0,237.0,241.0,246.0,245.0,243.0,237.0,241.0,244.0,246.0,243.0,237.0,241.0,245.0,246.0,244.0,236.0,242.0,247.0,243.0,241.0,236.0,244.0,248.0,242.0,242.0,235.0,245.0,248.0,245.0,243.0,235.0,245.0,247.0,243.0,242.0,242.0,248.0,248.0,241.0,242.0,243.0,247.0,247.0,240.0,241.0,238.0,248.0,246.0,239.0,241.0,240.0,246.0,247.0,238.0,240.0,240.0,246.0,244.0,241.0,241.0,242.0,247.0,248.0,240.0,241.0,245.0,247.0,245.0,238.0,243.0,249.0,248.0,244.0,236.0,241.0,244.0,245.0,243.0,235.0,240.0,244.0,245.0,242.0,235.0,244.0,249.0,243.0,243.0,236.0,245.0,249.0,242.0,243.0,236.0,245.0,248.0,244.0,243.0,236.0,246.0,247.0,244.0,241.0,239.0,246.0,247.0,243.0,242.0,239.0,244.0,248.0,242.0,242.0,236.0,246.0,248.0,244.0,242.0,242.0,248.0,246.0,240.0,244.0,244.0,249.0,246.0,243.0,243.0,245.0,249.0,247.0,242.0,242.0,246.0,248.0,245.0,238.0,243.0,249.0,248.0,245.0,237.0,244.0,247.0,247.0,243.0,237.0,241.0,248.0,246.0,242.0,238.0,242.0,248.0,246.0,242.0,238.0,242.0,248.0,245.0,244.0,237.0,243.0,248.0,247.0,243.0,238.0,247.0,248.0,245.0,243.0,241.0,251.0,251.0,246.0,244.0,243.0,249.0,251.0,244.0,244.0,238.0,249.0,249.0,243.0,243.0,245.0,250.0,246.0,240.0,242.0,245.0,249.0,245.0,241.0,242.0,246.0,248.0,247.0,241.0,242.0,247.0,248.0,245.0,239.0,242.0,247.0,248.0,245.0,239.0,241.0,244.0,248.0,244.0,238.0,241.0,244.0,247.0,246.0,237.0,242.0,248.0,245.0,242.0,236.0,244.0,249.0,244.0,244.0,237.0,245.0,249.0,247.0,243.0,237.0,246.0,249.0,245.0,242.0,242.0,249.0,248.0,243.0,243.0,243.0,247.0,249.0,242.0,243.0,239.0,249.0,248.0,242.0,243.0,240.0,249.0,248.0,241.0,242.0,241.0,249.0,248.0,245.0,245.0,244.0,250.0,250.0,245.0,243.0,244.0,248.0,245.0,239.0,241.0,247.0,249.0,246.0,239.0,243.0,245.0,248.0,245.0,238.0,241.0,246.0,247.0,244.0,237.0,244.0,248.0,245.0,243.0,237.0,245.0,249.0,245.0,244.0,238.0,247.0,249.0,248.0,245.0,238.0,248.0,250.0,248.0,245.0,240.0,248.0,250.0,247.0,245.0,241.0,246.0,251.0,246.0,244.0,238.0,247.0,249.0,245.0,243.0,241.0,248.0,246.0,240.0,243.0,243.0,248.0,246.0,242.0,242.0,242.0,248.0,247.0,240.0,241.0,244.0,248.0,246.0,238.0,241.0,248.0,246.0,243.0,237.0,243.0,246.0,247.0,244.0,237.0,241.0,247.0,246.0,243.0,238.0,241.0,247.0,246.0,243.0,237.0,241.0,248.0,245.0,244.0,237.0,242.0,249.0,247.0,244.0,236.0,243.0,247.0,242.0,242.0,237.0,246.0,248.0,243.0,242.0,239.0,243.0,247.0,242.0,242.0,236.0,245.0,248.0,242.0,242.0,244.0,249.0,246.0,239.0,242.0,243.0,247.0,243.0,240.0,240.0,243.0,246.0,246.0,239.0,240.0,244.0,246.0,245.0,237.0,240.0,245.0,246.0,244.0,237.0,238.0,239.0,247.0,243.0,235.0,239.0,240.0,244.0,243.0,234.0,238.0,245.0,241.0,239.0,233.0,239.0,245.0,240.0,240.0,233.0,239.0,247.0,244.0,241.0,233.0,241.0,245.0,240.0,238.0,236.0,243.0,244.0,238.0,239.0,237.0,241.0,245.0,237.0,238.0,232.0,245.0,245.0,236.0,240.0,235.0,243.0,246.0,236.0,239.0,236.0,245.0,246.0,239.0,240.0,236.0,243.0,245.0,237.0,238.0,237.0,243.0,242.0,233.0,236.0,243.0,243.0,241.0,232.0,237.0,240.0,242.0,241.0,233.0,238.0,241.0,243.0,241.0,232.0,239.0,244.0,238.0,238.0,231.0,239.0,245.0,240.0,241.0,232.0,242.0,247.0,242.0,242.0,232.0,242.0,246.0,242.0,241.0,234.0,243.0,245.0,241.0,240.0,235.0,239.0,246.0,240.0,239.0,232.0,240.0,244.0,239.0,240.0,237.0,245.0,245.0,236.0,239.0,238.0,245.0,244.0,239.0,240.0,239.0,246.0,246.0,239.0,240.0,241.0,245.0,243.0,235.0,239.0,247.0,245.0,244.0,236.0,242.0,244.0,246.0,243.0,235.0,239.0,245.0,244.0,242.0,238.0,239.0,245.0,244.0,242.0,237.0,240.0,248.0,246.0,245.0,238.0,241.0,248.0,247.0,244.0,236.0,242.0,248.0,243.0,242.0,236.0,247.0,248.0,243.0,241.0,238.0,243.0,248.0,242.0,243.0,234.0,244.0,247.0,241.0,241.0,240.0,247.0,246.0,239.0,242.0,242.0,246.0,245.0,240.0,241.0,242.0,246.0,246.0,240.0,240.0,244.0,247.0,247.0,240.0,241.0,245.0,247.0,246.0,239.0,240.0,240.0,247.0,244.0,238.0,240.0,242.0,247.0,244.0,238.0,241.0,248.0,246.0,243.0,237.0,241.0,247.0,245.0,244.0,237.0
