209.0,210.0,204.0,211.0,214.0,209.0,210.0,203.0,211.0,215.0,213.0,210.0,204.0,211.0,215.0,211.0,212.0,206.0,214.0,216.0,211.0,211.0,207.0,212.0,217.0,212.0,211.0,206.0,213.0,218.0,212.0,213.0,207.0,215.0,219.0,213.0,214.0,208.0,216.0,218.0,214.0,214.0,212.0,220.0,223.0,214.0,215.0,216.0,221.0,220.0,211.0,213.0,218.0,219.0,219.0,210.0,212.0,213.0,215.0,213.0,203.0,210.0,210.0,213.0,214.0,208.0,213.0,220.0,224.0,226.0,219.0,220.0,223.0,226.0,221.0,206.0,211.0,211.0,221.0,224.0,215.0,219.0,247.0,241.0,238.0,226.0,231.0,242.0,249.0,248.0,235.0,237.0,237.0,232.0,235.0,231.0,250.0,259.0,253.0,260.0,248.0,254.0,253.0,238.0,236.0,232.0,244.0,238.0,231.0,235.0,236.0,241.0,241.0,237.0,238.0,234.0,239.0,237.0,232.0,229.0,226.0,230.0,231.0,228.0,233.0,237.0,246.0,244.0,241.0,239.0,249.0,255.0,248.0,245.0,238.0,246.0,249.0,251.0,254.0,258.0,267.0,266.0,259.0,252.0,253.0,252.0,260.0,257.0,249.0,254.0,255.0,255.0,249.0,239.0,248.0,256.0,255.0,252.0,242.0,246.0,247.0,243.0,241.0,241.0,243.0,252.0,248.0,243.0,234.0,240.0,244.0,234.0,236.0,231.0,235.0,241.0,239.0,238.0,232.0,242.0,246.0,243.0,247.0,244.0,243.0,249.0,243.0,247.0,245.0,248.0,248.0,239.0,242.0,247.0,251.0,249.0,236.0,236.0,238.0,242.0,241.0,232.0,232.0,238.0,234.0,238.0,229.0,224.0,237.0,233.0,236.0,230.0,233.0,241.0,239.0,243.0,233.0,236.0,254.0,247.0,246.0,237.0,240.0,246.0,244.0,243.0,237.0,236.0,237.0,234.0,234.0,223.0,222.0,237.0,230.0,230.0,223.0,233.0,236.0,228.0,230.0,223.0,233.0,237.0,230.0,229.0,222.0,229.0,233.0,224.0,227.0,228.0,232.0,234.0,222.0,226.0,231.0,232.0,232.0,221.0,225.0,223.0,229.0,229.0,216.0,223.0,220.0,222.0,225.0,211.0,217.0,218.0,221.0,226.0,215.0,218.0,222.0,224.0,230.0,216.0,220.0,222.0,219.0,222.0,212.0,216.0,222.0,219.0,219.0,209.0,215.0,219.0,216.0,220.0,210.0,215.0,220.0,218.0,218.0,208.0,215.0,220.0,211.0,213.0,207.0,214.0,218.0,209.0,214.0,207.0,210.0,214.0,209.0,211.0,207.0,215.0,220.0,214.0,217.0,212.0,220.0,222.0,214.0,216.0,212.0,216.0,221.0,212.0,213.0,210.0,216.0,220.0,211.0,213.0,215.0,220.0,222.0,212.0,214.0,216.0,216.0,217.0,212.0,215.0,216.0,217.0,220.0,211.0,213.0,216.0,215.0,215.0,206.0,215.0,221.0,216.0,215.0,207.0,214.0,218.0,215.0,216.0,206.0,209.0,215.0,212.0,212.0,206.0,212.0,217.0,214.0,214.0,210.0,216.0,223.0,216.0,217.0,210.0,218.0,221.0,218.0,216.0,208.0,217.0,221.0,215.0,216.0,218.0,223.0,224.0,217.0,217.0,216.0,221.0,222.0,215.0,217.0,213.0,220.0,222.0,212.0,214.0,221.0,221.0,220.0,212.0,215.0,218.0,218.0,217.0,211.0,211.0,216.0,214.0,217.0,208.0,211.0,216.0,216.0,215.0,208.0,209.0,216.0,215.0,214.0,209.0,212.0,214.0,216.0,213.0,205.0,210.0,214.0,214.0,213.0,206.0,213.0,216.0,209.0,210.0,204.0,213.0,218.0,212.0,214.0,207.0,215.0,218.0,214.0,213.0,209.0,215.0,218.0,211.0,213.0,212.0,216.0,218.0,210.0,211.0,214.0,217.0,218.0,212.0,213.0,212.0,219.0,219.0,211.0,215.0,212.0,216.0,218.0,211.0,213.0,213.0,221.0,219.0,214.0,215.0,218.0,221.0,224.0,216.0,216.0,218.0,220.0,219.0,212.0,215.0,222.0,219.0,218.0,210.0,215.0,219.0,218.0,215.0,206.0,210.0,216.0,215.0,214.0,207.0,214.0,223.0,217.0,217.0,210.0,217.0,221.0,215.0,217.0,209.0,218.0,225.0,220.0,219.0,213.0,220.0,224.0,218.0,216.0,212.0,219.0,222.0,215.0,216.0,212.0,215.0,219.0,214.0,213.0,210.0,217.0,220.0,216.0,218.0,217.0,221.0,221.0,213.0,216.0,218.0,221.0,220.0,216.0,213.0,215.0,218.0,218.0,212.0,212.0,215.0,217.0,217.0,210.0,214.0,219.0,217.0,215.0,208.0,215.0,218.0,217.0,217.0,210.0,216.0,221.0,219.0,217.0,212.0,215.0,221.0,216.0,215.0,213.0,217.0,223.0,218.0,219.0,211.0,217.0,224.0,221.0,219.0,210.0,217.0,221.0,216.0,217.0,213.0,222.0,223.0,216.0,217.0,215.0,217.0,220.0,214.0,215.0,209.0,217.0,225.0,216.0,217.0,219.0,220.0,219.0,213.0,216.0,222.0,223.0,221.0,215.0,216.0,220.0,218.0,220.0,212.0,214.0,220.0,221.0,220.0,213.0,215.0,220.0,220.0,217.0,210.0,212.0,215.0,218.0,216.0,209.0,214.0,214.0,215.0,214.0,208.0,212.0,218.0,215.0,213.0,208.0,213.0,222.0,216.0,219.0,210.0,217.0,221.0,219.0,217.0,211.0,217.0,220.0,215.0,214.0,214.0,218.0,221.0,214.0,214.0,213.0,213.0,216.0,211.0,211.0,208.0,216.0,219.0,211.0,215.0,210.0,216.0,218.0,209.0,213.0,211.0,217.0,218.0,215.0,215.0,214.0,218.0,221.0,213.0,214.0,216.0,220.0,219.0,213.0,216.0,221.0,220.0,221.0,213.0,216.0,219.0,220.0,219.0,211.0,215.0,223.0,223.0,222.0,213.0,218.0,223.0,218.0,217.0,212.0,218.0,222.0,216.0,217.0,211.0,218.0,221.0,218.0,217.0,211.0,221.0,224.0,219.0,218.0,213.0,221.0,223.0,218.0,218.0,212.0,216.0,221.0,216.0,215.0,209.0,216.0,221.0,216.0,216.0,215.0,221.0,221.0,214.0,216.0,215.0,220.0,219.0,216.0,214.0,216.0,219.0,221.0,214.0,215.0,218.0,220.0,219.0,212.0,216.0,222.0,221.0,220.0,212.0,218.0,221.0,221.0,219.0,211.0,214.0,219.0,221.0,223.0,216.0,218.0,223.0,221.0,218.0,213.0,216.0,223.0,214.0,215.0,208.0,213.0,221.0,220.0,218.0,211.0,215.0,219.0,219.0,218.0,213.0,222.0,222.0,217.0,216.0,213.0,221.0,222.0,216.0,216.0,210.0,218.0,222.0,216.0,217.0,216.0,222.0,221.0,213.0,216.0,216.0,220.0,218.0,213.0,213.0,217.0,220.0,220.0,212.0,214.0,216.0,217.0,219.0,213.0,216.0,219.0,220.0,220.0,213.0,214.0,215.0,218.0,217.0,210.0,213.0,214.0,217.0,218.0,209.0,213.0,219.0,215.0,214.0,207.0,211.0,218.0,213.0,215.0,206.0,212.0,218.0,217.0,216.0,209.0,214.0,218.0,213.0,213.0,211.0,217.0,218.0,208.0,210.0,209.0,213.0,217.0,211.0,211.0,206.0,214.0,216.0,207.0,210.0,207.0,215.0,218.0,209.0,213.0,209.0,216.0,218.0,213.0,214.0,211.0,217.0,220.0,212.0,213.0,212.0,218.0,223.0,213.0,216.0,220.0,221.0,219.0,211.0,214.0,217.0,219.0,218.0,211.0,215.0,217.0,219.0,219.0,209.0,214.0,219.0,215.0,215.0,209.0,208.0,215.0,210.0,212.0,204.0,212.0,216.0,214.0,217.0,207.0,216.0,218.0,215.0,215.0,207.0,215.0,218.0,216.0,220.0,210.0,216.0,221.0,217.0,216.0,209.0,215.0,220.0,214.0,215.0,211.0,219.0,221.0,212.0,214.0,212.0,218.0,219.0,214.0,213.0,212.0,218.0,219.0,212.0,214.0,214.0,218.0,218.0,212.0,217.0,222.0,220.0,220.0,211.0,214.0,217.0,218.0,220.0,210.0,214.0,219.0,217.0,217.0,210.0,213.0,217.0,215.0,215.0,210.0,213.0,219.0,216.0,217.0,210.0,213.0,220.0,217.0,218.0,210.0,215.0,219.0,216.0,216.0,210.0
33.0,32.0,32.0,33.0,33.0,33.0,33.0,32.0,33.0,33.0,33.0,33.0,33.0,34.0,32.0,33.0,33.0,33.0,32.0,34.0,33.0,33.0,33.0,33.0,33.0,33.0,34.0,32.0,33.0,34.0,33.0,33.0,34.0,32.0,33.0,32.0,33.0,33.0,33.0,33.0,32.0,33.0,33.0,32.0,33.0,33.0,32.0,33.0,33.0,34.0,32.0,34.0,32.0,32.0,33.0,33.0,33.0,33.0,33.0,33.0,32.0,33.0,33.0,33.0,34.0,32.0,33.0,33.0,33.0,33.0,32.0,33.0,32.0,32.0,33.0,33.0,33.0,33.0,32.0,33.0,31.0,32.0,33.0,33.0,32.0,32.0,33.0,33.0,32.0,34.0,33.0,33.0,33.0,33.0,33.0,33.0,34.0,32.0,33.0,33.0,33.0,32.0,34.0,32.0,32.0,33.0,33.0,33.0,32.0,33.0,32.0,32.0,34.0,33.0,33.0,34.0,32.0,33.0,33.0,33.0,32.0,33.0,33.0,32.0,33.0,33.0,33.0,33.0,33.0,32.0,33.0,33.0,33.0,32.0,33.0,32.0,33.0,33.0,32.0,33.0,33.0,33.0,33.0,32.0,32.0,32.0,33.0,34.0,32.0,32.0,33.0,31.0,33.0,33.0,32.0,32.0,32.0,33.0,33.0,33.0,34.0,32.0,33.0,32.0,33.0,32.0,33.0,32.0,32.0,33.0,32.0,32.0,32.0,32.0,30.0,32.0,31.0,32.0,32.0,33.0,32.0,31.0,32.0,31.0,32.0,33.0,32.0,32.0,32.0,31.0,32.0,32.0,33.0,32.0,32.0,31.0,31.0,31.0,33.0,32.0,32.0,31.0,31.0,32.0,32.0,32.0,31.0,32.0,31.0,32.0,32.0,32.0,32.0,33.0,31.0,32.0,32.0,33.0,32.0,32.0,32.0,32.0,32.0,33.0,33.0,32.0,33.0,32.0,33.0,32.0,33.0,32.0,32.0,33.0,33.0,32.0,33.0,32.0,32.0,32.0,33.0,32.0,32.0,34.0,32.0,33.0,33.0,33.0,33.0,33.0,32.0,33.0,32.0,33.0,33.0,33.0,33.0,32.0,33.0,33.0,33.0,33.0,34.0,33.0,32.0,33.0,32.0,32.0,33.0,32.0,32.0,32.0,31.0,33.0,33.0,33.0,32.0,33.0,33.0,33.0,32.0,33.0,32.0,32.0,32.0,33.0,32.0,32.0,33.0,32.0,33.0,33.0,33.0,32.0,33.0,32.0,33.0,32.0,33.0,32.0,33.0,32.0,32.0,32.0,32.0,32.0,33.0,32.0,31.0,32.0,31.0,33.0,32.0,33.0,32.0,31.0,32.0,31.0,32.0,33.0,32.0,32.0,32.0,32.0,32.0,32.0,33.0,30.0,32.0,32.0,32.0,31.0,32.0,32.0,32.0,32.0,31.0,31.0,32.0,32.0,31.0,32.0,31.0,32.0,32.0,33.0,32.0,31.0,32.0,32.0,31.0,33.0,32.0,32.0,33.0,31.0,32.0,32.0,32.0,32.0,32.0,31.0,32.0,32.0,33.0,32.0,32.0,32.0,31.0,33.0,32.0,32.0,32.0,32.0,33.0,32.0,32.0,33.0,32.0,33.0,32.0,33.0,33.0,34.0,32.0,32.0,32.0,33.0,32.0,33.0,33.0,32.0,33.0,33.0,33.0,33.0,34.0,32.0,32.0,33.0,32.0,33.0,34.0,32.0,33.0,32.0,32.0,33.0,33.0,34.0,32.0,33.0,33.0,33.0,33.0,33.0,32.0,33.0,32.0,33.0,32.0,33.0,33.0,32.0,33.0,32.0,33.0,33.0,33.0,32.0,33.0,32.0,32.0,32.0,34.0,32.0,32.0,33.0,31.0,33.0,32.0,33.0,32.0,32.0,32.0,32.0,32.0,33.0,32.0,32.0,32.0,33.0,32.0,33.0,32.0,32.0,32.0,33.0,32.0,33.0,32.0,32.0,32.0,31.0,32.0,32.0,33.0,32.0,32.0,32.0,32.0,32.0,33.0,32.0,32.0,33.0,31.0,32.0,32.0,33.0,32.0,32.0,32.0,31.0,32.0,33.0,32.0,32.0,32.0,32.0,32.0,32.0,32.0,32.0,32.0,33.0,32.0,33.0,33.0,32.0,32.0,32.0,33.0,32.0,33.0,32.0,32.0,32.0,31.0,32.0,33.0,32.0,32.0,32.0,32.0,33.0,32.0,33.0,32.0,32.0,32.0,31.0,33.0,32.0,32.0,32.0,32.0,33.0,32.0,32.0,34.0,32.0,33.0,32.0,33.0,32.0,33.0,32.0,32.0,33.0,33.0,32.0,32.0,32.0,32.0,32.0,32.0,32.0,32.0,33.0,32.0,32.0,32.0,32.0,32.0,32.0,32.0,32.0,33.0,32.0,33.0,32.0,32.0,33.0,32.0,32.0,32.0,32.0,33.0,32.0,32.0,31.0,31.0,32.0,31.0,32.0,32.0,32.0,31.0,31.0,32.0,32.0,32.0,31.0,31.0,31.0,30.0,32.0,32.0,31.0,31.0,31.0,31.0,32.0,32.0,31.0,31.0,31.0,32.0,31.0,33.0,31.0,31.0,31.0,31.0,31.0,32.0,31.0,31.0,31.0,31.0,31.0,31.0,31.0,30.0,31.0,31.0,31.0,32.0,32.0,32.0,32.0,31.0,31.0,31.0,31.0,31.0,30.0,32.0,31.0,31.0,31.0,32.0,32.0,31.0,31.0,31.0,31.0,31.0,31.0,31.0,32.0,31.0,31.0,32.0,32.0,32.0,32.0,31.0,31.0,31.0,33.0,30.0,32.0,31.0,31.0,31.0,32.0,32.0,31.0,32.0,31.0,32.0,32.0,32.0,31.0,32.0,31.0,32.0,32.0,33.0,32.0,32.0,32.0,32.0,32.0,32.0,31.0,32.0,32.0,31.0,32.0,32.0,33.0,32.0,32.0,32.0,31.0,32.0,32.0,32.0,32.0,32.0,33.0,32.0,32.0,32.0,32.0,32.0,32.0,32.0,32.0,33.0,32.0,32.0,33.0,32.0,32.0,33.0,33.0,32.0,33.0,32.0,33.0,33.0,33.0,32.0,33.0,33.0,33.0,32.0,33.0,33.0,33.0,34.0,33.0,34.0,33.0,34.0,34.0,33.0,34.0,33.0,33.0,35.0,32.0,34.0,33.0,33.0,33.0,33.0,34.0,33.0,33.0,33.0,33.0,33.0,34.0,32.0,33.0,33.0,33.0,32.0,34.0,33.0,32.0,32.0,33.0,33.0,33.0,32.0,32.0,33.0,32.0,33.0,32.0,34.0,32.0,32.0,33.0,32.0,33.0,33.0,32.0,33.0,32.0,33.0,33.0,32.0,33.0,32.0,33.0,33.0,33.0,32.0,33.0,32.0,33.0,33.0,32.0,32.0,33.0,33.0,32.0,32.0,32.0,32.0,33.0,33.0,32.0,33.0,32.0,32.0,31.0,33.0,32.0,32.0,33.0,31.0,32.0,32.0,32.0,32.0,32.0,31.0,32.0,32.0,33.0,32.0,32.0,32.0,31.0,32.0,33.0,32.0,32.0,32.0,32.0,32.0,32.0,32.0,32.0,32.0,31.0,33.0,32.0,33.0,32.0,32.0,33.0,31.0,32.0,33.0,32.0,32.0,33.0,31.0,33.0,32.0,33.0,32.0,32.0,32.0,32.0,33.0,33.0,32.0,33.0,32.0,31.0,33.0,32.0,33.0,32.0,33.0,33.0,32.0,32.0,33.0,32.0,33.0,31.0,33.0,32.0,34.0,32.0,32.0,33.0,31.0,32.0,32.0,32.0,32.0,32.0,33.0,34.0,32.0,34.0,32.0,33.0,33.0,31.0,33.0,33.0,32.0,32.0,33.0,33.0,33.0,32.0,33.0,32.0,32.0,33.0,32.0,32.0,33.0,32.0,33.0,33.0,33.0,32.0,32.0,33.0,32.0,32.0,32.0,32.0,32.0,33.0,32.0,32.0,32.0,32.0,32.0,33.0,32.0,32.0,33.0,31.0,33.0,32.0,32.0,32.0,32.0,32.0,32.0,32.0,33.0,32.0,32.0,32.0,31.0,32.0,32.0,32.0,32.0,32.0,33.0,32.0,32.0,33.0,32.0,32.0,32.0,32.0,32.0,33.0,33.0,32.0,33.0,31.0,32.0,32.0,33.0,32.0,32.0,33.0,33.0,32.0,33.0,32.0,32.0,33.0,31.0,33.0,33.0,33.0,33.0,32.0,33.0,33.0,33.0,33.0,32.0,32.0,33.0,33.0,33.0,33.0,32.0,33.0,33.0,33.0,32.0,33.0,34.0,32.0,33.0,32.0
230.0,224.0,223.0,228.0,228.0,230.0,223.0,223.0,230.0,229.0,232.0,223.0,222.0,230.0,227.0,229.0,222.0,222.0,230.0,228.0,229.0,223.0,225.0,228.0,229.0,230.0,223.0,223.0,229.0,231.0,231.0,225.0,226.0,233.0,231.0,233.0,227.0,226.0,235.0,233.0,237.0,228.0,232.0,242.0,238.0,237.0,231.0,237.0,243.0,236.0,236.0,232.0,238.0,240.0,233.0,232.0,228.0,233.0,236.0,229.0,229.0,227.0,230.0,235.0,226.0,225.0,223.0,232.0,234.0,225.0,226.0,223.0,230.0,237.0,232.0,226.0,221.0,225.0,230.0,221.0,217.0,224.0,249.0,247.0,239.0,237.0,245.0,248.0,254.0,247.0,252.0,256.0,253.0,246.0,252.0,251.0,260.0,268.0,255.0,248.0,241.0,250.0,251.0,237.0,230.0,221.0,222.0,213.0,214.0,226.0,224.0,230.0,238.0,220.0,224.0,219.0,227.0,236.0,222.0,219.0,213.0,210.0,219.0,203.0,214.0,215.0,226.0,223.0,203.0,215.0,229.0,234.0,242.0,231.0,229.0,240.0,234.0,241.0,239.0,244.0,255.0,248.0,250.0,233.0,241.0,244.0,248.0,246.0,234.0,237.0,239.0,226.0,226.0,214.0,237.0,255.0,254.0,246.0,236.0,232.0,230.0,220.0,224.0,223.0,228.0,245.0,237.0,234.0,221.0,224.0,218.0,206.0,207.0,201.0,205.0,209.0,212.0,211.0,209.0,221.0,233.0,230.0,232.0,228.0,231.0,239.0,235.0,231.0,228.0,228.0,231.0,222.0,226.0,230.0,238.0,232.0,222.0,223.0,231.0,238.0,236.0,228.0,233.0,242.0,234.0,235.0,224.0,223.0,243.0,239.0,241.0,229.0,231.0,241.0,240.0,245.0,237.0,241.0,262.0,258.0,254.0,240.0,242.0,253.0,245.0,239.0,234.0,231.0,236.0,235.0,238.0,222.0,219.0,228.0,213.0,216.0,204.0,215.0,217.0,199.0,205.0,200.0,216.0,218.0,206.0,215.0,203.0,214.0,222.0,206.0,212.0,216.0,214.0,222.0,204.0,212.0,223.0,222.0,226.0,205.0,212.0,213.0,217.0,227.0,209.0,220.0,216.0,215.0,221.0,201.0,209.0,212.0,212.0,223.0,205.0,213.0,213.0,211.0,226.0,205.0,216.0,221.0,213.0,225.0,207.0,216.0,230.0,216.0,229.0,210.0,224.0,232.0,222.0,238.0,219.0,231.0,241.0,228.0,241.0,225.0,237.0,251.0,227.0,242.0,230.0,239.0,253.0,230.0,249.0,236.0,242.0,259.0,237.0,252.0,243.0,246.0,263.0,240.0,255.0,247.0,250.0,268.0,245.0,258.0,252.0,252.0,267.0,242.0,255.0,243.0,249.0,265.0,239.0,253.0,251.0,243.0,261.0,239.0,254.0,256.0,247.0,263.0,242.0,254.0,260.0,246.0,266.0,239.0,251.0,254.0,242.0,258.0,236.0,245.0,260.0,238.0,253.0,233.0,242.0,252.0,235.0,249.0,230.0,238.0,252.0,232.0,246.0,228.0,238.0,250.0,230.0,243.0,226.0,236.0,251.0,231.0,244.0,227.0,239.0,248.0,231.0,240.0,224.0,234.0,245.0,224.0,233.0,229.0,228.0,239.0,218.0,225.0,224.0,225.0,231.0,213.0,220.0,214.0,218.0,229.0,206.0,214.0,218.0,211.0,219.0,201.0,209.0,215.0,208.0,214.0,198.0,203.0,211.0,202.0,212.0,195.0,200.0,209.0,203.0,208.0,191.0,199.0,209.0,203.0,208.0,193.0,198.0,204.0,201.0,204.0,188.0,197.0,203.0,198.0,201.0,190.0,199.0,208.0,197.0,201.0,192.0,202.0,211.0,200.0,204.0,193.0,205.0,210.0,203.0,203.0,197.0,206.0,210.0,200.0,199.0,201.0,205.0,207.0,199.0,199.0,206.0,209.0,212.0,205.0,204.0,206.0,214.0,212.0,206.0,209.0,208.0,216.0,214.0,211.0,212.0,216.0,221.0,215.0,215.0,214.0,218.0,222.0,222.0,218.0,217.0,221.0,225.0,218.0,216.0,218.0,225.0,227.0,219.0,218.0,223.0,228.0,230.0,222.0,219.0,221.0,229.0,232.0,223.0,221.0,227.0,229.0,230.0,225.0,223.0,231.0,230.0,231.0,226.0,227.0,236.0,234.0,239.0,232.0,233.0,242.0,241.0,240.0,234.0,236.0,245.0,241.0,242.0,235.0,238.0,241.0,242.0,245.0,237.0,238.0,244.0,242.0,242.0,236.0,241.0,247.0,238.0,240.0,237.0,242.0,247.0,237.0,243.0,235.0,241.0,245.0,237.0,241.0,237.0,244.0,246.0,237.0,239.0,241.0,245.0,248.0,237.0,239.0,243.0,246.0,249.0,241.0,240.0,240.0,246.0,248.0,238.0,240.0,240.0,246.0,247.0,238.0,239.0,241.0,244.0,246.0,239.0,242.0,245.0,247.0,252.0,240.0,242.0,248.0,248.0,251.0,243.0,246.0,254.0,247.0,250.0,243.0,248.0,251.0,246.0,248.0,240.0,242.0,250.0,246.0,250.0,243.0,250.0,255.0,244.0,247.0,242.0,250.0,253.0,243.0,248.0,242.0,249.0,252.0,242.0,245.0,241.0,249.0,254.0,243.0,247.0,243.0,250.0,254.0,241.0,247.0,242.0,248.0,253.0,245.0,245.0,243.0,248.0,252.0,241.0,241.0,242.0,247.0,250.0,241.0,242.0,245.0,247.0,247.0,241.0,240.0,245.0,245.0,249.0,237.0,238.0,244.0,242.0,243.0,236.0,241.0,247.0,241.0,242.0,236.0,241.0,244.0,237.0,240.0,234.0,236.0,243.0,237.0,241.0,237.0,239.0,246.0,238.0,240.0,234.0,239.0,245.0,236.0,243.0,235.0,240.0,245.0,243.0,241.0,235.0,241.0,246.0,236.0,239.0,237.0,243.0,246.0,237.0,238.0,237.0,241.0,244.0,238.0,238.0,236.0,244.0,246.0,236.0,236.0,240.0,242.0,244.0,236.0,235.0,242.0,241.0,240.0,233.0,233.0,240.0,236.0,239.0,231.0,230.0,238.0,239.0,239.0,231.0,232.0,240.0,238.0,239.0,232.0,233.0,236.0,237.0,238.0,232.0,232.0,240.0,240.0,240.0,233.0,236.0,242.0,235.0,235.0,230.0,235.0,241.0,232.0,239.0,233.0,238.0,243.0,238.0,239.0,235.0,240.0,245.0,236.0,238.0,239.0,244.0,248.0,236.0,239.0,242.0,245.0,249.0,240.0,240.0,239.0,246.0,247.0,238.0,242.0,238.0,244.0,245.0,236.0,238.0,237.0,243.0,244.0,237.0,238.0,240.0,244.0,248.0,236.0,235.0,239.0,241.0,240.0,233.0,234.0,243.0,238.0,237.0,231.0,232.0,238.0,238.0,239.0,231.0,231.0,239.0,238.0,239.0,233.0,239.0,246.0,235.0,237.0,231.0,236.0,243.0,233.0,237.0,232.0,240.0,244.0,238.0,239.0,234.0,240.0,245.0,237.0,238.0,234.0,241.0,245.0,238.0,239.0,236.0,240.0,246.0,236.0,237.0,235.0,240.0,244.0,234.0,235.0,234.0,239.0,241.0,232.0,233.0,234.0,239.0,239.0,233.0,232.0,235.0,239.0,241.0,232.0,232.0,236.0,239.0,239.0,233.0,236.0,244.0,240.0,238.0,232.0,235.0,237.0,235.0,236.0,228.0,228.0,236.0,233.0,233.0,229.0,232.0,241.0,236.0,236.0,232.0,235.0,243.0,238.0,242.0,235.0,237.0,243.0,241.0,238.0,231.0,234.0,241.0,233.0,234.0,232.0,239.0,242.0,233.0,233.0,232.0,237.0,241.0,233.0,232.0,230.0,237.0,240.0,231.0,230.0,233.0,237.0,238.0,231.0,230.0,235.0,237.0,236.0,231.0,230.0,239.0,239.0,242.0,235.0,233.0,239.0,240.0,241.0,231.0,232.0,240.0,240.0,239.0,233.0,232.0,233.0,237.0,238.0,231.0,232.0,235.0,238.0,238.0,231.0,233.0,241.0,235.0,238.0,235.0,237.0,244.0,236.0,241.0,234.0,237.0,243.0,238.0,239.0,235.0,239.0,243.0,234.0,235.0,234.0,242.0,244.0,234.0,235.0,235.0,241.0,244.0,236.0,234.0,233.0,241.0,243.0,233.0,236.0,233.0,240.0,242.0,231.0,235.0,232.0,242.0,241.0,234.0,238.0,237.0,241.0,244.0,234.0,234.0,237.0,240.0,241.0,234.0,234.0
233.0,234.0,227.0,235.0,240.0,234.0,236.0,229.0,239.0,241.0,237.0,236.0,230.0,239.0,241.0,236.0,234.0,231.0,239.0,242.0,237.0,237.0,234.0,239.0,244.0,237.0,236.0,229.0,240.0,244.0,237.0,237.0,234.0,242.0,245.0,239.0,240.0,235.0,245.0,246.0,243.0,242.0,240.0,250.0,253.0,242.0,243.0,249.0,251.0,251.0,244.0,245.0,249.0,250.0,246.0,240.0,242.0,247.0,251.0,247.0,241.0,243.0,247.0,249.0,248.0,240.0,244.0,252.0,254.0,249.0,245.0,244.0,251.0,258.0,256.0,245.0,247.0,249.0,246.0,245.0,238.0,252.0,265.0,262.0,260.0,245.0,258.0,265.0,272.0,268.0,264.0,267.0,268.0,267.0,273.0,275.0,288.0,288.0,281.0,268.0,269.0,273.0,283.0,268.0,258.0,249.0,258.0,247.0,251.0,269.0,270.0,274.0,277.0,264.0,261.0,260.0,270.0,279.0,262.0,258.0,256.0,255.0,257.0,242.0,252.0,266.0,277.0,267.0,250.0,266.0,285.0,287.0,279.0,269.0,269.0,277.0,271.0,284.0,299.0,297.0,302.0,290.0,293.0,300.0,305.0,304.0,305.0,292.0,282.0,279.0,279.0,265.0,269.0,266.0,303.0,335.0,338.0,328.0,323.0,309.0,302.0,281.0,289.0,291.0,291.0,310.0,308.0,304.0,292.0,283.0,266.0,253.0,255.0,243.0,246.0,253.0,254.0,257.0,257.0,266.0,279.0,278.0,275.0,269.0,269.0,288.0,294.0,292.0,282.0,276.0,285.0,272.0,269.0,263.0,268.0,261.0,244.0,250.0,261.0,271.0,279.0,269.0,275.0,292.0,276.0,284.0,262.0,264.0,276.0,265.0,270.0,256.0,266.0,277.0,286.0,306.0,293.0,293.0,313.0,305.0,297.0,283.0,289.0,308.0,286.0,283.0,272.0,267.0,273.0,276.0,288.0,267.0,261.0,277.0,270.0,268.0,260.0,267.0,261.0,251.0,254.0,255.0,269.0,258.0,249.0,256.0,248.0,260.0,262.0,254.0,254.0,256.0,259.0,257.0,247.0,252.0,265.0,265.0,258.0,250.0,252.0,258.0,262.0,257.0,250.0,249.0,251.0,253.0,245.0,236.0,235.0,237.0,249.0,250.0,245.0,247.0,246.0,245.0,246.0,239.0,241.0,249.0,247.0,244.0,234.0,243.0,246.0,246.0,242.0,233.0,244.0,248.0,248.0,247.0,242.0,248.0,255.0,249.0,245.0,240.0,250.0,251.0,246.0,245.0,242.0,251.0,249.0,240.0,240.0,239.0,245.0,247.0,246.0,247.0,243.0,251.0,256.0,250.0,248.0,249.0,255.0,253.0,247.0,248.0,250.0,255.0,255.0,248.0,250.0,246.0,251.0,250.0,246.0,246.0,250.0,253.0,250.0,243.0,246.0,250.0,252.0,249.0,246.0,247.0,253.0,253.0,250.0,246.0,246.0,254.0,253.0,249.0,242.0,252.0,254.0,253.0,250.0,244.0,252.0,255.0,252.0,248.0,243.0,248.0,255.0,250.0,249.0,244.0,251.0,255.0,254.0,252.0,245.0,254.0,257.0,252.0,251.0,245.0,256.0,257.0,254.0,250.0,244.0,255.0,255.0,249.0,248.0,249.0,255.0,253.0,248.0,247.0,249.0,255.0,254.0,248.0,247.0,245.0,254.0,252.0,247.0,245.0,252.0,252.0,250.0,243.0,246.0,252.0,252.0,248.0,246.0,246.0,252.0,252.0,251.0,245.0,246.0,253.0,253.0,249.0,242.0,246.0,252.0,253.0,250.0,242.0,246.0,249.0,251.0,246.0,238.0,243.0,251.0,249.0,246.0,240.0,248.0,251.0,247.0,246.0,241.0,251.0,256.0,250.0,249.0,243.0,252.0,254.0,252.0,249.0,246.0,254.0,255.0,251.0,247.0,249.0,253.0,251.0,245.0,246.0,249.0,254.0,253.0,247.0,248.0,248.0,256.0,251.0,244.0,246.0,246.0,252.0,249.0,242.0,244.0,246.0,250.0,248.0,245.0,248.0,250.0,254.0,255.0,248.0,252.0,254.0,256.0,250.0,244.0,249.0,253.0,253.0,248.0,242.0,247.0,251.0,251.0,248.0,242.0,246.0,253.0,251.0,247.0,241.0,251.0,253.0,249.0,247.0,243.0,252.0,254.0,248.0,246.0,242.0,251.0,252.0,249.0,250.0,246.0,255.0,255.0,251.0,249.0,247.0,254.0,254.0,247.0,247.0,246.0,250.0,253.0,247.0,246.0,241.0,250.0,251.0,245.0,245.0,247.0,251.0,247.0,240.0,245.0,246.0,249.0,246.0,242.0,242.0,245.0,247.0,246.0,240.0,241.0,247.0,245.0,243.0,236.0,243.0,247.0,246.0,242.0,236.0,246.0,250.0,247.0,244.0,238.0,243.0,251.0,247.0,245.0,240.0,245.0,251.0,248.0,244.0,238.0,246.0,250.0,246.0,246.0,240.0,247.0,251.0,248.0,246.0,237.0,249.0,251.0,245.0,245.0,245.0,251.0,251.0,244.0,244.0,246.0,248.0,250.0,242.0,243.0,239.0,248.0,250.0,243.0,244.0,248.0,249.0,246.0,238.0,242.0,247.0,249.0,247.0,241.0,243.0,247.0,245.0,245.0,239.0,240.0,246.0,246.0,245.0,238.0,242.0,248.0,247.0,244.0,237.0,240.0,244.0,248.0,246.0,237.0,241.0,248.0,247.0,245.0,236.0,243.0,248.0,244.0,244.0,237.0,246.0,249.0,241.0,243.0,235.0,244.0,248.0,244.0,241.0,235.0,245.0,248.0,243.0,242.0,244.0,249.0,248.0,242.0,242.0,245.0,246.0,246.0,239.0,242.0,239.0,248.0,246.0,238.0,241.0,239.0,246.0,246.0,238.0,241.0,242.0,247.0,245.0,241.0,242.0,242.0,247.0,249.0,241.0,241.0,246.0,246.0,245.0,235.0,242.0,247.0,245.0,243.0,235.0,241.0,245.0,245.0,244.0,236.0,240.0,247.0,244.0,243.0,235.0,244.0,248.0,243.0,244.0,237.0,247.0,249.0,241.0,242.0,235.0,243.0,245.0,241.0,241.0,235.0,246.0,248.0,241.0,240.0,237.0,245.0,246.0,241.0,242.0,239.0,243.0,249.0,241.0,241.0,235.0,248.0,250.0,243.0,243.0,243.0,249.0,245.0,238.0,241.0,242.0,245.0,244.0,240.0,241.0,244.0,248.0,247.0,238.0,241.0,244.0,245.0,243.0,235.0,241.0,247.0,246.0,243.0,236.0,245.0,246.0,246.0,245.0,236.0,241.0,248.0,244.0,242.0,236.0,240.0,246.0,242.0,242.0,234.0,240.0,245.0,240.0,241.0,234.0,241.0,247.0,245.0,242.0,233.0,244.0,247.0,242.0,241.0,240.0,249.0,249.0,242.0,241.0,240.0,245.0,248.0,241.0,241.0,236.0,247.0,248.0,241.0,241.0,244.0,248.0,244.0,238.0,240.0,244.0,248.0,244.0,238.0,240.0,245.0,246.0,245.0,240.0,242.0,246.0,249.0,247.0,239.0,242.0,249.0,250.0,249.0,240.0,244.0,246.0,252.0,247.0,240.0,243.0,247.0,249.0,245.0,237.0,242.0,248.0,244.0,242.0,236.0,244.0,248.0,244.0,244.0,235.0,243.0,250.0,246.0,244.0,236.0,246.0,249.0,242.0,243.0,242.0,249.0,250.0,243.0,243.0,243.0,247.0,248.0,241.0,242.0,237.0,248.0,248.0,240.0,243.0,241.0,249.0,249.0,241.0,244.0,241.0,249.0,248.0,243.0,245.0,244.0,250.0,250.0,243.0,242.0,244.0,247.0,245.0,239.0,242.0,248.0,247.0,245.0,237.0,242.0,247.0,248.0,245.0,238.0,242.0,246.0,248.0,245.0,237.0,245.0,250.0,246.0,244.0,237.0,246.0,251.0,246.0,246.0,239.0,250.0,253.0,249.0,249.0,241.0,250.0,253.0,249.0,247.0,242.0,250.0,253.0,248.0,247.0,243.0,246.0,252.0,246.0,245.0,238.0,247.0,250.0,245.0,244.0,242.0,250.0,248.0,242.0,245.0,245.0,250.0,247.0,243.0,244.0,245.0,250.0,249.0,243.0,244.0,247.0,249.0,245.0,240.0,245.0,251.0,250.0,246.0,240.0,247.0,250.0,252.0,248.0,240.0,244.0,252.0,250.0,247.0,243.0,245.0,250.0,250.0,245.0,240.0,243.0,249.0,247.0,245.0,241.0,244.0,252.0,250.0,247.0,240.0,247.0,252.0,247.0,245.0,241.0
