215.0,211.0,215.0,221.0,218.0,217.0,210.0,215.0,221.0,215.0,217.0,209.0,216.0,221.0,217.0,218.0,211.0,218.0,222.0,219.0,219.0,212.0,218.0,222.0,219.0,218.0,211.0,220.0,222.0,217.0,217.0,217.0,220.0,224.0,217.0,218.0,214.0,222.0,224.0,217.0,220.0,215.0,222.0,225.0,220.0,220.0,218.0,223.0,224.0,220.0,220.0,220.0,226.0,227.0,221.0,222.0,221.0,224.0,227.0,222.0,221.0,222.0,226.0,224.0,218.0,221.0,224.0,226.0,225.0,219.0,223.0,225.0,227.0,224.0,221.0,222.0,226.0,227.0,225.0,218.0,224.0,229.0,224.0,224.0,217.0,224.0,229.0,227.0,224.0,219.0,225.0,229.0,227.0,225.0,219.0,223.0,228.0,226.0,224.0,218.0,223.0,229.0,226.0,225.0,221.0,224.0,230.0,226.0,226.0,220.0,226.0,230.0,225.0,224.0,222.0,228.0,229.0,226.0,225.0,223.0,229.0,230.0,225.0,226.0,224.0,228.0,230.0,225.0,224.0,225.0,228.0,227.0,220.0,223.0,225.0,227.0,226.0,220.0,223.0,225.0,228.0,225.0,224.0,222.0,227.0,227.0,228.0,227.0,228.0,231.0,236.0,236.0,231.0,233.0,238.0,241.0,236.0,229.0,227.0,230.0,237.0,238.0,230.0,236.0,248.0,243.0,238.0,236.0,238.0,244.0,236.0,230.0,232.0,233.0,253.0,263.0,272.0,263.0,251.0,244.0,252.0,250.0,245.0,251.0,254.0,247.0,241.0,241.0,258.0,255.0,248.0,246.0,257.0,261.0,268.0,256.0,250.0,246.0,255.0,255.0,248.0,252.0,245.0,253.0,249.0,237.0,243.0,238.0,248.0,249.0,248.0,242.0,241.0,253.0,250.0,243.0,247.0,257.0,252.0,255.0,247.0,248.0,252.0,246.0,242.0,233.0,244.0,248.0,255.0,260.0,255.0,259.0,266.0,262.0,261.0,252.0,244.0,247.0,243.0,242.0,236.0,247.0,259.0,245.0,249.0,244.0,250.0,252.0,255.0,255.0,261.0,267.0,266.0,262.0,261.0,252.0,253.0,254.0,248.0,243.0,234.0,234.0,238.0,232.0,233.0,225.0,237.0,238.0,230.0,234.0,233.0,245.0,250.0,241.0,246.0,249.0,263.0,260.0,253.0,250.0,244.0,248.0,253.0,246.0,248.0,256.0,259.0,260.0,253.0,255.0,263.0,263.0,258.0,250.0,253.0,253.0,254.0,251.0,243.0,246.0,248.0,252.0,254.0,248.0,251.0,255.0,255.0,253.0,249.0,248.0,255.0,254.0,255.0,245.0,247.0,250.0,257.0,253.0,246.0,255.0,259.0,253.0,249.0,241.0,246.0,251.0,250.0,247.0,242.0,248.0,256.0,250.0,248.0,244.0,251.0,258.0,252.0,251.0,247.0,252.0,254.0,244.0,243.0,237.0,245.0,251.0,247.0,243.0,245.0,251.0,251.0,245.0,241.0,239.0,247.0,246.0,239.0,238.0,237.0,240.0,242.0,233.0,234.0,228.0,235.0,236.0,228.0,228.0,229.0,231.0,229.0,223.0,226.0,227.0,229.0,225.0,217.0,217.0,222.0,223.0,225.0,217.0,219.0,223.0,224.0,222.0,215.0,221.0,227.0,223.0,224.0,216.0,224.0,226.0,225.0,223.0,216.0,221.0,227.0,225.0,227.0,220.0,224.0,229.0,224.0,223.0,216.0,221.0,226.0,222.0,224.0,215.0,222.0,227.0,224.0,223.0,220.0,226.0,230.0,224.0,223.0,220.0,227.0,229.0,222.0,223.0,221.0,224.0,228.0,222.0,222.0,216.0,224.0,227.0,223.0,224.0,225.0,228.0,227.0,219.0,223.0,224.0,227.0,224.0,219.0,221.0,227.0,227.0,230.0,220.0,221.0,225.0,226.0,227.0,219.0,220.0,225.0,225.0,226.0,220.0,224.0,226.0,227.0,227.0,218.0,222.0,223.0,226.0,226.0,216.0,223.0,227.0,223.0,223.0,217.0,220.0,227.0,222.0,224.0,215.0,221.0,226.0,222.0,222.0,214.0,221.0,226.0,222.0,222.0,218.0,224.0,226.0,220.0,222.0,218.0,222.0,225.0,217.0,219.0,214.0,222.0,226.0,218.0,221.0,214.0,222.0,226.0,218.0,220.0,215.0,223.0,225.0,221.0,220.0,218.0,225.0,227.0,220.0,221.0,218.0,222.0,224.0,214.0,217.0,221.0,223.0,223.0,214.0,217.0,219.0,222.0,224.0,213.0,218.0,219.0,221.0,223.0,213.0,218.0,224.0,220.0,220.0,213.0,217.0,225.0,219.0,222.0,213.0,219.0,224.0,221.0,222.0,213.0,220.0,223.0,222.0,221.0,214.0,220.0,225.0,221.0,221.0,213.0,218.0,224.0,221.0,221.0,214.0,219.0,225.0,220.0,220.0,213.0,221.0,226.0,217.0,221.0,214.0,222.0,225.0,219.0,220.0,216.0,222.0,225.0,218.0,219.0,216.0,222.0,225.0,214.0,217.0,221.0,221.0,223.0,215.0,216.0,217.0,222.0,223.0,214.0,218.0,219.0,222.0,223.0,216.0,218.0,220.0,223.0,222.0,216.0,218.0,220.0,221.0,224.0,215.0,217.0,222.0,223.0,224.0,215.0,218.0,223.0,221.0,221.0,213.0,220.0,223.0,221.0,221.0,217.0,222.0,228.0,225.0,223.0,215.0,220.0,226.0,222.0,222.0,215.0,222.0,226.0,218.0,221.0,215.0,225.0,226.0,221.0,221.0,217.0,224.0,226.0,219.0,219.0,216.0,222.0,226.0,219.0,220.0,217.0,222.0,225.0,218.0,219.0,214.0,222.0,226.0,218.0,221.0,215.0,224.0,226.0,217.0,218.0,220.0,223.0,223.0,217.0,218.0,221.0,223.0,225.0,217.0,219.0,223.0,224.0,226.0,217.0,219.0,224.0,222.0,222.0,213.0,220.0,224.0,221.0,222.0,212.0,218.0,223.0,221.0,220.0,214.0,219.0,225.0,222.0,222.0,215.0,219.0,226.0,221.0,223.0,215.0,220.0,225.0,222.0,222.0,213.0,220.0,223.0,222.0,222.0,213.0,221.0,226.0,219.0,220.0,217.0,222.0,226.0,218.0,219.0,213.0,221.0,226.0,218.0,221.0,214.0,222.0,225.0,217.0,219.0,219.0,222.0,222.0,215.0,217.0,221.0,222.0,225.0,216.0,219.0,222.0,224.0,225.0,216.0,218.0,218.0,223.0,224.0,216.0,218.0,220.0,223.0,223.0,215.0,219.0,220.0,223.0,223.0,216.0,220.0,221.0,223.0,222.0,214.0,219.0,225.0,221.0,222.0,214.0,220.0,226.0,223.0,221.0,214.0,220.0,225.0,223.0,222.0,214.0,221.0,226.0,220.0,220.0,217.0,221.0,225.0,219.0,220.0,214.0,222.0,226.0,219.0,221.0,214.0,223.0,226.0,221.0,221.0,216.0,225.0,226.0,222.0,221.0,217.0,224.0,227.0,220.0,221.0,218.0,221.0,227.0,220.0,221.0,218.0,224.0,226.0,217.0,219.0,220.0,225.0,225.0,217.0,221.0,221.0,225.0,224.0,220.0,220.0,222.0,225.0,224.0,216.0,220.0,225.0,223.0,224.0,215.0,221.0,226.0,224.0,223.0,215.0,221.0,224.0,224.0,222.0,214.0,218.0,224.0,223.0,223.0,214.0,220.0,225.0,223.0,221.0,215.0,219.0,224.0,222.0,223.0,215.0,220.0,226.0,222.0,221.0,215.0,224.0,225.0,222.0,221.0,216.0,224.0,226.0,220.0,221.0,216.0,221.0,225.0,219.0,220.0,217.0,224.0,224.0,215.0,217.0,217.0,221.0,223.0,214.0,218.0,218.0,222.0,221.0,215.0,216.0,218.0,221.0,222.0,215.0,216.0,218.0,219.0,222.0,213.0,215.0,217.0,219.0,220.0,212.0,214.0,213.0,219.0,220.0,212.0,213.0,219.0,217.0,216.0,209.0,214.0,219.0,218.0,217.0,210.0,213.0,221.0,217.0,219.0,210.0,215.0,221.0,218.0,217.0,210.0,218.0,220.0,216.0,216.0,211.0,218.0,222.0,216.0,216.0,211.0,217.0,220.0,215.0,215.0,209.0,216.0,219.0,213.0,214.0,208.0,216.0,220.0,213.0,214.0,208.0,217.0,220.0,216.0,215.0,211.0,218.0,219.0,213.0,215.0,216.0,217.0,219.0,212.0,213.0,216.0,218.0,220.0,212.0,212.0,212.0,218.0,218.0,210.0,213.0,217.0,216.0,215.0
31.0,32.0,31.0,33.0,32.0,32.0,32.0,32.0,32.0,32.0,32.0,33.0,32.0,32.0,32.0,31.0,32.0,33.0,32.0,32.0,32.0,31.0,32.0,33.0,33.0,32.0,32.0,32.0,33.0,32.0,33.0,32.0,32.0,33.0,31.0,33.0,32.0,33.0,33.0,32.0,33.0,33.0,33.0,34.0,32.0,33.0,33.0,33.0,33.0,33.0,33.0,32.0,32.0,33.0,33.0,32.0,33.0,32.0,33.0,32.0,32.0,32.0,33.0,32.0,32.0,33.0,33.0,32.0,33.0,32.0,32.0,32.0,32.0,33.0,32.0,34.0,32.0,32.0,33.0,31.0,32.0,33.0,32.0,32.0,33.0,32.0,32.0,32.0,33.0,32.0,32.0,33.0,32.0,32.0,33.0,32.0,33.0,32.0,32.0,32.0,32.0,32.0,32.0,32.0,31.0,33.0,32.0,33.0,32.0,32.0,32.0,33.0,32.0,33.0,32.0,32.0,32.0,31.0,32.0,32.0,32.0,32.0,32.0,32.0,32.0,32.0,33.0,32.0,32.0,32.0,31.0,32.0,33.0,32.0,32.0,32.0,31.0,32.0,32.0,32.0,32.0,32.0,31.0,32.0,32.0,33.0,32.0,32.0,32.0,31.0,32.0,32.0,32.0,32.0,32.0,31.0,32.0,32.0,32.0,32.0,32.0,31.0,31.0,32.0,33.0,31.0,32.0,31.0,31.0,32.0,31.0,32.0,31.0,31.0,31.0,32.0,32.0,32.0,30.0,32.0,31.0,32.0,31.0,33.0,32.0,31.0,32.0,31.0,31.0,32.0,32.0,32.0,32.0,31.0,32.0,32.0,33.0,31.0,31.0,32.0,31.0,32.0,32.0,32.0,32.0,32.0,31.0,32.0,32.0,33.0,32.0,32.0,31.0,32.0,32.0,32.0,32.0,33.0,32.0,33.0,32.0,32.0,32.0,32.0,32.0,32.0,32.0,32.0,33.0,32.0,32.0,32.0,32.0,32.0,33.0,32.0,32.0,33.0,31.0,33.0,32.0,33.0,32.0,32.0,33.0,32.0,32.0,33.0,32.0,33.0,32.0,32.0,33.0,32.0,33.0,32.0,32.0,32.0,33.0,32.0,33.0,32.0,33.0,32.0,33.0,32.0,33.0,32.0,32.0,33.0,31.0,32.0,33.0,33.0,32.0,33.0,33.0,33.0,33.0,34.0,32.0,33.0,33.0,33.0,33.0,34.0,32.0,34.0,32.0,33.0,33.0,33.0,34.0,32.0,33.0,33.0,33.0,33.0,34.0,33.0,33.0,33.0,33.0,33.0,33.0,33.0,33.0,33.0,33.0,33.0,33.0,34.0,32.0,33.0,33.0,33.0,32.0,34.0,32.0,32.0,33.0,33.0,32.0,33.0,33.0,32.0,32.0,32.0,32.0,32.0,34.0,32.0,32.0,33.0,33.0,33.0,33.0,32.0,32.0,32.0,33.0,32.0,33.0,33.0,32.0,34.0,33.0,34.0,33.0,33.0,32.0,33.0,33.0,33.0,33.0,33.0,33.0,34.0,33.0,33.0,33.0,33.0,34.0,33.0,33.0,34.0,33.0,33.0,34.0,33.0,34.0,33.0,33.0,34.0,33.0,34.0,32.0,33.0,34.0,34.0,33.0,34.0,34.0,34.0,34.0,34.0,33.0,34.0,34.0,33.0,34.0,34.0,33.0,35.0,34.0,34.0,34.0,34.0,35.0,33.0,35.0,34.0,34.0,35.0,34.0,35.0,34.0,35.0,34.0,35.0,35.0,34.0,35.0,34.0,34.0,35.0,34.0,35.0,34.0,34.0,34.0,34.0,33.0,33.0,33.0,33.0,34.0,32.0,33.0,32.0,33.0,32.0,33.0,32.0,31.0,32.0,31.0,32.0,33.0,32.0,32.0,32.0,31.0,32.0,31.0,32.0,32.0,31.0,32.0,31.0,32.0,33.0,32.0,32.0,31.0,31.0,32.0,31.0,33.0,31.0,32.0,32.0,32.0,32.0,33.0,32.0,32.0,32.0,31.0,32.0,32.0,32.0,32.0,33.0,31.0,33.0,32.0,33.0,32.0,32.0,33.0,33.0,32.0,34.0,32.0,32.0,34.0,32.0,33.0,33.0,33.0,33.0,33.0,33.0,33.0,33.0,33.0,33.0,33.0,33.0,33.0,33.0,33.0,33.0,32.0,32.0,33.0,32.0,32.0,33.0,32.0,32.0,31.0,32.0,31.0,32.0,32.0,30.0,32.0,31.0,31.0,31.0,32.0,32.0,32.0,31.0,31.0,31.0,33.0,31.0,31.0,32.0,31.0,32.0,32.0,31.0,31.0,31.0,31.0,32.0,31.0,32.0,30.0,31.0,31.0,31.0,32.0,32.0,31.0,32.0,32.0,31.0,31.0,32.0,32.0,30.0,32.0,31.0,32.0,32.0,33.0,31.0,32.0,32.0,32.0,32.0,32.0,32.0,32.0,32.0,31.0,32.0,32.0,33.0,32.0,32.0,32.0,32.0,32.0,33.0,32.0,33.0,32.0,31.0,33.0,32.0,32.0,31.0,32.0,31.0,32.0,32.0,33.0,32.0,33.0,31.0,31.0,32.0,32.0,32.0,32.0,32.0,31.0,32.0,32.0,32.0,32.0,32.0,31.0,32.0,31.0,32.0,32.0,31.0,32.0,31.0,31.0,33.0,32.0,32.0,32.0,31.0,33.0,32.0,33.0,32.0,32.0,32.0,32.0,32.0,33.0,32.0,33.0,32.0,33.0,33.0,33.0,32.0,32.0,33.0,33.0,33.0,33.0,33.0,33.0,32.0,32.0,33.0,32.0,33.0,32.0,32.0,33.0,31.0,34.0,33.0,32.0,32.0,32.0,32.0,33.0,31.0,33.0,32.0,32.0,32.0,31.0,32.0,33.0,32.0,32.0,32.0,31.0,32.0,32.0,33.0,31.0,32.0,31.0,32.0,32.0,33.0,32.0,31.0,32.0,31.0,31.0,33.0,31.0,32.0,32.0,31.0,32.0,32.0,33.0,32.0,32.0,31.0,31.0,32.0,33.0,31.0,32.0,32.0,31.0,33.0,32.0,32.0,32.0,33.0,32.0,32.0,31.0,32.0,32.0,33.0,32.0,32.0,32.0,33.0,33.0,32.0,33.0,31.0,32.0,32.0,32.0,32.0,33.0,32.0,32.0,32.0,34.0,32.0,32.0,32.0,32.0,32.0,33.0,33.0,33.0,32.0,33.0,32.0,32.0,33.0,33.0,33.0,32.0,33.0,33.0,33.0,32.0,32.0,32.0,33.0,33.0,33.0,33.0,32.0,32.0,31.0,33.0,33.0,33.0,32.0,32.0,32.0,32.0,32.0,33.0,32.0,32.0,32.0,33.0,33.0,32.0,32.0,32.0,33.0,32.0,32.0,32.0,34.0,32.0,33.0,33.0,33.0,33.0,33.0,33.0,33.0,33.0,34.0,32.0,34.0,34.0,33.0,34.0,33.0,33.0,33.0,35.0,34.0,33.0,34.0,33.0,33.0,34.0,33.0,33.0,34.0,33.0,33.0,33.0,34.0,32.0,33.0,32.0,33.0,33.0,33.0,33.0,33.0,33.0,33.0,33.0,33.0,33.0,32.0,32.0,32.0,33.0,33.0,33.0,33.0,33.0,32.0,33.0,32.0,33.0,32.0,32.0,32.0,32.0,32.0,33.0,32.0,33.0,32.0,33.0,32.0,33.0,33.0,32.0,32.0,32.0,31.0,33.0,33.0,32.0,32.0,32.0,31.0,32.0,33.0,33.0,32.0,33.0,32.0,32.0,32.0,33.0,32.0,32.0,32.0,32.0,32.0,33.0,33.0,32.0,33.0,31.0,33.0,32.0,33.0,32.0,32.0,32.0,32.0,32.0,33.0,32.0,33.0,33.0,32.0,33.0,33.0,32.0,32.0,33.0,33.0,32.0,33.0,34.0,32.0,33.0,33.0,32.0,33.0,34.0,33.0,32.0,33.0,33.0,33.0,33.0,33.0,32.0,32.0,32.0,33.0,32.0,33.0,33.0,32.0,34.0,32.0,34.0,33.0,33.0,33.0,32.0,32.0,33.0,33.0,34.0,32.0,33.0,33.0,33.0,33.0,33.0,33.0,33.0,32.0,33.0,33.0,33.0,33.0,32.0,32.0,33.0,32.0,32.0,33.0,32.0,33.0,32.0,33.0,32.0,33.0,32.0,32.0,33.0,31.0,33.0,32.0,33.0,32.0,32.0,32.0,32.0,32.0,34.0,32.0,32.0,33.0,32.0,34.0,33.0,32.0,32.0,32.0,32.0,32.0,32.0,33.0,32.0,33.0,32.0,33.0,32.0,32.0,32.0,32.0,32.0,33.0,33.0,33.0
366.0,349.0,360.0,373.0,349.0,374.0,350.0,366.0,381.0,356.0,384.0,358.0,372.0,390.0,365.0,393.0,368.0,382.0,403.0,377.0,404.0,381.0,391.0,408.0,385.0,412.0,392.0,398.0,419.0,390.0,414.0,407.0,400.0,426.0,394.0,419.0,405.0,407.0,433.0,402.0,428.0,412.0,410.0,437.0,407.0,431.0,419.0,413.0,439.0,407.0,430.0,420.0,413.0,438.0,407.0,428.0,418.0,411.0,432.0,400.0,422.0,414.0,401.0,426.0,394.0,409.0,410.0,393.0,417.0,386.0,404.0,402.0,381.0,405.0,374.0,391.0,391.0,370.0,394.0,363.0,375.0,388.0,359.0,383.0,354.0,364.0,379.0,348.0,369.0,344.0,351.0,363.0,337.0,358.0,334.0,342.0,352.0,327.0,344.0,322.0,329.0,340.0,313.0,329.0,305.0,313.0,325.0,297.0,317.0,289.0,298.0,309.0,282.0,296.0,283.0,281.0,296.0,267.0,280.0,270.0,265.0,280.0,253.0,263.0,256.0,255.0,266.0,241.0,250.0,248.0,242.0,254.0,229.0,237.0,239.0,232.0,241.0,218.0,228.0,231.0,224.0,232.0,216.0,223.0,227.0,218.0,230.0,208.0,214.0,222.0,214.0,223.0,205.0,209.0,218.0,211.0,217.0,199.0,207.0,210.0,207.0,214.0,196.0,201.0,211.0,202.0,206.0,197.0,202.0,212.0,202.0,203.0,197.0,204.0,221.0,216.0,225.0,214.0,222.0,223.0,222.0,220.0,212.0,217.0,217.0,209.0,208.0,205.0,218.0,220.0,211.0,211.0,221.0,227.0,228.0,220.0,221.0,218.0,230.0,232.0,222.0,222.0,218.0,227.0,222.0,214.0,216.0,214.0,227.0,228.0,226.0,221.0,222.0,230.0,226.0,219.0,220.0,225.0,232.0,229.0,230.0,230.0,238.0,240.0,230.0,225.0,228.0,234.0,239.0,231.0,229.0,231.0,240.0,241.0,236.0,239.0,237.0,244.0,250.0,242.0,248.0,251.0,259.0,258.0,250.0,254.0,261.0,267.0,273.0,260.0,267.0,272.0,269.0,276.0,264.0,270.0,271.0,269.0,270.0,259.0,265.0,266.0,269.0,274.0,260.0,265.0,275.0,271.0,273.0,265.0,270.0,279.0,272.0,281.0,271.0,278.0,289.0,278.0,295.0,283.0,288.0,292.0,281.0,288.0,282.0,289.0,297.0,283.0,291.0,283.0,289.0,290.0,277.0,286.0,279.0,286.0,290.0,276.0,285.0,277.0,286.0,293.0,278.0,287.0,280.0,285.0,286.0,272.0,279.0,271.0,279.0,283.0,272.0,278.0,271.0,278.0,282.0,268.0,268.0,271.0,272.0,274.0,262.0,262.0,267.0,268.0,267.0,258.0,254.0,253.0,257.0,253.0,245.0,241.0,247.0,246.0,238.0,234.0,230.0,236.0,234.0,222.0,224.0,217.0,222.0,227.0,217.0,219.0,213.0,215.0,222.0,209.0,215.0,210.0,214.0,223.0,205.0,213.0,216.0,217.0,230.0,211.0,225.0,218.0,227.0,246.0,222.0,242.0,247.0,242.0,266.0,246.0,270.0,278.0,272.0,303.0,284.0,311.0,321.0,311.0,350.0,328.0,356.0,367.0,359.0,396.0,378.0,399.0,426.0,405.0,442.0,423.0,440.0,465.0,448.0,484.0,468.0,492.0,510.0,492.0,531.0,511.0,536.0,558.0,535.0,571.0,551.0,574.0,596.0,574.0,613.0,590.0,611.0,636.0,612.0,649.0,630.0,647.0,666.0,648.0,666.0,666.0,666.0,667.0,665.0,666.0,666.0,666.0,666.0,666.0,666.0,666.0,665.0,666.0,666.0,667.0,667.0,666.0,665.0,666.0,666.0,667.0,666.0,666.0,666.0,666.0,666.0,665.0,667.0,666.0,666.0,666.0,666.0,666.0,666.0,666.0,667.0,665.0,665.0,666.0,666.0,667.0,665.0,665.0,666.0,666.0,667.0,666.0,665.0,666.0,666.0,666.0,665.0,666.0,666.0,665.0,666.0,665.0,666.0,666.0,666.0,667.0,666.0,665.0,666.0,665.0,667.0,665.0,665.0,667.0,666.0,664.0,650.0,637.0,624.0,611.0,599.0,585.0,572.0,563.0,549.0,537.0,524.0,514.0,503.0,491.0,480.0,467.0,458.0,448.0,437.0,427.0,418.0,407.0,398.0,387.0,379.0,369.0,360.0,352.0,342.0,333.0,324.0,315.0,307.0,300.0,290.0,283.0,274.0,268.0,260.0,253.0,245.0,238.0,232.0,225.0,218.0,212.0,205.0,199.0,193.0,187.0,181.0,175.0,171.0,164.0,160.0,155.0,150.0,145.0,142.0,136.0,132.0,127.0,123.0,120.0,115.0,112.0,108.0,105.0,100.0,97.0,94.0,90.0,86.0,85.0,80.0,78.0,75.0,73.0,70.0,67.0,65.0,62.0,60.0,57.0,56.0,54.0,52.0,50.0,48.0,46.0,45.0,42.0,41.0,38.0,37.0,35.0,34.0,32.0,30.0,29.0,27.0,26.0,24.0,23.0,22.0,20.0,19.0,18.0,17.0,17.0,14.0,14.0,13.0,13.0,11.0,11.0,11.0,8.0,9.0,8.0,8.0,7.0,7.0,6.0,6.0,6.0,6.0,6.0,5.0,6.0,5.0,5.0,5.0,5.0,5.0,5.0,4.0,5.0,3.0,5.0,4.0,5.0,4.0,4.0,5.0,4.0,4.0,5.0,4.0,4.0,4.0,4.0,5.0,4.0,5.0,4.0,5.0,3.0,4.0,4.0,4.0,4.0,3.0,4.0,4.0,4.0,4.0,5.0,4.0,4.0,3.0,4.0,4.0,4.0,4.0,4.0,3.0,4.0,5.0,4.0,4.0,4.0,4.0,3.0,4.0,5.0,4.0,3.0,4.0,3.0,4.0,4.0,4.0,4.0,4.0,4.0,3.0,4.0,5.0,4.0,4.0,4.0,3.0,4.0,3.0,5.0,4.0,5.0,3.0,4.0,4.0,4.0,4.0,3.0,4.0,4.0,4.0,4.0,4.0,4.0,5.0,3.0,4.0,3.0,4.0,4.0,4.0,3.0,4.0,4.0,5.0,4.0,4.0,4.0,4.0,4.0,4.0,4.0,4.0,4.0,3.0,4.0,4.0,5.0,4.0,5.0,4.0,4.0,4.0,4.0,4.0,4.0,3.0,3.0,4.0,4.0,5.0,4.0,5.0,4.0,3.0,4.0,3.0,4.0,3.0,3.0,4.0,4.0,5.0,4.0,4.0,4.0,3.0,4.0,4.0,4.0,4.0,4.0,3.0,3.0,5.0,5.0,4.0,4.0,4.0,4.0,4.0,4.0,4.0,4.0,4.0,3.0,4.0,3.0,5.0,4.0,5.0,4.0,4.0,5.0,5.0,4.0,4.0,3.0,3.0,4.0,4.0,4.0,4.0,5.0,3.0,4.0,4.0,4.0,4.0,3.0,4.0,3.0,4.0,5.0,4.0,4.0,4.0,3.0,4.0,4.0,3.0,2.0,4.0,3.0,4.0,4.0,5.0,4.0,4.0,4.0,4.0,4.0,5.0,4.0,4.0,4.0,3.0,4.0,3.0,5.0,4.0,5.0,3.0,4.0,5.0,5.0,4.0,4.0,4.0,3.0,4.0,4.0,4.0,4.0,3.0,3.0,4.0,4.0,4.0,4.0,3.0,4.0,4.0,4.0,5.0,4.0,4.0,4.0,3.0,4.0,4.0,4.0,4.0,4.0,3.0,4.0,3.0,5.0,4.0,3.0,3.0,3.0,4.0,4.0,4.0,4.0,4.0,4.0,3.0,4.0,5.0,4.0,5.0,4.0,4.0,5.0,5.0,4.0,4.0,4.0,3.0,4.0,4.0,4.0,4.0,5.0,3.0,4.0,4.0,3.0,4.0,4.0,3.0,3.0,4.0,5.0,4.0,4.0,4.0,3.0,4.0,4.0,4.0,4.0,4.0,3.0,4.0,4.0,4.0,4.0,3.0,4.0,4.0,4.0,4.0,4.0,4.0,4.0,3.0,4.0,4.0,4.0,2.0,5.0,3.0,4.0,4.0,5.0,4.0,4.0,4.0,3.0,4.0,5.0,4.0,3.0,5.0,3.0,4.0,4.0,5.0,4.0,4.0,3.0,4.0,4.0,4.0,4.0,4.0,4.0,4.0,4.0,4.0,4.0,4.0,4.0,3.0,4.0,3.0,5.0,4.0,3.0,3.0,3.0,3.0,4.0,4.0,3.0,4.0,3.0,4.0,4.0,5.0,2.0,5.0,3.0,4.0,4.0,4.0,4.0,3.0,3.0
251.0,249.0,253.0,257.0,256.0,250.0,248.0,254.0,258.0,257.0,253.0,250.0,254.0,258.0,256.0,253.0,249.0,259.0,258.0,258.0,253.0,249.0,257.0,259.0,258.0,252.0,249.0,257.0,257.0,253.0,252.0,254.0,258.0,256.0,253.0,252.0,251.0,259.0,257.0,254.0,253.0,253.0,260.0,257.0,254.0,253.0,253.0,260.0,255.0,255.0,252.0,253.0,258.0,257.0,252.0,251.0,253.0,256.0,257.0,253.0,251.0,254.0,258.0,253.0,248.0,252.0,255.0,257.0,252.0,246.0,249.0,254.0,255.0,251.0,249.0,250.0,255.0,255.0,250.0,246.0,253.0,258.0,253.0,252.0,246.0,253.0,256.0,254.0,251.0,244.0,254.0,255.0,254.0,251.0,246.0,250.0,256.0,252.0,249.0,245.0,251.0,256.0,251.0,249.0,243.0,250.0,253.0,249.0,247.0,242.0,250.0,253.0,248.0,248.0,245.0,253.0,251.0,247.0,246.0,248.0,252.0,254.0,247.0,245.0,247.0,251.0,251.0,246.0,245.0,248.0,252.0,248.0,243.0,246.0,248.0,249.0,246.0,239.0,244.0,249.0,251.0,248.0,245.0,246.0,249.0,250.0,248.0,242.0,244.0,252.0,253.0,252.0,245.0,245.0,254.0,254.0,250.0,244.0,243.0,245.0,248.0,246.0,239.0,242.0,250.0,245.0,243.0,240.0,248.0,254.0,251.0,248.0,247.0,255.0,268.0,268.0,272.0,266.0,270.0,269.0,270.0,271.0,261.0,263.0,263.0,256.0,255.0,252.0,261.0,260.0,251.0,252.0,259.0,262.0,266.0,257.0,260.0,254.0,266.0,265.0,255.0,255.0,251.0,258.0,254.0,243.0,249.0,249.0,263.0,265.0,258.0,255.0,251.0,260.0,256.0,244.0,247.0,253.0,254.0,258.0,250.0,253.0,263.0,262.0,255.0,242.0,251.0,255.0,257.0,258.0,247.0,250.0,257.0,252.0,253.0,245.0,246.0,253.0,251.0,251.0,246.0,252.0,260.0,249.0,250.0,244.0,257.0,264.0,262.0,261.0,250.0,260.0,260.0,256.0,257.0,249.0,255.0,259.0,253.0,250.0,245.0,250.0,254.0,247.0,243.0,239.0,253.0,258.0,247.0,250.0,246.0,259.0,260.0,248.0,251.0,248.0,257.0,259.0,259.0,265.0,257.0,262.0,260.0,253.0,260.0,267.0,266.0,265.0,253.0,257.0,261.0,256.0,257.0,245.0,250.0,252.0,254.0,253.0,245.0,250.0,256.0,258.0,258.0,252.0,258.0,258.0,254.0,254.0,247.0,251.0,256.0,255.0,254.0,245.0,250.0,257.0,253.0,253.0,242.0,253.0,257.0,251.0,251.0,243.0,253.0,256.0,251.0,251.0,245.0,251.0,257.0,250.0,250.0,245.0,255.0,258.0,248.0,250.0,245.0,251.0,251.0,240.0,245.0,239.0,250.0,255.0,247.0,253.0,253.0,257.0,256.0,244.0,250.0,247.0,255.0,260.0,245.0,251.0,254.0,254.0,260.0,247.0,251.0,244.0,249.0,252.0,239.0,243.0,246.0,245.0,246.0,235.0,242.0,245.0,245.0,246.0,236.0,240.0,245.0,243.0,244.0,234.0,236.0,241.0,240.0,241.0,231.0,243.0,245.0,241.0,240.0,232.0,242.0,246.0,243.0,242.0,236.0,242.0,249.0,244.0,244.0,236.0,243.0,249.0,244.0,245.0,237.0,246.0,251.0,245.0,245.0,237.0,247.0,252.0,247.0,246.0,237.0,246.0,249.0,244.0,243.0,243.0,250.0,251.0,246.0,247.0,249.0,252.0,253.0,245.0,245.0,242.0,253.0,252.0,245.0,246.0,249.0,252.0,250.0,242.0,246.0,250.0,251.0,248.0,245.0,247.0,252.0,254.0,252.0,246.0,247.0,255.0,255.0,252.0,247.0,249.0,254.0,254.0,251.0,245.0,248.0,250.0,254.0,250.0,245.0,246.0,250.0,253.0,248.0,241.0,248.0,253.0,249.0,247.0,242.0,249.0,254.0,250.0,249.0,243.0,251.0,254.0,252.0,250.0,243.0,252.0,254.0,251.0,249.0,249.0,256.0,255.0,251.0,250.0,250.0,255.0,257.0,251.0,250.0,246.0,255.0,255.0,249.0,249.0,246.0,255.0,254.0,247.0,248.0,246.0,254.0,252.0,250.0,248.0,248.0,256.0,255.0,250.0,249.0,248.0,254.0,251.0,245.0,246.0,253.0,254.0,250.0,245.0,248.0,249.0,254.0,250.0,244.0,247.0,251.0,252.0,249.0,243.0,248.0,254.0,252.0,249.0,244.0,250.0,254.0,251.0,249.0,243.0,250.0,254.0,252.0,249.0,241.0,251.0,253.0,252.0,248.0,242.0,251.0,253.0,251.0,248.0,242.0,247.0,254.0,251.0,249.0,242.0,248.0,254.0,250.0,248.0,245.0,254.0,253.0,248.0,249.0,247.0,254.0,253.0,250.0,250.0,247.0,254.0,255.0,249.0,247.0,247.0,253.0,250.0,244.0,246.0,252.0,254.0,251.0,243.0,247.0,249.0,253.0,250.0,244.0,246.0,249.0,252.0,248.0,244.0,245.0,249.0,250.0,248.0,244.0,246.0,251.0,252.0,250.0,245.0,245.0,253.0,253.0,249.0,243.0,246.0,252.0,251.0,247.0,240.0,250.0,252.0,251.0,247.0,243.0,247.0,253.0,250.0,247.0,242.0,247.0,254.0,249.0,247.0,244.0,252.0,253.0,246.0,247.0,244.0,252.0,251.0,248.0,247.0,244.0,252.0,252.0,248.0,247.0,247.0,252.0,252.0,247.0,246.0,247.0,251.0,253.0,246.0,246.0,242.0,252.0,252.0,246.0,247.0,243.0,252.0,250.0,244.0,245.0,249.0,250.0,248.0,243.0,245.0,249.0,252.0,248.0,243.0,245.0,250.0,251.0,248.0,241.0,244.0,251.0,250.0,247.0,240.0,248.0,252.0,249.0,246.0,240.0,245.0,253.0,249.0,247.0,242.0,246.0,253.0,250.0,248.0,242.0,248.0,253.0,248.0,247.0,240.0,248.0,253.0,250.0,247.0,240.0,249.0,252.0,249.0,247.0,239.0,249.0,251.0,245.0,245.0,245.0,249.0,251.0,246.0,246.0,241.0,251.0,252.0,245.0,246.0,243.0,251.0,251.0,244.0,244.0,247.0,250.0,246.0,243.0,243.0,247.0,249.0,249.0,243.0,244.0,249.0,251.0,248.0,242.0,244.0,245.0,251.0,248.0,241.0,243.0,247.0,251.0,247.0,241.0,243.0,246.0,249.0,247.0,243.0,244.0,248.0,250.0,247.0,240.0,245.0,251.0,248.0,247.0,239.0,247.0,252.0,249.0,247.0,240.0,249.0,251.0,251.0,246.0,240.0,249.0,251.0,245.0,246.0,245.0,250.0,251.0,246.0,245.0,241.0,252.0,252.0,246.0,246.0,242.0,252.0,252.0,248.0,247.0,244.0,253.0,252.0,249.0,248.0,246.0,253.0,253.0,248.0,247.0,247.0,251.0,253.0,248.0,247.0,247.0,254.0,250.0,243.0,246.0,248.0,252.0,249.0,243.0,245.0,248.0,251.0,248.0,244.0,247.0,248.0,251.0,247.0,240.0,245.0,252.0,248.0,249.0,241.0,247.0,253.0,252.0,250.0,242.0,249.0,252.0,252.0,248.0,241.0,245.0,252.0,249.0,245.0,240.0,245.0,251.0,248.0,245.0,240.0,245.0,250.0,249.0,246.0,240.0,246.0,251.0,249.0,247.0,242.0,251.0,250.0,246.0,245.0,242.0,251.0,250.0,245.0,245.0,243.0,248.0,251.0,244.0,244.0,243.0,249.0,247.0,241.0,241.0,244.0,248.0,245.0,239.0,242.0,245.0,247.0,244.0,240.0,241.0,244.0,248.0,246.0,239.0,240.0,244.0,245.0,245.0,239.0,240.0,245.0,247.0,245.0,239.0,240.0,241.0,247.0,244.0,237.0,240.0,246.0,244.0,241.0,235.0,239.0,245.0,244.0,240.0,235.0,239.0,246.0,243.0,241.0,236.0,240.0,245.0,241.0,239.0,235.0,245.0,244.0,240.0,238.0,236.0,245.0,244.0,240.0,238.0,237.0,242.0,244.0,239.0,239.0,233.0,243.0,246.0,240.0,239.0,234.0,244.0,245.0,240.0,239.0,235.0,243.0,244.0,239.0,238.0,234.0,243.0,242.0,235.0,234.0,238.0,240.0,240.0,233.0,234.0,239.0,241.0,239.0,233.0,234.0,235.0,242.0,238.0,232.0,234.0,240.0,240.0,237.0
