214.0,218.0,207.0,210.0,209.0,215.0,217.0,208.0,211.0,210.0,214.0,217.0,209.0,212.0,211.0,215.0,217.0,207.0,210.0,217.0,213.0,216.0,207.0,211.0,218.0,215.0,217.0,206.0,212.0,215.0,215.0,216.0,207.0,212.0,219.0,214.0,215.0,209.0,214.0,222.0,214.0,215.0,207.0,214.0,221.0,215.0,217.0,208.0,216.0,222.0,216.0,217.0,209.0,218.0,222.0,217.0,218.0,211.0,219.0,222.0,215.0,217.0,211.0,216.0,223.0,216.0,218.0,213.0,220.0,223.0,213.0,217.0,215.0,222.0,224.0,215.0,219.0,217.0,222.0,224.0,217.0,219.0,217.0,222.0,223.0,213.0,216.0,223.0,220.0,223.0,213.0,216.0,224.0,222.0,222.0,213.0,218.0,220.0,222.0,221.0,212.0,217.0,221.0,222.0,222.0,213.0,218.0,222.0,221.0,223.0,215.0,218.0,224.0,222.0,225.0,216.0,218.0,224.0,222.0,222.0,214.0,221.0,227.0,220.0,221.0,213.0,221.0,225.0,220.0,220.0,213.0,218.0,224.0,219.0,220.0,214.0,222.0,226.0,216.0,218.0,215.0,223.0,224.0,216.0,219.0,216.0,223.0,227.0,218.0,218.0,217.0,223.0,227.0,220.0,225.0,227.0,229.0,231.0,223.0,224.0,222.0,226.0,231.0,220.0,220.0,215.0,230.0,232.0,221.0,222.0,227.0,227.0,225.0,221.0,232.0,237.0,244.0,246.0,245.0,249.0,250.0,247.0,264.0,245.0,244.0,243.0,245.0,267.0,263.0,271.0,281.0,280.0,277.0,268.0,269.0,274.0,259.0,259.0,254.0,266.0,266.0,256.0,254.0,248.0,252.0,258.0,247.0,244.0,240.0,257.0,261.0,254.0,252.0,247.0,256.0,261.0,256.0,255.0,244.0,249.0,258.0,252.0,251.0,251.0,253.0,258.0,251.0,251.0,248.0,245.0,252.0,241.0,249.0,240.0,249.0,251.0,244.0,246.0,246.0,256.0,255.0,249.0,258.0,257.0,265.0,270.0,266.0,272.0,272.0,271.0,272.0,259.0,262.0,269.0,265.0,260.0,250.0,256.0,259.0,256.0,252.0,245.0,250.0,252.0,253.0,251.0,239.0,242.0,247.0,241.0,240.0,229.0,235.0,242.0,239.0,241.0,235.0,240.0,251.0,246.0,248.0,244.0,246.0,254.0,246.0,246.0,244.0,251.0,263.0,253.0,256.0,253.0,261.0,259.0,249.0,256.0,255.0,259.0,262.0,259.0,253.0,243.0,257.0,258.0,248.0,247.0,245.0,254.0,254.0,248.0,253.0,246.0,255.0,257.0,246.0,245.0,244.0,249.0,254.0,248.0,242.0,239.0,240.0,230.0,220.0,226.0,248.0,252.0,253.0,256.0,264.0,260.0,257.0,256.0,249.0,251.0,263.0,268.0,270.0,255.0,257.0,259.0,249.0,249.0,243.0,246.0,251.0,243.0,242.0,233.0,235.0,241.0,234.0,232.0,224.0,231.0,233.0,230.0,228.0,221.0,232.0,237.0,233.0,230.0,223.0,226.0,231.0,227.0,226.0,221.0,225.0,232.0,228.0,226.0,220.0,226.0,229.0,221.0,222.0,218.0,226.0,227.0,223.0,223.0,218.0,225.0,225.0,221.0,221.0,219.0,226.0,225.0,219.0,215.0,220.0,221.0,222.0,214.0,217.0,218.0,224.0,223.0,219.0,216.0,218.0,222.0,221.0,218.0,219.0,222.0,224.0,223.0,218.0,220.0,223.0,225.0,226.0,220.0,220.0,224.0,225.0,226.0,219.0,220.0,225.0,226.0,224.0,217.0,224.0,226.0,225.0,223.0,216.0,221.0,227.0,224.0,224.0,219.0,221.0,225.0,223.0,221.0,215.0,223.0,226.0,220.0,221.0,216.0,224.0,226.0,224.0,222.0,217.0,229.0,228.0,224.0,223.0,220.0,223.0,228.0,223.0,222.0,219.0,223.0,228.0,223.0,222.0,216.0,222.0,225.0,220.0,221.0,216.0,223.0,225.0,219.0,219.0,221.0,225.0,224.0,219.0,221.0,223.0,226.0,226.0,219.0,219.0,221.0,223.0,225.0,217.0,219.0,226.0,226.0,225.0,216.0,222.0,224.0,224.0,222.0,214.0,218.0,224.0,223.0,227.0,217.0,220.0,226.0,222.0,224.0,214.0,218.0,224.0,223.0,226.0,217.0,221.0,229.0,224.0,224.0,216.0,221.0,223.0,223.0,222.0,212.0,219.0,225.0,219.0,217.0,212.0,217.0,222.0,214.0,216.0,208.0,218.0,222.0,214.0,216.0,209.0,219.0,223.0,214.0,217.0,216.0,221.0,226.0,217.0,220.0,220.0,222.0,225.0,216.0,217.0,220.0,221.0,223.0,215.0,217.0,215.0,222.0,224.0,214.0,217.0,214.0,220.0,222.0,214.0,217.0,216.0,221.0,222.0,216.0,217.0,216.0,220.0,221.0,211.0,215.0,222.0,218.0,221.0,212.0,215.0,221.0,219.0,221.0,211.0,216.0,218.0,220.0,220.0,212.0,216.0,223.0,217.0,218.0,212.0,217.0,223.0,217.0,219.0,211.0,218.0,223.0,217.0,219.0,210.0,218.0,223.0,219.0,219.0,211.0,219.0,224.0,218.0,220.0,212.0,222.0,225.0,219.0,219.0,214.0,219.0,225.0,219.0,219.0,214.0,221.0,224.0,216.0,217.0,214.0,219.0,221.0,213.0,217.0,215.0,220.0,222.0,216.0,218.0,216.0,223.0,227.0,216.0,219.0,224.0,223.0,223.0,216.0,218.0,225.0,224.0,223.0,214.0,220.0,220.0,223.0,222.0,215.0,218.0,222.0,222.0,221.0,213.0,217.0,222.0,224.0,224.0,217.0,220.0,224.0,223.0,223.0,216.0,218.0,223.0,222.0,221.0,213.0,221.0,224.0,220.0,220.0,212.0,222.0,224.0,221.0,219.0,213.0,219.0,229.0,223.0,224.0,216.0,224.0,226.0,217.0,219.0,215.0,223.0,224.0,216.0,219.0,216.0,222.0,224.0,217.0,219.0,216.0,223.0,224.0,220.0,222.0,220.0,225.0,226.0,218.0,220.0,221.0,222.0,225.0,217.0,219.0,215.0,224.0,225.0,217.0,219.0,221.0,223.0,223.0,215.0,218.0,222.0,222.0,219.0,212.0,216.0,218.0,219.0,222.0,214.0,215.0,222.0,220.0,220.0,212.0,219.0,224.0,220.0,219.0,212.0,220.0,223.0,217.0,216.0,210.0,215.0,221.0,218.0,218.0,212.0,218.0,223.0,219.0,219.0,213.0,219.0,224.0,220.0,221.0,214.0,221.0,226.0,223.0,222.0,214.0,223.0,226.0,221.0,216.0,214.0,220.0,222.0,216.0,217.0,216.0,220.0,224.0,216.0,218.0,213.0,222.0,225.0,218.0,218.0,224.0,227.0,226.0,217.0,221.0,223.0,224.0,223.0,218.0,220.0,223.0,225.0,224.0,217.0,219.0,223.0,223.0,225.0,218.0,221.0,225.0,225.0,224.0,216.0,219.0,220.0,224.0,223.0,216.0,219.0,222.0,224.0,223.0,215.0,218.0,224.0,223.0,222.0,215.0,220.0,226.0,221.0,221.0,215.0,220.0,226.0,225.0,227.0,217.0,224.0,228.0,222.0,222.0,218.0,224.0,226.0,219.0,219.0,217.0,221.0,225.0,218.0,219.0,213.0,221.0,225.0,218.0,220.0,215.0,223.0,225.0,218.0,219.0,215.0,223.0,225.0,219.0,220.0,215.0,223.0,225.0,221.0,220.0,218.0,224.0,225.0,216.0,219.0,223.0,225.0,223.0,216.0,219.0,220.0,224.0,223.0,216.0,219.0,221.0,224.0,223.0,215.0,218.0,225.0,222.0,221.0,215.0,219.0,224.0,222.0,222.0,215.0,220.0,226.0,224.0,223.0,215.0,221.0,223.0,224.0,222.0,214.0,222.0,224.0,224.0,222.0,215.0,219.0,225.0,222.0,222.0,216.0,220.0,225.0,222.0,220.0,214.0,222.0,226.0,218.0,220.0,215.0,223.0,226.0,221.0,221.0,216.0,224.0,226.0,221.0,221.0,219.0,224.0,225.0,219.0,220.0,223.0,225.0,225.0,217.0,219.0,220.0,224.0,224.0,217.0,220.0,220.0,224.0,223.0,218.0,221.0,221.0,224.0,223.0,218.0,219.0,222.0,224.0,225.0,218.0,219.0,223.0,225.0,226.0,218.0,219.0,223.0,223.0,221.0,216.0,221.0,224.0,224.0,222.0,214.0,219.0,225.0,222.0,222.0,216.0,220.0
32.0,33.0,33.0,32.0,34.0,32.0,33.0,32.0,33.0,32.0,34.0,32.0,33.0,33.0,33.0,32.0,33.0,32.0,32.0,33.0,33.0,33.0,32.0,33.0,32.0,33.0,33.0,33.0,32.0,34.0,32.0,32.0,32.0,33.0,33.0,33.0,33.0,32.0,32.0,33.0,32.0,33.0,33.0,32.0,33.0,32.0,33.0,32.0,33.0,32.0,32.0,33.0,31.0,33.0,32.0,33.0,32.0,33.0,33.0,33.0,32.0,34.0,32.0,32.0,33.0,33.0,33.0,33.0,33.0,34.0,33.0,33.0,33.0,33.0,34.0,32.0,33.0,33.0,33.0,33.0,34.0,32.0,32.0,33.0,33.0,33.0,33.0,33.0,32.0,34.0,33.0,33.0,33.0,33.0,32.0,33.0,33.0,33.0,32.0,34.0,32.0,32.0,33.0,33.0,33.0,32.0,33.0,32.0,32.0,32.0,32.0,32.0,33.0,32.0,33.0,32.0,33.0,33.0,33.0,32.0,32.0,32.0,33.0,32.0,32.0,33.0,33.0,33.0,32.0,32.0,32.0,34.0,32.0,32.0,33.0,32.0,32.0,33.0,32.0,32.0,33.0,31.0,33.0,32.0,33.0,32.0,33.0,33.0,33.0,33.0,33.0,33.0,33.0,32.0,33.0,33.0,33.0,34.0,32.0,33.0,32.0,33.0,33.0,34.0,32.0,33.0,33.0,33.0,33.0,33.0,33.0,32.0,33.0,32.0,33.0,33.0,33.0,32.0,32.0,33.0,33.0,32.0,34.0,32.0,33.0,33.0,32.0,33.0,33.0,33.0,33.0,33.0,33.0,33.0,33.0,34.0,32.0,33.0,32.0,33.0,33.0,32.0,32.0,32.0,33.0,33.0,33.0,32.0,33.0,32.0,33.0,32.0,33.0,32.0,34.0,32.0,32.0,33.0,32.0,33.0,33.0,32.0,33.0,33.0,31.0,34.0,32.0,33.0,32.0,32.0,33.0,32.0,32.0,33.0,32.0,33.0,32.0,32.0,32.0,32.0,32.0,32.0,32.0,31.0,32.0,32.0,33.0,32.0,32.0,32.0,32.0,32.0,33.0,32.0,32.0,32.0,33.0,32.0,33.0,33.0,32.0,32.0,33.0,33.0,32.0,33.0,32.0,32.0,32.0,33.0,33.0,33.0,32.0,33.0,33.0,33.0,32.0,33.0,34.0,32.0,33.0,32.0,33.0,33.0,33.0,32.0,32.0,33.0,33.0,33.0,33.0,33.0,32.0,33.0,31.0,33.0,32.0,33.0,32.0,32.0,33.0,33.0,32.0,34.0,32.0,32.0,32.0,32.0,32.0,32.0,33.0,33.0,33.0,33.0,32.0,32.0,34.0,32.0,33.0,32.0,33.0,32.0,33.0,32.0,32.0,33.0,31.0,32.0,33.0,33.0,32.0,33.0,31.0,33.0,32.0,33.0,32.0,33.0,33.0,33.0,32.0,35.0,33.0,33.0,33.0,33.0,34.0,33.0,35.0,32.0,33.0,33.0,33.0,33.0,34.0,33.0,34.0,34.0,34.0,33.0,33.0,34.0,33.0,34.0,33.0,33.0,33.0,33.0,32.0,33.0,33.0,34.0,33.0,34.0,32.0,32.0,33.0,33.0,33.0,33.0,34.0,32.0,32.0,33.0,34.0,32.0,34.0,32.0,33.0,33.0,33.0,33.0,33.0,33.0,33.0,33.0,33.0,33.0,33.0,35.0,33.0,34.0,33.0,34.0,33.0,34.0,34.0,33.0,33.0,33.0,33.0,33.0,33.0,32.0,33.0,31.0,33.0,32.0,33.0,32.0,32.0,33.0,31.0,33.0,33.0,32.0,32.0,32.0,33.0,33.0,32.0,33.0,32.0,33.0,32.0,33.0,33.0,33.0,32.0,32.0,32.0,31.0,32.0,33.0,33.0,32.0,32.0,32.0,32.0,32.0,32.0,32.0,32.0,31.0,31.0,32.0,32.0,31.0,32.0,32.0,31.0,31.0,32.0,32.0,32.0,31.0,31.0,31.0,31.0,31.0,30.0,31.0,31.0,31.0,31.0,31.0,32.0,32.0,31.0,30.0,31.0,31.0,31.0,30.0,33.0,31.0,31.0,31.0,31.0,30.0,31.0,31.0,31.0,31.0,32.0,32.0,31.0,31.0,31.0,31.0,31.0,31.0,32.0,31.0,31.0,31.0,32.0,32.0,30.0,33.0,32.0,31.0,32.0,31.0,32.0,32.0,32.0,31.0,31.0,31.0,33.0,31.0,33.0,32.0,31.0,31.0,32.0,32.0,31.0,32.0,31.0,32.0,32.0,32.0,31.0,32.0,31.0,32.0,31.0,32.0,32.0,32.0,32.0,31.0,32.0,32.0,31.0,31.0,31.0,31.0,31.0,32.0,33.0,32.0,32.0,32.0,31.0,32.0,32.0,32.0,33.0,32.0,31.0,32.0,33.0,32.0,32.0,32.0,31.0,32.0,33.0,33.0,32.0,33.0,32.0,33.0,33.0,34.0,33.0,32.0,33.0,33.0,33.0,32.0,33.0,32.0,34.0,33.0,33.0,33.0,33.0,33.0,33.0,33.0,34.0,33.0,34.0,34.0,34.0,33.0,34.0,34.0,33.0,33.0,34.0,34.0,33.0,33.0,33.0,34.0,32.0,34.0,34.0,33.0,33.0,33.0,33.0,32.0,33.0,33.0,33.0,33.0,34.0,32.0,33.0,33.0,32.0,33.0,33.0,32.0,33.0,32.0,33.0,32.0,32.0,34.0,32.0,33.0,33.0,32.0,32.0,32.0,32.0,32.0,32.0,33.0,32.0,33.0,32.0,32.0,32.0,31.0,32.0,32.0,32.0,32.0,32.0,32.0,32.0,32.0,33.0,32.0,33.0,32.0,31.0,32.0,33.0,32.0,32.0,32.0,32.0,32.0,32.0,33.0,32.0,33.0,31.0,31.0,32.0,33.0,32.0,32.0,32.0,33.0,32.0,33.0,32.0,32.0,33.0,32.0,33.0,33.0,33.0,32.0,33.0,33.0,33.0,32.0,34.0,32.0,33.0,32.0,33.0,33.0,32.0,33.0,32.0,33.0,33.0,32.0,32.0,32.0,32.0,34.0,33.0,33.0,33.0,33.0,33.0,33.0,33.0,33.0,33.0,33.0,33.0,33.0,34.0,33.0,34.0,32.0,34.0,32.0,33.0,33.0,32.0,33.0,33.0,33.0,33.0,33.0,33.0,33.0,33.0,33.0,32.0,33.0,33.0,32.0,32.0,34.0,32.0,32.0,32.0,32.0,33.0,33.0,32.0,32.0,32.0,33.0,32.0,33.0,32.0,32.0,33.0,32.0,32.0,32.0,33.0,32.0,32.0,33.0,31.0,33.0,32.0,33.0,32.0,32.0,32.0,32.0,32.0,33.0,32.0,32.0,33.0,31.0,33.0,32.0,32.0,32.0,32.0,33.0,32.0,33.0,32.0,32.0,33.0,32.0,33.0,32.0,33.0,32.0,32.0,33.0,33.0,32.0,33.0,33.0,33.0,33.0,31.0,32.0,32.0,34.0,32.0,32.0,33.0,32.0,32.0,33.0,32.0,32.0,32.0,32.0,33.0,32.0,33.0,32.0,33.0,33.0,33.0,33.0,33.0,32.0,33.0,33.0,33.0,32.0,33.0,34.0,32.0,32.0,32.0,33.0,32.0,33.0,32.0,33.0,33.0,33.0,32.0,34.0,32.0,33.0,33.0,32.0,33.0,33.0,33.0,33.0,33.0,33.0,33.0,32.0,34.0,32.0,34.0,32.0,32.0,33.0,33.0,33.0,33.0,33.0,33.0,33.0,32.0,33.0,32.0,33.0,32.0,33.0,32.0,34.0,32.0,33.0,33.0,33.0,32.0,33.0,32.0,32.0,33.0,33.0,33.0,32.0,33.0,32.0,33.0,33.0,32.0,32.0,33.0,32.0,33.0,32.0,33.0,33.0,33.0,33.0,32.0,32.0,33.0,32.0,32.0,33.0,32.0,33.0,32.0,32.0,32.0,33.0,33.0,32.0,32.0,31.0,33.0,32.0,33.0,32.0,33.0,32.0,32.0,32.0,33.0,32.0,32.0,33.0,32.0,33.0,33.0,32.0,32.0,32.0,33.0,33.0,32.0,33.0,32.0,32.0,31.0,33.0,32.0,33.0,32.0,32.0,32.0,33.0,32.0,32.0,32.0,32.0,32.0,31.0,33.0,32.0,33.0,32.0,33.0,32.0,33.0,32.0,33.0,32.0,32.0,32.0,31.0,33.0,32.0,33.0,32.0,32.0,33.0,32.0,32.0,34.0,32.0,32.0,32.0,32.0,32.0,33.0,32.0,32.0,33.0,33.0,32.0,32.0,33.0,32.0
224.0,220.0,217.0,213.0,214.0,222.0,216.0,216.0,212.0,214.0,221.0,215.0,217.0,213.0,214.0,221.0,214.0,214.0,212.0,218.0,220.0,214.0,213.0,213.0,219.0,221.0,215.0,212.0,215.0,218.0,222.0,215.0,215.0,216.0,222.0,221.0,215.0,216.0,219.0,223.0,222.0,217.0,216.0,223.0,224.0,224.0,218.0,217.0,225.0,226.0,228.0,221.0,218.0,226.0,226.0,227.0,221.0,220.0,229.0,228.0,228.0,222.0,221.0,225.0,230.0,228.0,222.0,222.0,232.0,228.0,227.0,223.0,224.0,231.0,226.0,224.0,222.0,224.0,230.0,224.0,225.0,221.0,222.0,229.0,222.0,220.0,218.0,226.0,227.0,221.0,219.0,218.0,226.0,227.0,222.0,217.0,221.0,224.0,227.0,220.0,218.0,218.0,225.0,227.0,220.0,216.0,218.0,224.0,227.0,220.0,218.0,218.0,224.0,226.0,220.0,220.0,219.0,226.0,227.0,220.0,217.0,225.0,226.0,225.0,219.0,215.0,223.0,224.0,223.0,217.0,214.0,218.0,223.0,221.0,217.0,214.0,223.0,220.0,217.0,214.0,214.0,224.0,220.0,218.0,217.0,217.0,225.0,222.0,220.0,217.0,217.0,226.0,224.0,220.0,217.0,219.0,225.0,224.0,219.0,218.0,222.0,226.0,226.0,220.0,217.0,216.0,225.0,224.0,220.0,216.0,221.0,225.0,218.0,211.0,211.0,218.0,231.0,228.0,240.0,249.0,256.0,241.0,236.0,221.0,222.0,229.0,236.0,240.0,235.0,241.0,242.0,246.0,241.0,238.0,248.0,248.0,242.0,233.0,230.0,235.0,239.0,233.0,228.0,221.0,229.0,233.0,226.0,223.0,219.0,229.0,233.0,225.0,223.0,217.0,223.0,229.0,223.0,222.0,212.0,222.0,225.0,217.0,220.0,219.0,221.0,221.0,212.0,214.0,214.0,217.0,221.0,214.0,215.0,209.0,220.0,218.0,212.0,213.0,216.0,220.0,218.0,212.0,213.0,220.0,221.0,216.0,214.0,214.0,219.0,222.0,220.0,212.0,211.0,218.0,222.0,217.0,210.0,212.0,218.0,220.0,216.0,214.0,217.0,219.0,223.0,217.0,210.0,213.0,219.0,218.0,215.0,212.0,218.0,222.0,218.0,215.0,212.0,220.0,230.0,227.0,224.0,222.0,227.0,230.0,222.0,219.0,216.0,228.0,232.0,228.0,225.0,224.0,233.0,232.0,227.0,224.0,228.0,234.0,233.0,229.0,225.0,222.0,231.0,231.0,225.0,225.0,225.0,232.0,233.0,227.0,228.0,225.0,234.0,233.0,226.0,225.0,222.0,228.0,228.0,223.0,221.0,220.0,226.0,223.0,213.0,213.0,220.0,220.0,221.0,211.0,214.0,213.0,213.0,213.0,202.0,210.0,216.0,219.0,227.0,208.0,223.0,229.0,214.0,220.0,209.0,212.0,217.0,204.0,218.0,199.0,205.0,221.0,208.0,220.0,201.0,213.0,224.0,213.0,225.0,207.0,224.0,238.0,225.0,247.0,231.0,244.0,260.0,246.0,272.0,253.0,274.0,286.0,272.0,302.0,289.0,303.0,324.0,305.0,334.0,322.0,335.0,354.0,340.0,371.0,356.0,369.0,379.0,375.0,400.0,394.0,404.0,414.0,414.0,429.0,431.0,439.0,443.0,446.0,447.0,446.0,443.0,438.0,434.0,426.0,420.0,411.0,402.0,394.0,384.0,376.0,365.0,355.0,347.0,337.0,328.0,318.0,309.0,299.0,289.0,280.0,271.0,263.0,252.0,244.0,235.0,227.0,217.0,211.0,202.0,195.0,187.0,179.0,174.0,167.0,160.0,153.0,147.0,142.0,135.0,129.0,125.0,118.0,114.0,109.0,104.0,99.0,95.0,91.0,86.0,82.0,78.0,75.0,71.0,69.0,64.0,62.0,58.0,55.0,53.0,50.0,47.0,44.0,42.0,39.0,37.0,34.0,33.0,31.0,29.0,26.0,25.0,22.0,22.0,18.0,17.0,16.0,15.0,14.0,13.0,11.0,11.0,9.0,9.0,9.0,8.0,8.0,6.0,7.0,6.0,6.0,5.0,7.0,5.0,6.0,5.0,5.0,5.0,5.0,5.0,4.0,4.0,4.0,5.0,4.0,5.0,4.0,4.0,3.0,4.0,3.0,5.0,4.0,4.0,4.0,4.0,4.0,4.0,5.0,4.0,4.0,3.0,5.0,3.0,5.0,4.0,4.0,3.0,4.0,4.0,4.0,4.0,5.0,4.0,4.0,4.0,3.0,5.0,4.0,4.0,4.0,4.0,4.0,5.0,4.0,4.0,4.0,4.0,4.0,3.0,4.0,4.0,4.0,3.0,4.0,4.0,5.0,4.0,4.0,3.0,3.0,3.0,5.0,4.0,4.0,4.0,4.0,4.0,4.0,4.0,4.0,4.0,3.0,4.0,3.0,5.0,2.0,4.0,3.0,3.0,4.0,5.0,4.0,4.0,4.0,3.0,4.0,4.0,4.0,4.0,4.0,4.0,4.0,4.0,5.0,4.0,4.0,3.0,4.0,4.0,3.0,4.0,4.0,4.0,3.0,4.0,4.0,5.0,4.0,4.0,3.0,4.0,3.0,5.0,4.0,4.0,4.0,4.0,4.0,4.0,4.0,3.0,4.0,3.0,4.0,3.0,5.0,3.0,4.0,4.0,4.0,3.0,5.0,4.0,5.0,3.0,3.0,4.0,4.0,4.0,4.0,4.0,4.0,4.0,4.0,5.0,4.0,4.0,3.0,4.0,3.0,3.0,4.0,4.0,4.0,4.0,4.0,4.0,4.0,4.0,4.0,3.0,3.0,3.0,4.0,4.0,4.0,4.0,4.0,4.0,4.0,4.0,5.0,4.0,4.0,4.0,3.0,5.0,4.0,4.0,3.0,4.0,4.0,5.0,3.0,3.0,4.0,4.0,4.0,4.0,4.0,4.0,4.0,4.0,4.0,4.0,4.0,4.0,4.0,3.0,3.0,3.0,4.0,4.0,4.0,4.0,4.0,4.0,4.0,4.0,4.0,4.0,3.0,4.0,3.0,5.0,4.0,4.0,3.0,3.0,4.0,4.0,4.0,4.0,3.0,3.0,4.0,3.0,5.0,4.0,4.0,3.0,4.0,4.0,5.0,4.0,4.0,4.0,4.0,4.0,3.0,4.0,4.0,4.0,4.0,4.0,4.0,5.0,4.0,4.0,3.0,4.0,4.0,4.0,4.0,4.0,4.0,4.0,4.0,4.0,4.0,4.0,4.0,3.0,4.0,3.0,5.0,4.0,4.0,3.0,4.0,4.0,4.0,4.0,4.0,3.0,3.0,4.0,4.0,5.0,4.0,4.0,3.0,4.0,4.0,5.0,4.0,4.0,4.0,3.0,4.0,3.0,4.0,4.0,3.0,3.0,4.0,3.0,5.0,4.0,4.0,3.0,3.0,3.0,4.0,3.0,3.0,4.0,3.0,4.0,2.0,4.0,4.0,4.0,3.0,4.0,4.0,5.0,4.0,4.0,3.0,3.0,4.0,5.0,4.0,4.0,4.0,3.0,4.0,3.0,4.0,2.0,4.0,3.0,4.0,4.0,3.0,4.0,4.0,4.0,4.0,4.0,4.0,4.0,4.0,4.0,3.0,4.0,4.0,4.0,4.0,4.0,3.0,4.0,3.0,4.0,4.0,4.0,3.0,4.0,4.0,4.0,4.0,4.0,4.0,3.0,4.0,3.0,5.0,4.0,4.0,3.0,3.0,3.0,4.0,4.0,4.0,4.0,3.0,3.0,4.0,5.0,4.0,4.0,3.0,4.0,4.0,5.0,2.0,5.0,3.0,3.0,4.0,3.0,4.0,3.0,4.0,3.0,4.0,3.0,4.0,4.0,4.0,3.0,4.0,4.0,3.0,3.0,4.0,3.0,3.0,4.0,4.0,4.0,2.0,4.0,3.0,4.0,3.0,4.0,2.0,4.0,3.0,3.0,3.0,4.0,4.0,3.0,4.0,3.0,4.0,3.0,5.0,4.0,4.0,3.0,4.0,4.0,5.0,4.0,4.0,3.0,3.0,4.0,4.0,4.0,3.0,4.0,4.0,4.0,4.0,4.0,4.0,4.0,3.0,4.0,4.0,4.0,4.0,4.0,4.0,4.0,3.0,4.0,4.0,4.0,4.0,3.0,4.0,3.0,5.0,4.0,4.0,3.0,4.0,4.0,5.0,4.0,4.0,4.0,3.0,3.0,3.0,5.0,4.0,3.0,3.0,3.0,3.0,5.0,4.0,3.0,3.0,3.0,4.0,4.0,4.0,4.0,4.0,3.0,4.0
237.0,237.0,228.0,230.0,232.0,236.0,236.0,226.0,230.0,231.0,235.0,234.0,228.0,230.0,233.0,235.0,235.0,226.0,231.0,239.0,235.0,236.0,228.0,234.0,240.0,238.0,235.0,228.0,235.0,240.0,238.0,236.0,227.0,235.0,241.0,236.0,235.0,231.0,236.0,241.0,235.0,237.0,230.0,239.0,244.0,236.0,238.0,231.0,242.0,244.0,239.0,239.0,232.0,242.0,244.0,239.0,240.0,234.0,243.0,246.0,239.0,240.0,235.0,241.0,246.0,239.0,239.0,238.0,245.0,246.0,237.0,239.0,239.0,246.0,245.0,238.0,240.0,241.0,247.0,245.0,241.0,242.0,243.0,247.0,245.0,237.0,241.0,248.0,245.0,245.0,237.0,241.0,249.0,247.0,244.0,237.0,243.0,246.0,247.0,246.0,237.0,242.0,248.0,248.0,245.0,237.0,242.0,248.0,247.0,244.0,239.0,243.0,250.0,247.0,246.0,240.0,244.0,250.0,248.0,245.0,238.0,248.0,250.0,245.0,244.0,239.0,247.0,249.0,245.0,244.0,239.0,245.0,249.0,244.0,243.0,240.0,248.0,250.0,240.0,243.0,241.0,249.0,248.0,241.0,243.0,242.0,249.0,248.0,244.0,244.0,247.0,252.0,253.0,247.0,248.0,248.0,253.0,252.0,246.0,247.0,249.0,255.0,257.0,249.0,250.0,248.0,256.0,254.0,248.0,247.0,252.0,255.0,249.0,240.0,243.0,253.0,260.0,260.0,265.0,277.0,287.0,271.0,269.0,247.0,255.0,266.0,268.0,273.0,265.0,270.0,275.0,276.0,269.0,264.0,272.0,275.0,268.0,262.0,256.0,262.0,265.0,260.0,255.0,251.0,259.0,265.0,260.0,257.0,253.0,266.0,268.0,261.0,259.0,258.0,268.0,268.0,266.0,263.0,260.0,267.0,269.0,264.0,265.0,265.0,269.0,267.0,260.0,261.0,265.0,267.0,269.0,263.0,266.0,262.0,271.0,267.0,257.0,257.0,263.0,266.0,262.0,258.0,261.0,265.0,267.0,263.0,259.0,258.0,267.0,270.0,268.0,260.0,258.0,263.0,265.0,259.0,254.0,256.0,262.0,266.0,261.0,256.0,259.0,258.0,261.0,257.0,248.0,251.0,256.0,255.0,251.0,244.0,250.0,253.0,248.0,249.0,242.0,250.0,260.0,256.0,258.0,252.0,262.0,265.0,259.0,256.0,250.0,263.0,270.0,265.0,268.0,264.0,268.0,269.0,260.0,260.0,264.0,267.0,270.0,264.0,262.0,256.0,265.0,267.0,256.0,256.0,254.0,262.0,260.0,250.0,258.0,254.0,264.0,263.0,253.0,253.0,251.0,256.0,256.0,250.0,250.0,251.0,257.0,252.0,241.0,243.0,248.0,247.0,246.0,238.0,245.0,245.0,246.0,241.0,241.0,247.0,254.0,263.0,271.0,259.0,275.0,278.0,260.0,265.0,263.0,264.0,265.0,252.0,258.0,243.0,249.0,257.0,249.0,249.0,237.0,246.0,250.0,243.0,241.0,230.0,241.0,248.0,242.0,245.0,235.0,241.0,249.0,244.0,243.0,236.0,243.0,250.0,242.0,245.0,237.0,246.0,248.0,238.0,241.0,238.0,246.0,249.0,243.0,243.0,240.0,247.0,248.0,240.0,241.0,241.0,247.0,245.0,237.0,240.0,245.0,246.0,243.0,233.0,236.0,239.0,244.0,242.0,234.0,239.0,241.0,246.0,243.0,239.0,242.0,245.0,247.0,246.0,240.0,242.0,247.0,248.0,248.0,239.0,242.0,247.0,249.0,247.0,240.0,242.0,249.0,246.0,244.0,235.0,246.0,249.0,247.0,245.0,237.0,242.0,249.0,246.0,244.0,239.0,244.0,250.0,246.0,245.0,240.0,251.0,251.0,244.0,245.0,241.0,251.0,252.0,247.0,245.0,241.0,249.0,250.0,243.0,245.0,241.0,248.0,251.0,245.0,245.0,245.0,249.0,251.0,244.0,244.0,240.0,249.0,250.0,243.0,244.0,239.0,249.0,248.0,242.0,243.0,247.0,250.0,247.0,243.0,245.0,248.0,250.0,250.0,243.0,245.0,250.0,253.0,250.0,243.0,244.0,250.0,250.0,247.0,240.0,247.0,251.0,250.0,246.0,240.0,244.0,250.0,249.0,246.0,241.0,245.0,251.0,247.0,247.0,239.0,245.0,251.0,248.0,247.0,240.0,245.0,250.0,248.0,244.0,238.0,245.0,249.0,246.0,244.0,237.0,247.0,249.0,245.0,243.0,242.0,246.0,250.0,245.0,244.0,240.0,249.0,251.0,246.0,246.0,241.0,251.0,252.0,246.0,246.0,249.0,252.0,249.0,247.0,247.0,248.0,253.0,250.0,245.0,246.0,250.0,253.0,251.0,246.0,246.0,247.0,254.0,251.0,245.0,247.0,247.0,253.0,250.0,246.0,247.0,249.0,254.0,250.0,249.0,248.0,251.0,254.0,252.0,244.0,249.0,255.0,253.0,250.0,245.0,250.0,255.0,254.0,249.0,244.0,250.0,253.0,252.0,249.0,243.0,250.0,253.0,251.0,247.0,245.0,250.0,252.0,247.0,246.0,241.0,250.0,252.0,248.0,248.0,241.0,252.0,254.0,252.0,248.0,243.0,252.0,253.0,249.0,247.0,243.0,253.0,253.0,249.0,248.0,244.0,249.0,253.0,248.0,247.0,246.0,252.0,251.0,245.0,246.0,246.0,252.0,248.0,243.0,245.0,246.0,252.0,249.0,246.0,245.0,247.0,252.0,249.0,244.0,247.0,252.0,251.0,249.0,242.0,246.0,253.0,252.0,248.0,242.0,248.0,250.0,252.0,248.0,242.0,246.0,250.0,251.0,247.0,241.0,245.0,250.0,250.0,247.0,241.0,245.0,252.0,249.0,249.0,242.0,245.0,252.0,251.0,246.0,239.0,248.0,250.0,247.0,245.0,239.0,250.0,250.0,246.0,245.0,240.0,246.0,251.0,246.0,245.0,241.0,249.0,250.0,242.0,243.0,242.0,250.0,249.0,243.0,245.0,243.0,251.0,249.0,246.0,245.0,245.0,250.0,251.0,245.0,245.0,247.0,253.0,252.0,246.0,245.0,248.0,252.0,252.0,245.0,244.0,244.0,251.0,249.0,243.0,245.0,250.0,251.0,246.0,239.0,244.0,250.0,249.0,246.0,242.0,243.0,249.0,249.0,248.0,242.0,244.0,251.0,249.0,245.0,240.0,249.0,253.0,250.0,247.0,240.0,251.0,251.0,247.0,246.0,240.0,245.0,250.0,247.0,244.0,238.0,245.0,251.0,247.0,245.0,238.0,246.0,250.0,246.0,246.0,238.0,248.0,250.0,248.0,245.0,239.0,250.0,251.0,244.0,244.0,245.0,251.0,249.0,245.0,244.0,246.0,250.0,250.0,244.0,244.0,242.0,250.0,250.0,244.0,244.0,249.0,252.0,247.0,241.0,244.0,249.0,250.0,248.0,244.0,244.0,250.0,250.0,249.0,244.0,246.0,250.0,252.0,249.0,243.0,245.0,253.0,252.0,248.0,243.0,246.0,249.0,252.0,248.0,242.0,247.0,250.0,253.0,248.0,243.0,247.0,253.0,250.0,248.0,242.0,250.0,253.0,251.0,250.0,244.0,252.0,255.0,256.0,251.0,246.0,254.0,256.0,253.0,251.0,251.0,259.0,257.0,254.0,252.0,254.0,257.0,257.0,254.0,253.0,250.0,259.0,258.0,254.0,255.0,251.0,260.0,257.0,254.0,252.0,252.0,259.0,256.0,255.0,252.0,253.0,259.0,258.0,253.0,251.0,252.0,259.0,254.0,250.0,249.0,256.0,257.0,253.0,248.0,250.0,252.0,255.0,252.0,246.0,249.0,251.0,254.0,250.0,245.0,249.0,255.0,251.0,249.0,243.0,249.0,253.0,252.0,249.0,243.0,250.0,253.0,252.0,248.0,242.0,250.0,254.0,252.0,248.0,241.0,251.0,252.0,249.0,246.0,239.0,245.0,252.0,249.0,246.0,240.0,246.0,252.0,247.0,245.0,241.0,250.0,250.0,244.0,245.0,242.0,250.0,250.0,245.0,244.0,241.0,250.0,249.0,244.0,243.0,242.0,249.0,247.0,240.0,242.0,247.0,247.0,246.0,238.0,242.0,243.0,248.0,245.0,238.0,241.0,244.0,248.0,244.0,241.0,241.0,244.0,246.0,245.0,239.0,242.0,245.0,247.0,247.0,239.0,241.0,246.0,248.0,245.0,238.0,241.0,248.0,246.0,244.0,236.0,244.0,247.0,246.0,242.0,236.0,241.0,248.0,244.0,243.0,236.0,240.0
