211.0,216.0,210.0,210.0,204.0,210.0,216.0,210.0,210.0,204.0,211.0,216.0,210.0,213.0,205.0,213.0,217.0,213.0,213.0,206.0,213.0,218.0,211.0,212.0,211.0,216.0,219.0,210.0,212.0,212.0,215.0,218.0,211.0,212.0,209.0,217.0,219.0,210.0,213.0,215.0,217.0,217.0,208.0,212.0,216.0,217.0,216.0,210.0,213.0,217.0,216.0,220.0,210.0,214.0,220.0,219.0,220.0,211.0,214.0,221.0,219.0,219.0,210.0,215.0,219.0,218.0,219.0,210.0,215.0,219.0,220.0,218.0,210.0,216.0,222.0,217.0,217.0,210.0,217.0,222.0,216.0,218.0,209.0,219.0,222.0,218.0,217.0,209.0,218.0,224.0,215.0,217.0,217.0,225.0,226.0,217.0,220.0,219.0,224.0,226.0,217.0,215.0,219.0,224.0,225.0,220.0,225.0,220.0,231.0,233.0,224.0,227.0,227.0,231.0,230.0,227.0,228.0,227.0,233.0,233.0,229.0,231.0,227.0,227.0,227.0,220.0,222.0,229.0,228.0,226.0,218.0,222.0,225.0,225.0,226.0,218.0,222.0,225.0,225.0,223.0,222.0,230.0,234.0,229.0,228.0,222.0,228.0,232.0,226.0,227.0,219.0,226.0,229.0,226.0,223.0,216.0,224.0,228.0,224.0,223.0,217.0,228.0,231.0,226.0,226.0,220.0,226.0,230.0,225.0,225.0,219.0,225.0,231.0,224.0,224.0,222.0,229.0,228.0,219.0,224.0,221.0,227.0,227.0,222.0,222.0,225.0,228.0,230.0,222.0,215.0,146.0,8.0,0.0,0.0,0.0,0.0,0.0,0.0,0.0,665.0,665.0,665.0,665.0,664.0,659.0,60.0,2.0,0.0,0.0,0.0,1.0,690.0,665.0,663.0,663.0,665.0,664.0,665.0,664.0,664.0,665.0,665.0,664.0,665.0,665.0,665.0,665.0,665.0,665.0,665.0,666.0,665.0,665.0,666.0,665.0,666.0,665.0,665.0,665.0,665.0,666.0,664.0,666.0,666.0,665.0,665.0,665.0,665.0,665.0,660.0,665.0,664.0,663.0,664.0,664.0,666.0,663.0,663.0,664.0,663.0,664.0,664.0,664.0,666.0,665.0,665.0,664.0,665.0,666.0,665.0,665.0,665.0,665.0,666.0,665.0,665.0,664.0,664.0,665.0,664.0,666.0,665.0,665.0,666.0,665.0,665.0,665.0,666.0,666.0,665.0,665.0,665.0,665.0,667.0,665.0,665.0,666.0,665.0,666.0,665.0,666.0,666.0,665.0,666.0,665.0,666.0,666.0,665.0,666.0,665.0,666.0,666.0,666.0,667.0,665.0,665.0,666.0,665.0,666.0,666.0,665.0,666.0,665.0,666.0,665.0,666.0,666.0,665.0,666.0,665.0,665.0,666.0,666.0,666.0,665.0,665.0,666.0,665.0,666.0,665.0,666.0,666.0,665.0,665.0,666.0,666.0,666.0,665.0,666.0,666.0,665.0,667.0,665.0,665.0,665.0,665.0,666.0,666.0,665.0,665.0,666.0,666.0,665.0,666.0,665.0,665.0,657.0,644.0,633.0,622.0,612.0,602.0,590.0,580.0,570.0,560.0,551.0,540.0,530.0,522.0,511.0,503.0,493.0,486.0,477.0,468.0,461.0,453.0,445.0,438.0,429.0,423.0,415.0,408.0,401.0,394.0,387.0,380.0,373.0,368.0,361.0,355.0,349.0,342.0,338.0,332.0,326.0,321.0,317.0,311.0,305.0,300.0,295.0,290.0,286.0,281.0,276.0,272.0,267.0,263.0,258.0,256.0,250.0,246.0,242.0,238.0,234.0,231.0,227.0,224.0,219.0,216.0,213.0,209.0,207.0,202.0,199.0,196.0,193.0,191.0,188.0,184.0,182.0,178.0,176.0,172.0,170.0,168.0,164.0,163.0,160.0,157.0,156.0,153.0,150.0,148.0,145.0,143.0,147.0,170.0,168.0,207.0,217.0,247.0,286.0,294.0,346.0,366.0,397.0,445.0,455.0,507.0,521.0,559.0,605.0,612.0,660.0,666.0,666.0,666.0,665.0,665.0,666.0,665.0,665.0,666.0,665.0,666.0,665.0,666.0,665.0,666.0,666.0,665.0,666.0,665.0,665.0,667.0,666.0,665.0,665.0,665.0,666.0,665.0,665.0,665.0,665.0,666.0,665.0,665.0,666.0,665.0,666.0,665.0,665.0,665.0,666.0,666.0,665.0,665.0,665.0,665.0,666.0,666.0,665.0,665.0,665.0,666.0,665.0,666.0,666.0,666.0,666.0,665.0,665.0,666.0,666.0,666.0,665.0,665.0,666.0,666.0,667.0,665.0,665.0,666.0,665.0,666.0,665.0,666.0,666.0,665.0,666.0,665.0,665.0,667.0,665.0,666.0,665.0,665.0,666.0,666.0,666.0,665.0,665.0,666.0,665.0,665.0,665.0,665.0,666.0,665.0,665.0,665.0,666.0,666.0,665.0,665.0,665.0,665.0,666.0,666.0,665.0,665.0,665.0,666.0,665.0,665.0,665.0,665.0,666.0,665.0,665.0,666.0,666.0,666.0,665.0,665.0,666.0,665.0,666.0,665.0,665.0,666.0,665.0,666.0,666.0,665.0,666.0,665.0,666.0,665.0,665.0,667.0,665.0,666.0,665.0,665.0,666.0,665.0,666.0,665.0,665.0,666.0,665.0,667.0,665.0,665.0,666.0,665.0,666.0,665.0,666.0,666.0,665.0,665.0,665.0,665.0,667.0,665.0,665.0,665.0,665.0,666.0,665.0,665.0,662.0,665.0,666.0,651.0,665.0,642.0,651.0,656.0,629.0,649.0,621.0,629.0,635.0,610.0,627.0,601.0,607.0,612.0,591.0,608.0,583.0,594.0,594.0,571.0,588.0,566.0,575.0,577.0,553.0,569.0,546.0,554.0,559.0,534.0,554.0,527.0,534.0,542.0,515.0,531.0,514.0,509.0,526.0,499.0,515.0,498.0,491.0,507.0,481.0,498.0,487.0,482.0,494.0,468.0,484.0,472.0,464.0,480.0,454.0,469.0,462.0,449.0,469.0,441.0,457.0,450.0,437.0,455.0,429.0,442.0,438.0,422.0,442.0,415.0,431.0,428.0,410.0,430.0,405.0,419.0,417.0,403.0,421.0,395.0,408.0,404.0,393.0,408.0,385.0,397.0,401.0,382.0,398.0,378.0,386.0,391.0,371.0,388.0,367.0,373.0,382.0,361.0,378.0,355.0,365.0,374.0,353.0,369.0,355.0,354.0,369.0,346.0,359.0,350.0,346.0,360.0,338.0,352.0,343.0,341.0,354.0,331.0,345.0,331.0,334.0,347.0,324.0,336.0,324.0,326.0,339.0,316.0,329.0,320.0,319.0,333.0,312.0,325.0,315.0,315.0,326.0,305.0,315.0,316.0,303.0,319.0,297.0,307.0,311.0,299.0,311.0,289.0,300.0,299.0,292.0,305.0,285.0,293.0,301.0,285.0,298.0,283.0,289.0,297.0,280.0,291.0,274.0,283.0,291.0,274.0,289.0,271.0,278.0,287.0,271.0,283.0,265.0,274.0,284.0,267.0,279.0,264.0,270.0,278.0,264.0,275.0,260.0,266.0,274.0,258.0,270.0,257.0,262.0,272.0,253.0,263.0,255.0,260.0,269.0,250.0,261.0,253.0,255.0,266.0,248.0,257.0,251.0,252.0,261.0,243.0,249.0,253.0,244.0,256.0,239.0,244.0,253.0,244.0,254.0,236.0,243.0,245.0,242.0,250.0,233.0,241.0,244.0,238.0,249.0,233.0,240.0,245.0,239.0,249.0,233.0,241.0,247.0,238.0,251.0,233.0,240.0,248.0,236.0,247.0,232.0,239.0,249.0,235.0,245.0,231.0,239.0,247.0,234.0,243.0,233.0,237.0,247.0,232.0,241.0,233.0,238.0,248.0,230.0,237.0,233.0,237.0,246.0,229.0,238.0,233.0,236.0,246.0,230.0,238.0,234.0,234.0,244.0,227.0,235.0,233.0,232.0,242.0,226.0,233.0,234.0,233.0,244.0,226.0,233.0,228.0,231.0,242.0,225.0,230.0,233.0,227.0,235.0,220.0,227.0,234.0,225.0,235.0,221.0,226.0,233.0,226.0,234.0,219.0,224.0,233.0,224.0,231.0,219.0,226.0,235.0,222.0,228.0,218.0,224.0,230.0,219.0,225.0,217.0,221.0,231.0,218.0,224.0,213.0,221.0,229.0,217.0,224.0,213.0,221.0,231.0,217.0,226.0,215.0,222.0,230.0,217.0,223.0,213.0,220.0,228.0,214.0,220.0,219.0,219.0,227.0,214.0,217.0,220.0,221.0
34.0,33.0,32.0,34.0,32.0,33.0,33.0,33.0,33.0,33.0,33.0,32.0,32.0,32.0,32.0,32.0,33.0,32.0,32.0,32.0,33.0,33.0,33.0,32.0,32.0,32.0,32.0,32.0,33.0,32.0,32.0,32.0,31.0,33.0,32.0,33.0,33.0,32.0,32.0,32.0,32.0,32.0,32.0,32.0,32.0,31.0,32.0,32.0,32.0,32.0,32.0,33.0,32.0,32.0,33.0,32.0,32.0,31.0,31.0,32.0,32.0,32.0,32.0,32.0,32.0,32.0,32.0,32.0,32.0,32.0,32.0,31.0,32.0,33.0,32.0,31.0,32.0,31.0,32.0,32.0,32.0,32.0,32.0,31.0,32.0,31.0,33.0,32.0,32.0,32.0,31.0,32.0,32.0,32.0,32.0,32.0,31.0,32.0,32.0,33.0,32.0,32.0,32.0,31.0,33.0,32.0,32.0,32.0,32.0,33.0,32.0,33.0,33.0,32.0,33.0,32.0,32.0,33.0,33.0,34.0,32.0,33.0,33.0,32.0,34.0,32.0,34.0,34.0,33.0,34.0,33.0,34.0,34.0,33.0,34.0,34.0,33.0,35.0,33.0,33.0,33.0,33.0,33.0,33.0,34.0,34.0,33.0,34.0,33.0,33.0,35.0,34.0,35.0,34.0,34.0,33.0,34.0,34.0,32.0,33.0,33.0,33.0,33.0,33.0,33.0,32.0,32.0,33.0,32.0,34.0,32.0,32.0,33.0,32.0,32.0,33.0,33.0,34.0,32.0,33.0,33.0,33.0,34.0,32.0,33.0,33.0,32.0,33.0,33.0,34.0,35.0,36.0,37.0,37.0,39.0,38.0,38.0,38.0,38.0,43.0,43.0,42.0,42.0,41.0,41.0,41.0,41.0,40.0,40.0,40.0,39.0,51.0,45.0,45.0,44.0,44.0,44.0,43.0,42.0,41.0,42.0,40.0,41.0,40.0,40.0,40.0,40.0,38.0,38.0,39.0,39.0,38.0,38.0,38.0,37.0,37.0,37.0,37.0,36.0,38.0,36.0,36.0,36.0,36.0,36.0,36.0,36.0,35.0,35.0,35.0,35.0,34.0,35.0,34.0,35.0,34.0,34.0,33.0,35.0,34.0,34.0,34.0,34.0,34.0,33.0,34.0,33.0,33.0,33.0,34.0,33.0,33.0,34.0,33.0,33.0,33.0,33.0,34.0,32.0,32.0,33.0,31.0,32.0,33.0,33.0,32.0,33.0,32.0,33.0,32.0,33.0,32.0,32.0,33.0,32.0,32.0,33.0,32.0,32.0,33.0,33.0,32.0,32.0,34.0,32.0,32.0,33.0,33.0,33.0,34.0,33.0,32.0,32.0,33.0,32.0,33.0,33.0,32.0,33.0,33.0,33.0,33.0,34.0,32.0,33.0,33.0,33.0,33.0,34.0,33.0,33.0,34.0,33.0,33.0,33.0,34.0,32.0,33.0,33.0,33.0,33.0,33.0,32.0,33.0,32.0,33.0,33.0,33.0,32.0,32.0,32.0,31.0,32.0,33.0,33.0,32.0,33.0,33.0,32.0,32.0,33.0,32.0,31.0,32.0,31.0,32.0,33.0,33.0,32.0,32.0,33.0,32.0,32.0,33.0,32.0,32.0,32.0,31.0,31.0,32.0,32.0,31.0,31.0,31.0,31.0,31.0,32.0,30.0,30.0,31.0,31.0,30.0,32.0,30.0,31.0,30.0,31.0,30.0,31.0,30.0,30.0,30.0,30.0,31.0,29.0,31.0,30.0,30.0,30.0,30.0,30.0,31.0,30.0,30.0,31.0,31.0,31.0,30.0,32.0,30.0,31.0,31.0,30.0,31.0,32.0,30.0,31.0,31.0,31.0,31.0,31.0,31.0,30.0,31.0,31.0,31.0,31.0,32.0,31.0,32.0,31.0,31.0,31.0,33.0,32.0,31.0,31.0,31.0,31.0,32.0,31.0,32.0,31.0,31.0,32.0,31.0,32.0,31.0,32.0,33.0,33.0,33.0,34.0,34.0,34.0,34.0,34.0,35.0,34.0,35.0,34.0,36.0,35.0,36.0,36.0,37.0,36.0,36.0,36.0,37.0,35.0,37.0,36.0,35.0,36.0,35.0,35.0,35.0,35.0,34.0,34.0,35.0,35.0,33.0,35.0,33.0,33.0,33.0,34.0,33.0,33.0,33.0,34.0,33.0,33.0,33.0,33.0,35.0,32.0,33.0,33.0,33.0,33.0,33.0,34.0,32.0,33.0,34.0,34.0,33.0,34.0,34.0,33.0,33.0,34.0,33.0,34.0,34.0,33.0,33.0,32.0,33.0,33.0,33.0,32.0,33.0,33.0,33.0,32.0,33.0,32.0,32.0,32.0,31.0,32.0,33.0,32.0,32.0,32.0,32.0,32.0,32.0,32.0,31.0,32.0,31.0,31.0,32.0,33.0,31.0,31.0,31.0,31.0,31.0,32.0,32.0,32.0,32.0,31.0,31.0,32.0,33.0,32.0,31.0,32.0,31.0,31.0,33.0,32.0,32.0,32.0,31.0,32.0,32.0,33.0,32.0,32.0,33.0,32.0,32.0,33.0,32.0,32.0,32.0,31.0,33.0,33.0,33.0,32.0,32.0,33.0,32.0,33.0,33.0,32.0,33.0,32.0,33.0,33.0,33.0,33.0,33.0,33.0,33.0,33.0,33.0,34.0,32.0,33.0,33.0,34.0,33.0,34.0,33.0,32.0,33.0,33.0,33.0,33.0,34.0,33.0,33.0,33.0,34.0,33.0,35.0,33.0,33.0,33.0,33.0,33.0,33.0,33.0,32.0,33.0,33.0,33.0,33.0,33.0,32.0,34.0,33.0,33.0,33.0,34.0,34.0,33.0,34.0,34.0,33.0,33.0,32.0,33.0,33.0,33.0,33.0,32.0,33.0,32.0,32.0,32.0,31.0,32.0,33.0,31.0,32.0,32.0,31.0,32.0,32.0,33.0,31.0,32.0,31.0,31.0,31.0,31.0,31.0,32.0,32.0,31.0,31.0,32.0,32.0,31.0,31.0,31.0,31.0,32.0,31.0,31.0,31.0,31.0,31.0,31.0,32.0,31.0,31.0,32.0,31.0,32.0,32.0,32.0,32.0,31.0,31.0,31.0,31.0,32.0,31.0,31.0,32.0,31.0,31.0,32.0,32.0,32.0,32.0,31.0,32.0,32.0,33.0,32.0,32.0,32.0,31.0,32.0,32.0,32.0,32.0,32.0,31.0,32.0,33.0,32.0,32.0,32.0,31.0,32.0,31.0,33.0,32.0,32.0,32.0,32.0,32.0,33.0,32.0,32.0,32.0,31.0,33.0,32.0,33.0,32.0,33.0,33.0,32.0,32.0,32.0,32.0,32.0,32.0,32.0,32.0,33.0,32.0,32.0,33.0,31.0,32.0,33.0,33.0,32.0,32.0,32.0,32.0,32.0,33.0,32.0,32.0,33.0,31.0,33.0,33.0,33.0,32.0,32.0,33.0,32.0,32.0,33.0,32.0,32.0,32.0,32.0,32.0,33.0,33.0,32.0,33.0,32.0,32.0,32.0,34.0,32.0,33.0,32.0,33.0,33.0,33.0,32.0,32.0,32.0,33.0,33.0,33.0,32.0,32.0,32.0,32.0,33.0,32.0,33.0,32.0,32.0,33.0,32.0,32.0,33.0,32.0,32.0,33.0,32.0,33.0,32.0,33.0,32.0,32.0,33.0,32.0,32.0,32.0,32.0,32.0,32.0,33.0,32.0,32.0,33.0,32.0,33.0,32.0,33.0,32.0,33.0,32.0,32.0,32.0,32.0,32.0,33.0,32.0,32.0,33.0,31.0,32.0,32.0,32.0,32.0,32.0,33.0,33.0,32.0,33.0,32.0,33.0,33.0,32.0,32.0,33.0,32.0,32.0,33.0,33.0,32.0,32.0,33.0,32.0,32.0,32.0,31.0,32.0,33.0,32.0,32.0,32.0,32.0,32.0,33.0,32.0,32.0,33.0,31.0,33.0,32.0,33.0,32.0,32.0,32.0,32.0,32.0,33.0,32.0,32.0,32.0,31.0,32.0,32.0,32.0,32.0,32.0,32.0,32.0,32.0,32.0,32.0,32.0,32.0,32.0,32.0,33.0,33.0,32.0,33.0,31.0,32.0,32.0,33.0,32.0,32.0,31.0,32.0,31.0,33.0,32.0,32.0,32.0,31.0,32.0,32.0,33.0,32.0,32.0,32.0,33.0,32.0,34.0,32.0,32.0,33.0,32.0,33.0,33.0,32.0,33.0,33.0,33.0,33.0,32.0,34.0,32.0,33.0,32.0,32.0,33.0,34.0,33.0,32.0,33.0,34.0,32.0,33.0,33.0,32.0,33.0,32.0,34.0,32.0,34.0
227.0,228.0,229.0,221.0,222.0,225.0,229.0,229.0,221.0,222.0,229.0,229.0,232.0,225.0,224.0,232.0,231.0,235.0,225.0,228.0,232.0,231.0,233.0,226.0,231.0,238.0,231.0,231.0,226.0,232.0,236.0,231.0,232.0,226.0,228.0,235.0,230.0,230.0,226.0,231.0,234.0,227.0,226.0,224.0,232.0,234.0,226.0,227.0,224.0,232.0,234.0,228.0,228.0,226.0,234.0,236.0,228.0,229.0,226.0,233.0,234.0,226.0,225.0,225.0,230.0,231.0,224.0,221.0,221.0,228.0,231.0,222.0,219.0,224.0,228.0,227.0,221.0,220.0,226.0,228.0,228.0,222.0,221.0,229.0,229.0,232.0,224.0,224.0,231.0,230.0,229.0,225.0,230.0,237.0,233.0,234.0,229.0,233.0,237.0,232.0,233.0,228.0,234.0,240.0,234.0,234.0,232.0,233.0,243.0,236.0,230.0,227.0,226.0,230.0,225.0,223.0,220.0,220.0,223.0,221.0,213.0,214.0,215.0,216.0,213.0,204.0,206.0,215.0,212.0,210.0,201.0,205.0,209.0,207.0,206.0,198.0,200.0,207.0,206.0,205.0,198.0,206.0,213.0,203.0,205.0,196.0,206.0,212.0,203.0,204.0,194.0,204.0,208.0,203.0,202.0,196.0,206.0,208.0,204.0,201.0,196.0,207.0,209.0,205.0,204.0,201.0,208.0,211.0,206.0,204.0,200.0,208.0,213.0,208.0,206.0,207.0,215.0,211.0,207.0,209.0,212.0,219.0,213.0,212.0,209.0,215.0,219.0,217.0,214.0,206.0,210.0,209.0,196.0,186.0,183.0,185.0,179.0,175.0,166.0,183.0,189.0,191.0,191.0,185.0,188.0,205.0,206.0,195.0,192.0,186.0,192.0,201.0,198.0,193.0,197.0,205.0,206.0,205.0,202.0,206.0,213.0,215.0,209.0,209.0,213.0,220.0,219.0,214.0,212.0,224.0,221.0,221.0,216.0,216.0,220.0,225.0,225.0,220.0,216.0,224.0,227.0,225.0,221.0,223.0,231.0,224.0,223.0,221.0,226.0,232.0,225.0,228.0,224.0,231.0,237.0,231.0,230.0,226.0,231.0,235.0,229.0,232.0,227.0,235.0,240.0,234.0,237.0,233.0,234.0,240.0,235.0,237.0,234.0,238.0,248.0,239.0,242.0,238.0,246.0,251.0,237.0,240.0,238.0,244.0,249.0,241.0,247.0,248.0,252.0,259.0,248.0,253.0,251.0,256.0,261.0,251.0,255.0,264.0,261.0,265.0,256.0,262.0,264.0,266.0,270.0,257.0,260.0,264.0,262.0,265.0,256.0,259.0,265.0,260.0,265.0,256.0,258.0,266.0,257.0,262.0,252.0,254.0,259.0,257.0,257.0,249.0,250.0,260.0,252.0,253.0,245.0,252.0,255.0,246.0,246.0,240.0,245.0,252.0,244.0,245.0,240.0,245.0,250.0,240.0,243.0,239.0,247.0,250.0,240.0,241.0,239.0,246.0,247.0,239.0,240.0,241.0,247.0,251.0,240.0,241.0,243.0,246.0,250.0,240.0,242.0,244.0,247.0,249.0,239.0,239.0,241.0,248.0,250.0,240.0,244.0,241.0,249.0,250.0,240.0,242.0,252.0,247.0,252.0,244.0,246.0,254.0,249.0,254.0,244.0,247.0,255.0,250.0,250.0,241.0,243.0,252.0,243.0,246.0,240.0,247.0,251.0,243.0,245.0,240.0,244.0,251.0,242.0,242.0,239.0,242.0,249.0,240.0,243.0,237.0,241.0,246.0,236.0,239.0,232.0,238.0,242.0,237.0,236.0,232.0,238.0,241.0,233.0,237.0,231.0,239.0,243.0,234.0,233.0,239.0,241.0,243.0,234.0,233.0,234.0,240.0,243.0,232.0,235.0,234.0,241.0,241.0,235.0,234.0,241.0,238.0,239.0,232.0,232.0,240.0,235.0,238.0,231.0,232.0,240.0,240.0,238.0,231.0,232.0,236.0,236.0,236.0,230.0,231.0,235.0,235.0,234.0,228.0,228.0,235.0,233.0,232.0,228.0,227.0,237.0,233.0,233.0,227.0,232.0,237.0,230.0,231.0,227.0,233.0,236.0,231.0,229.0,227.0,233.0,237.0,229.0,230.0,227.0,236.0,238.0,230.0,228.0,235.0,237.0,238.0,231.0,228.0,230.0,237.0,239.0,231.0,233.0,233.0,239.0,239.0,232.0,232.0,233.0,238.0,237.0,230.0,228.0,233.0,237.0,240.0,229.0,225.0,232.0,234.0,235.0,228.0,226.0,233.0,233.0,230.0,225.0,227.0,232.0,230.0,228.0,223.0,221.0,230.0,230.0,228.0,224.0,224.0,233.0,229.0,231.0,228.0,233.0,238.0,229.0,231.0,227.0,235.0,238.0,232.0,230.0,227.0,233.0,237.0,229.0,229.0,226.0,230.0,235.0,228.0,226.0,224.0,228.0,234.0,226.0,224.0,224.0,228.0,232.0,225.0,227.0,224.0,230.0,234.0,224.0,223.0,227.0,232.0,230.0,226.0,222.0,227.0,229.0,231.0,223.0,222.0,228.0,231.0,233.0,226.0,225.0,233.0,234.0,234.0,228.0,232.0,236.0,234.0,235.0,229.0,229.0,238.0,235.0,234.0,230.0,230.0,238.0,233.0,235.0,229.0,229.0,238.0,232.0,232.0,227.0,229.0,237.0,235.0,232.0,227.0,230.0,233.0,233.0,230.0,227.0,228.0,234.0,226.0,225.0,223.0,229.0,232.0,225.0,223.0,222.0,227.0,232.0,224.0,224.0,221.0,229.0,234.0,225.0,224.0,228.0,233.0,231.0,226.0,224.0,230.0,232.0,234.0,227.0,224.0,230.0,233.0,235.0,227.0,224.0,227.0,235.0,236.0,229.0,228.0,232.0,240.0,241.0,232.0,234.0,237.0,241.0,241.0,234.0,233.0,239.0,243.0,241.0,234.0,235.0,244.0,237.0,241.0,233.0,235.0,243.0,239.0,239.0,234.0,236.0,240.0,237.0,233.0,229.0,235.0,240.0,231.0,228.0,228.0,232.0,236.0,230.0,226.0,224.0,229.0,232.0,225.0,226.0,224.0,230.0,233.0,227.0,225.0,224.0,232.0,234.0,228.0,226.0,225.0,232.0,234.0,228.0,225.0,225.0,229.0,235.0,226.0,225.0,226.0,234.0,234.0,227.0,225.0,228.0,235.0,237.0,230.0,227.0,232.0,237.0,235.0,228.0,227.0,234.0,236.0,234.0,229.0,227.0,237.0,231.0,232.0,226.0,230.0,237.0,233.0,233.0,227.0,232.0,236.0,236.0,234.0,230.0,229.0,238.0,234.0,237.0,231.0,233.0,240.0,234.0,234.0,230.0,232.0,238.0,232.0,235.0,230.0,231.0,240.0,232.0,229.0,227.0,235.0,234.0,228.0,227.0,227.0,235.0,237.0,228.0,229.0,228.0,232.0,237.0,229.0,227.0,228.0,236.0,234.0,227.0,225.0,229.0,233.0,233.0,227.0,226.0,232.0,234.0,233.0,227.0,227.0,232.0,234.0,235.0,227.0,225.0,234.0,233.0,235.0,228.0,227.0,234.0,235.0,236.0,227.0,228.0,230.0,236.0,237.0,231.0,233.0,241.0,237.0,239.0,233.0,236.0,245.0,237.0,239.0,234.0,238.0,245.0,238.0,244.0,237.0,243.0,250.0,241.0,247.0,242.0,250.0,253.0,243.0,248.0,242.0,250.0,253.0,242.0,244.0,242.0,245.0,250.0,238.0,240.0,237.0,243.0,247.0,238.0,238.0,235.0,242.0,245.0,235.0,237.0,234.0,241.0,244.0,235.0,235.0,233.0,241.0,241.0,233.0,233.0,241.0,240.0,242.0,233.0,232.0,240.0,240.0,240.0,233.0,234.0,237.0,240.0,240.0,234.0,234.0,244.0,238.0,238.0,234.0,236.0,244.0,238.0,237.0,233.0,236.0,243.0,236.0,237.0,233.0,234.0,240.0,236.0,235.0,231.0,235.0,239.0,233.0,234.0,229.0,235.0,239.0,236.0,236.0,230.0,233.0,243.0,236.0,239.0,234.0,240.0,241.0,233.0,232.0,233.0,240.0,241.0,234.0,235.0,233.0,239.0,239.0,230.0,228.0,228.0,238.0,240.0,234.0,231.0,238.0,238.0,239.0,232.0,231.0,239.0,238.0,239.0,231.0,230.0,232.0,237.0,236.0,229.0,227.0,233.0,235.0,235.0,229.0,228.0,236.0,235.0,235.0,228.0,229.0,237.0,234.0,237.0,227.0,228.0,237.0,234.0,235.0,229.0,235.0,240.0,235.0,238.0,230.0,238.0,243.0
246.0,247.0,243.0,241.0,234.0,241.0,245.0,240.0,239.0,233.0,243.0,245.0,239.0,239.0,232.0,244.0,245.0,241.0,239.0,233.0,243.0,245.0,239.0,239.0,240.0,245.0,247.0,239.0,239.0,242.0,246.0,247.0,239.0,241.0,239.0,249.0,247.0,240.0,242.0,246.0,246.0,245.0,237.0,242.0,248.0,249.0,246.0,241.0,244.0,250.0,250.0,248.0,242.0,244.0,253.0,252.0,249.0,243.0,247.0,253.0,253.0,249.0,243.0,248.0,251.0,252.0,248.0,241.0,245.0,251.0,251.0,249.0,242.0,251.0,256.0,250.0,248.0,242.0,252.0,256.0,250.0,250.0,243.0,253.0,255.0,253.0,252.0,246.0,251.0,251.0,244.0,245.0,248.0,252.0,253.0,247.0,248.0,249.0,250.0,252.0,242.0,243.0,245.0,253.0,255.0,247.0,250.0,250.0,257.0,255.0,243.0,247.0,245.0,249.0,247.0,241.0,244.0,244.0,247.0,248.0,236.0,242.0,243.0,243.0,242.0,231.0,239.0,246.0,244.0,246.0,236.0,244.0,246.0,245.0,245.0,236.0,239.0,246.0,244.0,245.0,238.0,249.0,251.0,243.0,244.0,237.0,247.0,251.0,242.0,243.0,234.0,243.0,246.0,240.0,240.0,234.0,245.0,244.0,241.0,238.0,234.0,245.0,248.0,242.0,242.0,240.0,245.0,249.0,244.0,244.0,237.0,246.0,249.0,243.0,243.0,245.0,250.0,248.0,242.0,245.0,248.0,253.0,249.0,246.0,247.0,249.0,254.0,253.0,245.0,241.0,240.0,239.0,229.0,221.0,222.0,223.0,224.0,216.0,212.0,228.0,233.0,238.0,235.0,231.0,241.0,249.0,247.0,238.0,233.0,231.0,232.0,243.0,236.0,235.0,240.0,246.0,247.0,245.0,240.0,245.0,251.0,250.0,247.0,241.0,249.0,254.0,252.0,249.0,245.0,254.0,255.0,249.0,249.0,246.0,251.0,255.0,249.0,248.0,241.0,251.0,252.0,248.0,248.0,248.0,256.0,253.0,246.0,249.0,251.0,255.0,250.0,249.0,250.0,254.0,257.0,255.0,249.0,249.0,253.0,255.0,252.0,246.0,248.0,253.0,259.0,255.0,251.0,251.0,252.0,259.0,257.0,251.0,252.0,252.0,259.0,256.0,252.0,254.0,261.0,261.0,257.0,252.0,256.0,260.0,257.0,254.0,249.0,254.0,259.0,260.0,256.0,251.0,256.0,260.0,257.0,253.0,253.0,260.0,260.0,258.0,256.0,258.0,264.0,268.0,263.0,260.0,257.0,266.0,266.0,265.0,262.0,259.0,266.0,266.0,263.0,263.0,259.0,269.0,266.0,264.0,261.0,258.0,266.0,266.0,262.0,259.0,258.0,264.0,264.0,257.0,255.0,261.0,263.0,258.0,254.0,254.0,256.0,264.0,259.0,253.0,255.0,257.0,261.0,258.0,252.0,255.0,261.0,259.0,255.0,249.0,253.0,259.0,256.0,256.0,247.0,253.0,260.0,257.0,254.0,245.0,254.0,256.0,254.0,252.0,244.0,251.0,253.0,252.0,250.0,243.0,249.0,257.0,252.0,252.0,244.0,248.0,255.0,251.0,249.0,243.0,253.0,253.0,245.0,248.0,243.0,252.0,254.0,248.0,248.0,245.0,255.0,254.0,248.0,246.0,243.0,251.0,251.0,242.0,246.0,250.0,252.0,250.0,241.0,244.0,246.0,252.0,250.0,241.0,245.0,247.0,251.0,249.0,243.0,245.0,249.0,251.0,248.0,243.0,243.0,247.0,248.0,249.0,242.0,243.0,248.0,248.0,247.0,241.0,244.0,251.0,252.0,251.0,240.0,250.0,254.0,251.0,250.0,242.0,247.0,254.0,250.0,249.0,241.0,248.0,253.0,249.0,247.0,242.0,252.0,254.0,246.0,246.0,242.0,251.0,252.0,248.0,248.0,243.0,253.0,254.0,248.0,248.0,247.0,251.0,254.0,246.0,247.0,245.0,252.0,255.0,247.0,248.0,243.0,252.0,254.0,247.0,248.0,242.0,252.0,253.0,245.0,248.0,250.0,252.0,251.0,245.0,247.0,252.0,253.0,252.0,244.0,246.0,251.0,252.0,252.0,242.0,246.0,253.0,252.0,249.0,241.0,250.0,254.0,250.0,249.0,242.0,248.0,254.0,250.0,249.0,241.0,248.0,256.0,251.0,250.0,241.0,247.0,252.0,245.0,246.0,237.0,246.0,253.0,250.0,247.0,237.0,248.0,251.0,248.0,247.0,239.0,248.0,251.0,242.0,243.0,243.0,247.0,250.0,241.0,244.0,238.0,247.0,250.0,241.0,244.0,240.0,248.0,250.0,242.0,246.0,249.0,251.0,248.0,240.0,245.0,250.0,251.0,252.0,242.0,245.0,249.0,249.0,249.0,240.0,245.0,246.0,249.0,248.0,239.0,243.0,245.0,249.0,246.0,238.0,243.0,247.0,247.0,248.0,240.0,243.0,248.0,248.0,247.0,237.0,246.0,253.0,247.0,248.0,237.0,245.0,249.0,244.0,243.0,235.0,246.0,249.0,247.0,245.0,236.0,247.0,251.0,243.0,245.0,245.0,248.0,252.0,243.0,245.0,241.0,251.0,252.0,244.0,247.0,242.0,251.0,252.0,246.0,246.0,244.0,251.0,251.0,244.0,246.0,244.0,252.0,252.0,245.0,246.0,248.0,252.0,255.0,246.0,247.0,249.0,252.0,251.0,240.0,245.0,250.0,253.0,251.0,242.0,246.0,250.0,251.0,249.0,242.0,245.0,251.0,251.0,250.0,240.0,248.0,253.0,247.0,247.0,238.0,248.0,253.0,248.0,249.0,240.0,249.0,252.0,248.0,247.0,239.0,246.0,253.0,248.0,248.0,241.0,248.0,256.0,247.0,248.0,240.0,249.0,255.0,247.0,248.0,238.0,249.0,253.0,246.0,247.0,246.0,253.0,253.0,247.0,248.0,246.0,253.0,254.0,246.0,249.0,249.0,253.0,255.0,246.0,247.0,253.0,255.0,253.0,243.0,248.0,250.0,253.0,250.0,242.0,246.0,251.0,251.0,248.0,243.0,245.0,252.0,251.0,251.0,242.0,247.0,255.0,255.0,254.0,246.0,248.0,254.0,255.0,252.0,245.0,249.0,253.0,256.0,252.0,245.0,250.0,257.0,255.0,250.0,246.0,251.0,258.0,254.0,255.0,246.0,253.0,258.0,252.0,252.0,244.0,255.0,258.0,252.0,251.0,248.0,256.0,255.0,249.0,249.0,251.0,257.0,257.0,250.0,250.0,251.0,256.0,259.0,250.0,251.0,248.0,256.0,256.0,248.0,250.0,249.0,256.0,254.0,246.0,250.0,248.0,255.0,253.0,251.0,250.0,250.0,257.0,255.0,246.0,250.0,256.0,253.0,252.0,244.0,249.0,256.0,254.0,251.0,243.0,249.0,251.0,253.0,250.0,240.0,246.0,253.0,248.0,247.0,243.0,246.0,253.0,247.0,246.0,240.0,250.0,254.0,247.0,249.0,240.0,248.0,253.0,250.0,247.0,238.0,249.0,252.0,248.0,246.0,239.0,248.0,250.0,246.0,245.0,239.0,245.0,250.0,246.0,245.0,241.0,251.0,252.0,242.0,244.0,243.0,249.0,247.0,238.0,241.0,240.0,245.0,243.0,240.0,241.0,242.0,247.0,245.0,239.0,243.0,249.0,249.0,248.0,240.0,244.0,251.0,251.0,248.0,240.0,245.0,248.0,250.0,248.0,239.0,243.0,250.0,250.0,248.0,239.0,243.0,250.0,248.0,246.0,240.0,242.0,251.0,250.0,249.0,240.0,246.0,252.0,250.0,248.0,244.0,254.0,257.0,252.0,249.0,244.0,255.0,256.0,251.0,250.0,246.0,252.0,257.0,253.0,252.0,248.0,257.0,256.0,249.0,250.0,250.0,258.0,256.0,251.0,253.0,253.0,262.0,257.0,255.0,254.0,255.0,260.0,262.0,254.0,253.0,255.0,257.0,255.0,250.0,250.0,254.0,257.0,257.0,252.0,252.0,252.0,259.0,256.0,251.0,251.0,256.0,257.0,253.0,246.0,249.0,257.0,257.0,254.0,250.0,251.0,258.0,256.0,254.0,246.0,252.0,257.0,256.0,255.0,248.0,259.0,260.0,256.0,255.0,250.0,258.0,258.0,253.0,251.0,247.0,252.0,258.0,253.0,250.0,245.0,252.0,257.0,253.0,251.0,247.0,256.0,258.0,252.0,252.0,246.0,256.0,256.0,254.0,247.0,243.0,253.0,254.0,248.0,248.0,250.0,253.0,254.0,248.0,247.0,250.0,254.0
