205.0,212.0,217.0,210.0,211.0,208.0,213.0,215.0,208.0,210.0,209.0,214.0,217.0,209.0,211.0,212.0,214.0,219.0,208.0,210.0,208.0,214.0,219.0,209.0,212.0,208.0,215.0,218.0,208.0,212.0,211.0,214.0,218.0,209.0,212.0,211.0,215.0,217.0,206.0,211.0,216.0,212.0,217.0,207.0,210.0,217.0,215.0,217.0,207.0,213.0,215.0,214.0,217.0,207.0,213.0,219.0,212.0,214.0,208.0,213.0,219.0,211.0,215.0,206.0,214.0,221.0,211.0,216.0,208.0,215.0,222.0,214.0,217.0,208.0,216.0,223.0,214.0,216.0,209.0,217.0,221.0,215.0,215.0,209.0,214.0,220.0,212.0,219.0,219.0,223.0,228.0,215.0,218.0,216.0,221.0,222.0,210.0,216.0,212.0,217.0,222.0,212.0,214.0,215.0,217.0,220.0,209.0,213.0,220.0,217.0,223.0,212.0,217.0,224.0,218.0,222.0,214.0,219.0,223.0,217.0,219.0,207.0,213.0,216.0,217.0,217.0,211.0,217.0,222.0,218.0,221.0,216.0,226.0,239.0,235.0,243.0,232.0,240.0,249.0,237.0,240.0,241.0,250.0,253.0,247.0,243.0,228.0,234.0,235.0,228.0,235.0,226.0,233.0,239.0,227.0,230.0,225.0,230.0,242.0,238.0,236.0,232.0,237.0,237.0,226.0,221.0,218.0,222.0,226.0,218.0,220.0,220.0,224.0,230.0,227.0,233.0,237.0,239.0,242.0,237.0,239.0,240.0,238.0,236.0,224.0,231.0,231.0,238.0,243.0,237.0,239.0,241.0,233.0,240.0,233.0,232.0,235.0,226.0,226.0,219.0,226.0,232.0,229.0,230.0,218.0,219.0,223.0,218.0,218.0,214.0,222.0,224.0,219.0,220.0,217.0,227.0,226.0,220.0,226.0,222.0,228.0,231.0,223.0,226.0,218.0,227.0,231.0,223.0,221.0,215.0,224.0,238.0,228.0,232.0,226.0,230.0,234.0,231.0,233.0,226.0,225.0,234.0,224.0,226.0,230.0,235.0,236.0,228.0,231.0,239.0,236.0,241.0,232.0,236.0,235.0,238.0,239.0,230.0,231.0,235.0,231.0,228.0,221.0,227.0,232.0,225.0,229.0,224.0,224.0,235.0,229.0,230.0,221.0,228.0,232.0,229.0,226.0,217.0,223.0,231.0,227.0,227.0,218.0,224.0,228.0,225.0,225.0,215.0,221.0,229.0,227.0,227.0,221.0,226.0,231.0,222.0,225.0,221.0,231.0,234.0,223.0,225.0,219.0,225.0,226.0,223.0,222.0,218.0,226.0,228.0,219.0,221.0,222.0,223.0,226.0,217.0,220.0,225.0,225.0,225.0,218.0,220.0,222.0,225.0,225.0,218.0,221.0,222.0,225.0,224.0,219.0,221.0,224.0,227.0,225.0,222.0,223.0,228.0,228.0,229.0,223.0,223.0,228.0,230.0,226.0,222.0,227.0,232.0,230.0,228.0,221.0,228.0,231.0,229.0,227.0,221.0,226.0,230.0,228.0,226.0,220.0,227.0,230.0,224.0,224.0,220.0,227.0,230.0,224.0,225.0,222.0,229.0,229.0,226.0,225.0,224.0,229.0,231.0,227.0,226.0,224.0,231.0,231.0,227.0,226.0,226.0,230.0,232.0,226.0,225.0,221.0,228.0,231.0,223.0,225.0,226.0,228.0,226.0,219.0,222.0,225.0,226.0,224.0,220.0,219.0,224.0,224.0,225.0,217.0,219.0,224.0,224.0,222.0,216.0,221.0,226.0,224.0,223.0,216.0,224.0,227.0,224.0,223.0,217.0,222.0,227.0,225.0,224.0,218.0,223.0,228.0,225.0,224.0,219.0,224.0,229.0,225.0,225.0,217.0,225.0,229.0,226.0,224.0,217.0,224.0,228.0,223.0,222.0,222.0,226.0,228.0,222.0,222.0,222.0,225.0,227.0,221.0,221.0,219.0,225.0,227.0,219.0,220.0,223.0,225.0,224.0,217.0,220.0,223.0,224.0,224.0,218.0,219.0,224.0,223.0,225.0,216.0,220.0,224.0,223.0,223.0,216.0,218.0,225.0,224.0,223.0,215.0,218.0,221.0,222.0,223.0,213.0,218.0,222.0,222.0,221.0,214.0,220.0,225.0,219.0,219.0,214.0,221.0,225.0,220.0,221.0,214.0,223.0,226.0,224.0,222.0,214.0,223.0,226.0,219.0,220.0,219.0,223.0,225.0,218.0,219.0,220.0,224.0,224.0,218.0,218.0,215.0,223.0,226.0,217.0,220.0,218.0,224.0,226.0,217.0,221.0,218.0,223.0,223.0,218.0,219.0,220.0,224.0,225.0,218.0,219.0,220.0,224.0,224.0,215.0,219.0,225.0,223.0,222.0,214.0,218.0,221.0,222.0,222.0,212.0,218.0,222.0,221.0,221.0,212.0,219.0,225.0,219.0,219.0,212.0,220.0,225.0,217.0,221.0,212.0,220.0,225.0,221.0,221.0,214.0,222.0,225.0,221.0,221.0,215.0,222.0,225.0,220.0,220.0,216.0,221.0,226.0,221.0,221.0,214.0,221.0,226.0,220.0,220.0,218.0,224.0,224.0,216.0,220.0,219.0,225.0,224.0,219.0,220.0,220.0,224.0,226.0,218.0,219.0,221.0,223.0,223.0,215.0,220.0,226.0,224.0,224.0,215.0,220.0,224.0,223.0,222.0,214.0,218.0,223.0,223.0,222.0,215.0,219.0,224.0,223.0,221.0,214.0,218.0,225.0,221.0,223.0,214.0,219.0,224.0,222.0,223.0,214.0,219.0,225.0,221.0,220.0,215.0,223.0,226.0,220.0,221.0,216.0,220.0,226.0,220.0,220.0,213.0,222.0,226.0,220.0,220.0,219.0,224.0,225.0,216.0,220.0,220.0,224.0,224.0,219.0,220.0,221.0,224.0,226.0,217.0,219.0,221.0,223.0,225.0,216.0,219.0,221.0,224.0,225.0,216.0,219.0,218.0,224.0,225.0,216.0,220.0,220.0,224.0,224.0,215.0,219.0,224.0,222.0,222.0,215.0,218.0,224.0,220.0,222.0,213.0,217.0,223.0,221.0,220.0,210.0,216.0,222.0,216.0,217.0,213.0,220.0,223.0,217.0,218.0,214.0,220.0,224.0,217.0,218.0,211.0,220.0,224.0,216.0,218.0,211.0,219.0,224.0,213.0,219.0,212.0,220.0,224.0,217.0,219.0,213.0,220.0,224.0,216.0,219.0,215.0,221.0,226.0,214.0,217.0,221.0,221.0,224.0,213.0,217.0,217.0,222.0,223.0,213.0,218.0,219.0,221.0,222.0,213.0,217.0,223.0,220.0,220.0,213.0,217.0,223.0,219.0,223.0,212.0,217.0,224.0,219.0,220.0,211.0,219.0,222.0,220.0,220.0,212.0,219.0,224.0,220.0,220.0,212.0,217.0,224.0,221.0,221.0,214.0,217.0,224.0,220.0,220.0,213.0,221.0,225.0,216.0,219.0,213.0,222.0,224.0,218.0,219.0,215.0,222.0,225.0,218.0,218.0,216.0,221.0,224.0,213.0,218.0,221.0,222.0,223.0,214.0,217.0,219.0,222.0,223.0,214.0,218.0,219.0,222.0,223.0,214.0,217.0,219.0,222.0,222.0,216.0,218.0,222.0,222.0,224.0,215.0,218.0,223.0,222.0,224.0,214.0,217.0,223.0,222.0,221.0,213.0,220.0,224.0,221.0,221.0,212.0,218.0,224.0,220.0,220.0,213.0,220.0,224.0,221.0,221.0,215.0,223.0,227.0,218.0,220.0,215.0,223.0,225.0,219.0,220.0,216.0,223.0,225.0,219.0,219.0,218.0,220.0,225.0,218.0,219.0,218.0,223.0,226.0,217.0,219.0,213.0,222.0,225.0,217.0,220.0,215.0,222.0,225.0,215.0,219.0,220.0,222.0,222.0,215.0,217.0,223.0,221.0,223.0,214.0,217.0,223.0,222.0,224.0,214.0,217.0,223.0,221.0,221.0,214.0,221.0,225.0,221.0,221.0,214.0,219.0,226.0,222.0,221.0,216.0,220.0,225.0,223.0,223.0,216.0,222.0,227.0,222.0,223.0,216.0,223.0,227.0,224.0,223.0,216.0,225.0,227.0,225.0,224.0,218.0,225.0,229.0,222.0,222.0,223.0,226.0,229.0,223.0,223.0,220.0,228.0,229.0,223.0,224.0,222.0,228.0,229.0,223.0,223.0,228.0,229.0,226.0,222.0,223.0,227.0,228.0,228.0,222.0,223.0,229.0,229.0,227.0,221.0,224.0,225.0,229.0,227.0,220.0,223.0,226.0,227.0,225.0,219.0,221.0,226.0
32.0,33.0,32.0,32.0,32.0,31.0,32.0,33.0,32.0,32.0,33.0,31.0,33.0,32.0,33.0,32.0,32.0,33.0,31.0,32.0,33.0,32.0,32.0,32.0,32.0,33.0,33.0,33.0,32.0,32.0,32.0,33.0,32.0,33.0,33.0,33.0,33.0,33.0,32.0,33.0,33.0,32.0,33.0,32.0,33.0,33.0,33.0,32.0,32.0,33.0,33.0,32.0,34.0,32.0,33.0,33.0,33.0,33.0,33.0,33.0,33.0,33.0,33.0,33.0,33.0,34.0,34.0,34.0,33.0,33.0,33.0,33.0,33.0,33.0,33.0,33.0,33.0,33.0,33.0,33.0,33.0,33.0,33.0,33.0,33.0,34.0,33.0,33.0,33.0,34.0,33.0,33.0,33.0,32.0,33.0,34.0,32.0,34.0,32.0,33.0,33.0,32.0,33.0,33.0,32.0,33.0,32.0,33.0,33.0,33.0,34.0,32.0,33.0,33.0,32.0,33.0,33.0,32.0,33.0,33.0,33.0,33.0,33.0,33.0,32.0,33.0,33.0,33.0,33.0,34.0,32.0,33.0,33.0,33.0,32.0,34.0,33.0,33.0,33.0,33.0,35.0,33.0,34.0,34.0,34.0,33.0,34.0,32.0,35.0,32.0,34.0,33.0,33.0,33.0,33.0,34.0,32.0,33.0,34.0,34.0,33.0,35.0,32.0,33.0,33.0,32.0,33.0,33.0,33.0,32.0,33.0,33.0,32.0,33.0,33.0,33.0,33.0,32.0,33.0,32.0,33.0,32.0,32.0,33.0,33.0,33.0,33.0,33.0,32.0,33.0,33.0,33.0,32.0,33.0,32.0,33.0,33.0,32.0,32.0,33.0,32.0,32.0,32.0,31.0,32.0,32.0,32.0,32.0,32.0,31.0,32.0,32.0,32.0,32.0,32.0,32.0,32.0,31.0,33.0,32.0,32.0,32.0,31.0,32.0,32.0,33.0,32.0,32.0,32.0,32.0,32.0,33.0,32.0,32.0,32.0,31.0,32.0,32.0,32.0,31.0,32.0,31.0,31.0,32.0,33.0,32.0,32.0,31.0,31.0,31.0,32.0,32.0,31.0,31.0,31.0,31.0,32.0,31.0,30.0,31.0,31.0,32.0,30.0,32.0,31.0,31.0,31.0,30.0,31.0,32.0,31.0,31.0,31.0,31.0,31.0,31.0,32.0,31.0,31.0,31.0,31.0,32.0,32.0,31.0,31.0,31.0,31.0,31.0,32.0,32.0,30.0,32.0,31.0,32.0,32.0,32.0,32.0,32.0,31.0,32.0,31.0,33.0,32.0,32.0,33.0,31.0,32.0,32.0,33.0,32.0,32.0,31.0,33.0,32.0,33.0,32.0,32.0,32.0,33.0,32.0,32.0,32.0,32.0,33.0,34.0,33.0,33.0,34.0,33.0,33.0,32.0,33.0,33.0,33.0,33.0,32.0,33.0,33.0,33.0,33.0,33.0,32.0,33.0,33.0,33.0,33.0,34.0,33.0,33.0,33.0,33.0,33.0,34.0,33.0,33.0,32.0,33.0,34.0,33.0,34.0,32.0,33.0,33.0,33.0,33.0,34.0,33.0,34.0,33.0,33.0,33.0,33.0,34.0,32.0,33.0,33.0,33.0,33.0,33.0,34.0,33.0,33.0,33.0,33.0,34.0,33.0,32.0,34.0,33.0,33.0,33.0,34.0,33.0,33.0,33.0,33.0,33.0,35.0,33.0,34.0,34.0,33.0,34.0,33.0,34.0,34.0,33.0,33.0,33.0,33.0,35.0,33.0,33.0,33.0,33.0,33.0,34.0,32.0,32.0,32.0,31.0,32.0,32.0,33.0,32.0,32.0,31.0,32.0,31.0,32.0,32.0,32.0,32.0,31.0,32.0,32.0,32.0,32.0,32.0,31.0,32.0,31.0,33.0,31.0,31.0,32.0,31.0,32.0,32.0,32.0,32.0,32.0,31.0,32.0,32.0,33.0,30.0,32.0,32.0,31.0,32.0,33.0,32.0,32.0,32.0,32.0,31.0,32.0,32.0,31.0,32.0,31.0,32.0,32.0,32.0,32.0,32.0,31.0,32.0,32.0,33.0,32.0,32.0,32.0,31.0,32.0,32.0,32.0,32.0,32.0,32.0,32.0,32.0,33.0,32.0,32.0,32.0,31.0,32.0,32.0,32.0,32.0,32.0,32.0,32.0,32.0,32.0,32.0,32.0,31.0,32.0,32.0,32.0,32.0,32.0,32.0,31.0,32.0,33.0,31.0,32.0,32.0,31.0,32.0,32.0,32.0,32.0,32.0,31.0,31.0,32.0,32.0,32.0,32.0,32.0,32.0,32.0,32.0,33.0,31.0,32.0,32.0,31.0,32.0,32.0,32.0,32.0,32.0,32.0,32.0,32.0,32.0,32.0,32.0,31.0,32.0,32.0,33.0,32.0,32.0,32.0,32.0,32.0,33.0,32.0,32.0,33.0,31.0,33.0,32.0,32.0,32.0,32.0,32.0,32.0,32.0,33.0,32.0,32.0,32.0,33.0,32.0,33.0,33.0,32.0,33.0,33.0,33.0,33.0,34.0,32.0,33.0,32.0,33.0,32.0,33.0,32.0,32.0,33.0,32.0,32.0,33.0,32.0,32.0,33.0,33.0,33.0,32.0,33.0,32.0,33.0,33.0,32.0,32.0,33.0,32.0,33.0,32.0,32.0,33.0,33.0,33.0,32.0,33.0,33.0,32.0,33.0,32.0,32.0,33.0,32.0,33.0,32.0,32.0,33.0,32.0,33.0,32.0,32.0,32.0,33.0,32.0,32.0,33.0,33.0,32.0,33.0,32.0,32.0,33.0,31.0,33.0,33.0,33.0,32.0,33.0,33.0,32.0,32.0,33.0,32.0,32.0,33.0,31.0,33.0,32.0,33.0,32.0,32.0,33.0,32.0,33.0,32.0,32.0,32.0,32.0,33.0,32.0,33.0,33.0,32.0,32.0,33.0,32.0,33.0,33.0,32.0,32.0,32.0,33.0,32.0,33.0,32.0,32.0,33.0,31.0,32.0,32.0,32.0,32.0,32.0,31.0,33.0,32.0,33.0,32.0,32.0,33.0,33.0,32.0,32.0,32.0,33.0,33.0,33.0,33.0,33.0,33.0,32.0,33.0,32.0,32.0,32.0,33.0,32.0,32.0,32.0,32.0,32.0,33.0,32.0,32.0,33.0,31.0,32.0,32.0,33.0,32.0,32.0,31.0,32.0,32.0,33.0,32.0,32.0,32.0,31.0,32.0,32.0,32.0,32.0,32.0,32.0,32.0,32.0,33.0,32.0,32.0,32.0,32.0,32.0,33.0,32.0,32.0,32.0,31.0,33.0,33.0,32.0,32.0,33.0,32.0,33.0,32.0,33.0,32.0,32.0,32.0,33.0,33.0,33.0,32.0,32.0,32.0,32.0,33.0,33.0,34.0,32.0,33.0,33.0,33.0,33.0,34.0,33.0,34.0,33.0,34.0,32.0,33.0,34.0,32.0,33.0,33.0,33.0,33.0,34.0,34.0,34.0,33.0,34.0,33.0,34.0,33.0,32.0,34.0,33.0,34.0,33.0,34.0,34.0,33.0,33.0,34.0,33.0,35.0,32.0,32.0,33.0,33.0,33.0,33.0,34.0,32.0,32.0,33.0,33.0,32.0,34.0,32.0,33.0,33.0,33.0,33.0,32.0,34.0,32.0,32.0,32.0,32.0,32.0,33.0,32.0,32.0,32.0,33.0,32.0,33.0,32.0,32.0,32.0,32.0,33.0,33.0,32.0,32.0,32.0,32.0,32.0,32.0,33.0,31.0,32.0,32.0,32.0,32.0,33.0,32.0,32.0,32.0,31.0,32.0,32.0,32.0,32.0,32.0,31.0,32.0,32.0,32.0,32.0,32.0,32.0,32.0,31.0,31.0,32.0,32.0,32.0,31.0,32.0,32.0,33.0,32.0,32.0,32.0,32.0,31.0,33.0,32.0,32.0,32.0,31.0,32.0,32.0,32.0,32.0,32.0,31.0,32.0,32.0,33.0,32.0,32.0,32.0,33.0,32.0,33.0,32.0,32.0,33.0,33.0,33.0,32.0,33.0,32.0,33.0,32.0,33.0,32.0,33.0,32.0,32.0,33.0,31.0,32.0,33.0,32.0,32.0,32.0,31.0,32.0,32.0,33.0,32.0,32.0,32.0,32.0,32.0,33.0,32.0,32.0,32.0,31.0,32.0,32.0,33.0,32.0,33.0,32.0,32.0,33.0,33.0,32.0,32.0,32.0,32.0,32.0,33.0,33.0,32.0,33.0,31.0,32.0,32.0,33.0,32.0,32.0,32.0,32.0,32.0,33.0,32.0,32.0,32.0,31.0,32.0,32.0,33.0,32.0
240.0,244.0,243.0,244.0,237.0,238.0,243.0,235.0,237.0,230.0,234.0,239.0,234.0,230.0,225.0,228.0,231.0,228.0,224.0,220.0,219.0,226.0,223.0,216.0,215.0,215.0,221.0,219.0,209.0,209.0,210.0,212.0,213.0,203.0,204.0,204.0,207.0,210.0,194.0,199.0,209.0,199.0,207.0,191.0,199.0,210.0,202.0,212.0,193.0,206.0,212.0,207.0,220.0,202.0,214.0,229.0,210.0,224.0,215.0,222.0,237.0,218.0,232.0,216.0,229.0,245.0,225.0,244.0,227.0,239.0,255.0,234.0,252.0,236.0,247.0,265.0,242.0,263.0,249.0,257.0,274.0,254.0,274.0,261.0,269.0,286.0,262.0,282.0,274.0,278.0,298.0,270.0,285.0,281.0,280.0,298.0,270.0,287.0,281.0,277.0,296.0,270.0,285.0,282.0,273.0,291.0,265.0,276.0,288.0,269.0,292.0,266.0,278.0,292.0,272.0,294.0,270.0,281.0,293.0,282.0,307.0,286.0,307.0,315.0,301.0,327.0,311.0,334.0,349.0,333.0,366.0,343.0,359.0,378.0,360.0,393.0,367.0,383.0,400.0,380.0,404.0,387.0,394.0,420.0,385.0,415.0,397.0,401.0,417.0,394.0,426.0,413.0,413.0,432.0,405.0,428.0,409.0,397.0,429.0,390.0,415.0,405.0,394.0,416.0,380.0,390.0,376.0,368.0,384.0,349.0,361.0,349.0,335.0,349.0,312.0,331.0,324.0,309.0,327.0,294.0,300.0,298.0,284.0,294.0,264.0,272.0,267.0,260.0,273.0,249.0,258.0,262.0,242.0,255.0,236.0,240.0,248.0,230.0,234.0,215.0,226.0,236.0,221.0,232.0,211.0,220.0,226.0,210.0,217.0,205.0,211.0,216.0,200.0,204.0,195.0,203.0,205.0,191.0,198.0,196.0,204.0,210.0,198.0,204.0,194.0,208.0,214.0,201.0,202.0,198.0,213.0,225.0,211.0,213.0,207.0,212.0,214.0,208.0,208.0,203.0,207.0,209.0,208.0,210.0,217.0,220.0,215.0,212.0,214.0,220.0,224.0,225.0,217.0,221.0,224.0,230.0,224.0,223.0,223.0,232.0,230.0,222.0,220.0,223.0,230.0,231.0,226.0,226.0,230.0,237.0,237.0,233.0,229.0,232.0,237.0,237.0,229.0,224.0,229.0,233.0,232.0,226.0,219.0,226.0,228.0,227.0,220.0,214.0,219.0,226.0,224.0,220.0,221.0,230.0,231.0,221.0,221.0,217.0,224.0,224.0,215.0,215.0,210.0,220.0,221.0,213.0,211.0,207.0,216.0,215.0,203.0,204.0,209.0,210.0,212.0,203.0,205.0,213.0,211.0,210.0,201.0,204.0,205.0,207.0,208.0,198.0,203.0,206.0,207.0,208.0,198.0,202.0,207.0,205.0,209.0,196.0,202.0,208.0,203.0,213.0,195.0,202.0,212.0,204.0,215.0,199.0,211.0,228.0,211.0,229.0,212.0,225.0,240.0,225.0,246.0,231.0,245.0,262.0,245.0,272.0,258.0,270.0,296.0,272.0,297.0,289.0,299.0,324.0,301.0,328.0,316.0,321.0,347.0,321.0,348.0,339.0,339.0,366.0,340.0,365.0,357.0,356.0,383.0,356.0,381.0,375.0,373.0,398.0,369.0,394.0,379.0,383.0,408.0,377.0,401.0,399.0,386.0,415.0,387.0,409.0,410.0,395.0,424.0,395.0,418.0,419.0,401.0,432.0,399.0,420.0,421.0,402.0,428.0,400.0,408.0,424.0,396.0,421.0,394.0,403.0,413.0,389.0,412.0,385.0,396.0,402.0,379.0,401.0,373.0,384.0,390.0,365.0,385.0,358.0,367.0,374.0,349.0,371.0,343.0,352.0,358.0,334.0,353.0,326.0,333.0,342.0,316.0,332.0,316.0,312.0,323.0,299.0,312.0,299.0,299.0,307.0,283.0,295.0,281.0,284.0,292.0,269.0,281.0,272.0,267.0,280.0,255.0,267.0,260.0,255.0,268.0,245.0,252.0,248.0,243.0,253.0,232.0,240.0,237.0,235.0,242.0,223.0,229.0,229.0,226.0,232.0,212.0,219.0,215.0,216.0,223.0,204.0,211.0,207.0,208.0,213.0,197.0,205.0,204.0,199.0,202.0,191.0,201.0,198.0,194.0,198.0,186.0,197.0,195.0,194.0,194.0,185.0,195.0,194.0,188.0,190.0,186.0,194.0,193.0,187.0,188.0,187.0,196.0,194.0,188.0,189.0,188.0,199.0,198.0,192.0,192.0,191.0,201.0,199.0,195.0,195.0,194.0,205.0,201.0,202.0,199.0,200.0,210.0,207.0,205.0,203.0,204.0,215.0,207.0,207.0,209.0,213.0,219.0,212.0,212.0,214.0,216.0,223.0,216.0,215.0,217.0,220.0,227.0,219.0,220.0,225.0,228.0,230.0,223.0,225.0,232.0,233.0,237.0,230.0,232.0,241.0,240.0,246.0,237.0,242.0,248.0,247.0,252.0,243.0,246.0,255.0,252.0,258.0,247.0,253.0,256.0,256.0,264.0,253.0,258.0,262.0,261.0,267.0,257.0,263.0,270.0,258.0,267.0,260.0,265.0,272.0,260.0,270.0,261.0,267.0,273.0,264.0,270.0,262.0,269.0,276.0,262.0,271.0,267.0,271.0,278.0,264.0,272.0,269.0,273.0,278.0,265.0,273.0,268.0,275.0,281.0,266.0,274.0,268.0,275.0,279.0,265.0,274.0,268.0,274.0,278.0,266.0,271.0,270.0,272.0,277.0,263.0,269.0,267.0,270.0,273.0,262.0,265.0,272.0,267.0,271.0,260.0,264.0,267.0,266.0,270.0,259.0,263.0,267.0,264.0,268.0,259.0,264.0,271.0,259.0,266.0,259.0,265.0,271.0,259.0,267.0,257.0,264.0,271.0,261.0,268.0,260.0,266.0,273.0,262.0,270.0,262.0,270.0,276.0,264.0,274.0,267.0,273.0,281.0,269.0,276.0,269.0,276.0,282.0,268.0,276.0,270.0,275.0,280.0,266.0,273.0,269.0,274.0,278.0,265.0,271.0,269.0,271.0,277.0,263.0,267.0,268.0,270.0,273.0,261.0,265.0,272.0,266.0,269.0,259.0,262.0,265.0,262.0,265.0,256.0,257.0,263.0,259.0,260.0,252.0,253.0,260.0,255.0,257.0,250.0,249.0,256.0,250.0,253.0,244.0,247.0,253.0,249.0,250.0,242.0,243.0,250.0,243.0,243.0,238.0,245.0,248.0,239.0,241.0,238.0,241.0,248.0,239.0,241.0,238.0,243.0,248.0,239.0,242.0,241.0,247.0,249.0,239.0,241.0,241.0,246.0,247.0,241.0,240.0,241.0,245.0,248.0,238.0,237.0,240.0,242.0,244.0,235.0,235.0,239.0,243.0,242.0,234.0,233.0,235.0,241.0,244.0,234.0,237.0,237.0,242.0,245.0,236.0,238.0,245.0,241.0,243.0,237.0,236.0,244.0,238.0,240.0,234.0,235.0,242.0,239.0,239.0,232.0,234.0,241.0,234.0,233.0,230.0,236.0,240.0,231.0,232.0,229.0,236.0,241.0,233.0,234.0,231.0,236.0,241.0,232.0,234.0,229.0,235.0,239.0,230.0,233.0,229.0,235.0,237.0,231.0,228.0,227.0,234.0,235.0,228.0,224.0,224.0,231.0,232.0,224.0,221.0,229.0,232.0,231.0,226.0,222.0,225.0,232.0,233.0,226.0,226.0,230.0,235.0,235.0,229.0,230.0,239.0,236.0,236.0,232.0,234.0,242.0,235.0,240.0,232.0,235.0,242.0,238.0,237.0,230.0,233.0,236.0,235.0,233.0,228.0,231.0,235.0,232.0,231.0,227.0,227.0,235.0,233.0,232.0,228.0,229.0,237.0,232.0,231.0,228.0,234.0,237.0,229.0,232.0,228.0,236.0,238.0,232.0,234.0,231.0,239.0,241.0,235.0,234.0,233.0,240.0,242.0,233.0,233.0,240.0,241.0,242.0,234.0,234.0,236.0,241.0,242.0,234.0,235.0,238.0,241.0,243.0,234.0,235.0,240.0,241.0,241.0,236.0,236.0,243.0,242.0,245.0,236.0,237.0,244.0,244.0,246.0,237.0,238.0,245.0,243.0,243.0,238.0,243.0,247.0,241.0,244.0,238.0,240.0,247.0,241.0,244.0,237.0,242.0,249.0,240.0,244.0,239.0,245.0,251.0,240.0,245.0,240.0,248.0,251.0,242.0,246.0,242.0,250.0,254.0,244.0,246.0,244.0,248.0,253.0,243.0,245.0,244.0,249.0,250.0,240.0,241.0,238.0,245.0
240.0,248.0,250.0,244.0,243.0,244.0,249.0,249.0,243.0,244.0,245.0,250.0,251.0,243.0,245.0,246.0,250.0,251.0,244.0,244.0,245.0,252.0,251.0,245.0,247.0,247.0,255.0,253.0,245.0,248.0,248.0,253.0,251.0,248.0,247.0,249.0,254.0,251.0,246.0,249.0,255.0,252.0,251.0,244.0,250.0,255.0,253.0,250.0,242.0,249.0,254.0,254.0,252.0,243.0,251.0,257.0,251.0,250.0,248.0,253.0,258.0,252.0,250.0,244.0,253.0,256.0,249.0,250.0,243.0,254.0,256.0,254.0,251.0,245.0,254.0,255.0,252.0,251.0,246.0,253.0,255.0,250.0,249.0,246.0,252.0,256.0,250.0,250.0,250.0,257.0,256.0,247.0,248.0,249.0,254.0,251.0,244.0,247.0,248.0,253.0,250.0,247.0,247.0,250.0,252.0,252.0,243.0,249.0,256.0,251.0,251.0,243.0,250.0,256.0,255.0,251.0,241.0,245.0,249.0,251.0,251.0,241.0,249.0,253.0,251.0,248.0,240.0,248.0,258.0,256.0,254.0,247.0,248.0,256.0,252.0,252.0,238.0,247.0,252.0,243.0,246.0,246.0,259.0,263.0,264.0,264.0,253.0,263.0,260.0,246.0,249.0,246.0,254.0,261.0,248.0,248.0,243.0,244.0,248.0,243.0,246.0,246.0,252.0,252.0,240.0,233.0,240.0,246.0,244.0,236.0,237.0,240.0,249.0,260.0,252.0,256.0,259.0,265.0,263.0,252.0,255.0,252.0,249.0,249.0,241.0,245.0,244.0,250.0,247.0,238.0,237.0,243.0,238.0,242.0,234.0,239.0,248.0,241.0,240.0,235.0,246.0,252.0,249.0,250.0,240.0,247.0,248.0,241.0,243.0,239.0,248.0,251.0,243.0,243.0,236.0,245.0,244.0,236.0,239.0,240.0,248.0,252.0,248.0,251.0,243.0,256.0,258.0,249.0,247.0,244.0,259.0,269.0,254.0,257.0,251.0,257.0,259.0,252.0,252.0,245.0,250.0,253.0,247.0,250.0,257.0,257.0,256.0,249.0,253.0,257.0,260.0,262.0,250.0,254.0,257.0,261.0,257.0,248.0,251.0,257.0,250.0,247.0,239.0,246.0,252.0,247.0,244.0,243.0,251.0,262.0,256.0,257.0,247.0,255.0,259.0,257.0,253.0,246.0,254.0,257.0,256.0,253.0,247.0,256.0,259.0,256.0,253.0,249.0,256.0,262.0,261.0,258.0,255.0,266.0,265.0,262.0,262.0,260.0,267.0,263.0,259.0,259.0,256.0,265.0,262.0,262.0,258.0,260.0,272.0,265.0,260.0,257.0,261.0,263.0,261.0,254.0,256.0,261.0,261.0,259.0,253.0,254.0,256.0,261.0,257.0,252.0,255.0,258.0,261.0,257.0,251.0,253.0,258.0,261.0,257.0,252.0,253.0,259.0,259.0,258.0,250.0,252.0,259.0,257.0,256.0,248.0,258.0,261.0,257.0,255.0,248.0,258.0,260.0,256.0,254.0,248.0,253.0,260.0,257.0,255.0,247.0,258.0,259.0,252.0,252.0,250.0,258.0,258.0,251.0,254.0,251.0,261.0,258.0,254.0,254.0,251.0,259.0,260.0,254.0,253.0,252.0,258.0,259.0,252.0,253.0,254.0,257.0,258.0,251.0,251.0,248.0,257.0,257.0,250.0,251.0,255.0,257.0,255.0,246.0,251.0,256.0,256.0,253.0,248.0,250.0,256.0,257.0,255.0,248.0,252.0,258.0,256.0,253.0,245.0,255.0,257.0,255.0,252.0,245.0,256.0,258.0,254.0,252.0,246.0,254.0,259.0,253.0,252.0,244.0,253.0,256.0,251.0,250.0,243.0,252.0,257.0,250.0,251.0,243.0,253.0,257.0,252.0,252.0,244.0,254.0,256.0,248.0,249.0,251.0,256.0,258.0,248.0,249.0,250.0,254.0,254.0,246.0,248.0,245.0,254.0,255.0,247.0,248.0,253.0,254.0,252.0,243.0,249.0,254.0,254.0,252.0,245.0,248.0,255.0,253.0,253.0,244.0,248.0,255.0,253.0,253.0,242.0,248.0,255.0,253.0,251.0,243.0,249.0,253.0,254.0,252.0,243.0,248.0,254.0,252.0,250.0,242.0,253.0,256.0,251.0,250.0,243.0,254.0,256.0,249.0,250.0,243.0,254.0,255.0,251.0,250.0,242.0,255.0,255.0,247.0,248.0,251.0,255.0,257.0,248.0,249.0,252.0,255.0,256.0,246.0,250.0,248.0,256.0,256.0,246.0,250.0,249.0,255.0,254.0,245.0,249.0,249.0,255.0,253.0,246.0,248.0,250.0,254.0,255.0,247.0,247.0,251.0,253.0,251.0,241.0,249.0,254.0,252.0,250.0,242.0,249.0,252.0,253.0,250.0,242.0,246.0,254.0,252.0,252.0,242.0,252.0,256.0,249.0,249.0,242.0,252.0,255.0,247.0,249.0,242.0,252.0,256.0,250.0,249.0,242.0,253.0,254.0,251.0,250.0,244.0,254.0,255.0,249.0,249.0,245.0,251.0,256.0,249.0,249.0,242.0,254.0,256.0,249.0,250.0,249.0,255.0,253.0,244.0,249.0,250.0,255.0,253.0,248.0,250.0,250.0,254.0,255.0,246.0,249.0,253.0,254.0,253.0,243.0,250.0,256.0,253.0,251.0,242.0,250.0,254.0,252.0,250.0,243.0,247.0,255.0,253.0,250.0,244.0,248.0,254.0,252.0,250.0,244.0,250.0,256.0,253.0,252.0,245.0,251.0,257.0,255.0,253.0,244.0,251.0,257.0,253.0,252.0,248.0,257.0,258.0,252.0,251.0,250.0,254.0,259.0,251.0,250.0,245.0,255.0,257.0,251.0,250.0,251.0,257.0,254.0,247.0,250.0,252.0,256.0,254.0,250.0,251.0,254.0,259.0,258.0,250.0,251.0,257.0,259.0,258.0,251.0,252.0,257.0,258.0,256.0,249.0,252.0,253.0,259.0,255.0,248.0,252.0,255.0,257.0,254.0,247.0,251.0,258.0,255.0,253.0,246.0,252.0,259.0,255.0,254.0,247.0,254.0,259.0,257.0,254.0,247.0,256.0,260.0,255.0,254.0,251.0,260.0,260.0,255.0,252.0,251.0,256.0,260.0,253.0,253.0,247.0,257.0,259.0,253.0,253.0,249.0,260.0,259.0,253.0,254.0,251.0,260.0,259.0,255.0,254.0,251.0,260.0,261.0,256.0,254.0,254.0,260.0,258.0,250.0,252.0,258.0,258.0,256.0,249.0,251.0,253.0,258.0,254.0,248.0,251.0,254.0,258.0,254.0,247.0,252.0,259.0,255.0,253.0,245.0,253.0,258.0,255.0,253.0,246.0,254.0,260.0,257.0,254.0,246.0,254.0,258.0,256.0,253.0,246.0,255.0,258.0,255.0,252.0,244.0,251.0,257.0,253.0,251.0,244.0,251.0,257.0,252.0,251.0,246.0,256.0,256.0,250.0,251.0,248.0,257.0,255.0,252.0,252.0,250.0,257.0,258.0,252.0,252.0,252.0,259.0,256.0,248.0,251.0,258.0,257.0,255.0,247.0,251.0,253.0,257.0,253.0,248.0,250.0,255.0,257.0,254.0,249.0,250.0,256.0,256.0,253.0,249.0,250.0,256.0,256.0,255.0,247.0,249.0,255.0,256.0,253.0,246.0,250.0,256.0,253.0,251.0,244.0,254.0,256.0,252.0,250.0,244.0,250.0,258.0,252.0,251.0,243.0,250.0,256.0,250.0,249.0,246.0,254.0,255.0,248.0,249.0,248.0,256.0,255.0,249.0,250.0,248.0,256.0,256.0,248.0,249.0,249.0,254.0,255.0,249.0,248.0,250.0,254.0,254.0,247.0,248.0,246.0,254.0,254.0,247.0,249.0,247.0,255.0,254.0,246.0,248.0,254.0,253.0,250.0,244.0,247.0,253.0,252.0,252.0,245.0,248.0,255.0,255.0,253.0,245.0,248.0,256.0,251.0,250.0,243.0,253.0,255.0,251.0,250.0,243.0,250.0,255.0,250.0,249.0,241.0,250.0,255.0,249.0,250.0,241.0,252.0,255.0,249.0,250.0,242.0,253.0,256.0,251.0,250.0,243.0,253.0,256.0,249.0,249.0,242.0,253.0,254.0,246.0,247.0,251.0,254.0,255.0,245.0,247.0,245.0,253.0,254.0,244.0,248.0,246.0,253.0,253.0,244.0,246.0,252.0,251.0,250.0,245.0,248.0,254.0,252.0,251.0,243.0,248.0,255.0,253.0,251.0,242.0,248.0,251.0,253.0,251.0,242.0,249.0,253.0,253.0,252.0,243.0,247.0,254.0
