0.0,0.0,0.0,0.0,0.0,0.0,0.0,0.0,0.0,0.0,0.0,0.0,0.0,0.0,0.0,0.0,1.0,0.0,0.0,0.0,0.0,0.0,0.0,0.0,0.0,0.0,0.0,665.0,665.0,667.0,665.0,665.0,663.0,660.0,654.0,625.0,601.0,206.0,97.0,2.0,0.0,0.0,0.0,0.0,0.0,0.0,520.0,526.0,566.0,633.0,664.0,665.0,664.0,664.0,182.0,43.0,1.0,0.0,0.0,0.0,665.0,662.0,643.0,644.0,664.0,665.0,664.0,664.0,664.0,666.0,665.0,664.0,663.0,661.0,658.0,200.0,20.0,1.0,0.0,0.0,0.0,0.0,0.0,0.0,0.0,0.0,0.0,0.0,0.0,0.0,0.0,664.0,665.0,665.0,665.0,664.0,652.0,663.0,663.0,211.0,26.0,1.0,0.0,0.0,0.0,0.0,0.0,0.0,0.0,0.0,0.0,666.0,666.0,666.0,666.0,666.0,665.0,666.0,666.0,666.0,665.0,666.0,667.0,666.0,667.0,665.0,666.0,666.0,666.0,666.0,666.0,666.0,667.0,666.0,666.0,666.0,666.0,667.0,666.0,666.0,666.0,666.0,667.0,667.0,666.0,666.0,666.0,666.0,666.0,666.0,667.0,666.0,667.0,666.0,666.0,666.0,666.0,667.0,666.0,666.0,666.0,666.0,667.0,666.0,666.0,666.0,666.0,666.0,666.0,667.0,666.0,666.0,666.0,666.0,666.0,667.0,666.0,666.0,665.0,666.0,666.0,666.0,667.0,666.0,666.0,667.0,666.0,666.0,667.0,666.0,666.0,666.0,666.0,665.0,667.0,667.0,666.0,666.0,666.0,666.0,666.0,667.0,667.0,666.0,666.0,667.0,666.0,667.0,666.0,666.0,667.0,666.0,666.0,666.0,667.0,667.0,665.0,666.0,666.0,666.0,667.0,666.0,666.0,665.0,666.0,666.0,665.0,666.0,666.0,666.0,666.0,666.0,666.0,667.0,666.0,666.0,665.0,665.0,665.0,666.0,666.0,665.0,665.0,666.0,666.0,666.0,666.0,665.0,665.0,666.0,666.0,665.0,666.0,666.0,665.0,666.0,665.0,665.0,666.0,666.0,666.0,665.0,666.0,666.0,665.0,666.0,665.0,665.0,666.0,665.0,666.0,666.0,665.0,666.0,665.0,665.0,666.0,665.0,667.0,665.0,665.0,666.0,665.0,666.0,666.0,665.0,665.0,665.0,666.0,665.0,666.0,666.0,665.0,666.0,664.0,665.0,665.0,665.0,656.0,644.0,633.0,622.0,612.0,603.0,591.0,581.0,572.0,562.0,552.0,542.0,534.0,524.0,514.0,505.0,496.0,488.0,481.0,471.0,464.0,456.0,449.0,441.0,433.0,427.0,419.0,412.0,405.0,398.0,392.0,385.0,378.0,373.0,366.0,360.0,354.0,349.0,344.0,337.0,332.0,326.0,321.0,316.0,311.0,306.0,301.0,296.0,291.0,286.0,282.0,277.0,272.0,268.0,264.0,260.0,255.0,252.0,246.0,243.0,240.0,236.0,231.0,229.0,224.0,221.0,217.0,213.0,211.0,208.0,204.0,200.0,199.0,195.0,192.0,188.0,187.0,183.0,181.0,178.0,175.0,173.0,171.0,167.0,165.0,162.0,160.0,158.0,156.0,153.0,151.0,149.0,147.0,145.0,143.0,142.0,138.0,137.0,136.0,133.0,131.0,130.0,128.0,126.0,125.0,123.0,121.0,120.0,119.0,117.0,116.0,114.0,112.0,111.0,110.0,108.0,107.0,105.0,104.0,103.0,101.0,101.0,98.0,99.0,97.0,96.0,94.0,95.0,93.0,91.0,90.0,90.0,88.0,88.0,87.0,85.0,85.0,84.0,83.0,81.0,82.0,80.0,79.0,78.0,78.0,77.0,78.0,75.0,74.0,74.0,72.0,72.0,72.0,71.0,70.0,70.0,69.0,68.0,67.0,68.0,65.0,67.0,65.0,64.0,64.0,63.0,62.0,60.0,59.0,58.0,57.0,55.0,53.0,51.0,50.0,47.0,47.0,45.0,47.0,44.0,45.0,44.0,45.0,45.0,46.0,46.0,46.0,47.0,48.0,49.0,49.0,52.0,51.0,52.0,53.0,54.0,56.0,57.0,58.0,59.0,60.0,61.0,62.0,64.0,65.0,64.0,65.0,66.0,66.0,67.0,67.0,67.0,67.0,67.0,67.0,67.0,68.0,67.0,66.0,67.0,66.0,66.0,65.0,66.0,65.0,65.0,64.0,63.0,63.0,64.0,62.0,63.0,62.0,61.0,62.0,61.0,61.0,59.0,60.0,59.0,59.0,58.0,58.0,58.0,59.0,57.0,57.0,57.0,56.0,55.0,55.0,54.0,53.0,53.0,51.0,52.0,50.0,51.0,49.0,48.0,47.0,47.0,46.0,46.0,45.0,44.0,44.0,43.0,43.0,43.0,43.0,42.0,42.0,42.0,43.0,42.0,43.0,42.0,42.0,42.0,42.0,43.0,42.0,42.0,42.0,42.0,41.0,43.0,42.0,42.0,42.0,42.0,42.0,43.0,42.0,44.0,43.0,43.0,43.0,43.0,43.0,43.0,43.0,42.0,43.0,43.0,42.0,42.0,43.0,42.0,42.0,42.0,43.0,41.0,42.0,41.0,42.0,41.0,41.0,42.0,41.0,41.0,41.0,42.0,61.0,67.0,92.0,120.0,121.0,159.0,167.0,187.0,218.0,214.0,252.0,261.0,271.0,307.0,300.0,330.0,341.0,344.0,380.0,370.0,401.0,409.0,409.0,442.0,429.0,458.0,467.0,463.0,493.0,477.0,503.0,512.0,503.0,533.0,516.0,540.0,548.0,538.0,566.0,548.0,570.0,572.0,566.0,592.0,574.0,593.0,604.0,587.0,612.0,598.0,611.0,624.0,606.0,629.0,612.0,626.0,640.0,619.0,644.0,625.0,636.0,650.0,630.0,651.0,642.0,640.0,661.0,637.0,658.0,650.0,644.0,663.0,642.0,662.0,657.0,652.0,663.0,647.0,663.0,653.0,654.0,661.0,648.0,659.0,655.0,651.0,659.0,646.0,659.0,654.0,649.0,661.0,645.0,661.0,655.0,646.0,660.0,641.0,657.0,657.0,638.0,660.0,636.0,651.0,654.0,635.0,656.0,632.0,646.0,644.0,631.0,651.0,626.0,639.0,646.0,624.0,643.0,626.0,632.0,641.0,617.0,636.0,614.0,623.0,633.0,608.0,629.0,607.0,614.0,627.0,602.0,622.0,600.0,605.0,619.0,594.0,613.0,593.0,595.0,608.0,586.0,605.0,589.0,594.0,604.0,580.0,599.0,583.0,580.0,599.0,572.0,588.0,577.0,572.0,590.0,565.0,583.0,571.0,563.0,582.0,557.0,574.0,565.0,554.0,575.0,549.0,564.0,565.0,545.0,567.0,541.0,555.0,559.0,539.0,560.0,534.0,547.0,547.0,532.0,552.0,528.0,543.0,541.0,523.0,543.0,519.0,534.0,535.0,515.0,536.0,513.0,527.0,530.0,511.0,533.0,507.0,521.0,525.0,504.0,524.0,504.0,508.0,522.0,498.0,517.0,498.0,500.0,514.0,492.0,511.0,494.0,499.0,509.0,484.0,503.0,489.0,485.0,503.0,477.0,494.0,483.0,475.0,495.0,468.0,486.0,476.0,468.0,487.0,461.0,478.0,470.0,459.0,480.0,453.0,470.0,464.0,451.0,472.0,446.0,463.0,459.0,448.0,466.0,441.0,458.0,448.0,440.0,459.0,433.0,449.0,449.0,432.0,451.0,428.0,444.0,445.0,426.0,447.0,424.0,438.0,443.0,422.0,444.0,419.0,432.0,438.0,418.0,438.0,419.0,422.0,439.0,414.0,433.0,417.0,416.0,430.0,409.0,427.0,412.0,414.0,425.0,402.0,418.0,400.0,407.0,419.0,397.0,413.0,396.0,402.0,416.0,392.0,410.0,393.0,396.0,411.0,389.0,406.0,391.0,391.0,407.0,382.0,398.0,394.0,382.0,402.0,378.0,393.0,392.0,381.0,398.0,374.0,389.0,383.0,376.0,395.0,371.0,384.0,387.0,369.0,387.0,217.0,107.0,3.0,0.0,0.0,0.0,0.0,0.0,0.0,0.0,0.0,0.0,0.0,1.0,0.0,0.0,0.0,0.0,0.0,0.0,0.0,0.0,0.0,0.0,0.0,0.0,0.0,0.0,0.0,0.0,0.0,0.0,0.0,0.0,0.0,0.0,0.0,0.0,0.0,0.0,0.0,0.0,0.0,0.0,0.0,0.0,0.0,0.0,0.0,0.0,0.0,0.0,0.0,0.0,0.0,0.0,0.0
32.0,32.0,32.0,33.0,31.0,33.0,33.0,32.0,32.0,33.0,33.0,33.0,32.0,34.0,32.0,32.0,33.0,32.0,32.0,33.0,32.0,33.0,33.0,33.0,32.0,32.0,33.0,42.0,50.0,55.0,60.0,63.0,66.0,68.0,69.0,70.0,72.0,68.0,64.0,58.0,54.0,50.0,46.0,44.0,42.0,41.0,48.0,50.0,51.0,53.0,53.0,55.0,54.0,54.0,52.0,49.0,47.0,45.0,42.0,41.0,48.0,48.0,48.0,48.0,49.0,48.0,48.0,47.0,46.0,45.0,44.0,44.0,43.0,43.0,43.0,41.0,41.0,41.0,41.0,40.0,40.0,40.0,39.0,40.0,38.0,38.0,38.0,38.0,36.0,37.0,36.0,43.0,43.0,43.0,44.0,44.0,44.0,43.0,43.0,42.0,41.0,40.0,41.0,39.0,39.0,38.0,38.0,37.0,38.0,36.0,36.0,43.0,43.0,45.0,45.0,45.0,44.0,44.0,43.0,44.0,43.0,42.0,42.0,41.0,42.0,41.0,41.0,41.0,39.0,40.0,38.0,39.0,39.0,37.0,38.0,36.0,37.0,37.0,37.0,37.0,36.0,36.0,37.0,35.0,37.0,35.0,36.0,36.0,35.0,36.0,35.0,35.0,35.0,35.0,35.0,34.0,34.0,34.0,33.0,35.0,33.0,33.0,34.0,33.0,33.0,33.0,33.0,32.0,32.0,32.0,32.0,32.0,33.0,32.0,32.0,32.0,31.0,32.0,33.0,32.0,32.0,32.0,31.0,31.0,31.0,32.0,31.0,31.0,31.0,31.0,32.0,32.0,32.0,31.0,31.0,31.0,32.0,32.0,32.0,32.0,32.0,31.0,32.0,32.0,32.0,32.0,32.0,32.0,32.0,32.0,33.0,32.0,32.0,32.0,32.0,33.0,32.0,33.0,32.0,32.0,32.0,32.0,32.0,32.0,32.0,32.0,32.0,33.0,32.0,33.0,33.0,32.0,32.0,32.0,32.0,33.0,33.0,32.0,32.0,32.0,32.0,32.0,32.0,32.0,32.0,32.0,31.0,32.0,32.0,33.0,32.0,32.0,32.0,32.0,32.0,33.0,32.0,32.0,32.0,31.0,32.0,32.0,32.0,32.0,32.0,33.0,33.0,32.0,32.0,32.0,33.0,33.0,32.0,32.0,33.0,33.0,32.0,32.0,31.0,33.0,33.0,33.0,32.0,33.0,32.0,33.0,32.0,33.0,32.0,33.0,33.0,33.0,33.0,32.0,33.0,33.0,33.0,33.0,33.0,33.0,36.0,34.0,35.0,35.0,34.0,35.0,34.0,35.0,34.0,34.0,34.0,34.0,34.0,35.0,34.0,35.0,33.0,33.0,33.0,34.0,34.0,34.0,34.0,34.0,34.0,33.0,34.0,34.0,34.0,34.0,35.0,33.0,34.0,34.0,34.0,34.0,34.0,34.0,35.0,34.0,34.0,34.0,34.0,34.0,33.0,34.0,34.0,33.0,33.0,33.0,33.0,33.0,32.0,33.0,32.0,31.0,33.0,32.0,33.0,32.0,32.0,32.0,31.0,32.0,33.0,32.0,31.0,31.0,31.0,31.0,31.0,31.0,31.0,32.0,30.0,31.0,30.0,32.0,30.0,31.0,31.0,31.0,31.0,31.0,30.0,31.0,32.0,31.0,31.0,32.0,32.0,31.0,31.0,31.0,31.0,31.0,31.0,31.0,32.0,30.0,31.0,31.0,31.0,31.0,31.0,31.0,31.0,31.0,32.0,32.0,31.0,32.0,31.0,31.0,32.0,32.0,32.0,32.0,32.0,31.0,32.0,31.0,32.0,31.0,31.0,31.0,32.0,31.0,32.0,31.0,31.0,31.0,31.0,32.0,32.0,31.0,30.0,31.0,31.0,31.0,31.0,31.0,30.0,32.0,31.0,31.0,31.0,31.0,31.0,31.0,30.0,30.0,31.0,31.0,31.0,31.0,32.0,31.0,31.0,31.0,31.0,31.0,31.0,30.0,31.0,31.0,32.0,31.0,31.0,31.0,30.0,31.0,29.0,32.0,32.0,31.0,31.0,31.0,32.0,33.0,32.0,32.0,33.0,33.0,33.0,32.0,34.0,33.0,33.0,34.0,33.0,33.0,34.0,33.0,35.0,33.0,33.0,33.0,33.0,34.0,33.0,34.0,34.0,33.0,33.0,33.0,33.0,34.0,32.0,33.0,33.0,34.0,33.0,34.0,33.0,33.0,33.0,33.0,33.0,33.0,33.0,33.0,33.0,33.0,33.0,32.0,33.0,33.0,32.0,32.0,32.0,32.0,33.0,32.0,32.0,33.0,32.0,33.0,32.0,33.0,32.0,32.0,32.0,33.0,32.0,33.0,32.0,32.0,32.0,33.0,32.0,32.0,32.0,32.0,32.0,31.0,33.0,32.0,32.0,32.0,31.0,32.0,33.0,32.0,32.0,32.0,31.0,32.0,33.0,33.0,32.0,32.0,33.0,32.0,32.0,33.0,32.0,33.0,32.0,32.0,32.0,32.0,32.0,32.0,33.0,32.0,32.0,33.0,32.0,32.0,33.0,32.0,32.0,32.0,33.0,32.0,33.0,32.0,31.0,32.0,32.0,32.0,32.0,33.0,32.0,32.0,32.0,34.0,32.0,33.0,33.0,32.0,32.0,33.0,33.0,32.0,32.0,31.0,32.0,32.0,33.0,32.0,32.0,32.0,32.0,33.0,33.0,32.0,32.0,33.0,33.0,33.0,33.0,34.0,33.0,34.0,33.0,34.0,33.0,34.0,34.0,33.0,34.0,34.0,33.0,34.0,34.0,34.0,35.0,34.0,35.0,33.0,35.0,34.0,35.0,35.0,35.0,35.0,36.0,35.0,36.0,35.0,35.0,36.0,35.0,36.0,34.0,35.0,36.0,36.0,36.0,36.0,35.0,36.0,35.0,35.0,35.0,36.0,35.0,34.0,35.0,35.0,35.0,35.0,35.0,35.0,34.0,34.0,35.0,33.0,35.0,34.0,34.0,34.0,33.0,34.0,33.0,34.0,34.0,33.0,33.0,33.0,33.0,34.0,32.0,33.0,33.0,33.0,33.0,33.0,33.0,33.0,33.0,33.0,32.0,32.0,33.0,32.0,33.0,32.0,33.0,33.0,33.0,33.0,32.0,32.0,33.0,33.0,33.0,32.0,32.0,33.0,32.0,34.0,32.0,34.0,32.0,32.0,33.0,32.0,33.0,33.0,33.0,33.0,32.0,31.0,33.0,33.0,34.0,32.0,32.0,32.0,31.0,32.0,33.0,32.0,32.0,32.0,31.0,32.0,32.0,33.0,32.0,32.0,31.0,32.0,32.0,32.0,32.0,32.0,32.0,32.0,32.0,32.0,32.0,32.0,32.0,31.0,32.0,31.0,32.0,32.0,31.0,31.0,31.0,31.0,33.0,32.0,32.0,32.0,31.0,32.0,31.0,32.0,32.0,31.0,31.0,31.0,32.0,33.0,32.0,32.0,31.0,31.0,32.0,31.0,32.0,32.0,32.0,31.0,32.0,32.0,32.0,32.0,32.0,32.0,31.0,32.0,32.0,32.0,32.0,32.0,31.0,32.0,32.0,31.0,32.0,32.0,32.0,32.0,32.0,32.0,31.0,32.0,32.0,31.0,32.0,32.0,32.0,32.0,31.0,31.0,32.0,32.0,32.0,32.0,32.0,32.0,31.0,32.0,32.0,32.0,32.0,32.0,32.0,32.0,32.0,33.0,31.0,33.0,32.0,31.0,32.0,33.0,32.0,31.0,32.0,31.0,32.0,32.0,32.0,32.0,32.0,31.0,32.0,31.0,33.0,31.0,31.0,32.0,31.0,32.0,33.0,32.0,32.0,32.0,31.0,32.0,32.0,33.0,32.0,32.0,33.0,32.0,32.0,32.0,32.0,32.0,32.0,32.0,33.0,31.0,33.0,32.0,33.0,32.0,32.0,33.0,33.0,32.0,32.0,33.0,33.0,32.0,33.0,32.0,32.0,33.0,33.0,33.0,32.0,33.0,32.0,33.0,33.0,33.0,32.0,34.0,33.0,33.0,33.0,33.0,33.0,33.0,33.0,33.0,32.0,34.0,33.0,33.0,34.0,33.0,33.0,34.0,35.0,36.0,37.0,38.0,38.0,39.0,39.0,39.0,39.0,39.0,38.0,38.0,37.0,37.0,36.0,37.0,34.0,35.0,35.0,35.0,33.0,35.0,34.0,32.0,33.0,31.0,32.0,31.0,32.0,30.0,31.0,31.0,30.0,29.0,30.0,29.0,29.0,29.0,28.0,28.0,29.0,28.0,28.0,27.0,27.0,28.0,28.0,28.0,27.0,27.0,27.0,28.0,28.0,28.0,26.0,27.0
213.0,207.0,213.0,205.0,205.0,208.0,203.0,207.0,199.0,200.0,207.0,198.0,204.0,195.0,197.0,204.0,199.0,204.0,195.0,197.0,203.0,199.0,204.0,196.0,199.0,213.0,209.0,238.0,232.0,233.0,236.0,236.0,238.0,232.0,233.0,245.0,239.0,246.0,238.0,240.0,247.0,239.0,241.0,234.0,234.0,240.0,240.0,244.0,237.0,242.0,251.0,246.0,249.0,241.0,249.0,255.0,243.0,243.0,236.0,239.0,255.0,244.0,246.0,241.0,246.0,253.0,242.0,247.0,242.0,248.0,255.0,244.0,245.0,245.0,250.0,256.0,246.0,250.0,244.0,241.0,239.0,225.0,222.0,220.0,217.0,214.0,203.0,198.0,199.0,210.0,206.0,212.0,202.0,210.0,216.0,218.0,214.0,209.0,211.0,212.0,214.0,215.0,209.0,207.0,211.0,198.0,188.0,177.0,181.0,179.0,173.0,199.0,201.0,216.0,209.0,223.0,216.0,228.0,246.0,243.0,268.0,263.0,288.0,310.0,300.0,338.0,333.0,346.0,374.0,361.0,403.0,394.0,410.0,434.0,414.0,453.0,441.0,458.0,476.0,456.0,489.0,476.0,489.0,508.0,482.0,512.0,491.0,496.0,513.0,486.0,520.0,501.0,506.0,518.0,491.0,520.0,502.0,502.0,521.0,494.0,517.0,511.0,498.0,520.0,493.0,515.0,500.0,496.0,514.0,492.0,513.0,501.0,490.0,516.0,490.0,508.0,509.0,483.0,511.0,486.0,505.0,503.0,479.0,507.0,483.0,495.0,503.0,479.0,502.0,475.0,487.0,491.0,471.0,500.0,479.0,485.0,489.0,466.0,493.0,469.0,481.0,485.0,459.0,484.0,457.0,473.0,473.0,448.0,469.0,448.0,451.0,463.0,437.0,458.0,438.0,443.0,454.0,424.0,445.0,427.0,429.0,435.0,411.0,430.0,413.0,410.0,421.0,398.0,410.0,405.0,395.0,406.0,383.0,394.0,388.0,383.0,399.0,374.0,388.0,381.0,379.0,392.0,369.0,383.0,375.0,364.0,379.0,359.0,371.0,368.0,353.0,364.0,344.0,351.0,352.0,343.0,351.0,331.0,336.0,338.0,327.0,335.0,319.0,328.0,328.0,313.0,320.0,308.0,313.0,319.0,303.0,313.0,301.0,305.0,310.0,295.0,302.0,294.0,298.0,298.0,282.0,288.0,279.0,281.0,282.0,265.0,259.0,254.0,255.0,247.0,244.0,236.0,237.0,236.0,227.0,233.0,213.0,224.0,231.0,220.0,246.0,225.0,244.0,258.0,251.0,284.0,266.0,298.0,320.0,312.0,355.0,345.0,372.0,407.0,390.0,434.0,425.0,446.0,485.0,466.0,507.0,494.0,510.0,545.0,525.0,563.0,551.0,561.0,595.0,567.0,599.0,598.0,585.0,620.0,589.0,616.0,604.0,598.0,625.0,592.0,619.0,602.0,593.0,618.0,583.0,606.0,590.0,575.0,602.0,563.0,583.0,571.0,550.0,575.0,535.0,552.0,539.0,522.0,544.0,502.0,519.0,509.0,483.0,504.0,467.0,475.0,475.0,450.0,470.0,433.0,448.0,446.0,417.0,437.0,404.0,410.0,413.0,385.0,401.0,369.0,374.0,385.0,351.0,370.0,343.0,346.0,360.0,328.0,343.0,320.0,321.0,333.0,305.0,318.0,299.0,300.0,308.0,281.0,293.0,279.0,280.0,292.0,263.0,274.0,256.0,264.0,273.0,245.0,261.0,242.0,248.0,257.0,234.0,241.0,242.0,237.0,248.0,225.0,233.0,233.0,228.0,239.0,216.0,223.0,225.0,223.0,229.0,209.0,214.0,221.0,212.0,217.0,199.0,210.0,215.0,209.0,209.0,195.0,202.0,210.0,203.0,206.0,196.0,202.0,211.0,204.0,206.0,193.0,201.0,210.0,203.0,206.0,196.0,206.0,214.0,212.0,211.0,202.0,207.0,213.0,209.0,208.0,198.0,209.0,215.0,207.0,206.0,207.0,212.0,216.0,208.0,206.0,202.0,211.0,214.0,207.0,209.0,206.0,216.0,217.0,211.0,211.0,217.0,219.0,214.0,213.0,213.0,219.0,223.0,221.0,217.0,218.0,223.0,226.0,220.0,217.0,214.0,218.0,224.0,219.0,220.0,220.0,225.0,233.0,225.0,225.0,225.0,232.0,236.0,228.0,231.0,227.0,234.0,239.0,231.0,231.0,232.0,236.0,237.0,233.0,231.0,236.0,239.0,241.0,232.0,229.0,235.0,239.0,239.0,232.0,230.0,239.0,239.0,239.0,232.0,238.0,240.0,239.0,238.0,233.0,233.0,242.0,240.0,240.0,235.0,237.0,246.0,240.0,244.0,236.0,238.0,247.0,242.0,245.0,238.0,244.0,251.0,246.0,245.0,239.0,242.0,246.0,242.0,243.0,238.0,245.0,251.0,242.0,243.0,240.0,244.0,249.0,240.0,240.0,239.0,246.0,251.0,241.0,245.0,240.0,246.0,250.0,241.0,242.0,245.0,248.0,248.0,240.0,242.0,250.0,248.0,250.0,240.0,241.0,245.0,247.0,248.0,239.0,239.0,241.0,246.0,244.0,236.0,236.0,239.0,244.0,245.0,237.0,236.0,240.0,244.0,242.0,237.0,235.0,239.0,240.0,237.0,229.0,229.0,238.0,231.0,235.0,230.0,233.0,240.0,236.0,235.0,231.0,235.0,239.0,237.0,236.0,231.0,236.0,242.0,236.0,235.0,234.0,239.0,243.0,235.0,236.0,236.0,241.0,247.0,238.0,239.0,235.0,243.0,247.0,239.0,239.0,236.0,244.0,245.0,238.0,236.0,235.0,242.0,247.0,238.0,240.0,239.0,243.0,247.0,239.0,240.0,241.0,247.0,247.0,239.0,239.0,242.0,245.0,247.0,236.0,235.0,240.0,242.0,244.0,237.0,238.0,244.0,246.0,246.0,238.0,239.0,249.0,239.0,245.0,238.0,242.0,249.0,244.0,244.0,236.0,241.0,246.0,242.0,241.0,238.0,238.0,247.0,241.0,240.0,236.0,239.0,246.0,238.0,239.0,235.0,238.0,245.0,237.0,241.0,236.0,240.0,246.0,238.0,239.0,235.0,243.0,245.0,237.0,239.0,238.0,244.0,249.0,241.0,240.0,240.0,243.0,248.0,238.0,236.0,240.0,244.0,243.0,237.0,234.0,238.0,244.0,243.0,236.0,233.0,240.0,243.0,242.0,236.0,234.0,241.0,241.0,238.0,231.0,229.0,238.0,236.0,235.0,228.0,226.0,236.0,234.0,235.0,228.0,229.0,232.0,236.0,236.0,230.0,232.0,242.0,236.0,235.0,232.0,234.0,242.0,235.0,233.0,230.0,233.0,238.0,231.0,234.0,231.0,234.0,241.0,234.0,234.0,236.0,241.0,242.0,234.0,235.0,235.0,242.0,244.0,237.0,236.0,238.0,241.0,245.0,236.0,235.0,232.0,241.0,243.0,233.0,231.0,232.0,240.0,242.0,234.0,235.0,235.0,244.0,245.0,236.0,236.0,236.0,242.0,244.0,237.0,238.0,246.0,243.0,244.0,236.0,235.0,245.0,242.0,242.0,235.0,235.0,238.0,241.0,238.0,231.0,233.0,242.0,236.0,235.0,232.0,235.0,242.0,235.0,234.0,232.0,238.0,242.0,234.0,237.0,232.0,237.0,244.0,240.0,239.0,235.0,240.0,245.0,239.0,240.0,236.0,241.0,245.0,238.0,238.0,233.0,236.0,242.0,235.0,237.0,235.0,242.0,245.0,236.0,236.0,235.0,244.0,245.0,237.0,236.0,237.0,244.0,245.0,237.0,237.0,239.0,244.0,246.0,237.0,238.0,245.0,241.0,242.0,235.0,235.0,243.0,241.0,242.0,235.0,237.0,240.0,242.0,241.0,235.0,235.0,242.0,241.0,241.0,236.0,235.0,244.0,241.0,242.0,237.0,238.0,245.0,241.0,245.0,240.0,241.0,248.0,242.0,243.0,239.0,244.0,249.0,241.0,243.0,239.0,246.0,251.0,242.0,246.0,242.0,247.0,253.0,245.0,246.0,243.0,251.0,253.0,243.0,256.0,256.0,253.0,245.0,229.0,221.0,216.0,213.0,205.0,197.0,190.0,190.0,190.0,188.0,179.0,176.0,178.0,179.0,180.0,174.0,171.0,179.0,179.0,181.0,175.0,174.0,176.0,181.0,185.0,178.0,178.0,187.0,182.0,184.0,179.0,182.0,191.0,185.0,189.0,184.0,188.0,197.0,189.0,195.0,191.0,194.0,203.0,193.0,199.0,194.0,201.0,206.0,196.0,202.0,197.0,202.0,208.0
209.0,210.0,206.0,206.0,202.0,210.0,213.0,206.0,206.0,204.0,211.0,212.0,206.0,209.0,204.0,213.0,213.0,209.0,209.0,208.0,214.0,215.0,210.0,210.0,216.0,229.0,229.0,245.0,248.0,246.0,250.0,253.0,246.0,246.0,241.0,251.0,252.0,244.0,247.0,240.0,250.0,250.0,241.0,243.0,239.0,246.0,252.0,248.0,248.0,247.0,255.0,256.0,248.0,248.0,247.0,253.0,250.0,239.0,240.0,244.0,254.0,252.0,244.0,248.0,251.0,253.0,252.0,242.0,247.0,250.0,253.0,250.0,242.0,248.0,254.0,249.0,249.0,240.0,243.0,242.0,235.0,232.0,224.0,229.0,229.0,226.0,221.0,215.0,221.0,227.0,221.0,228.0,222.0,231.0,236.0,237.0,238.0,234.0,239.0,241.0,237.0,241.0,235.0,237.0,243.0,233.0,222.0,217.0,225.0,222.0,216.0,232.0,238.0,252.0,255.0,251.0,250.0,246.0,252.0,253.0,244.0,249.0,249.0,256.0,258.0,247.0,253.0,259.0,257.0,258.0,250.0,254.0,254.0,257.0,259.0,248.0,254.0,258.0,256.0,256.0,246.0,249.0,253.0,252.0,251.0,244.0,250.0,256.0,252.0,254.0,247.0,252.0,261.0,258.0,259.0,249.0,257.0,263.0,259.0,263.0,256.0,267.0,267.0,262.0,261.0,257.0,263.0,269.0,260.0,259.0,248.0,259.0,264.0,260.0,261.0,256.0,266.0,267.0,260.0,262.0,261.0,269.0,266.0,260.0,260.0,261.0,268.0,263.0,254.0,254.0,257.0,260.0,260.0,260.0,264.0,266.0,270.0,269.0,266.0,262.0,262.0,272.0,271.0,264.0,266.0,264.0,273.0,270.0,263.0,263.0,270.0,271.0,272.0,269.0,269.0,276.0,274.0,272.0,265.0,269.0,277.0,277.0,271.0,264.0,271.0,275.0,272.0,268.0,263.0,273.0,276.0,272.0,264.0,261.0,269.0,273.0,270.0,264.0,258.0,265.0,272.0,268.0,269.0,264.0,275.0,275.0,275.0,275.0,268.0,275.0,277.0,275.0,271.0,265.0,274.0,275.0,271.0,266.0,265.0,273.0,273.0,267.0,268.0,271.0,274.0,272.0,265.0,264.0,266.0,276.0,273.0,272.0,275.0,273.0,282.0,274.0,268.0,269.0,276.0,275.0,271.0,274.0,276.0,282.0,286.0,278.0,275.0,278.0,279.0,278.0,275.0,278.0,282.0,288.0,286.0,278.0,272.0,277.0,279.0,281.0,283.0,276.0,277.0,279.0,279.0,273.0,274.0,274.0,276.0,276.0,268.0,263.0,274.0,276.0,274.0,271.0,266.0,276.0,276.0,276.0,270.0,267.0,276.0,276.0,275.0,272.0,269.0,274.0,272.0,270.0,269.0,273.0,276.0,270.0,266.0,264.0,264.0,271.0,269.0,262.0,264.0,266.0,271.0,266.0,263.0,262.0,262.0,267.0,263.0,260.0,259.0,261.0,264.0,264.0,257.0,258.0,263.0,265.0,264.0,258.0,258.0,263.0,264.0,260.0,252.0,258.0,263.0,261.0,259.0,249.0,255.0,261.0,259.0,257.0,249.0,253.0,259.0,257.0,254.0,245.0,255.0,258.0,250.0,254.0,247.0,259.0,259.0,252.0,253.0,248.0,257.0,259.0,252.0,252.0,249.0,254.0,258.0,249.0,252.0,248.0,255.0,257.0,249.0,250.0,244.0,254.0,256.0,247.0,250.0,244.0,253.0,255.0,246.0,248.0,251.0,255.0,252.0,246.0,248.0,252.0,253.0,256.0,246.0,249.0,254.0,255.0,256.0,245.0,249.0,254.0,253.0,252.0,241.0,251.0,254.0,250.0,249.0,239.0,247.0,254.0,249.0,250.0,242.0,248.0,255.0,249.0,249.0,240.0,246.0,253.0,247.0,249.0,239.0,248.0,256.0,253.0,252.0,241.0,250.0,254.0,251.0,249.0,240.0,250.0,255.0,246.0,249.0,247.0,253.0,255.0,246.0,247.0,241.0,252.0,255.0,245.0,249.0,244.0,253.0,257.0,246.0,249.0,251.0,253.0,253.0,245.0,248.0,253.0,253.0,255.0,245.0,248.0,254.0,254.0,254.0,243.0,247.0,248.0,252.0,251.0,242.0,247.0,249.0,254.0,253.0,243.0,248.0,252.0,254.0,252.0,245.0,248.0,253.0,255.0,252.0,243.0,251.0,256.0,250.0,252.0,242.0,251.0,257.0,253.0,252.0,241.0,252.0,255.0,251.0,250.0,242.0,253.0,258.0,249.0,251.0,251.0,256.0,257.0,249.0,250.0,246.0,255.0,257.0,249.0,252.0,249.0,256.0,258.0,251.0,252.0,247.0,256.0,256.0,250.0,251.0,250.0,257.0,259.0,250.0,251.0,251.0,255.0,257.0,249.0,250.0,254.0,258.0,256.0,247.0,250.0,254.0,256.0,254.0,244.0,250.0,256.0,256.0,255.0,248.0,251.0,256.0,255.0,254.0,245.0,254.0,258.0,252.0,254.0,245.0,254.0,259.0,254.0,253.0,243.0,255.0,256.0,254.0,252.0,245.0,252.0,258.0,252.0,251.0,245.0,251.0,257.0,251.0,252.0,243.0,254.0,258.0,252.0,253.0,244.0,253.0,257.0,249.0,250.0,248.0,256.0,254.0,249.0,250.0,249.0,255.0,256.0,250.0,250.0,253.0,257.0,259.0,250.0,253.0,254.0,257.0,256.0,247.0,252.0,255.0,257.0,255.0,246.0,251.0,257.0,257.0,256.0,249.0,251.0,257.0,257.0,257.0,248.0,252.0,258.0,256.0,255.0,246.0,250.0,258.0,256.0,256.0,248.0,252.0,255.0,256.0,255.0,245.0,253.0,258.0,253.0,252.0,248.0,253.0,258.0,251.0,250.0,241.0,253.0,257.0,251.0,253.0,245.0,256.0,259.0,251.0,251.0,250.0,256.0,256.0,249.0,251.0,252.0,256.0,258.0,249.0,249.0,252.0,256.0,256.0,248.0,250.0,247.0,255.0,256.0,246.0,250.0,248.0,255.0,254.0,246.0,248.0,248.0,255.0,254.0,249.0,249.0,251.0,255.0,255.0,244.0,250.0,257.0,255.0,254.0,245.0,251.0,257.0,257.0,256.0,246.0,252.0,256.0,256.0,254.0,244.0,253.0,258.0,253.0,252.0,248.0,253.0,260.0,252.0,253.0,245.0,254.0,258.0,251.0,253.0,244.0,255.0,258.0,253.0,251.0,247.0,256.0,258.0,252.0,251.0,246.0,256.0,258.0,252.0,252.0,247.0,253.0,258.0,252.0,252.0,250.0,258.0,257.0,249.0,252.0,252.0,258.0,256.0,247.0,252.0,253.0,257.0,254.0,252.0,252.0,254.0,257.0,256.0,248.0,254.0,260.0,257.0,256.0,248.0,255.0,262.0,260.0,256.0,249.0,256.0,261.0,258.0,256.0,247.0,252.0,259.0,258.0,255.0,247.0,252.0,259.0,256.0,254.0,249.0,253.0,261.0,256.0,256.0,247.0,255.0,258.0,255.0,253.0,250.0,258.0,261.0,255.0,254.0,249.0,259.0,260.0,255.0,255.0,251.0,257.0,260.0,254.0,253.0,252.0,260.0,258.0,250.0,253.0,255.0,260.0,258.0,249.0,253.0,255.0,259.0,256.0,254.0,254.0,257.0,260.0,261.0,253.0,254.0,259.0,260.0,261.0,252.0,254.0,259.0,261.0,258.0,250.0,251.0,253.0,259.0,257.0,249.0,252.0,259.0,258.0,256.0,247.0,254.0,260.0,257.0,255.0,248.0,253.0,261.0,256.0,256.0,247.0,254.0,260.0,256.0,254.0,250.0,258.0,259.0,255.0,253.0,251.0,259.0,261.0,255.0,255.0,253.0,258.0,261.0,253.0,254.0,249.0,259.0,260.0,255.0,254.0,250.0,259.0,259.0,253.0,255.0,250.0,260.0,260.0,255.0,255.0,252.0,260.0,260.0,251.0,253.0,258.0,258.0,259.0,250.0,251.0,258.0,258.0,256.0,249.0,252.0,254.0,260.0,256.0,249.0,252.0,260.0,256.0,255.0,251.0,257.0,255.0,246.0,238.0,230.0,232.0,233.0,227.0,225.0,217.0,222.0,222.0,221.0,216.0,209.0,218.0,218.0,218.0,215.0,208.0,216.0,218.0,215.0,213.0,207.0,212.0,218.0,215.0,212.0,208.0,217.0,216.0,211.0,212.0,210.0,218.0,217.0,212.0,213.0,212.0,220.0,216.0,214.0,214.0,214.0,220.0,218.0,212.0,214.0,221.0,220.0,219.0,213.0,215.0,221.0,222.0
