0.0,0.0,0.0,0.0,0.0,0.0,0.0,0.0,0.0,0.0,0.0,0.0,0.0,0.0,0.0,0.0,0.0,0.0,0.0,0.0,0.0,0.0,0.0,0.0,0.0,0.0,0.0,0.0,0.0,0.0,0.0,0.0,0.0,0.0,0.0,0.0,0.0,0.0,0.0,0.0,0.0,0.0,1.0,0.0,0.0,0.0,0.0,0.0,1.0,0.0,0.0,0.0,0.0,0.0,0.0,0.0,0.0,0.0,0.0,0.0,0.0,0.0,0.0,0.0,0.0,0.0,0.0,0.0,0.0,0.0,0.0,0.0,0.0,0.0,0.0,0.0,0.0,0.0,0.0,0.0,0.0,0.0,0.0,0.0,0.0,0.0,0.0,0.0,0.0,0.0,0.0,0.0,0.0,0.0,0.0,0.0,0.0,0.0,0.0,0.0,0.0,0.0,0.0,0.0,0.0,0.0,0.0,0.0,344.0,377.0,362.0,330.0,343.0,402.0,493.0,597.0,666.0,666.0,666.0,666.0,665.0,666.0,666.0,656.0,666.0,665.0,666.0,665.0,666.0,666.0,666.0,666.0,665.0,666.0,666.0,666.0,667.0,666.0,666.0,666.0,666.0,666.0,666.0,666.0,666.0,666.0,667.0,666.0,666.0,666.0,666.0,667.0,665.0,666.0,666.0,666.0,667.0,666.0,666.0,666.0,666.0,666.0,666.0,666.0,666.0,666.0,666.0,666.0,666.0,667.0,666.0,666.0,666.0,666.0,666.0,666.0,666.0,666.0,666.0,667.0,666.0,667.0,666.0,666.0,667.0,665.0,666.0,665.0,666.0,667.0,665.0,666.0,666.0,666.0,667.0,666.0,666.0,665.0,666.0,667.0,666.0,667.0,666.0,665.0,666.0,666.0,666.0,665.0,666.0,667.0,665.0,666.0,665.0,666.0,667.0,666.0,666.0,665.0,666.0,666.0,666.0,665.0,666.0,665.0,666.0,666.0,666.0,665.0,666.0,666.0,665.0,666.0,666.0,666.0,666.0,666.0,666.0,667.0,666.0,667.0,666.0,665.0,666.0,666.0,666.0,666.0,666.0,666.0,666.0,666.0,666.0,666.0,667.0,665.0,666.0,665.0,665.0,666.0,666.0,666.0,665.0,665.0,666.0,666.0,666.0,666.0,665.0,666.0,666.0,665.0,665.0,666.0,667.0,666.0,666.0,665.0,666.0,667.0,666.0,665.0,665.0,666.0,667.0,666.0,666.0,665.0,665.0,666.0,665.0,665.0,666.0,666.0,666.0,665.0,666.0,666.0,666.0,666.0,665.0,666.0,666.0,665.0,666.0,666.0,665.0,665.0,665.0,666.0,665.0,666.0,665.0,665.0,666.0,665.0,665.0,666.0,666.0,666.0,665.0,665.0,666.0,665.0,667.0,664.0,655.0,644.0,632.0,623.0,611.0,601.0,288.0,182.0,19.0,0.0,0.0,342.0,276.0,366.0,661.0,383.0,164.0,7.0,0.0,0.0,0.0,0.0,0.0,0.0,1.0,0.0,0.0,0.0,0.0,0.0,0.0,0.0,0.0,0.0,0.0,0.0,1.0,0.0,0.0,0.0,0.0,0.0,0.0,663.0,662.0,657.0,655.0,634.0,656.0,663.0,659.0,663.0,662.0,662.0,663.0,663.0,663.0,663.0,662.0,663.0,663.0,664.0,663.0,663.0,663.0,662.0,663.0,662.0,663.0,663.0,662.0,662.0,664.0,664.0,665.0,664.0,665.0,663.0,664.0,665.0,664.0,666.0,664.0,664.0,665.0,664.0,665.0,664.0,664.0,665.0,664.0,665.0,664.0,664.0,666.0,664.0,664.0,664.0,664.0,665.0,665.0,665.0,664.0,664.0,665.0,664.0,665.0,665.0,664.0,665.0,664.0,664.0,665.0,665.0,666.0,665.0,665.0,666.0,665.0,667.0,665.0,665.0,665.0,665.0,666.0,664.0,666.0,665.0,665.0,666.0,664.0,665.0,666.0,665.0,666.0,665.0,665.0,666.0,666.0,666.0,665.0,665.0,666.0,665.0,666.0,666.0,665.0,666.0,665.0,666.0,665.0,666.0,666.0,665.0,666.0,664.0,665.0,666.0,666.0,665.0,665.0,665.0,666.0,664.0,665.0,664.0,664.0,665.0,663.0,663.0,664.0,664.0,665.0,664.0,665.0,664.0,665.0,666.0,663.0,663.0,662.0,663.0,663.0,664.0,664.0,664.0,664.0,665.0,664.0,664.0,665.0,664.0,665.0,664.0,664.0,664.0,665.0,665.0,664.0,664.0,665.0,664.0,659.0,648.0,637.0,627.0,616.0,607.0,595.0,587.0,577.0,567.0,558.0,547.0,538.0,531.0,522.0,513.0,504.0,496.0,489.0,481.0,474.0,464.0,458.0,451.0,443.0,436.0,430.0,422.0,416.0,408.0,401.0,396.0,390.0,384.0,377.0,372.0,366.0,360.0,355.0,350.0,343.0,338.0,332.0,328.0,321.0,317.0,312.0,307.0,303.0,298.0,293.0,289.0,286.0,281.0,276.0,272.0,269.0,265.0,263.0,257.0,254.0,251.0,247.0,243.0,240.0,237.0,234.0,230.0,227.0,224.0,221.0,219.0,214.0,212.0,209.0,206.0,204.0,201.0,198.0,194.0,192.0,189.0,187.0,185.0,182.0,178.0,177.0,174.0,172.0,169.0,168.0,164.0,162.0,160.0,157.0,156.0,154.0,151.0,149.0,147.0,145.0,143.0,141.0,140.0,137.0,135.0,134.0,132.0,129.0,129.0,126.0,125.0,123.0,121.0,119.0,117.0,116.0,114.0,113.0,111.0,110.0,109.0,108.0,105.0,104.0,103.0,102.0,100.0,99.0,97.0,96.0,95.0,94.0,93.0,92.0,90.0,90.0,88.0,86.0,86.0,85.0,84.0,83.0,83.0,81.0,80.0,79.0,78.0,78.0,77.0,76.0,75.0,74.0,73.0,73.0,71.0,71.0,70.0,70.0,69.0,68.0,68.0,66.0,66.0,65.0,65.0,64.0,64.0,62.0,63.0,62.0,62.0,61.0,61.0,59.0,60.0,59.0,58.0,57.0,58.0,57.0,56.0,56.0,56.0,56.0,55.0,55.0,54.0,54.0,52.0,53.0,53.0,51.0,52.0,51.0,51.0,50.0,51.0,49.0,50.0,49.0,49.0,49.0,48.0,47.0,49.0,47.0,46.0,46.0,46.0,46.0,45.0,45.0,45.0,45.0,44.0,44.0,43.0,44.0,42.0,44.0,43.0,43.0,42.0,43.0,41.0,42.0,41.0,41.0,41.0,41.0,41.0,39.0,40.0,40.0,39.0,39.0,40.0,39.0,39.0,38.0,38.0,38.0,39.0,39.0,38.0,37.0,37.0,38.0,37.0,37.0,36.0,37.0,36.0,37.0,37.0,37.0,36.0,38.0,38.0,37.0,38.0,39.0,39.0,39.0,40.0,40.0,40.0,40.0,42.0,41.0,52.0,77.0,82.0,116.0,119.0,148.0,175.0,177.0,217.0,220.0,245.0,273.0,271.0,308.0,313.0,331.0,358.0,354.0,388.0,384.0,406.0,433.0,424.0,456.0,452.0,466.0,494.0,482.0,512.0,514.0,515.0,544.0,529.0,555.0,559.0,555.0,585.0,567.0,592.0,597.0,591.0,617.0,599.0,623.0,626.0,616.0,640.0,623.0,638.0,649.0,635.0,659.0,641.0,659.0,665.0,650.0,665.0,655.0,665.0,666.0,662.0,664.0,664.0,665.0,666.0,665.0,665.0,665.0,665.0,666.0,665.0,665.0,665.0,665.0,666.0,666.0,665.0,665.0,665.0,666.0,665.0,666.0,666.0,665.0,666.0,665.0,665.0,666.0,665.0,666.0,665.0,665.0,666.0,665.0,666.0,661.0,665.0,666.0,660.0,665.0,656.0,665.0,666.0,655.0,665.0,650.0,665.0,665.0,649.0,665.0,643.0,657.0,651.0,641.0,659.0,635.0,649.0,645.0,633.0,652.0,627.0,644.0,639.0,626.0,646.0,622.0,640.0,634.0,619.0,638.0,616.0,626.0,635.0,612.0,633.0,609.0,618.0,628.0,605.0,624.0,602.0,609.0,617.0,596.0,615.0,594.0,597.0,611.0,585.0,602.0,591.0,586.0,601.0,575.0,591.0,576.0,575.0,591.0,566.0,583.0,568.0,564.0,581.0,555.0,572.0,558.0,552.0,571.0,545.0,562.0,551.0,543.0,560.0,535.0,553.0,543.0,537.0,553.0,527.0,543.0,536.0,523.0,542.0,518.0,531.0,529.0,515.0,534.0,510.0,525.0,522.0,506.0,525.0,502.0,518.0,516.0,499.0,519.0,495.0,503.0,513.0,490.0,509.0
33.0,33.0,32.0,32.0,33.0,32.0,32.0,33.0,32.0,33.0,33.0,32.0,32.0,32.0,32.0,32.0,32.0,32.0,32.0,32.0,33.0,32.0,33.0,31.0,32.0,32.0,33.0,32.0,32.0,32.0,33.0,31.0,33.0,32.0,32.0,32.0,31.0,31.0,32.0,32.0,32.0,32.0,31.0,31.0,32.0,32.0,32.0,31.0,31.0,32.0,32.0,32.0,32.0,32.0,31.0,31.0,31.0,32.0,32.0,31.0,32.0,31.0,31.0,32.0,32.0,32.0,31.0,31.0,32.0,32.0,32.0,32.0,32.0,32.0,31.0,32.0,32.0,32.0,32.0,31.0,31.0,31.0,32.0,32.0,32.0,32.0,31.0,32.0,32.0,32.0,32.0,32.0,31.0,32.0,31.0,33.0,32.0,32.0,32.0,31.0,32.0,33.0,32.0,32.0,32.0,32.0,32.0,32.0,47.0,50.0,57.0,59.0,62.0,64.0,65.0,65.0,67.0,67.0,67.0,66.0,66.0,66.0,63.0,67.0,63.0,62.0,61.0,60.0,58.0,56.0,55.0,53.0,52.0,51.0,49.0,48.0,48.0,47.0,45.0,44.0,44.0,43.0,42.0,42.0,40.0,40.0,40.0,38.0,38.0,37.0,37.0,36.0,36.0,36.0,35.0,34.0,34.0,34.0,33.0,34.0,32.0,33.0,33.0,33.0,32.0,32.0,32.0,32.0,32.0,31.0,32.0,32.0,32.0,31.0,31.0,31.0,31.0,29.0,32.0,30.0,31.0,31.0,30.0,30.0,31.0,31.0,31.0,30.0,31.0,31.0,31.0,30.0,30.0,30.0,31.0,31.0,30.0,31.0,30.0,30.0,30.0,31.0,31.0,31.0,31.0,30.0,31.0,30.0,30.0,30.0,31.0,30.0,30.0,30.0,30.0,30.0,30.0,30.0,30.0,31.0,30.0,31.0,29.0,32.0,30.0,31.0,31.0,30.0,30.0,31.0,31.0,31.0,30.0,31.0,31.0,31.0,31.0,30.0,30.0,30.0,30.0,31.0,30.0,31.0,31.0,31.0,31.0,31.0,31.0,31.0,30.0,30.0,31.0,31.0,31.0,31.0,30.0,31.0,31.0,31.0,31.0,32.0,31.0,31.0,32.0,31.0,31.0,32.0,32.0,30.0,31.0,31.0,31.0,31.0,32.0,30.0,31.0,31.0,31.0,32.0,31.0,32.0,32.0,32.0,31.0,31.0,32.0,33.0,30.0,33.0,31.0,31.0,31.0,30.0,32.0,32.0,32.0,32.0,32.0,31.0,32.0,32.0,33.0,32.0,32.0,32.0,33.0,33.0,32.0,32.0,31.0,33.0,33.0,34.0,33.0,33.0,33.0,34.0,33.0,35.0,34.0,33.0,34.0,34.0,33.0,34.0,34.0,34.0,34.0,34.0,34.0,35.0,36.0,37.0,38.0,37.0,38.0,36.0,39.0,38.0,38.0,38.0,38.0,37.0,37.0,36.0,37.0,36.0,35.0,35.0,34.0,35.0,34.0,33.0,33.0,33.0,32.0,32.0,32.0,31.0,31.0,31.0,31.0,31.0,30.0,29.0,29.0,38.0,41.0,45.0,47.0,46.0,49.0,49.0,50.0,49.0,51.0,50.0,50.0,50.0,49.0,48.0,49.0,47.0,46.0,46.0,43.0,43.0,41.0,42.0,40.0,39.0,38.0,38.0,37.0,38.0,36.0,37.0,36.0,36.0,36.0,35.0,36.0,35.0,35.0,35.0,34.0,35.0,35.0,34.0,35.0,34.0,34.0,33.0,34.0,34.0,33.0,33.0,33.0,33.0,33.0,33.0,32.0,34.0,33.0,34.0,33.0,34.0,32.0,33.0,33.0,33.0,33.0,33.0,33.0,32.0,32.0,32.0,33.0,32.0,33.0,32.0,33.0,32.0,33.0,32.0,33.0,32.0,32.0,33.0,33.0,32.0,32.0,34.0,32.0,33.0,33.0,33.0,33.0,33.0,32.0,32.0,33.0,33.0,32.0,33.0,33.0,32.0,33.0,32.0,33.0,33.0,33.0,32.0,33.0,33.0,33.0,32.0,34.0,32.0,32.0,33.0,32.0,33.0,32.0,34.0,32.0,32.0,33.0,33.0,33.0,33.0,32.0,33.0,32.0,31.0,33.0,32.0,33.0,32.0,32.0,32.0,32.0,32.0,33.0,32.0,33.0,33.0,33.0,32.0,33.0,32.0,32.0,32.0,31.0,33.0,32.0,33.0,32.0,32.0,32.0,33.0,32.0,33.0,32.0,32.0,33.0,31.0,33.0,33.0,33.0,33.0,33.0,33.0,33.0,32.0,33.0,32.0,32.0,32.0,33.0,32.0,33.0,32.0,32.0,32.0,31.0,31.0,32.0,32.0,32.0,31.0,31.0,31.0,32.0,32.0,32.0,31.0,32.0,31.0,31.0,32.0,31.0,31.0,31.0,31.0,31.0,31.0,32.0,30.0,31.0,31.0,31.0,30.0,32.0,31.0,30.0,31.0,30.0,31.0,31.0,32.0,30.0,31.0,31.0,31.0,32.0,32.0,31.0,31.0,31.0,31.0,31.0,31.0,31.0,30.0,31.0,31.0,31.0,31.0,32.0,31.0,31.0,31.0,31.0,31.0,33.0,32.0,31.0,32.0,31.0,32.0,31.0,32.0,32.0,31.0,31.0,31.0,32.0,33.0,32.0,31.0,32.0,31.0,32.0,32.0,32.0,32.0,32.0,32.0,32.0,32.0,33.0,32.0,32.0,32.0,32.0,33.0,33.0,32.0,32.0,33.0,32.0,32.0,33.0,33.0,32.0,33.0,31.0,33.0,32.0,33.0,32.0,32.0,33.0,32.0,33.0,33.0,33.0,33.0,33.0,32.0,33.0,33.0,33.0,32.0,33.0,32.0,33.0,33.0,33.0,33.0,33.0,32.0,33.0,33.0,32.0,33.0,33.0,32.0,33.0,33.0,32.0,32.0,33.0,32.0,32.0,32.0,32.0,33.0,33.0,32.0,32.0,32.0,33.0,31.0,33.0,32.0,33.0,31.0,33.0,32.0,33.0,32.0,32.0,32.0,32.0,33.0,31.0,33.0,32.0,33.0,33.0,32.0,32.0,33.0,32.0,33.0,32.0,32.0,33.0,33.0,32.0,32.0,33.0,32.0,32.0,33.0,33.0,32.0,33.0,32.0,33.0,33.0,33.0,33.0,32.0,33.0,33.0,32.0,33.0,32.0,33.0,33.0,32.0,33.0,31.0,33.0,32.0,33.0,33.0,32.0,33.0,33.0,32.0,32.0,32.0,32.0,33.0,33.0,34.0,32.0,33.0,32.0,32.0,33.0,33.0,32.0,32.0,33.0,32.0,32.0,32.0,33.0,32.0,32.0,32.0,33.0,33.0,33.0,34.0,34.0,34.0,34.0,34.0,35.0,34.0,35.0,34.0,34.0,34.0,33.0,34.0,34.0,33.0,34.0,33.0,33.0,34.0,33.0,34.0,34.0,34.0,34.0,33.0,34.0,33.0,34.0,33.0,34.0,33.0,34.0,34.0,34.0,33.0,34.0,33.0,33.0,34.0,34.0,34.0,33.0,34.0,33.0,34.0,34.0,34.0,33.0,34.0,33.0,36.0,34.0,34.0,35.0,34.0,34.0,35.0,35.0,35.0,34.0,35.0,35.0,33.0,36.0,34.0,34.0,34.0,35.0,34.0,35.0,34.0,34.0,34.0,33.0,34.0,33.0,34.0,32.0,33.0,33.0,33.0,33.0,34.0,32.0,32.0,33.0,33.0,32.0,32.0,32.0,32.0,32.0,31.0,32.0,32.0,33.0,32.0,32.0,33.0,33.0,32.0,33.0,32.0,33.0,32.0,32.0,32.0,33.0,33.0,32.0,32.0,33.0,32.0,32.0,33.0,32.0,33.0,32.0,33.0,32.0,33.0,33.0,32.0,32.0,33.0,33.0,33.0,33.0,33.0,33.0,32.0,33.0,33.0,33.0,33.0,33.0,34.0,33.0,33.0,33.0,34.0,32.0,32.0,32.0,33.0,33.0,34.0,32.0,32.0,33.0,32.0,33.0,32.0,33.0,32.0,33.0,32.0,32.0,32.0,33.0,32.0,32.0,32.0,32.0,33.0,33.0,32.0,32.0,32.0,31.0,32.0,32.0,33.0,32.0,32.0,32.0,32.0,32.0,32.0,32.0,32.0,32.0,32.0,32.0,32.0,32.0,32.0,32.0,31.0,33.0,31.0,33.0,32.0,32.0,32.0,31.0,32.0,32.0,32.0,32.0,32.0,32.0,32.0,32.0,33.0,31.0,31.0,32.0,31.0,32.0,32.0,32.0,32.0,32.0,31.0,32.0,31.0,33.0,32.0,32.0
216.0,221.0,208.0,213.0,206.0,212.0,216.0,205.0,208.0,204.0,208.0,210.0,202.0,204.0,206.0,207.0,212.0,202.0,204.0,207.0,206.0,213.0,202.0,204.0,208.0,209.0,213.0,205.0,210.0,218.0,209.0,216.0,208.0,214.0,220.0,215.0,218.0,211.0,213.0,221.0,212.0,220.0,212.0,216.0,224.0,214.0,223.0,216.0,221.0,226.0,216.0,225.0,216.0,221.0,228.0,218.0,224.0,216.0,221.0,227.0,215.0,221.0,217.0,222.0,226.0,214.0,220.0,218.0,220.0,225.0,214.0,217.0,212.0,220.0,222.0,211.0,215.0,215.0,216.0,223.0,212.0,215.0,217.0,216.0,221.0,212.0,213.0,217.0,213.0,221.0,210.0,212.0,220.0,216.0,220.0,210.0,212.0,219.0,217.0,221.0,214.0,214.0,217.0,218.0,222.0,209.0,216.0,232.0,246.0,244.0,235.0,240.0,251.0,242.0,258.0,253.0,267.0,284.0,270.0,292.0,282.0,297.0,310.0,301.0,322.0,312.0,330.0,347.0,335.0,367.0,361.0,371.0,392.0,377.0,412.0,405.0,415.0,437.0,418.0,454.0,440.0,450.0,473.0,453.0,487.0,470.0,477.0,501.0,474.0,505.0,486.0,489.0,509.0,481.0,512.0,498.0,493.0,514.0,488.0,519.0,500.0,492.0,513.0,486.0,505.0,503.0,485.0,507.0,484.0,498.0,490.0,476.0,497.0,469.0,487.0,478.0,462.0,481.0,457.0,468.0,473.0,449.0,472.0,448.0,458.0,465.0,440.0,466.0,444.0,453.0,464.0,439.0,463.0,442.0,454.0,459.0,436.0,463.0,442.0,449.0,461.0,437.0,463.0,443.0,454.0,462.0,436.0,463.0,442.0,454.0,463.0,438.0,462.0,445.0,446.0,461.0,436.0,459.0,442.0,440.0,458.0,431.0,451.0,437.0,431.0,450.0,423.0,442.0,431.0,423.0,441.0,419.0,434.0,436.0,417.0,433.0,411.0,422.0,420.0,408.0,427.0,405.0,421.0,415.0,400.0,423.0,398.0,413.0,413.0,396.0,415.0,394.0,407.0,407.0,388.0,412.0,391.0,401.0,404.0,386.0,403.0,383.0,393.0,398.0,379.0,396.0,381.0,388.0,394.0,373.0,395.0,379.0,386.0,393.0,370.0,389.0,372.0,383.0,390.0,369.0,387.0,374.0,375.0,386.0,366.0,380.0,370.0,370.0,384.0,362.0,378.0,367.0,362.0,377.0,358.0,369.0,359.0,357.0,363.0,341.0,350.0,348.0,345.0,350.0,331.0,326.0,319.0,319.0,320.0,305.0,305.0,300.0,297.0,293.0,281.0,279.0,283.0,271.0,263.0,256.0,253.0,257.0,254.0,250.0,243.0,240.0,245.0,242.0,235.0,229.0,217.0,224.0,215.0,199.0,195.0,223.0,218.0,228.0,211.0,218.0,219.0,212.0,213.0,195.0,201.0,203.0,195.0,207.0,191.0,199.0,208.0,199.0,213.0,196.0,207.0,215.0,203.0,222.0,201.0,213.0,229.0,220.0,232.0,213.0,218.0,227.0,211.0,233.0,215.0,228.0,239.0,224.0,234.0,219.0,226.0,237.0,220.0,226.0,213.0,222.0,230.0,215.0,217.0,208.0,215.0,222.0,205.0,211.0,206.0,213.0,218.0,205.0,209.0,206.0,210.0,213.0,200.0,203.0,204.0,207.0,212.0,201.0,203.0,206.0,211.0,216.0,206.0,208.0,206.0,215.0,216.0,207.0,209.0,207.0,214.0,215.0,204.0,207.0,214.0,214.0,214.0,207.0,210.0,217.0,218.0,216.0,208.0,211.0,220.0,218.0,216.0,209.0,212.0,221.0,217.0,214.0,209.0,221.0,222.0,218.0,215.0,213.0,217.0,225.0,220.0,217.0,213.0,221.0,225.0,221.0,218.0,213.0,224.0,227.0,224.0,221.0,217.0,226.0,228.0,227.0,222.0,220.0,230.0,231.0,229.0,225.0,223.0,233.0,230.0,228.0,225.0,230.0,234.0,228.0,226.0,224.0,226.0,234.0,229.0,227.0,226.0,228.0,235.0,228.0,225.0,224.0,232.0,233.0,227.0,226.0,226.0,237.0,235.0,230.0,228.0,227.0,234.0,235.0,226.0,223.0,227.0,232.0,234.0,227.0,222.0,227.0,231.0,233.0,226.0,220.0,223.0,230.0,229.0,224.0,219.0,221.0,228.0,225.0,222.0,215.0,224.0,226.0,216.0,217.0,211.0,220.0,222.0,215.0,214.0,209.0,219.0,222.0,214.0,215.0,212.0,220.0,219.0,209.0,210.0,217.0,216.0,217.0,205.0,208.0,209.0,214.0,215.0,203.0,208.0,209.0,211.0,213.0,204.0,206.0,209.0,209.0,212.0,201.0,206.0,209.0,206.0,216.0,199.0,204.0,211.0,209.0,214.0,198.0,203.0,212.0,205.0,210.0,194.0,206.0,212.0,204.0,209.0,197.0,204.0,214.0,204.0,209.0,196.0,203.0,214.0,202.0,206.0,196.0,206.0,212.0,197.0,205.0,197.0,206.0,213.0,198.0,205.0,200.0,206.0,214.0,200.0,205.0,201.0,207.0,215.0,201.0,206.0,205.0,209.0,218.0,201.0,206.0,199.0,209.0,215.0,199.0,207.0,200.0,209.0,213.0,198.0,202.0,209.0,206.0,209.0,198.0,203.0,209.0,206.0,213.0,198.0,202.0,211.0,209.0,211.0,199.0,203.0,212.0,205.0,207.0,194.0,207.0,214.0,206.0,208.0,197.0,204.0,213.0,204.0,206.0,196.0,205.0,213.0,204.0,209.0,197.0,210.0,217.0,206.0,211.0,200.0,211.0,216.0,208.0,208.0,199.0,211.0,214.0,206.0,209.0,200.0,212.0,216.0,204.0,206.0,211.0,213.0,215.0,206.0,207.0,206.0,214.0,215.0,205.0,209.0,207.0,214.0,214.0,207.0,207.0,214.0,213.0,211.0,206.0,207.0,216.0,214.0,214.0,207.0,211.0,219.0,218.0,215.0,207.0,212.0,217.0,218.0,214.0,208.0,213.0,217.0,218.0,214.0,208.0,211.0,218.0,219.0,214.0,211.0,212.0,222.0,224.0,218.0,214.0,221.0,225.0,223.0,220.0,217.0,226.0,225.0,228.0,221.0,219.0,228.0,229.0,228.0,222.0,221.0,232.0,227.0,225.0,221.0,223.0,228.0,224.0,222.0,219.0,221.0,229.0,226.0,224.0,223.0,225.0,232.0,225.0,228.0,223.0,227.0,233.0,226.0,229.0,225.0,234.0,239.0,236.0,234.0,230.0,237.0,241.0,234.0,236.0,232.0,239.0,243.0,234.0,234.0,234.0,237.0,239.0,231.0,229.0,229.0,236.0,239.0,230.0,230.0,228.0,236.0,235.0,226.0,224.0,231.0,230.0,230.0,225.0,224.0,233.0,230.0,234.0,225.0,228.0,235.0,234.0,235.0,228.0,230.0,234.0,236.0,236.0,230.0,234.0,237.0,236.0,239.0,232.0,234.0,240.0,239.0,241.0,234.0,236.0,244.0,239.0,241.0,235.0,242.0,249.0,236.0,241.0,235.0,242.0,246.0,240.0,240.0,236.0,242.0,246.0,238.0,243.0,239.0,246.0,248.0,238.0,239.0,241.0,245.0,245.0,236.0,235.0,236.0,242.0,246.0,236.0,239.0,239.0,245.0,248.0,238.0,241.0,242.0,246.0,247.0,238.0,240.0,244.0,245.0,250.0,241.0,243.0,247.0,249.0,253.0,242.0,243.0,248.0,246.0,249.0,241.0,246.0,249.0,246.0,248.0,240.0,243.0,250.0,244.0,248.0,241.0,244.0,252.0,245.0,248.0,242.0,249.0,254.0,243.0,249.0,242.0,251.0,255.0,245.0,251.0,245.0,252.0,256.0,245.0,250.0,246.0,251.0,258.0,248.0,251.0,246.0,252.0,257.0,248.0,250.0,245.0,253.0,255.0,244.0,251.0,245.0,251.0,254.0,243.0,245.0,247.0,252.0,252.0,245.0,245.0,241.0,242.0,246.0,236.0,237.0,242.0,243.0,244.0,235.0,237.0,243.0,241.0,245.0,238.0,245.0,248.0,241.0,242.0,236.0,240.0,249.0,242.0,245.0,238.0,242.0,249.0,241.0,246.0,239.0,245.0,251.0,241.0,248.0,239.0,244.0,250.0,242.0,244.0,236.0,241.0,244.0,240.0,241.0,235.0,241.0,248.0,236.0,237.0,237.0,241.0,245.0,235.0,238.0,235.0,243.0,246.0,236.0,241.0,236.0,244.0,247.0,237.0,240.0,245.0,245.0,247.0,239.0
214.0,214.0,212.0,204.0,208.0,214.0,213.0,212.0,204.0,210.0,217.0,212.0,212.0,207.0,214.0,219.0,215.0,215.0,208.0,216.0,220.0,217.0,216.0,209.0,218.0,221.0,214.0,215.0,216.0,221.0,221.0,214.0,217.0,218.0,223.0,222.0,215.0,215.0,214.0,222.0,222.0,215.0,217.0,215.0,223.0,221.0,213.0,217.0,217.0,222.0,220.0,216.0,216.0,218.0,222.0,223.0,215.0,218.0,220.0,222.0,221.0,214.0,216.0,224.0,223.0,220.0,212.0,217.0,222.0,221.0,220.0,211.0,215.0,222.0,221.0,218.0,211.0,218.0,223.0,218.0,218.0,211.0,221.0,224.0,217.0,218.0,212.0,219.0,225.0,220.0,219.0,214.0,222.0,225.0,220.0,221.0,214.0,223.0,225.0,220.0,220.0,217.0,220.0,225.0,219.0,217.0,212.0,223.0,249.0,238.0,240.0,237.0,245.0,247.0,239.0,243.0,245.0,255.0,258.0,252.0,253.0,254.0,256.0,260.0,246.0,249.0,253.0,255.0,255.0,241.0,247.0,255.0,249.0,253.0,238.0,245.0,249.0,249.0,252.0,241.0,246.0,253.0,248.0,249.0,241.0,244.0,253.0,248.0,251.0,241.0,246.0,252.0,248.0,251.0,240.0,248.0,256.0,252.0,252.0,242.0,250.0,256.0,249.0,250.0,248.0,257.0,258.0,249.0,249.0,244.0,251.0,254.0,247.0,249.0,242.0,254.0,261.0,252.0,254.0,253.0,260.0,259.0,251.0,250.0,253.0,258.0,257.0,252.0,253.0,256.0,257.0,259.0,250.0,252.0,258.0,262.0,261.0,257.0,259.0,264.0,267.0,267.0,260.0,261.0,262.0,269.0,265.0,258.0,261.0,264.0,268.0,262.0,258.0,261.0,268.0,265.0,263.0,257.0,262.0,270.0,269.0,267.0,258.0,265.0,269.0,271.0,265.0,258.0,265.0,271.0,266.0,265.0,264.0,272.0,269.0,262.0,259.0,259.0,266.0,267.0,262.0,260.0,256.0,264.0,267.0,262.0,264.0,257.0,271.0,272.0,266.0,266.0,261.0,272.0,269.0,271.0,268.0,264.0,272.0,271.0,267.0,265.0,263.0,272.0,267.0,262.0,265.0,274.0,275.0,270.0,266.0,267.0,270.0,275.0,271.0,263.0,267.0,271.0,275.0,268.0,264.0,269.0,273.0,268.0,265.0,259.0,265.0,272.0,270.0,269.0,262.0,269.0,272.0,272.0,269.0,262.0,268.0,272.0,271.0,265.0,260.0,271.0,273.0,274.0,273.0,261.0,268.0,273.0,275.0,271.0,265.0,273.0,276.0,271.0,268.0,264.0,272.0,267.0,259.0,262.0,260.0,268.0,267.0,267.0,265.0,267.0,274.0,271.0,271.0,268.0,260.0,266.0,256.0,247.0,242.0,251.0,257.0,255.0,253.0,257.0,263.0,262.0,250.0,243.0,242.0,246.0,246.0,238.0,235.0,233.0,236.0,236.0,229.0,227.0,225.0,229.0,229.0,227.0,222.0,221.0,233.0,236.0,233.0,230.0,230.0,235.0,232.0,238.0,234.0,247.0,251.0,249.0,250.0,246.0,253.0,259.0,255.0,253.0,249.0,258.0,262.0,257.0,256.0,252.0,260.0,259.0,251.0,254.0,252.0,260.0,259.0,253.0,254.0,253.0,257.0,259.0,248.0,250.0,252.0,255.0,257.0,248.0,250.0,252.0,256.0,256.0,248.0,251.0,250.0,256.0,257.0,247.0,251.0,249.0,255.0,255.0,245.0,249.0,256.0,255.0,254.0,246.0,250.0,257.0,254.0,255.0,247.0,253.0,259.0,258.0,256.0,246.0,252.0,259.0,252.0,251.0,246.0,255.0,259.0,252.0,253.0,246.0,254.0,259.0,253.0,252.0,245.0,254.0,258.0,250.0,251.0,243.0,253.0,259.0,250.0,252.0,244.0,255.0,257.0,253.0,252.0,247.0,257.0,259.0,253.0,254.0,248.0,256.0,257.0,247.0,250.0,254.0,255.0,256.0,246.0,248.0,248.0,255.0,255.0,244.0,250.0,250.0,255.0,253.0,244.0,248.0,255.0,252.0,251.0,244.0,249.0,258.0,252.0,254.0,244.0,250.0,257.0,254.0,253.0,242.0,250.0,254.0,252.0,251.0,242.0,250.0,255.0,252.0,252.0,242.0,249.0,256.0,251.0,251.0,243.0,249.0,257.0,253.0,252.0,244.0,254.0,257.0,246.0,251.0,244.0,253.0,256.0,250.0,250.0,246.0,254.0,257.0,250.0,250.0,248.0,254.0,256.0,244.0,248.0,254.0,254.0,254.0,245.0,247.0,249.0,253.0,253.0,242.0,249.0,251.0,253.0,253.0,246.0,249.0,251.0,254.0,252.0,245.0,248.0,252.0,252.0,255.0,244.0,247.0,253.0,254.0,254.0,243.0,248.0,254.0,250.0,250.0,240.0,252.0,257.0,251.0,250.0,242.0,249.0,256.0,252.0,251.0,242.0,249.0,256.0,249.0,250.0,243.0,253.0,255.0,245.0,249.0,245.0,254.0,255.0,247.0,249.0,247.0,254.0,256.0,248.0,249.0,248.0,253.0,256.0,246.0,249.0,249.0,253.0,256.0,246.0,249.0,244.0,253.0,256.0,244.0,248.0,246.0,253.0,256.0,244.0,247.0,252.0,251.0,252.0,245.0,247.0,254.0,251.0,253.0,243.0,247.0,256.0,253.0,253.0,242.0,247.0,256.0,251.0,250.0,241.0,252.0,255.0,249.0,251.0,242.0,248.0,255.0,248.0,249.0,240.0,250.0,256.0,249.0,250.0,241.0,253.0,259.0,250.0,252.0,242.0,254.0,257.0,251.0,251.0,243.0,255.0,256.0,251.0,250.0,245.0,255.0,256.0,246.0,249.0,251.0,255.0,257.0,246.0,248.0,246.0,254.0,254.0,243.0,249.0,246.0,253.0,253.0,243.0,248.0,253.0,251.0,250.0,243.0,247.0,254.0,251.0,252.0,243.0,248.0,256.0,253.0,254.0,243.0,249.0,253.0,254.0,251.0,242.0,250.0,253.0,253.0,251.0,241.0,247.0,254.0,251.0,251.0,242.0,246.0,254.0,252.0,251.0,242.0,252.0,256.0,247.0,250.0,242.0,252.0,255.0,251.0,250.0,243.0,253.0,256.0,249.0,250.0,245.0,254.0,256.0,246.0,247.0,250.0,252.0,252.0,243.0,245.0,244.0,253.0,251.0,243.0,248.0,248.0,253.0,251.0,246.0,247.0,248.0,252.0,250.0,244.0,247.0,251.0,253.0,255.0,246.0,246.0,251.0,253.0,253.0,244.0,246.0,251.0,251.0,250.0,240.0,248.0,252.0,250.0,247.0,240.0,244.0,252.0,248.0,248.0,241.0,247.0,253.0,248.0,246.0,239.0,248.0,251.0,242.0,245.0,239.0,248.0,250.0,245.0,244.0,239.0,249.0,251.0,245.0,244.0,242.0,247.0,251.0,245.0,245.0,243.0,247.0,251.0,243.0,244.0,238.0,248.0,249.0,242.0,244.0,239.0,249.0,251.0,242.0,243.0,246.0,248.0,246.0,240.0,242.0,246.0,247.0,248.0,239.0,242.0,248.0,249.0,247.0,241.0,244.0,250.0,249.0,246.0,237.0,246.0,249.0,248.0,245.0,238.0,243.0,250.0,246.0,244.0,238.0,245.0,251.0,246.0,247.0,239.0,247.0,252.0,247.0,246.0,237.0,246.0,251.0,247.0,246.0,236.0,247.0,250.0,246.0,244.0,237.0,248.0,249.0,243.0,243.0,245.0,249.0,253.0,243.0,244.0,240.0,250.0,250.0,242.0,245.0,241.0,250.0,250.0,242.0,242.0,249.0,250.0,247.0,241.0,244.0,249.0,250.0,249.0,241.0,243.0,250.0,250.0,249.0,242.0,245.0,248.0,251.0,249.0,241.0,247.0,250.0,252.0,250.0,241.0,245.0,250.0,251.0,247.0,242.0,243.0,251.0,249.0,248.0,240.0,247.0,253.0,247.0,247.0,241.0,248.0,251.0,248.0,246.0,239.0,248.0,251.0,246.0,244.0,240.0,249.0,250.0,245.0,244.0,248.0,251.0,251.0,244.0,245.0,244.0,254.0,252.0,245.0,246.0,245.0,255.0,251.0,247.0,246.0,247.0,252.0,251.0,247.0,246.0,248.0,253.0,253.0,246.0,247.0,249.0,252.0,253.0,246.0,246.0,252.0,253.0,250.0,242.0,247.0,251.0,252.0,249.0,240.0,245.0,251.0,251.0,247.0,243.0,246.0,253.0,251.0,248.0,241.0,251.0,253.0,247.0,248.0
