207.0,213.0,216.0,208.0,211.0,206.0,210.0,215.0,207.0,209.0,203.0,211.0,215.0,208.0,210.0,205.0,213.0,217.0,207.0,212.0,206.0,213.0,217.0,211.0,212.0,207.0,214.0,217.0,208.0,212.0,215.0,214.0,219.0,208.0,211.0,216.0,216.0,219.0,209.0,212.0,213.0,217.0,219.0,209.0,212.0,219.0,215.0,216.0,207.0,214.0,220.0,216.0,217.0,209.0,214.0,221.0,215.0,218.0,209.0,215.0,220.0,217.0,218.0,208.0,215.0,221.0,217.0,217.0,210.0,216.0,222.0,217.0,217.0,209.0,214.0,221.0,216.0,217.0,209.0,219.0,221.0,213.0,215.0,212.0,219.0,222.0,214.0,217.0,210.0,219.0,222.0,215.0,216.0,213.0,219.0,220.0,211.0,213.0,217.0,217.0,221.0,210.0,213.0,219.0,217.0,219.0,212.0,214.0,214.0,218.0,217.0,208.0,214.0,217.0,219.0,220.0,211.0,215.0,218.0,220.0,220.0,215.0,218.0,221.0,221.0,223.0,214.0,218.0,221.0,219.0,221.0,209.0,215.0,220.0,215.0,215.0,208.0,216.0,218.0,218.0,214.0,207.0,218.0,225.0,220.0,219.0,215.0,225.0,222.0,217.0,224.0,220.0,222.0,220.0,215.0,227.0,228.0,232.0,227.0,219.0,213.0,220.0,227.0,229.0,225.0,223.0,237.0,243.0,248.0,233.0,233.0,240.0,241.0,243.0,233.0,242.0,241.0,251.0,254.0,242.0,244.0,244.0,244.0,243.0,242.0,244.0,249.0,249.0,242.0,236.0,234.0,235.0,232.0,228.0,218.0,219.0,225.0,224.0,215.0,205.0,214.0,224.0,224.0,221.0,214.0,227.0,227.0,221.0,225.0,220.0,227.0,235.0,234.0,234.0,226.0,232.0,242.0,241.0,233.0,225.0,231.0,239.0,232.0,238.0,230.0,239.0,244.0,240.0,240.0,234.0,237.0,240.0,232.0,233.0,233.0,234.0,229.0,228.0,231.0,228.0,231.0,232.0,224.0,221.0,218.0,228.0,229.0,228.0,228.0,231.0,238.0,237.0,227.0,231.0,228.0,231.0,238.0,235.0,237.0,239.0,240.0,236.0,226.0,223.0,234.0,232.0,231.0,224.0,229.0,239.0,235.0,230.0,224.0,226.0,228.0,224.0,221.0,213.0,218.0,223.0,234.0,234.0,229.0,235.0,240.0,236.0,232.0,229.0,232.0,236.0,231.0,232.0,227.0,235.0,236.0,229.0,226.0,221.0,228.0,228.0,223.0,221.0,223.0,227.0,225.0,220.0,221.0,221.0,226.0,232.0,226.0,222.0,228.0,236.0,240.0,234.0,236.0,234.0,236.0,234.0,230.0,230.0,229.0,234.0,230.0,224.0,224.0,230.0,241.0,243.0,238.0,236.0,235.0,237.0,234.0,224.0,228.0,232.0,233.0,230.0,222.0,227.0,230.0,231.0,229.0,223.0,226.0,230.0,230.0,228.0,220.0,227.0,234.0,225.0,223.0,213.0,221.0,225.0,217.0,217.0,210.0,219.0,223.0,221.0,224.0,216.0,224.0,227.0,223.0,222.0,218.0,223.0,225.0,217.0,219.0,216.0,220.0,225.0,217.0,215.0,207.0,216.0,220.0,214.0,215.0,214.0,219.0,221.0,210.0,215.0,214.0,217.0,218.0,212.0,215.0,215.0,218.0,221.0,213.0,213.0,217.0,216.0,216.0,208.0,215.0,220.0,218.0,218.0,210.0,216.0,220.0,219.0,219.0,210.0,215.0,220.0,219.0,218.0,211.0,214.0,219.0,217.0,217.0,210.0,213.0,220.0,216.0,216.0,208.0,216.0,222.0,217.0,219.0,209.0,215.0,221.0,214.0,216.0,212.0,218.0,220.0,213.0,214.0,211.0,216.0,221.0,213.0,214.0,208.0,216.0,220.0,213.0,214.0,213.0,217.0,218.0,209.0,214.0,214.0,218.0,218.0,211.0,214.0,216.0,218.0,221.0,210.0,213.0,216.0,218.0,221.0,210.0,213.0,217.0,218.0,219.0,209.0,213.0,215.0,218.0,219.0,211.0,215.0,216.0,216.0,217.0,208.0,213.0,220.0,216.0,216.0,209.0,213.0,219.0,215.0,217.0,209.0,214.0,221.0,216.0,218.0,208.0,216.0,220.0,214.0,215.0,211.0,218.0,221.0,213.0,214.0,212.0,215.0,220.0,211.0,215.0,209.0,217.0,221.0,212.0,216.0,209.0,216.0,221.0,211.0,215.0,209.0,217.0,220.0,213.0,215.0,211.0,218.0,221.0,214.0,214.0,212.0,218.0,222.0,211.0,214.0,219.0,219.0,220.0,210.0,214.0,215.0,218.0,219.0,210.0,214.0,216.0,217.0,219.0,209.0,213.0,220.0,216.0,217.0,209.0,215.0,221.0,216.0,218.0,210.0,216.0,223.0,217.0,217.0,208.0,217.0,219.0,217.0,216.0,209.0,217.0,221.0,217.0,217.0,209.0,215.0,221.0,217.0,218.0,210.0,217.0,221.0,215.0,216.0,211.0,219.0,222.0,212.0,217.0,212.0,219.0,222.0,215.0,217.0,212.0,220.0,222.0,213.0,215.0,215.0,218.0,220.0,210.0,213.0,219.0,219.0,219.0,210.0,213.0,214.0,217.0,217.0,210.0,214.0,215.0,217.0,217.0,210.0,213.0,215.0,215.0,216.0,208.0,212.0,216.0,216.0,219.0,209.0,211.0,218.0,217.0,218.0,208.0,212.0,218.0,214.0,214.0,206.0,214.0,217.0,213.0,213.0,206.0,211.0,217.0,211.0,212.0,204.0,210.0,216.0,211.0,211.0,207.0,215.0,217.0,208.0,212.0,208.0,214.0,217.0,209.0,211.0,208.0,213.0,215.0,207.0,209.0,209.0,211.0,215.0,206.0,208.0,209.0,212.0,215.0,207.0,209.0,205.0,212.0,215.0,206.0,210.0,207.0,212.0,214.0,205.0,208.0,212.0,211.0,211.0,204.0,208.0,213.0,211.0,213.0,206.0,208.0,214.0,213.0,214.0,205.0,210.0,215.0,211.0,211.0,204.0,211.0,214.0,210.0,210.0,208.0,213.0,218.0,212.0,213.0,205.0,211.0,216.0,210.0,211.0,205.0,211.0,216.0,209.0,212.0,204.0,211.0,217.0,211.0,212.0,204.0,213.0,215.0,211.0,210.0,205.0,212.0,215.0,206.0,209.0,210.0,212.0,214.0,207.0,209.0,206.0,213.0,214.0,206.0,210.0,207.0,213.0,215.0,206.0,208.0,213.0,212.0,212.0,205.0,209.0,214.0,212.0,214.0,206.0,209.0,215.0,213.0,213.0,205.0,209.0,212.0,213.0,213.0,204.0,210.0,212.0,213.0,212.0,205.0,208.0,213.0,212.0,212.0,205.0,207.0,212.0,211.0,212.0,203.0,211.0,216.0,207.0,211.0,203.0,211.0,216.0,209.0,212.0,204.0,212.0,216.0,208.0,212.0,206.0,213.0,219.0,206.0,211.0,213.0,213.0,221.0,206.0,212.0,210.0,215.0,224.0,209.0,217.0,215.0,217.0,226.0,212.0,221.0,221.0,221.0,231.0,217.0,224.0,224.0,223.0,232.0,218.0,225.0,227.0,225.0,234.0,218.0,224.0,227.0,222.0,231.0,216.0,223.0,227.0,220.0,228.0,214.0,219.0,226.0,217.0,224.0,212.0,217.0,224.0,216.0,222.0,210.0,216.0,223.0,211.0,217.0,208.0,214.0,221.0,211.0,214.0,207.0,216.0,219.0,210.0,214.0,207.0,212.0,217.0,210.0,212.0,208.0,211.0,217.0,207.0,211.0,202.0,211.0,215.0,207.0,211.0,204.0,211.0,215.0,207.0,209.0,209.0,211.0,213.0,205.0,207.0,209.0,211.0,215.0,206.0,209.0,212.0,212.0,215.0,206.0,209.0,213.0,212.0,213.0,203.0,210.0,214.0,212.0,212.0,203.0,208.0,214.0,209.0,212.0,204.0,208.0,214.0,209.0,212.0,203.0,209.0,214.0,208.0,212.0,203.0,208.0,215.0,210.0,211.0,203.0,209.0,215.0,212.0,212.0,204.0,210.0,215.0,208.0,209.0,207.0,210.0,215.0,208.0,209.0,203.0,212.0,216.0,208.0,211.0,204.0,212.0,216.0,207.0,210.0,210.0,213.0,213.0,206.0,209.0,210.0,212.0,214.0,205.0,207.0,211.0,213.0,214.0,206.0,208.0,208.0,213.0,216.0,205.0,208.0,208.0,213.0,213.0,206.0,209.0,210.0,213.0,213.0,207.0,208.0,211.0,212.0,213.0,203.0,209.0,214.0
33.0,33.0,34.0,33.0,33.0,33.0,33.0,34.0,32.0,33.0,33.0,33.0,33.0,33.0,33.0,32.0,33.0,33.0,33.0,33.0,32.0,32.0,32.0,32.0,32.0,32.0,32.0,33.0,32.0,32.0,33.0,32.0,33.0,33.0,32.0,31.0,32.0,32.0,32.0,32.0,32.0,32.0,32.0,31.0,32.0,32.0,32.0,32.0,32.0,31.0,32.0,31.0,33.0,32.0,32.0,32.0,31.0,32.0,33.0,32.0,32.0,32.0,31.0,32.0,32.0,33.0,31.0,32.0,31.0,32.0,32.0,32.0,32.0,32.0,32.0,31.0,32.0,32.0,32.0,31.0,32.0,31.0,32.0,31.0,33.0,32.0,31.0,32.0,31.0,32.0,33.0,32.0,32.0,32.0,31.0,32.0,32.0,32.0,32.0,32.0,32.0,32.0,32.0,33.0,32.0,33.0,32.0,31.0,32.0,32.0,32.0,32.0,33.0,32.0,32.0,33.0,33.0,33.0,33.0,32.0,33.0,32.0,33.0,32.0,32.0,33.0,31.0,33.0,33.0,33.0,32.0,32.0,31.0,32.0,32.0,33.0,32.0,32.0,32.0,32.0,32.0,33.0,33.0,33.0,33.0,33.0,33.0,33.0,33.0,32.0,33.0,32.0,33.0,33.0,33.0,33.0,33.0,33.0,34.0,33.0,34.0,34.0,32.0,34.0,33.0,34.0,33.0,34.0,33.0,33.0,33.0,33.0,33.0,34.0,32.0,33.0,32.0,33.0,33.0,33.0,34.0,32.0,33.0,33.0,33.0,33.0,33.0,32.0,32.0,32.0,33.0,32.0,33.0,33.0,32.0,33.0,33.0,33.0,32.0,33.0,32.0,32.0,32.0,33.0,32.0,33.0,33.0,31.0,32.0,31.0,32.0,33.0,32.0,32.0,33.0,32.0,33.0,32.0,33.0,32.0,32.0,32.0,32.0,32.0,32.0,32.0,32.0,32.0,31.0,32.0,32.0,33.0,31.0,32.0,31.0,31.0,31.0,32.0,32.0,31.0,32.0,31.0,32.0,32.0,32.0,32.0,32.0,31.0,32.0,32.0,33.0,32.0,32.0,32.0,32.0,32.0,33.0,31.0,33.0,32.0,31.0,32.0,32.0,33.0,32.0,33.0,32.0,32.0,32.0,33.0,32.0,32.0,31.0,31.0,32.0,32.0,33.0,32.0,32.0,31.0,32.0,32.0,33.0,32.0,32.0,32.0,32.0,31.0,33.0,32.0,32.0,32.0,31.0,33.0,33.0,32.0,32.0,32.0,32.0,34.0,32.0,34.0,32.0,33.0,32.0,33.0,33.0,34.0,33.0,33.0,33.0,33.0,33.0,32.0,34.0,32.0,33.0,32.0,32.0,33.0,33.0,32.0,33.0,32.0,32.0,33.0,33.0,32.0,32.0,32.0,32.0,32.0,32.0,33.0,32.0,32.0,32.0,32.0,32.0,33.0,32.0,32.0,32.0,31.0,33.0,32.0,33.0,32.0,32.0,32.0,32.0,32.0,33.0,32.0,32.0,32.0,32.0,32.0,33.0,33.0,32.0,33.0,32.0,32.0,32.0,33.0,32.0,34.0,33.0,33.0,32.0,33.0,33.0,33.0,33.0,33.0,33.0,33.0,33.0,33.0,33.0,32.0,33.0,32.0,34.0,32.0,33.0,33.0,32.0,32.0,33.0,32.0,33.0,32.0,33.0,34.0,32.0,33.0,32.0,32.0,33.0,33.0,33.0,33.0,32.0,33.0,32.0,33.0,33.0,33.0,33.0,32.0,33.0,31.0,33.0,33.0,32.0,32.0,33.0,33.0,33.0,32.0,32.0,32.0,32.0,33.0,32.0,33.0,32.0,32.0,32.0,33.0,33.0,32.0,32.0,33.0,32.0,32.0,32.0,31.0,32.0,33.0,32.0,32.0,32.0,32.0,33.0,32.0,33.0,32.0,32.0,32.0,31.0,32.0,32.0,32.0,32.0,32.0,31.0,32.0,33.0,32.0,32.0,32.0,31.0,32.0,32.0,33.0,32.0,33.0,33.0,32.0,32.0,33.0,31.0,32.0,32.0,31.0,32.0,32.0,33.0,32.0,32.0,32.0,32.0,32.0,33.0,32.0,33.0,32.0,33.0,32.0,33.0,32.0,32.0,33.0,31.0,33.0,33.0,33.0,32.0,33.0,33.0,33.0,32.0,33.0,32.0,33.0,32.0,32.0,33.0,33.0,33.0,33.0,33.0,33.0,33.0,33.0,34.0,32.0,34.0,33.0,33.0,33.0,33.0,33.0,33.0,33.0,34.0,33.0,33.0,33.0,33.0,34.0,34.0,34.0,33.0,34.0,33.0,33.0,34.0,34.0,33.0,33.0,34.0,33.0,34.0,33.0,34.0,33.0,33.0,32.0,33.0,33.0,33.0,33.0,34.0,32.0,33.0,32.0,33.0,33.0,33.0,33.0,32.0,33.0,33.0,33.0,33.0,34.0,32.0,34.0,33.0,33.0,32.0,33.0,33.0,32.0,33.0,33.0,33.0,33.0,33.0,33.0,33.0,33.0,33.0,33.0,33.0,32.0,33.0,33.0,33.0,33.0,33.0,33.0,33.0,33.0,33.0,33.0,32.0,33.0,32.0,33.0,33.0,33.0,33.0,33.0,32.0,32.0,32.0,33.0,32.0,32.0,33.0,32.0,33.0,32.0,31.0,33.0,33.0,32.0,33.0,33.0,33.0,32.0,33.0,32.0,32.0,33.0,32.0,33.0,32.0,33.0,32.0,33.0,33.0,33.0,32.0,33.0,32.0,32.0,33.0,32.0,33.0,32.0,32.0,32.0,32.0,33.0,33.0,32.0,32.0,32.0,32.0,32.0,33.0,32.0,33.0,32.0,32.0,32.0,33.0,32.0,33.0,33.0,32.0,33.0,33.0,33.0,32.0,34.0,32.0,33.0,33.0,32.0,33.0,33.0,32.0,33.0,32.0,31.0,32.0,32.0,34.0,32.0,34.0,33.0,33.0,33.0,33.0,32.0,33.0,33.0,33.0,33.0,33.0,34.0,32.0,33.0,32.0,33.0,32.0,32.0,33.0,32.0,33.0,33.0,33.0,34.0,32.0,33.0,33.0,32.0,33.0,33.0,33.0,32.0,33.0,33.0,33.0,33.0,34.0,32.0,34.0,33.0,33.0,33.0,32.0,33.0,33.0,33.0,33.0,33.0,33.0,34.0,32.0,34.0,33.0,33.0,32.0,33.0,34.0,32.0,33.0,33.0,33.0,33.0,33.0,32.0,33.0,32.0,33.0,32.0,33.0,32.0,33.0,33.0,32.0,32.0,33.0,32.0,33.0,33.0,32.0,33.0,32.0,33.0,32.0,32.0,33.0,32.0,33.0,33.0,32.0,33.0,32.0,32.0,33.0,33.0,33.0,32.0,33.0,31.0,32.0,32.0,33.0,32.0,32.0,33.0,33.0,33.0,33.0,33.0,33.0,33.0,33.0,32.0,32.0,33.0,32.0,32.0,33.0,33.0,32.0,33.0,32.0,33.0,32.0,32.0,33.0,32.0,33.0,32.0,32.0,31.0,32.0,32.0,32.0,32.0,32.0,32.0,32.0,32.0,33.0,32.0,33.0,32.0,31.0,32.0,32.0,32.0,32.0,32.0,32.0,32.0,32.0,33.0,32.0,32.0,32.0,32.0,32.0,33.0,32.0,32.0,32.0,31.0,32.0,32.0,33.0,32.0,33.0,32.0,32.0,32.0,32.0,32.0,32.0,32.0,31.0,32.0,32.0,33.0,32.0,32.0,31.0,32.0,32.0,33.0,32.0,31.0,32.0,31.0,32.0,32.0,32.0,32.0,32.0,31.0,32.0,32.0,33.0,32.0,31.0,31.0,31.0,31.0,33.0,31.0,32.0,32.0,31.0,32.0,32.0,32.0,31.0,32.0,31.0,31.0,31.0,33.0,32.0,32.0,32.0,31.0,32.0,32.0,32.0,32.0,32.0,31.0,32.0,32.0,32.0,32.0,32.0,31.0,32.0,32.0,31.0,32.0,32.0,32.0,31.0,32.0,33.0,32.0,32.0,33.0,32.0,33.0,32.0,33.0,32.0,32.0,33.0,32.0,33.0,33.0,32.0,32.0,33.0,33.0,33.0,33.0,33.0,32.0,33.0,33.0,32.0,33.0,34.0,33.0,33.0,33.0,33.0,33.0,33.0,33.0,33.0,34.0,33.0,33.0,33.0,33.0,34.0,33.0,34.0,33.0,32.0,34.0,33.0,33.0,33.0,33.0,33.0,32.0,33.0,33.0,33.0,33.0,33.0,33.0,33.0,32.0,34.0,33.0,33.0,33.0,33.0,33.0,33.0,33.0,33.0,33.0,33.0,33.0,33.0,33.0
5.0,3.0,4.0,4.0,5.0,4.0,4.0,4.0,4.0,4.0,3.0,4.0,3.0,3.0,3.0,4.0,4.0,4.0,4.0,5.0,3.0,3.0,4.0,3.0,4.0,3.0,4.0,3.0,4.0,4.0,4.0,4.0,4.0,3.0,4.0,4.0,3.0,4.0,4.0,4.0,4.0,3.0,5.0,4.0,3.0,4.0,3.0,3.0,4.0,3.0,4.0,4.0,3.0,3.0,4.0,5.0,2.0,5.0,3.0,4.0,4.0,3.0,4.0,3.0,4.0,3.0,4.0,4.0,5.0,4.0,5.0,3.0,4.0,4.0,4.0,4.0,3.0,3.0,4.0,4.0,4.0,4.0,4.0,4.0,3.0,4.0,4.0,4.0,2.0,4.0,3.0,4.0,4.0,4.0,4.0,4.0,3.0,3.0,4.0,4.0,4.0,3.0,4.0,3.0,4.0,4.0,5.0,4.0,5.0,3.0,4.0,4.0,3.0,4.0,4.0,4.0,3.0,4.0,3.0,4.0,4.0,5.0,3.0,4.0,4.0,3.0,4.0,3.0,3.0,3.0,3.0,4.0,5.0,4.0,4.0,3.0,4.0,4.0,3.0,4.0,4.0,3.0,3.0,4.0,4.0,4.0,4.0,4.0,3.0,4.0,4.0,4.0,4.0,4.0,3.0,3.0,4.0,5.0,4.0,5.0,3.0,3.0,4.0,3.0,4.0,2.0,4.0,3.0,4.0,3.0,5.0,4.0,5.0,3.0,4.0,3.0,3.0,4.0,4.0,4.0,3.0,4.0,4.0,4.0,4.0,5.0,4.0,4.0,4.0,4.0,4.0,4.0,4.0,4.0,3.0,4.0,4.0,3.0,4.0,3.0,4.0,4.0,5.0,4.0,4.0,3.0,3.0,4.0,4.0,4.0,5.0,4.0,4.0,4.0,4.0,4.0,4.0,4.0,3.0,4.0,4.0,4.0,4.0,4.0,3.0,3.0,3.0,4.0,4.0,4.0,4.0,3.0,4.0,4.0,5.0,4.0,5.0,3.0,4.0,4.0,4.0,4.0,4.0,4.0,4.0,4.0,4.0,4.0,4.0,4.0,3.0,4.0,4.0,4.0,4.0,4.0,3.0,4.0,4.0,5.0,4.0,5.0,3.0,3.0,4.0,3.0,5.0,4.0,3.0,3.0,4.0,3.0,5.0,3.0,3.0,3.0,3.0,4.0,3.0,5.0,4.0,4.0,3.0,3.0,4.0,5.0,4.0,5.0,3.0,4.0,4.0,4.0,4.0,3.0,4.0,3.0,4.0,4.0,4.0,3.0,4.0,4.0,4.0,4.0,4.0,3.0,4.0,3.0,4.0,5.0,4.0,4.0,5.0,4.0,3.0,3.0,3.0,5.0,4.0,4.0,3.0,4.0,3.0,5.0,4.0,3.0,4.0,3.0,4.0,4.0,4.0,4.0,4.0,3.0,5.0,4.0,5.0,4.0,5.0,3.0,4.0,3.0,4.0,4.0,3.0,4.0,3.0,4.0,4.0,4.0,4.0,4.0,3.0,4.0,4.0,4.0,4.0,4.0,3.0,3.0,4.0,4.0,4.0,4.0,4.0,3.0,4.0,3.0,4.0,4.0,4.0,4.0,4.0,3.0,5.0,4.0,3.0,4.0,3.0,3.0,4.0,5.0,3.0,4.0,3.0,4.0,3.0,5.0,3.0,4.0,3.0,4.0,4.0,4.0,4.0,3.0,4.0,3.0,4.0,4.0,4.0,4.0,4.0,3.0,4.0,4.0,4.0,4.0,3.0,4.0,4.0,3.0,4.0,4.0,4.0,4.0,3.0,4.0,3.0,5.0,4.0,4.0,3.0,3.0,4.0,5.0,4.0,4.0,4.0,3.0,4.0,3.0,4.0,4.0,4.0,3.0,4.0,4.0,5.0,2.0,4.0,3.0,4.0,4.0,4.0,4.0,3.0,4.0,3.0,4.0,4.0,5.0,4.0,4.0,3.0,4.0,4.0,5.0,4.0,4.0,3.0,3.0,3.0,4.0,4.0,5.0,4.0,4.0,4.0,3.0,5.0,3.0,4.0,3.0,4.0,4.0,4.0,4.0,5.0,4.0,3.0,5.0,4.0,5.0,4.0,4.0,3.0,3.0,4.0,5.0,4.0,5.0,3.0,3.0,3.0,3.0,4.0,4.0,4.0,4.0,4.0,4.0,5.0,4.0,4.0,3.0,4.0,3.0,4.0,4.0,3.0,4.0,3.0,4.0,4.0,4.0,4.0,4.0,3.0,3.0,3.0,5.0,4.0,4.0,3.0,4.0,4.0,5.0,4.0,4.0,4.0,3.0,5.0,3.0,5.0,4.0,4.0,4.0,4.0,4.0,5.0,2.0,5.0,4.0,3.0,4.0,3.0,4.0,4.0,4.0,3.0,4.0,4.0,5.0,4.0,3.0,3.0,3.0,4.0,4.0,3.0,4.0,3.0,4.0,4.0,4.0,4.0,4.0,3.0,3.0,4.0,3.0,5.0,4.0,4.0,4.0,4.0,3.0,4.0,4.0,4.0,3.0,3.0,4.0,3.0,4.0,3.0,3.0,3.0,4.0,4.0,5.0,3.0,5.0,3.0,3.0,4.0,3.0,4.0,3.0,4.0,3.0,4.0,4.0,4.0,2.0,4.0,3.0,3.0,4.0,4.0,4.0,4.0,4.0,3.0,4.0,4.0,5.0,4.0,4.0,3.0,4.0,3.0,4.0,4.0,3.0,3.0,4.0,4.0,4.0,4.0,4.0,4.0,3.0,4.0,3.0,5.0,4.0,4.0,3.0,4.0,4.0,4.0,4.0,3.0,4.0,3.0,4.0,4.0,4.0,3.0,4.0,4.0,4.0,4.0,5.0,4.0,4.0,4.0,4.0,4.0,4.0,4.0,4.0,4.0,4.0,4.0,4.0,5.0,4.0,4.0,3.0,4.0,3.0,5.0,4.0,4.0,3.0,4.0,3.0,4.0,4.0,4.0,4.0,3.0,4.0,3.0,4.0,4.0,4.0,4.0,4.0,3.0,4.0,4.0,3.0,3.0,3.0,4.0,3.0,4.0,2.0,4.0,4.0,4.0,3.0,5.0,3.0,4.0,3.0,3.0,4.0,4.0,4.0,4.0,4.0,4.0,4.0,4.0,5.0,4.0,4.0,3.0,4.0,4.0,4.0,4.0,4.0,3.0,4.0,4.0,4.0,4.0,4.0,3.0,3.0,4.0,3.0,5.0,4.0,4.0,3.0,3.0,4.0,4.0,4.0,4.0,4.0,3.0,4.0,3.0,5.0,2.0,4.0,4.0,4.0,3.0,5.0,4.0,4.0,4.0,4.0,4.0,4.0,4.0,2.0,3.0,3.0,4.0,4.0,4.0,4.0,4.0,3.0,4.0,4.0,5.0,4.0,3.0,4.0,4.0,4.0,4.0,4.0,4.0,4.0,3.0,4.0,3.0,5.0,2.0,4.0,4.0,3.0,4.0,4.0,4.0,5.0,4.0,3.0,4.0,4.0,4.0,4.0,4.0,3.0,4.0,4.0,4.0,4.0,4.0,4.0,3.0,4.0,4.0,4.0,3.0,4.0,4.0,4.0,4.0,5.0,4.0,4.0,3.0,4.0,3.0,5.0,4.0,3.0,4.0,3.0,4.0,4.0,4.0,4.0,3.0,3.0,4.0,4.0,5.0,4.0,4.0,4.0,3.0,4.0,4.0,4.0,4.0,4.0,3.0,3.0,3.0,5.0,4.0,4.0,2.0,4.0,4.0,4.0,4.0,4.0,4.0,3.0,4.0,4.0,4.0,4.0,4.0,3.0,3.0,3.0,5.0,4.0,4.0,3.0,4.0,4.0,4.0,4.0,4.0,3.0,3.0,4.0,3.0,5.0,4.0,4.0,3.0,4.0,4.0,4.0,4.0,4.0,4.0,3.0,4.0,5.0,4.0,4.0,4.0,3.0,4.0,4.0,5.0,2.0,4.0,3.0,3.0,3.0,4.0,5.0,4.0,4.0,3.0,4.0,4.0,4.0,4.0,4.0,4.0,4.0,3.0,4.0,4.0,3.0,4.0,3.0,3.0,4.0,4.0,4.0,4.0,2.0,4.0,4.0,5.0,4.0,3.0,3.0,4.0,4.0,5.0,4.0,3.0,4.0,3.0,3.0,4.0,5.0,4.0,4.0,3.0,4.0,3.0,5.0,4.0,4.0,3.0,3.0,3.0,4.0,4.0,4.0,4.0,3.0,4.0,4.0,5.0,4.0,4.0,4.0,3.0,3.0,5.0,4.0,4.0,4.0,4.0,3.0,3.0,5.0,3.0,3.0,4.0,3.0,3.0,5.0,3.0,4.0,3.0,3.0,3.0,4.0,4.0,4.0,4.0,3.0,4.0,4.0
230.0,236.0,236.0,228.0,230.0,228.0,233.0,237.0,228.0,229.0,224.0,234.0,236.0,230.0,232.0,227.0,237.0,239.0,231.0,234.0,230.0,238.0,240.0,233.0,234.0,232.0,240.0,240.0,230.0,233.0,239.0,238.0,239.0,231.0,233.0,240.0,240.0,239.0,232.0,237.0,237.0,242.0,240.0,231.0,236.0,244.0,239.0,239.0,231.0,238.0,244.0,238.0,238.0,230.0,238.0,243.0,238.0,239.0,231.0,238.0,244.0,240.0,239.0,229.0,239.0,245.0,241.0,240.0,231.0,240.0,244.0,241.0,239.0,231.0,238.0,243.0,238.0,238.0,232.0,243.0,244.0,234.0,236.0,232.0,242.0,243.0,234.0,238.0,234.0,243.0,246.0,238.0,240.0,238.0,244.0,244.0,235.0,238.0,243.0,242.0,243.0,234.0,237.0,245.0,244.0,242.0,233.0,239.0,243.0,247.0,241.0,231.0,238.0,241.0,243.0,242.0,233.0,238.0,243.0,243.0,241.0,234.0,238.0,243.0,241.0,242.0,234.0,237.0,244.0,242.0,242.0,232.0,242.0,250.0,245.0,244.0,235.0,245.0,254.0,250.0,244.0,239.0,246.0,252.0,245.0,247.0,243.0,249.0,245.0,235.0,229.0,228.0,231.0,227.0,221.0,233.0,230.0,235.0,228.0,218.0,225.0,233.0,244.0,272.0,258.0,260.0,257.0,256.0,261.0,264.0,272.0,276.0,278.0,279.0,288.0,296.0,288.0,301.0,296.0,293.0,302.0,295.0,295.0,302.0,305.0,306.0,309.0,304.0,306.0,298.0,290.0,281.0,276.0,284.0,273.0,275.0,286.0,275.0,261.0,256.0,267.0,260.0,250.0,256.0,247.0,259.0,264.0,258.0,260.0,251.0,255.0,270.0,262.0,256.0,246.0,259.0,269.0,260.0,263.0,252.0,256.0,259.0,246.0,248.0,239.0,244.0,249.0,238.0,240.0,243.0,245.0,246.0,230.0,231.0,229.0,233.0,239.0,231.0,231.0,237.0,242.0,239.0,234.0,242.0,241.0,247.0,253.0,246.0,251.0,257.0,264.0,262.0,250.0,252.0,255.0,260.0,259.0,245.0,250.0,263.0,253.0,251.0,241.0,241.0,247.0,246.0,248.0,244.0,262.0,268.0,259.0,259.0,243.0,244.0,246.0,243.0,235.0,227.0,225.0,228.0,233.0,230.0,220.0,235.0,236.0,227.0,234.0,230.0,238.0,251.0,243.0,253.0,249.0,250.0,253.0,243.0,239.0,238.0,237.0,244.0,240.0,246.0,243.0,244.0,246.0,247.0,248.0,254.0,260.0,255.0,239.0,241.0,248.0,252.0,253.0,251.0,263.0,259.0,265.0,257.0,250.0,258.0,263.0,266.0,263.0,257.0,254.0,252.0,257.0,261.0,246.0,242.0,245.0,246.0,240.0,230.0,238.0,246.0,245.0,243.0,238.0,246.0,249.0,251.0,249.0,242.0,245.0,250.0,252.0,249.0,243.0,253.0,278.0,264.0,261.0,250.0,257.0,254.0,249.0,239.0,228.0,240.0,244.0,245.0,244.0,238.0,247.0,248.0,249.0,248.0,251.0,259.0,256.0,247.0,246.0,254.0,259.0,257.0,246.0,247.0,240.0,251.0,255.0,248.0,248.0,248.0,253.0,247.0,239.0,243.0,249.0,252.0,246.0,241.0,242.0,246.0,245.0,245.0,241.0,240.0,243.0,244.0,243.0,235.0,242.0,248.0,249.0,247.0,239.0,248.0,251.0,250.0,248.0,241.0,247.0,253.0,252.0,248.0,242.0,243.0,251.0,246.0,246.0,240.0,247.0,252.0,247.0,245.0,238.0,245.0,251.0,248.0,245.0,237.0,247.0,251.0,245.0,246.0,243.0,251.0,249.0,243.0,242.0,242.0,246.0,248.0,242.0,243.0,238.0,247.0,248.0,242.0,241.0,242.0,249.0,244.0,238.0,241.0,245.0,248.0,246.0,241.0,242.0,247.0,249.0,249.0,241.0,243.0,248.0,250.0,246.0,240.0,241.0,248.0,247.0,245.0,239.0,242.0,245.0,250.0,246.0,240.0,244.0,248.0,251.0,247.0,241.0,245.0,252.0,247.0,245.0,238.0,247.0,251.0,246.0,246.0,238.0,246.0,251.0,248.0,245.0,238.0,246.0,250.0,244.0,244.0,242.0,249.0,249.0,244.0,244.0,244.0,249.0,250.0,244.0,243.0,241.0,250.0,251.0,244.0,246.0,241.0,251.0,249.0,243.0,244.0,241.0,249.0,248.0,244.0,244.0,242.0,249.0,250.0,244.0,243.0,243.0,249.0,246.0,239.0,242.0,249.0,250.0,248.0,240.0,244.0,246.0,250.0,247.0,240.0,244.0,250.0,252.0,248.0,241.0,247.0,253.0,248.0,245.0,239.0,246.0,250.0,245.0,245.0,237.0,246.0,251.0,248.0,244.0,238.0,248.0,250.0,246.0,244.0,237.0,248.0,249.0,247.0,245.0,239.0,246.0,251.0,246.0,244.0,238.0,245.0,251.0,246.0,245.0,240.0,248.0,247.0,240.0,243.0,242.0,247.0,246.0,243.0,242.0,243.0,249.0,248.0,243.0,243.0,243.0,249.0,246.0,243.0,244.0,251.0,250.0,246.0,240.0,245.0,247.0,250.0,246.0,239.0,242.0,246.0,248.0,244.0,240.0,242.0,247.0,247.0,245.0,239.0,241.0,248.0,245.0,243.0,237.0,240.0,245.0,244.0,241.0,234.0,239.0,245.0,242.0,239.0,234.0,243.0,245.0,241.0,239.0,235.0,241.0,244.0,240.0,239.0,233.0,240.0,244.0,239.0,238.0,236.0,245.0,242.0,235.0,237.0,236.0,242.0,241.0,237.0,237.0,237.0,243.0,243.0,237.0,237.0,239.0,243.0,242.0,236.0,236.0,239.0,241.0,241.0,235.0,235.0,234.0,241.0,241.0,234.0,237.0,235.0,241.0,238.0,233.0,234.0,241.0,241.0,238.0,234.0,237.0,243.0,240.0,239.0,233.0,236.0,242.0,241.0,238.0,231.0,235.0,241.0,237.0,237.0,230.0,240.0,241.0,237.0,235.0,234.0,240.0,243.0,238.0,237.0,230.0,239.0,243.0,236.0,237.0,229.0,238.0,240.0,235.0,235.0,229.0,238.0,239.0,237.0,235.0,231.0,239.0,241.0,236.0,236.0,231.0,241.0,240.0,233.0,234.0,238.0,241.0,239.0,232.0,234.0,235.0,240.0,240.0,232.0,235.0,234.0,239.0,237.0,230.0,233.0,240.0,238.0,236.0,230.0,233.0,240.0,237.0,238.0,230.0,235.0,240.0,239.0,235.0,229.0,234.0,239.0,238.0,235.0,228.0,236.0,239.0,239.0,236.0,228.0,233.0,239.0,238.0,235.0,230.0,234.0,240.0,238.0,237.0,229.0,239.0,241.0,233.0,235.0,229.0,239.0,238.0,235.0,234.0,229.0,239.0,241.0,235.0,234.0,231.0,240.0,237.0,231.0,232.0,237.0,239.0,238.0,231.0,233.0,233.0,238.0,237.0,230.0,234.0,235.0,241.0,238.0,233.0,233.0,234.0,238.0,236.0,232.0,233.0,236.0,239.0,240.0,232.0,234.0,238.0,240.0,238.0,232.0,233.0,239.0,238.0,235.0,228.0,235.0,237.0,237.0,234.0,226.0,233.0,239.0,237.0,234.0,228.0,232.0,238.0,236.0,234.0,228.0,237.0,240.0,231.0,233.0,227.0,238.0,239.0,234.0,234.0,229.0,239.0,240.0,233.0,234.0,230.0,235.0,239.0,231.0,232.0,232.0,236.0,239.0,233.0,233.0,227.0,236.0,239.0,230.0,234.0,227.0,235.0,237.0,229.0,231.0,234.0,236.0,234.0,230.0,231.0,237.0,236.0,237.0,229.0,232.0,236.0,239.0,238.0,230.0,232.0,237.0,237.0,236.0,226.0,235.0,238.0,236.0,234.0,227.0,233.0,238.0,235.0,233.0,227.0,231.0,238.0,234.0,235.0,226.0,232.0,238.0,234.0,234.0,225.0,233.0,238.0,236.0,233.0,227.0,235.0,239.0,236.0,234.0,226.0,235.0,238.0,231.0,231.0,230.0,235.0,237.0,231.0,230.0,226.0,237.0,237.0,230.0,234.0,228.0,237.0,237.0,230.0,231.0,236.0,238.0,235.0,231.0,231.0,237.0,238.0,238.0,232.0,234.0,238.0,240.0,237.0,231.0,233.0,236.0,240.0,238.0,232.0,235.0,237.0,240.0,238.0,230.0,234.0,237.0,239.0,236.0,232.0,233.0,237.0,238.0,235.0,228.0,234.0,239.0
