213.0,219.0,216.0,218.0,209.0,213.0,220.0,217.0,218.0,209.0,213.0,220.0,217.0,219.0,210.0,216.0,219.0,218.0,218.0,211.0,214.0,220.0,218.0,218.0,211.0,218.0,223.0,216.0,218.0,212.0,221.0,224.0,219.0,220.0,214.0,223.0,226.0,222.0,222.0,217.0,225.0,228.0,222.0,222.0,217.0,227.0,227.0,222.0,222.0,219.0,224.0,228.0,221.0,222.0,216.0,224.0,228.0,221.0,224.0,222.0,227.0,226.0,218.0,222.0,225.0,227.0,226.0,221.0,222.0,225.0,228.0,228.0,220.0,223.0,226.0,227.0,226.0,219.0,223.0,230.0,227.0,226.0,217.0,226.0,228.0,226.0,225.0,217.0,223.0,230.0,227.0,224.0,220.0,223.0,228.0,225.0,225.0,218.0,224.0,229.0,224.0,225.0,217.0,224.0,228.0,225.0,224.0,218.0,225.0,230.0,224.0,225.0,223.0,230.0,231.0,225.0,226.0,226.0,231.0,230.0,223.0,224.0,224.0,233.0,236.0,228.0,227.0,227.0,228.0,224.0,216.0,222.0,227.0,226.0,223.0,219.0,220.0,227.0,229.0,235.0,231.0,230.0,232.0,234.0,232.0,230.0,230.0,237.0,241.0,241.0,230.0,232.0,236.0,237.0,235.0,222.0,229.0,233.0,239.0,239.0,228.0,238.0,241.0,237.0,241.0,232.0,239.0,246.0,239.0,244.0,234.0,245.0,248.0,243.0,237.0,226.0,235.0,237.0,227.0,230.0,231.0,241.0,244.0,233.0,232.0,232.0,230.0,236.0,225.0,222.0,219.0,226.0,234.0,222.0,229.0,222.0,225.0,232.0,222.0,228.0,224.0,232.0,230.0,225.0,228.0,227.0,232.0,238.0,230.0,236.0,237.0,236.0,236.0,224.0,227.0,231.0,233.0,240.0,233.0,235.0,239.0,238.0,236.0,223.0,230.0,233.0,234.0,234.0,223.0,231.0,237.0,234.0,238.0,232.0,241.0,248.0,237.0,240.0,229.0,238.0,241.0,238.0,240.0,233.0,242.0,245.0,239.0,238.0,231.0,239.0,247.0,236.0,239.0,227.0,231.0,235.0,229.0,232.0,225.0,238.0,240.0,232.0,234.0,231.0,237.0,237.0,227.0,231.0,232.0,238.0,242.0,234.0,233.0,229.0,235.0,244.0,234.0,234.0,240.0,241.0,239.0,232.0,239.0,245.0,243.0,244.0,232.0,236.0,241.0,240.0,240.0,231.0,237.0,243.0,241.0,240.0,231.0,234.0,241.0,237.0,237.0,230.0,235.0,240.0,235.0,237.0,229.0,234.0,239.0,235.0,235.0,226.0,233.0,239.0,234.0,234.0,229.0,237.0,238.0,232.0,229.0,225.0,230.0,234.0,227.0,228.0,221.0,232.0,235.0,228.0,229.0,230.0,233.0,232.0,224.0,229.0,235.0,237.0,235.0,229.0,231.0,233.0,233.0,234.0,226.0,228.0,232.0,231.0,230.0,224.0,226.0,231.0,231.0,230.0,221.0,223.0,225.0,229.0,228.0,221.0,224.0,227.0,228.0,227.0,217.0,224.0,228.0,224.0,225.0,217.0,224.0,229.0,224.0,225.0,218.0,224.0,229.0,224.0,225.0,215.0,223.0,228.0,221.0,223.0,221.0,226.0,228.0,221.0,223.0,221.0,224.0,229.0,220.0,222.0,217.0,226.0,229.0,221.0,224.0,218.0,227.0,230.0,219.0,224.0,221.0,228.0,228.0,222.0,223.0,221.0,227.0,228.0,220.0,222.0,221.0,225.0,226.0,216.0,220.0,226.0,224.0,224.0,215.0,222.0,223.0,224.0,226.0,216.0,221.0,225.0,224.0,224.0,215.0,221.0,227.0,221.0,223.0,215.0,223.0,227.0,221.0,223.0,216.0,223.0,229.0,224.0,224.0,216.0,225.0,228.0,222.0,223.0,216.0,225.0,227.0,223.0,222.0,217.0,221.0,228.0,221.0,224.0,215.0,222.0,227.0,220.0,221.0,219.0,225.0,226.0,217.0,222.0,220.0,224.0,225.0,217.0,220.0,219.0,223.0,226.0,217.0,220.0,221.0,224.0,226.0,216.0,221.0,228.0,224.0,225.0,216.0,222.0,225.0,226.0,225.0,215.0,221.0,226.0,224.0,224.0,217.0,220.0,226.0,224.0,223.0,217.0,221.0,227.0,223.0,226.0,217.0,221.0,228.0,225.0,224.0,216.0,222.0,228.0,223.0,225.0,218.0,226.0,227.0,222.0,223.0,220.0,225.0,228.0,222.0,223.0,216.0,225.0,228.0,220.0,221.0,220.0,226.0,225.0,218.0,221.0,222.0,225.0,225.0,219.0,221.0,223.0,226.0,228.0,219.0,222.0,225.0,227.0,226.0,218.0,221.0,225.0,226.0,227.0,218.0,222.0,222.0,227.0,226.0,219.0,223.0,224.0,227.0,226.0,218.0,221.0,227.0,224.0,223.0,217.0,223.0,229.0,225.0,226.0,218.0,224.0,229.0,227.0,225.0,218.0,224.0,228.0,223.0,223.0,220.0,228.0,228.0,222.0,223.0,220.0,225.0,228.0,222.0,222.0,217.0,225.0,228.0,221.0,223.0,218.0,226.0,227.0,221.0,223.0,219.0,226.0,226.0,222.0,223.0,221.0,228.0,229.0,223.0,224.0,222.0,227.0,226.0,218.0,222.0,227.0,227.0,226.0,219.0,221.0,224.0,227.0,227.0,219.0,223.0,224.0,228.0,225.0,218.0,222.0,229.0,224.0,224.0,218.0,223.0,229.0,224.0,226.0,217.0,226.0,228.0,226.0,225.0,217.0,225.0,228.0,226.0,224.0,217.0,225.0,227.0,225.0,225.0,218.0,223.0,229.0,224.0,224.0,219.0,224.0,228.0,223.0,223.0,220.0,226.0,228.0,220.0,224.0,219.0,227.0,227.0,223.0,222.0,221.0,227.0,228.0,221.0,224.0,223.0,226.0,226.0,218.0,221.0,226.0,227.0,225.0,218.0,222.0,225.0,226.0,225.0,217.0,222.0,225.0,226.0,225.0,219.0,222.0,226.0,226.0,225.0,219.0,221.0,227.0,226.0,226.0,218.0,222.0,228.0,227.0,225.0,217.0,222.0,227.0,225.0,224.0,219.0,227.0,229.0,224.0,224.0,219.0,225.0,229.0,224.0,224.0,217.0,226.0,229.0,225.0,224.0,222.0,228.0,228.0,221.0,225.0,223.0,228.0,227.0,223.0,224.0,224.0,228.0,229.0,222.0,223.0,224.0,227.0,229.0,222.0,223.0,226.0,228.0,227.0,221.0,222.0,223.0,227.0,226.0,220.0,223.0,223.0,227.0,226.0,219.0,222.0,228.0,227.0,225.0,220.0,223.0,229.0,225.0,226.0,219.0,224.0,230.0,227.0,226.0,218.0,224.0,228.0,224.0,224.0,219.0,227.0,229.0,223.0,223.0,220.0,224.0,228.0,221.0,223.0,215.0,224.0,227.0,221.0,223.0,217.0,224.0,227.0,219.0,223.0,217.0,225.0,228.0,223.0,223.0,219.0,228.0,228.0,223.0,224.0,221.0,228.0,228.0,220.0,223.0,226.0,228.0,227.0,218.0,221.0,222.0,227.0,226.0,217.0,223.0,223.0,225.0,225.0,215.0,221.0,227.0,223.0,224.0,217.0,222.0,229.0,223.0,226.0,217.0,222.0,229.0,224.0,225.0,216.0,223.0,227.0,224.0,224.0,215.0,224.0,227.0,223.0,224.0,217.0,221.0,228.0,223.0,224.0,216.0,223.0,229.0,223.0,224.0,218.0,227.0,229.0,220.0,224.0,219.0,226.0,229.0,221.0,224.0,220.0,226.0,229.0,220.0,223.0,221.0,226.0,226.0,217.0,221.0,227.0,225.0,227.0,216.0,221.0,224.0,226.0,227.0,217.0,222.0,225.0,225.0,226.0,218.0,222.0,226.0,224.0,226.0,218.0,222.0,227.0,224.0,227.0,217.0,221.0,226.0,224.0,225.0,216.0,220.0,227.0,222.0,222.0,215.0,225.0,228.0,222.0,223.0,216.0,221.0,228.0,220.0,222.0,214.0,221.0,227.0,221.0,223.0,218.0,226.0,227.0,218.0,223.0,221.0,226.0,227.0,221.0,222.0,220.0,226.0,227.0,219.0,221.0,221.0,223.0,225.0,217.0,218.0,220.0,222.0,224.0,215.0,219.0,216.0,223.0,225.0,215.0,220.0,217.0,223.0,222.0,214.0,217.0,223.0,221.0,222.0,214.0,218.0,224.0,221.0,222.0,214.0,218.0,224.0,222.0,222.0,214.0,219.0,226.0,220.0,220.0,215.0,223.0,225.0,221.0
31.0,32.0,32.0,32.0,32.0,32.0,33.0,32.0,32.0,33.0,32.0,32.0,32.0,32.0,32.0,32.0,33.0,32.0,32.0,32.0,31.0,32.0,32.0,32.0,32.0,32.0,31.0,32.0,33.0,33.0,32.0,32.0,31.0,33.0,32.0,33.0,32.0,31.0,33.0,31.0,32.0,33.0,33.0,32.0,33.0,33.0,32.0,32.0,33.0,33.0,33.0,32.0,32.0,32.0,33.0,32.0,32.0,32.0,33.0,33.0,32.0,34.0,32.0,33.0,32.0,32.0,32.0,33.0,32.0,33.0,32.0,33.0,32.0,34.0,33.0,32.0,32.0,32.0,33.0,33.0,33.0,32.0,32.0,33.0,32.0,33.0,33.0,33.0,32.0,33.0,31.0,33.0,32.0,34.0,32.0,32.0,32.0,33.0,33.0,33.0,32.0,32.0,32.0,33.0,33.0,32.0,33.0,32.0,32.0,32.0,32.0,32.0,33.0,32.0,33.0,32.0,33.0,32.0,32.0,33.0,32.0,32.0,31.0,32.0,32.0,33.0,32.0,32.0,32.0,32.0,32.0,33.0,32.0,32.0,32.0,31.0,33.0,32.0,33.0,32.0,31.0,31.0,32.0,31.0,33.0,32.0,32.0,32.0,31.0,32.0,33.0,32.0,32.0,32.0,32.0,32.0,32.0,33.0,32.0,32.0,31.0,31.0,32.0,33.0,33.0,32.0,32.0,31.0,32.0,32.0,33.0,32.0,32.0,32.0,33.0,32.0,33.0,32.0,32.0,32.0,31.0,32.0,33.0,32.0,32.0,33.0,32.0,33.0,33.0,33.0,32.0,32.0,33.0,33.0,32.0,33.0,33.0,33.0,33.0,33.0,32.0,32.0,34.0,32.0,32.0,33.0,32.0,33.0,33.0,32.0,32.0,32.0,33.0,32.0,32.0,32.0,32.0,32.0,31.0,32.0,32.0,33.0,32.0,32.0,32.0,32.0,32.0,33.0,32.0,32.0,32.0,31.0,32.0,32.0,33.0,32.0,32.0,32.0,32.0,32.0,33.0,32.0,32.0,32.0,32.0,32.0,32.0,33.0,32.0,32.0,33.0,32.0,32.0,33.0,32.0,32.0,31.0,31.0,31.0,32.0,32.0,31.0,32.0,31.0,32.0,32.0,33.0,32.0,32.0,31.0,32.0,32.0,33.0,32.0,32.0,32.0,31.0,33.0,32.0,32.0,32.0,32.0,31.0,32.0,32.0,33.0,32.0,32.0,32.0,31.0,32.0,32.0,32.0,32.0,32.0,32.0,32.0,32.0,33.0,30.0,32.0,32.0,32.0,32.0,33.0,32.0,32.0,32.0,33.0,32.0,32.0,33.0,32.0,33.0,31.0,33.0,32.0,33.0,32.0,32.0,33.0,32.0,32.0,33.0,32.0,32.0,32.0,32.0,32.0,32.0,33.0,32.0,32.0,32.0,32.0,32.0,33.0,32.0,33.0,32.0,32.0,33.0,32.0,34.0,32.0,32.0,32.0,32.0,32.0,33.0,32.0,33.0,32.0,33.0,32.0,33.0,33.0,32.0,32.0,31.0,33.0,32.0,33.0,32.0,32.0,33.0,32.0,32.0,33.0,32.0,32.0,33.0,31.0,33.0,32.0,33.0,32.0,32.0,33.0,32.0,32.0,34.0,32.0,33.0,32.0,32.0,33.0,33.0,32.0,32.0,32.0,32.0,32.0,32.0,33.0,32.0,32.0,32.0,32.0,33.0,33.0,32.0,32.0,32.0,33.0,33.0,32.0,33.0,32.0,32.0,31.0,33.0,32.0,33.0,32.0,33.0,32.0,31.0,32.0,32.0,32.0,32.0,32.0,31.0,33.0,32.0,33.0,31.0,32.0,32.0,31.0,32.0,33.0,32.0,32.0,32.0,32.0,32.0,31.0,33.0,32.0,33.0,31.0,32.0,32.0,32.0,32.0,32.0,32.0,32.0,32.0,32.0,32.0,31.0,33.0,31.0,32.0,32.0,32.0,32.0,32.0,32.0,31.0,32.0,32.0,32.0,32.0,32.0,31.0,32.0,31.0,33.0,32.0,31.0,31.0,32.0,32.0,33.0,32.0,32.0,31.0,31.0,31.0,32.0,31.0,31.0,31.0,31.0,31.0,31.0,33.0,30.0,31.0,31.0,31.0,32.0,31.0,32.0,31.0,32.0,31.0,31.0,31.0,32.0,30.0,32.0,31.0,31.0,31.0,31.0,31.0,31.0,31.0,30.0,32.0,31.0,32.0,31.0,31.0,31.0,31.0,31.0,33.0,32.0,32.0,31.0,31.0,32.0,32.0,32.0,32.0,31.0,31.0,32.0,31.0,31.0,32.0,32.0,31.0,32.0,32.0,32.0,32.0,32.0,32.0,31.0,32.0,33.0,32.0,32.0,32.0,32.0,32.0,31.0,33.0,32.0,33.0,32.0,31.0,32.0,33.0,32.0,32.0,31.0,31.0,32.0,32.0,33.0,32.0,32.0,32.0,32.0,33.0,33.0,32.0,32.0,32.0,33.0,32.0,32.0,33.0,32.0,33.0,32.0,32.0,33.0,33.0,32.0,32.0,32.0,33.0,32.0,33.0,32.0,33.0,33.0,33.0,33.0,32.0,34.0,32.0,32.0,32.0,33.0,32.0,34.0,33.0,32.0,32.0,33.0,33.0,32.0,34.0,32.0,33.0,33.0,33.0,33.0,34.0,32.0,33.0,33.0,33.0,33.0,33.0,33.0,32.0,32.0,33.0,33.0,32.0,33.0,32.0,32.0,32.0,33.0,32.0,33.0,32.0,32.0,32.0,31.0,32.0,32.0,33.0,32.0,32.0,32.0,32.0,32.0,33.0,31.0,32.0,32.0,31.0,32.0,31.0,32.0,32.0,31.0,32.0,32.0,31.0,33.0,32.0,31.0,31.0,31.0,32.0,32.0,32.0,31.0,32.0,31.0,31.0,32.0,32.0,30.0,32.0,31.0,31.0,31.0,32.0,31.0,31.0,31.0,31.0,31.0,32.0,32.0,31.0,31.0,31.0,32.0,31.0,33.0,31.0,31.0,32.0,31.0,32.0,33.0,32.0,32.0,32.0,31.0,32.0,32.0,32.0,31.0,32.0,32.0,32.0,33.0,33.0,32.0,32.0,32.0,33.0,32.0,32.0,33.0,32.0,32.0,32.0,32.0,32.0,33.0,32.0,32.0,32.0,33.0,32.0,33.0,32.0,32.0,33.0,31.0,33.0,32.0,33.0,32.0,31.0,32.0,32.0,31.0,33.0,31.0,32.0,31.0,31.0,32.0,32.0,32.0,32.0,32.0,31.0,31.0,32.0,32.0,31.0,31.0,31.0,31.0,31.0,31.0,31.0,30.0,31.0,31.0,31.0,31.0,31.0,30.0,31.0,31.0,31.0,31.0,32.0,30.0,31.0,30.0,31.0,31.0,32.0,31.0,31.0,31.0,31.0,31.0,31.0,32.0,31.0,31.0,32.0,31.0,32.0,31.0,32.0,32.0,31.0,32.0,31.0,32.0,33.0,31.0,33.0,32.0,31.0,33.0,32.0,32.0,32.0,32.0,33.0,32.0,32.0,32.0,32.0,33.0,31.0,32.0,32.0,33.0,32.0,32.0,32.0,33.0,32.0,33.0,32.0,32.0,32.0,31.0,33.0,33.0,33.0,32.0,32.0,33.0,32.0,32.0,34.0,32.0,32.0,32.0,33.0,32.0,32.0,33.0,32.0,33.0,33.0,32.0,32.0,32.0,33.0,33.0,33.0,33.0,32.0,33.0,33.0,32.0,32.0,31.0,33.0,33.0,33.0,32.0,32.0,32.0,32.0,32.0,33.0,32.0,31.0,32.0,31.0,32.0,32.0,33.0,32.0,32.0,32.0,32.0,31.0,33.0,32.0,32.0,31.0,31.0,32.0,32.0,32.0,32.0,32.0,31.0,32.0,32.0,33.0,32.0,32.0,31.0,31.0,32.0,33.0,32.0,32.0,32.0,32.0,31.0,33.0,33.0,31.0,32.0,31.0,33.0,31.0,32.0,32.0,31.0,32.0,31.0,32.0,32.0,32.0,32.0,32.0,31.0,32.0,32.0,33.0,32.0,31.0,32.0,31.0,32.0,31.0,32.0,32.0,32.0,31.0,31.0,32.0,32.0,30.0,32.0,31.0,31.0,32.0,32.0,31.0,32.0,32.0,31.0,31.0,32.0,32.0,32.0,32.0,31.0,32.0,32.0,32.0,32.0,32.0,32.0,32.0,31.0,33.0,32.0,32.0,32.0,31.0,32.0,32.0,33.0,32.0,32.0,33.0,32.0,32.0,33.0,32.0,33.0,32.0,32.0,33.0,33.0,33.0,32.0,33.0,33.0,33.0,33.0,33.0,32.0,33.0,32.0
4.0,3.0,4.0,4.0,3.0,4.0,4.0,3.0,3.0,3.0,3.0,3.0,4.0,3.0,4.0,4.0,3.0,3.0,3.0,5.0,2.0,4.0,3.0,3.0,3.0,4.0,4.0,3.0,3.0,3.0,4.0,3.0,5.0,2.0,3.0,3.0,3.0,4.0,4.0,4.0,3.0,3.0,3.0,4.0,3.0,4.0,4.0,3.0,3.0,3.0,3.0,4.0,2.0,3.0,3.0,3.0,4.0,4.0,4.0,4.0,4.0,3.0,4.0,3.0,5.0,4.0,4.0,3.0,4.0,4.0,5.0,4.0,4.0,3.0,3.0,3.0,4.0,4.0,4.0,3.0,3.0,4.0,3.0,5.0,4.0,3.0,4.0,3.0,4.0,4.0,4.0,3.0,5.0,3.0,4.0,3.0,5.0,3.0,4.0,3.0,4.0,4.0,5.0,4.0,3.0,3.0,3.0,4.0,4.0,4.0,3.0,4.0,3.0,4.0,3.0,5.0,4.0,3.0,4.0,3.0,3.0,4.0,4.0,2.0,4.0,3.0,3.0,3.0,5.0,4.0,4.0,3.0,4.0,4.0,5.0,4.0,3.0,4.0,3.0,4.0,4.0,4.0,4.0,5.0,3.0,4.0,4.0,5.0,3.0,4.0,3.0,3.0,4.0,4.0,4.0,3.0,4.0,3.0,3.0,4.0,5.0,3.0,4.0,3.0,3.0,4.0,4.0,4.0,3.0,4.0,3.0,4.0,4.0,5.0,2.0,3.0,3.0,4.0,3.0,4.0,4.0,4.0,4.0,3.0,4.0,4.0,4.0,3.0,4.0,3.0,4.0,4.0,5.0,2.0,5.0,4.0,3.0,4.0,4.0,3.0,3.0,3.0,3.0,4.0,4.0,4.0,4.0,3.0,3.0,3.0,4.0,4.0,4.0,3.0,4.0,3.0,3.0,4.0,4.0,3.0,3.0,3.0,4.0,3.0,5.0,2.0,3.0,3.0,3.0,3.0,4.0,3.0,3.0,3.0,3.0,4.0,4.0,5.0,2.0,3.0,3.0,3.0,4.0,4.0,4.0,4.0,4.0,3.0,4.0,4.0,4.0,4.0,3.0,3.0,3.0,3.0,4.0,4.0,3.0,3.0,3.0,3.0,4.0,4.0,3.0,4.0,3.0,3.0,4.0,4.0,2.0,3.0,3.0,3.0,3.0,5.0,4.0,3.0,4.0,3.0,3.0,4.0,4.0,4.0,4.0,3.0,4.0,3.0,5.0,4.0,4.0,3.0,3.0,4.0,4.0,4.0,4.0,4.0,3.0,4.0,3.0,5.0,4.0,4.0,3.0,3.0,4.0,4.0,4.0,4.0,4.0,3.0,4.0,4.0,5.0,4.0,4.0,3.0,3.0,3.0,4.0,4.0,4.0,4.0,3.0,3.0,4.0,4.0,3.0,4.0,3.0,4.0,4.0,4.0,4.0,3.0,3.0,4.0,3.0,4.0,4.0,4.0,4.0,3.0,3.0,3.0,4.0,3.0,4.0,3.0,4.0,3.0,4.0,3.0,4.0,3.0,3.0,4.0,4.0,4.0,4.0,3.0,3.0,4.0,4.0,4.0,4.0,4.0,3.0,3.0,3.0,4.0,3.0,4.0,4.0,3.0,3.0,3.0,4.0,4.0,3.0,3.0,3.0,3.0,5.0,4.0,4.0,3.0,3.0,4.0,4.0,4.0,3.0,4.0,3.0,4.0,4.0,5.0,2.0,4.0,4.0,4.0,3.0,4.0,4.0,3.0,4.0,3.0,4.0,4.0,5.0,3.0,4.0,3.0,4.0,3.0,5.0,2.0,3.0,4.0,3.0,4.0,4.0,4.0,2.0,4.0,3.0,4.0,3.0,5.0,2.0,4.0,4.0,4.0,3.0,4.0,4.0,4.0,4.0,3.0,3.0,3.0,4.0,2.0,4.0,2.0,4.0,4.0,4.0,5.0,4.0,4.0,3.0,4.0,3.0,4.0,2.0,4.0,3.0,4.0,3.0,5.0,4.0,3.0,4.0,3.0,3.0,4.0,4.0,4.0,4.0,3.0,4.0,4.0,5.0,3.0,4.0,3.0,4.0,4.0,4.0,3.0,4.0,3.0,4.0,4.0,4.0,4.0,3.0,4.0,3.0,3.0,3.0,5.0,3.0,3.0,4.0,3.0,3.0,4.0,4.0,4.0,3.0,3.0,4.0,3.0,5.0,4.0,4.0,2.0,3.0,3.0,5.0,4.0,4.0,3.0,3.0,3.0,4.0,3.0,4.0,4.0,3.0,4.0,3.0,5.0,3.0,3.0,4.0,3.0,4.0,4.0,4.0,4.0,3.0,4.0,4.0,4.0,4.0,3.0,3.0,3.0,3.0,3.0,4.0,4.0,4.0,4.0,3.0,3.0,4.0,5.0,4.0,4.0,3.0,3.0,3.0,4.0,4.0,3.0,3.0,3.0,3.0,4.0,4.0,3.0,3.0,3.0,4.0,3.0,4.0,3.0,3.0,3.0,3.0,4.0,4.0,4.0,4.0,3.0,3.0,3.0,3.0,4.0,4.0,3.0,3.0,3.0,4.0,4.0,3.0,3.0,3.0,4.0,3.0,4.0,4.0,4.0,4.0,3.0,4.0,3.0,4.0,2.0,4.0,3.0,4.0,4.0,5.0,4.0,3.0,4.0,3.0,4.0,4.0,4.0,2.0,3.0,3.0,3.0,4.0,4.0,4.0,4.0,3.0,3.0,3.0,4.0,4.0,4.0,4.0,3.0,3.0,4.0,5.0,3.0,4.0,3.0,4.0,3.0,4.0,4.0,4.0,4.0,3.0,4.0,4.0,5.0,4.0,3.0,3.0,4.0,4.0,4.0,4.0,3.0,3.0,3.0,4.0,4.0,4.0,2.0,3.0,3.0,3.0,3.0,5.0,2.0,4.0,3.0,3.0,3.0,3.0,4.0,3.0,4.0,4.0,3.0,4.0,4.0,4.0,4.0,3.0,3.0,3.0,4.0,4.0,3.0,4.0,3.0,3.0,2.0,4.0,4.0,4.0,3.0,4.0,4.0,4.0,3.0,3.0,3.0,3.0,4.0,4.0,3.0,3.0,3.0,3.0,4.0,3.0,4.0,3.0,4.0,3.0,4.0,3.0,4.0,3.0,4.0,4.0,3.0,4.0,4.0,4.0,4.0,4.0,3.0,3.0,4.0,5.0,3.0,4.0,3.0,4.0,3.0,4.0,4.0,3.0,3.0,3.0,4.0,4.0,5.0,2.0,4.0,3.0,4.0,4.0,4.0,3.0,3.0,3.0,3.0,4.0,3.0,5.0,4.0,3.0,3.0,4.0,3.0,5.0,4.0,5.0,3.0,3.0,3.0,3.0,4.0,2.0,4.0,3.0,4.0,4.0,4.0,4.0,4.0,3.0,4.0,4.0,4.0,4.0,3.0,3.0,3.0,4.0,4.0,4.0,4.0,4.0,3.0,4.0,3.0,5.0,4.0,4.0,3.0,3.0,3.0,4.0,4.0,3.0,4.0,3.0,3.0,3.0,4.0,4.0,4.0,3.0,4.0,3.0,4.0,4.0,4.0,3.0,4.0,4.0,3.0,5.0,2.0,4.0,3.0,4.0,4.0,5.0,2.0,5.0,3.0,3.0,3.0,4.0,4.0,4.0,3.0,3.0,4.0,4.0,4.0,4.0,4.0,3.0,4.0,4.0,5.0,3.0,4.0,3.0,3.0,4.0,4.0,4.0,3.0,4.0,3.0,3.0,3.0,4.0,3.0,4.0,3.0,3.0,3.0,4.0,4.0,2.0,4.0,3.0,4.0,3.0,5.0,4.0,4.0,3.0,4.0,4.0,4.0,4.0,4.0,3.0,3.0,4.0,4.0,4.0,3.0,4.0,3.0,3.0,3.0,5.0,4.0,4.0,4.0,3.0,3.0,4.0,4.0,3.0,4.0,4.0,4.0,3.0,4.0,3.0,4.0,3.0,4.0,3.0,5.0,4.0,4.0,3.0,3.0,3.0,4.0,4.0,2.0,4.0,3.0,3.0,4.0,4.0,4.0,3.0,3.0,3.0,3.0,4.0,4.0,3.0,3.0,3.0,4.0,4.0,5.0,3.0,3.0,3.0,3.0,3.0,4.0,3.0,4.0,4.0,3.0,4.0,3.0,4.0,3.0,4.0,3.0,4.0,3.0,3.0,4.0,4.0,4.0,4.0,3.0,4.0,4.0,4.0,3.0,3.0,3.0,4.0,5.0,3.0,4.0,4.0,3.0,4.0,5.0,4.0,4.0,4.0,3.0,3.0,4.0,5.0,4.0,4.0,3.0,4.0,3.0,4.0,4.0,3.0,4.0,3.0,3.0,4.0,4.0,4.0,4.0,3.0,4.0,4.0,4.0
241.0,246.0,241.0,244.0,235.0,240.0,247.0,246.0,244.0,236.0,244.0,249.0,246.0,245.0,237.0,244.0,249.0,246.0,245.0,235.0,242.0,248.0,246.0,245.0,237.0,247.0,250.0,242.0,244.0,238.0,249.0,252.0,243.0,247.0,240.0,252.0,254.0,247.0,249.0,243.0,253.0,254.0,247.0,247.0,245.0,253.0,255.0,247.0,249.0,246.0,253.0,255.0,247.0,249.0,243.0,254.0,256.0,247.0,249.0,251.0,254.0,252.0,243.0,248.0,252.0,255.0,252.0,246.0,248.0,253.0,252.0,254.0,244.0,249.0,253.0,253.0,253.0,242.0,252.0,257.0,253.0,251.0,243.0,253.0,255.0,249.0,248.0,241.0,248.0,254.0,250.0,249.0,241.0,248.0,252.0,247.0,247.0,240.0,249.0,253.0,247.0,249.0,239.0,252.0,255.0,251.0,250.0,240.0,251.0,254.0,249.0,250.0,250.0,258.0,262.0,251.0,254.0,253.0,255.0,251.0,244.0,250.0,244.0,250.0,251.0,246.0,251.0,252.0,258.0,255.0,247.0,254.0,261.0,256.0,251.0,253.0,255.0,274.0,270.0,271.0,259.0,257.0,260.0,255.0,254.0,270.0,267.0,270.0,270.0,266.0,257.0,266.0,272.0,274.0,283.0,262.0,264.0,269.0,283.0,291.0,272.0,276.0,270.0,271.0,275.0,261.0,270.0,278.0,275.0,281.0,268.0,275.0,273.0,261.0,261.0,253.0,258.0,259.0,245.0,248.0,255.0,264.0,265.0,256.0,260.0,261.0,268.0,277.0,261.0,265.0,268.0,266.0,273.0,260.0,261.0,254.0,261.0,265.0,259.0,264.0,256.0,261.0,257.0,252.0,255.0,257.0,258.0,259.0,261.0,272.0,273.0,268.0,273.0,261.0,262.0,264.0,260.0,257.0,248.0,254.0,261.0,258.0,254.0,236.0,243.0,251.0,256.0,253.0,242.0,250.0,260.0,262.0,265.0,261.0,278.0,279.0,272.0,275.0,258.0,266.0,270.0,267.0,268.0,268.0,278.0,281.0,276.0,279.0,276.0,285.0,295.0,280.0,285.0,270.0,270.0,273.0,262.0,263.0,254.0,263.0,258.0,246.0,246.0,246.0,251.0,254.0,250.0,258.0,266.0,272.0,270.0,257.0,251.0,250.0,253.0,259.0,250.0,252.0,265.0,264.0,258.0,256.0,262.0,265.0,265.0,261.0,246.0,256.0,261.0,263.0,265.0,257.0,263.0,269.0,267.0,269.0,260.0,262.0,266.0,262.0,267.0,257.0,266.0,267.0,264.0,264.0,255.0,264.0,268.0,263.0,259.0,249.0,257.0,261.0,253.0,253.0,253.0,259.0,258.0,252.0,253.0,250.0,254.0,257.0,250.0,250.0,245.0,254.0,255.0,245.0,250.0,254.0,256.0,255.0,245.0,252.0,257.0,256.0,252.0,248.0,251.0,256.0,255.0,254.0,247.0,252.0,257.0,258.0,255.0,249.0,252.0,258.0,258.0,253.0,245.0,253.0,256.0,258.0,254.0,246.0,251.0,257.0,259.0,255.0,248.0,256.0,262.0,256.0,257.0,248.0,256.0,259.0,254.0,254.0,246.0,256.0,258.0,257.0,254.0,247.0,259.0,261.0,257.0,257.0,255.0,260.0,259.0,255.0,255.0,257.0,261.0,261.0,255.0,255.0,252.0,260.0,258.0,252.0,255.0,252.0,261.0,259.0,252.0,255.0,254.0,262.0,259.0,256.0,255.0,255.0,263.0,263.0,256.0,256.0,256.0,259.0,255.0,249.0,253.0,261.0,260.0,256.0,250.0,255.0,258.0,260.0,257.0,251.0,258.0,262.0,262.0,259.0,251.0,260.0,262.0,258.0,255.0,247.0,258.0,260.0,255.0,255.0,249.0,260.0,261.0,258.0,255.0,249.0,259.0,259.0,255.0,254.0,248.0,256.0,257.0,254.0,253.0,249.0,256.0,260.0,255.0,254.0,248.0,259.0,261.0,254.0,253.0,252.0,258.0,253.0,249.0,252.0,252.0,258.0,253.0,251.0,249.0,253.0,256.0,256.0,250.0,252.0,255.0,257.0,251.0,245.0,254.0,259.0,259.0,254.0,246.0,254.0,256.0,257.0,254.0,246.0,253.0,258.0,257.0,252.0,247.0,250.0,257.0,256.0,254.0,249.0,254.0,260.0,257.0,257.0,249.0,253.0,257.0,257.0,253.0,247.0,254.0,257.0,254.0,252.0,249.0,259.0,259.0,255.0,255.0,253.0,259.0,260.0,255.0,255.0,249.0,258.0,258.0,253.0,253.0,253.0,259.0,255.0,248.0,253.0,256.0,259.0,254.0,252.0,253.0,256.0,261.0,260.0,251.0,253.0,260.0,260.0,257.0,250.0,253.0,256.0,259.0,254.0,245.0,250.0,253.0,256.0,252.0,244.0,249.0,253.0,255.0,251.0,242.0,249.0,255.0,252.0,251.0,245.0,252.0,256.0,252.0,252.0,243.0,253.0,256.0,254.0,251.0,242.0,254.0,258.0,252.0,251.0,249.0,257.0,257.0,251.0,253.0,252.0,257.0,259.0,251.0,253.0,248.0,257.0,256.0,248.0,250.0,245.0,256.0,256.0,248.0,251.0,247.0,255.0,253.0,250.0,251.0,250.0,256.0,256.0,249.0,249.0,251.0,254.0,252.0,245.0,249.0,256.0,256.0,253.0,244.0,251.0,254.0,257.0,254.0,247.0,252.0,256.0,256.0,255.0,245.0,255.0,258.0,252.0,252.0,244.0,253.0,259.0,251.0,252.0,243.0,253.0,257.0,253.0,253.0,243.0,255.0,257.0,252.0,251.0,244.0,256.0,258.0,253.0,253.0,247.0,253.0,259.0,252.0,254.0,246.0,256.0,259.0,254.0,254.0,250.0,258.0,255.0,248.0,253.0,251.0,257.0,253.0,249.0,250.0,249.0,254.0,255.0,246.0,248.0,252.0,255.0,254.0,244.0,249.0,256.0,254.0,251.0,243.0,250.0,253.0,254.0,251.0,243.0,249.0,255.0,253.0,252.0,244.0,249.0,255.0,252.0,250.0,242.0,248.0,255.0,252.0,251.0,244.0,247.0,254.0,252.0,249.0,239.0,248.0,253.0,247.0,248.0,242.0,252.0,253.0,248.0,247.0,244.0,251.0,254.0,247.0,249.0,241.0,253.0,256.0,249.0,250.0,251.0,254.0,252.0,245.0,249.0,250.0,253.0,253.0,246.0,249.0,251.0,255.0,255.0,247.0,248.0,252.0,255.0,254.0,246.0,248.0,254.0,256.0,253.0,246.0,249.0,250.0,257.0,253.0,245.0,249.0,251.0,256.0,253.0,246.0,251.0,256.0,254.0,253.0,246.0,253.0,258.0,254.0,254.0,246.0,254.0,259.0,256.0,254.0,245.0,253.0,258.0,251.0,252.0,249.0,257.0,257.0,250.0,251.0,251.0,256.0,257.0,250.0,252.0,245.0,257.0,259.0,251.0,252.0,247.0,259.0,257.0,250.0,252.0,248.0,258.0,255.0,251.0,252.0,250.0,258.0,258.0,250.0,251.0,248.0,257.0,252.0,245.0,249.0,255.0,256.0,254.0,245.0,251.0,253.0,258.0,255.0,247.0,253.0,255.0,258.0,254.0,246.0,253.0,260.0,254.0,254.0,246.0,254.0,258.0,253.0,254.0,244.0,254.0,259.0,257.0,254.0,247.0,256.0,260.0,256.0,254.0,246.0,258.0,258.0,253.0,252.0,246.0,254.0,259.0,256.0,252.0,245.0,254.0,258.0,253.0,254.0,248.0,257.0,258.0,251.0,253.0,252.0,260.0,258.0,253.0,254.0,252.0,260.0,260.0,250.0,251.0,252.0,257.0,254.0,247.0,252.0,258.0,258.0,254.0,246.0,252.0,255.0,257.0,255.0,247.0,252.0,256.0,259.0,254.0,249.0,251.0,258.0,257.0,255.0,248.0,252.0,259.0,257.0,256.0,248.0,254.0,260.0,258.0,255.0,247.0,253.0,259.0,256.0,255.0,249.0,258.0,261.0,256.0,255.0,249.0,256.0,259.0,253.0,253.0,245.0,254.0,256.0,251.0,251.0,249.0,258.0,257.0,249.0,252.0,251.0,258.0,254.0,251.0,250.0,251.0,255.0,256.0,248.0,249.0,252.0,257.0,256.0,248.0,249.0,253.0,256.0,252.0,246.0,248.0,249.0,254.0,252.0,244.0,247.0,247.0,254.0,249.0,243.0,246.0,252.0,250.0,248.0,244.0,248.0,256.0,252.0,252.0,244.0,250.0,255.0,253.0,250.0,242.0,250.0,255.0,248.0,248.0,245.0,255.0,256.0,250.0
