220.0,221.0,220.0,220.0,211.0,216.0,220.0,219.0,217.0,210.0,216.0,222.0,216.0,217.0,211.0,220.0,224.0,216.0,219.0,211.0,221.0,223.0,220.0,220.0,214.0,223.0,224.0,220.0,220.0,217.0,224.0,226.0,221.0,221.0,218.0,225.0,227.0,221.0,222.0,215.0,224.0,228.0,222.0,222.0,223.0,227.0,227.0,219.0,223.0,224.0,227.0,225.0,220.0,221.0,225.0,226.0,228.0,220.0,222.0,224.0,225.0,224.0,215.0,222.0,227.0,224.0,223.0,216.0,222.0,225.0,224.0,223.0,215.0,221.0,227.0,223.0,223.0,217.0,221.0,227.0,224.0,224.0,218.0,222.0,227.0,221.0,225.0,216.0,222.0,228.0,224.0,224.0,216.0,224.0,228.0,222.0,223.0,221.0,227.0,228.0,220.0,221.0,222.0,227.0,231.0,224.0,225.0,220.0,231.0,233.0,225.0,224.0,225.0,227.0,226.0,224.0,229.0,230.0,235.0,231.0,231.0,232.0,237.0,238.0,238.0,240.0,240.0,239.0,247.0,246.0,231.0,230.0,237.0,240.0,237.0,234.0,236.0,236.0,237.0,235.0,243.0,249.0,250.0,249.0,245.0,240.0,233.0,239.0,240.0,241.0,237.0,251.0,251.0,251.0,256.0,245.0,251.0,253.0,245.0,245.0,231.0,247.0,249.0,244.0,244.0,244.0,249.0,253.0,244.0,248.0,242.0,245.0,251.0,248.0,252.0,247.0,256.0,254.0,243.0,249.0,244.0,248.0,244.0,234.0,238.0,237.0,246.0,253.0,247.0,246.0,239.0,244.0,247.0,239.0,241.0,234.0,231.0,244.0,238.0,241.0,252.0,247.0,250.0,243.0,252.0,256.0,258.0,256.0,250.0,251.0,269.0,258.0,253.0,241.0,252.0,259.0,258.0,260.0,247.0,251.0,253.0,250.0,250.0,242.0,254.0,261.0,256.0,256.0,249.0,258.0,261.0,257.0,259.0,253.0,260.0,256.0,246.0,241.0,233.0,241.0,243.0,232.0,242.0,231.0,238.0,248.0,239.0,243.0,250.0,260.0,259.0,245.0,245.0,252.0,249.0,251.0,239.0,240.0,242.0,245.0,243.0,230.0,223.0,230.0,237.0,245.0,238.0,248.0,250.0,246.0,250.0,249.0,253.0,250.0,243.0,242.0,231.0,231.0,235.0,232.0,235.0,229.0,240.0,243.0,237.0,234.0,226.0,230.0,243.0,245.0,250.0,249.0,260.0,264.0,257.0,250.0,237.0,235.0,239.0,231.0,233.0,230.0,242.0,243.0,236.0,237.0,230.0,236.0,243.0,244.0,245.0,238.0,245.0,257.0,250.0,251.0,256.0,250.0,248.0,245.0,254.0,249.0,247.0,255.0,246.0,242.0,246.0,246.0,248.0,239.0,244.0,250.0,249.0,251.0,243.0,238.0,239.0,232.0,235.0,230.0,233.0,237.0,239.0,242.0,230.0,233.0,239.0,243.0,241.0,230.0,238.0,245.0,236.0,242.0,231.0,240.0,248.0,239.0,243.0,230.0,240.0,247.0,243.0,243.0,232.0,241.0,246.0,236.0,238.0,237.0,244.0,247.0,238.0,241.0,240.0,240.0,244.0,234.0,230.0,226.0,235.0,239.0,228.0,235.0,229.0,236.0,239.0,229.0,232.0,229.0,234.0,235.0,231.0,233.0,231.0,233.0,236.0,226.0,228.0,228.0,232.0,232.0,223.0,227.0,233.0,232.0,236.0,225.0,229.0,231.0,232.0,231.0,221.0,228.0,230.0,230.0,229.0,221.0,229.0,235.0,226.0,227.0,220.0,227.0,232.0,225.0,228.0,219.0,227.0,231.0,225.0,225.0,218.0,226.0,229.0,224.0,225.0,221.0,229.0,230.0,224.0,224.0,219.0,224.0,228.0,223.0,223.0,217.0,227.0,231.0,223.0,224.0,222.0,227.0,226.0,219.0,222.0,221.0,227.0,224.0,219.0,221.0,221.0,223.0,226.0,218.0,220.0,222.0,225.0,224.0,216.0,221.0,226.0,225.0,223.0,216.0,221.0,226.0,224.0,224.0,216.0,221.0,226.0,224.0,223.0,219.0,223.0,227.0,225.0,224.0,217.0,220.0,227.0,222.0,224.0,216.0,223.0,227.0,225.0,224.0,216.0,222.0,228.0,223.0,221.0,217.0,225.0,227.0,220.0,221.0,216.0,221.0,226.0,219.0,221.0,215.0,224.0,227.0,219.0,220.0,220.0,224.0,225.0,215.0,220.0,221.0,224.0,224.0,219.0,220.0,222.0,226.0,229.0,218.0,221.0,225.0,225.0,226.0,217.0,220.0,225.0,226.0,226.0,217.0,221.0,223.0,226.0,226.0,218.0,222.0,224.0,226.0,225.0,216.0,223.0,227.0,223.0,222.0,215.0,220.0,226.0,220.0,222.0,214.0,221.0,227.0,223.0,223.0,214.0,223.0,227.0,221.0,223.0,221.0,226.0,227.0,219.0,222.0,220.0,224.0,227.0,217.0,221.0,215.0,223.0,226.0,219.0,221.0,221.0,228.0,230.0,220.0,225.0,220.0,226.0,228.0,221.0,223.0,221.0,227.0,228.0,220.0,219.0,219.0,223.0,225.0,215.0,218.0,224.0,223.0,223.0,215.0,219.0,222.0,223.0,223.0,214.0,220.0,224.0,224.0,224.0,217.0,223.0,229.0,225.0,223.0,216.0,223.0,227.0,222.0,223.0,216.0,223.0,227.0,224.0,223.0,216.0,225.0,227.0,222.0,221.0,215.0,224.0,227.0,222.0,224.0,217.0,223.0,228.0,221.0,223.0,214.0,223.0,227.0,221.0,221.0,219.0,225.0,225.0,217.0,221.0,220.0,225.0,226.0,218.0,221.0,221.0,224.0,227.0,218.0,221.0,222.0,224.0,225.0,215.0,221.0,226.0,224.0,225.0,215.0,221.0,225.0,224.0,224.0,215.0,221.0,225.0,223.0,224.0,216.0,220.0,230.0,225.0,226.0,218.0,223.0,228.0,223.0,226.0,215.0,221.0,228.0,223.0,224.0,215.0,221.0,228.0,222.0,224.0,218.0,225.0,228.0,222.0,223.0,221.0,224.0,230.0,222.0,223.0,216.0,224.0,229.0,221.0,222.0,222.0,224.0,225.0,216.0,220.0,221.0,224.0,223.0,217.0,221.0,222.0,224.0,226.0,218.0,220.0,224.0,225.0,226.0,217.0,220.0,225.0,225.0,224.0,214.0,218.0,219.0,223.0,223.0,215.0,220.0,221.0,224.0,223.0,215.0,220.0,226.0,221.0,224.0,216.0,221.0,227.0,223.0,224.0,216.0,223.0,227.0,224.0,223.0,215.0,224.0,228.0,221.0,224.0,221.0,229.0,230.0,222.0,223.0,222.0,228.0,230.0,222.0,222.0,217.0,227.0,229.0,223.0,227.0,221.0,230.0,231.0,223.0,225.0,222.0,229.0,229.0,223.0,223.0,221.0,228.0,229.0,223.0,226.0,223.0,229.0,227.0,220.0,222.0,227.0,227.0,226.0,218.0,223.0,224.0,226.0,224.0,217.0,221.0,224.0,227.0,224.0,217.0,223.0,228.0,223.0,224.0,217.0,225.0,228.0,224.0,228.0,220.0,228.0,230.0,225.0,225.0,217.0,227.0,228.0,224.0,224.0,217.0,222.0,225.0,221.0,222.0,216.0,222.0,227.0,222.0,222.0,216.0,224.0,228.0,224.0,226.0,223.0,230.0,230.0,221.0,225.0,223.0,228.0,228.0,223.0,223.0,223.0,227.0,228.0,221.0,223.0,224.0,227.0,226.0,219.0,224.0,229.0,228.0,227.0,219.0,224.0,226.0,227.0,226.0,217.0,222.0,226.0,226.0,225.0,219.0,222.0,228.0,228.0,226.0,220.0,224.0,230.0,226.0,226.0,219.0,223.0,229.0,229.0,226.0,219.0,225.0,229.0,225.0,225.0,220.0,230.0,231.0,226.0,226.0,221.0,227.0,229.0,224.0,223.0,218.0,225.0,230.0,223.0,224.0,223.0,229.0,228.0,220.0,224.0,224.0,228.0,226.0,221.0,222.0,225.0,225.0,226.0,220.0,222.0,225.0,228.0,227.0,219.0,220.0,225.0,226.0,227.0,219.0,221.0,222.0,226.0,225.0,218.0,222.0,224.0,226.0,225.0,217.0,222.0,228.0,225.0,223.0,216.0,222.0,227.0,223.0,224.0,216.0,223.0,227.0,225.0,223.0,216.0,224.0,226.0,221.0,221.0,219.0,225.0,226.0,220.0,221.0,219.0,223.0,225.0,220.0,220.0,215.0,223.0,225.0,218.0,220.0,216.0,224.0,225.0,217.0
32.0,32.0,32.0,32.0,33.0,32.0,33.0,32.0,32.0,32.0,32.0,32.0,33.0,32.0,32.0,32.0,31.0,32.0,32.0,33.0,32.0,33.0,32.0,32.0,33.0,33.0,32.0,32.0,33.0,31.0,33.0,32.0,33.0,32.0,32.0,33.0,32.0,32.0,33.0,32.0,32.0,33.0,32.0,33.0,33.0,33.0,33.0,32.0,33.0,33.0,33.0,34.0,32.0,34.0,33.0,33.0,33.0,33.0,33.0,33.0,32.0,33.0,32.0,32.0,33.0,32.0,32.0,31.0,32.0,32.0,33.0,32.0,31.0,31.0,31.0,31.0,32.0,31.0,30.0,32.0,31.0,31.0,31.0,33.0,32.0,31.0,31.0,31.0,31.0,32.0,31.0,31.0,31.0,31.0,32.0,31.0,32.0,31.0,31.0,32.0,31.0,31.0,32.0,32.0,32.0,31.0,31.0,32.0,32.0,33.0,32.0,32.0,32.0,32.0,32.0,33.0,32.0,32.0,32.0,32.0,32.0,32.0,32.0,32.0,32.0,32.0,32.0,32.0,32.0,32.0,32.0,31.0,32.0,31.0,33.0,32.0,32.0,32.0,31.0,33.0,33.0,33.0,32.0,32.0,32.0,32.0,32.0,34.0,32.0,33.0,33.0,33.0,33.0,33.0,33.0,33.0,33.0,33.0,33.0,33.0,34.0,32.0,33.0,33.0,34.0,33.0,35.0,34.0,33.0,33.0,33.0,34.0,34.0,34.0,32.0,33.0,33.0,34.0,33.0,34.0,32.0,33.0,33.0,33.0,34.0,33.0,33.0,33.0,33.0,33.0,33.0,33.0,34.0,32.0,33.0,33.0,32.0,32.0,34.0,32.0,33.0,33.0,33.0,33.0,33.0,33.0,32.0,33.0,32.0,32.0,32.0,33.0,32.0,32.0,33.0,33.0,32.0,33.0,32.0,32.0,32.0,32.0,33.0,32.0,33.0,32.0,32.0,33.0,33.0,32.0,33.0,32.0,32.0,33.0,33.0,32.0,33.0,33.0,32.0,31.0,33.0,32.0,32.0,32.0,32.0,33.0,33.0,33.0,32.0,33.0,33.0,32.0,32.0,33.0,33.0,32.0,34.0,32.0,33.0,32.0,33.0,32.0,32.0,33.0,32.0,33.0,32.0,33.0,32.0,33.0,32.0,32.0,32.0,33.0,32.0,34.0,32.0,32.0,32.0,31.0,33.0,31.0,33.0,32.0,32.0,33.0,32.0,32.0,33.0,32.0,32.0,32.0,31.0,33.0,32.0,32.0,32.0,32.0,32.0,32.0,32.0,33.0,32.0,33.0,31.0,31.0,32.0,31.0,32.0,32.0,33.0,31.0,32.0,33.0,32.0,32.0,32.0,32.0,32.0,31.0,32.0,32.0,32.0,33.0,33.0,32.0,33.0,32.0,34.0,32.0,31.0,32.0,31.0,33.0,32.0,32.0,32.0,31.0,33.0,33.0,32.0,32.0,32.0,33.0,32.0,31.0,32.0,31.0,32.0,31.0,32.0,32.0,32.0,32.0,32.0,32.0,33.0,32.0,33.0,32.0,32.0,32.0,31.0,32.0,32.0,33.0,32.0,32.0,31.0,32.0,32.0,33.0,31.0,32.0,32.0,31.0,32.0,31.0,33.0,32.0,32.0,32.0,32.0,32.0,33.0,32.0,32.0,32.0,31.0,32.0,32.0,33.0,32.0,32.0,33.0,33.0,32.0,33.0,32.0,32.0,33.0,32.0,32.0,33.0,32.0,32.0,33.0,32.0,33.0,32.0,33.0,32.0,32.0,33.0,32.0,32.0,34.0,32.0,33.0,32.0,31.0,32.0,32.0,32.0,33.0,32.0,32.0,32.0,32.0,32.0,31.0,32.0,32.0,31.0,32.0,32.0,32.0,31.0,31.0,32.0,31.0,31.0,31.0,31.0,31.0,31.0,31.0,31.0,31.0,31.0,30.0,31.0,31.0,31.0,31.0,31.0,31.0,31.0,30.0,31.0,29.0,31.0,30.0,31.0,31.0,31.0,31.0,32.0,31.0,30.0,31.0,31.0,31.0,31.0,32.0,30.0,31.0,31.0,31.0,31.0,32.0,31.0,31.0,31.0,31.0,31.0,32.0,32.0,31.0,32.0,31.0,32.0,32.0,33.0,32.0,32.0,32.0,32.0,32.0,32.0,32.0,32.0,33.0,31.0,33.0,32.0,33.0,32.0,32.0,31.0,32.0,32.0,33.0,32.0,32.0,32.0,33.0,33.0,33.0,33.0,32.0,32.0,32.0,32.0,32.0,33.0,32.0,33.0,32.0,33.0,32.0,33.0,33.0,32.0,33.0,33.0,32.0,33.0,33.0,32.0,32.0,32.0,33.0,32.0,33.0,32.0,32.0,33.0,31.0,33.0,32.0,33.0,32.0,32.0,32.0,33.0,32.0,33.0,32.0,32.0,32.0,31.0,32.0,32.0,32.0,32.0,32.0,31.0,32.0,32.0,33.0,30.0,32.0,31.0,31.0,32.0,32.0,32.0,32.0,32.0,31.0,31.0,32.0,31.0,30.0,32.0,31.0,31.0,31.0,32.0,32.0,31.0,31.0,31.0,31.0,32.0,31.0,31.0,31.0,31.0,32.0,31.0,31.0,30.0,31.0,31.0,31.0,31.0,32.0,30.0,31.0,31.0,31.0,31.0,32.0,32.0,30.0,31.0,31.0,31.0,31.0,32.0,30.0,31.0,30.0,31.0,31.0,32.0,32.0,31.0,32.0,30.0,31.0,32.0,31.0,30.0,30.0,31.0,31.0,31.0,32.0,30.0,30.0,31.0,30.0,30.0,31.0,31.0,30.0,31.0,31.0,31.0,29.0,32.0,30.0,31.0,31.0,31.0,31.0,31.0,31.0,30.0,31.0,31.0,31.0,31.0,33.0,32.0,32.0,31.0,31.0,32.0,32.0,31.0,31.0,31.0,31.0,32.0,32.0,32.0,32.0,32.0,31.0,32.0,31.0,32.0,32.0,31.0,32.0,32.0,32.0,32.0,32.0,32.0,32.0,31.0,32.0,31.0,33.0,32.0,32.0,32.0,32.0,32.0,33.0,32.0,32.0,32.0,31.0,32.0,32.0,32.0,32.0,32.0,33.0,32.0,32.0,33.0,32.0,32.0,32.0,33.0,32.0,34.0,33.0,32.0,33.0,31.0,33.0,32.0,33.0,32.0,33.0,32.0,34.0,33.0,33.0,32.0,33.0,33.0,33.0,33.0,33.0,33.0,34.0,34.0,34.0,32.0,33.0,33.0,32.0,33.0,33.0,33.0,33.0,34.0,34.0,32.0,33.0,33.0,34.0,33.0,35.0,34.0,34.0,33.0,34.0,33.0,34.0,34.0,32.0,33.0,33.0,34.0,34.0,34.0,34.0,34.0,33.0,34.0,33.0,35.0,34.0,33.0,33.0,33.0,33.0,33.0,33.0,34.0,33.0,34.0,33.0,33.0,34.0,33.0,34.0,34.0,33.0,33.0,33.0,34.0,34.0,34.0,34.0,33.0,34.0,33.0,32.0,33.0,32.0,34.0,32.0,34.0,33.0,32.0,32.0,33.0,32.0,33.0,32.0,32.0,33.0,32.0,33.0,32.0,33.0,32.0,32.0,32.0,31.0,32.0,33.0,32.0,32.0,32.0,31.0,32.0,32.0,32.0,32.0,31.0,32.0,32.0,32.0,33.0,32.0,32.0,32.0,31.0,32.0,32.0,33.0,32.0,32.0,31.0,32.0,32.0,33.0,32.0,32.0,32.0,33.0,32.0,32.0,32.0,32.0,33.0,31.0,32.0,32.0,33.0,32.0,32.0,33.0,32.0,33.0,33.0,32.0,32.0,32.0,31.0,33.0,32.0,32.0,32.0,32.0,33.0,32.0,32.0,34.0,32.0,33.0,32.0,33.0,33.0,34.0,33.0,32.0,33.0,33.0,33.0,33.0,33.0,32.0,33.0,33.0,33.0,33.0,33.0,32.0,32.0,32.0,33.0,33.0,33.0,33.0,32.0,32.0,32.0,32.0,32.0,33.0,32.0,32.0,32.0,32.0,32.0,33.0,32.0,32.0,32.0,31.0,32.0,32.0,33.0,32.0,32.0,32.0,32.0,33.0,32.0,32.0,32.0,32.0,31.0,31.0,32.0,32.0,32.0,32.0,31.0,31.0,32.0,32.0,32.0,31.0,32.0,31.0,32.0,32.0,32.0,31.0,32.0,31.0,33.0,32.0,33.0,31.0,31.0,32.0,31.0,32.0,33.0,31.0,32.0,32.0,31.0,32.0,31.0,32.0,32.0,32.0,32.0,31.0,31.0,33.0,32.0,32.0,31.0,31.0,31.0,32.0,32.0,30.0,31.0,31.0,31.0,32.0,32.0
2.0,4.0,4.0,5.0,4.0,4.0,3.0,4.0,4.0,5.0,4.0,3.0,3.0,3.0,3.0,4.0,4.0,3.0,3.0,3.0,4.0,4.0,5.0,4.0,3.0,3.0,4.0,3.0,4.0,4.0,4.0,4.0,3.0,3.0,3.0,4.0,3.0,4.0,3.0,3.0,4.0,4.0,4.0,4.0,3.0,3.0,3.0,4.0,4.0,4.0,4.0,3.0,4.0,3.0,5.0,3.0,4.0,3.0,3.0,4.0,4.0,4.0,4.0,3.0,3.0,3.0,4.0,4.0,4.0,4.0,3.0,4.0,3.0,4.0,4.0,4.0,3.0,3.0,3.0,3.0,4.0,3.0,4.0,3.0,3.0,3.0,5.0,3.0,4.0,3.0,3.0,4.0,4.0,4.0,4.0,4.0,3.0,4.0,3.0,4.0,4.0,4.0,3.0,3.0,4.0,5.0,4.0,4.0,3.0,3.0,4.0,4.0,4.0,2.0,4.0,3.0,3.0,3.0,5.0,4.0,4.0,4.0,3.0,4.0,4.0,4.0,3.0,4.0,3.0,4.0,4.0,4.0,2.0,3.0,3.0,3.0,4.0,4.0,4.0,3.0,4.0,3.0,4.0,4.0,4.0,4.0,4.0,3.0,3.0,4.0,4.0,3.0,3.0,3.0,3.0,4.0,5.0,4.0,3.0,4.0,3.0,3.0,4.0,5.0,4.0,4.0,3.0,4.0,3.0,5.0,4.0,4.0,3.0,3.0,3.0,4.0,4.0,2.0,3.0,2.0,4.0,4.0,5.0,2.0,4.0,3.0,3.0,4.0,3.0,4.0,3.0,4.0,3.0,4.0,4.0,5.0,3.0,4.0,3.0,3.0,4.0,4.0,4.0,4.0,3.0,3.0,4.0,3.0,4.0,4.0,3.0,3.0,3.0,4.0,5.0,3.0,4.0,3.0,3.0,4.0,4.0,4.0,3.0,3.0,3.0,4.0,4.0,5.0,3.0,4.0,3.0,3.0,4.0,4.0,3.0,4.0,4.0,3.0,4.0,4.0,4.0,3.0,4.0,4.0,4.0,3.0,4.0,2.0,3.0,3.0,3.0,3.0,3.0,4.0,4.0,4.0,3.0,4.0,4.0,5.0,3.0,3.0,4.0,3.0,3.0,4.0,4.0,3.0,4.0,3.0,4.0,3.0,4.0,4.0,4.0,3.0,4.0,4.0,4.0,4.0,3.0,3.0,3.0,4.0,4.0,4.0,4.0,3.0,3.0,4.0,4.0,4.0,4.0,4.0,3.0,3.0,4.0,4.0,4.0,3.0,4.0,3.0,4.0,3.0,5.0,4.0,4.0,4.0,3.0,5.0,4.0,4.0,3.0,3.0,3.0,4.0,4.0,4.0,4.0,4.0,4.0,4.0,4.0,5.0,3.0,4.0,4.0,4.0,4.0,4.0,4.0,4.0,3.0,3.0,4.0,3.0,4.0,3.0,3.0,3.0,4.0,3.0,4.0,4.0,4.0,4.0,3.0,4.0,4.0,4.0,2.0,4.0,3.0,3.0,3.0,4.0,4.0,4.0,3.0,3.0,4.0,4.0,4.0,4.0,4.0,3.0,3.0,3.0,4.0,2.0,3.0,3.0,3.0,4.0,5.0,4.0,4.0,4.0,3.0,4.0,4.0,5.0,4.0,5.0,3.0,3.0,3.0,4.0,4.0,4.0,4.0,3.0,3.0,4.0,4.0,3.0,4.0,3.0,3.0,4.0,4.0,2.0,4.0,3.0,4.0,3.0,4.0,4.0,4.0,4.0,3.0,4.0,4.0,4.0,4.0,3.0,3.0,3.0,3.0,4.0,3.0,4.0,3.0,3.0,3.0,4.0,3.0,4.0,4.0,3.0,4.0,3.0,5.0,3.0,4.0,3.0,3.0,4.0,4.0,4.0,4.0,4.0,3.0,4.0,4.0,5.0,3.0,5.0,3.0,4.0,3.0,4.0,3.0,3.0,3.0,3.0,4.0,4.0,4.0,4.0,4.0,3.0,4.0,3.0,5.0,4.0,4.0,3.0,3.0,3.0,4.0,3.0,4.0,3.0,3.0,4.0,3.0,4.0,4.0,4.0,3.0,3.0,3.0,5.0,4.0,5.0,4.0,3.0,4.0,3.0,4.0,2.0,4.0,3.0,4.0,3.0,5.0,4.0,4.0,4.0,3.0,4.0,4.0,4.0,3.0,4.0,3.0,4.0,4.0,4.0,4.0,3.0,3.0,4.0,4.0,5.0,4.0,3.0,4.0,3.0,4.0,4.0,4.0,4.0,4.0,3.0,4.0,3.0,5.0,2.0,4.0,3.0,3.0,4.0,4.0,4.0,4.0,4.0,3.0,4.0,4.0,4.0,2.0,4.0,3.0,3.0,3.0,4.0,4.0,3.0,4.0,3.0,4.0,4.0,4.0,4.0,4.0,3.0,3.0,3.0,4.0,4.0,4.0,4.0,3.0,3.0,4.0,3.0,4.0,4.0,3.0,4.0,3.0,4.0,4.0,3.0,3.0,3.0,3.0,5.0,4.0,4.0,3.0,3.0,4.0,4.0,4.0,4.0,4.0,3.0,3.0,4.0,4.0,3.0,3.0,3.0,3.0,3.0,4.0,4.0,4.0,4.0,3.0,4.0,4.0,5.0,3.0,4.0,3.0,3.0,4.0,5.0,2.0,4.0,3.0,3.0,4.0,4.0,3.0,3.0,4.0,3.0,4.0,4.0,5.0,2.0,3.0,4.0,3.0,4.0,4.0,4.0,3.0,4.0,3.0,4.0,3.0,4.0,3.0,4.0,3.0,4.0,3.0,4.0,4.0,3.0,4.0,3.0,4.0,4.0,4.0,4.0,4.0,3.0,4.0,3.0,5.0,4.0,3.0,3.0,3.0,4.0,4.0,4.0,4.0,4.0,3.0,4.0,3.0,4.0,3.0,4.0,3.0,3.0,4.0,5.0,4.0,3.0,4.0,3.0,4.0,3.0,5.0,4.0,3.0,3.0,4.0,3.0,5.0,4.0,4.0,4.0,3.0,4.0,3.0,4.0,4.0,4.0,3.0,4.0,4.0,3.0,3.0,4.0,3.0,3.0,3.0,4.0,4.0,3.0,3.0,4.0,3.0,3.0,4.0,4.0,4.0,3.0,4.0,4.0,4.0,4.0,4.0,3.0,3.0,4.0,4.0,4.0,3.0,4.0,3.0,4.0,3.0,5.0,4.0,4.0,3.0,3.0,4.0,4.0,4.0,4.0,4.0,3.0,4.0,3.0,5.0,4.0,3.0,4.0,4.0,4.0,4.0,3.0,4.0,4.0,3.0,4.0,4.0,4.0,3.0,4.0,3.0,4.0,3.0,4.0,3.0,3.0,3.0,3.0,4.0,4.0,4.0,4.0,3.0,3.0,3.0,3.0,4.0,2.0,4.0,3.0,4.0,3.0,4.0,3.0,4.0,4.0,3.0,3.0,4.0,4.0,3.0,3.0,3.0,4.0,3.0,4.0,4.0,4.0,3.0,3.0,4.0,4.0,4.0,3.0,3.0,3.0,4.0,4.0,4.0,2.0,3.0,3.0,4.0,3.0,5.0,4.0,4.0,4.0,3.0,4.0,3.0,4.0,2.0,4.0,3.0,3.0,3.0,4.0,4.0,4.0,3.0,3.0,4.0,4.0,3.0,3.0,4.0,3.0,4.0,4.0,3.0,3.0,3.0,3.0,4.0,4.0,5.0,4.0,3.0,3.0,3.0,4.0,4.0,5.0,2.0,3.0,3.0,3.0,4.0,5.0,2.0,4.0,4.0,3.0,4.0,4.0,4.0,3.0,4.0,3.0,3.0,3.0,4.0,4.0,3.0,3.0,3.0,3.0,5.0,4.0,4.0,4.0,3.0,4.0,4.0,4.0,3.0,4.0,3.0,4.0,3.0,4.0,4.0,3.0,3.0,3.0,4.0,4.0,4.0,2.0,4.0,3.0,3.0,4.0,4.0,3.0,3.0,3.0,3.0,3.0,4.0,4.0,4.0,3.0,3.0,4.0,4.0,5.0,3.0,4.0,3.0,4.0,3.0,5.0,4.0,3.0,3.0,3.0,3.0,4.0,4.0,4.0,4.0,3.0,4.0,4.0,4.0,3.0,4.0,3.0,4.0,3.0,4.0,4.0,4.0,4.0,3.0,4.0,3.0,5.0,3.0,4.0,3.0,3.0,3.0,5.0,4.0,3.0,4.0,3.0,4.0,4.0,4.0,3.0,3.0,3.0,3.0,4.0,5.0,2.0,4.0,3.0,4.0,4.0,5.0,4.0,3.0,4.0,3.0,4.0,4.0,5.0,4.0,4.0,3.0,4.0,3.0,5.0,2.0,4.0,3.0,4.0,4.0,3.0,4.0,4.0,4.0,3.0
245.0,247.0,246.0,243.0,236.0,241.0,247.0,244.0,241.0,232.0,245.0,248.0,242.0,243.0,238.0,247.0,250.0,243.0,245.0,239.0,248.0,251.0,247.0,246.0,241.0,252.0,251.0,246.0,246.0,245.0,255.0,255.0,248.0,249.0,247.0,254.0,256.0,248.0,249.0,242.0,252.0,254.0,247.0,248.0,252.0,256.0,254.0,246.0,250.0,252.0,255.0,253.0,247.0,251.0,255.0,257.0,255.0,250.0,252.0,256.0,257.0,252.0,242.0,252.0,256.0,254.0,253.0,244.0,253.0,255.0,254.0,252.0,244.0,251.0,257.0,254.0,253.0,246.0,254.0,259.0,260.0,261.0,251.0,260.0,264.0,258.0,257.0,248.0,256.0,262.0,257.0,256.0,247.0,257.0,259.0,251.0,251.0,251.0,258.0,258.0,252.0,252.0,254.0,260.0,264.0,254.0,255.0,253.0,265.0,262.0,256.0,258.0,259.0,259.0,257.0,253.0,257.0,265.0,261.0,255.0,251.0,254.0,260.0,259.0,260.0,264.0,267.0,268.0,272.0,266.0,256.0,253.0,269.0,265.0,266.0,272.0,281.0,278.0,283.0,281.0,282.0,288.0,293.0,287.0,279.0,284.0,272.0,271.0,281.0,284.0,274.0,286.0,279.0,275.0,276.0,255.0,260.0,252.0,245.0,254.0,242.0,268.0,281.0,278.0,277.0,273.0,283.0,288.0,275.0,289.0,283.0,286.0,286.0,282.0,292.0,290.0,311.0,319.0,300.0,310.0,306.0,303.0,285.0,264.0,256.0,269.0,270.0,279.0,291.0,286.0,273.0,284.0,296.0,292.0,308.0,297.0,297.0,326.0,331.0,326.0,358.0,341.0,338.0,335.0,329.0,336.0,326.0,320.0,309.0,304.0,323.0,306.0,314.0,303.0,342.0,353.0,356.0,353.0,330.0,323.0,326.0,315.0,317.0,320.0,324.0,363.0,364.0,362.0,353.0,353.0,365.0,365.0,385.0,371.0,377.0,377.0,367.0,348.0,317.0,311.0,310.0,305.0,320.0,297.0,300.0,279.0,258.0,275.0,305.0,310.0,312.0,296.0,311.0,327.0,341.0,335.0,324.0,316.0,335.0,327.0,314.0,289.0,276.0,280.0,278.0,286.0,277.0,305.0,305.0,294.0,295.0,332.0,356.0,347.0,320.0,320.0,296.0,286.0,282.0,279.0,273.0,269.0,284.0,304.0,305.0,283.0,271.0,294.0,323.0,334.0,331.0,336.0,358.0,366.0,339.0,336.0,323.0,311.0,310.0,308.0,324.0,328.0,324.0,318.0,295.0,295.0,278.0,292.0,307.0,322.0,319.0,324.0,325.0,376.0,359.0,351.0,344.0,349.0,348.0,346.0,352.0,343.0,318.0,318.0,312.0,296.0,335.0,338.0,325.0,304.0,321.0,324.0,313.0,304.0,303.0,288.0,278.0,264.0,263.0,260.0,251.0,272.0,279.0,279.0,260.0,271.0,272.0,285.0,295.0,284.0,293.0,284.0,278.0,280.0,269.0,274.0,281.0,273.0,267.0,255.0,266.0,271.0,270.0,266.0,285.0,298.0,298.0,285.0,285.0,304.0,310.0,307.0,298.0,297.0,295.0,297.0,303.0,288.0,284.0,278.0,281.0,276.0,266.0,269.0,266.0,273.0,270.0,264.0,268.0,269.0,275.0,264.0,264.0,260.0,262.0,269.0,267.0,263.0,264.0,269.0,275.0,268.0,261.0,265.0,270.0,269.0,266.0,258.0,265.0,266.0,266.0,261.0,254.0,260.0,264.0,264.0,259.0,248.0,260.0,261.0,255.0,253.0,247.0,257.0,258.0,254.0,255.0,249.0,259.0,262.0,259.0,256.0,250.0,261.0,261.0,259.0,256.0,252.0,262.0,260.0,254.0,253.0,251.0,259.0,261.0,255.0,253.0,245.0,258.0,258.0,252.0,251.0,250.0,256.0,254.0,245.0,250.0,251.0,254.0,251.0,247.0,250.0,254.0,257.0,256.0,251.0,252.0,256.0,256.0,253.0,245.0,251.0,257.0,256.0,254.0,244.0,254.0,256.0,255.0,252.0,246.0,250.0,255.0,254.0,252.0,246.0,250.0,257.0,254.0,253.0,246.0,253.0,257.0,253.0,253.0,243.0,250.0,255.0,254.0,253.0,242.0,252.0,257.0,250.0,252.0,250.0,257.0,256.0,250.0,250.0,248.0,253.0,257.0,248.0,250.0,245.0,255.0,256.0,248.0,250.0,253.0,255.0,251.0,243.0,248.0,254.0,255.0,252.0,245.0,248.0,252.0,254.0,255.0,246.0,249.0,255.0,256.0,253.0,246.0,249.0,254.0,255.0,251.0,244.0,250.0,252.0,255.0,252.0,244.0,248.0,253.0,255.0,250.0,242.0,251.0,256.0,252.0,252.0,243.0,253.0,256.0,251.0,252.0,244.0,253.0,258.0,255.0,253.0,245.0,256.0,258.0,250.0,252.0,250.0,257.0,257.0,250.0,251.0,252.0,256.0,256.0,250.0,253.0,248.0,257.0,256.0,248.0,251.0,248.0,256.0,253.0,246.0,249.0,248.0,254.0,253.0,248.0,249.0,250.0,255.0,255.0,248.0,251.0,251.0,254.0,252.0,243.0,249.0,258.0,256.0,253.0,244.0,252.0,254.0,256.0,253.0,244.0,250.0,256.0,254.0,251.0,243.0,251.0,256.0,249.0,251.0,243.0,253.0,257.0,250.0,251.0,243.0,253.0,257.0,252.0,250.0,243.0,255.0,256.0,251.0,250.0,243.0,255.0,257.0,251.0,251.0,247.0,253.0,256.0,249.0,248.0,240.0,250.0,255.0,246.0,247.0,247.0,253.0,252.0,244.0,248.0,249.0,254.0,251.0,247.0,249.0,253.0,256.0,257.0,249.0,252.0,254.0,256.0,253.0,243.0,250.0,255.0,252.0,251.0,242.0,251.0,255.0,254.0,251.0,242.0,250.0,254.0,252.0,251.0,244.0,250.0,258.0,253.0,251.0,243.0,250.0,257.0,252.0,252.0,241.0,250.0,256.0,252.0,249.0,242.0,250.0,255.0,248.0,248.0,245.0,255.0,255.0,249.0,250.0,249.0,252.0,254.0,248.0,249.0,243.0,255.0,255.0,247.0,251.0,251.0,255.0,253.0,245.0,250.0,254.0,255.0,252.0,246.0,248.0,252.0,253.0,255.0,244.0,246.0,252.0,253.0,250.0,242.0,247.0,253.0,254.0,251.0,242.0,246.0,250.0,253.0,250.0,241.0,248.0,252.0,252.0,251.0,242.0,250.0,255.0,251.0,251.0,243.0,252.0,257.0,251.0,252.0,244.0,254.0,256.0,254.0,252.0,243.0,255.0,257.0,251.0,251.0,250.0,257.0,257.0,248.0,250.0,250.0,257.0,255.0,248.0,249.0,247.0,257.0,255.0,247.0,250.0,247.0,256.0,253.0,245.0,249.0,248.0,256.0,253.0,249.0,250.0,250.0,258.0,257.0,250.0,250.0,254.0,258.0,255.0,247.0,251.0,256.0,257.0,252.0,244.0,251.0,253.0,255.0,253.0,245.0,250.0,255.0,255.0,252.0,244.0,254.0,257.0,252.0,251.0,244.0,256.0,260.0,252.0,253.0,246.0,257.0,257.0,254.0,252.0,244.0,257.0,257.0,252.0,251.0,246.0,254.0,257.0,251.0,251.0,248.0,254.0,257.0,250.0,250.0,243.0,255.0,258.0,251.0,252.0,250.0,256.0,253.0,245.0,251.0,251.0,257.0,253.0,249.0,251.0,253.0,257.0,256.0,249.0,251.0,255.0,256.0,254.0,246.0,253.0,258.0,255.0,252.0,245.0,253.0,256.0,256.0,251.0,243.0,249.0,255.0,253.0,250.0,244.0,249.0,254.0,253.0,250.0,244.0,251.0,257.0,255.0,254.0,247.0,253.0,257.0,255.0,252.0,243.0,254.0,256.0,252.0,252.0,249.0,257.0,260.0,252.0,253.0,251.0,257.0,258.0,252.0,253.0,246.0,256.0,257.0,251.0,251.0,253.0,256.0,252.0,243.0,247.0,250.0,254.0,250.0,246.0,250.0,253.0,254.0,253.0,246.0,249.0,253.0,255.0,253.0,244.0,247.0,252.0,254.0,252.0,243.0,246.0,248.0,252.0,249.0,240.0,245.0,250.0,251.0,249.0,240.0,248.0,254.0,249.0,249.0,242.0,250.0,254.0,250.0,250.0,241.0,251.0,255.0,251.0,248.0,240.0,251.0,252.0,246.0,245.0,245.0,253.0,251.0,245.0,245.0,247.0,250.0,250.0,243.0,244.0,240.0,251.0,250.0,241.0,245.0,243.0,251.0,249.0,242.0
