214.0,218.0,219.0,212.0,213.0,214.0,216.0,219.0,210.0,213.0,214.0,217.0,218.0,209.0,212.0,211.0,218.0,219.0,209.0,213.0,212.0,217.0,219.0,210.0,216.0,216.0,220.0,221.0,215.0,217.0,220.0,222.0,223.0,215.0,217.0,221.0,220.0,221.0,211.0,219.0,224.0,222.0,222.0,213.0,221.0,223.0,222.0,222.0,213.0,218.0,224.0,220.0,222.0,213.0,223.0,225.0,218.0,219.0,213.0,221.0,227.0,218.0,222.0,215.0,223.0,226.0,220.0,222.0,216.0,224.0,226.0,220.0,221.0,219.0,224.0,226.0,219.0,222.0,219.0,225.0,227.0,218.0,221.0,215.0,224.0,227.0,219.0,221.0,223.0,224.0,225.0,215.0,221.0,224.0,225.0,224.0,217.0,220.0,225.0,224.0,226.0,217.0,221.0,226.0,224.0,225.0,215.0,224.0,229.0,224.0,225.0,215.0,225.0,226.0,223.0,224.0,216.0,220.0,228.0,220.0,222.0,215.0,221.0,226.0,222.0,223.0,214.0,222.0,226.0,220.0,222.0,220.0,224.0,232.0,226.0,227.0,224.0,234.0,234.0,226.0,229.0,235.0,245.0,252.0,241.0,240.0,239.0,239.0,239.0,231.0,233.0,232.0,240.0,240.0,231.0,231.0,235.0,234.0,231.0,220.0,226.0,230.0,230.0,232.0,228.0,232.0,236.0,234.0,234.0,227.0,229.0,233.0,233.0,234.0,225.0,231.0,237.0,234.0,234.0,226.0,232.0,237.0,238.0,234.0,234.0,236.0,238.0,236.0,234.0,226.0,233.0,237.0,233.0,232.0,224.0,232.0,232.0,230.0,232.0,224.0,233.0,233.0,227.0,228.0,221.0,229.0,233.0,226.0,226.0,230.0,231.0,230.0,220.0,223.0,227.0,226.0,228.0,219.0,222.0,222.0,227.0,228.0,220.0,224.0,223.0,231.0,227.0,218.0,224.0,225.0,229.0,228.0,220.0,224.0,230.0,233.0,240.0,230.0,232.0,235.0,236.0,235.0,227.0,233.0,239.0,238.0,241.0,230.0,235.0,237.0,234.0,235.0,226.0,230.0,234.0,229.0,229.0,224.0,231.0,236.0,226.0,226.0,222.0,231.0,233.0,224.0,226.0,224.0,234.0,235.0,228.0,230.0,225.0,232.0,239.0,229.0,231.0,233.0,239.0,238.0,228.0,231.0,229.0,233.0,237.0,228.0,228.0,221.0,228.0,231.0,222.0,228.0,231.0,232.0,231.0,223.0,228.0,231.0,231.0,230.0,224.0,228.0,231.0,228.0,233.0,222.0,226.0,232.0,229.0,229.0,222.0,230.0,233.0,226.0,227.0,222.0,233.0,234.0,228.0,230.0,223.0,228.0,233.0,226.0,228.0,221.0,229.0,233.0,228.0,230.0,222.0,231.0,235.0,229.0,232.0,224.0,234.0,242.0,236.0,235.0,227.0,234.0,238.0,228.0,229.0,230.0,233.0,235.0,226.0,228.0,228.0,233.0,235.0,227.0,230.0,229.0,234.0,236.0,228.0,231.0,234.0,236.0,235.0,226.0,229.0,234.0,232.0,232.0,226.0,228.0,234.0,231.0,235.0,227.0,233.0,237.0,235.0,233.0,223.0,229.0,235.0,233.0,232.0,226.0,234.0,236.0,234.0,235.0,224.0,228.0,234.0,231.0,230.0,223.0,231.0,232.0,223.0,226.0,221.0,230.0,233.0,225.0,228.0,221.0,229.0,232.0,228.0,226.0,219.0,224.0,226.0,216.0,221.0,224.0,224.0,226.0,217.0,220.0,223.0,225.0,226.0,217.0,219.0,219.0,223.0,225.0,216.0,221.0,221.0,223.0,224.0,214.0,218.0,219.0,220.0,221.0,214.0,216.0,221.0,220.0,222.0,213.0,215.0,221.0,219.0,218.0,209.0,218.0,224.0,220.0,220.0,213.0,220.0,227.0,222.0,223.0,215.0,222.0,229.0,222.0,224.0,216.0,224.0,228.0,219.0,220.0,217.0,224.0,227.0,219.0,224.0,219.0,225.0,228.0,223.0,226.0,223.0,228.0,229.0,221.0,223.0,222.0,225.0,228.0,216.0,220.0,220.0,222.0,224.0,216.0,219.0,215.0,226.0,228.0,219.0,220.0,224.0,224.0,224.0,214.0,220.0,224.0,225.0,226.0,219.0,222.0,227.0,223.0,226.0,217.0,220.0,225.0,220.0,221.0,213.0,222.0,224.0,218.0,219.0,212.0,221.0,224.0,219.0,220.0,217.0,223.0,227.0,221.0,222.0,214.0,221.0,226.0,220.0,221.0,216.0,223.0,224.0,215.0,217.0,210.0,219.0,222.0,216.0,218.0,211.0,220.0,224.0,215.0,212.0,215.0,218.0,219.0,211.0,215.0,217.0,219.0,220.0,213.0,214.0,213.0,220.0,218.0,211.0,214.0,219.0,218.0,217.0,208.0,215.0,221.0,218.0,217.0,210.0,214.0,220.0,217.0,218.0,210.0,215.0,221.0,218.0,218.0,209.0,215.0,220.0,218.0,216.0,206.0,213.0,216.0,213.0,213.0,206.0,210.0,215.0,211.0,212.0,205.0,210.0,214.0,207.0,210.0,205.0,214.0,217.0,209.0,213.0,209.0,219.0,220.0,213.0,215.0,210.0,217.0,218.0,210.0,213.0,217.0,215.0,216.0,207.0,211.0,217.0,216.0,217.0,208.0,212.0,214.0,217.0,216.0,208.0,212.0,214.0,216.0,213.0,203.0,208.0,213.0,213.0,214.0,207.0,210.0,215.0,215.0,216.0,208.0,211.0,216.0,216.0,216.0,207.0,214.0,219.0,215.0,214.0,207.0,215.0,218.0,214.0,214.0,208.0,215.0,219.0,213.0,213.0,208.0,216.0,220.0,211.0,213.0,210.0,217.0,218.0,211.0,214.0,212.0,218.0,219.0,213.0,213.0,214.0,219.0,220.0,212.0,214.0,214.0,217.0,219.0,213.0,212.0,215.0,217.0,218.0,211.0,213.0,211.0,218.0,216.0,206.0,208.0,213.0,213.0,211.0,205.0,208.0,216.0,215.0,214.0,208.0,207.0,213.0,211.0,213.0,205.0,211.0,216.0,212.0,213.0,207.0,215.0,218.0,212.0,212.0,208.0,216.0,217.0,214.0,213.0,209.0,213.0,217.0,213.0,216.0,209.0,217.0,219.0,213.0,214.0,207.0,216.0,217.0,211.0,209.0,203.0,212.0,215.0,210.0,210.0,207.0,215.0,217.0,208.0,212.0,214.0,215.0,217.0,212.0,215.0,219.0,218.0,217.0,210.0,212.0,213.0,217.0,216.0,210.0,211.0,216.0,214.0,212.0,207.0,211.0,217.0,214.0,213.0,207.0,213.0,218.0,214.0,215.0,208.0,213.0,217.0,215.0,213.0,205.0,213.0,217.0,213.0,213.0,206.0,214.0,216.0,214.0,215.0,207.0,213.0,218.0,214.0,214.0,208.0,215.0,219.0,210.0,211.0,208.0,215.0,216.0,209.0,211.0,208.0,214.0,215.0,210.0,211.0,211.0,215.0,214.0,203.0,206.0,212.0,212.0,212.0,205.0,209.0,215.0,215.0,215.0,207.0,210.0,218.0,218.0,219.0,209.0,215.0,216.0,216.0,215.0,207.0,211.0,216.0,211.0,212.0,205.0,208.0,215.0,212.0,216.0,206.0,210.0,215.0,211.0,211.0,205.0,214.0,218.0,213.0,213.0,207.0,215.0,218.0,213.0,214.0,209.0,214.0,219.0,213.0,214.0,209.0,216.0,217.0,209.0,214.0,212.0,216.0,218.0,209.0,212.0,212.0,216.0,215.0,210.0,211.0,212.0,215.0,221.0,211.0,214.0,216.0,216.0,218.0,209.0,213.0,215.0,216.0,217.0,210.0,213.0,213.0,216.0,217.0,208.0,210.0,216.0,213.0,214.0,206.0,210.0,217.0,215.0,217.0,210.0,214.0,220.0,215.0,216.0,208.0,214.0,218.0,213.0,213.0,207.0,215.0,217.0,212.0,210.0,205.0,213.0,215.0,209.0,211.0,208.0,212.0,215.0,208.0,210.0,205.0,214.0,216.0,209.0,211.0,207.0,215.0,219.0,210.0,212.0,208.0,216.0,217.0,212.0,210.0,207.0,214.0,215.0,206.0,209.0,214.0,212.0,215.0,206.0,209.0,215.0,216.0,215.0,210.0,214.0,217.0,218.0,219.0,209.0,212.0,218.0,213.0,213.0,207.0,213.0,218.0,213.0,213.0,207.0,212.0,218.0,211.0,213.0,204.0,211.0,216.0,213.0,213.0,204.0,212.0,217.0,212.0,212.0,203.0,210.0,214.0,209.0,210.0
29.0,28.0,29.0,27.0,29.0,28.0,29.0,29.0,29.0,29.0,29.0,29.0,30.0,29.0,30.0,30.0,29.0,30.0,29.0,31.0,31.0,31.0,31.0,32.0,33.0,37.0,34.0,37.0,39.0,39.0,41.0,41.0,41.0,40.0,39.0,39.0,38.0,38.0,42.0,38.0,47.0,50.0,51.0,55.0,53.0,56.0,58.0,57.0,63.0,58.0,56.0,52.0,48.0,46.0,43.0,48.0,53.0,52.0,57.0,54.0,59.0,58.0,55.0,62.0,61.0,66.0,72.0,67.0,70.0,65.0,67.0,65.0,62.0,62.0,59.0,56.0,55.0,50.0,48.0,46.0,43.0,42.0,41.0,39.0,38.0,37.0,37.0,37.0,41.0,45.0,44.0,50.0,48.0,51.0,52.0,53.0,58.0,55.0,57.0,61.0,61.0,65.0,62.0,64.0,63.0,59.0,57.0,54.0,53.0,51.0,50.0,49.0,49.0,48.0,47.0,47.0,46.0,46.0,45.0,45.0,44.0,43.0,42.0,43.0,43.0,42.0,41.0,41.0,40.0,40.0,40.0,38.0,38.0,37.0,37.0,36.0,39.0,38.0,37.0,36.0,37.0,46.0,63.0,67.0,62.0,58.0,57.0,56.0,58.0,59.0,56.0,62.0,60.0,61.0,68.0,63.0,70.0,69.0,68.0,68.0,64.0,64.0,63.0,61.0,57.0,56.0,55.0,54.0,54.0,58.0,56.0,61.0,62.0,62.0,60.0,59.0,57.0,58.0,56.0,60.0,56.0,62.0,62.0,60.0,65.0,65.0,60.0,63.0,61.0,68.0,67.0,71.0,75.0,72.0,79.0,77.0,81.0,93.0,89.0,87.0,85.0,88.0,96.0,92.0,101.0,104.0,105.0,114.0,107.0,117.0,127.0,120.0,128.0,120.0,115.0,113.0,108.0,103.0,98.0,96.0,94.0,89.0,88.0,86.0,83.0,84.0,82.0,82.0,81.0,79.0,83.0,80.0,86.0,83.0,87.0,93.0,91.0,94.0,90.0,89.0,91.0,88.0,91.0,89.0,90.0,100.0,95.0,96.0,93.0,96.0,102.0,98.0,97.0,95.0,96.0,100.0,95.0,99.0,99.0,102.0,105.0,100.0,107.0,108.0,106.0,111.0,107.0,113.0,119.0,116.0,125.0,119.0,125.0,133.0,131.0,137.0,128.0,137.0,144.0,139.0,145.0,139.0,144.0,149.0,145.0,150.0,143.0,146.0,150.0,144.0,154.0,145.0,151.0,156.0,150.0,150.0,146.0,144.0,148.0,140.0,145.0,140.0,140.0,149.0,143.0,145.0,140.0,141.0,146.0,140.0,141.0,142.0,141.0,148.0,140.0,145.0,147.0,144.0,151.0,143.0,146.0,146.0,148.0,153.0,146.0,149.0,153.0,152.0,161.0,154.0,157.0,160.0,158.0,162.0,156.0,156.0,159.0,159.0,165.0,157.0,160.0,163.0,158.0,161.0,155.0,157.0,162.0,156.0,159.0,154.0,157.0,162.0,156.0,155.0,152.0,149.0,153.0,148.0,150.0,146.0,146.0,153.0,147.0,148.0,147.0,146.0,150.0,144.0,147.0,143.0,146.0,156.0,148.0,151.0,148.0,150.0,156.0,149.0,151.0,149.0,151.0,159.0,151.0,156.0,156.0,156.0,165.0,158.0,156.0,152.0,155.0,160.0,153.0,154.0,155.0,152.0,155.0,150.0,149.0,154.0,149.0,149.0,145.0,145.0,143.0,140.0,137.0,134.0,131.0,131.0,126.0,127.0,125.0,121.0,118.0,116.0,113.0,112.0,108.0,109.0,107.0,103.0,105.0,102.0,111.0,107.0,115.0,113.0,117.0,122.0,116.0,121.0,118.0,122.0,131.0,126.0,130.0,127.0,128.0,134.0,127.0,133.0,127.0,128.0,135.0,129.0,128.0,125.0,122.0,124.0,119.0,119.0,116.0,113.0,114.0,110.0,106.0,106.0,105.0,106.0,102.0,100.0,100.0,98.0,98.0,96.0,96.0,98.0,96.0,98.0,97.0,97.0,96.0,93.0,90.0,90.0,87.0,86.0,84.0,81.0,81.0,78.0,79.0,77.0,78.0,76.0,77.0,78.0,80.0,90.0,86.0,95.0,100.0,99.0,103.0,99.0,103.0,112.0,105.0,111.0,106.0,108.0,114.0,109.0,115.0,110.0,115.0,119.0,113.0,118.0,112.0,117.0,122.0,115.0,119.0,118.0,118.0,119.0,114.0,114.0,115.0,113.0,118.0,112.0,113.0,110.0,111.0,112.0,108.0,109.0,106.0,106.0,104.0,101.0,100.0,99.0,99.0,104.0,100.0,100.0,99.0,99.0,107.0,103.0,108.0,111.0,109.0,115.0,111.0,116.0,123.0,117.0,123.0,118.0,122.0,126.0,121.0,126.0,121.0,124.0,129.0,122.0,124.0,120.0,118.0,121.0,115.0,116.0,113.0,117.0,122.0,117.0,125.0,121.0,129.0,137.0,131.0,140.0,138.0,142.0,154.0,146.0,152.0,146.0,146.0,151.0,143.0,142.0,141.0,141.0,144.0,138.0,138.0,135.0,136.0,141.0,134.0,132.0,134.0,132.0,137.0,134.0,136.0,139.0,136.0,142.0,137.0,140.0,147.0,140.0,147.0,141.0,145.0,151.0,145.0,144.0,141.0,138.0,142.0,136.0,136.0,133.0,132.0,139.0,133.0,137.0,133.0,134.0,138.0,132.0,131.0,130.0,127.0,123.0,119.0,118.0,116.0,118.0,124.0,119.0,126.0,122.0,126.0,133.0,127.0,129.0,127.0,128.0,132.0,127.0,124.0,125.0,125.0,130.0,124.0,126.0,128.0,127.0,129.0,125.0,120.0,120.0,115.0,116.0,113.0,111.0,112.0,110.0,113.0,111.0,113.0,116.0,114.0,115.0,113.0,112.0,117.0,113.0,114.0,111.0,108.0,112.0,107.0,109.0,107.0,106.0,105.0,100.0,103.0,101.0,102.0,107.0,103.0,104.0,102.0,99.0,100.0,97.0,95.0,94.0,91.0,91.0,90.0,85.0,87.0,84.0,86.0,83.0,86.0,85.0,87.0,87.0,85.0,83.0,82.0,83.0,85.0,82.0,81.0,82.0,83.0,85.0,81.0,83.0,82.0,83.0,87.0,84.0,87.0,86.0,90.0,96.0,92.0,97.0,95.0,97.0,102.0,96.0,97.0,95.0,95.0,96.0,94.0,91.0,89.0,87.0,91.0,88.0,88.0,91.0,90.0,101.0,97.0,101.0,105.0,102.0,104.0,101.0,106.0,109.0,104.0,107.0,103.0,101.0,104.0,99.0,101.0,97.0,99.0,102.0,98.0,97.0,95.0,93.0,97.0,92.0,98.0,95.0,98.0,102.0,99.0,96.0,94.0,95.0,96.0,92.0,91.0,90.0,91.0,93.0,89.0,87.0,85.0,83.0,82.0,78.0,78.0,77.0,83.0,89.0,87.0,88.0,91.0,91.0,95.0,91.0,95.0,96.0,95.0,97.0,94.0,97.0,99.0,96.0,101.0,97.0,101.0,105.0,103.0,110.0,103.0,111.0,121.0,115.0,119.0,113.0,118.0,125.0,120.0,126.0,120.0,127.0,134.0,126.0,129.0,125.0,126.0,130.0,124.0,126.0,123.0,122.0,128.0,123.0,124.0,119.0,124.0,132.0,126.0,134.0,128.0,136.0,144.0,137.0,142.0,144.0,142.0,148.0,140.0,139.0,142.0,137.0,141.0,135.0,137.0,133.0,134.0,138.0,133.0,136.0,144.0,138.0,143.0,138.0,139.0,142.0,136.0,138.0,134.0,135.0,141.0,135.0,137.0,135.0,136.0,145.0,139.0,146.0,140.0,145.0,152.0,145.0,150.0,145.0,145.0,150.0,144.0,145.0,141.0,141.0,146.0,139.0,142.0,137.0,138.0,144.0,138.0,139.0,137.0,138.0,142.0,137.0,138.0,136.0,137.0,142.0,135.0,136.0,134.0,136.0,140.0,136.0,137.0,144.0,140.0,145.0,139.0,143.0,150.0,142.0,148.0,143.0,144.0,145.0,143.0,145.0,141.0,140.0,142.0,137.0,141.0,137.0,138.0,142.0,138.0,144.0,139.0,143.0,147.0,143.0,151.0,145.0,146.0,153.0,147.0,152.0,145.0,153.0,162.0,155.0,160.0,153.0,157.0,166.0,158.0,163.0,160.0,158.0,166.0,159.0,163.0,159.0,162.0,169.0,161.0,162.0,161.0,161.0,166.0,161.0,161.0,161.0,159.0,161.0,157.0,157.0,157.0,155.0,160.0,154.0,153.0,155.0,153.0,156.0,151.0,149.0,152.0,148.0,153.0,148.0
3.0,3.0,3.0,4.0,4.0,4.0,3.0,4.0,4.0,5.0,3.0,5.0,3.0,3.0,3.0,4.0,4.0,3.0,4.0,4.0,4.0,4.0,4.0,4.0,4.0,3.0,4.0,4.0,4.0,3.0,4.0,3.0,4.0,4.0,4.0,4.0,3.0,3.0,3.0,4.0,4.0,5.0,4.0,3.0,3.0,3.0,4.0,5.0,3.0,3.0,3.0,3.0,4.0,4.0,4.0,4.0,4.0,3.0,3.0,3.0,5.0,4.0,4.0,3.0,3.0,3.0,3.0,4.0,4.0,3.0,4.0,3.0,3.0,5.0,2.0,4.0,3.0,3.0,3.0,4.0,3.0,3.0,4.0,3.0,4.0,3.0,5.0,2.0,4.0,3.0,4.0,3.0,4.0,4.0,4.0,3.0,3.0,3.0,4.0,4.0,3.0,4.0,3.0,3.0,4.0,4.0,4.0,4.0,3.0,3.0,4.0,4.0,4.0,3.0,3.0,3.0,3.0,4.0,4.0,3.0,4.0,4.0,3.0,3.0,4.0,3.0,4.0,3.0,3.0,3.0,3.0,4.0,3.0,4.0,3.0,3.0,3.0,5.0,4.0,3.0,3.0,4.0,4.0,4.0,4.0,4.0,4.0,3.0,3.0,3.0,4.0,4.0,3.0,3.0,4.0,3.0,5.0,4.0,3.0,4.0,3.0,4.0,4.0,4.0,4.0,4.0,3.0,3.0,3.0,3.0,3.0,4.0,4.0,4.0,4.0,4.0,4.0,3.0,4.0,3.0,4.0,3.0,5.0,2.0,3.0,3.0,4.0,3.0,4.0,4.0,3.0,3.0,3.0,4.0,4.0,4.0,2.0,4.0,3.0,3.0,3.0,5.0,4.0,3.0,3.0,4.0,3.0,5.0,4.0,4.0,3.0,3.0,3.0,3.0,4.0,2.0,4.0,3.0,4.0,3.0,4.0,3.0,4.0,4.0,3.0,4.0,4.0,3.0,4.0,4.0,3.0,4.0,3.0,4.0,4.0,3.0,3.0,3.0,4.0,5.0,4.0,4.0,4.0,3.0,4.0,3.0,4.0,4.0,3.0,3.0,4.0,3.0,4.0,4.0,4.0,3.0,3.0,3.0,4.0,4.0,4.0,3.0,3.0,4.0,3.0,4.0,3.0,4.0,4.0,4.0,4.0,4.0,4.0,4.0,3.0,3.0,4.0,4.0,4.0,3.0,4.0,3.0,3.0,4.0,5.0,3.0,3.0,4.0,3.0,4.0,4.0,5.0,4.0,4.0,3.0,4.0,3.0,4.0,4.0,3.0,3.0,3.0,3.0,4.0,4.0,3.0,3.0,4.0,4.0,3.0,4.0,4.0,4.0,3.0,3.0,3.0,4.0,4.0,3.0,3.0,3.0,3.0,3.0,4.0,4.0,4.0,3.0,4.0,4.0,4.0,3.0,4.0,3.0,4.0,4.0,4.0,4.0,4.0,4.0,3.0,4.0,3.0,5.0,3.0,4.0,3.0,4.0,3.0,5.0,4.0,3.0,3.0,3.0,3.0,4.0,4.0,2.0,4.0,4.0,4.0,3.0,5.0,2.0,4.0,3.0,4.0,3.0,4.0,4.0,4.0,4.0,3.0,4.0,4.0,4.0,2.0,4.0,3.0,4.0,3.0,4.0,4.0,4.0,3.0,3.0,4.0,4.0,5.0,4.0,4.0,3.0,4.0,4.0,4.0,4.0,3.0,3.0,4.0,4.0,4.0,4.0,4.0,4.0,3.0,4.0,3.0,5.0,4.0,4.0,3.0,3.0,4.0,5.0,3.0,3.0,4.0,3.0,4.0,4.0,4.0,2.0,4.0,3.0,4.0,3.0,5.0,3.0,3.0,3.0,3.0,4.0,4.0,4.0,3.0,3.0,3.0,4.0,4.0,5.0,4.0,3.0,3.0,3.0,4.0,2.0,3.0,4.0,4.0,3.0,4.0,4.0,3.0,2.0,4.0,3.0,3.0,4.0,4.0,3.0,4.0,4.0,3.0,3.0,3.0,4.0,4.0,4.0,3.0,4.0,4.0,5.0,3.0,3.0,3.0,3.0,3.0,4.0,4.0,4.0,4.0,3.0,4.0,3.0,4.0,4.0,4.0,3.0,3.0,3.0,4.0,4.0,4.0,3.0,3.0,3.0,2.0,4.0,4.0,3.0,3.0,4.0,4.0,4.0,4.0,3.0,3.0,3.0,4.0,4.0,3.0,3.0,3.0,3.0,4.0,4.0,5.0,4.0,3.0,3.0,3.0,4.0,5.0,2.0,4.0,3.0,3.0,4.0,4.0,4.0,4.0,4.0,3.0,3.0,3.0,3.0,2.0,3.0,3.0,3.0,3.0,4.0,3.0,3.0,3.0,3.0,3.0,4.0,4.0,2.0,3.0,3.0,4.0,3.0,5.0,4.0,3.0,4.0,3.0,4.0,4.0,4.0,4.0,3.0,3.0,4.0,4.0,4.0,3.0,4.0,3.0,4.0,3.0,4.0,4.0,3.0,3.0,3.0,4.0,4.0,5.0,4.0,3.0,3.0,4.0,3.0,4.0,3.0,4.0,3.0,3.0,4.0,3.0,4.0,2.0,4.0,3.0,4.0,3.0,5.0,3.0,3.0,3.0,3.0,3.0,4.0,2.0,4.0,4.0,3.0,4.0,4.0,4.0,3.0,4.0,3.0,4.0,4.0,4.0,3.0,4.0,4.0,3.0,3.0,4.0,4.0,2.0,4.0,3.0,4.0,3.0,5.0,2.0,3.0,3.0,3.0,3.0,4.0,4.0,4.0,4.0,3.0,4.0,3.0,5.0,4.0,4.0,3.0,4.0,4.0,5.0,4.0,3.0,4.0,3.0,3.0,4.0,4.0,4.0,3.0,3.0,4.0,3.0,5.0,4.0,4.0,3.0,3.0,3.0,4.0,4.0,3.0,4.0,3.0,4.0,4.0,5.0,2.0,4.0,3.0,3.0,4.0,4.0,4.0,4.0,3.0,3.0,3.0,4.0,4.0,4.0,4.0,3.0,4.0,4.0,5.0,4.0,4.0,4.0,4.0,4.0,4.0,4.0,3.0,3.0,3.0,4.0,3.0,4.0,2.0,4.0,3.0,4.0,4.0,5.0,4.0,3.0,4.0,3.0,4.0,3.0,4.0,4.0,3.0,3.0,4.0,3.0,5.0,3.0,4.0,2.0,3.0,4.0,5.0,4.0,3.0,4.0,3.0,4.0,3.0,5.0,4.0,3.0,3.0,3.0,4.0,5.0,4.0,4.0,3.0,3.0,3.0,4.0,4.0,3.0,4.0,3.0,4.0,4.0,4.0,3.0,4.0,3.0,4.0,4.0,4.0,4.0,3.0,4.0,3.0,3.0,3.0,5.0,4.0,4.0,4.0,3.0,3.0,5.0,4.0,3.0,3.0,3.0,4.0,4.0,4.0,4.0,4.0,3.0,4.0,3.0,4.0,4.0,4.0,4.0,3.0,4.0,4.0,4.0,4.0,3.0,3.0,4.0,3.0,4.0,2.0,4.0,4.0,3.0,3.0,5.0,3.0,3.0,3.0,3.0,3.0,4.0,4.0,3.0,4.0,3.0,4.0,3.0,5.0,4.0,4.0,3.0,3.0,4.0,4.0,3.0,4.0,4.0,3.0,4.0,3.0,4.0,4.0,3.0,3.0,4.0,3.0,5.0,2.0,4.0,3.0,3.0,4.0,3.0,5.0,4.0,4.0,3.0,3.0,4.0,5.0,2.0,4.0,4.0,4.0,3.0,4.0,4.0,4.0,4.0,3.0,4.0,3.0,4.0,2.0,4.0,3.0,4.0,3.0,5.0,4.0,4.0,4.0,3.0,3.0,4.0,4.0,4.0,4.0,3.0,4.0,3.0,4.0,3.0,4.0,3.0,4.0,4.0,4.0,4.0,4.0,3.0,3.0,4.0,4.0,5.0,4.0,3.0,3.0,4.0,4.0,5.0,3.0,4.0,3.0,3.0,3.0,4.0,4.0,2.0,3.0,4.0,4.0,3.0,5.0,3.0,3.0,3.0,3.0,3.0,4.0,3.0,3.0,3.0,4.0,4.0,4.0,4.0,2.0,4.0,3.0,4.0,4.0,5.0,4.0,3.0,4.0,3.0,4.0,4.0,4.0,3.0,4.0,3.0,4.0,3.0,4.0,2.0,3.0,4.0,3.0,3.0,4.0,4.0,3.0,3.0,3.0,4.0,4.0,5.0,4.0,4.0,3.0,4.0,4.0,4.0,3.0,4.0,3.0,3.0,4.0,4.0,3.0,3.0,4.0,3.0,3.0,3.0,5.0,4.0,4.0,3.0,3.0,3.0,3.0,4.0,4.0,3.0,3.0,4.0,3.0,5.0,4.0,4.0,4.0,3.0
247.0,250.0,251.0,243.0,243.0,248.0,252.0,251.0,242.0,245.0,250.0,250.0,249.0,241.0,243.0,245.0,250.0,249.0,242.0,245.0,246.0,251.0,250.0,242.0,247.0,253.0,255.0,254.0,248.0,250.0,253.0,256.0,254.0,246.0,246.0,253.0,252.0,249.0,242.0,248.0,256.0,252.0,251.0,241.0,253.0,254.0,252.0,251.0,243.0,247.0,254.0,250.0,250.0,243.0,254.0,256.0,249.0,253.0,248.0,259.0,260.0,253.0,255.0,250.0,256.0,256.0,251.0,250.0,248.0,259.0,259.0,250.0,252.0,250.0,256.0,257.0,253.0,254.0,255.0,257.0,259.0,249.0,252.0,246.0,254.0,254.0,248.0,249.0,253.0,255.0,251.0,245.0,251.0,257.0,257.0,255.0,248.0,250.0,257.0,256.0,256.0,249.0,253.0,260.0,257.0,255.0,247.0,258.0,260.0,255.0,251.0,241.0,255.0,256.0,253.0,252.0,249.0,247.0,246.0,238.0,241.0,237.0,245.0,254.0,251.0,255.0,245.0,258.0,256.0,252.0,256.0,247.0,254.0,266.0,260.0,257.0,255.0,265.0,262.0,251.0,258.0,263.0,275.0,278.0,270.0,276.0,285.0,281.0,277.0,264.0,266.0,263.0,270.0,266.0,256.0,255.0,258.0,250.0,248.0,246.0,254.0,267.0,268.0,267.0,258.0,263.0,272.0,271.0,272.0,262.0,263.0,269.0,265.0,260.0,255.0,264.0,268.0,266.0,263.0,254.0,265.0,270.0,267.0,263.0,254.0,264.0,270.0,265.0,260.0,252.0,263.0,265.0,257.0,262.0,254.0,268.0,269.0,275.0,283.0,267.0,273.0,267.0,265.0,263.0,255.0,260.0,263.0,259.0,253.0,258.0,257.0,260.0,260.0,265.0,264.0,264.0,269.0,261.0,262.0,262.0,267.0,262.0,258.0,263.0,263.0,267.0,263.0,255.0,258.0,261.0,258.0,252.0,239.0,246.0,262.0,275.0,282.0,269.0,272.0,275.0,267.0,264.0,261.0,271.0,272.0,271.0,273.0,262.0,275.0,274.0,262.0,280.0,268.0,276.0,276.0,273.0,277.0,277.0,277.0,289.0,276.0,276.0,269.0,279.0,274.0,258.0,261.0,261.0,273.0,266.0,253.0,259.0,256.0,266.0,277.0,267.0,270.0,268.0,270.0,267.0,257.0,263.0,264.0,270.0,279.0,267.0,270.0,266.0,273.0,270.0,265.0,264.0,270.0,268.0,267.0,256.0,260.0,267.0,259.0,256.0,252.0,258.0,264.0,266.0,268.0,256.0,257.0,262.0,260.0,259.0,253.0,264.0,265.0,263.0,264.0,261.0,270.0,270.0,263.0,263.0,259.0,263.0,273.0,262.0,265.0,254.0,261.0,262.0,263.0,267.0,257.0,269.0,272.0,263.0,270.0,259.0,273.0,281.0,269.0,267.0,258.0,268.0,268.0,255.0,252.0,253.0,254.0,259.0,249.0,252.0,258.0,265.0,269.0,258.0,264.0,262.0,267.0,271.0,266.0,272.0,276.0,267.0,266.0,257.0,263.0,271.0,265.0,261.0,253.0,260.0,266.0,263.0,264.0,253.0,264.0,271.0,265.0,265.0,253.0,266.0,269.0,264.0,265.0,253.0,263.0,268.0,265.0,262.0,255.0,258.0,266.0,260.0,260.0,251.0,263.0,264.0,254.0,258.0,257.0,270.0,272.0,256.0,262.0,256.0,262.0,263.0,256.0,258.0,249.0,249.0,250.0,239.0,245.0,250.0,249.0,250.0,242.0,246.0,251.0,254.0,257.0,245.0,255.0,255.0,253.0,250.0,240.0,246.0,251.0,252.0,252.0,242.0,249.0,252.0,256.0,259.0,251.0,253.0,258.0,255.0,256.0,249.0,252.0,256.0,253.0,251.0,239.0,251.0,254.0,247.0,249.0,242.0,254.0,255.0,250.0,252.0,246.0,255.0,258.0,251.0,253.0,250.0,257.0,258.0,249.0,252.0,250.0,258.0,257.0,251.0,254.0,253.0,258.0,258.0,253.0,256.0,254.0,256.0,257.0,250.0,250.0,250.0,254.0,254.0,247.0,249.0,253.0,255.0,255.0,247.0,251.0,249.0,258.0,258.0,247.0,250.0,255.0,254.0,253.0,243.0,249.0,256.0,253.0,252.0,245.0,255.0,260.0,256.0,258.0,248.0,254.0,261.0,256.0,255.0,249.0,258.0,261.0,255.0,255.0,248.0,259.0,259.0,255.0,254.0,252.0,258.0,262.0,254.0,255.0,249.0,258.0,263.0,254.0,255.0,249.0,259.0,261.0,253.0,250.0,245.0,255.0,255.0,252.0,252.0,247.0,256.0,254.0,248.0,250.0,253.0,255.0,252.0,246.0,250.0,254.0,255.0,253.0,244.0,246.0,248.0,253.0,251.0,245.0,251.0,256.0,253.0,250.0,243.0,249.0,257.0,252.0,250.0,243.0,247.0,253.0,248.0,248.0,240.0,248.0,251.0,250.0,248.0,241.0,248.0,251.0,249.0,246.0,238.0,247.0,247.0,244.0,241.0,235.0,242.0,247.0,244.0,242.0,237.0,244.0,245.0,241.0,243.0,239.0,249.0,249.0,242.0,245.0,243.0,252.0,249.0,245.0,245.0,245.0,252.0,249.0,240.0,243.0,249.0,246.0,245.0,239.0,243.0,252.0,252.0,247.0,240.0,244.0,249.0,252.0,248.0,240.0,245.0,250.0,250.0,246.0,238.0,242.0,247.0,248.0,245.0,240.0,241.0,248.0,246.0,245.0,237.0,242.0,248.0,246.0,242.0,234.0,245.0,248.0,244.0,242.0,236.0,247.0,248.0,244.0,243.0,238.0,242.0,245.0,239.0,239.0,237.0,245.0,246.0,238.0,240.0,240.0,247.0,246.0,238.0,242.0,242.0,251.0,249.0,245.0,245.0,246.0,251.0,251.0,244.0,246.0,246.0,249.0,248.0,240.0,241.0,245.0,248.0,246.0,240.0,243.0,245.0,250.0,247.0,237.0,240.0,247.0,245.0,245.0,237.0,241.0,247.0,244.0,243.0,239.0,241.0,248.0,243.0,244.0,235.0,244.0,248.0,244.0,242.0,236.0,247.0,246.0,240.0,240.0,237.0,246.0,247.0,242.0,241.0,240.0,244.0,246.0,240.0,242.0,236.0,246.0,247.0,239.0,239.0,235.0,244.0,246.0,237.0,240.0,234.0,244.0,243.0,240.0,240.0,237.0,244.0,244.0,236.0,238.0,241.0,241.0,243.0,236.0,239.0,243.0,243.0,241.0,234.0,238.0,240.0,244.0,242.0,235.0,239.0,247.0,242.0,241.0,235.0,241.0,246.0,243.0,241.0,234.0,241.0,246.0,240.0,241.0,232.0,242.0,246.0,243.0,240.0,232.0,243.0,244.0,241.0,239.0,232.0,243.0,246.0,242.0,241.0,235.0,241.0,247.0,241.0,242.0,239.0,248.0,249.0,240.0,243.0,241.0,248.0,247.0,239.0,241.0,241.0,246.0,244.0,241.0,241.0,241.0,245.0,243.0,235.0,236.0,242.0,239.0,238.0,229.0,237.0,244.0,242.0,240.0,234.0,240.0,245.0,245.0,243.0,236.0,240.0,245.0,243.0,241.0,233.0,237.0,243.0,243.0,241.0,236.0,239.0,247.0,244.0,243.0,235.0,240.0,246.0,240.0,240.0,234.0,245.0,245.0,241.0,239.0,235.0,243.0,244.0,239.0,239.0,235.0,241.0,244.0,238.0,238.0,237.0,246.0,243.0,236.0,239.0,239.0,245.0,245.0,237.0,242.0,243.0,247.0,245.0,240.0,241.0,242.0,245.0,245.0,239.0,239.0,245.0,243.0,244.0,236.0,239.0,244.0,245.0,242.0,235.0,238.0,239.0,246.0,241.0,235.0,238.0,246.0,243.0,242.0,235.0,241.0,247.0,243.0,243.0,236.0,243.0,249.0,244.0,242.0,236.0,243.0,247.0,241.0,242.0,238.0,247.0,249.0,244.0,243.0,242.0,250.0,250.0,243.0,243.0,243.0,247.0,247.0,239.0,240.0,238.0,248.0,248.0,242.0,244.0,240.0,249.0,250.0,242.0,244.0,243.0,250.0,248.0,243.0,243.0,242.0,249.0,245.0,239.0,242.0,248.0,247.0,246.0,240.0,244.0,250.0,250.0,246.0,241.0,246.0,248.0,251.0,248.0,240.0,243.0,250.0,248.0,246.0,242.0,248.0,251.0,245.0,246.0,238.0,247.0,249.0,244.0,245.0,239.0,247.0,250.0,247.0,245.0,238.0,248.0,248.0,244.0,242.0,236.0,246.0,246.0,244.0,244.0
