210.0,218.0,223.0,218.0,218.0,215.0,222.0,224.0,220.0,220.0,212.0,217.0,223.0,218.0,219.0,213.0,218.0,225.0,219.0,218.0,211.0,218.0,223.0,216.0,219.0,212.0,220.0,226.0,220.0,221.0,213.0,222.0,225.0,220.0,220.0,214.0,223.0,226.0,219.0,217.0,211.0,216.0,222.0,216.0,218.0,210.0,219.0,224.0,217.0,219.0,216.0,225.0,229.0,221.0,225.0,218.0,227.0,229.0,223.0,225.0,219.0,226.0,228.0,220.0,222.0,225.0,225.0,224.0,215.0,219.0,224.0,225.0,225.0,216.0,218.0,219.0,226.0,227.0,219.0,221.0,227.0,224.0,223.0,214.0,220.0,226.0,223.0,223.0,216.0,220.0,226.0,223.0,223.0,216.0,223.0,229.0,225.0,223.0,213.0,221.0,225.0,222.0,222.0,214.0,222.0,226.0,223.0,221.0,214.0,217.0,226.0,222.0,222.0,216.0,225.0,226.0,219.0,221.0,216.0,221.0,220.0,220.0,218.0,216.0,224.0,226.0,223.0,228.0,233.0,237.0,230.0,226.0,230.0,246.0,244.0,246.0,248.0,241.0,245.0,247.0,242.0,243.0,249.0,243.0,239.0,240.0,241.0,243.0,260.0,257.0,256.0,247.0,252.0,253.0,253.0,249.0,243.0,245.0,245.0,243.0,243.0,237.0,242.0,238.0,235.0,236.0,232.0,244.0,248.0,245.0,242.0,235.0,240.0,244.0,241.0,237.0,232.0,240.0,243.0,236.0,235.0,231.0,239.0,239.0,233.0,237.0,235.0,245.0,243.0,235.0,235.0,237.0,241.0,240.0,236.0,238.0,241.0,244.0,244.0,235.0,237.0,239.0,241.0,241.0,233.0,236.0,239.0,241.0,240.0,231.0,231.0,235.0,240.0,238.0,230.0,233.0,238.0,233.0,232.0,225.0,232.0,242.0,235.0,234.0,225.0,232.0,239.0,234.0,236.0,229.0,236.0,243.0,236.0,236.0,228.0,237.0,240.0,232.0,233.0,229.0,236.0,236.0,231.0,232.0,229.0,224.0,230.0,222.0,224.0,218.0,228.0,232.0,224.0,228.0,225.0,237.0,236.0,228.0,233.0,230.0,237.0,238.0,230.0,229.0,230.0,236.0,235.0,225.0,231.0,238.0,238.0,242.0,233.0,236.0,242.0,239.0,239.0,235.0,243.0,243.0,244.0,243.0,230.0,239.0,247.0,240.0,239.0,229.0,232.0,238.0,232.0,234.0,225.0,233.0,238.0,231.0,231.0,219.0,229.0,230.0,224.0,227.0,220.0,230.0,235.0,232.0,232.0,222.0,231.0,235.0,229.0,231.0,225.0,230.0,235.0,228.0,227.0,223.0,231.0,233.0,225.0,229.0,228.0,233.0,233.0,225.0,225.0,226.0,231.0,231.0,227.0,230.0,232.0,234.0,232.0,227.0,233.0,239.0,236.0,236.0,229.0,236.0,241.0,238.0,235.0,224.0,232.0,235.0,233.0,233.0,226.0,233.0,240.0,237.0,236.0,225.0,230.0,236.0,232.0,233.0,227.0,232.0,238.0,233.0,235.0,225.0,235.0,240.0,234.0,236.0,231.0,238.0,240.0,234.0,236.0,231.0,239.0,241.0,232.0,233.0,231.0,236.0,241.0,235.0,235.0,235.0,238.0,238.0,228.0,232.0,233.0,237.0,236.0,227.0,232.0,236.0,235.0,234.0,228.0,231.0,239.0,237.0,241.0,230.0,232.0,236.0,236.0,240.0,232.0,236.0,240.0,238.0,238.0,234.0,240.0,243.0,240.0,242.0,229.0,233.0,237.0,230.0,232.0,223.0,228.0,235.0,225.0,228.0,219.0,226.0,232.0,223.0,228.0,217.0,226.0,234.0,225.0,227.0,224.0,228.0,231.0,221.0,224.0,225.0,228.0,232.0,220.0,223.0,224.0,227.0,229.0,219.0,223.0,220.0,226.0,230.0,218.0,220.0,219.0,224.0,227.0,220.0,226.0,224.0,227.0,228.0,221.0,222.0,223.0,225.0,226.0,216.0,222.0,228.0,222.0,224.0,216.0,221.0,227.0,225.0,223.0,213.0,220.0,224.0,221.0,223.0,214.0,222.0,226.0,218.0,220.0,218.0,223.0,227.0,220.0,221.0,214.0,223.0,229.0,222.0,227.0,219.0,227.0,231.0,225.0,224.0,218.0,226.0,227.0,222.0,222.0,219.0,226.0,228.0,221.0,223.0,221.0,226.0,229.0,221.0,223.0,221.0,226.0,226.0,217.0,220.0,222.0,225.0,225.0,216.0,222.0,222.0,224.0,225.0,219.0,222.0,226.0,226.0,226.0,216.0,223.0,230.0,224.0,226.0,217.0,225.0,230.0,226.0,224.0,216.0,224.0,226.0,222.0,223.0,215.0,222.0,226.0,222.0,223.0,217.0,223.0,228.0,223.0,223.0,215.0,223.0,228.0,221.0,225.0,215.0,224.0,228.0,222.0,223.0,221.0,227.0,226.0,220.0,221.0,221.0,225.0,228.0,220.0,222.0,224.0,227.0,229.0,220.0,223.0,226.0,227.0,227.0,219.0,224.0,228.0,226.0,226.0,218.0,223.0,228.0,227.0,226.0,219.0,222.0,228.0,227.0,228.0,222.0,225.0,231.0,227.0,228.0,220.0,225.0,230.0,229.0,227.0,219.0,224.0,228.0,227.0,225.0,218.0,224.0,230.0,224.0,224.0,220.0,226.0,229.0,223.0,224.0,220.0,228.0,230.0,222.0,223.0,217.0,227.0,229.0,221.0,223.0,225.0,228.0,227.0,224.0,224.0,228.0,230.0,231.0,222.0,225.0,229.0,229.0,230.0,222.0,224.0,224.0,230.0,228.0,221.0,222.0,223.0,225.0,226.0,218.0,223.0,225.0,227.0,225.0,220.0,222.0,224.0,225.0,224.0,218.0,224.0,230.0,225.0,224.0,217.0,224.0,228.0,226.0,225.0,217.0,225.0,227.0,227.0,226.0,220.0,226.0,229.0,222.0,223.0,222.0,227.0,228.0,222.0,224.0,220.0,228.0,228.0,222.0,223.0,220.0,227.0,227.0,223.0,224.0,222.0,228.0,229.0,224.0,225.0,225.0,229.0,230.0,222.0,224.0,226.0,229.0,231.0,222.0,223.0,225.0,228.0,226.0,221.0,226.0,228.0,230.0,227.0,221.0,225.0,230.0,229.0,227.0,222.0,225.0,229.0,229.0,226.0,220.0,229.0,230.0,227.0,228.0,221.0,231.0,232.0,229.0,228.0,221.0,228.0,230.0,225.0,225.0,221.0,226.0,231.0,226.0,226.0,223.0,228.0,231.0,227.0,227.0,221.0,229.0,231.0,225.0,225.0,221.0,228.0,231.0,224.0,225.0,225.0,230.0,228.0,224.0,225.0,227.0,229.0,229.0,223.0,223.0,227.0,229.0,229.0,221.0,224.0,228.0,227.0,226.0,219.0,226.0,230.0,228.0,225.0,219.0,224.0,230.0,227.0,227.0,219.0,223.0,229.0,224.0,226.0,219.0,224.0,229.0,224.0,225.0,217.0,224.0,229.0,224.0,223.0,216.0,225.0,229.0,227.0,225.0,218.0,227.0,230.0,222.0,224.0,224.0,226.0,229.0,220.0,222.0,218.0,227.0,229.0,221.0,224.0,219.0,226.0,228.0,218.0,221.0,225.0,225.0,224.0,218.0,221.0,226.0,224.0,226.0,218.0,221.0,229.0,226.0,226.0,218.0,222.0,226.0,227.0,227.0,219.0,224.0,227.0,227.0,225.0,219.0,221.0,226.0,224.0,224.0,217.0,221.0,227.0,224.0,224.0,216.0,225.0,229.0,222.0,224.0,217.0,224.0,228.0,223.0,224.0,217.0,225.0,228.0,222.0,223.0,218.0,225.0,228.0,219.0,222.0,224.0,227.0,229.0,219.0,222.0,221.0,226.0,225.0,217.0,222.0,220.0,225.0,226.0,220.0,221.0,225.0,226.0,226.0,219.0,222.0,225.0,226.0,228.0,218.0,222.0,225.0,226.0,228.0,219.0,222.0,227.0,224.0,225.0,217.0,225.0,228.0,225.0,225.0,217.0,221.0,229.0,224.0,224.0,217.0,223.0,229.0,224.0,225.0,217.0,225.0,229.0,221.0,224.0,219.0,227.0,229.0,223.0,224.0,220.0,227.0,230.0,222.0,224.0,223.0,227.0,229.0,222.0,223.0,223.0,225.0,229.0,221.0,223.0,218.0,226.0,230.0,220.0,224.0,221.0,229.0,230.0,221.0,223.0,226.0,226.0,228.0,220.0,223.0,227.0,225.0,227.0,219.0,222.0,228.0,225.0,226.0,217.0,221.0,229.0,224.0,225.0
32.0,32.0,33.0,32.0,32.0,33.0,32.0,32.0,32.0,32.0,32.0,32.0,33.0,32.0,32.0,33.0,32.0,32.0,32.0,32.0,32.0,33.0,32.0,32.0,32.0,31.0,32.0,33.0,32.0,32.0,34.0,33.0,34.0,33.0,34.0,32.0,32.0,33.0,32.0,32.0,33.0,32.0,32.0,32.0,33.0,32.0,32.0,33.0,32.0,32.0,31.0,32.0,32.0,33.0,31.0,32.0,32.0,31.0,32.0,32.0,33.0,32.0,33.0,32.0,33.0,35.0,37.0,40.0,43.0,43.0,50.0,48.0,49.0,49.0,46.0,46.0,43.0,44.0,41.0,41.0,39.0,38.0,36.0,36.0,34.0,35.0,33.0,32.0,32.0,31.0,31.0,31.0,31.0,30.0,30.0,30.0,30.0,29.0,30.0,28.0,29.0,28.0,29.0,29.0,29.0,28.0,28.0,29.0,29.0,29.0,29.0,29.0,28.0,29.0,28.0,29.0,28.0,30.0,28.0,28.0,29.0,29.0,29.0,29.0,30.0,30.0,29.0,29.0,30.0,29.0,31.0,30.0,31.0,31.0,31.0,31.0,32.0,33.0,34.0,33.0,35.0,56.0,52.0,49.0,46.0,43.0,42.0,40.0,43.0,42.0,39.0,38.0,37.0,36.0,34.0,34.0,34.0,32.0,32.0,31.0,31.0,29.0,31.0,30.0,31.0,29.0,29.0,29.0,30.0,29.0,28.0,28.0,28.0,29.0,29.0,29.0,28.0,28.0,28.0,28.0,28.0,29.0,28.0,28.0,28.0,28.0,28.0,28.0,28.0,28.0,29.0,29.0,29.0,29.0,29.0,28.0,29.0,29.0,29.0,28.0,29.0,30.0,29.0,29.0,29.0,30.0,29.0,30.0,30.0,30.0,29.0,30.0,29.0,31.0,30.0,31.0,30.0,30.0,30.0,30.0,30.0,30.0,30.0,30.0,30.0,29.0,31.0,30.0,30.0,31.0,31.0,31.0,32.0,30.0,31.0,31.0,31.0,30.0,31.0,31.0,30.0,31.0,31.0,31.0,30.0,32.0,31.0,31.0,31.0,31.0,31.0,32.0,31.0,31.0,31.0,31.0,32.0,31.0,33.0,32.0,32.0,33.0,31.0,32.0,32.0,32.0,32.0,31.0,31.0,32.0,32.0,31.0,30.0,32.0,31.0,31.0,32.0,32.0,32.0,32.0,32.0,32.0,31.0,31.0,32.0,31.0,32.0,32.0,32.0,32.0,32.0,32.0,32.0,31.0,32.0,31.0,32.0,31.0,32.0,32.0,31.0,32.0,32.0,32.0,32.0,31.0,31.0,31.0,31.0,32.0,31.0,31.0,31.0,31.0,31.0,31.0,32.0,31.0,31.0,31.0,31.0,31.0,31.0,31.0,32.0,31.0,31.0,31.0,32.0,32.0,31.0,32.0,31.0,32.0,32.0,32.0,32.0,32.0,31.0,32.0,31.0,31.0,32.0,32.0,32.0,31.0,32.0,32.0,32.0,31.0,32.0,31.0,32.0,32.0,33.0,31.0,31.0,33.0,33.0,32.0,32.0,32.0,32.0,32.0,32.0,32.0,32.0,33.0,32.0,32.0,31.0,32.0,32.0,32.0,32.0,31.0,31.0,31.0,32.0,32.0,32.0,31.0,32.0,31.0,32.0,31.0,32.0,32.0,31.0,31.0,32.0,31.0,32.0,32.0,31.0,32.0,31.0,32.0,32.0,33.0,32.0,32.0,32.0,32.0,32.0,32.0,32.0,32.0,32.0,31.0,32.0,33.0,32.0,32.0,33.0,32.0,32.0,32.0,32.0,33.0,32.0,32.0,33.0,33.0,33.0,32.0,32.0,33.0,33.0,33.0,33.0,33.0,32.0,33.0,32.0,33.0,32.0,33.0,32.0,32.0,32.0,32.0,33.0,32.0,32.0,32.0,32.0,32.0,33.0,32.0,33.0,32.0,32.0,32.0,31.0,32.0,33.0,32.0,32.0,32.0,31.0,32.0,32.0,33.0,32.0,32.0,31.0,32.0,32.0,33.0,32.0,32.0,32.0,32.0,31.0,33.0,32.0,32.0,33.0,31.0,32.0,32.0,33.0,32.0,32.0,32.0,32.0,32.0,33.0,31.0,32.0,32.0,31.0,32.0,32.0,32.0,32.0,32.0,33.0,32.0,32.0,32.0,32.0,32.0,32.0,32.0,32.0,33.0,32.0,32.0,32.0,31.0,32.0,32.0,33.0,32.0,33.0,32.0,32.0,32.0,33.0,32.0,31.0,32.0,31.0,31.0,32.0,32.0,32.0,31.0,32.0,33.0,32.0,33.0,32.0,32.0,32.0,31.0,33.0,33.0,32.0,33.0,32.0,32.0,32.0,33.0,33.0,32.0,33.0,32.0,32.0,32.0,33.0,32.0,32.0,32.0,31.0,32.0,32.0,32.0,32.0,33.0,31.0,32.0,32.0,33.0,32.0,32.0,32.0,32.0,32.0,33.0,32.0,32.0,32.0,31.0,32.0,32.0,33.0,32.0,32.0,32.0,32.0,32.0,33.0,32.0,32.0,32.0,31.0,32.0,32.0,32.0,32.0,32.0,31.0,32.0,32.0,33.0,32.0,32.0,32.0,31.0,31.0,32.0,32.0,33.0,32.0,31.0,32.0,32.0,33.0,32.0,32.0,32.0,32.0,32.0,34.0,32.0,32.0,32.0,31.0,33.0,32.0,32.0,32.0,32.0,33.0,33.0,32.0,34.0,32.0,33.0,33.0,32.0,33.0,33.0,32.0,33.0,33.0,33.0,32.0,32.0,33.0,32.0,32.0,31.0,32.0,32.0,33.0,32.0,32.0,32.0,31.0,32.0,32.0,32.0,31.0,32.0,31.0,32.0,31.0,32.0,32.0,32.0,32.0,31.0,31.0,32.0,31.0,32.0,32.0,31.0,32.0,31.0,31.0,30.0,32.0,31.0,31.0,31.0,32.0,30.0,32.0,32.0,31.0,31.0,32.0,32.0,32.0,32.0,33.0,32.0,32.0,32.0,32.0,33.0,32.0,33.0,32.0,33.0,32.0,32.0,33.0,31.0,33.0,33.0,34.0,34.0,34.0,35.0,35.0,34.0,36.0,35.0,36.0,36.0,36.0,38.0,37.0,38.0,42.0,40.0,43.0,46.0,45.0,50.0,48.0,49.0,51.0,48.0,48.0,47.0,47.0,48.0,46.0,49.0,49.0,48.0,47.0,44.0,42.0,41.0,41.0,41.0,41.0,44.0,46.0,46.0,49.0,46.0,48.0,45.0,43.0,44.0,43.0,47.0,52.0,52.0,54.0,52.0,57.0,61.0,57.0,59.0,54.0,52.0,51.0,49.0,50.0,45.0,46.0,46.0,44.0,46.0,43.0,41.0,40.0,38.0,37.0,35.0,35.0,33.0,33.0,33.0,32.0,32.0,31.0,31.0,29.0,31.0,30.0,29.0,29.0,29.0,29.0,30.0,29.0,29.0,29.0,30.0,30.0,30.0,30.0,29.0,30.0,29.0,30.0,29.0,31.0,30.0,30.0,30.0,30.0,29.0,29.0,29.0,29.0,29.0,27.0,31.0,31.0,43.0,39.0,50.0,59.0,58.0,61.0,60.0,63.0,63.0,59.0,64.0,61.0,64.0,70.0,64.0,69.0,67.0,69.0,72.0,70.0,76.0,75.0,76.0,80.0,75.0,79.0,80.0,76.0,79.0,75.0,73.0,73.0,71.0,78.0,74.0,78.0,78.0,75.0,79.0,74.0,78.0,82.0,79.0,86.0,81.0,89.0,90.0,87.0,91.0,88.0,91.0,95.0,88.0,91.0,87.0,87.0,87.0,83.0,82.0,78.0,81.0,84.0,80.0,83.0,83.0,84.0,88.0,84.0,88.0,89.0,92.0,97.0,92.0,95.0,97.0,96.0,98.0,94.0,96.0,95.0,91.0,95.0,91.0,94.0,94.0,91.0,94.0,90.0,91.0,93.0,90.0,94.0,91.0,94.0,100.0,96.0,101.0,96.0,97.0,102.0,99.0,103.0,100.0,102.0,103.0,100.0,103.0,100.0,103.0,107.0,102.0,104.0,102.0,105.0,110.0,107.0,112.0,107.0,113.0,114.0,109.0,116.0,111.0,114.0,119.0,113.0,114.0,117.0,117.0,119.0,116.0,118.0,122.0,119.0,126.0,119.0,123.0,125.0,122.0,130.0,124.0,129.0,130.0,128.0,134.0,128.0,133.0,137.0,132.0,140.0,134.0,135.0,136.0,133.0,137.0,132.0,137.0,141.0,135.0,140.0,135.0,137.0,143.0,137.0,142.0,137.0,140.0,146.0,138.0,144.0,139.0,142.0,149.0,143.0,147.0,142.0,146.0,153.0,144.0
4.0,4.0,3.0,4.0,3.0,5.0,2.0,3.0,3.0,3.0,4.0,4.0,4.0,3.0,4.0,4.0,5.0,4.0,4.0,3.0,4.0,3.0,3.0,4.0,4.0,4.0,4.0,4.0,4.0,4.0,4.0,5.0,3.0,4.0,3.0,4.0,4.0,4.0,3.0,3.0,4.0,3.0,3.0,4.0,3.0,4.0,4.0,3.0,4.0,4.0,5.0,4.0,4.0,3.0,3.0,4.0,4.0,4.0,4.0,4.0,3.0,4.0,3.0,4.0,3.0,4.0,3.0,3.0,4.0,4.0,2.0,4.0,3.0,3.0,3.0,4.0,4.0,2.0,4.0,3.0,4.0,3.0,4.0,2.0,4.0,3.0,4.0,4.0,4.0,3.0,4.0,4.0,3.0,3.0,4.0,4.0,3.0,4.0,3.0,3.0,4.0,3.0,4.0,3.0,3.0,4.0,4.0,4.0,4.0,4.0,4.0,3.0,4.0,3.0,5.0,4.0,3.0,3.0,4.0,4.0,5.0,3.0,4.0,4.0,3.0,4.0,3.0,4.0,2.0,4.0,3.0,3.0,3.0,4.0,4.0,3.0,4.0,4.0,4.0,4.0,4.0,4.0,4.0,3.0,4.0,4.0,4.0,3.0,3.0,3.0,4.0,3.0,4.0,3.0,4.0,3.0,3.0,4.0,4.0,4.0,2.0,4.0,3.0,3.0,3.0,5.0,3.0,4.0,3.0,4.0,3.0,5.0,4.0,4.0,3.0,3.0,4.0,4.0,4.0,4.0,4.0,4.0,4.0,4.0,4.0,4.0,4.0,3.0,3.0,3.0,4.0,4.0,4.0,3.0,3.0,4.0,4.0,5.0,4.0,3.0,3.0,3.0,4.0,4.0,3.0,3.0,3.0,3.0,4.0,3.0,5.0,2.0,4.0,3.0,3.0,3.0,4.0,4.0,3.0,3.0,3.0,3.0,4.0,4.0,4.0,4.0,3.0,4.0,4.0,5.0,4.0,4.0,3.0,4.0,3.0,4.0,4.0,4.0,4.0,4.0,3.0,3.0,5.0,4.0,4.0,3.0,4.0,3.0,4.0,4.0,4.0,3.0,3.0,3.0,4.0,4.0,4.0,3.0,3.0,3.0,3.0,4.0,4.0,4.0,4.0,3.0,3.0,4.0,3.0,4.0,3.0,4.0,4.0,3.0,4.0,4.0,4.0,3.0,3.0,3.0,4.0,4.0,3.0,4.0,3.0,4.0,4.0,3.0,4.0,3.0,3.0,3.0,4.0,5.0,2.0,3.0,3.0,4.0,3.0,4.0,4.0,3.0,4.0,3.0,4.0,3.0,3.0,2.0,3.0,3.0,4.0,4.0,5.0,4.0,4.0,4.0,3.0,4.0,4.0,4.0,3.0,4.0,4.0,4.0,4.0,4.0,4.0,4.0,3.0,3.0,4.0,4.0,4.0,3.0,4.0,3.0,3.0,3.0,4.0,3.0,4.0,4.0,4.0,3.0,4.0,4.0,3.0,4.0,3.0,4.0,4.0,3.0,3.0,4.0,3.0,4.0,3.0,3.0,2.0,3.0,3.0,3.0,4.0,4.0,4.0,3.0,3.0,3.0,4.0,4.0,4.0,4.0,4.0,3.0,3.0,4.0,3.0,4.0,3.0,3.0,4.0,4.0,4.0,5.0,4.0,4.0,3.0,4.0,3.0,5.0,2.0,4.0,3.0,3.0,4.0,5.0,4.0,4.0,3.0,3.0,4.0,4.0,5.0,4.0,4.0,4.0,4.0,4.0,2.0,4.0,4.0,3.0,3.0,3.0,4.0,4.0,3.0,4.0,3.0,4.0,4.0,5.0,2.0,4.0,3.0,4.0,3.0,2.0,4.0,3.0,4.0,3.0,3.0,3.0,4.0,4.0,5.0,3.0,4.0,3.0,5.0,4.0,3.0,3.0,3.0,4.0,4.0,4.0,3.0,4.0,3.0,4.0,3.0,4.0,4.0,4.0,3.0,3.0,3.0,3.0,4.0,4.0,4.0,4.0,3.0,4.0,4.0,3.0,4.0,3.0,4.0,4.0,5.0,3.0,4.0,4.0,3.0,3.0,2.0,4.0,4.0,3.0,3.0,3.0,4.0,5.0,2.0,4.0,3.0,4.0,4.0,5.0,4.0,4.0,3.0,3.0,4.0,3.0,4.0,3.0,4.0,3.0,4.0,4.0,4.0,4.0,4.0,3.0,3.0,3.0,4.0,4.0,4.0,4.0,3.0,4.0,3.0,5.0,4.0,4.0,3.0,4.0,4.0,4.0,4.0,3.0,4.0,3.0,3.0,4.0,4.0,2.0,3.0,3.0,3.0,4.0,5.0,4.0,4.0,3.0,3.0,3.0,4.0,4.0,3.0,3.0,3.0,3.0,4.0,4.0,4.0,3.0,3.0,4.0,4.0,4.0,3.0,3.0,4.0,3.0,4.0,4.0,4.0,3.0,4.0,3.0,3.0,4.0,5.0,4.0,3.0,3.0,4.0,3.0,5.0,4.0,4.0,4.0,3.0,4.0,4.0,5.0,4.0,4.0,3.0,3.0,4.0,3.0,3.0,5.0,3.0,3.0,3.0,4.0,4.0,3.0,3.0,3.0,3.0,3.0,4.0,3.0,4.0,4.0,3.0,3.0,3.0,4.0,3.0,4.0,3.0,4.0,4.0,4.0,2.0,4.0,3.0,4.0,3.0,4.0,3.0,3.0,3.0,3.0,4.0,3.0,4.0,3.0,4.0,3.0,4.0,3.0,5.0,4.0,4.0,3.0,3.0,3.0,4.0,3.0,4.0,4.0,3.0,3.0,4.0,4.0,3.0,4.0,3.0,4.0,4.0,5.0,3.0,4.0,3.0,3.0,3.0,4.0,4.0,4.0,4.0,3.0,4.0,4.0,5.0,3.0,3.0,3.0,4.0,3.0,4.0,4.0,3.0,4.0,3.0,4.0,3.0,4.0,3.0,3.0,3.0,4.0,3.0,3.0,4.0,4.0,3.0,3.0,3.0,4.0,3.0,3.0,4.0,3.0,4.0,4.0,5.0,4.0,4.0,3.0,4.0,5.0,5.0,4.0,4.0,3.0,3.0,4.0,3.0,4.0,4.0,4.0,3.0,3.0,3.0,5.0,2.0,3.0,4.0,3.0,4.0,4.0,4.0,4.0,4.0,2.0,4.0,4.0,5.0,4.0,4.0,3.0,3.0,3.0,4.0,4.0,4.0,3.0,3.0,3.0,3.0,4.0,4.0,4.0,3.0,3.0,4.0,4.0,3.0,4.0,3.0,3.0,4.0,4.0,4.0,3.0,4.0,3.0,4.0,3.0,4.0,2.0,3.0,3.0,4.0,3.0,4.0,4.0,3.0,3.0,3.0,4.0,4.0,4.0,2.0,4.0,3.0,4.0,4.0,4.0,4.0,3.0,3.0,3.0,4.0,4.0,4.0,3.0,4.0,3.0,4.0,4.0,5.0,4.0,3.0,3.0,3.0,4.0,4.0,3.0,3.0,3.0,3.0,4.0,4.0,4.0,4.0,3.0,3.0,4.0,3.0,5.0,3.0,4.0,3.0,3.0,3.0,4.0,4.0,3.0,4.0,3.0,4.0,4.0,4.0,4.0,4.0,3.0,4.0,4.0,4.0,4.0,3.0,4.0,3.0,4.0,4.0,4.0,3.0,4.0,3.0,3.0,3.0,5.0,3.0,3.0,3.0,4.0,4.0,4.0,4.0,3.0,3.0,3.0,4.0,3.0,5.0,2.0,4.0,3.0,3.0,4.0,4.0,3.0,3.0,3.0,3.0,4.0,3.0,4.0,2.0,3.0,3.0,4.0,4.0,5.0,4.0,3.0,3.0,3.0,4.0,4.0,4.0,4.0,4.0,3.0,4.0,3.0,4.0,4.0,4.0,3.0,3.0,4.0,4.0,3.0,4.0,4.0,3.0,3.0,3.0,5.0,4.0,4.0,3.0,4.0,3.0,5.0,4.0,4.0,4.0,4.0,3.0,4.0,4.0,4.0,3.0,3.0,4.0,4.0,5.0,4.0,3.0,3.0,3.0,3.0,4.0,4.0,3.0,4.0,3.0,3.0,4.0,5.0,3.0,3.0,3.0,3.0,3.0,4.0,4.0,4.0,3.0,3.0,4.0,4.0,4.0,3.0,3.0,3.0,4.0,4.0,5.0,3.0,4.0,3.0,3.0,3.0,4.0,3.0,4.0,3.0,3.0,4.0,4.0,4.0,4.0,3.0,3.0,4.0,4.0,4.0,4.0,4.0,3.0,4.0,4.0,4.0,5.0,3.0,3.0,4.0,4.0,4.0,5.0,4.0,4.0,3.0,3.0,3.0,4.0,3.0,3.0,4.0,3.0,3.0,4.0,4.0,4.0,4.0
233.0,244.0,248.0,242.0,242.0,237.0,250.0,252.0,247.0,244.0,240.0,246.0,251.0,248.0,248.0,242.0,247.0,252.0,244.0,244.0,235.0,243.0,250.0,242.0,245.0,239.0,252.0,259.0,250.0,247.0,239.0,250.0,251.0,249.0,253.0,248.0,258.0,262.0,255.0,252.0,248.0,247.0,253.0,248.0,248.0,242.0,251.0,253.0,246.0,249.0,243.0,257.0,257.0,251.0,254.0,250.0,261.0,260.0,253.0,253.0,246.0,254.0,252.0,246.0,249.0,253.0,254.0,253.0,243.0,249.0,258.0,257.0,256.0,246.0,250.0,252.0,259.0,258.0,249.0,249.0,256.0,255.0,255.0,247.0,251.0,259.0,253.0,252.0,244.0,248.0,253.0,253.0,252.0,242.0,255.0,258.0,255.0,247.0,237.0,248.0,251.0,250.0,249.0,241.0,249.0,252.0,251.0,249.0,242.0,248.0,254.0,252.0,248.0,246.0,256.0,255.0,248.0,247.0,243.0,246.0,248.0,245.0,239.0,237.0,247.0,256.0,252.0,252.0,253.0,252.0,254.0,248.0,258.0,272.0,270.0,269.0,269.0,263.0,268.0,273.0,259.0,256.0,264.0,265.0,263.0,267.0,264.0,275.0,301.0,294.0,284.0,270.0,273.0,279.0,279.0,272.0,261.0,267.0,272.0,264.0,271.0,259.0,261.0,262.0,264.0,265.0,263.0,270.0,265.0,253.0,254.0,253.0,264.0,267.0,266.0,269.0,262.0,272.0,271.0,262.0,265.0,264.0,270.0,271.0,260.0,265.0,261.0,265.0,261.0,252.0,259.0,263.0,269.0,272.0,271.0,271.0,282.0,277.0,275.0,266.0,267.0,270.0,271.0,265.0,247.0,254.0,261.0,268.0,268.0,262.0,258.0,259.0,268.0,275.0,261.0,275.0,279.0,282.0,284.0,277.0,283.0,301.0,292.0,287.0,282.0,292.0,298.0,286.0,282.0,272.0,283.0,289.0,277.0,274.0,270.0,275.0,274.0,268.0,266.0,260.0,267.0,267.0,260.0,261.0,259.0,262.0,261.0,255.0,256.0,251.0,260.0,262.0,254.0,255.0,251.0,262.0,259.0,253.0,261.0,254.0,263.0,262.0,255.0,252.0,252.0,259.0,257.0,249.0,262.0,277.0,275.0,278.0,272.0,275.0,285.0,283.0,283.0,285.0,302.0,301.0,295.0,284.0,272.0,289.0,307.0,293.0,291.0,279.0,283.0,287.0,277.0,275.0,263.0,270.0,273.0,266.0,263.0,254.0,259.0,258.0,251.0,251.0,247.0,257.0,260.0,262.0,261.0,257.0,266.0,267.0,263.0,265.0,259.0,263.0,265.0,256.0,258.0,257.0,269.0,264.0,258.0,257.0,258.0,262.0,258.0,250.0,250.0,251.0,254.0,250.0,253.0,257.0,259.0,261.0,260.0,252.0,262.0,270.0,266.0,266.0,263.0,272.0,273.0,272.0,265.0,255.0,265.0,268.0,262.0,260.0,258.0,264.0,278.0,271.0,268.0,260.0,264.0,270.0,269.0,269.0,261.0,265.0,270.0,266.0,265.0,256.0,266.0,270.0,266.0,267.0,265.0,277.0,275.0,270.0,270.0,266.0,273.0,270.0,264.0,263.0,262.0,270.0,275.0,268.0,269.0,270.0,273.0,270.0,263.0,268.0,272.0,275.0,271.0,260.0,265.0,269.0,267.0,264.0,259.0,262.0,270.0,269.0,268.0,262.0,265.0,268.0,267.0,269.0,258.0,263.0,269.0,270.0,265.0,263.0,263.0,264.0,264.0,265.0,258.0,265.0,266.0,259.0,258.0,249.0,255.0,259.0,252.0,253.0,242.0,253.0,260.0,254.0,257.0,248.0,259.0,261.0,251.0,255.0,254.0,259.0,257.0,255.0,254.0,254.0,256.0,256.0,249.0,247.0,251.0,253.0,255.0,247.0,252.0,251.0,259.0,257.0,251.0,247.0,247.0,256.0,254.0,246.0,252.0,248.0,248.0,243.0,237.0,242.0,245.0,252.0,249.0,243.0,250.0,256.0,250.0,251.0,245.0,253.0,263.0,259.0,256.0,247.0,257.0,258.0,255.0,253.0,245.0,254.0,255.0,246.0,247.0,250.0,252.0,255.0,249.0,252.0,246.0,256.0,257.0,251.0,253.0,251.0,260.0,260.0,254.0,254.0,249.0,260.0,258.0,255.0,257.0,257.0,265.0,265.0,256.0,256.0,258.0,261.0,264.0,257.0,260.0,260.0,263.0,259.0,256.0,264.0,264.0,266.0,261.0,254.0,259.0,263.0,265.0,261.0,258.0,262.0,266.0,265.0,261.0,254.0,263.0,267.0,260.0,260.0,253.0,256.0,258.0,255.0,250.0,243.0,255.0,254.0,251.0,249.0,244.0,253.0,257.0,249.0,251.0,247.0,254.0,260.0,254.0,254.0,248.0,260.0,262.0,256.0,257.0,252.0,264.0,266.0,258.0,257.0,257.0,262.0,257.0,252.0,254.0,256.0,261.0,261.0,253.0,255.0,262.0,262.0,261.0,252.0,255.0,261.0,262.0,257.0,250.0,257.0,259.0,258.0,254.0,246.0,253.0,262.0,259.0,257.0,249.0,255.0,263.0,260.0,259.0,251.0,259.0,265.0,258.0,258.0,250.0,257.0,263.0,261.0,260.0,250.0,259.0,260.0,257.0,254.0,245.0,252.0,255.0,247.0,246.0,246.0,253.0,257.0,250.0,253.0,251.0,259.0,259.0,250.0,252.0,247.0,258.0,258.0,246.0,249.0,251.0,255.0,254.0,248.0,250.0,257.0,260.0,258.0,250.0,254.0,262.0,260.0,259.0,249.0,253.0,254.0,259.0,258.0,249.0,252.0,255.0,258.0,256.0,248.0,254.0,258.0,255.0,254.0,248.0,250.0,256.0,256.0,253.0,243.0,255.0,261.0,255.0,254.0,243.0,250.0,255.0,251.0,250.0,241.0,253.0,254.0,250.0,252.0,245.0,254.0,256.0,246.0,246.0,247.0,250.0,253.0,245.0,248.0,246.0,255.0,253.0,245.0,245.0,244.0,251.0,249.0,248.0,250.0,252.0,258.0,257.0,250.0,253.0,254.0,259.0,261.0,252.0,254.0,256.0,258.0,258.0,250.0,253.0,256.0,256.0,254.0,245.0,254.0,256.0,259.0,255.0,246.0,251.0,258.0,258.0,258.0,250.0,256.0,261.0,259.0,256.0,247.0,260.0,259.0,253.0,252.0,246.0,260.0,260.0,258.0,259.0,250.0,258.0,258.0,254.0,254.0,248.0,255.0,261.0,254.0,256.0,256.0,258.0,262.0,253.0,254.0,247.0,257.0,262.0,251.0,253.0,248.0,257.0,257.0,252.0,252.0,255.0,258.0,257.0,253.0,255.0,258.0,259.0,258.0,248.0,250.0,256.0,258.0,253.0,247.0,250.0,255.0,251.0,250.0,242.0,254.0,256.0,253.0,249.0,249.0,255.0,261.0,256.0,256.0,250.0,257.0,262.0,259.0,260.0,251.0,259.0,263.0,257.0,257.0,248.0,258.0,259.0,255.0,253.0,245.0,256.0,260.0,256.0,256.0,250.0,264.0,262.0,253.0,257.0,260.0,263.0,263.0,254.0,256.0,255.0,261.0,264.0,257.0,260.0,256.0,262.0,259.0,251.0,253.0,258.0,256.0,254.0,247.0,252.0,258.0,256.0,255.0,249.0,256.0,258.0,258.0,254.0,247.0,252.0,258.0,259.0,256.0,249.0,255.0,257.0,256.0,255.0,246.0,252.0,259.0,255.0,251.0,244.0,249.0,256.0,254.0,252.0,246.0,259.0,262.0,253.0,256.0,249.0,258.0,258.0,254.0,254.0,250.0,260.0,261.0,251.0,253.0,249.0,259.0,259.0,250.0,251.0,255.0,258.0,257.0,250.0,253.0,253.0,258.0,254.0,244.0,250.0,253.0,260.0,258.0,252.0,253.0,257.0,258.0,256.0,250.0,252.0,256.0,254.0,254.0,245.0,250.0,258.0,257.0,256.0,247.0,251.0,259.0,254.0,253.0,244.0,255.0,257.0,252.0,251.0,244.0,250.0,258.0,253.0,249.0,245.0,250.0,256.0,249.0,249.0,245.0,256.0,260.0,250.0,255.0,253.0,262.0,263.0,256.0,257.0,254.0,261.0,262.0,255.0,258.0,258.0,259.0,263.0,252.0,254.0,256.0,261.0,259.0,252.0,253.0,251.0,259.0,264.0,252.0,257.0,257.0,264.0,262.0,253.0,257.0,262.0,262.0,262.0,254.0,259.0,266.0,262.0,263.0,253.0,257.0,265.0,261.0,258.0,249.0,255.0,263.0,259.0,259.0
